
 $NMID
 id='ANONYMOUS ', fmtdat='(2E16.6)'
 volume=1.0
 tramp=1.0
 $END
  -1.781302e+03   2.074038e+02
  -1.761585e+03  -5.030720e+02
  -1.496094e+02  -1.221200e+03
   3.067740e+02  -8.657489e+02
   8.680686e+02  -1.126894e+02
   3.761221e+01  -4.775186e+01
  -2.996018e+02  -1.643998e+01
   4.373541e+01  -1.774034e+02
   1.740609e+02  -3.313813e+02
   3.457999e+02  -1.919761e+02
   1.039664e+02   1.860593e+02
   1.595730e+02   3.646336e+02
  -1.147020e+02   1.264659e+02
  -1.435087e+02  -2.061319e+02
   6.126000e+01  -3.268652e+02
   2.054002e+02  -1.015507e+02
   1.318648e+02   2.287807e+02
  -4.751745e+01   3.386182e+02
  -2.123936e+02   2.132862e+02
  -2.606488e+02  -1.017004e+02
  -1.353508e+02  -1.343808e+02
   5.617512e+01  -2.011922e+02
  -7.141348e-01  -4.984176e+01
  -7.670494e+01  -7.903125e+01
  -7.510997e+01  -1.769436e+02
   2.143696e+01  -1.743076e+02
   2.558167e+02  -6.360568e+01
   2.088861e+02   1.034173e+02
   5.068164e+01   1.348118e+02
  -1.573614e+02   2.030549e+02
  -2.585302e+02  -8.402685e+01
  -1.053286e+02  -1.378580e+02
   6.909693e+01  -1.740688e+02
   1.979940e+02  -1.187605e+02
   1.954772e+02   7.154233e+01
  -1.735298e+01   1.348531e+02
   3.281975e+00   1.265799e+02
   9.121939e+01  -1.248817e+01
   1.997431e+02  -6.258839e+01
   9.226711e+01   6.594461e+01
   1.455454e+01   1.790198e+02
  -2.065494e+02   1.989091e+02
  -1.454212e+02  -4.074535e+01
  -1.017869e+02  -9.733048e+01
   5.957164e+01  -4.502114e+01
   1.209071e+02   9.255657e+01
  -6.009514e+01   2.150198e+02
  -2.654495e+02   7.115689e+01
  -3.653927e+02  -1.502888e+02
  -4.214288e+01  -2.140153e+02
   1.201149e+02  -1.478578e+02
   1.737990e+02   3.301137e+01
   1.663094e+02   1.168321e+02
   1.302134e+01   1.144684e+02
  -5.589669e+01   1.245440e+02
  -1.931619e+02   3.735074e+01
  -3.710238e+01   1.694609e+00
   7.295614e+01   5.770426e+01
  -2.711771e+01   3.977382e+01
  -1.292325e+02  -8.194888e+01
  -7.294801e+01  -9.986425e+01
   6.373922e+01  -9.160393e+01
   1.625899e+02  -1.075038e+02
   1.298923e+02  -4.476020e+00
   1.199418e+01   2.589520e+02
  -1.603833e+02   2.182952e+02
  -1.493169e+02   9.666388e+01
  -1.432932e+02  -1.245806e+02
   1.322324e+01  -1.608730e+02
   3.280293e+01  -1.356436e+02
  -2.436724e+00  -1.304374e+02
   1.637973e+01  -5.738937e+01
   8.646700e+01  -1.039171e+02
   1.386564e+02   1.555799e+01
   1.117046e+02   1.194489e+02
   8.619506e+00   1.635284e+02
  -5.901787e+01   1.033806e+02
  -1.365514e+02  -6.348284e+00
  -4.365708e+01  -1.368091e+02
   5.240802e+00  -1.214380e+02
   1.116429e+02  -4.010706e+01
   1.362800e+02   7.297990e+01
   9.492915e+01   2.046308e+02
   1.233366e+01   8.858573e+01
  -6.812221e+01   1.404532e+02
  -6.063095e+01   5.556571e+01
  -8.266563e+01   4.734280e+01
  -1.872633e+02   4.851938e+01
  -2.046502e+02  -1.729243e+01
  -9.797781e+01  -1.721807e+02
   4.803796e+01  -2.638254e+02
   1.423666e+02  -1.439522e+02
   2.454685e+02  -5.784530e+01
   1.347143e+02   1.684218e+01
  -6.801429e+00   1.255158e+02
  -8.463443e+01   6.957338e+01
   1.105556e+01   3.705838e+01
   1.052567e+02  -2.525275e+01
   5.958478e+01   1.225385e+01
  -2.063098e+01   5.467711e+01
  -6.480561e+01   5.266746e+01
  -2.806941e+01  -8.915811e+00
   4.544676e-01  -5.581516e+00
   1.016191e+02  -2.744920e+01
   4.277654e+01   1.523135e+02
   2.102112e+01   1.063688e+02
  -1.803241e+02   1.225331e+02
  -1.960037e+02  -1.505026e+01
  -1.263503e+02  -9.559719e+01
   9.112954e+00  -1.671704e+02
   9.649532e+01  -9.677161e+01
   8.598959e+01  -4.186289e+00
   2.514563e+01  -8.475007e+00
   1.780207e+01  -4.521885e+01
  -1.561517e+00  -4.704557e+01
   8.184252e+01  -2.479591e+00
   8.525697e+01   4.970103e+01
  -3.341999e+01   1.448460e+01
  -5.077819e+01  -8.036698e+00
  -3.969134e+01  -3.087964e+01
   9.071952e+01  -4.688439e+01
   2.034346e+02   2.921891e+01
   1.734376e+02   9.655737e+01
  -2.314981e+01   1.541939e+02
  -1.339033e+02   1.434245e+02
  -1.383959e+02   5.535096e+01
  -4.838338e+01   8.453477e+00
   5.429848e+01  -5.957405e+01
  -1.196669e+01  -2.485783e+00
  -7.868457e+00   3.242289e+01
  -1.011221e+02   1.667414e+01
  -1.126878e+02  -8.068151e+01
  -4.486893e+01  -7.779708e+01
   7.375506e+01  -7.757833e+01
   5.177570e+01  -9.725460e+00
   8.719652e+00   5.693646e+00
  -5.830636e+01  -3.946734e+01
  -2.966449e+01  -7.901046e+01
   6.921046e+01  -9.818736e+01
   8.824238e+01   5.491165e+00
   1.188450e+02   6.227579e+01
  -1.249824e+01   9.189456e+01
  -4.883854e+01   1.086270e+02
  -8.390470e+01   1.945262e+01
  -2.152269e+01  -2.004170e+01
   5.001545e+01  -5.068138e+01
   3.557941e+01   1.198147e+01
   1.471863e+01   5.467067e+00
  -3.753956e+01   1.286714e+01
  -1.368533e+01   1.566101e+01
   2.042064e+01   5.451957e-01
   8.346317e+01   4.995211e+01
  -2.281150e+01   1.036429e+02
  -5.931135e+01   8.658233e+01
  -1.362063e+02   3.820123e+00
  -1.491619e+02  -7.828332e+01
  -5.074232e+01  -1.238074e+02
   3.598751e+01  -5.260671e+01
   5.776538e+01  -1.502930e+00
   2.804819e+01   2.508671e+01
   5.146684e+01   2.070108e+01
   6.956864e+00  -2.176960e+01
   5.899760e+01   1.114088e+00
   5.349497e+01   8.545691e+01
  -3.892837e+01   6.242265e+01
  -3.484977e+01   2.396704e+01
  -2.587754e+01  -2.848878e+01
   6.050064e+00  -5.400995e+01
   9.581051e+01  -8.451123e+01
   1.016210e+02   9.853671e+01
   8.766032e+01   1.487242e+02
  -6.342994e+01   1.168471e+02
  -9.321099e+01   8.432504e+01
  -1.586914e+02  -1.033118e+02
  -5.798274e+01  -4.241462e+01
   1.971685e+01  -9.972943e+01
   1.050138e+01  -1.535306e+01
   6.291902e+01  -5.287203e+01
   9.110145e+00  -2.375630e+01
   6.973311e+01  -5.780827e+01
   4.109241e+01   5.637383e+01
   1.146018e+02   1.172997e+02
   2.287200e+01   1.879128e+02
  -3.068613e+01   6.875107e+01
  -7.122911e+01   9.430602e+00
  -4.941428e+01  -1.079136e+02
   3.355391e+00  -6.592632e+01
   7.256336e+01  -4.603560e+01
   4.037227e+01   1.601896e+01
   1.603945e+01  -5.415750e+00
   9.636033e+00   2.698988e+01
   1.371155e+01   4.416794e+00
   6.134307e+01   6.553029e+00
   3.344005e+01   1.734558e+01
  -3.168209e+01   1.493651e+01
  -8.363909e+01   4.221851e+01
  -1.026527e+02  -5.679869e+01
  -2.601588e+00  -4.503218e+01
   1.068142e+02  -4.160163e+01
   1.063357e+02  -1.820651e+01
   5.017424e+01   4.665571e+01
  -2.702198e+01   1.195334e+01
  -5.301194e+01  -3.700464e+01
   1.261390e+01  -5.263055e+01
   6.129637e+01  -7.540308e+01
   4.974958e+01  -7.259372e+00
   2.533737e+01  -1.395669e+01
   9.052728e+00   4.534055e+01
   4.526201e+01  -5.145813e+00
   2.956173e+01   9.914453e+00
   4.870148e+01   4.355528e+01
  -1.893453e+01   5.985891e+01
  -3.200931e+01   6.786114e+01
  -7.203892e+01   1.806020e+01
  -5.669596e+01  -6.948475e+01
  -5.256877e+00  -1.010265e+02
   6.810648e+01  -4.513041e+01
   7.002317e+01  -9.588922e-01
  -3.129022e+01   2.525566e+01
  -4.126711e+01  -7.471008e+01
  -4.886856e+01  -7.477980e+01
   4.695535e+01  -6.626340e+01
   8.939140e+01   8.395887e+00
   7.656892e+01  -8.000433e+00
   3.829753e+01   5.135014e+01
  -1.982761e+00  -5.559338e-01
   7.565361e-01   2.090029e+01
   7.193409e+00  -3.128279e+00
   4.632272e+01  -2.536100e+01
   5.424484e+01   7.770650e+01
  -5.961430e+01   7.421950e+01
  -5.908702e+01   4.999858e+01
  -8.490885e+01  -4.457630e+00
  -2.265532e+01  -8.947706e+01
   2.156597e+01  -9.870156e+01
   2.549837e+01   1.300328e+01
   3.428621e+01   7.031045e+01
  -2.747741e+01   6.720622e+01
  -4.769095e+01   1.159840e+01
  -1.933831e+01   2.337577e+01
  -3.954151e+00   6.402272e+00
  -3.105692e+01   7.293486e+00
  -2.684868e+01   5.419710e+00
  -3.788922e+01  -3.130666e+01
  -1.607019e+01  -4.941684e+01
   1.711342e+00  -6.236123e+00
   5.664177e+01   2.416665e+01
   8.261275e+01   1.507994e+01
   2.640352e+00   3.311429e+01
  -3.663668e+01   3.244540e+01
   8.856344e+00   3.558999e+00
  -2.654827e+01  -2.217602e+01
   4.101184e+01  -2.927959e+01
   3.861955e+01  -5.251170e+00
  -6.375931e+00   1.677796e+01
   9.295021e+00  -2.613088e+01
   2.826885e+01  -2.945331e+01
   5.722165e+01   1.030749e+01
   6.987709e+01   9.392472e+01
  -1.612118e+01   1.050660e+02
  -1.192430e+02  -5.655307e+00
  -7.015775e+01   6.753655e-01
  -9.019764e+01  -7.716437e+01
   7.233920e+01  -1.228371e+02
   8.415145e+01  -5.855673e+01
   2.782016e+01  -3.572391e+00
   5.479814e+01   6.834497e+00
   6.170181e+00  -2.105395e+01
   3.821850e+00   1.006863e+00
  -1.605044e+01   7.573015e+01
   1.220613e+01   5.887918e+01
  -2.487849e+00   4.170516e+01
  -4.504183e-01  -4.926029e+01
  -3.300915e+01  -8.106960e+01
   1.825701e+00  -6.895003e+01
   5.825809e+01  -9.012465e+00
   3.060427e+01   6.265951e+01
  -2.072092e+01   7.418700e+01
  -3.419310e+01   6.930653e+01
  -9.444369e+01  -2.333738e+01
  -4.430275e+01  -3.829745e+01
   3.583999e+01  -6.444916e+01
  -1.967006e+01  -1.632513e+01
  -1.597409e+01   1.251355e+01
  -8.148010e+01   8.377955e+00
  -1.415207e+01  -1.679108e+01
   4.220649e+01  -2.451149e+00
   6.723920e+01  -1.124007e+01
   3.041709e+01   2.052903e+01
  -7.468814e+00   2.469005e+00
  -1.962298e+01   7.080003e+00
  -3.499376e+01   1.928134e+01
  -4.823981e+01  -2.625439e+01
   2.682250e+01   1.603811e+01
   1.671961e+01   2.646647e+01
   2.686116e+01   2.138899e+01
   6.392585e+01  -2.334372e+01
   1.421290e+01  -1.589692e+01
  -2.680560e+01  -4.469127e+01
   2.532921e+01  -1.828716e+01
  -1.616775e+01   9.788376e+00
   7.728900e+00   3.942874e+01
   1.042102e+01  -9.932839e+00
   4.085001e+00  -1.784386e+01
   2.165070e+01   6.524643e+00
   3.100520e+01   2.894146e+01
  -5.775955e+00   6.779701e+01
  -1.905807e+01   1.760705e+01
  -4.043326e+01   1.778179e+00
  -2.214069e+01  -1.994342e+01
   1.688557e+01  -2.504759e+01
   6.283997e+01   3.301475e+01
   3.782865e+01   4.232834e+01
  -7.952690e+00  -3.276540e+01
  -1.051562e+01   2.604493e-02
  -3.741204e+00   6.426796e+01
   2.207850e+01  -6.271429e+00
   5.306152e+01  -1.895362e+01
  -2.140726e+01   2.558114e+01
  -6.238866e+01   4.158965e+01
