
 $NMID
 id='ANONYMOUS ', fmtdat='(2E16.6)'
 volume=1.0
 tramp=1.0
 $END
   1.371526e+03   1.841767e+02
   7.712995e+02   7.404553e+02
  -3.493426e+02   6.618263e+02
  -4.769361e+02   6.381315e+02
  -6.878621e+02   2.079487e+02
  -8.695298e+01   1.344231e+02
   3.643556e+01   6.640986e+01
   4.257067e+01   1.161265e+02
  -8.156124e+01   2.969606e+02
  -1.867265e+02  -3.114009e+01
  -2.068530e+02  -2.400507e+02
  -1.779226e+02  -3.251480e+02
   9.414554e+01  -1.230383e+02
   3.643524e+01   1.823911e+02
   2.502661e+01   3.122916e+02
  -1.316309e+02   3.765828e+01
  -1.257454e+02  -2.711110e+02
   5.111056e+01  -2.423408e+02
   1.786535e+02  -2.692035e+02
   2.305269e+02   7.005444e+01
   1.068247e+02   1.367528e+02
  -6.502532e+01   8.538338e+01
   1.524215e+01  -3.277286e+00
   1.044832e+02   6.705957e+01
   1.512953e+02   1.873252e+02
  -3.251614e+01   1.389996e+02
  -2.739394e+02   4.302710e+01
  -2.090756e+02  -1.593061e+02
  -7.508445e+00  -2.176328e+02
   1.436556e+02  -1.074033e+02
   3.226767e+02   1.070623e+02
   8.623471e+01   6.490210e+01
  -1.099522e+02   1.258514e+02
  -1.882843e+02   1.058192e+02
  -9.967397e+01  -7.002697e+01
  -4.857002e+01  -1.844451e+02
  -9.119726e+00  -9.942483e+01
  -4.826714e+01   1.976830e+01
  -1.477686e+02  -1.333204e+01
  -3.750913e+01  -1.086872e+02
  -2.869927e+01  -2.440572e+02
   1.305662e+02  -1.496785e+02
   7.887719e+01   7.513214e+01
   2.052348e+01   1.022999e+02
  -1.373284e+02  -3.856683e+01
  -8.383524e+01  -7.182312e+01
   7.794471e+01  -2.010775e+02
   1.941279e+02  -1.783446e+01
   3.046230e+02   1.571600e+02
   3.531038e+01   2.659443e+02
  -1.029682e+02   1.544977e+02
  -2.757001e+02  -2.382506e+01
  -1.416860e+02  -9.203126e+01
   3.779695e+01  -1.463456e+02
   9.321919e+01  -1.075548e+02
   3.640475e+01  -2.728472e+01
   1.307005e+01  -5.204348e+01
   1.845703e+01  -1.021201e+01
  -3.662280e+00   6.138531e+00
   1.498213e+02   1.239705e+01
   8.284548e+01   4.167204e+01
  -7.229550e+01   1.195174e+02
  -1.271414e+02   8.315504e+01
  -1.497827e+02   9.491449e+00
   1.414465e+01  -1.429132e+02
   1.837843e+02  -2.299091e+02
   1.822658e+02  -1.024579e+02
   1.221071e+02   7.142862e+01
   5.161691e+01   1.906552e+02
  -1.344370e+02   8.316953e+01
   2.310308e+01   7.575115e+01
   3.158903e+01   3.779435e+01
  -7.781651e+01   6.854470e+01
  -1.569361e+02   4.790387e+00
  -1.476246e+02  -1.126610e+02
  -2.072332e+01  -1.554123e+02
   7.564411e+01  -7.696150e+01
   1.053295e+02   4.330173e+01
   5.823449e+01   1.561932e+02
   5.105097e+00   8.711412e+01
  -4.670028e+01   6.789575e+01
  -1.377505e+02  -1.599515e+02
  -8.165413e+01  -9.023259e+01
   2.004237e+01  -1.264623e+02
   8.152183e+01  -1.049007e+02
   6.331407e+01  -3.811479e+01
   8.441918e+01  -3.970930e+01
   1.493787e+02  -1.779970e+01
   1.947799e+02   5.350351e+01
   1.324508e+02   1.299229e+02
  -9.798680e+01   2.731857e+02
  -2.525866e+02   2.464047e+02
  -2.622596e+02   1.143661e+02
  -1.410021e+02   1.228370e+01
  -2.838175e+01  -8.440039e+01
   1.101702e+02  -3.824153e+01
  -3.185923e+01  -1.566061e+01
  -4.817292e+01  -2.944754e+01
  -7.449534e+01  -1.385560e+01
   1.457382e+01  -6.545901e+01
   5.032390e+01  -1.079014e+01
   6.631825e+01   3.786725e+01
   1.752447e+01   6.316872e+01
  -9.243984e+01   3.740535e+01
  -2.605911e+01  -1.230257e+02
   2.846580e+01  -1.817193e+02
   1.389556e+02  -1.402068e+02
   1.790729e+02  -1.821437e+01
   1.300863e+02   1.006691e+02
   4.464237e+01   1.460276e+02
  -8.424525e+01   5.906709e+01
  -5.308410e+01   1.615993e+01
   3.898784e+01  -4.906665e+01
   5.527907e+01   7.704504e+01
  -3.357301e+01   4.026193e+01
  -6.638984e+01   4.202904e+01
  -7.824702e+01  -5.248464e+01
  -5.897646e+00  -7.204442e+01
   4.515741e+01   5.177529e+01
  -1.394061e+01   6.415719e+01
  -4.086844e+01   1.943153e+01
  -1.096183e+02  -5.968086e+01
  -1.355619e+02  -6.893109e+01
   7.727182e+01  -1.103939e+02
   5.588998e+01  -9.665729e+01
   1.725334e+02   2.615407e+01
   6.662902e+01   1.744444e+01
   3.315558e+00   2.924907e+01
   4.704620e+00   2.346198e+00
   3.087467e+01  -3.864230e+01
   1.367257e+02  -2.451248e+01
   1.154739e+02   6.121952e+01
  -8.393856e+00   8.842064e+01
  -5.901571e+01   5.638701e+01
  -5.454796e+01  -7.617021e+00
   1.349700e+01  -3.064089e+01
   3.654464e+01   9.543831e-01
   8.005841e+00   4.072947e-01
  -3.196376e+01   5.294103e+01
  -8.905057e+01   3.446900e+01
  -7.122306e+01  -7.090843e+01
   1.968455e+01  -5.824535e+01
   7.929101e+01  -9.106723e+01
   9.019676e+01   1.313564e+01
   1.304253e+01   4.178464e+01
  -3.474241e+01   2.092196e+01
  -5.270075e+01   1.019947e+01
   2.273141e+00  -1.232426e+01
   9.407642e+00   2.141501e+01
   1.726506e+01   7.897546e+01
  -7.228357e+01   8.140242e+00
  -8.120145e+01  -1.817122e+01
   3.012726e+01  -8.449523e+01
   1.213686e+02  -1.301413e+02
   9.516025e+01   2.101519e+01
   1.318467e+02   1.231792e+02
   6.713139e+01   9.585339e+01
  -3.465347e+01   6.292760e+01
  -9.742960e+00  -1.719438e+01
  -4.115072e+01  -2.426804e+01
  -3.909478e+01   8.236541e+00
  -3.852256e+01   2.455539e+01
  -5.503576e+01   4.384918e+01
  -4.677871e+01  -4.717793e+01
   1.900486e+01  -5.391945e+01
   4.116624e+01  -3.416456e+01
   7.096974e+01   2.863801e+01
   1.082706e+01   6.844358e+01
  -1.539743e+02   6.977145e+01
  -1.018883e+02  -2.583287e+01
  -3.553497e+01  -1.127580e+02
   5.578934e+01  -1.140279e+02
   1.516863e+02  -4.036211e+01
   1.205267e+02   2.933517e+00
   7.674952e+01   5.582143e+01
  -2.711106e+01   3.349353e+01
  -5.203467e+01   3.588449e+01
  -1.263387e+01   6.870336e+00
  -2.469222e+01   7.200942e+01
  -4.640368e+01   3.599751e+01
  -1.254712e+02  -1.467830e+01
  -3.731119e+01  -9.978711e+01
  -9.874108e+00  -1.236188e+02
   3.902232e+01  -7.566570e+01
   6.667744e+01   2.686468e+01
   7.685701e+01   4.339602e+01
   3.629596e+01   6.915808e+01
  -4.771770e+01   6.539710e+01
  -4.741379e+01  -1.882303e+01
   4.060987e+01  -7.474858e+01
  -3.705445e+00  -3.505590e+01
   1.845846e+01  -3.462926e+01
  -3.310246e+01  -1.658804e+01
  -6.066487e+01   8.296280e+00
   3.492951e+01  -3.878392e+00
   5.229902e+01   6.209670e+00
   6.892047e+01   5.800477e+01
  -1.747113e+01   8.417463e+01
  -8.468358e+01   5.437130e+01
  -6.527066e+01   1.692010e+01
  -2.938702e+01  -1.541611e+01
   5.342629e+01  -2.606727e+01
   1.147223e+01  -3.192728e+00
   1.481829e+01   5.668753e+01
   1.226629e+01   7.331572e+01
  -3.624138e+01  -2.933779e+01
  -5.035068e+01  -4.028798e+01
  -3.990177e+01  -4.440418e+00
  -1.718020e+01   1.003231e+00
  -2.781191e+01   3.986131e+01
  -5.957776e+00  -1.986916e+01
   6.779395e+00  -4.424752e+01
   5.364818e+01  -1.052185e+02
   9.706060e+01  -3.076280e+01
   4.873016e+01   3.281436e+01
   1.514260e+01   7.474353e+01
  -4.675673e+01   3.795270e+01
   1.083510e+00   9.642738e+00
   2.619991e+01  -8.193212e+00
   2.882449e+01   1.866620e+01
   2.347737e+01   6.197048e+01
  -4.925787e+01   7.148781e+01
  -1.049977e+02   2.932879e+00
  -5.004309e+01  -1.274210e+01
   1.103415e+01  -1.868406e+01
  -2.909167e+01  -2.108536e+01
   2.195134e+01   3.202241e+01
  -1.385777e+01  -1.518619e+01
   1.097012e+01  -2.731732e+01
  -1.366747e+01  -3.186476e+01
   2.679279e+01  -2.311185e+01
   3.926659e+01   2.046649e+00
   1.027052e+02   1.303557e+01
   4.543952e+01   4.263128e+01
  -5.107893e+01   5.521003e+01
  -5.784832e+01  -2.242719e+01
  -3.778858e+01  -8.833041e+01
  -3.669788e+01  -4.550683e+01
   4.802277e+01  -1.037421e+01
  -1.087979e+01   1.745069e+01
  -1.406140e+01  -4.708515e+01
   3.021336e+01  -4.242467e+01
   4.802177e+01   9.059408e+00
  -8.699052e-01  -2.156784e+00
   6.385699e+01   7.123598e+01
  -7.545877e+01   2.443315e+01
  -4.520922e+01  -5.747940e+01
  -4.845964e+01  -4.738194e+01
  -4.186919e+01  -3.721966e+01
   7.965605e+01   7.141190e+00
   3.261807e+01  -7.779001e+00
   6.431360e-01   1.625219e+01
  -1.277500e+01  -1.519330e+01
   3.845961e+01   7.790825e+00
   1.693651e+01   4.810745e+01
  -2.297631e+01  -2.364219e+00
  -3.548507e+01  -1.449025e+01
  -6.445065e+01  -1.435247e+01
  -1.132346e+01   8.252304e+00
   6.718003e+01  -5.753675e+01
   6.353990e+01  -4.111064e+01
   2.630742e+00   5.324006e+01
  -2.885409e+00   9.536984e+01
  -4.543456e+00   8.410843e+01
  -6.425683e+01   5.298083e+01
  -3.383519e+01   1.376071e+01
  -2.294490e+01  -2.790057e+01
  -3.543196e+01   1.751268e+01
   1.472081e+01   6.875311e+00
   3.009533e+01  -9.683795e+00
   7.703795e+00  -5.054778e+01
   4.212458e+01  -1.191353e+00
   1.194428e+01   1.863855e+01
   1.389905e+01   3.328753e+01
   1.693982e+01   4.564140e+01
  -7.764083e-02  -4.906908e-01
  -6.684059e+01  -2.688176e+01
  -4.319648e+01  -4.110713e+01
   2.832835e+01  -1.604006e+01
   5.989682e+01   5.381752e+01
   3.377354e+01   4.449056e+01
  -4.395100e+01   5.665350e+01
  -1.104570e+01  -2.358257e+00
  -1.938442e+01  -3.990689e+01
   1.636044e+01  -8.760056e+00
  -1.074038e+01   3.006299e+01
  -8.847555e+01   4.712384e+01
  -8.038312e+01   4.120398e+01
  -1.949691e+01  -1.005603e+01
  -1.310793e+01  -5.590484e+01
   3.745591e+01  -3.587805e+01
   4.247997e+01  -4.643475e+00
   4.575162e+00  -2.963344e+00
  -5.840156e+00   3.380246e+01
  -1.174758e+01  -3.584245e+01
   1.105699e+01  -6.465778e+00
  -2.195905e+01  -3.985148e+01
   3.141762e+01  -6.021420e+00
   1.951337e+01   4.218620e+01
   1.749540e+01   2.341625e+01
  -4.046260e+00  -5.672340e+00
   1.461227e+01  -3.006243e+01
  -1.386445e+01  -1.511684e+01
  -1.467381e+00   2.205954e+01
  -2.467993e+01   2.536460e+01
  -1.871549e+01  -1.145554e+01
   1.169165e+00  -8.364967e+00
  -3.736799e+00  -2.524936e+01
   5.403538e+01   1.340711e+01
   2.421146e+00   6.341096e+01
  -1.553872e+01   4.503780e+00
  -6.973019e+01   2.027721e+01
  -1.291117e+01   1.201563e+01
  -8.893804e+00  -3.757477e+01
   6.322627e+01  -4.113895e+01
  -8.728004e+00   1.576126e+01
   2.136902e+00  -4.573453e-01
   1.643598e+01  -2.211916e+01
  -2.173650e+00  -1.600828e+01
   1.274819e+01  -1.717857e+01
