
 $NMID
 id='ANONYMOUS ', fmtdat='(2E16.6)'
 volume=1.0
 tramp=1.0
 $END
  -2.216501e+03  -1.996560e+02
  -1.722349e+03  -8.716216e+02
   1.388753e+02  -1.305082e+03
   7.895408e+02  -1.240033e+03
   7.517695e+02  -2.394809e+02
   1.933834e+02  -2.168046e+01
  -1.785094e+02  -4.030131e+01
  -8.314219e+01  -3.446581e+02
   2.509293e+02  -5.421984e+02
   4.297417e+02  -1.761667e+02
   3.655848e+02   2.186321e+02
   1.430338e+02   5.542825e+02
  -6.360412e+01   2.500923e+02
  -2.214602e+02  -3.248397e+02
   9.813556e+00  -4.567959e+02
   3.111528e+02  -1.666263e+02
   1.612093e+02   5.088793e+02
  -8.215970e+01   5.097982e+02
  -3.385576e+02   3.361830e+02
  -3.987770e+02  -8.286846e+01
  -1.759230e+02  -3.174310e+02
   4.208519e+01  -2.092052e+02
   7.818373e+01  -6.210580e+01
  -1.510280e+02  -1.095406e+02
  -1.865923e+02  -2.782010e+02
  -5.375212e+01  -2.811706e+02
   3.997410e+02  -8.481815e+01
   4.977538e+02   1.017835e+02
   1.183228e+02   3.555405e+02
  -1.502790e+02   5.053567e+01
  -4.689471e+02  -1.588585e+02
  -1.387897e+02  -1.471420e+02
   1.930410e+02  -2.296322e+02
   3.404188e+02  -9.132672e+01
   2.302171e+02   1.096330e+02
   8.569677e+01   2.248104e+02
   9.494944e+00   1.420027e+02
   1.063205e+02  -3.711969e+01
   1.439472e+02  -1.126014e+02
   7.465309e+01   1.469202e+02
   1.141122e+02   2.828832e+02
  -9.487042e+01   2.059618e+02
  -2.103399e+02  -2.126871e+01
  -5.083460e+01  -2.468244e+02
   1.212979e+02  -4.971169e+01
   8.424526e+01   1.501413e+02
  -2.946249e+01   2.692335e+02
  -3.888717e+02   6.870498e+01
  -3.777383e+02  -1.900462e+02
  -9.430286e+01  -4.043447e+02
   2.127711e+02  -2.482631e+02
   3.685739e+02   1.410332e+00
   2.586251e+02   1.306986e+02
  -9.475154e+00   1.635391e+02
  -1.923621e+02   7.135002e+01
  -1.270413e+02   1.036563e+01
  -4.997987e+01  -1.093486e+01
   5.213713e+01  -4.253661e+01
   1.032655e+01   9.471220e+01
  -1.732141e+02   1.518124e+01
  -1.434224e+02  -5.915112e+01
   1.015921e+02  -2.160019e+02
   2.352958e+02  -1.180641e+02
   2.348293e+02   5.811637e+01
   1.319427e+00   2.199858e+02
  -2.526867e+02   3.473913e+02
  -2.603627e+02   8.666454e+01
  -1.537239e+02  -1.416798e+02
  -3.212075e+01  -3.144177e+02
   2.766091e+01  -2.169683e+02
  -2.150711e+01  -1.533163e+02
   4.196401e+01  -1.242437e+02
   1.088896e+02  -1.083576e+02
   2.231401e+02  -2.152263e+01
   1.579022e+02   1.244645e+02
   9.184368e+01   2.179175e+02
  -4.179461e+01   1.256415e+02
  -1.511089e+02   4.533482e+00
  -8.217856e+01  -2.094873e+02
  -4.433913e-01  -1.731767e+02
   1.961757e+02  -9.112896e+01
   2.849778e+02   1.731325e+02
   1.116022e+02   2.009229e+02
  -8.048948e+00   2.206178e+02
  -1.314998e+02   1.353134e+02
  -1.405151e+02   4.547595e+01
  -1.089179e+02   3.649770e+01
  -2.520090e+02   2.555486e+01
  -3.387167e+02  -1.104769e+02
  -1.955999e+02  -2.328300e+02
   6.379305e+01  -3.420176e+02
   3.504475e+02  -2.673716e+02
   4.102360e+02  -1.597865e+02
   2.782996e+02  -1.497318e+01
   8.632600e+01   1.586191e+02
  -1.033486e+02   1.499856e+02
  -6.464256e+00   3.324108e+01
   4.259421e+01  -2.276660e+01
   9.830396e+01   6.278877e+01
   5.255226e+01   9.915100e+01
  -5.127920e+01   8.224351e+01
  -1.098863e+02  -5.766096e+01
   2.333615e+00  -1.008433e+02
   1.487408e+02  -1.032887e+01
   8.378885e+01   1.972948e+02
  -2.567448e+00   2.597320e+02
  -2.187756e+02   1.689099e+02
  -2.685738e+02  -2.126202e+00
  -2.340440e+02  -1.836196e+02
  -4.435893e+01  -1.992325e+02
   6.924877e+01  -1.132068e+02
   1.201966e+02   2.182736e+01
   2.966885e+01   1.641016e+00
  -6.920400e+01  -3.914893e+01
  -5.791758e+00  -3.583848e+01
   1.253673e+02  -8.358553e+01
   1.260430e+02   3.673437e+01
  -4.918283e+00  -5.072087e+00
  -8.706845e+01   2.944216e+00
  -2.560112e+00  -9.977023e+01
   8.762880e+01  -9.297790e+01
   2.568206e+02   2.912522e+01
   2.011870e+02   1.189050e+02
   1.017780e+01   2.709326e+02
  -1.778681e+02   1.450085e+02
  -2.615784e+02   1.321178e+01
  -1.457887e+02  -3.784787e+01
   4.695941e+00  -7.148002e+01
   5.766129e+01   1.676191e+00
  -2.561469e+01   7.085194e+01
  -1.602627e+02  -3.472324e+01
  -1.865189e+02  -6.765738e+01
  -6.207377e+01  -1.163645e+02
   8.963873e+01  -1.069394e+02
   1.229551e+02  -4.966581e+01
   3.789744e+01   5.249967e+01
  -5.535852e+01  -3.036641e+01
  -4.699860e+01  -1.061627e+02
   6.360310e+01  -1.200300e+02
   1.795936e+02   5.452549e+01
   1.704948e+02   1.222605e+02
  -2.257229e+01   1.271328e+02
  -1.132949e+02   1.386639e+02
  -9.444850e+01  -2.399953e+01
  -8.475123e+01  -5.572986e+01
   3.105257e+01  -6.249501e+01
   3.522060e+01  -1.911182e+01
   1.575290e+01   4.317569e+01
  -1.502549e+01   8.815321e-01
   3.075009e+01  -3.756146e+01
   8.344177e+01  -2.517175e+01
   7.381330e+01   4.769468e+01
   4.420991e+01   1.989065e+02
  -1.236114e+02   1.032609e+02
  -2.014408e+02  -1.561755e+01
  -1.463549e+02  -8.851240e+01
  -6.048120e+01  -1.057165e+02
   2.442968e+01  -1.318570e+02
   7.627936e+01  -6.233897e+00
   3.821826e+01  -7.594240e-01
   5.631725e+01   3.016176e+01
   4.714520e+01  -3.523625e+01
   6.177464e+01   6.153491e+00
   2.076143e+01   6.401974e+01
   5.423029e+00   1.253437e+02
  -1.480183e+02   5.175700e+01
  -8.762759e+01   2.240983e+00
  -1.045352e+01  -1.219962e+02
   1.543495e+02  -1.282237e+02
   1.987520e+02   3.025282e+01
   1.165998e+02   1.943327e+02
  -6.035849e+01   1.712554e+02
  -2.394892e+02   7.817898e+01
  -1.198536e+02  -5.747559e+00
  -7.973877e+01  -1.434060e+02
   3.432975e+01  -1.425655e+02
   5.715280e+01  -5.560521e+01
   5.326054e+01  -9.831932e+01
   3.998628e+01  -1.032682e+02
   5.799990e+01  -4.764289e+01
   1.121701e+02   5.170001e+01
   1.024985e+02   1.017319e+02
   2.576576e+01   2.396243e+02
  -3.749937e+01   1.056568e+02
  -1.683169e+02   3.770492e+01
  -9.419765e+01  -1.249460e+02
   8.320116e+00  -1.705074e+02
   6.080963e+01  -5.246342e+01
   4.703419e+01   4.633179e+01
   5.622119e-01   4.724734e+01
  -5.479767e+01   4.603928e+01
   2.040714e+01  -1.012994e+01
   6.660272e+01   2.566680e+01
   3.637750e+01   2.216026e+01
  -7.091222e+01   8.580268e+00
  -1.198735e+02  -1.947358e+01
  -8.778397e+01  -6.682841e+01
   3.700475e+01  -3.971931e+01
   8.824423e+01  -4.735271e+01
   9.880593e+01   3.637686e+01
   5.361900e+01   1.304599e+01
  -8.085784e+01   5.817053e+01
  -4.387249e+01  -2.925869e+01
   1.361669e+01  -7.197111e+01
   6.505293e+01  -6.374278e+01
   1.731900e+01   2.512920e+01
   5.596467e+01   3.747540e+01
   1.141965e+01   8.488546e+00
   6.497312e+01   2.436684e+01
   5.833686e+01   1.800852e+01
  -1.169229e+01   6.406706e+01
  -5.237060e+01   9.793754e+01
  -1.375760e+02   1.303565e+02
  -1.515072e+02   6.242864e+01
  -1.302344e+02  -7.907225e+01
  -1.869946e+01  -4.307645e+01
   8.835725e+01  -5.994876e+01
   5.507004e+01   1.042155e+01
   1.723239e+01   1.630219e+01
  -7.761362e+01  -8.082231e+00
  -9.812018e+01  -5.614952e+01
   7.832081e+01  -9.578744e+01
   1.813733e+02  -2.594300e+01
   8.472678e+01   4.696152e+01
   3.106454e+01   9.019854e+01
  -9.064360e+01   3.610620e+01
  -4.118889e+01  -5.314191e+01
   1.491881e+01  -7.425322e+00
   7.776342e+01   3.607200e+00
  -3.548361e+00   7.408381e+01
  -2.208459e+01   1.382265e+02
  -1.044986e+02   6.852486e+01
  -7.713285e+01  -1.479565e+01
  -4.602892e+01  -1.522772e+02
   3.952789e+01  -7.928703e+01
   6.890978e+01   1.792538e+01
   1.979607e+01   7.944948e+01
  -2.532805e+01   4.708360e+01
  -3.178582e+01  -5.202890e+01
   3.484491e+00  -3.768730e+01
  -1.104774e+01  -1.815104e+01
  -6.032982e+00   3.226902e+01
  -2.849180e+01   4.255527e+01
  -2.052950e+01  -9.835057e+01
  -5.179527e+00  -1.211074e+02
   7.157175e+01  -1.205215e+01
   9.641641e+01   2.555428e+01
   1.016927e+02   6.624022e+01
  -3.699387e+01   4.925514e+01
  -6.279146e+01   4.334039e+01
  -4.208738e+01  -3.625787e+01
   1.195807e+01  -2.312128e+01
   3.138591e+01  -5.727029e+01
   3.073620e+01   3.777811e+00
   8.468668e+00   1.177009e+01
   2.822264e+00  -2.055271e+01
   5.337447e+01   4.299412e+01
   9.692504e+01   4.518987e+00
   4.582911e+00   6.730617e+01
  -8.007074e+01   1.279118e+02
  -1.411820e+02   6.708125e+01
  -7.892278e+01  -3.110992e+01
  -6.791303e+01  -1.371214e+02
   3.839686e+01  -1.441886e+02
   1.010450e+02  -4.320890e+01
   3.374184e+01   3.106475e+01
   5.949730e+01   4.972400e+00
   2.448154e+01   2.814334e+01
   2.847189e+01   1.856545e+01
  -1.287892e+01   2.369784e+01
  -4.574463e-01   9.364675e+01
  -4.667847e+01   2.023236e+01
  -5.940098e+01   1.461225e+01
  -8.875198e+01  -7.098448e+01
  -1.951594e+01  -6.135317e+01
   1.979135e+01  -4.246314e+01
   9.378079e+01   4.432471e+01
   1.597990e+01   5.211193e+01
  -4.583915e+01   3.590586e+01
  -1.111672e+02  -6.380307e+01
  -2.852872e+00  -3.909563e+01
   4.701471e+01  -4.219523e+01
   3.519927e+01  -4.007715e+00
  -6.847893e+01  -1.022294e+01
  -2.350528e+01  -1.935556e+01
  -3.143079e-01  -1.807092e+01
   1.265863e+01  -4.818608e+01
   9.103534e+01  -5.134345e+01
   3.823255e+01   5.139297e+01
  -3.615978e+01   6.699338e+01
  -3.213224e+01   6.897543e+01
  -4.739861e+01   4.873334e+01
  -2.225091e+01  -6.329911e+00
   2.086831e+01  -5.662911e+01
   1.470601e+01  -2.458921e+01
   1.167220e+01   3.435249e+01
   3.689952e+00   7.147442e+01
  -1.783862e+01  -4.168856e+01
  -3.016038e+01  -2.699629e+01
  -3.109691e+01  -3.505834e+01
  -3.377248e+01   2.762072e+01
   6.415493e+00  -1.997475e+01
  -2.981480e+01  -2.008795e+01
   1.491282e+01  -3.317377e+01
   4.001640e+01  -1.152524e-01
   3.754279e+01   4.260086e+01
   1.126008e+01   4.988838e+01
  -2.543346e+01   5.494655e+01
  -3.964412e+01  -1.191095e+01
  -1.747986e+01  -7.201756e+01
   3.159816e+01  -4.669234e+00
   9.530632e+01   2.499407e+01
   2.168320e+01   4.327588e+01
  -7.081013e+01   5.786161e+01
  -6.187864e+01   3.264941e+01
  -1.888589e+01  -2.077847e+01
   5.061419e+01  -1.971293e+01
   2.609589e+01   2.372037e+01
   7.552442e+00   4.503780e+01
  -9.835268e+01  -1.880740e+01
