
 $NMID
 id='ANONYMOUS ', fmtdat='(2E16.6)'
 volume=1.0
 tramp=1.0
 $END
  -2.782669e+03   7.320480e+02
  -2.357543e+03  -1.082290e+03
   2.291235e+01  -1.597514e+03
   6.784839e+02  -1.918958e+03
   1.095813e+03  -4.776737e+02
   3.957140e+02   2.624031e+02
  -1.691655e+02   2.214337e+02
  -3.115051e+01  -3.473664e+02
   2.308838e+02  -6.662175e+02
   5.698133e+02  -1.664877e+02
   5.475582e+02   3.956196e+02
   7.505823e+01   5.655283e+02
  -2.247456e+02   2.166640e+02
  -3.169827e+02  -1.502989e+02
   4.829569e+01  -4.746265e+02
   3.071623e+02  -2.842213e+02
   1.947997e+02   4.499491e+02
  -2.366908e+01   5.789841e+02
  -4.302853e+02   4.526196e+02
  -5.317276e+02  -1.781377e+02
  -1.300606e+02  -3.499407e+02
   9.278045e+01  -2.740326e+02
   1.817594e+01  -8.655809e+01
  -9.245012e+01  -1.398491e+02
  -2.179151e+02  -2.575971e+02
  -1.727831e+01  -2.560809e+02
   4.054362e+02  -8.107656e+01
   5.039181e+02   5.212661e+01
   2.042131e+02   2.576894e+02
  -1.210713e+02   1.589256e+02
  -4.031453e+02  -1.582757e+02
  -1.719809e+02  -2.453115e+02
   1.450093e+02  -3.227071e+02
   4.411180e+02  -1.416095e+02
   3.111261e+02   5.436857e+01
   1.071902e+02   2.503783e+02
   8.449405e+01   1.942608e+02
   2.344889e+01  -1.253725e+01
   2.774116e+01  -9.118242e+01
   6.891225e+01   1.562558e+02
   1.580694e+02   3.148205e+02
  -1.145684e+02   2.936933e+02
  -2.816110e+02   6.590566e+01
  -5.423275e+01  -1.922399e+02
   6.832080e+01  -1.513950e+02
   1.049704e+02   1.255986e+02
  -3.442318e+01   3.228778e+02
  -3.622970e+02   8.422279e+01
  -3.715511e+02  -2.899890e+02
  -8.289545e+01  -4.554910e+02
   2.635974e+02  -2.571077e+02
   5.048192e+02   2.776422e+01
   3.214773e+02   2.194569e+02
   9.815359e+00   1.926171e+02
  -2.955424e+02   1.856006e+02
  -2.948825e+02   4.679639e+01
  -2.542055e+01  -2.205172e+01
   1.760578e+01  -6.932248e+00
  -2.884583e+01   5.232090e+01
  -1.980280e+02  -5.947959e+01
  -1.622740e+02  -1.149201e+02
   1.374226e+02  -3.019062e+02
   2.955732e+02  -1.012557e+02
   2.510326e+02   1.250088e+02
  -6.141326e+01   3.127815e+02
  -2.559373e+02   3.166167e+02
  -3.023238e+02   1.248066e+02
  -1.893398e+02  -1.571649e+02
  -4.701393e+01  -3.410946e+02
   2.314034e+01  -3.130300e+02
   5.517569e+01  -2.107272e+02
   4.587015e+01  -8.009512e+01
   1.509825e+02  -7.902169e+01
   2.261672e+02   3.347637e+01
   2.092192e+02   1.452364e+02
   7.097629e+01   2.432406e+02
  -4.195592e+01   1.980478e+02
  -2.195402e+02  -1.267704e+01
  -1.069627e+02  -2.170122e+02
   5.003479e+00  -2.345992e+02
   1.722818e+02  -6.996400e+01
   2.556418e+02   1.505801e+02
   2.040312e+02   2.511115e+02
  -2.991011e+01   2.587763e+02
  -9.741600e+01   2.050013e+02
  -1.711933e+02   1.027464e+02
  -1.688982e+02   7.767197e+01
  -2.354565e+02   9.089163e+00
  -3.553843e+02  -1.374373e+02
  -3.388688e+02  -2.770291e+02
   3.725102e+01  -3.757836e+02
   3.488754e+02  -4.192063e+02
   5.111663e+02  -1.394938e+02
   2.742785e+02   5.045505e+01
   6.857372e+01   1.644946e+02
  -6.733710e+01   1.968558e+02
   2.672706e+01   6.524297e+01
   8.459656e+01  -5.458817e+01
   7.868524e+01   3.562571e+01
   1.012533e+01   1.211564e+02
  -1.041223e+02   1.361616e+02
  -7.355581e+01  -4.355777e+01
  -2.783922e+01  -1.243600e+02
   1.362135e+02  -3.286675e+01
   9.885237e+01   2.235629e+02
   1.343063e+01   3.492407e+02
  -2.531010e+02   1.675373e+02
  -3.611445e+02  -5.787583e+01
  -2.168414e+02  -2.634366e+02
  -7.245162e+01  -2.352828e+02
   1.107008e+02  -1.400535e+02
   1.281460e+02   2.248909e+01
  -1.231071e+01   1.501051e+01
  -3.801132e+01  -4.992068e+01
   3.935954e+01  -9.992931e+01
   6.416116e+01  -6.800007e+01
   1.311138e+02  -1.169682e+01
   2.176983e-01   7.429155e+01
  -1.169091e+02  -1.302539e+01
  -5.129306e+01  -9.404536e+01
   1.376204e+02  -6.676142e+01
   2.730556e+02   2.801026e+01
   2.438272e+02   1.852565e+02
   1.824200e+01   2.345377e+02
  -2.192706e+02   1.917287e+02
  -2.398751e+02   8.557876e+01
  -1.368789e+02  -3.745761e+01
   7.374378e+01  -9.369513e+01
   2.834117e+01  -1.046980e+01
  -1.313456e+01   1.050747e+02
  -1.646644e+02   7.208096e+01
  -1.682150e+02  -1.034686e+02
  -6.111959e+01  -1.297259e+02
   8.582319e+01  -1.076492e+02
   4.069647e+01  -2.173251e+01
   1.683795e+01   2.193623e+01
   8.765721e+00  -4.973883e+01
  -6.929969e+01  -1.111995e+02
   8.464143e+01  -9.521110e+01
   1.936055e+02  -7.009961e+01
   1.362453e+02   1.822332e+02
   1.222556e+01   2.002807e+02
  -1.058579e+02   2.001292e+02
  -1.473544e+02   1.710306e+01
  -2.071328e+01  -9.425241e+01
   3.260329e+01  -7.888960e+01
   7.470565e+01   2.907623e+01
  -4.636786e+01   2.228687e+01
  -3.023352e+01  -4.969614e+01
   1.261513e+01  -3.419844e+01
   1.117634e+02  -1.886917e+01
   8.361097e+01   8.812568e+01
   1.994316e+01   2.139301e+02
  -1.403584e+02   1.583075e+02
  -2.408681e+02   1.644140e+00
  -1.726489e+02  -7.750338e+01
  -3.097704e+01  -2.017460e+02
   6.145813e+01  -1.233190e+02
   1.138475e+02  -2.858175e+01
   1.149078e+02   3.775844e+01
   1.960157e+01   3.314172e+01
   5.240261e+01  -1.356741e+01
   6.014011e+01  -4.181038e+01
   4.900404e+01   7.728893e+01
  -6.843629e+01   8.250081e+01
  -1.385147e+02   8.625560e+01
  -8.329862e+01  -5.462939e+01
   4.035234e+01  -1.020864e+02
   1.576756e+02  -3.727698e+01
   1.447293e+02   1.263972e+02
   3.509815e+01   2.421376e+02
  -7.204760e+01   1.896400e+02
  -2.456828e+02   3.599868e+01
  -2.089758e+02  -9.365940e+01
  -1.239901e+02  -1.462142e+02
   1.881208e+01  -1.094943e+02
   9.573366e+01  -7.266859e+01
   3.137583e+01  -6.274151e+01
   5.674543e+01  -7.821108e+01
   6.275776e+01  -9.139157e+01
   1.735497e+02   5.305702e+01
   1.412716e+02   1.364760e+02
   1.768324e+01   2.259541e+02
  -1.346885e+02   1.618089e+02
  -1.764158e+02  -1.781696e+01
  -8.200728e+01  -1.507092e+02
  -2.834538e+01  -1.716240e+02
   5.058278e+01  -3.985682e+01
   3.191333e+01   3.299300e+01
   7.463690e+00   6.380408e+01
  -7.099113e+01   4.434497e+01
  -2.101313e+01   1.969403e+01
   9.774640e+01   3.390686e+01
   4.538646e+01   2.696960e+01
  -6.784541e+01   4.371421e+01
  -1.711550e+02  -1.142703e+01
  -1.302810e+02  -5.137085e+01
   3.991202e+01  -8.994475e+01
   1.327974e+02  -8.327828e+01
   1.585543e+02   9.560013e-01
   7.199307e+01   6.907829e+01
  -8.693313e+01   6.009955e+01
  -7.591052e+01   5.023947e+01
  -4.909509e+01  -5.068093e+01
   7.426698e+01  -7.718754e+01
   4.950974e+01   1.364621e+01
   7.241142e+01   7.264743e+01
   5.739850e+01   2.052997e+01
   8.049953e+01  -2.326682e+01
   4.392216e+01   3.372635e+00
   6.308135e+01   5.411127e+01
  -9.633312e+00   1.600296e+02
  -1.456031e+02   1.499534e+02
  -1.917326e+02   4.697414e+01
  -1.075778e+02  -1.192199e+02
  -4.247579e+01  -4.464794e+01
   8.559731e+01  -6.905833e+01
   5.023889e+01  -2.670599e+01
  -5.565318e+01   4.274949e+01
  -1.170330e+02  -3.963493e+01
  -6.352455e+01  -1.102569e+02
   5.724934e+01  -6.599647e+01
   1.627148e+02  -6.349559e+01
   1.397452e+02   6.296445e+01
   4.657221e+01   8.325169e+01
  -5.902514e+01   6.846013e+01
  -2.779952e+01   3.622342e+01
   4.835516e+01  -1.783197e+01
   8.696551e+01  -5.563424e+00
   8.258894e+01   1.153982e+02
  -4.559842e+01   1.623975e+02
  -1.550324e+02   7.602645e+01
  -1.784632e+02  -5.730093e+01
  -2.071371e+01  -1.482033e+02
   7.247860e+01  -1.310635e+02
   1.160877e+02   6.407715e+00
   5.076297e+01   1.673527e+02
  -3.630452e+00   8.651773e+01
  -5.685774e+01   1.140313e+01
  -2.384769e+01  -1.839537e+01
  -2.526241e+00   2.209668e+01
  -5.213436e+00  -1.462624e+01
  -2.765794e+01  -3.714798e+01
  -8.681672e+00  -9.367235e+01
  -3.194842e+01  -1.198632e+02
   8.653876e+01  -3.908332e+01
   1.633568e+02   9.936457e+00
   1.405416e+02  -1.714333e+00
   1.011047e+01   4.739280e+01
  -8.991001e+01   1.535633e+01
  -3.409637e+01  -5.565111e+00
  -2.772888e+01   7.442475e-01
  -3.153469e+00  -4.226258e+01
   1.329952e+01   1.468112e-02
  -8.897351e+00  -5.092604e+01
   1.270896e+01   2.716150e+01
   2.679922e+01   3.090095e+00
   6.158133e+01   4.054874e+01
   2.333782e+01   5.630510e+01
  -8.995101e+01   8.373282e+01
  -1.625660e+02   8.678510e+01
  -1.636699e+02  -5.229537e+01
  -9.547152e+01  -1.477723e+02
   2.545442e+01  -1.681468e+02
   1.172672e+02  -3.447452e+01
   1.157566e+02   7.676423e+01
   5.818382e+01   2.881830e+01
   9.442252e+00   6.435252e+01
   2.224673e+01   3.495957e+01
   6.969286e+00   4.542534e+01
   7.277140e+00   6.200432e+01
  -3.496817e+01   5.881696e+01
  -8.916217e+01  -4.749617e+00
  -8.739965e+01  -1.090626e+02
  -7.801361e+00  -1.357996e+02
   2.169882e+01  -2.507193e+01
   8.876674e+01   4.348932e+01
   4.098519e+01   5.055494e+01
  -3.053178e+01   5.232707e+01
  -1.598689e+02   1.698342e+01
  -4.370468e+01  -5.167170e+01
   3.376263e+01  -9.384284e+01
   1.187832e+01   2.491818e+01
  -2.800095e+01   2.664525e+01
  -7.827809e+01   3.365674e+01
  -2.972745e+00   6.408175e+00
   7.384083e+01  -7.322422e+01
   1.259864e+02  -2.481588e+01
   8.783939e+01   2.945871e+01
  -2.253695e+01   6.954521e+01
  -5.556222e+01   5.853033e+01
  -8.404767e+01   1.969623e+01
   2.110175e+00  -6.361914e+01
   3.315078e+01  -3.514406e+01
   6.543797e+01   3.278501e+01
   4.499430e+01   4.877518e+01
  -3.080315e+01   2.515807e+01
  -1.479327e+01  -1.713841e+01
  -8.733955e+01  -6.448038e+01
  -2.220820e+00  -3.983328e+01
  -1.844431e+01   1.704535e+01
  -1.541158e+00   1.715750e+00
  -5.066193e+01  -2.612219e+01
  -1.783499e-01  -1.040498e+01
   5.681520e+01   1.326518e+00
   3.703713e+01   3.417017e+01
   1.714852e+01   7.805577e+01
  -3.410587e+01   2.303556e+01
  -8.334856e+01  -2.365017e+01
  -9.211570e+00  -6.346771e+01
   6.308038e+01  -3.878357e+01
   8.358136e+01   1.224763e+01
   2.078543e+01   5.367603e+01
   1.440891e+01   3.100437e+01
  -6.297924e+01   4.501665e+01
  -8.190623e+01   1.150164e+01
   2.311952e+01  -2.237885e+01
   3.842667e+01   2.816814e+01
   7.669574e+00   2.670358e+01
  -6.787116e+01  -4.813539e+00
