
 $NMID
 id='ANONYMOUS ', fmtdat='(2E16.6)'
 volume=1.0
 tramp=1.0
 $END
  -2.292320e+03   5.885783e+01
  -1.359895e+03  -1.011058e+03
  -1.942485e+02  -1.186279e+03
   8.573967e+02  -9.155674e+02
   5.784963e+02   2.938026e+00
  -5.444339e+01   1.618540e+02
  -6.870199e+01  -2.092770e+02
  -1.116983e+02  -3.312337e+02
   2.770929e+02  -4.574665e+02
   4.872132e+02  -2.354045e+01
   1.099716e+02   4.115787e+02
   1.671730e+01   3.718289e+02
  -1.401178e+02   5.093671e+01
  -2.332135e+02  -3.019681e+02
   7.355484e+01  -3.534542e+02
   2.704837e+02  -4.214053e+01
   5.487196e+01   2.161250e+02
  -2.090922e+01   3.186351e+02
  -3.269369e+02   1.540875e+02
  -3.034138e+02  -1.106694e+02
  -3.074507e+01  -2.513698e+02
   1.141022e+02  -1.517452e+02
   3.095425e+01  -3.752597e+01
  -8.034807e+01   3.902349e+01
  -1.999259e+02  -1.449604e+02
  -4.237963e+01  -2.554337e+02
   2.292113e+02  -7.191847e+01
   3.381717e+02   1.721797e+02
   1.440479e+02   2.510454e+02
  -3.321780e+02   2.093280e+02
  -2.741493e+02  -1.693477e+02
  -1.621102e+02  -2.740021e+02
   2.035972e+02  -2.853469e+02
   2.967113e+02  -5.558367e+01
   1.501252e+02   1.050134e+02
   4.027734e+01   2.259318e+02
  -1.880289e+01   1.173607e+02
  -7.626040e+01  -7.749191e+01
   1.925561e+02  -7.032077e+01
   1.239316e+02   8.134163e+01
   1.682740e+02   3.074438e+02
  -1.423106e+02   2.743048e+02
  -2.507289e+02   1.890523e+01
  -1.496111e+02  -1.813462e+02
   7.634811e+01  -9.314794e+01
   1.087131e+02   2.163128e+02
  -5.043129e+00   2.445459e+02
  -1.458901e+02   8.157080e+01
  -3.065225e+02  -2.084789e+02
  -8.489053e+01  -2.928006e+02
   2.434695e+02  -2.059885e+02
   2.860827e+02   2.858810e+01
   2.182916e+02   1.745029e+02
   3.365928e+00   1.604559e+02
  -1.931760e+02   2.806506e+01
  -1.338352e+02  -9.884754e+01
  -2.104402e+01  -4.427888e+00
   2.690987e+01   6.596887e+01
  -2.554680e+01   8.092886e+01
  -1.819119e+02   2.917835e+01
  -9.128116e+01  -1.072382e+02
   1.218158e+02  -1.011497e+02
   1.528590e+02  -1.088533e+02
   1.497066e+02   8.046893e+01
  -2.030305e+01   1.343374e+02
  -2.375863e+02   2.251166e+02
  -2.125736e+02   8.606009e+01
  -1.117526e+02  -8.819758e+01
   3.903640e+01  -2.601363e+02
   6.448452e+01  -2.374510e+02
   1.812879e+01  -1.142928e+02
   4.111426e+01   1.526603e+00
   9.447475e+01  -4.697081e+01
   1.393533e+02  -5.581710e+01
   1.636406e+02   3.845173e-01
   2.820895e+01   1.460767e+02
  -6.559792e+01   1.034128e+02
  -9.291708e+01   1.049943e+01
  -9.665824e+01  -1.238321e+02
   2.103384e+01  -9.442233e+01
   1.441621e+02  -6.643213e+01
   1.194372e+02   1.384298e+02
   9.659329e+01   1.785217e+02
  -5.759438e+01   1.489471e+02
  -1.477725e+02   6.396165e+01
  -7.258421e+01   4.054076e+01
  -5.866122e+01   2.135427e+01
  -1.320248e+02   4.857812e+01
  -1.990108e+02  -5.052174e+01
  -1.395529e+02  -1.470141e+02
   4.722349e+01  -2.089870e+02
   2.224568e+02  -1.723133e+02
   2.888595e+02  -1.250254e+01
   1.742981e+02   8.301992e+01
   2.114987e+01   1.442414e+02
  -9.354197e+01   8.549328e+01
  -2.377129e+01   2.116351e+01
   9.614620e+01  -2.628754e+01
   3.835185e+01   3.440594e+01
   1.140731e+01   1.569372e+02
  -5.585107e+01   5.916417e+01
  -6.679916e+01  -7.162657e+01
   1.977495e+01  -9.912014e+01
   7.510070e+01  -7.404775e+00
   8.618720e+01   1.721002e+02
  -3.888931e+01   2.248791e+02
  -1.359409e+02   6.721437e+01
  -2.525416e+02  -1.122543e+02
  -1.644728e+02  -1.549923e+02
   1.129706e+01  -1.560925e+02
   1.071755e+02  -9.707841e+01
   1.144372e+02  -1.839546e+01
   3.010202e+01   3.091732e+01
  -3.261961e+01  -5.253201e+01
   1.698365e+01  -1.177605e+02
   8.487561e+01  -3.383996e+01
   5.544393e+01   1.657159e+01
  -7.769836e+00   1.952573e+01
  -3.666015e+01   4.097751e+00
  -3.052745e+01  -6.860642e+01
   8.280793e+01  -5.649324e+01
   1.687402e+02   3.346307e+01
   1.084406e+02   1.371638e+02
   1.927036e+01   1.698188e+02
  -1.901390e+02   1.180492e+02
  -1.261535e+02   4.248837e+01
  -9.028906e+01  -1.003179e+01
  -1.028141e+01  -4.389989e+01
   2.529212e+01  -3.456193e+01
  -1.242149e+01   6.210067e+01
  -1.012217e+02   4.154127e+01
  -9.420936e+01  -5.411369e+01
   3.310216e+01  -1.135263e+02
   2.916976e+01  -7.719075e+01
   7.223682e+01  -6.476895e+01
   1.660364e+01   4.147898e+01
  -3.852319e+01  -4.127294e+01
  -1.045987e+01  -7.402573e+01
   8.315317e+01  -1.101225e+02
   1.395778e+02  -4.596327e+01
   7.577611e+01   1.133456e+02
  -3.562878e+00   7.830140e+01
  -1.066961e+02   7.420207e+01
  -1.201309e+02  -3.593795e+01
  -3.278803e+01  -6.612981e+01
   6.237052e+01  -9.691024e+01
   4.459485e+01  -6.624794e+00
  -1.871707e-01   1.978610e+01
  -3.493013e+01   2.830383e+01
   1.755942e+01  -7.997845e+00
   4.700431e+01  -1.305767e+01
   8.317097e+01   8.070211e+01
  -1.462600e+01   1.197024e+02
  -9.774788e+01   7.451847e+01
  -1.492555e+02  -3.985194e+01
  -1.499068e+02  -1.005973e+02
  -3.693096e+01  -7.830015e+01
   7.699695e+01  -7.980672e+01
   8.992796e+01  -3.624666e+01
   3.509613e+01   2.989607e+01
   1.410575e+01   2.334502e+01
   2.963395e+01  -1.103114e+01
   6.333817e+01  -1.720888e+01
   7.904789e+00  -5.129260e+00
  -3.155756e+01   3.648973e+01
  -3.166624e+01  -3.399283e-01
  -8.089909e+01  -1.511064e+01
   1.885583e+01  -1.205222e+02
   1.023227e+02  -1.480221e+01
   1.428553e+02   1.794936e+01
   4.250083e+01   1.739581e+02
  -9.264939e+01   1.174237e+02
  -1.710191e+02  -2.593985e+00
  -1.282882e+02  -4.507880e+01
  -9.209687e+01  -1.097285e+02
   1.239595e+01  -8.639366e+01
   2.647478e+01  -2.419183e+01
   8.445857e+01  -4.329420e+01
   5.626025e+01  -6.114866e+01
   9.681496e+01  -7.283061e+01
   3.665613e+01   6.461003e+00
   3.744342e+01   1.412136e+02
   9.294745e+00   1.128101e+02
  -6.254905e+01   7.033179e+01
  -8.899429e+01  -3.271006e+01
  -7.643663e+01  -5.632823e+01
   1.807933e+01  -1.126691e+02
   2.667671e+01  -2.487486e+01
   3.535771e+01  -2.793807e+01
  -1.270622e+01  -1.320657e+01
  -6.165938e+01   4.626158e+00
   3.586564e+00   3.186120e+00
   9.835156e+01  -1.978782e+01
   1.304429e+01   2.203962e+01
  -4.484809e+01   2.393402e+01
  -4.927208e+01  -3.586399e+01
  -6.532826e+01  -3.251131e+01
  -3.437305e+01  -6.969479e+01
   1.598307e+01  -2.813934e+01
   1.411691e+02  -2.125523e+01
   2.990821e+01  -3.139826e+00
  -3.514613e+01   4.562094e+01
  -3.360537e+01   8.266606e-02
  -1.763868e+01  -8.199063e+00
   4.415329e+01  -4.979899e+01
   6.351136e+01   1.045269e+01
   4.573989e+01   1.403505e+01
   1.824724e+01  -2.601346e+01
   2.514842e+01   8.441818e+00
   2.455249e+00   4.555491e+01
   4.984687e-01  -1.403272e+01
  -6.446785e+01   7.377953e+01
  -8.677218e+01   1.357789e+02
  -1.200919e+02  -2.882409e+01
  -1.272067e+02  -7.005000e+01
  -1.470452e+00  -9.565374e+01
   3.606836e+01  -3.440556e+01
   5.509786e+01  -2.826462e+01
  -3.971056e+01   3.103967e+01
  -5.270912e+01  -3.247208e+01
  -2.781462e+01  -6.146043e+01
   2.980621e+01  -3.191339e+01
   1.527376e+02  -2.189466e+01
   1.549498e+02   3.922883e+01
   1.233564e+00   2.935015e+01
  -4.572352e+01  -2.566580e+01
  -4.926953e+01   4.856915e+01
   2.032287e+01  -2.676481e+01
   1.054067e+02   2.318670e+01
  -1.250910e+01   1.159070e+02
  -7.755530e+01   7.164024e+01
  -8.572074e+01   4.626925e+01
  -8.650420e+01  -3.048205e+01
  -2.283602e+01  -1.627226e+02
   2.581515e+01  -1.033728e+02
   6.260207e+01   3.543425e+01
   8.790000e+00   6.335110e+01
   1.644121e+01   5.407384e+01
  -1.322350e+01  -1.354819e+01
  -4.674869e+00   2.065835e+01
  -4.380748e+01  -3.194644e+00
  -1.003034e+01   2.071131e+01
   7.637793e+00  -7.721915e+00
  -8.455653e+01  -5.381966e+01
  -3.695062e+01  -8.670148e+01
   2.613010e+00  -1.922770e+01
   8.530886e+01   9.529600e+01
   4.108001e+01   2.119894e+01
   1.742086e+01   2.997924e+01
  -5.372700e+01   6.926451e+01
  -5.998404e+01   1.747731e+00
  -2.039406e+01   3.306494e+00
   2.459235e+01   7.433319e+00
  -4.979793e+00   3.573286e+01
  -2.114238e+01   1.124449e+01
  -1.277455e+01   2.402742e+01
   2.460769e+01   1.852022e+01
   5.255195e+01  -1.189967e+01
  -1.454893e+01   7.182574e+01
  -1.025633e+01   6.474413e+01
  -1.234692e+02  -2.459165e+01
  -5.862989e+01  -3.962226e+01
  -4.213344e+00  -7.497148e+01
   4.132023e+01  -6.289936e+01
   7.513807e+01  -5.608533e+01
   1.893743e+01  -2.942215e+01
  -1.341464e+01   5.178560e+01
  -1.858852e+01   1.224588e+01
   1.154222e+01   3.365481e+01
   2.964329e+01   4.067694e+01
   8.900180e+00   4.815502e+01
  -1.530135e+01   4.453231e+01
  -5.255187e+01  -3.476885e+01
  -2.799016e+01  -5.936259e+01
   2.043897e+00  -5.684010e+01
   5.798227e+01  -3.756494e+01
   7.456101e+01   4.833251e+01
   9.854128e+00   6.745192e+01
  -5.026532e+01   4.536298e+01
  -1.402467e+01   2.269407e+01
  -4.445260e+01  -6.986674e+00
   7.545520e+00  -6.102396e+01
   4.312368e+01  -1.284384e+01
   1.485092e+01   3.061348e+01
  -5.526516e+01   5.230616e+00
  -9.003102e+00  -3.230619e+00
   5.851909e+01  -4.436189e+01
   5.062206e+01  -6.316364e+01
   3.320885e+01  -9.892220e+00
  -5.298704e+00   3.467560e+01
  -3.493210e+01   3.130697e+01
  -4.203808e+01   3.069455e+01
  -2.599751e+01  -5.398879e+01
  -1.513831e+01  -3.038478e+01
   4.304158e+01  -4.886251e+01
  -3.217633e+01  -9.909664e+00
  -2.489747e+01  -2.814175e+01
  -2.152931e+01  -2.598199e+01
  -3.215154e+01  -2.412064e+01
  -1.908690e+01  -3.761342e+00
  -1.414552e+01  -4.405477e-01
  -2.895874e+01   1.741285e+01
   2.479084e+01  -1.768097e+01
  -4.237973e-01   1.684764e+01
   1.617634e+01  -1.606358e+01
   1.306159e+01   4.431606e+01
  -1.877348e+01   6.016780e+01
  -1.619287e+01   1.939080e+01
  -2.318167e+00   1.805863e+00
  -1.318124e+00  -3.914132e+01
   3.333035e+01  -4.035913e+01
   6.562975e+01   5.492266e+01
   1.565682e+01   2.432774e+01
  -2.232702e+01   3.063837e+01
   1.731742e+00   1.352529e+01
  -1.552375e+01   5.264820e+01
   4.649328e+01  -5.465757e+01
   5.602084e+01   9.719342e+00
  -8.799443e+00   1.058456e+01
  -3.161713e+00   3.746558e+01
