
 $NMID
 id='ANONYMOUS ', fmtdat='(2E16.6)'
 volume=1.0
 tramp=1.0
 $END
  -1.297616e+03  -2.592772e+02
  -6.916172e+02  -3.292686e+02
  -2.042300e+02  -5.759947e+02
   5.778906e+02  -4.973473e+02
   2.661239e+02  -1.490181e+02
   1.088535e+02  -1.120054e+02
  -1.488511e+02   2.637590e+01
   1.857200e+02  -3.770561e+01
   1.576297e+02  -2.672935e+02
   2.827415e+02  -1.264155e+02
   6.736424e+01   1.212269e+02
   1.674433e+02   1.727094e+02
  -1.166657e+02   1.226801e+01
  -9.522558e+00  -1.164593e+02
   2.771647e+01  -2.052855e+02
   1.877021e+02  -3.283761e+01
   4.862047e+01   1.522241e+02
   2.366839e+01   1.725165e+02
  -1.279208e+02   1.870505e+02
  -1.596269e+02  -3.899508e+01
  -1.054872e+02  -1.227966e+02
  -1.375641e+01  -1.065927e+02
  -8.276793e+00  -3.547020e+01
  -4.805339e+01  -4.133507e+01
  -8.000635e+01  -1.751002e+02
   2.639527e+01  -2.034867e+02
   1.853395e+02  -4.958203e+01
   1.667801e+02   6.838469e+01
  -1.219206e+02   1.122124e+02
  -8.911725e+01   1.509533e+02
  -1.767974e+02  -1.195575e+02
  -1.183812e+02  -1.410804e+02
   3.995164e+01  -1.278137e+02
   1.445212e+02  -3.659814e+01
   7.146230e+01   2.569662e+01
   5.078598e+01   8.762861e+01
  -7.810080e+01  -1.227076e+01
   4.715542e+01  -3.494027e+01
   1.171285e+02   5.138281e+01
   2.651593e+01   1.034081e+02
  -9.966738e+01   2.479527e+02
  -1.173310e+02   7.466730e+01
  -4.197554e+01  -9.091447e+01
   6.446410e+01  -1.299071e+02
   4.530258e+01  -8.446721e+00
   1.719357e+01   6.821443e+01
  -6.491147e+01   7.620008e+01
  -1.409900e+02  -3.309694e+01
  -1.045195e+02  -1.191225e+02
   1.198784e+01  -1.495981e+02
   1.183303e+02  -8.083819e+01
   1.876110e+02   8.242512e+01
   5.939182e+01   6.286523e+01
  -3.032315e+01   1.215379e+02
  -1.362165e+02   4.889600e+01
  -1.255631e+02  -1.604724e+01
  -6.572851e+00   1.057595e+00
   3.551424e+00   4.250804e+01
  -2.249596e+01   3.956614e+01
  -6.599343e+01  -3.775645e+01
  -3.348177e+01  -1.298750e+02
   9.874081e+01  -3.405672e+01
   1.073030e+02  -4.251544e+01
   8.945912e+01   1.292895e+00
   3.972242e+01   1.767086e+02
  -5.359492e+01   2.064231e+02
  -1.394068e+02   1.073208e+02
  -8.842825e+01  -1.058831e+02
  -4.927042e+01  -1.618252e+02
  -9.324455e+00  -7.336248e+01
   3.887223e+01  -5.597936e+01
  -8.652644e+00  -1.242055e+02
   7.201937e+01  -2.523426e+01
   1.819794e+02  -3.839603e+00
   1.224769e+02   1.818967e+01
  -1.860723e+01   1.011505e+02
  -2.552969e+01   5.682333e+01
  -7.575176e+01  -1.821533e+01
  -7.098670e+01  -1.005519e+02
   6.484192e+00  -1.219635e+02
   9.429299e+01  -1.729954e+01
   1.188588e+02   3.843516e+01
   3.156052e+01   7.210191e+01
   3.593225e+01   1.152233e+02
  -6.373915e+01   4.575619e+01
  -5.347831e+01   5.422580e+01
  -7.020218e+01   3.026575e+01
  -1.453173e+02   3.847722e+01
  -8.639324e+01  -1.501763e+01
  -1.435283e+02  -1.043086e+02
   6.853496e+01  -1.297250e+02
   1.412274e+02  -1.502688e+02
   1.957751e+02  -3.476566e+01
   7.206665e+01  -2.543702e+01
   5.787657e+01   9.985683e+01
  -3.452460e+01   4.233348e+01
  -3.887642e+01  -1.304426e+01
   6.621873e+01  -1.928081e+00
  -2.256199e+01   1.907283e+01
   8.667916e+00   5.272931e+01
  -3.439702e+01  -3.551518e+00
  -1.406538e+01  -3.455615e+01
   8.225527e+01  -5.655474e+01
   6.082572e+01   5.857556e+01
   4.266350e+01   8.331009e+01
  -6.432231e+00   1.660442e+02
  -1.159154e+02   2.747653e+01
  -1.202446e+02   9.195197e+00
  -1.331306e+02  -8.781816e+01
  -2.426719e+01  -1.010061e+02
   1.168266e+02  -4.016285e+01
   3.860848e+01  -1.397293e+01
  -1.465913e+01  -6.920328e+00
  -5.070191e+00  -4.638370e+00
   7.653715e+01  -7.395723e+01
   9.103459e+01  -3.938573e+00
   5.182820e+01   4.828101e+01
   3.545865e+00   1.111334e+00
  -3.688851e+01   3.872919e+01
  -3.529405e+01  -5.127913e+01
   5.984828e+01  -1.733742e+01
   1.519386e+02   4.078416e+01
   1.230733e+02   7.990341e+01
   7.665211e+00   9.615567e+01
  -6.658515e+01   6.470566e+01
  -8.759303e+01  -1.090785e+01
  -2.003291e+01  -1.542186e+01
   2.575656e+01   7.108839e+00
   1.844614e+00   4.474299e+01
  -3.005605e+01   5.520576e+01
  -5.214798e+01   2.324957e+01
  -4.405782e+01  -4.829662e+01
   1.668662e+01  -1.080262e+02
   5.599354e+01  -5.925805e+01
   2.478515e+01   1.391495e+01
  -1.206368e+01   2.652102e+01
  -7.095028e+01   1.348187e+01
  -2.853311e+01  -5.003882e+01
   5.571141e+01  -5.722850e+01
   8.193232e+01  -4.769662e+01
   6.481027e+00   5.266872e+01
   2.445660e+01   6.532979e+01
  -5.982520e+01   6.711341e+01
  -3.612093e+01  -1.948902e+01
  -3.630393e-01   5.417747e+00
   3.435805e+01  -3.620515e+00
   1.020663e+01   1.340044e+01
   1.109411e+01   1.055781e+01
  -1.456729e+01   6.265031e+00
  -3.689898e+01  -6.178278e+01
  -1.418388e+00   1.943858e+01
   5.289249e+01   9.139425e+01
   6.448324e+00   7.741727e+01
  -8.511145e+01   5.770050e+01
  -1.099824e+02   1.039182e+01
  -1.286338e+02  -4.620677e+01
   5.814965e+01  -6.261119e+01
   4.034987e+01  -5.090489e+01
   7.360048e+01   4.172101e+01
   2.084917e+01   4.767134e+01
  -1.619922e+01  -1.580786e+01
   1.188323e+01  -6.003337e+01
   1.454231e+01  -4.061341e+00
  -1.934190e-01   6.478727e+01
  -3.654796e+01   8.509427e+00
  -5.275358e+01   6.347445e+01
  -2.579474e+01  -2.290685e+01
  -1.906281e+01  -7.020683e+01
   2.382309e+01   1.720908e+00
   9.908813e+01  -1.414043e+01
   1.300245e+01   6.762460e+01
  -7.763352e+01   2.549079e+01
  -1.291796e+02  -1.245663e+01
  -1.367179e+02  -3.415426e+01
  -5.835812e+01  -5.183347e+01
   2.425786e+01  -5.311423e+01
  -1.162756e+01  -2.754482e+01
   3.909951e+01   4.424251e+01
  -3.906304e+01  -5.582577e+01
   4.431467e+01  -2.113797e+01
   3.778532e+01   2.607532e+01
   9.720866e+01   9.257878e+01
   3.004821e+01   5.063792e+01
  -2.109170e+01   4.776178e+01
  -7.531172e+01  -1.356464e+01
  -8.616336e+01  -6.423826e+01
  -1.257190e+01  -6.286702e+01
   1.774884e+01  -1.468880e+01
   1.312101e+01   9.417652e+00
   1.002830e+00   4.770020e+01
  -9.089933e+00  -6.756971e+00
   3.771369e+01   3.527692e+00
   5.776242e+01   2.241739e+01
   2.610736e+00   1.407437e+01
  -1.484696e+01   5.620787e+01
  -8.494921e+01   1.776210e+00
  -4.418468e+01  -3.945480e+01
   9.187223e+00  -6.331203e+01
   5.115065e+01  -3.891641e+01
   7.574821e+01   3.885453e+00
   4.610143e+00   2.548328e+01
  -3.459262e+01   3.584082e+01
  -3.987401e+01  -5.499652e+01
  -1.792246e+01   1.589296e+01
  -1.173653e+00  -2.024969e+01
  -1.857016e+01   5.506928e+00
   6.114503e+01  -1.772878e-01
   2.050648e+01   2.116711e+01
  -1.296371e+00  -8.228439e+00
   4.101224e+01   1.219722e+00
  -3.723126e+01  -2.870780e+01
  -2.002986e+01   4.361906e+01
  -5.918829e+01  -1.016799e+01
  -7.970394e+01   3.124568e+01
  -7.633691e+01  -2.154998e+01
   1.468411e+01  -3.648939e+01
   8.737034e+01  -3.795128e+00
   1.554024e+01  -1.712027e+01
  -1.639167e+01   2.058458e+01
  -4.278786e+01  -8.068671e+00
  -5.432900e+01  -5.241644e+01
   4.385432e+01  -7.340219e+01
   4.243013e+01  -1.262432e+01
   4.014957e+01   3.307107e+01
  -4.072358e+00   8.659691e+01
  -5.949671e+01   2.367910e+01
  -2.247774e+01  -1.307897e+01
   1.321219e+01  -2.415246e+01
   5.588486e+01   2.055356e+01
  -2.651689e+00   7.734197e+01
  -5.578133e+01   9.008175e+01
  -3.164159e+01   4.544645e+01
  -4.714240e+01  -3.401355e+01
  -3.080280e+01  -1.080910e+02
   2.409993e+01  -3.267111e+01
  -1.608160e+00  -1.056569e+00
   1.006463e+01   9.285361e+01
   1.005055e+01   1.676433e+01
  -5.933593e+01   3.632069e+01
  -9.460361e+00  -2.134024e+01
  -4.542709e+01   6.515526e+00
   1.842092e+01  -3.079377e+01
  -3.717254e+00  -4.329049e+00
  -5.825071e+01  -2.075553e+01
   2.820553e+01  -1.606536e+01
   3.106041e+01  -2.754475e+01
   4.987617e+01  -6.882306e+00
   6.061795e+01   3.570435e+01
   9.544946e+00   2.743191e+01
  -1.774804e+01   5.200064e+01
  -2.828500e+01   7.734183e+00
   1.150953e+01  -1.297407e+01
   3.195130e+01  -1.247293e+01
   6.403311e+01  -8.036641e+00
  -7.199695e+00   1.712391e+01
  -4.118491e+01  -1.445754e+01
  -6.728757e+00  -1.303792e+01
   2.808791e+01  -2.910735e+01
  -4.033468e+00  -5.533755e+00
  -7.032299e+01   8.494176e+01
  -6.164353e+01   5.886461e+01
  -6.740388e+01  -9.967324e+00
   8.590019e+00  -7.037950e+01
   1.689340e+01  -8.240526e+01
   6.891996e+01  -3.215510e+01
   3.020272e+01   4.753691e+01
   3.403272e+01   6.954469e+00
  -1.933573e+01   3.630525e+01
   4.474010e+00  -4.055815e+00
   2.245901e+01   4.895747e+01
   9.406582e-01   3.841632e+01
  -3.648680e+01  -2.737765e+00
  -3.669797e+01  -5.725054e+01
  -2.078023e+01  -2.246263e+01
  -6.731297e+00   3.045668e+01
   2.563387e+01  -3.677275e+00
   1.187398e+01   2.073847e+01
   3.703273e+01   5.314629e+01
  -4.954874e+01   2.833759e+01
  -7.831808e+00   3.698041e+00
   4.281094e+00   2.301435e+00
   2.866125e+01  -1.452862e+00
  -3.504681e+00  -2.835239e+01
   1.538381e+01   3.721604e+01
  -5.232109e+01   2.019081e+00
  -1.988476e+01  -3.043778e+00
   7.263028e+01  -5.158898e+01
   9.972633e+00  -2.851575e+01
   3.976234e+01   2.501974e+01
   4.036451e+00   1.761477e+01
  -4.655044e+01   6.473354e+01
  -4.650051e+00   2.817959e+01
   8.185224e+00  -6.551504e+00
   3.401349e+01  -5.644164e+00
   7.630037e+01  -2.883528e+01
   3.298260e+01   5.110057e+01
  -3.388448e+01   1.145252e+01
  -1.467212e+01   1.758138e+01
  -2.904592e+01  -6.545212e+01
  -3.889863e+01   3.663602e+00
   3.068824e+01   1.266648e+01
  -2.621659e+01   7.079779e+00
  -4.354352e+01  -7.738931e+01
  -3.940200e+01  -1.080659e+01
   1.611578e+01  -1.392294e+01
   2.864713e+00  -2.232123e+01
   4.337466e+01   1.148687e+01
  -5.784232e+00   1.251000e+00
  -1.024679e+01  -7.428908e-01
   4.167615e+01  -5.545728e+01
   3.020439e+01   3.676777e-01
   3.511908e+01  -3.440749e+01
   3.648301e+01   2.634221e+01
  -2.417904e+01   3.866582e+01
  -8.608538e+00  -2.997756e+00
   1.738725e+00   3.015336e+01
  -1.771956e+01  -3.107504e+01
   1.752613e+01   1.172295e+01
   2.092535e+01   1.367093e+01
  -3.189946e+01  -2.895353e+01
