
 $NMID
 id='ANONYMOUS ', fmtdat='(2E16.6)'
 volume=1.0
 tramp=1.0
 $END
  -2.011968e+03   2.574464e+02
  -1.611146e+03  -8.351071e+02
  -3.867791e+02  -1.017416e+03
   5.266507e+02  -1.029603e+03
   6.268346e+02  -3.005847e+02
   1.779291e+02   2.603044e+01
  -2.405331e+02   1.211772e+02
  -8.853122e+01  -2.187126e+02
   2.583937e+02  -6.270343e+02
   4.567503e+02  -6.910508e+01
   2.239778e+02   2.704669e+02
   1.167759e+02   4.574084e+02
  -1.704330e+02   2.342022e+02
  -2.616512e+02  -1.874409e+02
  -2.895094e+01  -3.543623e+02
   2.570156e+02  -3.570488e+01
   1.485422e+02   2.707503e+02
  -2.405033e+01   4.209127e+02
  -3.891422e+02   2.481868e+02
  -3.032960e+02  -1.678435e+01
  -1.012291e+02  -1.976281e+02
   8.111333e+01  -2.431171e+02
   4.788170e+01  -2.210078e+01
  -1.233397e+02  -1.001395e+02
  -1.413074e+02  -1.815084e+02
  -2.868822e+01  -2.610957e+02
   1.947121e+02  -2.695551e+01
   2.254055e+02   9.035031e+01
   7.981873e+01   2.022867e+02
  -1.775344e+02   1.751996e+02
  -2.620897e+02  -1.345555e+02
  -1.916466e+02  -1.504331e+02
   1.622006e+02  -2.120371e+02
   2.481573e+02  -1.201716e+02
   1.318844e+02   8.896918e+01
   9.447935e+01   1.229798e+02
   5.174576e+01   1.876333e+02
   2.872977e+01  -8.120944e+01
   7.677889e+01  -5.177817e+01
   3.942269e+01   8.484308e+01
   8.992238e+01   2.816858e+02
  -1.307480e+02   3.228212e+02
  -2.039455e+02   3.568058e+01
  -6.475981e+01  -1.865175e+02
  -2.002403e+01  -1.017528e+02
   1.189854e+02   9.282137e+01
   3.507108e+01   1.976877e+02
  -2.872085e+02   4.087111e+01
  -2.384876e+02  -1.493021e+02
  -5.639423e+01  -2.638085e+02
   1.137659e+02  -2.181904e+02
   3.467253e+02  -5.363996e+01
   2.746486e+02   8.963162e+01
  -1.048962e+02   1.312583e+02
  -1.630061e+02   6.908155e+01
  -1.276199e+02   9.258076e+00
  -2.424111e+01   3.154413e+01
   3.391655e+01  -3.333186e+01
   1.209492e+01   5.787787e+01
  -1.127652e+02   1.827582e+01
  -1.718775e+02  -9.360456e+01
   6.431491e+01  -1.511133e+02
   2.814108e+02  -1.170446e+02
   1.852751e+02   4.634339e+01
   2.373960e+01   1.808717e+02
  -2.184216e+02   1.780825e+02
  -2.389189e+02   8.541067e+01
  -1.306967e+02  -7.017951e+01
   2.791118e+01  -2.183532e+02
   1.007828e+01  -1.020913e+02
  -1.544184e+01  -1.561099e+02
   3.622869e+01  -1.024467e+02
   1.401743e+02  -1.121433e+02
   1.323592e+02   1.503840e+01
   9.218555e+01   6.362662e+01
   1.776007e+01   1.659324e+02
  -9.881308e+01   1.480557e+02
  -1.157077e+02  -4.366529e+00
  -9.288922e+01  -1.329185e+02
   3.736578e+00  -1.786206e+02
   1.074324e+02  -1.818456e+01
   1.563011e+02   1.530793e+02
   1.053966e+02   1.450628e+02
  -2.435305e+01   1.889006e+02
  -8.915868e+01   1.606955e+02
  -1.088184e+02   3.519383e+01
  -3.287247e+01  -1.088885e+01
  -1.560670e+02   8.478553e+01
  -2.784852e+02  -8.788554e+01
  -1.622793e+02  -2.057863e+02
   6.108454e+01  -1.929348e+02
   2.477885e+02  -2.442674e+02
   2.779981e+02  -1.003137e+02
   1.561263e+02   2.895785e+01
  -1.850930e+01   1.630754e+02
  -5.536924e+01   1.042112e+02
  -2.695898e+01  -4.760002e+00
   2.126052e+01   9.741664e+00
   3.490411e+01   1.659190e+01
   2.985672e+01   6.369467e+01
  -4.230415e+01   1.101496e+01
  -2.206861e+01  -5.970403e+01
  -9.582819e+00  -7.001429e+01
   1.116006e+02  -4.758222e-01
   8.753678e+01   1.427477e+02
  -3.689731e+01   2.471180e+02
  -1.727496e+02   9.466181e+01
  -2.439464e+02  -1.306138e+00
  -1.602680e+02  -1.997467e+02
  -2.501452e+01  -1.632251e+02
   1.113713e+02  -8.056484e+01
   1.243325e+02  -2.986261e+01
   4.930385e+01  -1.744353e+01
  -3.001073e+01  -8.679450e+00
  -5.697227e+00  -1.006801e+02
   3.322970e+01  -5.270584e+01
   6.754630e+01   3.652645e+01
  -8.141291e-02   6.646144e+01
  -5.253212e+01  -4.919123e+01
  -3.855103e+01  -8.143344e+01
   7.235972e+01  -4.423145e+01
   2.538645e+02  -9.664121e+00
   1.978356e+02   1.062111e+02
  -5.198168e+01   1.841833e+02
  -1.141296e+02   1.262316e+02
  -1.522587e+02   5.310082e+00
  -2.987992e+01  -2.375518e+01
  -1.699894e+00  -4.659095e+01
   2.203074e+01   3.316833e+00
  -6.310145e+00   6.687407e+01
  -1.308018e+02  -1.943387e+01
  -9.097556e+01  -4.254971e+01
  -1.425823e+01  -1.386968e+02
   3.626195e+01  -6.815181e+01
   5.844195e+01  -1.101597e+01
   2.842597e+01   2.358513e+01
   9.112198e-01  -5.519261e-01
  -4.513684e+01  -5.668038e+01
   4.261580e+01  -3.926749e+01
   1.247371e+02  -2.758693e+00
   8.650144e+01   7.996108e+01
   4.956912e+01   1.457111e+02
  -4.948368e+01   7.447236e+01
  -1.091864e+02  -3.458992e+01
  -2.908079e+01  -8.433184e+01
  -1.875257e+01   1.077148e+01
   2.072602e+01   3.816168e+01
   1.566337e+01   3.722385e+01
  -5.255625e+01   4.679758e+01
   5.029294e+01   2.513786e+01
   6.425726e+01  -6.416374e+00
   1.106716e+02   4.699937e+01
  -2.264054e+01   8.930374e+01
  -8.628145e+01   7.653878e+01
  -1.605948e+02  -9.443454e-01
  -9.742629e+01  -8.753094e+01
  -6.479399e+01  -1.426450e+02
   4.573467e+01  -1.605703e+02
   9.739519e+01  -1.582519e+01
   5.118399e+01   3.079428e+01
   4.751280e+01  -1.503879e+01
   4.797412e+01   3.334114e+00
   5.122289e+01  -2.587319e+01
   8.210622e+01   8.428759e+00
  -1.902909e+01   7.384767e+01
  -7.459609e+01   3.091402e+01
  -7.224532e+01   6.652278e-02
   2.636820e+00  -8.254760e+01
   1.072614e+02  -4.074201e+01
   1.750603e+02   3.726565e+01
   3.773753e+01   1.576032e+02
  -1.828474e+01   1.198686e+02
  -1.573215e+02  -3.172497e+00
  -1.496586e+02  -9.211277e+01
  -7.481411e+01  -8.349451e+01
   1.058503e+01  -5.392034e+01
   8.032931e+01  -1.988831e+01
   5.657070e+01  -5.330595e+01
   9.477657e+01  -3.767056e+01
   4.212861e+01  -1.023960e+02
   6.251009e+01  -1.190235e+01
   8.957031e+01   7.674329e+01
   4.391227e+01   1.157510e+02
  -3.492267e+01   1.016682e+02
  -1.675536e+02   3.537252e+01
  -1.674445e+01  -3.556141e+01
   6.351327e+00  -1.117024e+02
   8.659068e+01  -2.725414e+01
   3.862564e+01  -3.195154e-01
  -2.317796e+00   1.925086e+01
  -7.090852e+00  -1.913777e+00
   3.190452e+01   2.124814e+01
   6.530971e+01  -1.045727e+01
   1.741906e+00   2.958562e+00
  -7.921524e+00   7.396179e+01
  -1.160425e+02   2.072063e+01
  -3.498189e+01  -2.679746e+01
   1.197682e+01  -6.373342e+01
   8.718663e+01  -3.846325e+01
   6.735486e+01   2.890732e+00
   3.703973e+01  -1.108014e+01
  -3.453709e+01   5.403964e+01
  -2.859628e+01   1.185500e+01
  -1.379545e+01  -5.346912e+01
   4.544894e+00   5.723945e+00
  -8.004841e+00  -9.500477e-02
   7.475054e+01   3.122934e+01
   5.196601e+01   1.349016e+01
   7.186869e+01   6.202400e+01
  -6.160366e+00   8.495381e-01
   7.200620e+01   1.151809e+02
  -2.668983e+01   8.945556e+01
  -7.149757e+01   1.294380e+02
  -1.397658e+02  -1.566067e+01
  -1.058400e+02  -4.475712e+00
  -1.371194e+01  -6.141836e+01
   3.348554e+01  -2.105494e+01
   4.237931e+01  -2.159127e+01
  -3.096239e+01   1.590201e+01
  -1.133258e+02  -1.033696e+01
  -6.408962e+01  -5.947410e+01
   2.917865e+01  -4.215436e+01
   1.129272e+02  -3.297657e+01
   1.140332e+02  -1.207306e+00
   3.573774e+01   4.662423e+01
  -7.790142e+01   2.301007e+01
  -7.516750e+01  -6.643126e+00
   7.287317e+01   2.430924e+00
   2.709703e+01  -1.502905e+01
  -8.073954e+00   4.117116e+01
  -4.361846e+01   1.009428e+02
  -1.148665e+02   2.092253e+01
  -7.347002e+01  -5.405213e+01
  -8.254216e+01  -1.314564e+02
   4.436173e+01  -1.259307e+02
   3.224797e+01   7.300959e+01
   1.270631e+01   8.426352e+01
   1.679689e+01   5.135956e+01
  -6.181484e+01   2.802334e+01
  -5.500954e+01  -5.645277e-01
  -4.124983e+01   4.575014e+01
  -2.318977e+01   2.372485e+01
  -1.444535e+01  -2.865410e+00
  -4.775084e+01  -5.432003e+01
  -1.304306e+01  -5.276063e+01
   4.645601e+01  -1.372157e+01
   8.191727e+01   6.178449e+00
   8.811104e+01   3.000457e+01
   4.267693e+01   1.840657e+01
  -7.138260e+01   2.064251e+01
  -5.215875e+01   2.473442e+01
  -1.468824e+01  -1.925604e+01
  -2.695472e+01  -6.589754e+01
  -4.453474e+01   1.868945e+01
   2.025547e+01  -2.925161e-01
  -5.456306e+00  -2.509452e+01
   6.000853e+01  -1.482030e+01
   7.399375e+01   1.997159e+01
  -2.722459e+01   6.845908e+01
  -7.138424e+01   7.332622e+01
  -1.437593e+02   3.181217e+01
  -8.621352e+01  -1.710788e+01
  -4.864643e+01  -8.739964e+01
   7.274099e+01  -1.000616e+02
   8.723954e+01  -2.552605e+01
   3.624521e+01   3.654057e+01
   3.034061e+01  -2.304428e+00
  -4.803614e+00   3.634711e+00
   6.631506e+00   1.690071e+01
   2.931212e+01  -6.955529e+00
   3.069728e+01   3.490754e+01
   1.988686e+01   4.448679e+01
  -4.834617e+01  -1.528598e+01
  -3.798647e+01  -5.552022e+01
  -1.866198e+01  -7.372961e+01
   3.813346e+01  -2.919438e+01
   8.104876e+01   8.312996e+00
   5.237094e+01   5.726144e+01
  -3.651870e+01   3.744697e+01
  -6.262387e+01  -1.544528e+01
  -3.195222e+01  -1.728860e+01
   8.042642e+01  -7.785221e+01
   5.518867e+01   4.659419e+00
  -1.428937e+01   1.939600e+01
  -2.031902e+01  -2.948403e+01
   3.207574e+00  -2.808386e+01
   4.488236e+01  -6.068539e+01
   8.456142e+01  -5.854327e+00
   5.919420e+01  -8.163551e+00
  -6.109629e-01   1.264731e+00
  -7.516685e+01   5.329786e+01
  -4.490354e+01   3.645867e+01
  -9.126161e+00  -2.669661e+01
   2.030927e+01  -1.554731e+01
   4.101740e+01   8.494516e+00
   4.138434e+01   4.561520e+01
   1.788203e+00  -3.101538e+01
   2.697976e+01   1.360928e+01
  -1.030908e+01  -8.350752e+01
  -2.861859e+01   6.316457e+00
   6.223517e+00   1.398036e+01
   1.326757e+00  -6.656686e+00
  -3.052411e+01   1.263021e+01
   5.776546e+00  -2.639832e+01
   1.120837e+00  -3.765567e+01
   4.968585e+01   5.340019e+01
   1.281611e+01   1.660119e+01
   6.693160e+00  -2.310360e+01
  -8.690803e+01  -3.393331e+01
  -3.331693e+01  -4.182471e+01
   2.051917e+01  -4.217805e+01
   6.262758e+01   1.322161e+01
   1.666236e+01   3.931658e+01
  -1.679449e+01   2.603226e+01
  -2.390296e+01   4.461664e+01
  -1.143269e+01  -4.199238e+00
   1.051989e-01   3.927131e+00
   3.597680e+01  -4.344334e+00
   4.895177e+01   4.811516e+00
  -2.033726e+01  -1.090682e+01
