
 $NMID
 id='ANONYMOUS ', fmtdat='(2E16.6)'
 volume=1.0
 tramp=1.0
 $END
  -3.115700e+03   5.147322e+01
  -2.244365e+03  -9.079819e+02
  -2.984815e+02  -1.528434e+03
   1.361955e+03  -1.536952e+03
   9.612746e+02  -4.231307e+02
   1.603367e+02   2.160800e+02
  -3.838775e+02   3.529845e+01
  -1.852404e+02  -3.047489e+02
   1.725997e+02  -6.140166e+02
   4.927445e+02  -1.485711e+02
   3.953791e+02   3.839364e+02
   1.228131e+02   4.444754e+02
  -1.628097e+02   2.312586e+02
  -2.524674e+02  -2.490012e+02
   9.495756e+01  -5.000924e+02
   2.796996e+02  -1.144751e+02
   2.503532e+02   2.903555e+02
  -4.656330e+01   6.128983e+02
  -5.151408e+02   3.592096e+02
  -5.204169e+02  -5.440248e+01
  -2.008033e+02  -3.459832e+02
   8.933532e+01  -2.280354e+02
   4.353078e+01  -1.304638e+02
  -2.092989e+02  -1.492991e+02
  -2.815112e+02  -2.517545e+02
  -5.106739e+01  -2.914669e+02
   3.474730e+02   7.187986e+00
   3.755474e+02   1.729164e+02
   1.030429e+02   2.266458e+02
  -2.147019e+02   2.197062e+02
  -2.233776e+02  -1.527379e+02
  -1.529390e+02  -1.846056e+02
   1.995755e+02  -1.848607e+02
   3.551816e+02  -6.636970e+01
   2.605356e+02   1.224779e+02
   1.659988e+01   2.031174e+02
   8.131103e+01   2.364121e+02
   7.169590e+01  -8.540958e+00
   1.060240e+02   8.108844e+01
   1.062133e+02   1.112151e+02
   6.634154e+01   3.559893e+02
  -1.808439e+02   3.351151e+02
  -1.708042e+02   6.119359e+01
   2.026855e+00  -1.906612e+02
   4.777995e+01  -4.859619e+01
   1.302369e+02   1.825968e+02
  -9.922748e+01   3.082619e+02
  -3.719683e+02   9.181888e+01
  -4.246576e+02  -2.827270e+02
  -1.464337e+02  -3.852689e+02
   1.510071e+02  -1.761460e+02
   4.276185e+02   5.485468e+01
   3.169799e+02   1.457008e+02
  -1.333858e+01   1.737466e+02
  -2.024191e+02   7.480045e+01
  -1.914107e+02   4.288947e+01
  -7.288416e+01  -2.533806e+01
   2.107203e+01  -1.312347e+01
  -1.594186e+01   6.749082e+01
  -1.512895e+02  -6.075415e+01
  -1.633895e+02  -8.510163e+01
   6.437327e+01  -1.928926e+02
   2.840732e+02  -1.588341e+02
   2.806676e+02   3.419872e+01
  -1.462314e+01   3.271693e+02
  -2.885561e+02   3.033251e+02
  -3.724874e+02   8.738581e+01
  -2.274251e+02  -1.359160e+02
  -4.983572e+01  -3.448704e+02
   4.059127e+01  -2.544899e+02
   5.842159e+01  -1.721426e+02
   3.377162e+01  -1.197565e+02
   1.095318e+02  -8.806741e+01
   2.120120e+02  -4.151766e+01
   1.489446e+02   1.458806e+02
   1.011262e+01   2.390094e+02
  -1.011495e+02   1.688809e+02
  -1.680429e+02  -3.352767e+01
  -5.753068e+01  -1.639281e+02
   5.070125e+01  -1.447884e+02
   2.153793e+02  -5.787841e+01
   2.432741e+02   1.339407e+02
   1.102753e+02   2.385033e+02
  -4.344697e+01   1.868632e+02
  -1.473620e+02   1.976257e+02
  -1.446148e+02   1.116365e+02
  -1.475895e+02   7.800637e+01
  -2.120058e+02   1.932908e+01
  -3.973777e+02  -7.931841e+01
  -2.863491e+02  -2.649625e+02
   2.864729e+01  -3.328072e+02
   4.048811e+02  -3.951264e+02
   4.100368e+02  -6.008730e+01
   2.840241e+02   5.757457e+01
   4.438190e+01   1.712291e+02
  -2.328913e+01   1.231760e+02
   3.347713e+01   3.658031e+01
   1.184436e+02   2.130336e+01
   8.668642e+01   1.155481e+02
  -2.127387e+01   1.084195e+02
  -1.126933e+02   1.035808e+01
  -6.951947e+01  -5.589366e+01
   1.963028e+01  -9.574284e+01
   1.196992e+02   2.163093e+01
   1.304363e+02   2.300212e+02
   3.455435e+01   3.195075e+02
  -2.313229e+02   1.220786e+02
  -3.006044e+02  -2.617443e+01
  -2.132528e+02  -2.654549e+02
   1.000378e+01  -2.012267e+02
   8.831468e+01  -1.195214e+02
   9.220054e+01   1.893132e+01
   4.061908e+01  -1.215779e+01
  -2.989806e+01  -7.345436e+01
  -1.466365e+00  -8.518529e+01
   1.166800e+02  -5.719205e+01
   1.283376e+02   3.400094e+01
   4.670746e+01   1.029360e+01
  -7.506383e+01  -8.185702e+01
  -3.354247e+01  -6.809169e+01
   1.144499e+02  -3.412257e+01
   2.478898e+02   3.093993e+01
   2.191886e+02   2.075937e+02
  -8.562288e+00   2.522795e+02
  -1.924626e+02   1.599178e+02
  -2.285116e+02  -3.986649e+00
  -1.159971e+02  -3.279075e+01
   2.224596e+01  -6.343647e+01
   7.548746e+01   1.647995e+01
  -4.994857e+01   6.030447e+01
  -1.536147e+02   1.293914e+01
  -1.580695e+02  -1.368657e+02
  -3.859191e+01  -9.512328e+01
   6.883229e+01  -1.191022e+02
   9.275310e+01  -3.129399e+00
   2.286941e+01   5.282936e+00
  -4.742904e+01  -5.921843e+01
  -6.253953e+01  -9.203364e+01
   1.185933e+02  -9.094055e+01
   1.944992e+02  -1.085391e+01
   1.258834e+02   1.287936e+02
  -5.786194e-01   1.714608e+02
  -1.307451e+02   1.135162e+02
  -1.176080e+02  -1.342889e+01
  -5.716577e+00  -8.817578e+01
   7.209939e+01  -6.052636e+01
   7.057101e+01   5.642345e+00
   1.905628e+01  -1.400227e+01
  -4.228523e+01  -3.395102e+01
  -6.068537e+00  -1.437818e+01
   1.383861e+02  -2.208028e+01
   1.081582e+02   7.165842e+01
  -2.838580e+01   1.365800e+02
  -1.403189e+02   1.130348e+02
  -1.890037e+02  -1.527457e+01
  -1.985688e+02  -9.304189e+01
   1.597812e-01  -2.266562e+02
   7.628571e+01  -1.763273e+02
   6.564426e+01  -4.043408e+01
   1.051642e+02   1.918135e+01
   4.936491e+01  -4.696016e+00
   4.167133e+01  -2.392204e+01
   8.463540e+01  -4.709818e+00
   4.028508e+01   8.491252e+01
  -2.476234e+01   9.288490e+01
  -1.550612e+02   7.629804e+01
  -1.194628e+02  -4.611426e+01
   7.714450e+00  -9.995734e+01
   1.685400e+02  -4.475187e+01
   1.775422e+02   9.178819e+01
   9.326406e+01   2.039958e+02
  -1.057893e+02   1.846732e+02
  -2.223065e+02   2.309248e+01
  -2.494370e+02  -5.333678e+01
  -8.846111e+01  -1.734181e+02
   6.924436e+01  -7.872340e+01
   1.117200e+02  -3.662555e+01
   5.747295e+01  -7.234087e+01
   3.901302e+01  -5.684282e+01
   5.997640e+01  -1.041999e+02
   1.212431e+02   5.308640e+00
   9.274391e+01   1.775417e+02
   6.114710e+01   2.237658e+02
  -1.159090e+02   1.053143e+02
  -1.504959e+02  -1.320720e+01
  -8.555044e+01  -1.373266e+02
   1.422450e+01  -1.118420e+02
   3.777591e+01  -7.992535e+01
   3.842680e+01   5.862036e+01
  -1.333157e+01   3.876073e+00
  -5.659113e+01   2.284808e+01
   3.366248e+01   3.465070e+01
   9.889274e+01   5.425900e+01
   6.377590e+01   2.968959e+01
  -8.284789e+01   4.463790e+01
  -1.980228e+02  -4.399831e+01
  -1.331710e+02  -4.757780e+01
   1.544385e+01  -1.194886e+02
   1.523545e+02  -5.843082e+01
   9.764105e+01   2.896539e+00
   3.831695e+01   1.035204e+02
  -5.570635e+01   4.476216e+01
  -2.577845e+01  -2.424910e+01
  -3.960908e+01  -7.931748e+01
   4.526583e+01  -5.227741e+01
   3.719666e+01   8.970838e+00
   1.078088e+02   6.943339e+01
   6.846537e+01   6.860003e+01
   3.337680e+01   6.889009e+00
   2.991580e+01  -8.254145e+00
   6.304483e+01   7.745072e+01
  -3.800859e+01   1.515452e+02
  -1.614884e+02   1.540355e+02
  -1.757405e+02   5.523860e+01
  -1.596221e+02  -3.858584e+01
   6.302691e-01  -1.086742e+02
   1.016682e+02  -6.831754e+01
  -4.358048e-01  -1.414701e+01
  -8.711985e+01   4.769365e+01
  -1.700238e+02  -1.906413e+01
  -1.886864e+01  -9.548080e+01
   3.945342e+01  -8.447185e+01
   1.559283e+02  -4.360689e+01
   1.536026e+02   5.265538e+01
   1.576929e+01   9.695438e+01
  -7.229762e+01   4.290072e+01
  -3.346823e+01   2.914071e+01
  -7.794574e+00  -1.261642e+01
   6.525051e+01   5.236387e+00
   4.278026e+01   1.016927e+02
  -7.662687e+01   1.746617e+02
  -1.203873e+02   2.325629e+01
  -9.899072e+01  -9.599771e+01
  -5.637263e+01  -1.990909e+02
   1.093801e+02  -9.420860e+01
   7.973161e+01   2.850482e+01
   3.542979e+01   1.177873e+02
  -1.063457e+01   8.321658e+01
  -8.692620e+01  -1.191440e+01
  -2.114673e+01   2.423245e+00
  -8.589280e+00  -1.197599e+01
  -1.913411e+01   8.048198e+00
  -4.715034e+01  -3.977651e+01
  -1.187485e+01  -6.354614e+01
   2.989092e-01  -6.719882e+01
   3.125160e+01  -1.075525e+01
   1.244947e+02   2.590915e+01
   1.398350e+02   2.014762e+01
   4.801664e+00   6.201581e+01
  -6.489467e+01   2.878192e+01
  -8.068342e+01   3.971433e+01
  -2.241304e+01  -3.151061e+01
  -5.404961e+00  -3.572888e+01
   9.082083e-01  -1.168764e+01
  -2.107027e+01  -1.178814e+01
   2.539499e+01   1.485507e+01
   2.926502e+01  -2.114657e+01
   5.773398e+01   5.596055e+01
   3.017287e+01   6.640060e+01
  -6.279879e+01   1.097020e+02
  -1.895704e+02   6.248212e+01
  -1.136334e+02  -4.599065e+01
  -2.910776e+01  -1.298211e+02
   6.363536e+01  -1.483121e+02
   1.342431e+02  -3.104540e+01
   1.080332e+02   3.799207e+01
   4.227685e+01   4.816526e+01
   2.554207e+01   8.432110e+00
   7.862834e+00  -1.065624e+01
   4.905225e+01   7.929264e+01
   2.102792e+01   5.767699e+01
  -4.826206e+01   4.282747e+01
  -7.866672e+01  -4.535124e+01
  -8.907710e+01  -1.087630e+02
  -2.885941e+01  -1.050601e+02
   2.115706e+01  -5.864360e-01
   8.047868e+01   4.839716e+01
   2.486146e+01   6.754851e+01
  -4.876021e+01   1.037274e+02
  -1.103857e+02   9.247924e-01
  -5.684146e+01  -1.009686e+02
   1.291910e+01  -2.491793e+01
   7.088938e+00  -4.153934e+01
  -2.137331e+01   8.407861e+00
  -6.965573e+01  -1.828846e+01
   3.297219e+01   4.001651e+00
   3.020449e+01  -5.653969e+01
   1.577719e+02  -4.641270e+01
   6.833442e+01   5.208460e+00
  -2.826109e+01   5.990824e+01
  -4.523013e+01   7.229733e+01
  -3.547349e+01   7.491631e+00
  -3.246698e+00  -7.028914e+01
   1.616685e+01  -5.581469e+01
   3.837938e+01   4.451508e+00
   3.670253e+01   3.660507e+01
  -2.108757e+01   3.005672e+01
   6.114797e+00   1.196912e+00
  -4.426448e+01  -2.117542e+01
  -2.396903e+00  -3.163036e+01
  -3.095341e+01   2.159570e+01
  -2.528659e+01   3.414614e+01
  -3.514868e+01   9.177469e+00
   3.740031e-01  -8.977086e+01
   6.837566e+00  -3.245558e+01
   5.370175e+01   4.818359e+01
   1.666225e+01   5.760711e+01
  -4.894121e+01   5.309816e+01
  -6.168119e+01  -3.518962e+01
  -8.682819e+01  -1.174500e+01
   9.540751e+01  -5.097691e+00
   8.498658e+01  -8.187934e+00
   4.248115e+01   3.520714e+01
  -3.662131e+01   3.513106e+01
  -4.726235e+01  -6.761262e-01
  -9.532194e+01   1.279740e+01
   8.872113e+00  -3.738097e+01
   2.287511e+01  -7.386753e+00
  -7.881481e+00  -2.506358e+01
  -8.835912e+01   2.721324e+01
