
 $NMID
 id='ANONYMOUS ', fmtdat='(2E16.6)'
 volume=1.0
 tramp=1.0
 $END
   1.492506e+03  -9.529893e+00
   9.210334e+02   9.693603e+02
  -1.621005e+02   8.429831e+02
  -5.911565e+02   6.460525e+02
  -4.081403e+02  -2.832836e+02
   2.402307e+01   1.165475e+00
   9.957905e+01   1.975527e+02
  -1.230424e+02   2.821825e+02
  -3.639018e+02   2.405833e+02
  -3.810734e+02  -3.468844e+01
  -1.364951e+02  -3.498983e+01
   1.014915e+02  -3.475279e+02
   7.256555e+01  -3.364524e+01
   1.097983e+02   1.798965e+02
  -1.298434e+02   2.295873e+02
  -2.011444e+02   2.521752e+01
   2.872898e+01  -1.479149e+02
   6.680150e+00  -2.301339e+02
   1.728836e+02  -6.172506e+01
   1.544237e+02   9.392927e+01
   5.793789e+01   1.797438e+02
  -6.270420e+01   7.195634e+01
  -8.900809e+01   1.192914e+01
   1.191150e+02  -1.442174e+01
   1.266058e+02   4.004788e+01
   3.213361e+01   1.592804e+02
  -1.523484e+02   6.415683e+01
  -1.948693e+02  -8.005662e+01
  -7.254061e+01  -1.111749e+02
   1.190690e+02  -8.198662e+01
   9.702885e+01   1.026793e+02
   1.356188e+02   2.440263e+02
  -1.249227e+02   1.608090e+02
  -2.896448e+02   3.453349e+01
  -1.449069e+02  -5.999237e+01
  -7.835702e+01  -9.424566e+01
   4.834511e+01  -5.789513e+01
   6.471107e+01   4.031800e-01
  -7.394030e+01   4.381494e+01
  -8.091364e+01  -9.026248e+00
  -5.426467e+01  -1.902123e+02
   6.680658e+01  -1.074397e+02
   1.282222e+02  -1.631997e+01
   3.328261e+01   1.957292e+02
  -3.726017e+01   7.572468e+00
  -1.677833e+02  -1.583750e+02
   5.357330e+01  -1.297360e+02
   1.425447e+02  -1.755197e+01
   1.879597e+02   1.339629e+02
   3.214018e+01   1.718682e+02
  -1.418288e+02   1.043672e+02
  -1.653657e+02   5.191518e+00
  -1.633294e+02  -1.081326e+02
   1.260453e+01  -1.282577e+02
   1.552061e+02  -2.130082e+01
   4.221844e+01   1.865892e+01
  -2.099778e+01   3.202606e+01
  -4.190161e+01  -2.695088e+01
   6.229009e+01  -7.898905e+01
   8.256662e+01   2.110789e+01
  -3.459769e+01   1.358319e+02
  -1.224229e+01   7.689677e+01
  -1.122787e+02  -5.058579e+01
  -5.727225e+01   2.057257e+01
   2.291920e+01  -1.067209e+02
   1.169849e+02  -1.009590e+02
   1.662760e+02  -7.734903e+01
   1.058247e+02   7.260121e+01
  -1.597621e+01   1.641114e+02
   1.215792e+01   8.544852e+01
  -1.570190e+01   6.478422e+01
  -2.098492e+01   4.478672e+01
  -5.249151e+01   8.349875e+01
  -3.679388e+01   3.403323e+01
  -1.261116e+02  -4.697981e+00
  -2.838850e+01  -8.884320e+01
   4.585388e+01  -5.108234e+01
   9.074009e+01   7.124658e+00
   7.022042e+01   7.522804e+01
  -1.613278e+01   9.631178e+01
  -1.430926e+02   5.601007e+01
  -9.296757e+01  -1.072296e+02
  -4.332796e+01  -6.484054e+01
   4.509246e+01  -8.225283e+01
   1.019027e+02  -3.666600e+01
   4.619792e+01  -5.055031e+01
   1.076257e+01  -2.661838e+00
   8.283847e+01   4.948210e+01
   1.327716e+02   2.581264e+01
   8.798052e+01   1.050081e+02
  -8.747485e+00   1.182386e+02
  -1.290694e+02   9.220382e+01
  -1.684537e+02   6.047562e+01
  -8.272254e+01  -2.093280e+01
  -4.213872e+01  -7.570833e+01
   1.549197e+01  -7.783431e+01
   2.737614e+01   1.347333e+01
  -1.519874e+01   2.708843e+01
  -6.427740e+01  -4.429705e+01
   4.944126e+00  -2.936395e+01
   2.769767e+01  -1.943958e+01
   2.175072e+01   2.187875e+01
  -2.201069e+01   7.287591e+01
  -3.251849e+01  -4.387924e-01
  -3.458410e+01  -6.020107e+01
   3.847005e+01  -1.535963e+02
   3.684231e+01  -8.177480e+01
   1.435091e+02  -2.583077e+01
   1.274964e+02   9.421693e+01
   1.121216e+01   7.963602e+01
  -2.629062e+01   2.989929e+01
  -7.165523e+01   1.687538e+01
   2.103692e+01  -4.770674e+01
   1.488442e+00   5.880681e+01
   4.121937e-01   3.053172e+01
  -3.005784e+01   1.683171e+01
  -6.978157e+01  -4.764507e+01
  -4.868778e+01  -1.507578e+01
   1.395561e+01  -2.428254e+01
   4.724375e+01   9.058539e+01
  -1.964347e+01   5.887885e+01
  -1.167430e+02   3.317115e+00
  -8.452775e+01  -3.763944e+01
  -3.066573e+01  -1.213415e+02
   9.153579e+01  -6.557404e+01
   7.593081e+01  -3.811323e+01
   4.389164e+01   6.357131e+01
  -1.246693e+01   2.118138e+01
  -2.384702e+01  -3.610922e+01
  -2.597085e+01  -2.690248e+01
   6.108886e+01  -4.655165e+00
  -1.390598e-01   3.281737e+01
   2.472500e+01   4.863321e+01
  -4.004508e+01   2.096274e+01
  -6.078914e+01   1.084240e+02
  -8.038257e+00  -1.837910e+01
   1.637844e+01  -1.904056e+01
   1.968594e+01   5.150240e+00
  -4.480734e+01   5.753127e+01
  -1.010733e+02   4.764013e+01
  -4.903601e+01  -6.560318e+01
  -2.241488e+01  -8.978659e+01
   9.028541e+01  -9.018936e+01
   6.537642e+01  -4.921286e+00
   2.723115e+01   6.820382e+00
  -2.856427e+01   3.019672e+01
  -8.085813e+00  -2.204489e+01
  -2.610735e+01  -4.703165e+01
   1.378821e+01  -3.692379e+01
   5.278990e+00   4.296558e+00
  -6.075549e+00  -4.138302e+01
  -4.235960e+01  -3.369318e+01
   8.204879e+00  -2.746803e+01
   7.042991e+01  -6.445383e+01
   7.029342e+01   1.939883e+01
   6.747356e+01   6.411450e+01
   5.656385e+01   1.034465e+02
  -5.733770e+01   6.973990e+01
   3.163737e+00   5.165646e+01
  -4.736404e+01  -1.955475e+01
  -3.843315e+01  -1.503656e+01
  -1.753508e+01   1.726209e+01
  -4.483067e+01   4.537054e+01
  -2.450776e+01  -2.791945e+01
   1.926945e+01  -4.439065e+00
   6.462301e+01  -3.592878e+00
   3.245331e+01  -2.012439e+01
   2.757983e+01   8.830644e+01
  -6.612133e+01   3.008002e+01
  -1.161426e+02  -5.377568e+01
  -1.018717e+01  -5.200634e+01
   2.807478e+01  -9.649037e+01
   1.087564e+02  -4.602121e+01
   1.430750e+02   5.758911e+01
   4.758763e+01   4.458694e+01
  -4.474973e+01   7.139298e+01
  -3.808523e+01   1.447569e+01
  -1.097549e+01   1.050570e+01
  -5.935945e+01   3.399104e+01
  -5.442948e+01   1.976190e+00
  -3.565082e+01  -7.090778e+00
  -5.425443e+00   3.445895e+00
   8.978668e+00  -7.167860e+01
   2.627727e+01  -2.700444e+01
   3.355652e+01  -1.818213e+01
   8.719195e+00   1.443379e+01
   4.369354e+01   5.278728e+01
  -5.778533e+01   3.205335e+01
   1.182937e+00   3.858664e+00
  -2.979081e+01   6.846028e+00
   3.041872e+01  -1.763422e+01
  -3.364207e+01  -3.377700e+01
  -2.866242e+01  -2.919225e+01
  -9.269041e+00  -2.849679e+01
   1.564965e+01  -3.172947e+01
   6.039999e+01   4.009390e+01
   6.059190e+01   2.446789e+01
   1.327135e+01   5.070765e+00
  -5.795517e+01   4.669597e+01
  -8.352663e+01   1.278273e+01
  -4.625973e+01  -1.248984e+01
   2.121061e+01  -2.244981e+01
   2.949274e+01   3.913559e+01
  -2.572445e+01   1.467116e+01
  -1.286268e+00   2.545596e+00
  -2.419736e+01  -1.395861e+01
   1.503551e+01  -2.080357e+01
  -7.635875e+00  -1.707977e+01
  -3.046967e+01   1.526413e+01
  -6.826410e-02   2.030152e+01
  -1.644727e+01  -1.285907e+01
   2.455838e+01  -1.131457e+02
   7.389690e+01   1.267567e+01
   5.255987e+01  -5.005099e+01
   5.896915e+01   6.296064e+01
  -2.085979e+01   4.425923e+01
  -7.489780e+01   2.749680e+01
   4.552204e+01  -2.697619e+01
   8.823398e+00  -4.254302e+01
   9.825021e+00   2.558787e+01
   2.112155e+01   1.638075e+01
  -2.456769e+00   5.744873e+01
  -7.945659e+01  -1.146225e+01
  -6.112367e+01  -3.418216e+01
  -3.300599e+01  -4.114038e+01
   5.194195e+01  -2.115262e+01
  -2.366159e+01   5.787275e+01
  -5.750104e+01   3.622553e+01
  -4.180312e+01   3.709393e+00
  -2.363823e+00  -4.431114e+01
   3.278235e+01  -8.013291e+01
   4.727270e+01  -2.721360e+01
   8.450528e+01   3.451838e+01
  -2.304119e+01   4.645493e+01
  -3.953702e+01   5.684164e+01
   2.001884e+01  -4.337321e+01
  -5.901131e+00  -8.607688e+01
   1.594389e+01  -3.309094e+01
   2.180232e+01  -1.749912e+01
  -1.785764e+01  -2.580718e+01
   1.269229e+01   2.225780e+01
  -4.654434e+00  -1.091646e+01
  -2.452519e+01  -5.075376e+01
   6.509761e+00   2.427111e+01
   3.527123e+01   4.197050e+01
  -2.866968e+01   4.246368e+00
  -7.161830e+01  -1.770076e+01
  -1.331004e+01   5.640212e+00
   5.024586e+00   9.724416e+00
   7.174363e+00  -4.955411e+01
   2.878735e+01   4.396195e+00
   1.497332e+01  -2.556200e+01
  -4.823965e+01   2.874244e+01
  -3.168862e+01  -2.829993e+01
   7.354763e+01  -7.905780e+00
   1.983720e+01  -1.365127e+01
  -5.436256e-01   3.549956e+01
  -1.968444e+01   1.990569e+00
  -5.452997e+01  -8.600342e+00
   2.856035e+01  -7.392407e+01
   9.059309e+01  -2.084726e+01
   5.632059e+01   9.492150e+00
  -9.590935e+00   4.040345e+01
  -2.782128e+01   7.538890e+01
  -4.096347e+01   3.560347e+01
  -6.571724e+01   7.109236e+00
  -1.326041e+01  -3.033609e+01
  -2.209724e+01  -1.120967e+01
   2.434175e+01  -8.152782e-01
   1.251300e+01  -1.886109e+01
  -1.397688e+01  -2.708861e+01
   2.636696e+01   2.280646e+01
   3.380382e+01   1.677139e+01
   4.041259e+01   1.000795e+01
   5.292989e+00   1.897157e+01
  -5.280647e+01   8.171437e+00
  -4.442419e+01  -1.130613e+01
  -1.512560e+01  -9.218425e+01
   5.632999e+01  -3.882695e-01
   9.718581e+00  -2.077107e+01
  -1.124371e+01   6.413462e+00
  -1.003868e+01   2.140629e+01
  -1.667917e+01  -1.311755e+01
  -9.998918e+00  -7.133771e-01
   3.112861e+01   1.927319e+01
   1.171739e+01  -2.225991e+01
  -4.128275e+01   6.290225e+01
  -3.222544e+01   2.967960e+01
  -5.359665e+01   4.257714e+00
   2.148973e+01  -4.738960e+01
   2.197353e+01  -1.527892e+01
   1.338287e+01   2.380418e+00
  -2.751919e+01   5.173862e+00
   5.533566e+01   8.367162e+00
  -5.377740e+01  -1.469069e+00
  -2.044511e+01  -2.780243e+01
  -2.473244e+01   2.195796e+00
  -1.251936e+01   4.889940e+01
   1.971558e+01  -7.386261e+01
  -1.221620e+00  -4.546231e+00
   2.683183e+00  -8.975601e+00
  -8.931872e+00  -1.193635e+01
   6.729975e+01   2.567727e+00
   3.704171e+01   2.417747e+01
  -2.199974e+01  -9.357230e+00
  -4.977725e+01  -2.332843e+01
   1.328388e+01  -5.076787e+01
   2.001492e+01  -1.739775e+01
   6.068736e+01   2.580347e+01
   2.476791e+01   5.858871e+01
  -7.487239e+00   5.300312e+01
  -2.872697e+00  -1.315902e+01
  -1.213189e+01  -2.148581e+01
  -1.331516e+01  -1.667045e+01
  -4.895388e+00   2.943588e+00
   1.368210e+01   1.201281e+01
   5.931381e+00   2.628321e+01
  -1.071104e+01  -9.174056e+00
   2.709811e+01  -3.299973e+01
   8.348431e+00   1.761735e+01
