
 $NMID
 id='ANONYMOUS ', fmtdat='(2E16.6)'
 volume=1.0
 tramp=1.0
 $END
  -2.484968e+03  -3.035853e+02
  -2.039896e+03  -1.639328e+03
  -1.848035e+02  -1.312471e+03
   9.241368e+02  -8.886888e+02
   8.810346e+02  -2.550056e+02
   5.489304e+01   1.697707e+02
  -3.398470e+02  -1.637479e+02
  -6.118215e+01  -2.263816e+02
   5.137511e+02  -5.193239e+02
   3.906945e+02  -1.088070e+02
   3.098492e+02   3.696363e+02
   2.057772e+02   3.206878e+02
  -1.100793e+02   1.583384e+02
  -1.573104e+02  -3.262872e+02
   7.799601e+01  -4.906964e+02
   2.756397e+02  -2.171405e+01
   2.952629e+02   3.832714e+02
  -1.251973e+02   4.745876e+02
  -4.480618e+02   2.258618e+02
  -3.531090e+02  -1.843332e+02
  -8.123149e+01  -2.203832e+02
   9.742758e+01  -1.684218e+02
   4.486350e+01  -6.938096e+01
  -2.034307e+02  -1.115859e+02
  -2.542787e+02  -2.284388e+02
   4.656051e+01  -3.690375e+02
   3.172786e+02  -3.457987e+01
   4.513475e+02   2.052768e+02
   1.182931e+02   2.890735e+02
  -3.529908e+02   1.445333e+02
  -3.708490e+02  -2.117124e+02
  -2.205666e+02  -3.159657e+02
   2.384824e+02  -2.089060e+02
   4.671864e+02  -1.229078e+02
   2.510816e+02   1.241432e+02
   1.132786e+02   2.269265e+02
  -7.963777e+01   1.141114e+02
   6.182411e+01  -1.402331e+02
   1.500380e+02  -1.224242e+02
   1.932631e+02   1.601587e+02
   1.175603e+01   4.721667e+02
  -2.874056e+02   2.926185e+02
  -3.697956e+02  -3.694590e+01
   2.783687e+01  -1.897374e+02
   1.512333e+02  -1.248143e+02
   1.243331e+02   2.779452e+02
  -7.577533e+01   3.412103e+02
  -4.084932e+02   7.896495e+01
  -4.156299e+02  -3.025110e+02
  -1.148145e+02  -4.308846e+02
   2.793191e+02  -2.367697e+02
   3.947056e+02   5.755756e+01
   2.061111e+02   2.169189e+02
  -2.493232e+00   1.529397e+02
  -1.134973e+02   7.311015e+01
  -1.450635e+02   3.948111e+01
  -1.701677e+01  -2.452302e+01
   1.664489e+01   2.269414e+01
  -8.503041e+01   5.309312e+01
  -2.148691e+02  -3.457187e+01
  -1.168270e+02  -2.376525e+02
   1.215007e+02  -2.015348e+02
   3.038804e+02  -8.603344e+01
   2.292968e+02   7.671437e+01
   1.498979e+01   2.827137e+02
  -2.987326e+02   3.173562e+02
  -3.275353e+02   9.014466e+01
  -1.582660e+02  -1.508111e+02
  -3.459229e+01  -2.642502e+02
   3.195924e+01  -1.309237e+02
  -2.295542e+01  -7.582886e+01
   3.458618e+01  -1.021686e+02
   5.959835e+01  -6.333193e+01
   1.996169e+02  -3.220460e+01
   1.959536e+02   1.116427e+02
   6.493015e+01   1.967147e+02
  -5.495181e+01   1.502043e+02
  -1.655250e+02  -4.837100e+01
  -1.253032e+02  -2.015032e+02
   4.654455e+01  -2.013268e+02
   2.177426e+02  -3.125550e+00
   2.262142e+02   9.851925e+01
   6.057687e+01   2.279796e+02
  -2.167719e+01   2.269972e+02
  -1.625976e+02   1.244368e+02
  -6.305389e+01   2.588306e+01
  -1.673094e+02   7.562068e+01
  -2.621658e+02   6.202390e+00
  -3.589951e+02  -1.365664e+02
  -2.582361e+02  -2.555012e+02
   3.519415e+01  -3.419182e+02
   3.325959e+02  -3.141227e+02
   4.091297e+02  -1.380771e+02
   2.406963e+02   5.848039e+01
  -1.662655e+01   2.752339e+02
  -6.501252e+01   1.155922e+02
   3.448436e+01   2.239153e+01
   9.150608e+01   1.763125e+01
   1.327512e+02   7.556049e+01
   1.827885e+01   9.019258e+01
  -5.413832e+01   4.965597e+01
  -4.229137e+01  -8.609072e+01
   1.602268e+01  -9.561097e+01
   1.219028e+02  -8.236418e-01
   1.009309e+02   1.812005e+02
  -2.122366e+00   3.287989e+02
  -1.808307e+02   1.900702e+02
  -3.347181e+02  -2.861994e+01
  -2.301296e+02  -2.137722e+02
   8.327345e+00  -2.090119e+02
   1.332385e+02  -1.358882e+02
   1.162761e+02   3.224322e+01
   1.710316e+01   5.468668e+00
  -6.784128e+01  -5.563207e+01
   2.683824e+01  -1.240010e+02
   1.416951e+02  -5.996382e+01
   6.157390e+01   3.194541e+01
   2.194106e+01   1.241331e+01
  -1.203859e+02   1.328620e+01
  -2.812947e+01  -8.368026e+01
   1.433621e+02  -8.646943e+01
   2.869093e+02  -2.122185e+01
   2.395775e+02   1.402129e+02
   2.221040e+01   2.299331e+02
  -1.634857e+02   1.997655e+02
  -2.700966e+02   8.539382e+01
  -1.316584e+02  -5.462309e+01
   6.335071e+01  -6.161568e+01
   5.298072e+01  -5.191553e+01
  -3.102316e+01   9.816780e+01
  -1.560649e+02   4.858299e+01
  -1.575691e+02  -6.079096e+01
  -1.328186e+00  -1.418273e+02
   8.335214e+01  -1.086315e+02
   5.077368e+01  -2.325035e+00
   5.243257e+01   2.311177e+01
  -8.741336e+01  -4.084796e+01
  -6.764624e+01  -8.895580e+01
   1.051802e+02  -1.280261e+02
   2.071738e+02  -7.853306e+00
   9.316368e+01   5.987877e+01
   1.211625e+01   1.592242e+02
  -1.461028e+02   1.234129e+02
  -1.325591e+02  -4.106192e+00
   5.200572e+01  -2.963878e+01
   3.050325e+01  -6.671935e+01
   5.223874e+01  -2.157191e+01
   1.053221e+01   1.561664e+01
  -2.830727e+01  -4.644200e+01
  -6.295972e+00  -4.369181e+01
   9.582057e+01   5.620409e+00
   8.056668e+01   1.233047e+02
  -4.367378e+00   1.307175e+02
  -1.002109e+02   1.348224e+02
  -1.841878e+02  -8.344057e+00
  -1.911554e+02  -1.767947e+02
  -3.158179e+01  -1.742220e+02
   1.217999e+02  -1.445415e+02
   1.074202e+02  -3.667202e+01
   7.353205e+01   5.490748e+01
   2.884694e+01   2.940027e+01
   6.225979e+01  -2.304285e+00
   1.044793e+02  -1.396471e+01
   4.469152e+01   3.013343e+01
  -6.239491e+01   5.910895e+01
  -1.137958e+02   5.084121e+01
  -1.108341e+02  -3.409048e+01
  -1.888314e+01  -9.818236e+01
   1.373719e+02  -5.607395e+01
   1.583337e+02   5.112327e+01
   9.628269e+01   2.119422e+02
  -1.260361e+02   1.400131e+02
  -1.929484e+02   3.107022e+01
  -1.900377e+02  -7.686904e+01
  -9.180277e+01  -1.552623e+02
   3.194630e+00  -1.163201e+02
   5.626146e+01  -3.353427e+01
   6.054047e+01  -7.040094e+01
   6.812643e+01  -7.990925e+01
   7.772176e+01  -1.296182e+02
   1.013570e+02   9.486643e+00
   1.044719e+02   1.365637e+02
  -4.222543e-01   2.006009e+02
  -1.003638e+02   9.923598e+01
  -1.649902e+02  -4.763338e+00
  -4.547684e+01  -1.057811e+02
   1.154121e+01  -1.294258e+02
   5.658379e+01  -2.653049e+01
   5.761711e+01   3.223807e+00
  -3.143315e+01   5.339073e+01
   1.594292e+00   6.340867e+01
   2.848354e+01   2.012663e+01
   1.214949e+02   1.882637e+01
   1.854051e+01   4.967845e+01
  -4.095113e+01   3.830633e+01
  -1.235083e+02  -1.061005e+01
  -1.060211e+02  -3.763076e+01
  -1.372602e+01  -1.119432e+02
   1.089468e+02  -5.895240e+01
   1.508282e+02   2.899076e+01
   4.372264e+01   3.973662e+01
  -5.736111e+01   5.041838e+01
  -4.124843e+01  -5.660204e+01
  -2.774528e+01  -5.443992e+01
   3.477629e+01  -6.065843e+01
   2.485298e+01  -3.474216e+01
   3.510266e+01   2.660442e+01
   6.355932e+01   6.144738e+01
   3.581984e+01   2.849110e+01
   2.127185e+01  -1.030664e+01
   4.688269e+01   1.982546e+01
   2.496904e+00   1.240224e+02
  -1.424071e+02   1.754685e+02
  -1.397171e+02  -1.992037e+01
  -1.353316e+02  -8.784049e+01
   6.508507e-01  -9.591563e+01
   4.863230e+01  -6.865046e+01
   7.437607e+01   2.385391e+01
  -2.722012e+01  -1.456356e+00
  -1.334606e+02  -3.349000e+01
  -2.347418e+01  -5.123485e+01
   3.152212e+01  -8.507629e+01
   1.439530e+02  -2.867972e+01
   8.767543e+01   9.005760e+00
   4.179622e-01   9.282137e+01
  -5.560119e+01   5.707141e+01
  -3.781889e+01   3.348204e+01
   2.086322e+01  -4.078961e+01
   1.224085e+02   2.281580e+00
   6.920804e+01   9.708855e+01
  -8.688917e+01   1.378071e+02
  -1.981682e+02   4.083635e+01
  -1.097758e+02  -3.288055e+01
  -6.808436e+00  -1.873649e+02
   6.607351e+01  -1.295029e+02
   6.279466e+01   3.707957e+01
   2.934682e+01   1.421385e+02
  -1.341187e+01   1.213346e+02
  -4.486382e+01   4.766680e+01
   2.396028e+01  -1.165271e+01
  -4.505340e+01  -2.966598e+01
   3.510138e+01   4.142685e+00
  -3.716034e+01  -4.822188e+01
  -3.880834e+01  -7.772272e+01
  -1.453430e+01  -1.229328e+02
   5.005280e+01  -3.024632e+01
   7.788901e+01   5.538226e+01
   8.756609e+01   7.123907e+01
   4.292632e+01   4.784335e+01
  -7.234423e+01   2.227153e+01
  -2.681361e+01   9.008167e+00
   5.360757e+00   1.325006e+01
   5.296266e+01  -4.021600e+01
   1.324025e+01   2.017615e+01
  -2.313157e+01  -2.602657e+00
  -3.168527e+01  -1.384151e+01
   8.711376e+01  -2.296244e+01
   4.868754e+01  -9.296803e+00
   3.306832e+01   5.188268e+01
  -1.165262e+02   1.108546e+02
  -1.440271e+02   6.836645e+01
  -7.638217e+01  -5.057657e+01
  -4.397055e+01  -1.205678e+02
   4.174547e+01  -1.548199e+02
   1.323975e+02  -9.291179e+01
   6.723972e+01   2.359125e+01
   5.114034e+01   2.424424e+00
   3.736651e+00   3.071239e+01
   1.670896e+01   6.299422e+00
   5.945697e+01   6.937271e+01
  -1.140731e+00   4.534757e+01
   1.454099e+01   3.901094e+01
  -6.639174e+01  -3.069589e+01
  -9.287622e+01  -5.827981e+01
  -4.314249e+01  -1.121554e+02
   2.935410e+01  -3.138090e+01
   5.597124e+01  -1.013512e+01
   4.459481e+01   8.916252e+01
  -4.757322e+01   4.759612e+01
  -5.834851e+01  -3.170938e+00
  -1.548126e+01  -2.693295e+01
   4.343857e+01  -7.871058e+01
   3.320164e+00  -8.497179e+00
  -4.479072e+01  -1.758369e+01
  -8.242677e+01  -1.098159e+01
  -3.826197e+00   8.049784e+00
   4.476667e+01  -8.482474e+01
   8.713610e+01  -5.411289e+01
   8.477439e+01   3.829200e+01
  -9.225053e+00   6.377727e+01
  -3.380304e+01   5.459758e+01
  -3.716744e+01   1.082559e+01
  -4.599609e+01  -2.421803e+01
   2.187492e+01  -1.045727e+01
   2.250227e+01   2.904131e+01
   2.947889e+01   6.029587e+01
   2.902969e+01   5.978083e+01
  -3.665965e+01  -3.488332e+01
  -7.498508e+01   2.784202e+00
  -4.509856e+01  -2.290249e+01
   1.613715e+01  -1.411421e+01
   3.482693e+01  -2.366809e+01
   2.908384e+01  -4.919171e+01
   9.049898e+00  -8.569440e+01
  -7.677749e+00  -7.496020e-01
   5.690751e+01   2.475445e+01
  -2.952102e+00   7.846567e+01
  -4.130754e+01  -1.588325e+01
  -2.361676e+01  -4.532999e+01
  -4.307737e+01  -5.666705e+01
   5.502708e+01  -2.238641e+01
   1.026465e+02   1.025183e+01
   1.732854e+01   1.282493e+01
  -4.668542e-01   7.133959e+01
  -5.891714e+01  -1.168355e+01
   3.677163e+01  -1.452299e+01
   3.095688e+01   2.596153e+01
   3.966373e+01   1.404841e+01
   5.367283e+01   4.024117e+01
  -6.290457e+01   4.987044e+01
