
 $NMID
 id='ANONYMOUS ', fmtdat='(2E16.6)'
 volume=1.0
 tramp=1.0
 $END
  -2.918972e+03  -1.331137e+02
  -1.633985e+03  -1.536539e+03
  -2.050421e+02  -1.263116e+03
   1.074684e+03  -1.236147e+03
   6.962799e+02   8.850338e+01
   5.259702e+01  -3.778750e+01
  -2.561220e+02  -1.887487e+02
  -1.319695e+02  -4.383269e+02
   3.665783e+02  -5.115754e+02
   3.141072e+02  -1.186680e+02
   2.902944e+02   2.789332e+02
  -1.143509e+02   4.642178e+02
  -9.221125e+01   1.556676e+02
  -2.915912e+02  -4.014166e+02
   2.261832e+02  -3.775809e+02
   2.809071e+02  -1.121614e+02
   2.568580e+02   3.330212e+02
  -9.482381e+01   5.068422e+02
  -3.599764e+02   1.672651e+02
  -3.629454e+02  -1.800183e+02
  -6.917575e+01  -2.646424e+02
   7.303773e+01  -1.693319e+02
   4.672816e+01  -5.547959e+01
  -1.576236e+02  -4.389781e+01
  -2.597599e+02  -2.857298e+02
  -4.301037e+01  -3.816780e+02
   2.891123e+02  -6.935297e+01
   4.554234e+02   8.623292e+01
   1.060286e+02   3.171585e+02
  -3.233068e+02   1.609526e+02
  -4.215132e+02  -1.108976e+02
  -1.331299e+02  -3.220041e+02
   2.250225e+02  -2.216213e+02
   3.603015e+02  -3.561259e+01
   2.905351e+02   1.094777e+02
   6.779252e+01   2.420443e+02
  -2.590750e+01   2.160545e+02
   2.418132e+01  -6.654749e+01
   1.658321e+02  -1.446871e+02
   6.919410e+01   1.640722e+02
  -8.116284e+01   4.848143e+02
  -1.960471e+02   3.235355e+02
  -1.879447e+02  -3.880171e+01
  -7.851224e+01  -2.297072e+02
   6.732701e+01  -1.450488e+02
   1.573077e+02   3.045208e+02
  -4.198456e+01   3.188712e+02
  -3.564946e+02   3.587686e+01
  -3.848178e+02  -2.745224e+02
  -5.181378e+01  -3.063250e+02
   2.540335e+02  -1.738100e+02
   4.364169e+02   3.527134e+01
   2.745449e+02   1.831387e+02
  -3.589089e+01   2.205445e+02
  -1.989181e+02   8.291938e+01
  -1.136917e+02  -3.227207e+00
  -2.235759e+01  -4.475978e+01
  -1.744869e+01   2.537913e+01
  -6.446097e+01   2.446543e+01
  -2.453564e+02  -7.676700e+01
  -5.691715e+01  -1.316601e+02
   1.021262e+02  -1.873883e+02
   2.489453e+02  -1.385200e+02
   1.489777e+02   4.294490e+01
   2.009972e+01   2.377755e+02
  -1.824244e+02   2.858523e+02
  -3.045125e+02   2.006561e+02
  -1.863761e+02  -1.273071e+02
  -9.680007e+01  -2.831914e+02
  -4.591844e+00  -2.010569e+02
  -7.505926e+01  -1.246899e+02
  -6.109498e+00  -4.997222e+01
   5.540757e+01  -5.209275e+01
   1.813357e+02  -3.732702e+01
   1.480970e+02   2.870138e+01
   8.218446e+01   2.338190e+02
  -8.727648e+01   1.765600e+02
  -1.480208e+02  -1.335260e+01
  -1.386397e+02  -1.447059e+02
   8.210050e+00  -1.861274e+02
   2.202998e+02  -4.888030e+01
   2.013469e+02   1.460594e+02
   1.159579e+02   1.722025e+02
  -6.425207e+01   1.466937e+02
  -1.818090e+02   8.057639e+01
  -9.862666e+01   1.289554e+01
  -1.134806e+02   5.198785e+01
  -2.427719e+02   6.358036e+01
  -2.919369e+02  -1.744777e+01
  -2.390285e+02  -2.724769e+02
  -3.101807e+01  -2.696826e+02
   3.190393e+02  -3.704859e+02
   3.598650e+02  -1.102567e+02
   2.458928e+02   3.410796e+01
   4.417301e+01   1.708488e+02
  -2.973929e+01   1.566213e+02
  -2.611475e+00   3.681573e+01
   2.012535e+01  -5.176360e+01
   1.058450e+02  -1.525017e+01
  -1.060100e+01   1.223296e+02
  -8.682170e+01   5.244595e+01
  -8.127990e+01  -8.280562e+00
  -2.151656e+01  -8.273071e+01
   1.090339e+02  -1.786885e+00
   8.146880e+01   1.435420e+02
  -1.765392e+01   3.027596e+02
  -1.445145e+02   1.487338e+02
  -3.110340e+02  -3.758994e+01
  -2.092253e+02  -2.128988e+02
  -5.697420e+01  -2.082217e+02
   1.100170e+02  -1.178899e+02
   9.665153e+01   2.418771e+01
   3.394157e+01   5.019209e+01
  -4.758078e+01  -9.512654e+01
   1.662311e+01  -7.796889e+01
   1.032745e+02  -2.698728e+01
   6.767590e+01   3.849193e+01
   1.772683e+01   4.539204e+01
  -9.337642e+01  -3.211510e+01
  -5.287710e+01  -6.848229e+01
   1.050757e+02  -7.054860e+01
   2.015115e+02  -3.610346e+00
   1.786752e+02   1.052051e+02
   5.259603e+01   1.685579e+02
  -1.572575e+02   1.624881e+02
  -1.570536e+02   1.240683e+02
  -1.299982e+02  -3.081397e+01
   4.616287e+01  -8.753441e+01
   3.918789e+00  -1.616843e+01
  -8.714647e+01   3.962158e+01
  -1.034540e+02   6.471010e+01
  -1.291229e+02  -8.507940e+01
  -2.497433e+01  -1.072260e+02
   2.138820e+01  -1.256574e+02
   8.000776e+01  -1.694245e+01
   1.818659e+01   6.066582e+00
  -5.792356e+01   2.171683e+01
  -1.141240e+01  -7.233336e+01
   7.542597e+01  -5.456996e+01
   1.841397e+02   2.046904e+01
   1.198929e+02   7.685983e+01
   2.560238e+01   1.656659e+02
  -1.325234e+02   1.328784e+02
  -1.100811e+02   1.738343e+01
  -3.525251e+00  -8.792212e+01
   5.045347e+01  -7.808042e+01
   6.658696e+01  -2.444818e+01
   5.263041e-01   1.919952e+01
  -1.372975e+01   4.805768e+01
  -1.886236e+01   1.169894e+01
   8.696900e+01  -5.958508e+00
   6.561812e+01   9.686646e+01
   1.831085e+01   1.573556e+02
  -1.155335e+02   1.419296e+02
  -1.724428e+02  -7.774507e+00
  -1.674502e+02  -1.157826e+02
  -4.091676e+01  -1.900872e+02
   1.274368e+02  -9.537278e+01
   4.812385e+01  -3.018372e+01
   5.063431e+01   1.970429e+01
   4.672561e+01   5.532581e+01
   3.647390e+01  -1.846862e+01
   6.437823e+01  -4.497835e+01
   1.226401e+01  -1.892734e+00
  -5.173957e+01   4.366297e+01
  -9.464201e+01   5.994729e+01
  -9.185585e+01  -3.817740e+01
   6.124905e+00  -1.038939e+02
   1.236258e+02  -5.113935e+01
   1.433876e+02   2.461372e+01
   5.340588e+01   1.676133e+02
  -9.825877e+01   1.883270e+02
  -1.808249e+02   1.011442e+02
  -1.896747e+02  -6.919197e+01
  -9.367990e+01  -1.374338e+02
   2.015317e+01  -5.800201e+01
   4.851335e+01  -8.885354e+01
   5.593470e+01  -3.469386e+01
   1.040155e+02  -6.726674e+01
   6.144829e+01  -7.323867e+01
   9.096770e+01   1.962899e+01
   8.046384e+01   1.115037e+02
   5.408169e+01   1.242465e+02
  -2.475464e+01   6.934890e+01
  -1.538043e+02   3.463426e+01
  -7.382299e+01  -3.958959e+01
   5.104219e+00  -1.124330e+02
   7.287005e+01  -8.364900e+01
   2.065694e+01   2.518826e+01
   4.637463e+01   4.278966e+01
   1.566504e+01   4.394093e+01
   3.872419e+01  -1.623296e+01
   8.563616e+01  -6.548598e+00
   1.275935e+01  -1.100661e+01
  -2.416007e+01   2.605870e+01
  -1.481846e+02  -9.644399e+00
  -9.696741e+01  -3.454470e+01
  -3.111889e+00  -7.970792e+01
   6.215080e+01  -5.562509e+01
   1.195543e+02  -1.314502e+01
   2.235101e+01   3.089759e+01
  -2.167450e+01   6.225505e+01
  -7.726350e+01   8.683005e+00
  -6.461677e+00  -7.481038e+01
   2.145026e+01  -4.244623e+01
   2.483172e+01  -3.383501e+01
   8.335562e+00   9.841909e+01
   6.219132e+01   3.190322e+01
   4.752712e+01   3.591168e+01
   1.999623e+01   3.598428e+01
   3.103194e+01   6.102243e+01
  -3.472656e+00   1.158781e+02
  -7.850317e+01   5.931049e+01
  -1.138030e+02   3.128782e+01
  -9.416091e+01  -7.012070e+01
  -2.490827e+01  -1.218126e+02
   7.153945e+01  -4.692009e+01
   3.884668e+01   3.184737e+01
  -7.734936e+01  -6.947542e-01
  -8.359950e+01  -1.517632e+01
  -7.482081e+01  -8.646865e+01
   1.546525e+01  -5.247573e+01
   7.202081e+01  -2.396098e+01
   1.040167e+02   8.642815e+01
   1.740797e+01   6.945296e+01
  -4.600647e+01   6.246094e+01
  -7.818864e+01  -2.659777e+01
   4.378158e+01  -1.949565e+01
   6.252596e+01   2.677209e+01
   7.188049e+01   1.289448e+02
  -2.904920e+01   1.438187e+02
  -1.080854e+02   6.004174e+01
  -5.951104e+01  -7.256742e+01
   8.796045e-01  -1.694690e+02
   3.872445e+01  -5.221043e+01
   4.861857e+01   1.310651e+01
   7.672775e+01   9.397272e+01
  -1.849510e+00   1.509906e+02
   1.260880e+01  -3.216077e+00
  -3.283298e+01  -1.495229e+00
   7.081103e+00   2.316054e+01
  -1.755964e+01   1.053496e+01
  -3.815276e+01  -1.948533e+01
  -2.357007e+01  -2.991624e+01
  -3.817213e+01  -6.428228e+01
   2.151516e+01  -4.393786e+01
   1.438294e+02   2.986252e+01
   9.623698e+01   1.070650e+02
   1.821639e+01   7.959316e+01
  -5.865056e+01   4.283965e+01
  -7.034128e+01   1.081913e+01
   6.996083e+00  -9.982279e+00
   3.569416e+01  -2.304738e+01
  -2.144319e+00   9.562980e+00
  -2.114733e+01   4.173194e+01
   2.302450e+01   3.708758e+00
   6.720757e+01  -1.194321e+01
   2.761137e+00   4.459592e+01
  -4.615793e+00   2.379215e+01
  -5.728880e+01   1.152446e+02
  -1.596204e+02   8.699042e+01
  -8.642147e+01  -4.119835e+01
  -3.205967e+01  -5.687654e+01
   2.024637e+01  -8.491217e+01
   8.948275e+01  -8.090564e+01
   4.978588e+01  -1.941448e+01
   2.576952e+01   5.980856e+00
   2.689202e+00  -1.465798e+01
  -2.078505e+01   2.445738e+01
   2.022529e+01   1.058228e+01
  -1.035017e+01   9.012075e+01
  -4.118507e-01   2.671623e+01
  -9.754708e+01  -1.825847e+01
  -6.978191e+01  -7.408747e+01
   1.839493e+01  -7.033549e+01
   1.907799e+01  -1.398707e+01
   4.397838e+01   3.436895e+01
   2.674155e+01   3.813936e+01
  -3.986753e+01   3.833540e+01
  -8.236002e+01   8.286207e+00
  -3.679821e+01  -3.113466e+01
   4.750316e+01  -4.430332e+01
   4.761969e+01  -5.567577e+01
  -2.665674e+01  -1.347233e+01
  -5.983534e+01  -2.326778e+01
   7.601214e-01  -3.294211e+01
   6.961306e+01  -5.421247e+01
   8.324344e+01  -3.977219e+00
   8.329577e+01   2.003786e+01
  -2.370656e+01   8.914386e+01
  -7.548423e+00   3.291480e+01
   1.253446e+01   1.938862e+01
  -3.166376e+00  -4.639763e+01
   1.765368e+01  -3.230912e+01
   1.930671e+01   2.443925e+01
   4.857278e+01   2.827736e+01
  -2.780644e+01   3.076459e+01
  -1.877217e+00   8.477938e+00
  -5.457126e-01   3.802971e+01
  -3.048370e+01   2.787615e+01
  -7.028166e+01   1.946848e+01
   2.457154e+01   1.995136e+00
  -2.242416e+01  -9.365095e+01
  -5.249011e+01  -6.245981e+01
  -5.142148e+00   5.595150e+00
  -1.445925e+01   4.216620e+01
   3.014987e+00   7.445465e+01
   7.896240e+00   2.317267e+01
  -5.226997e+01  -6.369196e+01
  -1.343111e+01  -6.205763e+01
   6.259411e+01  -1.118720e+01
   7.041803e+01   6.159196e+00
   6.163664e+01   1.480010e+01
  -5.250380e+00   3.961634e+01
  -3.785834e+01   4.705094e+01
  -3.946836e+01   1.593122e+01
   4.620016e+01  -2.882935e+01
   1.725121e+01   4.738041e+01
  -1.044866e+01   5.048761e+01
  -8.352209e+01  -9.628707e+00
