
 $NMID
 id='ANONYMOUS ', fmtdat='(2E16.6)'
 volume=1.0
 tramp=1.0
 $END
   2.254752e+03   2.673122e+02
   1.246741e+03   1.214632e+03
   7.631755e+01   1.135513e+03
  -1.078661e+03   9.295051e+02
  -5.607828e+02  -1.619612e+02
  -5.835625e+01  -6.059107e+01
   2.783327e+02   1.388293e+02
  -1.272155e+01   3.130328e+02
  -3.268361e+02   3.914812e+02
  -3.930895e+02   1.232627e+02
  -4.101684e+02  -2.843486e+02
   1.076370e+02  -3.795605e+02
   1.355119e+02  -1.484681e+02
   2.580618e+02   2.349584e+02
  -1.353645e+02   3.359636e+02
  -2.099462e+02   1.003739e+02
  -1.406051e+02  -2.715984e+02
   1.873840e+02  -2.397054e+02
   3.808411e+02  -1.031523e+02
   2.165889e+02   1.848396e+02
   1.774970e+01   2.028304e+02
  -9.212690e+01   1.265985e+02
  -9.263109e+01   1.042346e+02
   7.159625e+01   4.425403e+01
   1.309200e+02   1.667114e+02
   4.876177e+01   2.274410e+02
  -2.645646e+02   6.755348e+01
  -2.549801e+02  -4.898251e+01
  -1.100519e+02  -1.470533e+02
   2.431002e+02  -2.297666e+02
   2.658208e+02   6.988706e+01
   4.440595e+01   2.542337e+02
  -2.062208e+02   1.515031e+02
  -2.113981e+02   4.155296e+01
  -1.562708e+02  -2.039433e+01
  -2.257360e+01  -2.091194e+02
   1.019569e+02  -1.383735e+02
   8.270300e+01   4.728766e+01
  -5.515269e+01   7.125313e+01
  -6.948076e+01  -1.740107e+02
  -2.479294e+01  -3.002555e+02
   1.979382e+02  -2.196355e+02
   1.032808e+02   5.313839e+01
   7.752555e+01   1.871980e+02
  -6.911817e+01   8.287646e+01
  -1.027722e+02  -1.286826e+02
  -1.038673e+01  -2.259296e+02
   2.594859e+02  -3.939261e+01
   3.233352e+02   2.918336e+02
   2.266038e+00   1.720953e+02
  -2.358621e+02   1.191834e+02
  -3.018991e+02  -3.400029e+01
  -1.597832e+02  -1.727199e+02
   7.339234e+01  -1.349413e+02
   1.031876e+02  -3.543464e+01
   1.290851e+02  -7.846907e+00
  -1.725525e+01   5.957864e+01
   5.657299e+00  -4.195216e+01
   9.230376e+01  -3.666149e+01
   1.549764e+02  -2.800864e-01
   2.285800e+01   9.922415e+01
  -1.724536e+01   1.300551e+02
  -1.497827e+02   5.481487e+01
  -1.033195e+02  -1.742177e+01
   5.013058e+01  -1.739771e+02
   1.278002e+02  -2.009814e+02
   1.965804e+02  -5.138272e+01
   1.600114e+02   9.321999e+01
   9.096451e+01   1.864716e+02
   9.477618e+00   1.762550e+02
  -2.290123e+00   1.231670e+02
  -2.287068e+01   2.012136e+01
  -3.308726e+01   3.881844e+01
  -6.919864e+01  -1.218598e+01
  -1.312601e+02  -4.895203e+00
  -5.033952e+01  -1.223444e+02
   4.442626e+01  -1.176206e+02
   9.959152e+01  -5.782881e-01
   1.084455e+02   7.976634e+01
  -4.009425e+01   1.368888e+02
  -1.563737e+02   7.923076e-01
  -1.578687e+02  -1.115339e+02
  -4.207219e+01  -1.039357e+02
   2.206372e+01  -1.069822e+02
   1.555807e+02  -6.505551e+01
   1.099349e+02  -1.443889e+01
   8.186287e+01  -4.392178e+01
   1.368173e+02  -4.417934e+01
   2.261350e+02   3.485584e+01
   1.701792e+02   2.040250e+02
   3.424564e+01   1.964383e+02
  -1.998027e+02   2.000904e+02
  -2.441917e+02   7.120860e+01
  -1.714837e+02   1.835106e+01
  -3.174446e+01  -1.115883e+02
   7.046821e+01  -9.763644e+01
   1.148266e+01  -5.723256e+01
  -8.374519e+00  -2.394970e+01
  -1.116336e+02   1.226425e+01
   1.864654e+01  -9.762508e+01
   3.576477e+01  -1.872627e+01
   7.814566e+01  -3.104096e+00
  -1.915816e+01   4.127579e+01
  -7.667865e+01   1.290833e+01
  -6.106339e+01  -1.256248e+02
   4.703331e+00  -1.996269e+02
   8.274063e+01  -8.699550e+01
   1.924877e+02   2.776927e+01
   1.623548e+02   1.600476e+02
   3.844198e+01   1.181723e+02
  -6.984654e+01   6.662189e+01
  -9.842681e+01  -4.508829e+01
  -1.822146e+00   3.262421e+00
   8.091208e+00   5.721274e+01
  -2.981759e+01   9.205818e+01
  -5.101790e+01   5.279357e+01
  -3.843241e+01  -9.298306e+01
  -5.371955e+00  -2.456294e+01
   1.298956e+01  -3.706639e+01
   1.898381e+01   3.516341e+00
  -4.963022e+01  -4.131874e+00
  -1.157850e+02  -1.291255e+01
  -1.463679e+02  -1.102423e+02
  -1.595095e+01  -1.411246e+02
   1.057928e+02  -1.100065e+02
   1.891482e+02  -5.858946e+01
   8.918918e+01   2.986479e+01
  -1.049061e+01   4.932142e+01
  -5.652710e+01  -1.928229e+00
   3.013547e+01  -3.433715e+01
   5.942278e+01  -5.005057e+01
   1.258620e+02   1.027095e+02
   1.862111e+00   1.114955e+02
  -4.595420e+01   8.437015e+01
  -4.807511e+01   1.868350e+01
  -7.473452e+01   1.773484e+01
  -8.818323e+00   1.111510e+01
  -2.381673e+01   2.788071e+01
  -6.217986e+01   6.080542e+01
  -1.446335e+02  -7.778989e+00
  -9.866234e+01  -1.266159e+02
   1.090974e+01  -1.214105e+02
   7.355738e+01  -6.983195e+01
   6.854238e+01  -2.403784e+01
   2.259637e+01   2.910379e+01
  -7.674591e+01   1.064981e+01
  -6.487878e+01   3.186352e+01
  -2.471765e+01  -4.402724e+01
  -5.964665e+00   2.766099e+01
   1.753122e+01  -5.361909e+00
  -4.349392e+01  -1.427647e+01
   1.865969e+00  -7.888611e+01
  -4.477881e+01  -9.224858e+01
   7.888531e+01  -6.607053e+01
   1.532302e+02  -3.465261e+00
   5.082714e+01   7.779298e+01
  -1.916082e+01   1.559773e+02
  -5.234409e+01   1.215827e+02
  -7.287303e+01   7.743637e+00
  -3.564380e+01  -6.250768e+01
  -3.082830e+01  -1.071256e+01
  -1.839244e+01  -5.267046e+00
  -4.837664e+01   2.676353e+01
  -4.743021e+01  -1.912100e+01
  -1.257529e+01  -5.980912e+01
   7.168891e+01  -3.550848e+01
   1.782449e+01   6.766976e+01
  -9.234682e+00   6.205731e+01
  -7.492754e+01   5.706567e+01
  -1.401706e+02  -1.378373e+01
   5.341684e+00  -1.124170e+02
   8.453459e+01  -1.360558e+02
   1.562885e+02  -1.031880e+02
   9.566225e+01   6.443335e+01
   9.621756e+01   9.589584e+01
  -5.610731e+01   1.012046e+02
  -1.353328e+01   4.700116e+00
   3.076314e+00   9.346739e+00
  -3.821651e+01   7.627015e+01
  -6.831272e+01   2.327554e+01
  -7.025561e+01  -3.528667e+01
  -4.894618e+01  -5.511876e+01
  -1.301152e+01  -1.131217e+02
   1.752238e+01  -4.684010e+01
   5.014275e+01   2.722656e+01
   6.469038e+01   9.143702e+01
   2.633380e+01   8.174350e+01
  -3.706433e+01   2.562513e+01
  -4.912379e+01  -5.175041e+00
  -3.259074e+01  -1.573206e+01
   3.718697e+01  -8.840573e+01
  -3.756549e+00   8.252661e+00
  -3.164972e+01  -2.063642e+00
  -1.036047e+01   1.561134e+01
   5.361384e+01  -2.883944e+01
   5.278476e+01  -2.885994e+01
   7.833186e+01   1.996584e+01
   1.989606e+01   4.830078e+01
  -3.895003e+01  -2.363037e+00
  -9.247134e+01   2.771250e+01
  -8.186245e+00  -3.649877e+01
   8.208750e+00   1.622162e+01
   6.102427e+01   1.416284e+01
  -6.449678e+00   2.673466e+01
  -1.299512e+01   1.150876e+01
  -4.561325e+01  -6.646667e+00
  -5.108963e+01   4.152060e+00
  -4.591075e+01  -2.798979e+01
  -5.248634e-01  -2.514504e+00
  -6.029840e+00  -1.317679e+01
  -1.888497e+01  -6.179869e+01
   4.274304e+01  -1.105581e+02
   6.398701e+01  -9.777574e+01
   7.961864e+01  -3.080250e+01
   6.963249e+01   1.867418e+01
  -1.626749e+01   9.129508e+01
  -7.241001e+01   2.683652e+01
  -6.796376e+00  -2.775358e+01
   3.479782e+01  -1.142842e+01
   9.252828e+01   4.996571e+00
   3.147995e+01   6.463676e+01
  -5.498107e+01   1.484223e+01
  -7.455236e+01   5.740303e+01
  -8.468425e+01  -2.031180e+01
  -3.667527e+01  -4.392785e+01
   5.234122e+01   4.877549e+01
   1.707273e+01  -2.344230e+01
  -1.954223e+01   3.932158e+00
  -6.358825e+01  -4.800537e+01
  -3.271109e+01  -6.143486e+01
   6.009940e+01  -7.908476e+01
   1.656464e+02  -7.262521e+01
   5.256967e+01   9.723262e+01
  -2.419516e+01   1.218924e+02
  -7.190376e+01   7.988378e+01
  -1.437334e+01   1.174516e+01
  -4.137825e+01  -6.764236e+01
   2.223710e+01  -6.645777e+01
   4.051784e+01   4.133309e+01
   2.734471e+01   1.092680e+01
  -4.419116e+00  -3.449075e+01
   1.230548e+01  -2.394049e+01
   3.418302e+01   1.268638e+01
   5.269637e+01   5.162870e+01
   3.748885e+01   4.540333e+01
  -3.840412e+01   3.243265e+01
  -9.356315e+01   6.971047e+00
  -3.333366e+01  -2.818162e+01
   6.710377e+00  -3.159218e+01
   5.925999e+01   3.133219e+01
   1.299449e+01  -3.747476e+01
   3.847961e+00  -3.373868e+01
   2.784587e+01   3.244804e+00
  -2.814025e+01   1.612644e+01
  -2.722760e+01  -1.656002e+01
  -1.916490e+01  -1.011254e+01
  -7.975314e+01  -3.605557e+01
  -2.323579e+01  -4.895990e+01
   1.754462e+01  -6.188248e+01
   5.155428e+01  -6.432484e+01
   1.019216e+02  -2.460878e+01
   7.340952e+01   1.314932e+01
   2.620085e+01   9.352893e+01
   2.086135e+01   9.662381e+01
  -7.345135e+01   7.801108e+01
  -5.552197e+01  -1.565256e+01
  -4.125660e+00  -3.694675e+01
  -3.117313e+01   2.611333e+00
   2.324715e+00  -2.426788e+01
  -2.752109e+01  -4.456597e+00
  -3.330453e+01  -4.920891e+01
   5.428014e+00  -2.571858e+01
   5.715403e+01   9.837197e+00
   2.771899e+01   1.765095e+01
  -8.640936e+00   6.925511e+01
  -2.671963e+01   1.304930e+01
  -6.641092e+01  -8.572845e+01
  -3.452465e+01  -4.164737e+01
   3.374004e+01  -3.395109e+01
   2.543364e+01   1.448537e+01
   4.447232e+01   4.824039e+01
  -5.320446e+01  -8.034219e-01
  -1.176139e+01   3.725991e+01
   5.607940e+01   1.549809e+01
   4.929069e+01  -1.341022e+01
   3.869380e+01   3.372629e+01
  -4.496760e+01   3.887716e+01
  -7.329846e+01   3.722582e+01
  -2.503448e+01   1.871024e+01
   2.803232e+01  -2.968408e+01
  -1.283480e+01  -5.457880e+01
   1.366479e+01  -2.967685e+01
  -1.309144e+00   1.284561e+01
  -1.758832e+01   1.742927e+01
  -3.542564e+00  -1.895986e+01
  -3.905923e+00  -2.689838e+01
   4.605886e+00  -2.964550e+01
   5.124546e+01   2.496701e+00
   3.653871e+01   4.825970e+01
   4.472661e+00   3.303016e+01
  -4.930301e+01   1.651289e+01
   2.103966e+00  -1.644616e+01
  -3.456523e+01  -6.811146e+00
   1.145184e+00   1.107129e+01
   2.142804e+01  -9.805865e+00
  -3.638401e+01   1.674015e+01
   4.746884e+00  -4.574339e+01
   4.525102e+01   1.005494e+01
   3.362169e+01  -2.498975e+00
   3.711426e+00   3.153705e+01
  -6.909381e+01   4.046178e+01
  -3.867037e+01  -2.463205e+01
  -6.108438e+01  -3.858116e+00
  -3.453825e+00  -5.706038e+01
   3.063079e+00   1.298294e+01
   1.990797e+01  -3.036898e+01
  -2.146214e+01   7.352786e+00
  -2.697026e+01   3.251728e+00
   9.806693e-01  -2.133448e-01
   4.160344e+01  -2.712154e+01
