
 $NMID
 id='ANONYMOUS ', fmtdat='(2E16.6)'
 volume=1.0
 tramp=1.0
 $END
  -7.109381e+02  -1.269816e+02
  -5.528738e+02  -4.082107e+02
  -7.252081e+01  -8.803243e+01
   7.480283e+01  -7.094873e+01
   9.365256e+01  -6.632302e+01
   1.030322e+02   2.748651e+01
   8.033001e+01   3.413636e+00
  -1.426855e+01  -9.977074e+01
   1.165652e+02  -1.618735e+02
   2.157988e+02  -4.989417e+01
   1.861868e+01  -2.317643e+01
  -3.145522e-01   1.865778e+02
  -2.644960e+01   1.091028e+01
  -6.876783e+01  -1.331604e+02
  -8.307819e+01  -1.160005e+02
   5.722166e+01   3.190497e+01
   6.193450e+01  -3.233462e+01
  -6.484092e+00   1.035674e+02
  -5.985050e+01   5.186398e+01
  -8.840415e+01   3.397652e+01
  -5.451486e+01  -1.155545e+02
   1.727952e+01  -4.184012e+01
  -1.652588e+01   3.351535e+00
   7.670099e-01   1.399392e+01
  -1.181714e+02  -4.772511e+00
  -3.406358e+01  -9.193081e+01
   6.025833e+01  -2.494611e+00
   6.273195e+01  -2.816682e+01
   3.325100e+01   3.815938e+01
  -2.502842e+01   8.677774e+01
   3.809901e+01  -9.129190e-01
  -8.158074e+01  -3.640429e+01
   4.370376e+01  -7.820170e+01
   1.247299e+02  -3.774651e+01
   2.706432e+01   3.468484e+01
  -1.795820e+01   2.960635e+01
   4.573643e+01   1.454863e+01
   5.521210e+01  -7.276796e+01
   1.242600e+01   7.102923e+01
  -2.005396e+01   7.275079e+01
   2.773181e+01   1.242500e+02
   6.499611e+00  -3.603336e+01
   2.372333e+01  -7.009852e+00
  -6.765695e+01  -1.506049e+01
   2.843821e+01  -4.282249e+01
   4.128051e+00   3.726032e+01
   5.978554e+00   4.008044e+01
  -4.281370e+01   3.881090e+01
  -7.882166e+01  -8.482911e+01
  -5.079506e+01  -4.212442e+01
  -1.684566e+01  -9.003582e+01
  -2.338847e+01  -3.546799e+01
   7.111739e+01   4.134247e+01
  -3.569007e+01   3.935540e+01
  -6.429985e+01   7.572424e+00
  -7.458759e+01  -3.596398e+01
   6.481069e+01   1.232076e+01
  -1.795888e+00   1.009726e+01
   4.875064e+00   3.880488e+00
   4.564471e+00  -3.968303e+01
  -5.029469e+01  -5.413334e+01
  -2.260185e+01  -1.840635e+01
   3.092693e+00  -8.974518e+01
   9.751529e+01   3.284867e+01
  -3.953354e+01   4.555200e+01
  -9.145451e+01   1.107908e+02
  -7.573149e+01   3.011149e+01
  -3.441245e+01   1.293381e+00
  -7.783622e+01  -8.583877e+01
  -1.770028e+01   1.562612e+01
   2.145985e+01  -1.722713e+01
  -4.497151e+01  -6.136755e+01
   1.458342e+01  -2.471996e+01
   9.087047e+01  -4.730249e-01
  -6.010026e+00   2.536846e+01
   1.643319e+01   5.727797e+01
  -1.319881e+01   3.182709e+01
  -5.714223e+01  -3.184933e+01
   1.914387e+01  -6.090471e+00
   5.893393e+01  -7.128336e+01
   9.789218e+01  -4.819218e+01
   4.606999e+01  -2.263519e+01
   5.300883e+01   2.843581e+01
  -3.469303e+01   4.745940e+01
  -5.944203e+00   5.379934e+01
  -2.610095e+01   2.942889e+01
  -2.903099e+01   1.851519e+01
  -5.708393e+01   7.647023e+00
  -7.868369e+01   3.764787e+01
  -1.117878e+02  -4.221243e+01
   1.917327e+00  -6.608127e+01
  -3.753577e+01  -3.989120e+01
   1.941624e+00  -3.999194e+01
   2.334692e+01  -2.394283e+01
  -1.856076e+01   1.094224e+01
   1.025786e+01   6.486110e+00
   3.506615e+00  -1.833968e+01
   1.294952e+01  -1.738373e+01
   1.464147e+01   1.030492e+00
  -4.203108e+00   5.873981e+01
   1.416843e+01   3.967222e+01
  -3.811053e+01  -7.909540e+00
   2.085959e+01  -5.886373e+01
   1.887604e+01  -6.022127e+00
   1.144759e+01   1.682609e+01
   5.964228e+01   6.134043e+01
  -4.040978e+00   1.846406e+01
  -8.430230e+01  -2.814214e+01
  -1.033884e+02  -6.044026e+01
  -4.542910e+01  -3.585132e+01
   2.632805e+01   7.918144e+00
   3.583882e+01  -7.015250e+00
   2.616618e+01  -1.526471e+01
  -2.211040e+00   4.948610e+01
   1.767128e+00  -6.103629e+01
   3.141996e+01   3.992563e+00
   3.317771e+01   1.373532e+01
   2.573302e+01   4.186391e+01
  -6.041054e+01  -6.323461e+00
  -2.421662e+01  -1.326651e+00
   7.327637e+01  -2.943031e+01
   7.273917e+01   1.610184e+01
   1.140769e+02   6.523932e+01
   3.450142e+01   5.390365e+01
  -6.340688e+00   7.177428e+01
   2.250726e+01  -1.236836e+01
  -3.294556e+01  -1.613771e+01
   3.710371e+01  -1.011748e+00
  -3.478592e+00  -2.475153e+00
  -3.324886e+01  -1.753134e+01
   1.076635e+01  -5.100056e+00
  -6.271345e+01   1.292995e+01
  -9.224600e+00  -1.726837e+01
   3.875412e+01  -8.418759e+00
  -1.203251e+01  -3.503240e+01
   5.860760e+00   1.816578e+01
  -1.784895e+01  -1.338667e+01
  -3.010723e+01   1.090908e+01
   1.264736e+01  -6.436894e+01
   6.628527e+01   8.070155e+00
  -1.487590e+01   3.525807e+01
  -1.001568e+01   3.109618e+01
  -2.664751e+01  -2.636385e+01
  -8.843320e-01  -1.616807e+01
   2.473970e+00   1.994855e+01
  -3.022737e+00  -1.509826e+00
   3.342647e+01   1.201654e+01
  -5.085568e+00  -3.810643e+01
   9.079378e+00   2.288362e+01
  -4.201637e+01  -5.550307e+00
  -9.054979e+00  -3.856379e-02
   4.009946e+01   1.768808e+01
  -2.635264e+01  -1.956071e+01
  -2.752697e+01   3.055660e+01
  -4.535863e+01   1.421840e+01
  -1.015877e+02  -4.823809e+01
  -1.266511e+01  -5.044886e+00
   3.195977e+01  -6.364613e+01
   2.272114e+00  -2.820755e+01
   1.032141e+01   4.137013e+01
   3.448366e+01   1.370052e+01
   2.847305e+01  -2.758412e+01
   2.233506e+01  -1.353901e+01
   1.165339e+01   5.690550e+01
   2.576802e+00  -3.188420e+00
   2.923047e+01   1.626264e+01
  -2.895110e+01  -2.227512e+01
   3.756313e+01  -6.156603e+01
   3.178933e+01   4.706983e+00
   3.738131e+00  -1.401407e+01
   8.525344e+00   2.785800e+01
  -8.457715e+00   1.599451e+01
  -3.515696e+01   3.934784e+01
  -2.160502e+01  -5.031507e+01
  -2.367567e+01   1.090865e+01
   5.836626e+00  -2.121022e+00
  -6.431263e+00  -3.213211e+01
   4.361504e+01   2.871281e+01
  -1.389975e+01  -1.647346e+01
   3.367192e+01   9.999617e+00
   1.315253e+01  -3.354182e+00
   4.057750e+01   1.209659e+01
  -5.863733e+00   3.141986e+01
  -1.296585e+01   2.867295e+01
  -2.979283e+01   7.721745e+00
  -2.768401e+01  -2.558282e+00
  -2.942937e-01  -8.598282e+00
  -2.392761e+00   4.379062e+00
  -4.764230e+01   4.213859e+01
   1.422368e+01   1.494803e+01
  -5.754190e+00   2.823562e+01
   1.721710e+01   1.256043e+01
   1.384975e+01   2.505622e+00
  -1.304817e+01   2.625114e+00
  -6.869021e+00   1.846862e+01
  -2.227925e+01  -2.057247e+01
  -3.348884e+01  -1.918567e+01
   2.528242e+01  -1.680942e+01
   7.125982e+01  -2.859013e+01
   3.375858e+01  -1.835036e+01
  -2.597811e+01  -8.226784e+00
  -5.931175e+00   4.939270e+01
   8.880162e+00   3.827781e+01
  -1.558094e+01   9.682710e+00
  -2.104758e+01  -3.235786e+01
  -1.357380e+00   2.166732e+01
   3.733661e+01  -1.578585e+01
  -2.104017e+01  -1.203065e+01
   5.402199e+01  -3.250510e+01
   1.570120e+01  -3.076569e+01
  -5.778128e+01  -3.604911e+00
  -1.518283e+01   5.714137e+00
   5.234319e+00   3.723442e+01
  -4.198472e+01   2.039852e+01
  -1.371796e+01  -3.169703e+01
   1.786219e+01  -4.173063e+01
   3.898415e+01  -2.774673e+01
   4.366039e+01  -1.879376e+01
  -8.526896e+00   1.095188e+01
   1.221819e+01  -2.689807e+01
  -5.032060e+01  -1.055827e+01
   1.210822e+01  -5.305491e+01
   3.589470e+01  -4.929302e+01
   1.367005e+00  -4.245640e+00
  -1.737473e+01   1.378974e+01
  -1.499695e+01  -1.755625e+01
  -1.998797e+01   2.026667e+01
  -1.562066e+01   8.619692e+00
   2.586813e+01  -7.621392e+00
  -4.826067e+00  -2.946734e+01
   4.730428e+00   6.289486e+01
  -7.302914e+00   1.786802e+01
  -1.742986e+01  -6.307134e+00
   1.623065e+01  -6.140203e+01
   9.679674e+00  -7.804828e+01
   5.250490e+01  -1.749929e+01
  -5.008578e+00  -4.004143e+00
   4.482074e+00  -4.695139e+00
   2.356504e+01   2.051509e+01
   2.147092e+01   3.642235e+00
   1.036962e+01   2.367754e+01
  -1.724373e+00  -2.136645e+01
  -2.279320e+01   3.164303e+01
  -5.751585e+00  -5.780228e-01
   1.374028e+00  -3.283841e+01
   1.880718e+01  -4.563739e+01
  -3.416060e-01   2.317443e+01
  -1.548166e+01  -5.846341e+00
  -1.727017e+01   9.785139e+00
  -1.193092e+01  -5.892426e+00
  -2.232245e-01  -6.856893e-01
  -1.914865e+01  -3.818007e+01
   3.140378e+01  -9.377018e+00
  -1.905091e+00   3.303467e+01
  -1.145944e+01  -7.834073e-01
  -1.927724e+01   5.851478e+00
   1.745366e+01  -4.168913e+00
  -1.885340e+01   2.061839e+01
  -3.286372e+01   4.511764e+01
  -1.872739e+01   1.902199e+01
  -4.589582e+01  -1.608512e+01
  -2.093183e+01  -4.431345e+01
  -6.293654e+00  -1.221955e+01
   1.933679e+01  -6.845616e+01
   2.037616e+01  -1.611793e+01
  -1.945421e+01   3.208097e+00
   2.328835e+01  -1.003155e+01
  -7.284438e+00  -3.419785e+00
   3.313824e+01   2.924930e+01
  -4.818466e+01  -2.177582e+01
  -1.781591e+01  -1.331264e+01
  -1.082879e+01  -1.091972e+01
  -4.110380e+01   1.410759e+01
   1.893422e+01  -2.727898e+00
  -2.954187e+01   1.836935e+00
   4.910521e+01   2.672180e+01
   1.118877e+01  -3.529698e+00
  -7.991076e+00   3.030564e+01
  -2.709152e+01   7.348255e-01
  -2.164606e+01   2.198561e+01
   1.157078e+01   2.550353e+01
  -7.585029e+00  -3.074879e+01
   5.203143e-01   1.417521e+01
  -3.732812e+01   2.869092e+01
   3.585104e+01   2.101103e+01
  -4.391399e+01   1.863428e+01
   3.577875e+01   3.458153e+00
   7.781876e+00  -4.277192e+00
   3.556896e+01   1.795682e+01
  -4.989658e+01  -5.380115e+00
  -4.963013e+01   1.836065e+01
  -1.390916e+01  -1.122618e+01
  -4.708609e+00   4.386710e+00
   1.338998e+00  -9.362519e+00
  -5.653429e+00  -3.187471e+01
  -2.073024e+01   4.049528e+01
   7.703770e+00  -4.210994e+01
   1.449602e+01  -6.411816e+01
  -3.182266e+01   2.120815e+01
  -1.423536e+01  -1.128065e+01
  -2.773882e+01  -2.904491e+01
   2.207136e+00  -3.230706e+00
  -2.411519e+01   6.023294e+00
  -4.660653e+01  -1.384049e+01
  -1.298568e+01   9.435299e+00
   5.941438e+01   1.469428e+00
  -4.097818e+01   3.038420e+01
   1.389940e+01   2.063868e+01
  -1.846082e+01  -1.771000e+01
   1.313097e+01  -4.706159e+01
   1.246769e+01   2.654892e+01
   2.573832e+01  -3.220737e-01
   1.612048e+01  -2.561337e+01
  -1.843248e+01   2.201334e+01
  -1.791779e+01   3.096135e+01
  -3.955127e+01  -2.167742e+01
  -1.552488e+01  -2.697681e+01
  -2.909580e+01  -7.839352e-01
   1.171456e+01   8.162634e+00
   1.822226e+00   1.172211e+01
