
 $NMID
 id='ANONYMOUS ', fmtdat='(2E16.6)'
 volume=1.0
 tramp=1.0
 $END
  -1.333024e+03   3.853171e+02
  -1.211401e+03  -6.310135e+02
  -1.438526e+02  -1.011707e+03
   7.858959e+02  -6.833068e+02
   5.467312e+02  -1.920102e+02
   1.199676e+02   9.330683e+01
  -2.377396e+02   6.462674e+01
  -9.742040e+01  -2.593315e+02
   2.077042e+02  -1.753801e+02
   2.468933e+02  -6.262925e+01
   1.265328e+02   1.588486e+02
   1.145736e+02   1.955545e+02
  -7.616393e+01   8.700779e+01
  -4.142367e+01  -2.244312e+02
  -1.343971e+02  -2.427323e+02
   1.859641e+02  -2.269050e+01
   1.431838e+02   1.915761e+02
  -4.985738e+01   3.564965e+02
  -3.176498e+02   1.735785e+02
  -2.054289e+02  -1.942496e+01
  -8.216923e+01  -1.960230e+02
   2.768477e+01  -1.466573e+02
  -1.151541e+01  -1.450540e+01
  -6.789075e+01  -1.360907e+02
  -9.269336e+01  -2.022788e+02
   4.314682e+01  -2.632808e+02
   2.351537e+02   7.085490e+01
   2.557490e+02   1.497920e+02
   6.638425e+01   6.011696e+01
  -2.201562e+02   3.764831e+01
  -1.039379e+02  -9.477454e+01
  -1.120570e+02  -1.763854e+02
   1.782819e+02  -1.322255e+02
   1.663317e+02  -3.286122e+01
   1.293098e+02   9.626211e+01
  -1.260377e+01   1.443764e+02
  -1.495840e+01   8.585832e+01
   1.159225e+02   4.494008e+01
   1.091924e+02  -5.851227e+01
   5.910413e+01   6.728933e+01
   5.185771e-01   3.786810e+02
  -1.372359e+02   2.607264e+02
  -1.462728e+02  -1.420950e+01
  -3.395819e+01  -4.044497e+01
   4.605899e+01   4.888932e-01
   7.427116e+01   1.724484e+02
  -1.003475e+02   7.473069e+01
  -1.798696e+02   5.091085e+00
  -3.506672e+02  -1.950939e+02
  -1.104902e+02  -1.167965e+02
   9.107608e+01  -6.897689e+01
   2.255092e+02   2.619811e+01
   1.575470e+02   1.432824e+02
  -3.003090e+00   6.779385e+01
  -9.167643e+01   5.680229e+01
  -1.200569e+02   9.409281e+01
  -1.498997e+01   1.636558e+01
   2.915287e+01  -6.516592e+00
  -7.324665e+01   8.018024e+00
  -2.770423e+01  -3.083438e+01
  -6.706163e+01  -8.572994e+01
   4.661638e+00  -9.139862e+01
   1.278224e+02  -4.858955e+01
   1.341774e+02   3.228321e+01
  -2.547670e+01   1.546920e+02
  -1.493093e+02   1.520686e+02
  -1.618550e+02   5.309843e+01
  -6.160806e+01  -8.680805e+01
   2.967039e+01  -1.924967e+02
  -3.642697e+01  -1.127340e+02
   4.359548e+01  -8.012366e+01
   3.147290e+01  -6.693856e+01
   1.359254e+02  -5.054599e+01
   9.167051e+01   3.332444e+01
   2.188770e+01   8.124969e+01
   5.576830e+01   8.614807e+01
  -6.663627e+01   4.306459e+01
  -9.563166e+01   1.575309e+01
  -2.171119e+01  -1.323949e+02
   4.567384e+01  -7.622293e+01
   1.500013e+02  -4.114080e+01
   9.486633e+01   1.185078e+02
   5.009447e+01   1.008466e+02
  -7.021469e+00   1.292899e+02
  -6.728253e+01   1.434832e+02
  -7.288128e+01   3.099572e+01
  -1.201179e+02   6.235083e+01
  -1.564931e+02  -2.033741e+01
  -1.614586e+02  -1.159950e+02
  -1.242973e+02  -1.330825e+02
   2.119001e+01  -1.731926e+02
   2.348234e+02  -2.053991e+02
   1.746994e+02  -7.525671e+01
   1.502932e+02   8.511641e+01
  -5.901956e+01   9.492849e+01
  -5.837181e+01   7.740406e+01
   1.779982e+01   3.926405e+01
   4.773756e+01   2.707286e+01
   4.103562e+01   5.707641e+01
   1.692747e+00   6.096450e+01
   9.067759e+00   8.880749e+00
  -6.909773e+00  -6.350434e+01
   3.877299e+01  -2.498304e+01
   4.370723e+01   1.884559e+01
   2.568720e+01   9.746078e+01
   1.430746e-01   2.143866e+02
  -1.057682e+02   7.364358e+01
  -1.898078e+02  -2.446556e+01
  -1.102540e+02  -1.768262e+02
  -1.983806e+01  -1.691058e+02
   2.228573e+00  -2.615606e+01
   7.783870e+01  -4.802108e+01
   4.422389e+01   9.226074e+00
  -2.529259e+01  -8.569867e+01
  -8.733475e+00  -6.675362e+01
   7.875905e+01   9.508942e+00
   3.682842e+01  -1.439364e+01
   1.036956e+01   6.105940e+01
  -5.290001e+01  -3.994528e+01
   1.505713e+01  -1.601059e+01
   5.611770e+01  -3.221220e+01
   1.782214e+02  -6.162730e+01
   1.126048e+02   1.234051e+02
  -1.921302e+01   1.662232e+02
  -1.323255e+02   1.336360e+02
  -1.399055e+02   3.119519e+01
  -7.375989e+01  -2.329765e+01
   4.964286e+01  -4.369844e+01
   7.783246e+00  -1.435408e+01
   6.705160e+00   2.323835e+01
  -7.806346e+01   6.826344e+00
  -1.021941e+02  -2.112687e+01
  -2.792218e+01  -7.872957e+01
   3.018879e+01  -4.614997e+01
   4.327908e+01  -2.159072e+01
  -5.305389e+00  -2.456403e+01
  -4.102843e+01  -6.327019e+01
  -5.632675e+00  -4.332915e+01
   4.776374e+01  -6.647298e+01
   1.834725e+02  -2.672849e+01
   5.206787e+01   7.717872e+01
  -2.282151e+01   7.707041e+01
  -6.303830e+01   9.299448e+01
  -1.306207e+02  -2.033421e+01
  -1.009794e+00  -2.424310e+01
   3.643641e+01  -2.008439e+01
   3.490649e+01   1.729708e+01
  -1.177553e+01   9.544818e+00
  -1.784992e+01  -1.706356e+01
   5.986056e+00  -4.032307e+01
   5.442569e+01  -1.408989e+01
   8.431821e+01   2.166720e+01
  -7.012173e+00   9.243130e+01
  -4.370881e+01   6.340597e+01
  -1.759062e+02  -2.819141e+01
  -7.914585e+01  -1.014147e+02
  -2.731716e+01  -1.005862e+02
   7.522638e+01  -1.175597e+02
   3.913675e+01   1.998755e+01
   4.636223e+01   3.676391e+01
   2.256611e+01   7.763634e+00
  -2.496536e+00  -3.499831e+01
   6.030873e+01  -1.989854e+01
   6.302803e+01   5.068706e+01
  -2.640438e+01   5.281605e+01
  -5.157836e+01   4.505871e+01
  -6.012019e+01  -4.470344e+01
  -2.937766e+00  -1.370915e+02
   1.229640e+02  -8.764472e+01
   6.373423e+01   2.638516e+01
   4.362522e+01   1.295005e+02
  -1.175698e+02   1.512153e+02
  -1.278534e+02   1.224410e+01
  -1.037780e+02  -4.756882e+01
  -3.148844e+01  -9.625824e+01
   9.457612e+00  -7.178474e+01
   6.177051e+01  -4.787484e+01
   1.025989e+01  -1.191359e+01
   5.290216e+01  -5.426485e+01
   1.154983e+02  -3.483803e+01
   9.014640e+01   2.293260e+00
   8.063027e+01   4.548441e+01
   9.474689e+00   8.501605e+01
  -8.058007e+01   1.034160e+02
  -6.917407e+01   4.275209e+00
  -5.539166e+01  -8.712325e+01
   6.002929e+00  -4.205129e+01
   6.511535e+01  -2.703925e+01
   3.918586e+01  -1.094284e+01
   1.374767e+01   3.909910e+01
   2.483739e+00   2.242226e+01
   1.823990e+01   1.097003e+01
   6.713363e+01   7.133285e+00
   3.272634e+01   1.610817e+01
  -4.007727e+01   1.647349e+01
  -8.513171e+01  -2.136053e+01
  -9.658004e+01  -4.701165e+01
  -3.783886e+01  -5.555048e+01
   6.965223e+01  -4.349486e+01
   9.801060e+01   3.319752e+01
   3.176020e+01   7.898696e+00
  -2.009707e+01   4.512679e+01
  -2.536080e+01  -9.065560e+00
  -7.067587e+00  -3.099127e+01
   8.615081e+00  -4.184322e+01
   4.515112e+01  -2.608258e+01
   5.035502e+01   4.375575e+01
   6.459113e+01   5.891911e+01
   2.669304e+01   6.447985e+00
   1.448057e+01  -9.148499e+00
   2.737463e+01   4.489510e+01
  -1.899942e+01   6.680698e+01
  -4.762235e+01   7.721241e+01
  -1.089365e+02  -1.610747e+01
  -1.042496e+02  -3.663962e+01
  -1.891083e+01  -7.982765e+01
   4.611901e+01  -4.080734e+01
   4.695515e+00   5.253171e+00
  -3.869528e+01   6.720205e+01
  -7.382054e+01  -6.727030e+01
   2.211332e+01  -4.000533e+01
   8.642749e+01  -3.520594e+01
   1.078820e+02  -2.422237e+01
   7.825218e+01   3.260644e+01
   8.010295e+00   6.727157e+01
  -4.337758e+01   4.006585e+01
   9.813422e+00   2.172792e+01
   1.989120e+01   3.670432e+01
   4.028458e+01   2.174218e-01
   4.981405e+01   7.944513e+01
  -5.367070e+01   1.040150e+02
  -7.725378e+01   2.760311e+01
  -4.126309e+01  -7.000634e+01
   4.595189e+01  -1.142800e+02
   4.311028e+01  -3.602866e+01
   2.317646e+01   2.478895e+01
   2.524882e+01   1.050292e+02
  -5.703617e+00   2.084752e+01
  -3.574950e+01   3.006754e+01
  -3.082482e+01  -7.342344e+00
   3.265193e+01   1.345182e+01
  -5.067485e+00  -1.003886e+00
  -2.223434e+01  -2.333713e+01
  -6.551694e+01  -3.358150e+01
  -3.935200e+01  -6.811855e+01
   6.341016e+00  -5.682780e+00
   4.545162e+01  -9.989133e+00
   5.996657e+01   2.796873e+01
  -3.658785e+01  -1.064306e+01
  -1.007796e+02  -2.536035e+01
  -5.502510e+01  -2.392265e+01
   8.404519e-01   1.715604e+01
   4.807962e+01   1.577546e+01
   4.623164e+01   5.953960e+00
   1.598472e+01  -3.218921e+00
  -2.568894e+00  -2.314412e+01
   1.823526e+01  -2.106483e+01
   4.790007e+01  -2.484606e+01
  -3.066503e+01   4.498640e+01
  -6.208839e+01   8.395394e+01
  -1.017477e+02   5.996546e+01
  -1.088101e+02   4.890848e+00
  -1.456790e+01  -7.765946e+01
   3.260401e+01  -6.640965e+01
   8.149273e+01  -4.290580e+01
   1.011827e+02   1.821005e+01
   2.892199e+01   5.677933e+01
   4.005599e+01   1.589608e+01
   1.647137e+01   1.555951e+01
   2.508053e+00   9.353814e-01
  -5.790594e+01  -1.285543e+01
  -1.352797e+01   2.468720e+01
  -3.262743e+01   2.315226e+01
  -1.963367e+01  -6.178795e+01
   6.357750e+00  -8.319375e+01
   8.000024e+01   8.548270e+00
  -1.435263e+00   3.382809e+01
   5.217781e+01   5.932613e+01
  -3.653310e+01   4.061496e+01
  -6.416895e+01  -3.850560e+01
  -3.322629e+01  -4.229585e+01
   3.771204e+01  -4.729974e+01
   6.687839e+01  -3.913017e+01
  -2.443115e+01   2.340559e+01
  -3.893765e+01  -3.773192e+01
   1.325944e+01  -9.888929e+00
   8.924185e+01  -5.766671e+01
   4.678703e+01  -1.308628e+01
   8.490852e+01   8.098477e+00
   1.526681e+01   4.067664e+01
  -8.052022e+01   6.247760e+01
  -2.067121e+01   2.285667e+01
   1.394039e+01  -5.297303e+01
  -1.165692e+01  -1.257995e+01
  -5.539498e-01  -1.274428e+01
  -1.774530e+00   5.042346e+01
   3.479886e+01   6.897890e+01
  -7.565177e+00   2.527925e+01
  -2.496020e+01   9.216073e+00
   4.334813e+01   8.057674e-01
  -4.953844e+01   1.909304e+01
   1.089967e+01   8.938436e+00
  -2.471119e+01   3.518498e+01
   2.273857e+01  -4.219130e+01
   7.051742e+00   2.027749e+01
  -2.673514e+01   1.348552e+01
  -1.443834e+01   9.034740e+00
  -4.362469e+01   2.705916e+01
  -4.599240e+00   2.446339e+01
  -5.538324e+01  -5.474183e+00
   1.344683e+01  -1.209274e-01
   4.473271e+01   8.473441e+00
   1.466079e+01   2.884491e+01
   4.722754e+01   1.239129e+01
  -8.438016e+01   4.049015e+01
  -3.601608e+01   4.667543e+01
   1.191284e+01   1.787156e+01
   4.036761e+01  -3.064933e-01
  -2.915744e+01   2.939586e+01
  -2.748622e+01   2.340291e+01
