
 $NMID
 id='ANONYMOUS ', fmtdat='(2E16.6)'
 volume=1.0
 tramp=1.0
 $END
  -5.478904e+07  -5.141464e+05
  -3.253389e+07  -3.435101e+07
   7.715319e+06  -3.701177e+07
   2.697481e+07  -1.384158e+07
   1.585791e+07   7.092489e+06
  -3.369447e+06   9.009927e+06
  -9.493816e+06  -1.366200e+06
  -2.521128e+06  -9.509556e+06
   6.137887e+06  -8.914589e+06
   9.364773e+06  -1.783979e+06
   6.718620e+06   6.065566e+06
   7.286066e+05   8.320983e+06
  -3.884633e+06   2.645894e+06
  -2.506185e+06  -5.237633e+06
   3.703434e+06  -6.254029e+06
   7.608074e+06   1.400923e+06
   4.193700e+06   9.938365e+06
  -3.790518e+06   1.139823e+07
  -9.864306e+06   5.647351e+06
  -1.049889e+07  -2.067614e+06
  -6.412248e+06  -7.341311e+06
  -6.144872e+05  -8.465867e+06
   2.939368e+06  -5.896162e+06
   1.915361e+06  -2.553287e+06
  -1.023479e+06  -1.993907e+06
  -2.685837e+05  -3.985964e+06
   5.190891e+06  -4.246021e+06
   9.327814e+06  -4.743057e+05
   6.814818e+06   4.018972e+06
   2.636033e+05   4.926682e+06
  -3.575576e+06   2.524218e+06
  -2.418764e+06   6.277587e+04
   5.020931e+05  -8.805089e+05
   2.129017e+06  -5.051419e+05
   2.122265e+06   1.323983e+06
   7.087897e+05   3.777934e+06
  -1.752648e+06   3.749553e+06
  -3.185409e+06  -9.261486e+04
  -1.682752e+06  -3.559041e+06
   7.828228e+05  -1.919767e+06
   3.657412e+05   2.339227e+06
  -2.374183e+06   2.196263e+06
  -2.330411e+06  -3.124831e+06
   2.448551e+06  -5.922943e+06
   6.800717e+06  -8.977265e+05
   4.918008e+06   6.799111e+06
  -1.954543e+06   8.274810e+06
  -7.236139e+06   2.284664e+06
  -6.677660e+06  -4.363413e+06
  -1.712901e+06  -5.835604e+06
   3.380005e+06  -2.571586e+06
   5.043636e+06   1.532320e+06
   2.284524e+06   3.391555e+06
  -2.375338e+06   2.093197e+06
  -4.375544e+06  -9.476765e+05
  -1.853243e+06  -2.660855e+06
   1.681886e+06  -1.311657e+06
   1.662156e+06   1.007554e+06
  -1.308385e+06   8.518902e+05
  -2.370819e+06  -1.763527e+06
   6.790044e+05  -3.350341e+06
   4.545517e+06  -1.785015e+06
   5.128944e+06   1.392776e+06
   2.198709e+06   3.888832e+06
  -1.776166e+06   5.088870e+06
  -4.855649e+06   4.665512e+06
  -6.001572e+06   1.668989e+06
  -4.435811e+06  -3.076577e+06
  -8.865519e+05  -5.978062e+06
   1.845208e+06  -4.587029e+06
   1.720671e+06  -1.132709e+06
   1.267549e+05   2.756796e+05
  -7.511666e+04  -9.519693e+05
   1.525386e+06  -1.758290e+06
   2.721848e+06  -2.622195e+05
   1.976189e+06   1.844201e+06
   4.730574e+04   2.065707e+06
  -1.478858e+06   2.081536e+05
  -1.609970e+06  -1.990529e+06
  -1.921471e+03  -2.831275e+06
   2.679530e+06  -1.602935e+06
   4.336747e+06   1.160298e+06
   3.118713e+06   3.665692e+06
  -5.872488e+04   4.118874e+06
  -2.240547e+06   2.634232e+06
  -2.189597e+06   1.082895e+06
  -1.785304e+06   6.349726e+05
  -2.847140e+06   4.341856e+05
  -4.198745e+06  -7.698654e+05
  -3.351559e+06  -2.699021e+06
  -1.000965e+05  -3.990689e+06
   3.117993e+06  -3.755804e+06
   4.042429e+06  -2.042990e+06
   2.576380e+06   4.042755e+05
   2.765432e+05   2.163400e+06
  -1.062169e+06   1.878906e+06
  -5.493557e+05  -3.149146e+04
   1.055888e+06  -1.267249e+06
   1.854921e+06  -3.769343e+05
   8.949814e+05   1.178193e+06
  -5.010624e+05   1.077429e+06
  -3.997806e+05  -3.798531e+05
   1.052797e+06  -6.448245e+05
   1.780565e+06   1.303954e+06
   5.560391e+05   3.401722e+06
  -1.613177e+06   3.258932e+06
  -3.055428e+06   9.984043e+05
  -3.159159e+06  -1.447769e+06
  -2.149441e+06  -2.673025e+06
  -4.142789e+05  -2.510024e+06
   1.203616e+06  -1.409210e+06
   1.526383e+06  -2.174069e+05
   4.774423e+05   4.760399e+04
  -3.416247e+05  -7.328476e+05
   4.183273e+05  -1.304532e+06
   1.868676e+06  -5.469900e+05
   1.972139e+06   8.896840e+05
   3.552589e+05   1.387269e+06
  -1.145649e+06   5.411066e+05
  -8.485865e+05  -4.495391e+05
   8.341640e+05  -4.788913e+05
   2.095019e+06   3.489139e+05
   1.652731e+06   1.326970e+06
  -2.692506e+05   1.888796e+06
  -2.247721e+06   1.571973e+06
  -2.690217e+06   2.398210e+05
  -1.172815e+06  -1.245273e+06
   9.106624e+05  -1.462793e+06
   1.530692e+06  -1.738588e+05
   1.938667e+05   1.059833e+06
  -1.482620e+06   7.070913e+05
  -1.661341e+06  -7.801947e+05
  -3.004942e+05  -1.608480e+06
   1.079200e+06  -9.245206e+05
   1.212930e+06   3.309486e+05
   2.182308e+05   7.663449e+05
  -7.834634e+05   4.316569e+04
  -7.121404e+05  -1.032896e+06
   5.666213e+05  -1.384162e+06
   1.955361e+06  -5.191543e+05
   1.975082e+06   1.033181e+06
   3.577261e+05   2.022793e+06
  -1.418681e+06   1.585838e+06
  -1.681870e+06   1.840959e+05
  -4.742103e+05  -8.516186e+05
   6.502771e+05  -7.711063e+05
   6.077807e+05  -7.096219e+04
  -1.240194e+05   3.331282e+05
  -4.648984e+05   1.838766e+05
  -9.348942e+04  -5.743846e+04
   4.454731e+05   1.019816e+05
   4.876161e+05   6.743698e+05
  -2.239077e+05   1.153396e+06
  -1.354988e+06   8.548010e+05
  -2.019769e+06  -4.211804e+05
  -1.410069e+06  -1.901063e+06
   2.276906e+05  -2.346949e+06
   1.575884e+06  -1.347619e+06
   1.626292e+06   1.437031e+05
   8.082994e+05   8.634670e+05
   3.003643e+05   6.066054e+05
   4.783146e+05   2.008590e+05
   6.234369e+05   3.174473e+05
   8.375617e+04   7.547736e+05
  -8.634000e+05   8.640030e+05
  -1.403999e+06   2.944322e+05
  -1.000131e+06  -7.045686e+05
   2.614898e+05  -1.398770e+06
   1.677215e+06  -1.016961e+06
   2.172340e+06   4.891098e+05
   1.075185e+06   2.050164e+06
  -1.013261e+06   2.289239e+06
  -2.486774e+06   9.704065e+05
  -2.268703e+06  -6.733972e+05
  -8.957897e+05  -1.305670e+06
   2.172238e+05  -8.966361e+05
   3.666389e+05  -4.767043e+05
   5.753413e+04  -7.357479e+05
   9.936754e+04  -1.284719e+06
   6.655329e+05  -1.257418e+06
   1.266707e+06  -3.034385e+05
   1.295762e+06   1.056865e+06
   5.303502e+05   1.842742e+06
  -6.110987e+05   1.391812e+06
  -1.246389e+06  -1.413625e+04
  -7.744089e+05  -1.259003e+06
   4.014379e+05  -1.352769e+06
   1.144367e+06  -3.693834e+05
   7.818445e+05   7.054056e+05
  -1.441156e+05   1.054313e+06
  -5.458730e+05   7.507376e+05
  -9.272974e+04   3.943876e+05
   4.230136e+05   3.246576e+05
   5.854450e+04   3.709762e+05
  -1.123640e+06   1.928452e+05
  -2.010838e+06  -3.416740e+05
  -1.563048e+06  -1.024650e+06
   6.012240e+04  -1.401649e+06
   1.566554e+06  -1.100083e+06
   1.785097e+06  -2.473231e+05
   7.996058e+05   5.024657e+05
  -2.650428e+05   5.584012e+05
  -5.010989e+05   2.166149e+04
  -3.178284e+04  -4.205346e+05
   4.258538e+05  -2.526241e+05
   4.683380e+05   3.344200e+05
   2.574065e+05   7.007401e+05
   1.046507e+05   4.662439e+05
   1.312519e+05  -8.131774e+04
   2.603406e+05  -2.709022e+05
   2.631393e+05   2.285906e+05
  -1.344827e+05   9.528327e+05
  -8.798140e+05   1.033737e+06
  -1.342814e+06   1.723292e+05
  -8.419529e+05  -8.932813e+05
   4.097007e+05  -1.119760e+06
   1.235528e+06  -3.369904e+05
   7.134260e+05   5.546145e+05
  -6.893840e+05   6.222999e+05
  -1.533544e+06  -1.109904e+05
  -9.484125e+05  -8.467071e+05
   4.916854e+05  -9.416532e+05
   1.451172e+06  -4.314659e+05
   1.178750e+06   2.045428e+05
   1.182458e+05   4.949175e+05
  -6.338473e+05   2.486917e+05
  -3.775996e+05  -2.940880e+05
   5.618707e+05  -5.160053e+05
   1.152914e+06   6.680750e+04
   6.694247e+05   1.143067e+06
  -5.541858e+05   1.664218e+06
  -1.433797e+06   8.744727e+05
  -1.221433e+06  -7.296762e+05
  -1.973464e+05  -1.736273e+06
   7.208228e+05  -1.243649e+06
   8.928287e+05   1.881069e+05
   3.998025e+05   1.159683e+06
  -2.353920e+05   9.274128e+05
  -5.515990e+05   7.080602e+04
  -4.367367e+05  -3.631728e+05
  -1.418583e+05  -1.271100e+05
  -5.364874e+04   8.659260e+04
  -2.949769e+05  -3.012922e+05
  -5.019724e+05  -9.455014e+05
  -1.619490e+05  -1.042185e+06
   7.191461e+05  -3.760862e+05
   1.427994e+06   4.533145e+05
   1.220884e+06   8.134160e+05
   1.755603e+05   6.830999e+05
  -8.106082e+05   4.101677e+05
  -9.485093e+05   1.691367e+05
  -3.658411e+05  -6.473904e+04
   1.339695e+05  -2.219086e+05
   5.725468e+04  -1.857781e+05
  -2.332484e+05  -7.597483e+04
  -5.960032e+04  -1.285780e+05
   6.159043e+05  -2.429888e+05
   1.022176e+06   4.682071e+02
   4.617348e+05   6.795065e+05
  -7.906148e+05   1.166898e+06
  -1.670903e+06   7.608433e+05
  -1.409948e+06  -4.010144e+05
  -2.849401e+05  -1.363273e+06
   7.488041e+05  -1.350763e+06
   1.021115e+06  -5.476409e+05
   6.361451e+05   2.069817e+05
   1.441557e+05   3.495937e+05
  -4.489829e+04   8.354309e+04
   8.674484e+04   3.236376e+03
   2.801912e+05   3.643597e+05
   2.327893e+05   7.850413e+05
  -1.653045e+05   6.689295e+05
  -6.595859e+05  -9.318245e+04
  -7.448575e+05  -9.028739e+05
  -1.526505e+05  -1.008938e+06
   7.152023e+05  -2.769366e+05
   1.024755e+06   6.671780e+05
   3.673941e+05   1.061048e+06
  -6.855528e+05   6.879163e+05
  -1.105164e+06  -5.606702e+04
  -5.381649e+05  -6.136689e+05
   2.779417e+05  -6.897332e+05
   3.915354e+05  -3.660911e+05
  -2.144529e+05   5.415907e+03
  -6.252614e+05   4.843418e+04
  -1.544412e+05  -3.047136e+05
   7.984243e+05  -6.635445e+05
   1.244513e+06  -5.132786e+05
   7.699552e+05   1.903729e+05
  -8.496772e+04   8.586162e+05
  -5.558970e+05   8.481787e+05
  -4.423774e+05   1.798661e+05
  -7.227987e+04  -4.554327e+05
   2.245645e+05  -4.419505e+05
   3.442149e+05   1.145165e+05
   2.570816e+05   5.591539e+05
  -4.168240e+04   4.405782e+05
  -3.830692e+05  -2.835406e+04
  -4.739360e+05  -2.873522e+05
  -2.364206e+05  -1.078194e+05
   4.682200e+04   1.669972e+05
   7.897176e+04   8.359326e+04
  -5.247325e+04  -3.294741e+05
  -7.088154e+03  -5.681721e+05
   2.945172e+05  -2.652549e+05
   4.873901e+05   3.349893e+05
   2.071789e+05   6.277329e+05
  -3.813383e+05   3.250450e+05
  -6.694128e+05  -2.478056e+05
  -2.683641e+05  -5.457036e+05
   4.986113e+05  -3.654593e+05
   8.776128e+05   5.201642e+04
   4.793126e+05   3.621579e+05
  -2.826535e+05   4.139330e+05
  -6.287540e+05   2.545807e+05
  -2.656186e+05   2.408135e+04
   3.074090e+05  -9.471104e+04
   3.876725e+05   2.548382e+04
  -1.342901e+05   2.686347e+05
  -6.799166e+05   2.770720e+05
