
 $NMID
 id='ANONYMOUS ', fmtdat='(2E16.6)'
 volume=1.0
 tramp=1.0
 $END
   3.947868e+07  -1.829271e+06
   2.602086e+07   2.168224e+07
  -2.287625e+06   2.672579e+07
  -1.851429e+07   1.325507e+07
  -1.301562e+07  -2.496641e+06
   1.047724e+06  -7.009874e+06
   7.532712e+06  -7.852828e+05
   3.581368e+06   6.830893e+06
  -3.505753e+06   8.256084e+06
  -7.101637e+06   2.770765e+06
  -5.546493e+06  -4.451717e+06
  -8.059326e+05  -6.740945e+06
   3.029749e+06  -1.940099e+06
   2.245127e+06   4.766987e+06
  -2.519081e+06   5.845896e+06
  -6.018109e+06  -2.072027e+05
  -3.994365e+06  -7.316368e+06
   2.082899e+06  -8.956467e+06
   7.081790e+06  -4.626331e+06
   7.646134e+06   1.362227e+06
   4.443427e+06   5.060278e+06
   5.268202e+05   5.454806e+06
  -1.160283e+06   3.850478e+06
   4.489050e+04   2.519098e+06
   1.510427e+06   2.937476e+06
  -2.766930e+05   4.063450e+06
  -5.025673e+06   3.261320e+06
  -7.911932e+06  -1.354751e+05
  -5.259445e+06  -3.403657e+06
   4.568814e+05  -3.671816e+06
   3.489540e+06  -1.357892e+06
   1.735038e+06   8.608823e+05
  -1.643396e+06   1.278742e+06
  -2.974431e+06  -3.612194e+03
  -1.822239e+06  -2.128183e+06
   1.637387e+05  -3.604648e+06
   1.601800e+06  -2.631054e+06
   1.767210e+06   5.287717e+05
   6.419028e+05   2.477542e+06
  -4.199698e+05   5.944535e+05
   2.854862e+05  -2.604270e+06
   2.138692e+06  -2.149600e+06
   2.174902e+06   2.154875e+06
  -9.394110e+05   4.636301e+06
  -4.290051e+06   1.311914e+06
  -3.803073e+06  -4.416561e+06
   7.296950e+05  -6.042139e+06
   5.245320e+06  -2.009134e+06
   5.765102e+06   3.176257e+06
   2.055918e+06   4.855391e+06
  -2.680510e+06   2.633030e+06
  -4.681799e+06  -7.710871e+05
  -2.550343e+06  -2.657070e+06
   1.510325e+06  -1.976092e+06
   3.520980e+06   3.116680e+05
   1.776610e+06   1.862174e+06
  -1.172424e+06   1.125663e+06
  -1.621872e+06  -7.363052e+05
   6.105581e+05  -1.155614e+06
   2.115376e+06   5.079504e+05
   4.938099e+05   2.184496e+06
  -2.655753e+06   1.854868e+06
  -3.960841e+06  -2.617760e+05
  -2.107558e+06  -2.643340e+06
   1.414066e+06  -4.096749e+06
   4.280576e+06  -3.782581e+06
   4.988206e+06  -1.190349e+06
   3.360370e+06   2.627827e+06
   6.471062e+05   4.952328e+06
  -1.183006e+06   4.095057e+06
  -1.222736e+06   1.609558e+06
  -5.724455e+05   3.695393e+05
  -8.363627e+05   8.718685e+05
  -1.983818e+06   1.020700e+06
  -2.501784e+06  -4.884363e+05
  -1.451850e+06  -2.238801e+06
   4.640546e+05  -2.104839e+06
   1.803387e+06   8.114346e+03
   1.599930e+06   2.210934e+06
  -1.738539e+05   2.704591e+06
  -2.476793e+06   1.185612e+06
  -3.547301e+06  -1.250664e+06
  -2.357027e+06  -2.995651e+06
   5.283744e+04  -3.083499e+06
   1.550120e+06  -1.980371e+06
   1.499327e+06  -1.024513e+06
   1.426643e+06  -8.342472e+05
   2.596804e+06  -6.402730e+05
   3.904760e+06   5.249588e+05
   3.185227e+06   2.418299e+06
   1.519598e+05   3.766521e+06
  -3.000372e+06   3.536354e+06
  -3.917835e+06   1.732854e+06
  -2.325048e+06  -6.407697e+05
   5.110989e+04  -2.080393e+06
   1.206040e+06  -1.603822e+06
   4.708279e+05   1.240153e+05
  -1.074627e+06   1.135309e+06
  -1.676956e+06   3.359904e+05
  -7.197840e+05  -1.039373e+06
   5.691905e+05  -1.013485e+06
   5.605151e+05   3.591004e+05
  -7.714785e+05   9.399512e+05
  -1.801678e+06  -5.953565e+05
  -1.170148e+06  -2.886882e+06
   8.201916e+05  -3.506031e+06
   2.753611e+06  -1.722594e+06
   3.424966e+06   9.889312e+05
   2.484992e+06   2.702101e+06
   4.969785e+05   2.635661e+06
  -1.235587e+06   1.359863e+06
  -1.503492e+06   1.343366e+05
  -4.566566e+05  -4.590301e+04
   3.366881e+05   6.919841e+05
  -3.112535e+05   1.183404e+06
  -1.638023e+06   5.444565e+05
  -1.839856e+06  -7.005887e+05
  -4.295765e+05  -1.232926e+06
   1.060634e+06  -5.689545e+05
   9.203933e+05   4.280185e+05
  -7.475382e+05   6.516845e+05
  -2.191212e+06  -1.308734e+05
  -1.858882e+06  -1.303484e+06
   1.422488e+05  -2.015004e+06
   2.196207e+06  -1.653583e+06
   2.609096e+06  -2.803924e+05
   1.123144e+06   1.117040e+06
  -7.951859e+05   1.304071e+06
  -1.331888e+06   1.686665e+05
  -1.355873e+05  -9.310045e+05
   1.380373e+06  -6.610360e+05
   1.611119e+06   6.781453e+05
   4.101234e+05   1.540437e+06
  -9.521448e+05   1.020397e+06
  -1.219965e+06  -1.754904e+05
  -3.253728e+05  -7.027891e+05
   6.830275e+05  -8.026216e+04
   6.572565e+05   9.563531e+05
  -5.611137e+05   1.294610e+06
  -1.865699e+06   4.579110e+05
  -1.860906e+06  -9.955618e+05
  -3.509760e+05  -1.908459e+06
   1.302485e+06  -1.525448e+06
   1.594304e+06  -2.325463e+05
   5.094814e+05   7.942517e+05
  -5.963759e+05   7.757336e+05
  -6.449393e+05   5.282427e+04
   8.228642e+04  -4.463704e+05
   5.599601e+05  -2.828146e+05
   2.749211e+05   1.214018e+05
  -3.583874e+05   8.821141e+04
  -5.523033e+05  -5.184627e+05
   1.073106e+05  -1.098306e+06
   1.260060e+06  -8.577786e+05
   1.935563e+06   3.741884e+05
   1.350952e+06   1.803098e+06
  -2.168072e+05   2.274345e+06
  -1.537966e+06   1.383452e+06
  -1.662866e+06  -7.931403e+04
  -8.985700e+05  -9.329755e+05
  -2.956279e+05  -7.920221e+05
  -3.303294e+05  -2.972012e+05
  -4.801390e+05  -2.313789e+05
  -8.032489e+04  -6.361027e+05
   7.870453e+05  -8.635540e+05
   1.384038e+06  -3.537092e+05
   1.054046e+06   7.129452e+05
  -2.024362e+05   1.463346e+06
  -1.632462e+06   1.059442e+06
  -2.136268e+06  -4.470398e+05
  -1.108216e+06  -1.954402e+06
   8.632058e+05  -2.212212e+06
   2.321667e+06  -1.026667e+06
   2.251077e+06   5.390167e+05
   1.016565e+06   1.273009e+06
  -1.473362e+05   1.005089e+06
  -4.627617e+05   5.606846e+05
  -2.156428e+05   6.612569e+05
  -1.546832e+05   1.116311e+06
  -5.931602e+05   1.136844e+06
  -1.157996e+06   2.784869e+05
  -1.219038e+06  -1.018496e+06
  -4.972198e+05  -1.772899e+06
   6.000276e+05  -1.334994e+06
   1.212127e+06  -8.294188e+03
   7.852189e+05   1.163738e+06
  -3.008374e+05   1.306801e+06
  -1.023141e+06   4.698721e+05
  -7.684748e+05  -5.273170e+05
   1.953354e+04  -9.498776e+05
   3.979414e+05  -7.637744e+05
   4.580114e+04  -4.405719e+05
  -3.772850e+05  -3.351000e+05
  -3.871618e+04  -3.649835e+05
   1.037059e+06  -2.124685e+05
   1.873777e+06   2.859892e+05
   1.510040e+06   9.365104e+05
   3.492990e+04   1.300687e+06
  -1.404090e+06   1.049669e+06
  -1.690975e+06   3.050749e+05
  -8.181201e+05  -3.807569e+05
   2.021917e+05  -4.950125e+05
   4.608711e+05  -7.031910e+04
   1.022031e+04   3.341228e+05
  -4.396990e+05   2.168445e+05
  -4.362962e+05  -3.212445e+05
  -1.634797e+05  -6.808645e+05
  -2.508493e+04  -4.392198e+05
  -1.453995e+05   1.308295e+05
  -3.236866e+05   3.163814e+05
  -2.697704e+05  -2.135093e+05
   1.737010e+05  -9.350971e+05
   8.390112e+05  -9.784930e+05
   1.187434e+06  -1.295788e+05
   7.144982e+05   8.445007e+05
  -3.810374e+05   1.001121e+06
  -1.119379e+06   2.556069e+05
  -6.672750e+05  -5.575400e+05
   6.458670e+05  -6.181424e+05
   1.519724e+06   6.921673e+04
   1.023305e+06   8.144330e+05
  -4.079682e+05   9.882246e+05
  -1.441417e+06   5.242203e+05
  -1.219995e+06  -1.519909e+05
  -1.517417e+05  -5.042043e+05
   6.088891e+05  -2.798011e+05
   3.424089e+05   2.535384e+05
  -5.725185e+05   4.490453e+05
  -1.090495e+06  -1.269894e+05
  -5.606731e+05  -1.120527e+06
   6.223710e+05  -1.552615e+06
   1.417571e+06  -7.716991e+05
   1.163851e+06   7.417622e+05
   1.646039e+05   1.695615e+06
  -7.147580e+05   1.241436e+06
  -8.884098e+05  -1.394332e+05
  -4.356392e+05  -1.128728e+06
   1.729266e+05  -9.493085e+05
   5.201683e+05  -9.883114e+04
   4.684133e+05   3.758465e+05
   1.881322e+05   1.528008e+05
   3.481349e+04  -1.050447e+05
   2.126441e+05   2.395831e+05
   4.541510e+05   8.964896e+05
   2.149201e+05   1.036836e+06
  -6.250897e+05   3.880129e+05
  -1.391612e+06  -4.527522e+05
  -1.241087e+06  -8.088313e+05
  -1.761916e+05  -6.510649e+05
   8.419389e+05  -3.736617e+05
   9.450846e+05  -1.740181e+05
   3.139683e+05   2.267290e+04
  -1.519472e+05   2.033556e+05
   1.557759e+03   2.254604e+05
   2.866760e+05   1.276532e+05
   2.819634e+04   1.235704e+05
  -6.668424e+05   1.856147e+05
  -9.734589e+05  -3.246458e+04
  -3.371853e+05  -6.287794e+05
   8.355638e+05  -1.059590e+06
   1.564224e+06  -6.697308e+05
   1.259829e+06   4.279633e+05
   2.254276e+05   1.324962e+06
  -7.177749e+05   1.272407e+06
  -9.809877e+05   4.663171e+05
  -6.121469e+05  -2.495483e+05
  -1.042139e+05  -3.316817e+05
   9.565834e+04  -2.670834e+04
  -7.102286e+04   4.695009e+04
  -3.012867e+05  -3.410807e+05
  -2.407007e+05  -7.654176e+05
   1.804404e+05  -6.243769e+05
   6.377578e+05   1.492121e+05
   6.527781e+05   9.186037e+05
   5.716252e+04   9.512694e+05
  -7.204253e+05   1.816530e+05
  -9.409810e+05  -7.156457e+05
  -2.924737e+05  -1.015293e+06
   6.725852e+05  -5.991033e+05
   1.026308e+06   8.564989e+04
   4.791483e+05   5.473976e+05
  -2.625975e+05   6.002258e+05
  -3.264226e+05   3.426850e+05
   2.609526e+05   3.391953e+04
   6.163993e+05  -2.265320e+04
   1.250934e+05   2.802028e+05
  -7.818859e+05   6.332380e+05
  -1.165426e+06   5.280734e+05
  -6.882688e+05  -1.374841e+05
   9.739268e+04  -8.000920e+05
   4.929387e+05  -7.929607e+05
   3.606308e+05  -1.344081e+05
   2.447355e+04   4.576032e+05
  -2.288332e+05   3.864038e+05
  -3.213716e+05  -1.704377e+05
  -2.278827e+05  -5.431614e+05
   5.274420e+04  -3.712429e+05
   3.607574e+05   5.765816e+04
   4.395115e+05   2.442318e+05
   2.318189e+05   7.462877e+04
  -2.353880e+04  -1.139096e+05
  -9.161398e+04   5.240745e+03
  -3.767192e+04   3.369756e+05
  -9.790153e+04   4.655958e+05
  -3.020390e+05   1.440888e+05
  -3.771781e+05  -3.811474e+05
  -8.919030e+04  -5.964851e+05
   3.952297e+05  -2.722893e+05
   5.949767e+05   2.805219e+05
   2.144071e+05   5.462983e+05
  -4.690846e+05   3.364459e+05
  -8.054903e+05  -8.599286e+04
  -4.368256e+05  -3.562168e+05
   2.719867e+05  -3.513686e+05
   5.848156e+05  -1.846411e+05
   2.115275e+05  -1.770253e+04
  -3.479724e+05   2.832426e+04
  -3.828751e+05  -9.839133e+04
   1.912197e+05  -2.814521e+05
   7.392445e+05  -2.327497e+05
