
 $NMID
 id='ANONYMOUS ', fmtdat='(2E16.6)'
 volume=1.0
 tramp=1.0
 $END
  -5.108422e+07  -5.778726e+05
  -3.042919e+07  -3.153233e+07
   6.836401e+06  -3.427173e+07
   2.490447e+07  -1.337464e+07
   1.492478e+07   6.041552e+06
  -2.901859e+06   8.415107e+06
  -8.926867e+06  -8.918672e+05
  -2.695141e+06  -8.800366e+06
   5.485648e+06  -8.677929e+06
   8.766508e+06  -1.958294e+06
   6.388643e+06   5.741970e+06
   6.853866e+05   7.970030e+06
  -3.744636e+06   2.435215e+06
  -2.478622e+06  -5.179637e+06
   3.397412e+06  -6.152800e+06
   7.172490e+06   1.151362e+06
   4.062570e+06   9.301003e+06
  -3.450207e+06   1.073549e+07
  -9.225473e+06   5.286920e+06
  -9.785613e+06  -2.026545e+06
  -5.829300e+06  -6.895834e+06
  -4.299710e+05  -7.744836e+06
   2.613153e+06  -5.283303e+06
   1.395203e+06  -2.403428e+06
  -1.270365e+06  -2.191047e+06
  -1.892261e+05  -4.086703e+06
   5.231594e+06  -4.080590e+06
   9.097458e+06  -3.015279e+05
   6.462148e+06   3.968020e+06
   7.299939e+03   4.718071e+06
  -3.680363e+06   2.275605e+06
  -2.350747e+06  -2.188853e+05
   7.624377e+05  -1.101849e+06
   2.403984e+06  -4.743003e+05
   2.132354e+06   1.541620e+06
   5.014749e+05   3.818100e+06
  -1.782090e+06   3.480538e+06
  -2.871469e+06  -3.044454e+05
  -1.365684e+06  -3.383338e+06
   7.886013e+05  -1.569541e+06
   2.504811e+05   2.480997e+06
  -2.306664e+06   2.208740e+06
  -2.257586e+06  -2.891513e+06
   2.120749e+06  -5.545293e+06
   6.163214e+06  -8.800791e+05
   4.553657e+06   6.279370e+06
  -1.738766e+06   7.690221e+06
  -6.776968e+06   2.153674e+06
  -6.453329e+06  -4.087994e+06
  -1.802997e+06  -5.580163e+06
   3.198108e+06  -2.588002e+06
   4.948035e+06   1.324438e+06
   2.336995e+06   3.186565e+06
  -2.176773e+06   2.033797e+06
  -4.155230e+06  -8.240021e+05
  -1.801156e+06  -2.474321e+06
   1.577474e+06  -1.252895e+06
   1.653585e+06   9.380571e+05
  -1.112953e+06   8.986525e+05
  -2.243347e+06  -1.453624e+06
   4.439702e+05  -2.995185e+06
   4.068736e+06  -1.714362e+06
   4.784675e+06   1.152035e+06
   2.129964e+06   3.577462e+06
  -1.716004e+06   4.854594e+06
  -4.756243e+06   4.475319e+06
  -5.801300e+06   1.541668e+06
  -4.186209e+06  -3.022354e+06
  -8.080395e+05  -5.767240e+06
   1.682899e+06  -4.454206e+06
   1.550190e+06  -1.230818e+06
   1.810494e+05   7.963374e+04
   1.461077e+05  -1.019300e+06
   1.698485e+06  -1.648753e+06
   2.754747e+06  -8.711536e+04
   1.915063e+06   1.989146e+06
  -6.288555e+04   2.142671e+06
  -1.599937e+06   1.971337e+05
  -1.665659e+06  -2.053688e+06
   2.567718e+04  -2.841271e+06
   2.670458e+06  -1.520424e+06
   4.187522e+06   1.212321e+06
   2.927095e+06   3.548644e+06
  -1.000055e+05   3.878645e+06
  -2.100522e+06   2.447826e+06
  -2.013891e+06   1.040308e+06
  -1.677735e+06   6.829219e+05
  -2.780519e+06   5.079201e+05
  -4.143196e+06  -6.817804e+05
  -3.343294e+06  -2.618670e+06
  -1.452810e+05  -3.960090e+06
   3.083378e+06  -3.759322e+06
   4.045097e+06  -2.016568e+06
   2.559587e+06   4.640623e+05
   2.111785e+05   2.188113e+06
  -1.115767e+06   1.845969e+06
  -5.458783e+05  -6.240946e+04
   1.070050e+06  -1.261760e+06
   1.830471e+06  -3.735432e+05
   8.585954e+05   1.162558e+06
  -5.249985e+05   1.084121e+06
  -4.555033e+05  -3.635632e+05
   9.571398e+05  -7.232001e+05
   1.762751e+06   1.102102e+06
   7.206417e+05   3.236022e+06
  -1.360726e+06   3.303338e+06
  -2.927695e+06   1.207423e+06
  -3.228850e+06  -1.279158e+06
  -2.286018e+06  -2.648135e+06
  -4.802145e+05  -2.550850e+06
   1.207802e+06  -1.423156e+06
   1.536733e+06  -2.108884e+05
   4.751112e+05   4.515629e+04
  -3.505452e+05  -7.268296e+05
   3.888404e+05  -1.284226e+06
   1.822392e+06  -5.554377e+05
   1.953989e+06   8.399012e+05
   3.809830e+05   1.356466e+06
  -1.131142e+06   5.652574e+05
  -8.866756e+05  -4.328149e+05
   7.937171e+05  -5.378782e+05
   2.124730e+06   2.544340e+05
   1.738330e+06   1.292239e+06
  -2.023807e+05   1.932005e+06
  -2.227496e+06   1.630975e+06
  -2.686188e+06   2.763633e+05
  -1.172523e+06  -1.215852e+06
   8.877285e+05  -1.436081e+06
   1.493149e+06  -1.726536e+05
   1.817216e+05   1.042233e+06
  -1.467235e+06   7.122096e+05
  -1.665804e+06  -7.465105e+05
  -3.442348e+05  -1.595514e+06
   1.040709e+06  -9.617717e+05
   1.221200e+06   2.805589e+05
   2.536823e+05   7.513473e+05
  -7.639168e+05   6.106913e+04
  -7.169091e+05  -1.015364e+06
   5.550101e+05  -1.382042e+06
   1.945796e+06  -5.285393e+05
   1.972550e+06   1.015534e+06
   3.743614e+05   2.006834e+06
  -1.387768e+06   1.590674e+06
  -1.668447e+06   2.076577e+05
  -4.917385e+05  -8.407105e+05
   6.362831e+05  -7.855014e+05
   6.286970e+05  -7.554234e+04
  -9.716576e+04   3.693780e+05
  -4.839156e+05   2.307772e+05
  -1.523591e+05  -5.646183e+04
   4.070568e+05   5.180461e+04
   5.031260e+05   6.226320e+05
  -1.821850e+05   1.138528e+06
  -1.326730e+06   8.721927e+05
  -2.014521e+06  -3.917124e+05
  -1.421845e+06  -1.876422e+06
   2.046604e+05  -2.348042e+06
   1.561021e+06  -1.383134e+06
   1.645341e+06   1.069913e+05
   8.515126e+05   8.734922e+05
   3.197571e+05   6.577324e+05
   4.503965e+05   2.324782e+05
   5.863746e+05   2.973629e+05
   8.432464e+04   7.239632e+05
  -8.354984e+05   8.726691e+05
  -1.396286e+06   3.299335e+05
  -1.029362e+06  -6.912449e+05
   2.231167e+05  -1.422657e+06
   1.658852e+06  -1.054359e+06
   2.181770e+06   4.556680e+05
   1.112276e+06   2.025133e+06
  -9.577804e+05   2.289843e+06
  -2.447239e+06   1.012241e+06
  -2.281633e+06  -6.175190e+05
  -9.491260e+05  -1.289382e+06
   1.816277e+05  -9.315033e+05
   3.838602e+05  -5.146709e+05
   9.783558e+04  -7.334192e+05
   1.129365e+05  -1.254333e+06
   6.457642e+05  -1.237353e+06
   1.245975e+06  -3.062552e+05
   1.295580e+06   1.045459e+06
   5.427783e+05   1.835642e+06
  -6.012341e+05   1.395070e+06
  -1.247271e+06   4.570243e+03
  -7.930391e+05  -1.233623e+06
   3.642725e+05  -1.349572e+06
   1.109538e+06  -4.058622e+05
   7.810682e+05   6.531956e+05
  -1.050808e+05   1.027391e+06
  -4.993834e+05   7.578214e+05
  -7.345761e+04   4.088863e+05
   4.169552e+05   3.272464e+05
   5.734688e+04   3.713300e+05
  -1.103531e+06   2.072559e+05
  -1.988020e+06  -3.129389e+05
  -1.567781e+06  -9.929430e+05
   2.299508e+04  -1.380558e+06
   1.524449e+06  -1.103858e+06
   1.768017e+06  -2.798695e+05
   8.102052e+05   4.626867e+05
  -2.469624e+05   5.439927e+05
  -4.900123e+05   3.872125e+04
  -2.465700e+04  -3.989759e+05
   4.321758e+05  -2.482417e+05
   4.646824e+05   3.304020e+05
   2.386841e+05   7.027427e+05
   8.620676e+04   4.660181e+05
   1.313144e+05  -9.773312e+04
   2.729715e+05  -2.939041e+05
   2.687288e+05   2.197090e+05
  -1.347447e+05   9.574104e+05
  -8.643836e+05   1.035004e+06
  -1.309366e+06   1.698425e+05
  -8.204639e+05  -8.836240e+05
   3.984605e+05  -1.098156e+06
   1.212955e+06  -3.237341e+05
   7.119248e+05   5.544839e+05
  -6.758650e+05   6.305653e+05
  -1.539866e+06  -8.419273e+04
  -9.840272e+05  -8.286436e+05
   4.583882e+05  -9.618398e+05
   1.449020e+06  -4.766971e+05
   1.198921e+06   1.751229e+05
   1.349112e+05   4.982481e+05
  -6.278157e+05   2.657038e+05
  -3.726107e+05  -2.829282e+05
   5.672900e+05  -5.090925e+05
   1.149447e+06   7.450427e+04
   6.559031e+05   1.144914e+06
  -5.661858e+05   1.656170e+06
  -1.437120e+06   8.668085e+05
  -1.223207e+06  -7.291394e+05
  -2.060562e+05  -1.738119e+06
   7.111199e+05  -1.260437e+06
   8.979408e+05   1.657696e+05
   4.249411e+05   1.153491e+06
  -2.070889e+05   9.408293e+05
  -5.445994e+05   8.470790e+04
  -4.547221e+05  -3.626743e+05
  -1.597684e+05  -1.313948e+05
  -4.709003e+04   9.209887e+04
  -2.740384e+05  -2.874433e+05
  -5.003674e+05  -9.367435e+05
  -1.895860e+05  -1.045024e+06
   6.935448e+05  -3.854119e+05
   1.434286e+06   4.433395e+05
   1.245257e+06   8.040488e+05
   1.829945e+05   6.770413e+05
  -8.234592e+05   4.134697e+05
  -9.529409e+05   1.823181e+05
  -3.520983e+05  -5.193885e+04
   1.392936e+05  -2.208257e+05
   3.698077e+04  -1.956159e+05
  -2.545205e+05  -8.515944e+04
  -5.303056e+04  -1.290294e+05
   6.356717e+05  -2.386327e+05
   1.018626e+06   5.386290e+02
   4.347357e+05   6.723265e+05
  -8.031705e+05   1.157114e+06
  -1.650678e+06   7.535194e+05
  -1.384106e+06  -4.046886e+05
  -2.832017e+05  -1.363284e+06
   7.347631e+05  -1.345861e+06
   1.015870e+06  -5.384795e+05
   6.394380e+05   2.144595e+05
   1.374480e+05   3.478394e+05
  -6.186767e+04   7.151734e+04
   8.004677e+04  -1.126607e+04
   2.915855e+05   3.561444e+05
   2.452287e+05   7.830946e+05
  -1.659682e+05   6.650491e+05
  -6.635233e+05  -1.035708e+05
  -7.359489e+05  -9.120145e+05
  -1.343477e+05  -1.004669e+06
   7.250780e+05  -2.599792e+05
   1.019143e+06   6.800572e+05
   3.580213e+05   1.056576e+06
  -6.845387e+05   6.748333e+05
  -1.093696e+06  -5.680350e+04
  -5.291509e+05  -5.965804e+05
   2.725252e+05  -6.721242e+05
   3.731571e+05  -3.637768e+05
  -2.313078e+05  -1.278230e+03
  -6.283913e+05   4.800595e+04
  -1.492158e+05  -2.998550e+05
   7.945979e+05  -6.682170e+05
   1.225592e+06  -5.312114e+05
   7.519344e+05   1.727916e+05
  -8.312117e+04   8.505178e+05
  -5.359892e+05   8.418723e+05
  -4.227794e+05   1.686430e+05
  -6.417832e+04  -4.614704e+05
   2.256261e+05  -4.321626e+05
   3.446182e+05   1.289776e+05
   2.560924e+05   5.578039e+05
  -4.410884e+04   4.252560e+05
  -3.817904e+05  -3.406429e+04
  -4.687817e+05  -2.740489e+05
  -2.363064e+05  -9.683974e+04
   3.956832e+04   1.538852e+05
   7.933723e+04   5.714996e+04
  -3.099242e+04  -3.387621e+05
   2.251203e+04  -5.489696e+05
   3.028510e+05  -2.360812e+05
   4.658014e+05   3.517504e+05
   1.800831e+05   6.279716e+05
  -3.876469e+05   3.174527e+05
  -6.579034e+05  -2.557756e+05
  -2.612091e+05  -5.501657e+05
   4.915721e+05  -3.640464e+05
   8.664829e+05   5.632991e+04
   4.747593e+05   3.604611e+05
  -2.808684e+05   4.019410e+05
  -6.224695e+05   2.409551e+05
  -2.522229e+05   2.214896e+04
   3.245459e+05  -8.205048e+04
   3.939411e+05   4.289895e+04
  -1.482619e+05   2.793486e+05
  -7.021602e+05   2.773415e+05
