
 $NMID
 id='ANONYMOUS ', fmtdat='(2E16.6)'
 volume=1.0
 tramp=1.0
 $END
   5.680991e+07  -1.315278e+06
   3.506250e+07   3.469475e+07
  -6.762114e+06   3.884331e+07
  -2.776506e+07   1.524870e+07
  -1.688155e+07  -7.019075e+06
   3.258532e+06  -9.565274e+06
   1.003754e+07   1.204535e+06
   2.891934e+06   9.935183e+06
  -6.263923e+06   9.476954e+06
  -9.769280e+06   2.088153e+06
  -7.116030e+06  -6.107903e+06
  -9.444810e+05  -8.576344e+06
   3.915219e+06  -2.836187e+06
   2.638773e+06   5.346571e+06
  -3.767553e+06   6.567631e+06
  -7.981369e+06  -1.264548e+06
  -4.629889e+06  -1.022114e+07
   3.619964e+06  -1.195146e+07
   1.004913e+07  -6.158351e+06
   1.091733e+07   1.782494e+06
   6.901584e+06   7.336875e+06
   1.001952e+06   8.738655e+06
  -2.803617e+06   6.308559e+06
  -2.001951e+06   2.854483e+06
   9.283710e+05   2.078803e+06
   2.843028e+05   4.019584e+06
  -5.202905e+06   4.403011e+06
  -9.523315e+06   6.817206e+05
  -7.102001e+06  -3.940534e+06
  -4.430788e+05  -4.994393e+06
   3.525758e+06  -2.630325e+06
   2.385838e+06  -1.705455e+05
  -5.343873e+05   7.583186e+05
  -2.101843e+06   4.320085e+05
  -2.088870e+06  -1.300100e+06
  -7.727030e+05  -3.772563e+06
   1.662243e+06  -3.890626e+06
   3.247134e+06  -8.829263e+04
   1.883083e+06   3.548022e+06
  -6.506892e+05   2.043431e+06
  -3.617929e+05  -2.314129e+06
   2.431103e+06  -2.284081e+06
   2.512614e+06   3.204753e+06
  -2.384383e+06   6.285600e+06
  -7.079168e+06   1.218889e+06
  -5.361162e+06  -6.887030e+06
   1.755403e+06  -8.684408e+06
   7.429456e+06  -2.595663e+06
   7.014917e+06   4.383599e+06
   1.872800e+06   6.044395e+06
  -3.485562e+06   2.722994e+06
  -5.272223e+06  -1.538874e+06
  -2.428045e+06  -3.522963e+06
   2.438823e+06  -2.255052e+06
   4.583073e+06   8.788074e+05
   2.000526e+06   2.735141e+06
  -1.712384e+06   1.412101e+06
  -1.738762e+06  -1.032319e+06
   1.392747e+06  -9.512253e+05
   2.588578e+06   1.803746e+06
  -5.801542e+05   3.602767e+06
  -4.710311e+06   2.059651e+06
  -5.422280e+06  -1.308322e+06
  -2.409919e+06  -4.002277e+06
   1.704456e+06  -5.286035e+06
   4.880253e+06  -4.878965e+06
   6.117542e+06  -1.851080e+06
   4.630522e+06   3.030712e+06
   1.044724e+06   6.123292e+06
  -1.842512e+06   4.795702e+06
  -1.831001e+06   1.211765e+06
  -1.967253e+05  -3.506320e+05
   1.091436e+05   8.692679e+05
  -1.463015e+06   1.767444e+06
  -2.706041e+06   3.162691e+05
  -1.993890e+06  -1.816506e+06
  -5.855757e+04  -2.056080e+06
   1.482664e+06  -1.818360e+05
   1.627366e+06   2.032325e+06
   2.498215e+04   2.884856e+06
  -2.700117e+06   1.680935e+06
  -4.455531e+06  -1.087650e+06
  -3.299978e+06  -3.679015e+06
  -6.848415e+04  -4.247833e+06
   2.231825e+06  -2.801230e+06
   2.252565e+06  -1.196735e+06
   1.861610e+06  -6.914833e+05
   2.948832e+06  -4.740308e+05
   4.341854e+06   7.543039e+05
   3.477182e+06   2.749385e+06
   1.335329e+05   4.102769e+06
  -3.168260e+06   3.874044e+06
  -4.107763e+06   2.122153e+06
  -2.619740e+06  -3.755701e+05
  -3.039899e+05  -2.180626e+06
   1.050379e+06  -1.917106e+06
   5.541229e+05   2.005479e+04
  -1.064709e+06   1.301569e+06
  -1.900583e+06   4.111196e+05
  -9.398129e+05  -1.189150e+06
   5.030922e+05  -1.098739e+06
   4.091617e+05   4.085293e+05
  -1.120203e+06   6.891912e+05
  -1.911203e+06  -1.353476e+06
  -6.216943e+05  -3.572006e+06
   1.697408e+06  -3.432105e+06
   3.224506e+06  -1.046831e+06
   3.289346e+06   1.522399e+06
   2.196077e+06   2.776909e+06
   4.112688e+05   2.579786e+06
  -1.225488e+06   1.443779e+06
  -1.555296e+06   2.296196e+05
  -4.902533e+05  -4.573243e+04
   3.562436e+05   7.512681e+05
  -4.151919e+05   1.353648e+06
  -1.920234e+06   5.908817e+05
  -2.048797e+06  -8.981501e+05
  -3.827763e+05  -1.434315e+06
   1.179173e+06  -5.658434e+05
   8.715636e+05   4.687827e+05
  -8.771448e+05   4.984304e+05
  -2.172128e+06  -3.713834e+05
  -1.694292e+06  -1.383321e+06
   2.914572e+05  -1.949061e+06
   2.313285e+06  -1.618980e+06
   2.764584e+06  -2.582416e+05
   1.220562e+06   1.272232e+06
  -9.154908e+05   1.518446e+06
  -1.573162e+06   2.041132e+05
  -2.169068e+05  -1.082429e+06
   1.516027e+06  -7.402305e+05
   1.717709e+06   7.940512e+05
   3.158203e+05   1.663365e+06
  -1.119600e+06   9.622539e+05
  -1.262395e+06  -3.421229e+05
  -2.298754e+05  -7.996713e+05
   8.099576e+05  -5.644957e+04
   7.419526e+05   1.053250e+06
  -5.684917e+05   1.422647e+06
  -1.998838e+06   5.470468e+05
  -2.033525e+06  -1.043871e+06
  -3.832849e+05  -2.075273e+06
   1.447893e+06  -1.643074e+06
   1.731933e+06  -2.003159e+05
   4.933615e+05   8.780514e+05
  -6.674766e+05   7.978029e+05
  -6.200402e+05   6.958289e+04
   1.411282e+05  -3.440603e+05
   4.859489e+05  -1.755573e+05
   8.410225e+04   7.885510e+04
  -4.815122e+05  -9.801258e+04
  -5.178924e+05  -7.020573e+05
   2.241456e+05  -1.197984e+06
   1.390605e+06  -8.894657e+05
   2.078913e+06   4.201349e+05
   1.461313e+06   1.942406e+06
  -2.218674e+05   2.409533e+06
  -1.619022e+06   1.387483e+06
  -1.674388e+06  -1.509865e+05
  -8.195037e+05  -8.933250e+05
  -2.867943e+05  -6.166502e+05
  -4.826308e+05  -1.854197e+05
  -6.531892e+05  -3.095486e+05
  -1.011020e+05  -7.760592e+05
   8.857491e+05  -8.960849e+05
   1.446563e+06  -3.047718e+05
   1.024082e+06   7.272175e+05
  -2.752532e+05   1.439971e+06
  -1.724283e+06   1.049266e+06
  -2.233721e+06  -4.951900e+05
  -1.115773e+06  -2.106651e+06
   1.030056e+06  -2.368111e+06
   2.558818e+06  -1.016657e+06
   2.343349e+06   6.883550e+05
   9.212782e+05   1.352586e+06
  -2.360325e+05   9.253875e+05
  -3.830205e+05   4.758466e+05
  -4.544564e+04   7.373161e+05
  -7.879818e+04   1.314637e+06
  -6.679664e+05   1.301508e+06
  -1.297852e+06   3.263494e+05
  -1.336286e+06  -1.073561e+06
  -5.553393e+05  -1.886255e+06
   6.181396e+05  -1.430447e+06
   1.281368e+06   9.238202e+03
   8.067810e+05   1.293258e+06
  -4.066039e+05   1.400540e+06
  -1.187559e+06   3.923757e+05
  -8.240733e+05  -7.247041e+05
   1.367776e+05  -1.098404e+06
   5.636274e+05  -7.877628e+05
   1.011284e+05  -4.089978e+05
  -4.339506e+05  -3.265954e+05
  -6.169693e+04  -3.780398e+05
   1.156104e+06  -2.090944e+05
   2.071905e+06   3.325423e+05
   1.615653e+06   1.044143e+06
  -4.991234e+04   1.450805e+06
  -1.602400e+06   1.150523e+06
  -1.838926e+06   2.658645e+05
  -8.345594e+05  -5.191035e+05
   2.648886e+05  -5.818217e+05
   5.204546e+05  -2.655035e+04
   4.394136e+04   4.305449e+05
  -4.316902e+05   2.587542e+05
  -4.829297e+05  -3.387272e+05
  -2.693968e+05  -7.073661e+05
  -1.129867e+05  -4.690311e+05
  -1.400238e+05   8.071321e+04
  -2.704913e+05   2.695022e+05
  -2.717333e+05  -2.351355e+05
   1.335627e+05  -9.728140e+05
   8.949929e+05  -1.067184e+06
   1.375004e+06  -1.980084e+05
   8.731974e+05   9.006507e+05
  -4.050631e+05   1.154766e+06
  -1.259280e+06   3.628969e+05
  -7.329190e+05  -5.620954e+05
   7.064718e+05  -6.442321e+05
   1.577731e+06   1.110427e+05
   9.756248e+05   8.764807e+05
  -5.103197e+05   9.749970e+05
  -1.498521e+06   4.433431e+05
  -1.214109e+06  -2.142421e+05
  -1.200220e+05  -5.110355e+05
   6.538089e+05  -2.580890e+05
   3.931874e+05   2.977523e+05
  -5.671412e+05   5.300888e+05
  -1.176410e+06  -5.810076e+04
  -6.930911e+05  -1.158607e+06
   5.510610e+05  -1.701477e+06
   1.456972e+06  -9.028179e+05
   1.253172e+06   7.393207e+05
   2.102816e+05   1.776912e+06
  -7.372268e+05   1.276817e+06
  -9.215391e+05  -1.922498e+05
  -4.143332e+05  -1.193424e+06
   2.441328e+05  -9.580969e+05
   5.695025e+05  -7.644104e+04
   4.460213e+05   3.752337e+05
   1.414860e+05   1.350459e+05
   5.752258e+04  -9.067028e+04
   3.120953e+05   3.001248e+05
   5.228820e+05   9.641485e+05
   1.668638e+05   1.074733e+06
  -7.404044e+05   3.974910e+05
  -1.465595e+06  -4.585138e+05
  -1.252909e+06  -8.348262e+05
  -1.847214e+05  -7.009349e+05
   8.254583e+05  -4.187389e+05
   9.729039e+05  -1.749893e+05
   3.813819e+05   6.067353e+04
  -1.344298e+05   2.259850e+05
  -6.454018e+04   1.966358e+05
   2.318518e+05   8.274340e+04
   6.260639e+04   1.281181e+05
  -6.231201e+05   2.452228e+05
  -1.045318e+06   7.450519e+03
  -4.832465e+05  -6.823855e+05
   7.951867e+05  -1.194580e+06
   1.703703e+06  -7.971450e+05
   1.446375e+06   3.907308e+05
   2.999256e+05   1.391126e+06
  -7.572748e+05   1.391412e+06
  -1.037409e+06   5.695232e+05
  -6.479821e+05  -2.075022e+05
  -1.513319e+05  -3.538856e+05
   3.797320e+04  -8.098391e+04
  -9.528229e+04  -2.489283e+03
  -2.900492e+05  -3.762358e+05
  -2.418916e+05  -8.059564e+05
   1.629157e+05  -6.852847e+05
   6.702092e+05   9.074394e+04
   7.651588e+05   9.133439e+05
   1.669529e+05   1.024183e+06
  -7.214269e+05   2.864848e+05
  -1.047714e+06  -6.715465e+05
  -3.852965e+05  -1.079491e+06
   6.916613e+05  -7.098237e+05
   1.131462e+06   4.590761e+04
   5.618535e+05   6.229452e+05
  -2.737195e+05   7.114342e+05
  -3.996483e+05   3.841712e+05
   2.141011e+05  -1.211748e+03
   6.381252e+05  -5.215674e+04
   1.623539e+05   3.092733e+05
  -8.144705e+05   6.840615e+05
  -1.278853e+06   5.370111e+05
  -7.978560e+05  -1.856334e+05
   7.869322e+04  -8.802986e+05
   5.636721e+05  -8.791377e+05
   4.497857e+05  -1.957986e+05
   7.556950e+04   4.610958e+05
  -2.229235e+05   4.541961e+05
  -3.469327e+05  -1.129289e+05
  -2.669143e+05  -5.698240e+05
   3.362346e+04  -4.520519e+05
   3.898116e+05   2.521595e+04
   4.922326e+05   2.908675e+05
   2.465996e+05   1.104435e+05
  -5.509437e+04  -1.696075e+05
  -9.137008e+04  -8.915949e+04
   5.543709e+04   3.268155e+05
   2.268443e+04   5.723838e+05
  -2.869916e+05   2.742620e+05
  -4.972086e+05  -3.285965e+05
  -2.197148e+05  -6.299793e+05
   3.839264e+05  -3.333388e+05
   6.844850e+05   2.435355e+05
   2.770608e+05   5.526851e+05
  -5.079399e+05   3.795562e+05
  -8.974769e+05  -4.276407e+04
  -4.936038e+05  -3.657349e+05
   2.820284e+05  -4.274924e+05
   6.369808e+05  -2.687160e+05
   2.727885e+05  -3.163927e+04
  -3.062021e+05   9.422485e+04
  -3.889287e+05  -2.334517e+04
   1.375292e+05  -2.685266e+05
   6.900680e+05  -2.789513e+05
