
 $NMID
 id='ANONYMOUS ', fmtdat='(2E16.6)'
 volume=1.0
 tramp=1.0
 $END
  -2.968111e+07  -1.356948e+06
  -1.787375e+07  -1.771253e+07
   3.482610e+06  -1.964141e+07
   1.457422e+07  -8.826208e+06
   9.515300e+06   2.523165e+06
  -1.175405e+06   5.293522e+06
  -5.731662e+06   4.106309e+05
  -2.487161e+06  -5.273259e+06
   2.929807e+06  -6.203362e+06
   5.507251e+06  -1.805549e+06
   4.010268e+06   3.825834e+06
   1.719054e+05   5.358248e+06
  -2.614528e+06   1.309394e+06
  -1.648537e+06  -3.898034e+06
   2.115006e+06  -4.417377e+06
   4.481316e+06   4.602238e+05
   2.534583e+06   5.721700e+06
  -2.175565e+06   6.518778e+06
  -5.663868e+06   2.865176e+06
  -5.619309e+06  -1.711085e+06
  -2.840998e+06  -4.219984e+06
   1.722920e+05  -4.095193e+06
   1.202063e+06  -2.631427e+06
  -1.125776e+04  -1.728340e+06
  -1.185488e+06  -2.317853e+06
   3.615063e+05  -3.223310e+06
   4.131683e+06  -2.337259e+06
   6.230006e+06   5.417273e+05
   3.929744e+06   3.036469e+06
  -6.514414e+05   2.996113e+06
  -2.982883e+06   9.670980e+05
  -1.462398e+06  -8.606744e+05
   1.360873e+06  -1.132945e+06
   2.455294e+06   6.139873e+04
   1.363703e+06   1.888465e+06
  -4.461571e+05   2.945389e+06
  -1.546234e+06   1.871703e+06
  -1.342581e+06  -7.467913e+05
  -2.250994e+05  -2.057963e+06
   4.690769e+05  -3.240436e+05
  -3.291110e+05   2.125383e+06
  -1.739015e+06   1.558806e+06
  -1.534130e+06  -1.756053e+06
   8.953753e+05  -3.386439e+06
   3.179767e+06  -6.707208e+05
   2.538374e+06   3.511835e+06
  -8.693526e+05   4.404477e+06
  -4.036916e+06   1.182936e+06
  -4.224427e+06  -2.662540e+06
  -1.369660e+06  -3.766228e+06
   2.162318e+06  -1.934588e+06
   3.576521e+06   7.508207e+05
   1.851375e+06   2.172673e+06
  -1.259762e+06   1.496355e+06
  -2.700689e+06  -4.030497e+05
  -1.277120e+06  -1.559761e+06
   9.653772e+05  -8.442904e+05
   1.255181e+06   6.456217e+05
  -4.404773e+05   9.014513e+05
  -1.543562e+06  -3.973022e+05
  -3.259565e+05  -1.570232e+06
   1.986031e+06  -1.196724e+06
   2.893049e+06   4.023747e+05
   1.405999e+06   2.071221e+06
  -1.359379e+06   3.000330e+06
  -3.551518e+06   2.615465e+06
  -3.913096e+06   5.712339e+05
  -2.386531e+06  -2.277161e+06
  -1.680584e+05  -3.876315e+06
   1.132013e+06  -3.073475e+06
   9.869633e+05  -1.164421e+06
   4.438585e+05  -2.923016e+05
   7.240532e+05  -7.017110e+05
   1.655405e+06  -7.430261e+05
   2.003556e+06   5.128384e+05
   1.094523e+06   1.894952e+06
  -4.595603e+05   1.735049e+06
  -1.493992e+06  -1.892163e+04
  -1.241062e+06  -1.819056e+06
   2.519134e+05  -2.158460e+06
   2.034893e+06  -8.052021e+05
   2.695825e+06   1.213032e+06
   1.590323e+06   2.485631e+06
  -2.929612e+05   2.333938e+06
  -1.319274e+06   1.341240e+06
  -1.163541e+06   6.331836e+05
  -1.086439e+06   5.608645e+05
  -1.993231e+06   3.990719e+05
  -2.961766e+06  -5.573936e+05
  -2.348018e+06  -2.000000e+06
   2.714640e+04  -2.925758e+06
   2.472320e+06  -2.624999e+06
   3.157441e+06  -1.178190e+06
   1.831358e+06   6.316225e+05
  -1.348423e+05   1.673082e+06
  -1.069448e+06   1.232811e+06
  -4.097285e+05  -1.273538e+05
   8.909401e+05  -8.752927e+05
   1.350510e+06  -2.095519e+05
   5.281070e+05   8.674277e+05
  -5.076232e+05   8.283047e+05
  -4.793589e+05  -2.578600e+05
   5.531034e+05  -7.321627e+05
   1.312266e+06   4.258759e+05
   8.149710e+05   2.180828e+06
  -6.728065e+05   2.663222e+06
  -2.110895e+06   1.279592e+06
  -2.610024e+06  -8.486427e+05
  -1.873371e+06  -2.188009e+06
  -3.132986e+05  -2.083157e+06
   1.030838e+06  -1.009542e+06
   1.202787e+06  -3.076682e+04
   3.584389e+05   6.456681e+04
  -2.506775e+05  -5.478443e+05
   2.694288e+05  -9.087859e+05
   1.288802e+06  -3.707746e+05
   1.422262e+06   5.996003e+05
   3.226836e+05   9.842800e+05
  -8.325242e+05   4.504835e+05
  -7.402552e+05  -3.211741e+05
   5.373853e+05  -4.884943e+05
   1.668285e+06   1.251432e+05
   1.426444e+06   1.038040e+06
  -1.416189e+05   1.565364e+06
  -1.758667e+06   1.227150e+06
  -2.054190e+06   1.235891e+05
  -8.368677e+05  -9.249140e+05
   6.800963e+05  -9.898260e+05
   1.055858e+06  -7.127100e+04
   7.537606e+04   7.439066e+05
  -1.101318e+06   4.770291e+05
  -1.242251e+06  -5.767318e+05
  -2.871266e+05  -1.220537e+06
   7.634467e+05  -7.904608e+05
   9.612391e+05   1.473444e+05
   2.702419e+05   5.551952e+05
  -5.029987e+05   6.769748e+04
  -4.772593e+05  -7.321773e+05
   4.632360e+05  -9.683375e+05
   1.449831e+06  -2.853970e+05
   1.403141e+06   8.414403e+05
   2.007368e+05   1.497925e+06
  -1.074781e+06   1.140238e+06
  -1.266289e+06   1.200236e+05
  -3.924128e+05  -6.517810e+05
   4.846832e+05  -6.115522e+05
   5.353701e+05  -4.237981e+04
  -2.732283e+04   3.520791e+05
  -4.210861e+05   2.407202e+05
  -2.381363e+05  -6.462780e+04
   2.281529e+05  -5.120520e+04
   3.775262e+05   3.931282e+05
  -1.220387e+05   8.136718e+05
  -9.925812e+05   6.014467e+05
  -1.472144e+06  -3.627292e+05
  -9.684492e+05  -1.447138e+06
   2.632250e+05  -1.764538e+06
   1.254323e+06  -1.032753e+06
   1.303666e+06   1.169800e+05
   6.876336e+05   7.807516e+05
   2.145980e+05   6.732066e+05
   2.265359e+05   2.817408e+05
   3.199070e+05   1.998149e+05
   6.596015e+03   4.691465e+05
  -6.392364e+05   6.121413e+05
  -1.063284e+06   2.111537e+05
  -7.779121e+05  -5.894899e+05
   2.038099e+05  -1.118578e+06
   1.289127e+06  -7.529926e+05
   1.630970e+06   4.242589e+05
   7.938759e+05   1.541882e+06
  -7.299498e+05   1.669326e+06
  -1.819451e+06   7.151687e+05
  -1.732127e+06  -4.815966e+05
  -7.739318e+05  -1.017734e+06
   1.241169e+05  -7.948085e+05
   3.891805e+05  -4.486275e+05
   2.314836e+05  -5.183386e+05
   1.963089e+05  -8.508284e+05
   5.122751e+05  -8.426425e+05
   9.037434e+05  -1.592950e+05
   9.028189e+05   8.454167e+05
   3.150414e+05   1.401410e+06
  -5.218719e+05   1.019013e+06
  -9.442267e+05  -3.008266e+04
  -5.677371e+05  -9.178789e+05
   2.674427e+05  -9.936121e+05
   7.807774e+05  -3.388238e+05
   5.553563e+05   4.045710e+05
  -3.722248e+04   7.043438e+05
  -3.026969e+05   5.682199e+05
  -3.519731e+04   3.521590e+05
   2.670229e+05   2.890176e+05
   3.758654e+03   2.856213e+05
  -7.962547e+05   1.127541e+05
  -1.411659e+06  -3.033745e+05
  -1.124883e+06  -7.745446e+05
   4.823675e+03  -9.832311e+05
   1.106514e+06  -7.409590e+05
   1.314470e+06  -1.818206e+05
   6.207113e+05   2.962955e+05
  -1.724277e+05   3.557954e+05
  -3.467605e+05   4.110063e+04
   3.223757e+04  -2.443633e+05
   3.714688e+05  -1.398542e+05
   3.188952e+05   2.782879e+05
   6.918232e+04   5.532598e+05
  -2.249023e+04   3.535427e+05
   1.155237e+05  -1.054338e+05
   2.664582e+05  -2.532494e+05
   1.886831e+05   1.656836e+05
  -1.887416e+05   7.145733e+05
  -6.833774e+05   7.077442e+05
  -8.917680e+05   2.409102e+04
  -4.855337e+05  -6.921289e+05
   3.459777e+05  -7.339209e+05
   8.703288e+05  -1.164429e+05
   4.897229e+05   4.745542e+05
  -5.248972e+05   4.520397e+05
  -1.183832e+06  -1.099735e+05
  -7.834559e+05  -6.632180e+05
   3.353360e+05  -7.577671e+05
   1.137601e+06  -3.756255e+05
   9.544826e+05   1.464716e+05
   1.105277e+05   3.996917e+05
  -4.777671e+05   2.053036e+05
  -2.477439e+05  -2.027659e+05
   4.753749e+05  -3.164569e+05
   8.445274e+05   1.625535e+05
   3.676023e+05   9.122239e+05
  -5.855764e+05   1.179919e+06
  -1.160278e+06   5.217336e+05
  -8.744772e+05  -6.448964e+05
  -4.590156e+04  -1.337470e+06
   6.110084e+05  -9.472766e+05
   6.838943e+05   1.314519e+05
   3.048558e+05   8.886513e+05
  -1.472852e+05   7.353349e+05
  -3.955883e+05   6.278348e+04
  -3.649897e+05  -3.087867e+05
  -1.614974e+05  -1.249010e+05
  -2.442504e+04   8.556941e+04
  -1.263973e+05  -1.905283e+05
  -3.049449e+05  -7.173500e+05
  -1.463422e+05  -8.178173e+05
   4.790662e+05  -2.723509e+05
   1.070209e+06   4.163117e+05
   9.513853e+05   6.813679e+05
   1.068394e+05   5.091538e+05
  -6.933712e+05   2.544461e+05
  -7.488699e+05   1.009252e+05
  -2.240302e+05  -2.674940e+04
   1.372396e+05  -1.540666e+05
  -1.258086e+04  -1.807543e+05
  -2.419513e+05  -1.148108e+05
  -8.603673e+03  -9.743858e+04
   5.530858e+05  -1.114391e+05
   7.552763e+05   7.718551e+04
   1.984642e+05   5.121152e+05
  -7.283879e+05   7.802592e+05
  -1.242127e+06   4.251865e+05
  -9.364012e+05  -4.178657e+05
  -1.022412e+05  -1.050155e+06
   6.163441e+05  -9.445637e+05
   7.878414e+05  -2.991609e+05
   4.700020e+05   2.328338e+05
   5.645697e+04   2.629138e+05
  -9.805217e+04   8.704349e+03
   4.485879e+04  -4.572278e+04
   2.264615e+05   2.683190e+05
   1.625528e+05   6.032344e+05
  -1.736821e+05   4.762033e+05
  -4.993734e+05  -1.576199e+05
  -4.582397e+05  -7.663753e+05
   2.645098e+04  -7.518199e+05
   5.923493e+05  -8.994754e+04
   6.983410e+05   6.279846e+05
   1.619237e+05   8.100156e+05
  -5.631098e+05   4.173697e+05
  -7.853746e+05  -1.275568e+05
  -3.283559e+05  -4.369320e+05
   2.369393e+05  -4.323578e+05
   2.516794e+05  -2.417810e+05
  -2.248525e+05  -4.370621e+04
  -4.865652e+05  -1.590473e+04
  -7.418804e+04  -2.228977e+05
   6.405995e+05  -4.579625e+05
   9.135001e+05  -3.640222e+05
   5.053537e+05   1.326109e+05
  -1.204531e+05   6.126997e+05
  -4.095612e+05   5.797987e+05
  -2.721562e+05   6.480764e+04
   1.292621e+04  -3.698768e+05
   2.054798e+05  -2.789668e+05
   2.483214e+05   1.675328e+05
   1.472199e+05   4.365737e+05
  -7.018228e+04   2.717086e+05
  -2.807001e+05  -7.121566e+04
  -3.207725e+05  -2.021864e+05
  -1.732472e+05  -5.931647e+04
  -5.220294e+02   7.826125e+04
   6.220824e+04  -2.882924e+04
   6.771327e+04  -2.808767e+05
   1.424640e+05  -3.500826e+05
   2.657545e+05  -6.735652e+04
   2.576396e+05   3.465749e+05
   7.148223e+03   4.830985e+05
  -3.343597e+05   1.854443e+05
  -4.404593e+05  -2.654533e+05
  -1.316999e+05  -4.465837e+05
   3.778942e+05  -2.332627e+05
   6.150982e+05   1.197678e+05
   3.174523e+05   3.022642e+05
  -2.345618e+05   2.471899e+05
  -4.672960e+05   9.611443e+04
  -1.535404e+05  -5.713003e+03
   2.984887e+05   2.391104e+03
   3.097890e+05   1.142148e+05
  -1.756641e+05   2.285832e+05
  -6.167802e+05   1.524114e+05
