
 $NMID
 id='ANONYMOUS ', fmtdat='(2E16.6)'
 volume=1.0
 tramp=1.0
 $END
  -4.419028e+07   3.610156e+06
  -2.864809e+07  -2.539279e+07
   3.614419e+06  -3.039212e+07
   2.072390e+07  -1.299241e+07
   1.319893e+07   4.664403e+06
  -2.114696e+06   7.474450e+06
  -7.697678e+06  -4.860708e+05
  -2.642929e+06  -7.460295e+06
   4.312415e+06  -7.528613e+06
   7.378288e+06  -2.058825e+06
   5.833509e+06   4.367817e+06
   1.208811e+06   6.603078e+06
  -2.915722e+06   2.428368e+06
  -2.399731e+06  -3.964957e+06
   2.507649e+06  -5.236976e+06
   6.198747e+06   5.972731e+05
   4.075968e+06   7.674856e+06
  -2.224000e+06   9.424239e+06
  -7.519964e+06   5.267054e+06
  -8.615101e+06  -8.762621e+05
  -5.736775e+06  -5.447417e+06
  -1.127672e+06  -6.818803e+06
   1.986108e+06  -4.993525e+06
   1.434539e+06  -2.147852e+06
  -9.412235e+05  -1.427193e+06
  -5.602899e+05  -3.121608e+06
   3.778589e+06  -3.816624e+06
   7.412708e+06  -1.132619e+06
   5.782065e+06   2.686645e+06
   6.292443e+05   3.950035e+06
  -2.636914e+06   2.344467e+06
  -1.954014e+06   2.920210e+05
   2.504685e+05  -7.187469e+05
   1.589766e+06  -6.055976e+05
   1.803688e+06   8.287241e+05
   9.095432e+05   2.941932e+06
  -1.107071e+06   3.163716e+06
  -2.612932e+06   1.920302e+05
  -1.662670e+06  -2.752149e+06
   5.015547e+05  -1.656093e+06
   5.159723e+05   1.804670e+06
  -1.714745e+06   1.918940e+06
  -2.083898e+06  -2.343754e+06
   1.572939e+06  -4.930270e+06
   5.447296e+06  -1.192815e+06
   4.460840e+06   5.135996e+06
  -9.892261e+05   6.808518e+06
  -5.654863e+06   2.369143e+06
  -5.654889e+06  -2.999491e+06
  -1.778193e+06  -4.525629e+06
   2.506813e+06  -2.282763e+06
   4.113013e+06   8.636234e+05
   2.044018e+06   2.538830e+06
  -1.764447e+06   1.836503e+06
  -3.572823e+06  -4.516903e+05
  -1.667775e+06  -2.003815e+06
   1.257115e+06  -1.173462e+06
   1.389736e+06   6.814316e+05
  -1.006269e+06   7.487593e+05
  -2.012567e+06  -1.286366e+06
   3.573828e+05  -2.758320e+06
   3.563166e+06  -1.742779e+06
   4.217221e+06   7.777718e+05
   2.033476e+06   2.973400e+06
  -1.032681e+06   4.211564e+06
  -3.506450e+06   4.110813e+06
  -4.669533e+06   1.808572e+06
  -3.803341e+06  -2.115543e+06
  -1.174497e+06  -4.711071e+06
   1.141071e+06  -3.786767e+06
   1.294965e+06  -9.933623e+05
   8.735466e+04   2.443728e+05
  -1.912606e+05  -7.580740e+05
   1.042101e+06  -1.557227e+06
   2.146239e+06  -4.663113e+05
   1.739921e+06   1.278463e+06
   2.324596e+05   1.627129e+06
  -1.130959e+06   2.970081e+05
  -1.428375e+06  -1.428992e+06
  -2.339630e+05  -2.241777e+06
   2.003403e+06  -1.499003e+06
   3.561419e+06   5.755732e+05
   2.789205e+06   2.694706e+06
   2.674611e+05   3.317865e+06
  -1.609449e+06   2.288221e+06
  -1.685711e+06   1.023222e+06
  -1.378701e+06   6.249409e+05
  -2.224709e+06   5.506077e+05
  -3.387370e+06  -2.953884e+05
  -2.862531e+06  -1.884066e+06
  -3.870862e+05  -3.152308e+06
   2.172749e+06  -3.219032e+06
   3.037435e+06  -1.946923e+06
   2.081203e+06   1.035942e+05
   4.080754e+05   1.692237e+06
  -6.831995e+05   1.583641e+06
  -4.414423e+05   2.349430e+04
   7.329540e+05  -1.090654e+06
   1.444562e+06  -4.438884e+05
   8.080668e+05   8.690446e+05
  -3.066642e+05   8.935305e+05
  -3.346297e+05  -2.679387e+05
   7.946051e+05  -5.697723e+05
   1.498490e+06   9.330762e+05
   6.618829e+05   2.665489e+06
  -1.064044e+06   2.673227e+06
  -2.343154e+06   9.783930e+05
  -2.583424e+06  -9.200426e+05
  -1.883602e+06  -1.933726e+06
  -5.197047e+05  -1.937690e+06
   8.366767e+05  -1.209052e+06
   1.188582e+06  -2.963978e+05
   3.814762e+05   3.225320e+02
  -3.268620e+05  -5.536076e+05
   2.352546e+05  -1.068128e+06
   1.445048e+06  -5.761250e+05
   1.631481e+06   5.597604e+05
   3.829448e+05   1.075000e+06
  -8.659142e+05   5.140820e+05
  -6.996076e+05  -2.884821e+05
   6.239935e+05  -4.313279e+05
   1.671085e+06   1.234987e+05
   1.393988e+06   9.160002e+05
  -7.082794e+04   1.501154e+06
  -1.651213e+06   1.410315e+06
  -2.107002e+06   3.971055e+05
  -1.024502e+06  -8.982863e+05
   6.118721e+05  -1.233897e+06
   1.205881e+06  -2.558427e+05
   2.386423e+05   8.291031e+05
  -1.120320e+06   6.759651e+05
  -1.373411e+06  -4.915653e+05
  -3.556867e+05  -1.247899e+06
   7.854544e+05  -8.064460e+05
   9.804481e+05   1.754684e+05
   2.248688e+05   5.901346e+05
  -6.203693e+05   9.230834e+04
  -6.454147e+05  -7.637923e+05
   3.391677e+05  -1.141480e+06
   1.507146e+06  -5.660114e+05
   1.645305e+06   6.628637e+05
   4.403405e+05   1.574065e+06
  -1.001891e+06   1.364558e+06
  -1.316705e+06   2.733932e+05
  -4.380174e+05  -6.375181e+05
   4.555094e+05  -6.582650e+05
   4.714222e+05  -1.051870e+05
  -7.323197e+04   2.648111e+05
  -3.451479e+05   1.760725e+05
  -6.726753e+04  -3.221888e+04
   3.630405e+05   5.829868e+04
   4.318953e+05   5.027120e+05
  -9.384154e+04   9.294049e+05
  -1.007171e+06   7.793467e+05
  -1.630466e+06  -1.771538e+05
  -1.263959e+06  -1.394852e+06
  -3.504437e+03  -1.872815e+06
   1.138693e+06  -1.183682e+06
   1.290595e+06  -1.069937e+04
   7.000135e+05   6.120399e+05
   2.864623e+05   4.429188e+05
   4.031886e+05   1.160071e+05
   5.248065e+05   2.080875e+05
   1.244690e+05   5.960855e+05
  -6.177140e+05   7.483687e+05
  -1.084554e+06   3.384880e+05
  -8.405337e+05  -4.759067e+05
   9.944456e+04  -1.118731e+06
   1.244934e+06  -9.304585e+05
   1.753077e+06   2.179733e+05
   1.005798e+06   1.537738e+06
  -6.292895e+05   1.888043e+06
  -1.894406e+06   9.553779e+05
  -1.841516e+06  -3.614062e+05
  -8.008628e+05  -9.600354e+05
   1.042831e+05  -7.164663e+05
   2.447402e+05  -4.001864e+05
  -2.181659e+04  -5.907857e+05
  -2.456678e+04  -1.031935e+06
   4.316464e+05  -1.050682e+06
   9.820159e+05  -3.393496e+05
   1.109178e+06   7.346100e+05
   5.643819e+05   1.415956e+06
  -3.736908e+05   1.148870e+06
  -9.857783e+05   8.503206e+04
  -7.079207e+05  -9.377614e+05
   2.170502e+05  -1.100110e+06
   8.800317e+05  -3.736393e+05
   6.710758e+05   5.061913e+05
  -3.967358e+04   8.480835e+05
  -3.806959e+05   6.326126e+05
  -4.469238e+04   3.148674e+05
   3.620259e+05   2.224900e+05
   7.650924e+04   2.884513e+05
  -8.760912e+05   2.382821e+05
  -1.620461e+06  -1.162042e+05
  -1.315422e+06  -6.911621e+05
  -5.574614e+04  -1.115384e+06
   1.159491e+06  -9.921358e+05
   1.393458e+06  -3.307038e+05
   6.676222e+05   3.409156e+05
  -1.696749e+05   4.645422e+05
  -3.954957e+05   5.298387e+04
  -5.868041e+04  -3.347577e+05
   3.153550e+05  -2.350331e+05
   3.974419e+05   2.280042e+05
   2.637906e+05   5.343827e+05
   1.239526e+05   3.618233e+05
   9.574350e+04  -7.140432e+04
   1.795351e+05  -2.317252e+05
   2.248670e+05   1.604535e+05
  -2.884156e+04   7.632932e+05
  -6.155602e+05   8.872918e+05
  -1.055451e+06   2.426666e+05
  -7.416614e+05  -6.424102e+05
   2.379557e+05  -9.223255e+05
   9.557838e+05  -3.668759e+05
   6.090199e+05   3.814627e+05
  -4.974496e+05   5.446667e+05
  -1.218312e+06   3.018420e+04
  -8.092181e+05  -5.944335e+05
   3.185842e+05  -7.773309e+05
   1.110029e+06  -4.481970e+05
   9.423303e+05   7.163203e+04
   1.300636e+05   3.800234e+05
  -4.815124e+05   2.436656e+05
  -3.226844e+05  -2.051038e+05
   4.023917e+05  -4.553317e+05
   9.187604e+05  -4.115942e+04
   6.243069e+05   8.510643e+05
  -3.028758e+05   1.363378e+06
  -1.063720e+06   8.084898e+05
  -1.024112e+06  -4.790994e+05
  -2.937080e+05  -1.356312e+06
   4.710240e+05  -1.037245e+06
   7.185497e+05   8.130470e+04
   4.037606e+05   8.845648e+05
  -1.165065e+05   7.477327e+05
  -4.310796e+05   9.709101e+04
  -3.709687e+05  -2.509323e+05
  -1.191222e+05  -8.701792e+04
  -3.652578e+04   7.114175e+04
  -2.609136e+05  -2.190495e+05
  -4.726448e+05  -7.095810e+05
  -2.061416e+05  -8.088266e+05
   5.433260e+05  -3.513993e+05
   1.163797e+06   2.455912e+05
   1.025159e+06   5.455177e+05
   1.917499e+05   5.268170e+05
  -6.052256e+05   3.896776e+05
  -7.347205e+05   2.075260e+05
  -2.964428e+05  -2.544957e+04
   8.721824e+04  -1.868280e+05
   3.392615e+04  -1.479116e+05
  -1.869415e+05  -3.780338e+04
  -5.904405e+04  -9.729727e+04
   4.637915e+05  -2.440787e+05
   8.093427e+05  -8.152470e+04
   4.248884e+05   5.038308e+05
  -5.297921e+05   9.893644e+05
  -1.265236e+06   7.359629e+05
  -1.152944e+06  -2.050594e+05
  -3.351910e+05  -1.055441e+06
   4.869514e+05  -1.128512e+06
   7.653492e+05  -5.168037e+05
   5.197315e+05   1.107261e+05
   1.434986e+05   2.658088e+05
  -2.612494e+04   7.347242e+04
   6.918964e+04  -9.278503e+02
   2.479821e+05   2.665494e+05
   2.445295e+05   6.018397e+05
  -7.722322e+04   5.433632e+05
  -5.292575e+05  -1.828592e+04
  -6.641988e+05  -6.531762e+05
  -2.051649e+05  -7.880233e+05
   5.426672e+05  -2.806397e+05
   8.661324e+05   4.431993e+05
   3.773696e+05   8.112930e+05
  -4.881019e+05   6.017627e+05
  -8.810359e+05   4.378055e+04
  -4.756666e+05  -4.463100e+05
   1.667432e+05  -5.711960e+05
   2.842933e+05  -3.202930e+05
  -1.660562e+05   2.404267e+04
  -4.899691e+05   8.886680e+04
  -1.473481e+05  -2.299389e+05
   5.787026e+05  -5.876606e+05
   9.457860e+05  -5.007929e+05
   6.267266e+05   9.371590e+04
   7.190783e+02   6.874705e+05
  -3.761608e+05   7.153409e+05
  -3.402671e+05   1.787124e+05
  -9.582695e+04  -3.536962e+05
   1.425681e+05  -3.696613e+05
   2.823482e+05   5.989796e+04
   2.483299e+05   4.219411e+05
   1.820499e+03   3.551510e+05
  -3.059372e+05   9.399388e+03
  -3.980374e+05  -1.923811e+05
  -1.948622e+05  -6.858798e+04
   5.103288e+04   1.315761e+05
   6.721810e+04   6.523866e+04
  -7.305692e+04  -2.559890e+05
  -5.596805e+04  -4.548879e+05
   2.119928e+05  -2.400477e+05
   4.180205e+05   2.238942e+05
   2.198811e+05   4.817099e+05
  -2.747202e+05   2.897155e+05
  -5.522860e+05  -1.413854e+05
  -2.578945e+05  -4.096205e+05
   3.665525e+05  -3.288871e+05
   7.009206e+05  -2.943839e+04
   4.090046e+05   2.486466e+05
  -1.915824e+05   3.524453e+05
  -4.791610e+05   2.541626e+05
  -2.110286e+05   3.976670e+04
   2.329549e+05  -1.034149e+05
   3.086241e+05  -1.495672e+04
  -8.103707e+04   2.220529e+05
  -5.109309e+05   2.752257e+05
