
 $NMID
 id='ANONYMOUS ', fmtdat='(2E16.6)'
 volume=1.0
 tramp=1.0
 $END
   1.945713e+07   1.819349e+05
   1.262762e+07   9.500597e+06
  -4.384512e+05   1.228729e+07
  -8.427329e+06   7.749171e+06
  -6.781171e+06   5.160346e+05
  -2.997837e+05  -3.407719e+06
   3.781423e+06  -1.575790e+06
   2.770733e+06   3.046854e+06
  -9.290362e+05   5.106988e+06
  -3.547822e+06   2.253087e+06
  -3.128675e+06  -2.471768e+06
  -4.488342e+05  -4.012666e+06
   1.862625e+06  -9.028320e+05
   1.544642e+06   3.228835e+06
  -1.074826e+06   3.834580e+06
  -3.190851e+06   3.111565e+05
  -2.355364e+06  -3.793732e+06
   9.212867e+05  -4.792326e+06
   3.743559e+06  -2.290227e+06
   3.838285e+06   1.131617e+06
   1.670427e+06   2.803797e+06
  -3.109172e+05   2.275121e+06
  -2.487684e+05   1.198905e+06
   1.255172e+06   1.309282e+06
   1.752598e+06   2.545854e+06
  -3.719145e+05   3.204312e+06
  -3.775018e+06   1.949358e+06
  -5.182429e+06  -5.792404e+05
  -2.922843e+06  -2.395785e+06
   9.676512e+05  -2.186792e+06
   2.790343e+06  -4.193148e+05
   1.161292e+06   1.300304e+06
  -1.729400e+06   1.546450e+06
  -2.836833e+06   2.993937e+04
  -1.469926e+06  -2.075508e+06
   5.580252e+05  -2.821649e+06
   1.321444e+06  -1.308807e+06
   6.203332e+05   9.760959e+05
  -3.466137e+05   1.460619e+06
  -4.414703e+05  -4.259232e+05
   4.345915e+05  -2.268808e+06
   1.386913e+06  -1.566650e+06
   1.325304e+06   9.908322e+05
  -3.090904e+03   2.281017e+06
  -1.532433e+06   6.627561e+05
  -1.640458e+06  -2.038268e+06
   2.361137e+05  -2.830638e+06
   2.711946e+06  -9.435301e+05
   3.496473e+06   1.709102e+06
   1.610710e+06   2.848484e+06
  -1.461594e+06   1.881108e+06
  -3.062939e+06  -6.232119e+04
  -1.936690e+06  -1.374087e+06
   5.620700e+05  -1.210466e+06
   1.933596e+06  -3.462658e+04
   1.120328e+06   8.642059e+05
  -5.721637e+05   6.240383e+05
  -1.127997e+06  -3.371655e+05
  -8.967241e+04  -8.614129e+05
   1.082763e+06  -3.695546e+05
   8.121864e+05   5.826093e+05
  -7.665576e+05   9.769712e+05
  -1.939129e+06   2.809277e+05
  -1.248671e+06  -1.178270e+06
   9.767771e+05  -2.394184e+06
   2.953104e+06  -2.259859e+06
   3.188457e+06  -4.811913e+05
   1.815848e+06   1.867362e+06
   2.204394e+05   3.106135e+06
  -4.841076e+05   2.600706e+06
  -4.310176e+05   1.380432e+06
  -5.043426e+05   7.963954e+05
  -1.152993e+06   8.711371e+05
  -1.903081e+06   5.062441e+05
  -1.937897e+06  -7.811956e+05
  -9.476793e+05  -1.979483e+06
   5.581211e+05  -1.733550e+06
   1.579713e+06  -1.995394e+04
   1.311837e+06   1.708548e+06
  -1.732910e+05   1.977893e+06
  -1.785357e+06   6.592881e+05
  -2.225530e+06  -1.077267e+06
  -1.210684e+06  -1.955170e+06
   2.199952e+05  -1.674030e+06
   8.588087e+05  -9.415831e+05
   6.892314e+05  -5.814687e+05
   7.633333e+05  -6.802008e+05
   1.693947e+06  -6.079735e+05
   2.662013e+06   2.003304e+05
   2.257890e+06   1.565682e+06
   2.039262e+05   2.631703e+06
  -2.093754e+06   2.548567e+06
  -2.851387e+06   1.193169e+06
  -1.657300e+06  -6.022891e+05
   1.829068e+05  -1.579334e+06
   9.961792e+05  -1.106427e+06
   3.313038e+05   1.471048e+05
  -8.003227e+05   8.012818e+05
  -1.131624e+06   2.346412e+05
  -4.273462e+05  -7.076191e+05
   4.386244e+05  -7.508651e+05
   5.120033e+05   1.849742e+05
  -2.884143e+05   8.122497e+05
  -1.162084e+06   4.158678e+04
  -1.176882e+06  -1.621720e+06
  -4.526423e+04  -2.543979e+06
   1.600531e+06  -1.705630e+06
   2.595620e+06   2.762046e+05
   2.133012e+06   1.840734e+06
   5.373205e+05   1.983043e+06
  -9.023868e+05   1.026332e+06
  -1.117854e+06   9.514169e+04
  -3.276280e+05  -2.316732e+04
   2.570342e+05   4.756613e+05
  -1.598089e+05   7.814985e+05
  -1.054388e+06   3.916929e+05
  -1.251238e+06  -3.780030e+05
  -3.621796e+05  -7.808274e+05
   7.013197e+05  -4.473627e+05
   7.260829e+05   2.495771e+05
  -4.321997e+05   5.782276e+05
  -1.616641e+06   1.268012e+05
  -1.528433e+06  -8.310714e+05
  -7.021914e+04  -1.530895e+06
   1.514864e+06  -1.327249e+06
   1.860025e+06  -2.958946e+05
   8.041058e+05   7.252220e+05
  -5.181002e+05   8.651723e+05
  -8.624050e+05   1.132158e+05
  -6.273839e+04  -6.214445e+05
   9.482332e+05  -4.786687e+05
   1.154292e+06   3.996609e+05
   4.015845e+05   1.052408e+06
  -5.650926e+05   8.071050e+05
  -8.661945e+05   7.356736e+03
  -3.103971e+05  -4.369608e+05
   4.281776e+05  -7.312097e+04
   4.588248e+05   6.541177e+05
  -3.958079e+05   9.171203e+05
  -1.327048e+06   3.356118e+05
  -1.328848e+06  -6.847647e+05
  -2.864815e+05  -1.332820e+06
   8.597587e+05  -1.103080e+06
   1.105884e+06  -2.312633e+05
   4.101372e+05   5.237578e+05
  -3.784707e+05   5.802392e+05
  -4.992295e+05   6.284053e+04
  -9.934928e+03  -3.830262e+05
   4.304433e+05  -3.089256e+05
   3.283843e+05   6.736314e+04
  -1.594664e+05   1.612183e+05
  -4.184842e+05  -2.585359e+05
  -6.920366e+03  -7.508664e+05
   8.483553e+05  -6.487616e+05
   1.379752e+06   2.108984e+05
   9.944322e+05   1.248238e+06
  -9.943291e+04   1.643096e+06
  -1.058435e+06   1.084620e+06
  -1.235992e+06   4.501161e+04
  -7.698968e+05  -6.757568e+05
  -2.963381e+05  -6.871802e+05
  -1.951274e+05  -3.089364e+05
  -2.534354e+05  -1.475807e+05
  -4.254490e+04  -4.011516e+05
   5.120219e+05  -6.424359e+05
   9.855171e+05  -3.330479e+05
   8.362663e+05   4.857478e+05
  -5.134455e+04   1.110432e+06
  -1.135774e+06   8.468940e+05
  -1.560427e+06  -2.477646e+05
  -8.741808e+05  -1.342194e+06
   4.995310e+05  -1.573996e+06
   1.568641e+06  -8.205967e+05
   1.632549e+06   2.496809e+05
   8.552862e+05   8.527845e+05
  -3.285898e+03   7.910130e+05
  -3.558502e+05   5.066302e+05
  -2.516693e+05   4.980005e+05
  -1.580695e+05   7.479670e+05
  -3.929515e+05   7.688037e+05
  -7.901532e+05   1.982708e+05
  -8.786247e+05  -7.120286e+05
  -3.866280e+05  -1.262238e+06
   4.087340e+05  -9.698542e+05
   8.682207e+05  -4.969123e+04
   5.970684e+05   7.748168e+05
  -1.334763e+05   9.194584e+05
  -6.401109e+05   4.044704e+05
  -5.253449e+05  -2.642907e+05
  -5.910330e+04  -6.051471e+05
   1.784409e+05  -5.415152e+05
  -2.228087e+04  -3.404165e+05
  -2.667309e+05  -2.558302e+05
  -2.684558e+04  -2.718502e+05
   7.042418e+05  -1.768967e+05
   1.298524e+06   1.585154e+05
   1.089882e+06   6.066624e+05
   9.433677e+04   8.723209e+05
  -9.227803e+05   7.445197e+05
  -1.167378e+06   2.881721e+05
  -5.920598e+05  -1.771212e+05
   1.153106e+05  -3.171486e+05
   3.008284e+05  -8.360502e+04
  -1.972424e+04   2.038662e+05
  -3.375593e+05   1.592584e+05
  -3.116097e+05  -2.251559e+05
  -8.308718e+04  -5.152667e+05
   2.107233e+04  -3.320617e+05
  -9.747583e+04   1.346669e+05
  -2.527239e+05   2.889514e+05
  -2.049427e+05  -1.399394e+05
   1.274680e+05  -6.990018e+05
   5.816806e+05  -7.055508e+05
   7.955597e+05  -6.229139e+04
   4.667369e+05   6.107794e+05
  -2.676579e+05   6.748566e+05
  -7.761759e+05   1.437922e+05
  -4.862606e+05  -4.058673e+05
   4.331153e+05  -4.636288e+05
   1.106294e+06  -1.973425e+04
   8.182139e+05   5.275846e+05
  -2.064660e+05   7.471321e+05
  -1.015524e+06   4.868282e+05
  -9.155532e+05  -2.906317e+04
  -1.512976e+05  -3.631475e+05
   4.165490e+05  -2.377805e+05
   2.284267e+05   1.625128e+05
  -4.345060e+05   3.145996e+05
  -7.916606e+05  -1.115257e+05
  -3.815561e+05  -8.291435e+05
   4.815543e+05  -1.124343e+06
   1.044062e+06  -5.535486e+05
   8.559588e+05   5.339882e+05
   1.472556e+05   1.234944e+06
  -4.843988e+05   9.389875e+05
  -6.444195e+05  -4.659734e+04
  -3.710570e+05  -7.912754e+05
   5.339752e+04  -7.011364e+05
   3.543203e+05  -9.673719e+04
   3.807439e+05   2.601494e+05
   1.786195e+05   1.074439e+05
   5.454582e+03  -8.406453e+04
   9.842164e+04   1.588128e+05
   3.231549e+05   6.332773e+05
   2.231758e+05   7.400999e+05
  -3.906013e+05   2.864153e+05
  -1.022921e+06  -2.987282e+05
  -9.553091e+05  -5.478923e+05
  -1.425766e+05  -4.569592e+05
   6.396597e+05  -2.927817e+05
   6.896720e+05  -1.620095e+05
   1.900735e+05  -2.438009e+03
  -1.213818e+05   1.502952e+05
   5.506590e+04   1.724025e+05
   2.626124e+05   9.906654e+04
   4.610524e+03   9.688070e+04
  -5.340232e+05   1.411414e+05
  -7.018942e+05  -2.500723e+04
  -1.822965e+05  -4.617075e+05
   6.409338e+05  -7.625033e+05
   1.099640e+06  -4.622468e+05
   8.667182e+05   3.355546e+05
   1.646414e+05   9.680849e+05
  -4.942121e+05   9.096891e+05
  -7.111345e+05   3.175826e+05
  -4.594853e+05  -1.964295e+05
  -5.902622e+04  -2.432443e+05
   1.166447e+05  -4.947428e+03
  -2.667012e+04   6.152114e+04
  -2.392077e+05  -2.222227e+05
  -2.020040e+05  -5.437384e+05
   1.346311e+05  -4.458941e+05
   4.803301e+05   1.282390e+05
   4.643668e+05   6.940708e+05
   1.214529e+03   6.966193e+05
  -5.583990e+05   1.046387e+05
  -6.857251e+05  -5.512096e+05
  -1.927601e+05  -7.371040e+05
   4.967892e+05  -4.098305e+05
   7.247568e+05   7.034332e+04
   3.178184e+05   3.680803e+05
  -1.925226e+05   3.954967e+05
  -1.988859e+05   2.305454e+05
   2.334702e+05   2.510037e+04
   4.578449e+05  -1.947444e+04
   7.732492e+04   1.977778e+05
  -5.564947e+05   4.717830e+05
  -7.934773e+05   4.141868e+05
  -4.499902e+05  -7.251671e+04
   7.008904e+04  -5.645941e+05
   3.180461e+05  -5.516630e+05
   2.284585e+05  -6.013623e+04
   6.226594e+03   3.534484e+05
  -1.757575e+05   2.623562e+05
  -2.471014e+05  -1.548586e+05
  -1.648103e+05  -3.936174e+05
   5.407618e+04  -2.392664e+05
   2.645641e+05   5.433672e+04
   3.000613e+05   1.511223e+05
   1.612557e+05   2.948516e+04
   8.505050e+03  -5.950669e+04
  -4.798592e+04   6.255130e+04
  -6.678998e+04   2.821277e+05
  -1.490356e+05   3.196935e+05
  -2.596804e+05   4.844492e+04
  -2.415449e+05  -3.295308e+05
  -7.708570e+03  -4.557550e+05
   3.073259e+05  -1.880527e+05
   4.159283e+05   2.292829e+05
   1.454631e+05   4.135734e+05
  -3.272963e+05   2.385568e+05
  -5.667621e+05  -7.836999e+04
  -3.083639e+05  -2.581807e+05
   2.020274e+05  -2.292437e+05
   4.218232e+05  -1.021850e+05
   1.263892e+05  -1.771927e+02
  -2.999214e+05   6.310960e+03
  -3.057145e+05  -1.036650e+05
   1.610970e+05  -2.391960e+05
   5.867516e+05  -1.891250e+05
