
 $NMID
 id='ANONYMOUS ', fmtdat='(2E16.6)'
 volume=1.0
 tramp=1.0
 $END
   3.829075e+07   4.365575e+05
   2.401756e+07   2.134256e+07
  -3.017814e+06   2.514368e+07
  -1.793845e+07   1.263629e+07
  -1.249285e+07  -1.973667e+06
   9.101966e+05  -6.664580e+06
   7.301728e+06  -1.121224e+06
   3.729064e+06   6.519318e+06
  -3.215271e+06   8.383958e+06
  -6.951641e+06   2.879951e+06
  -5.409233e+06  -4.694973e+06
  -5.410456e+05  -6.954012e+06
   3.268364e+06  -1.725053e+06
   2.316466e+06   5.202307e+06
  -2.496433e+06   6.090155e+06
  -5.889734e+06  -1.924639e+05
  -3.778723e+06  -7.283860e+06
   2.284573e+06  -8.720243e+06
   7.139320e+06  -4.157712e+06
   7.363163e+06   1.899842e+06
   3.783268e+06   5.281532e+06
  -9.467118e+04   5.090429e+06
  -1.174561e+06   3.223210e+06
   6.348663e+05   2.326724e+06
   2.017586e+06   3.399930e+06
  -4.397851e+05   4.615033e+06
  -5.691231e+06   3.275655e+06
  -8.431767e+06  -6.274400e+05
  -5.205059e+06  -3.915428e+06
   1.004981e+06  -3.853473e+06
   4.103266e+06  -1.140441e+06
   1.921513e+06   1.384683e+06
  -2.077833e+06   1.785994e+06
  -3.643562e+06   1.897440e+04
  -2.061461e+06  -2.659379e+06
   5.168215e+05  -4.093330e+06
   1.967357e+06  -2.498342e+06
   1.596266e+06   1.042164e+06
   1.511809e+05   2.630956e+06
  -6.325667e+05   1.726346e+05
   4.545189e+05  -3.089529e+06
   2.285505e+06  -2.300167e+06
   2.142608e+06   2.119944e+06
  -8.349571e+05   4.408558e+06
  -3.868173e+06   1.055941e+06
  -3.365740e+06  -4.362349e+06
   8.714234e+05  -5.717562e+06
   5.216308e+06  -1.726139e+06
   5.831421e+06   3.308832e+06
   2.171821e+06   4.970646e+06
  -2.733273e+06   2.778847e+06
  -4.895708e+06  -6.921753e+05
  -2.725329e+06  -2.663024e+06
   1.452184e+06  -1.976007e+06
   3.503967e+06   3.352890e+05
   1.761936e+06   1.849154e+06
  -1.191095e+06   1.090832e+06
  -1.723519e+06  -7.481701e+05
   4.055648e+05  -1.236787e+06
   2.003028e+06   2.314949e+05
   6.663845e+05   1.821772e+06
  -2.328028e+06   1.679838e+06
  -3.762191e+06  -1.867400e+05
  -2.028658e+06  -2.543652e+06
   1.648235e+06  -4.113742e+06
   4.708289e+06  -3.757097e+06
   5.269126e+06  -9.477945e+05
   3.268030e+06   2.977839e+06
   4.153277e+05   5.186654e+06
  -1.214469e+06   4.213064e+06
  -1.099744e+06   1.795620e+06
  -6.227833e+05   6.780038e+05
  -1.199396e+06   1.124180e+06
  -2.470435e+06   1.009807e+06
  -2.851744e+06  -8.013847e+05
  -1.531462e+06  -2.702057e+06
   6.618565e+05  -2.452070e+06
   2.145871e+06   1.987173e+03
   1.817085e+06   2.513053e+06
  -2.732202e+05   2.986928e+06
  -2.760078e+06   1.137913e+06
  -3.683246e+06  -1.572703e+06
  -2.213499e+06  -3.251975e+06
   2.786908e+05  -3.068942e+06
   1.627967e+06  -1.824125e+06
   1.441953e+06  -9.567863e+05
   1.410550e+06  -9.034728e+05
   2.731805e+06  -7.234187e+05
   4.150693e+06   5.525130e+05
   3.395563e+06   2.602449e+06
   1.444695e+05   4.066043e+06
  -3.302184e+06   3.805855e+06
  -4.338396e+06   1.789904e+06
  -2.539702e+06  -8.334786e+05
   1.714665e+05  -2.340636e+06
   1.439565e+06  -1.714660e+06
   5.250679e+05   1.877505e+05
  -1.219100e+06   1.224339e+06
  -1.813548e+06   3.234371e+05
  -7.149108e+05  -1.147800e+06
   6.725882e+05  -1.122560e+06
   6.784256e+05   3.554596e+05
  -6.963393e+05   1.081309e+06
  -1.849154e+06  -4.168193e+05
  -1.378494e+06  -2.885826e+06
   6.019382e+05  -3.774733e+06
   2.782843e+06  -2.062479e+06
   3.752328e+06   8.892850e+05
   2.844656e+06   2.913254e+06
   6.021059e+05   2.922136e+06
  -1.378591e+06   1.486151e+06
  -1.666884e+06   1.139583e+05
  -4.953393e+05  -5.721090e+04
   3.664020e+05   7.517781e+05
  -3.304049e+05   1.250729e+06
  -1.737915e+06   5.588175e+05
  -1.958031e+06  -7.410615e+05
  -4.717081e+05  -1.306845e+06
   1.141232e+06  -6.331182e+05
   1.046362e+06   4.438954e+05
  -7.469891e+05   7.618440e+05
  -2.394135e+06  -4.135197e+04
  -2.112311e+06  -1.375903e+06
   8.264862e+04  -2.232980e+06
   2.382254e+06  -1.841621e+06
   2.841921e+06  -3.062982e+05
   1.196946e+06   1.205581e+06
  -8.759844e+05   1.368626e+06
  -1.412967e+06   1.424184e+05
  -1.084488e+05  -1.004533e+06
   1.500910e+06  -6.999895e+05
   1.744401e+06   7.244839e+05
   4.753553e+05   1.659073e+06
  -9.933994e+05   1.135509e+06
  -1.323837e+06  -1.415939e+05
  -3.874057e+05  -7.404989e+05
   7.135190e+05  -9.339619e+04
   7.012872e+05   1.030943e+06
  -6.216834e+05   1.398035e+06
  -2.032769e+06   4.756709e+05
  -2.007795e+06  -1.101260e+06
  -3.647606e+05  -2.067612e+06
   1.411093e+06  -1.639944e+06
   1.723348e+06  -2.510112e+05
   5.638966e+05   8.582306e+05
  -6.419080e+05   8.539246e+05
  -7.352178e+05   6.273093e+04
   4.356034e+04  -5.246279e+05
   6.219698e+05  -3.725550e+05
   3.784753e+05   1.091516e+05
  -3.181598e+05   1.402285e+05
  -5.917435e+05  -5.003531e+05
   8.822939e+04  -1.160584e+06
   1.348907e+06  -9.259311e+05
   2.091402e+06   4.080154e+05
   1.450259e+06   1.960533e+06
  -2.485993e+05   2.477954e+06
  -1.674940e+06   1.528353e+06
  -1.829905e+06  -6.014292e+04
  -1.029787e+06  -1.034724e+06
  -3.571015e+05  -9.355714e+05
  -3.308563e+05  -3.876930e+05
  -4.605821e+05  -2.509414e+05
  -6.187690e+04  -6.545815e+05
   8.363823e+05  -9.285800e+05
   1.494587e+06  -4.048406e+05
   1.172853e+06   7.695667e+05
  -1.869488e+05   1.613012e+06
  -1.765004e+06   1.171139e+06
  -2.327978e+06  -4.798821e+05
  -1.216647e+06  -2.109681e+06
   9.097423e+05  -2.382340e+06
   2.488699e+06  -1.120829e+06
   2.448505e+06   5.501217e+05
   1.155829e+06   1.367654e+06
  -1.159153e+05   1.130410e+06
  -5.245079e+05   6.650046e+05
  -3.054076e+05   7.344730e+05
  -2.228462e+05   1.183711e+06
  -6.528456e+05   1.197457e+06
  -1.243563e+06   2.778195e+05
  -1.310391e+06  -1.122732e+06
  -5.250820e+05  -1.935606e+06
   6.671842e+05  -1.450942e+06
   1.320578e+06  -1.278079e+04
   8.525543e+05   1.245677e+06
  -3.041027e+05   1.404564e+06
  -1.064901e+06   5.304679e+05
  -8.072593e+05  -5.198516e+05
  -2.853842e+03  -9.850956e+05
   3.823752e+05  -8.181406e+05
   2.537049e+04  -4.935274e+05
  -3.988856e+05  -3.807308e+05
  -3.331712e+04  -4.012290e+05
   1.105144e+06  -2.233808e+05
   2.001210e+06   3.194665e+05
   1.627983e+06   1.008000e+06
   5.621634e+04   1.378936e+06
  -1.496992e+06   1.109285e+06
  -1.819657e+06   3.397368e+05
  -8.861115e+05  -3.723618e+05
   2.121378e+05  -5.099870e+05
   4.829596e+05  -8.684580e+04
  -1.538059e+04   3.391372e+05
  -4.971029e+05   2.252211e+05
  -4.645987e+05  -3.567411e+05
  -1.401009e+05  -7.600565e+05
   7.013210e+03  -4.894418e+05
  -1.546488e+05   1.630151e+05
  -3.675163e+05   3.775918e+05
  -2.941379e+05  -2.237600e+05
   2.070683e+05  -1.026155e+06
   9.148932e+05  -1.049468e+06
   1.256183e+06  -1.006065e+05
   7.313653e+05   9.342536e+05
  -4.303606e+05   1.053389e+06
  -1.204882e+06   2.294143e+05
  -7.176054e+05  -6.241679e+05
   6.969366e+05  -6.698897e+05
   1.659974e+06   6.534268e+04
   1.146391e+06   8.709078e+05
  -4.107401e+05   1.087633e+06
  -1.565654e+06   6.082239e+05
  -1.348131e+06  -1.400069e+05
  -1.812242e+05  -5.523681e+05
   6.561447e+05  -3.160178e+05
   3.582963e+05   2.705286e+05
  -6.459664e+05   4.733523e+05
  -1.190122e+06  -1.722759e+05
  -5.741678e+05  -1.246401e+06
   7.321509e+05  -1.682261e+06
   1.575648e+06  -8.082033e+05
   1.262424e+06   8.336476e+05
   1.601322e+05   1.858968e+06
  -7.859452e+05   1.364805e+06
  -9.673696e+05  -1.363686e+05
  -4.876546e+05  -1.224525e+06
   1.618522e+05  -1.042359e+06
   5.552358e+05  -1.146256e+05
   5.306441e+05   4.117910e+05
   2.302416e+05   1.688861e+05
   2.856368e+04  -1.193269e+05
   1.926683e+05   2.561900e+05
   4.739319e+05   9.789683e+05
   2.554965e+05   1.131514e+06
  -6.519536e+05   4.146445e+05
  -1.519695e+06  -5.061188e+05
  -1.373492e+06  -8.860125e+05
  -1.878901e+05  -7.045359e+05
   9.459966e+05  -4.030193e+05
   1.038716e+06  -1.926159e+05
   3.183175e+05   1.908577e+04
  -1.784170e+05   2.207309e+05
   3.001427e+04   2.518776e+05
   3.452703e+05   1.486879e+05
   1.944120e+04   1.391207e+05
  -7.634391e+05   1.928350e+05
  -1.060324e+06  -5.603629e+04
  -3.158585e+05  -6.969327e+05
   9.576458e+05  -1.135966e+06
   1.700844e+06  -6.837150e+05
   1.336529e+06   5.099121e+05
   2.185168e+05   1.456120e+06
  -7.931825e+05   1.366108e+06
  -1.079791e+06   4.762372e+05
  -6.732608e+05  -2.940844e+05
  -9.749953e+04  -3.655208e+05
   1.343733e+05  -1.794747e+04
  -6.280801e+04   6.743395e+04
  -3.356546e+05  -3.626506e+05
  -2.655033e+05  -8.344768e+05
   2.121585e+05  -6.751454e+05
   7.056212e+05   1.884449e+05
   6.886748e+05   1.035378e+06
   1.653252e+04   1.045061e+06
  -8.139737e+05   1.654902e+05
  -1.014414e+06  -8.227064e+05
  -2.852875e+05  -1.115441e+06
   7.526104e+05  -6.240361e+05
   1.106310e+06   1.199173e+05
   4.937126e+05   5.885584e+05
  -2.993041e+05   6.248362e+05
  -3.390598e+05   3.575575e+05
   3.118941e+05   4.435750e+04
   6.799788e+05  -1.348661e+04
   1.219356e+05   3.047673e+05
  -8.611420e+05   6.831373e+05
  -1.251970e+06   5.724968e+05
  -7.179055e+05  -1.472314e+05
   1.232414e+05  -8.621369e+05
   5.300631e+05  -8.410558e+05
   3.749075e+05  -1.155867e+05
   9.084611e+03   5.137211e+05
  -2.639992e+05   4.053060e+05
  -3.555729e+05  -2.131674e+05
  -2.369460e+05  -5.977975e+05
   7.522752e+04  -3.850028e+05
   3.947093e+05   7.876908e+04
   4.634351e+05   2.595730e+05
   2.473882e+05   7.086975e+04
  -7.549777e+03  -1.099115e+05
  -8.922036e+04   4.137698e+04
  -7.394974e+04   3.909240e+05
  -1.665305e+05   4.940839e+05
  -3.583151e+05   1.144982e+05
  -3.826576e+05  -4.579903e+05
  -4.793718e+04  -6.673291e+05
   4.503933e+05  -2.825413e+05
   6.333577e+05   3.351581e+05
   2.160041e+05   6.118477e+05
  -5.109379e+05   3.541357e+05
  -8.666193e+05  -1.208780e+05
  -4.642768e+05  -3.982280e+05
   3.075023e+05  -3.618494e+05
   6.413005e+05  -1.688636e+05
   2.140558e+05  -6.534958e+03
  -4.114113e+05   1.412026e+04
  -4.340385e+05  -1.369372e+05
   2.297762e+05  -3.258671e+05
   8.453531e+05  -2.507949e+05
