
 $NMID
 id='ANONYMOUS ', fmtdat='(2E16.6)'
 volume=1.0
 tramp=1.0
 $END
   1.081809e+07  -8.950502e+05
   8.007428e+06   4.369049e+06
   8.175327e+05   7.033862e+06
  -4.516451e+06   5.317470e+06
  -4.331644e+06   9.023130e+05
  -5.280308e+05  -2.178025e+06
   2.394347e+06  -1.376099e+06
   2.068535e+06   1.764694e+06
  -3.059019e+05   3.399154e+06
  -2.129205e+06   1.672250e+06
  -1.967615e+06  -1.400208e+06
  -3.340463e+05  -2.452942e+06
   1.112500e+06  -5.492247e+05
   9.976586e+05   2.031461e+06
  -5.566799e+05   2.486133e+06
  -1.935908e+06   3.947966e+05
  -1.581543e+06  -2.143438e+06
   3.347194e+05  -2.852419e+06
   2.057280e+06  -1.424007e+06
   2.144530e+06   5.556546e+05
   9.249610e+05   1.449820e+06
  -7.189826e+04   1.107413e+06
   1.300941e+05   6.400363e+05
   9.804246e+05   9.562920e+05
   1.071019e+06   1.761217e+06
  -3.299541e+05   2.005909e+06
  -2.340647e+06   1.114461e+06
  -3.122220e+06  -3.921587e+05
  -1.739093e+06  -1.411566e+06
   6.298628e+05  -1.248973e+06
   1.724846e+06  -1.565787e+05
   6.207413e+05   8.943932e+05
  -1.266858e+06   9.539190e+05
  -1.876209e+06  -1.248455e+05
  -8.139210e+05  -1.438865e+06
   5.129357e+05  -1.741032e+06
   8.057073e+05  -6.932507e+05
   2.133490e+05   6.211515e+05
  -2.854706e+05   7.625622e+05
  -1.549128e+05  -4.011737e+05
   3.905330e+05  -1.432700e+06
   8.730450e+05  -9.838184e+05
   8.851498e+05   5.421065e+05
   2.359293e+05   1.413636e+06
  -7.227387e+05   6.175643e+05
  -1.058548e+06  -9.658629e+05
  -1.161911e+05  -1.615698e+06
   1.484463e+06  -6.693722e+05
   2.180266e+06   9.228501e+05
   1.096367e+06   1.741837e+06
  -8.849321e+05   1.246521e+06
  -1.972224e+06   3.687035e+04
  -1.300256e+06  -8.603565e+05
   2.818818e+05  -8.449163e+05
   1.204210e+06  -1.328489e+05
   7.642511e+05   4.978486e+05
  -3.074414e+05   4.286068e+05
  -7.437987e+05  -2.019532e+05
  -1.099220e+05  -6.528201e+05
   7.622469e+05  -3.883063e+05
   7.382530e+05   3.359575e+05
  -2.822616e+05   7.491813e+05
  -1.178331e+06   3.516252e+05
  -8.442123e+05  -6.213074e+05
   5.602559e+05  -1.407955e+06
   1.796164e+06  -1.316189e+06
   1.889859e+06  -2.620625e+05
   1.032369e+06   1.101479e+06
   1.285818e+05   1.860844e+06
  -2.525365e+05   1.644344e+06
  -2.866167e+05   9.497983e+05
  -4.312655e+05   5.225281e+05
  -8.319793e+05   4.591468e+05
  -1.207019e+06   1.931045e+05
  -1.151621e+06  -5.784811e+05
  -5.094910e+05  -1.284691e+06
   4.292263e+05  -1.086920e+06
   1.041129e+06   3.619761e+04
   8.179524e+05   1.130470e+06
  -1.409703e+05   1.245885e+06
  -1.103888e+06   3.717905e+05
  -1.314729e+06  -6.793050e+05
  -6.965499e+05  -1.146426e+06
   1.070852e+05  -9.473963e+05
   4.469412e+05  -5.467870e+05
   3.648342e+05  -3.841995e+05
   4.618579e+05  -4.618397e+05
   1.061903e+06  -4.058157e+05
   1.663882e+06   1.119725e+05
   1.411651e+06   9.807987e+05
   1.215948e+05   1.653399e+06
  -1.330383e+06   1.577285e+06
  -1.798532e+06   6.984415e+05
  -1.015503e+06  -4.139372e+05
   1.616288e+05  -9.798872e+05
   6.557036e+05  -6.636409e+05
   2.096509e+05   1.003966e+05
  -5.090422e+05   4.963339e+05
  -7.116480e+05   1.546622e+05
  -2.642311e+05  -4.346442e+05
   2.941658e+05  -4.815304e+05
   3.580404e+05   1.199417e+05
  -1.657506e+05   5.746647e+05
  -7.825835e+05   1.103287e+05
  -8.353345e+05  -1.018527e+06
  -7.863921e+04  -1.702001e+06
   1.046242e+06  -1.171159e+06
   1.706616e+06   1.757099e+05
   1.373206e+06   1.227560e+06
   3.205296e+05   1.289242e+06
  -5.905404e+05   6.321029e+05
  -7.110320e+05   3.586606e+04
  -2.082429e+05  -2.058415e+04
   1.659154e+05   2.988467e+05
  -8.272337e+04   4.924751e+05
  -6.495327e+05   2.613092e+05
  -8.015818e+05  -2.183553e+05
  -2.557460e+05  -4.946112e+05
   4.379691e+05  -3.027732e+05
   4.785991e+05   1.539999e+05
  -2.658270e+05   3.862461e+05
  -1.044264e+06   9.005499e+04
  -9.891475e+05  -5.476613e+05
  -4.033425e+04  -9.959324e+05
   9.761958e+05  -8.435472e+05
   1.185493e+06  -1.780821e+05
   5.120387e+05   4.580615e+05
  -3.169764e+05   5.418652e+05
  -5.348856e+05   7.782629e+04
  -4.214313e+04  -3.820800e+05
   5.936751e+05  -3.032061e+05
   7.376876e+05   2.487615e+05
   2.684006e+05   6.788497e+05
  -3.593976e+05   5.378619e+05
  -5.712504e+05   2.117297e+04
  -2.235307e+05  -2.825382e+05
   2.539484e+05  -6.420343e+04
   2.841593e+05   3.947962e+05
  -2.462306e+05   5.614319e+05
  -8.249193e+05   1.981136e+05
  -8.248442e+05  -4.356235e+05
  -1.755876e+05  -8.380504e+05
   5.439883e+05  -6.963184e+05
   7.077747e+05  -1.466943e+05
   2.729411e+05   3.397810e+05
  -2.382996e+05   3.799075e+05
  -3.293218e+05   3.894340e+04
  -1.352714e+04  -2.580610e+05
   2.847798e+05  -2.038356e+05
   2.262721e+05   5.543650e+04
  -9.521924e+04   1.226851e+05
  -2.707754e+05  -1.519549e+05
  -1.035603e+04  -4.698755e+05
   5.318234e+05  -4.030238e+05
   8.625913e+05   1.391277e+05
   6.138242e+05   7.880708e+05
  -7.880410e+04   1.037386e+06
  -6.870120e+05   6.874535e+05
  -7.992626e+05   1.834412e+04
  -4.909727e+05  -4.608579e+05
  -1.674974e+05  -4.726721e+05
  -9.116531e+04  -2.072931e+05
  -1.380968e+05  -7.720698e+04
  -2.053577e+04  -2.349241e+05
   3.255703e+05  -3.976813e+05
   6.248085e+05  -2.005166e+05
   5.228408e+05   3.243794e+05
  -4.540946e+04   7.111990e+05
  -7.247718e+05   5.267336e+05
  -9.826069e+05  -1.689652e+05
  -5.512253e+05  -8.496995e+05
   3.072475e+05  -9.922323e+05
   9.868128e+05  -5.228050e+05
   1.044086e+06   1.567720e+05
   5.571309e+05   5.558225e+05
  -5.520100e+03   5.244090e+05
  -2.512600e+05   3.262238e+05
  -1.867438e+05   2.960537e+05
  -1.108026e+05   4.486907e+05
  -2.440449e+05   4.722915e+05
  -4.891766e+05   1.190596e+05
  -5.429088e+05  -4.546495e+05
  -2.315355e+05  -7.975189e+05
   2.665513e+05  -6.073516e+05
   5.505114e+05  -2.934563e+04
   3.790292e+05   4.852996e+05
  -7.726248e+04   5.826411e+05
  -3.977447e+05   2.727977e+05
  -3.368833e+05  -1.450508e+05
  -5.527393e+04  -3.746942e+05
   9.530601e+04  -3.518045e+05
  -1.621698e+04  -2.285670e+05
  -1.563439e+05  -1.679396e+05
  -7.728992e+03  -1.710255e+05
   4.370583e+05  -1.080202e+05
   8.025679e+05   1.036671e+05
   6.819813e+05   3.821163e+05
   7.245609e+04   5.432335e+05
  -5.667647e+05   4.628740e+05
  -7.365842e+05   1.852115e+05
  -3.854592e+05  -9.940690e+04
   6.475610e+04  -1.922034e+05
   1.877458e+05  -5.845549e+04
  -1.918502e+04   1.145037e+05
  -2.222565e+05   8.864260e+04
  -1.907794e+05  -1.471519e+05
  -2.852872e+04  -3.246262e+05
   3.098602e+04  -2.050925e+05
  -6.858109e+04   9.057715e+04
  -1.746374e+05   1.850410e+05
  -1.250773e+05  -8.757923e+04
   9.875674e+04  -4.349407e+05
   3.676412e+05  -4.309654e+05
   4.750291e+05  -2.760094e+04
   2.678364e+05   3.810204e+05
  -1.696297e+05   4.061615e+05
  -4.736551e+05   7.038036e+04
  -2.965254e+05  -2.654923e+05
   2.762324e+05  -2.910217e+05
   7.067108e+05  -4.268196e+03
   5.288343e+05   3.457414e+05
  -1.303120e+05   4.849355e+05
  -6.568030e+05   3.134047e+05
  -5.929356e+05  -2.247588e+04
  -9.778791e+04  -2.366973e+05
   2.653149e+05  -1.544930e+05
   1.400186e+05   9.646807e+04
  -2.792624e+05   1.832752e+05
  -4.904810e+05  -8.838165e+04
  -2.150498e+05  -5.262593e+05
   3.308146e+05  -6.905148e+05
   6.692667e+05  -3.222504e+05
   5.298694e+05   3.539623e+05
   7.268590e+04   7.837847e+05
  -3.211799e+05   5.935395e+05
  -4.116113e+05  -2.913797e+04
  -2.345769e+05  -5.050744e+05
   3.075504e+04  -4.526505e+05
   2.210647e+05  -6.397895e+04
   2.452189e+05   1.731622e+05
   1.211986e+05   7.611366e+04
   1.984747e+03  -5.845044e+04
   4.791290e+04   8.803894e+04
   1.923133e+05   3.983259e+05
   1.443969e+05   4.775822e+05
  -2.363395e+05   1.841395e+05
  -6.442383e+05  -2.029175e+05
  -6.077546e+05  -3.626666e+05
  -8.565570e+04  -2.877294e+05
   4.179382e+05  -1.706038e+05
   4.424151e+05  -9.554811e+04
   1.129141e+05  -8.301854e+03
  -8.278291e+04   9.142185e+04
   4.167415e+04   1.207063e+05
   1.739590e+05   7.698682e+04
  -3.890279e+03   5.840846e+04
  -3.499302e+05   7.072907e+04
  -4.377631e+05  -2.848584e+04
  -8.923477e+04  -2.837038e+05
   4.243747e+05  -4.584642e+05
   6.863968e+05  -2.681776e+05
   5.208587e+05   2.263146e+05
   8.253544e+04   6.119567e+05
  -3.189940e+05   5.606464e+05
  -4.472758e+05   1.795764e+05
  -2.844373e+05  -1.375946e+05
  -2.806797e+04  -1.503446e+05
   8.169265e+04   1.074256e+04
  -1.632587e+04   4.866622e+04
  -1.546336e+05  -1.407632e+05
  -1.253758e+05  -3.459134e+05
   9.172126e+04  -2.750247e+05
   2.995234e+05   9.645056e+04
   2.715286e+05   4.491129e+05
  -2.344757e+04   4.322658e+05
  -3.568171e+05   4.230903e+04
  -4.147196e+05  -3.679168e+05
  -1.010677e+05  -4.630541e+05
   3.177444e+05  -2.391313e+05
   4.462172e+05   5.726371e+04
   1.891914e+05   2.241540e+05
  -1.216254e+05   2.332498e+05
  -1.158364e+05   1.428508e+05
   1.569594e+05   2.884936e+04
   2.901139e+05  -1.554236e+03
   4.173124e+04   1.219453e+05
  -3.579010e+05   2.896420e+05
  -4.983619e+05   2.603639e+05
  -2.733189e+05  -3.972044e+04
   5.251186e+04  -3.491953e+05
   1.969770e+05  -3.403237e+05
   1.299513e+05  -2.910813e+04
  -9.943357e+03   2.251741e+05
  -1.150000e+05   1.545496e+05
  -1.498922e+05  -1.123819e+05
  -9.523191e+04  -2.498968e+05
   3.764686e+04  -1.388337e+05
   1.635867e+05   4.285935e+04
   1.850829e+05   9.124325e+04
   1.029580e+05   1.471792e+04
   8.793831e+03  -2.699325e+04
  -3.665489e+04   5.584878e+04
  -6.347651e+04   1.783409e+05
  -1.161765e+05   1.801474e+05
  -1.647063e+05   4.531175e+03
  -1.281353e+05  -2.194246e+05
   2.241763e+04  -2.821378e+05
   1.999938e+05  -1.057372e+05
   2.476993e+05   1.559301e+05
   7.732812e+04   2.645288e+05
  -2.057087e+05   1.435704e+05
  -3.466034e+05  -6.144047e+04
  -1.862005e+05  -1.665258e+05
   1.281301e+05  -1.328487e+05
   2.610346e+05  -4.839870e+04
   7.085979e+04   1.380326e+03
  -1.977128e+05  -1.289686e+04
  -1.916767e+05  -8.365150e+04
   1.169614e+05  -1.520745e+05
   3.877792e+05  -1.037202e+05
