
 $NMID
 id='ANONYMOUS ', fmtdat='(2E16.6)'
 volume=1.0
 tramp=1.0
 $END
   3.382884e+07   6.515080e+05
   2.144870e+07   1.798067e+07
  -1.954602e+06   2.183823e+07
  -1.543461e+07   1.211744e+07
  -1.142333e+07  -6.248814e+05
   2.372868e+05  -5.902756e+06
   6.537930e+06  -1.722921e+06
   3.941169e+06   5.600379e+06
  -2.375021e+06   8.067492e+06
  -6.195903e+06   3.116412e+06
  -5.035155e+06  -4.257236e+06
  -5.523836e+05  -6.517937e+06
   3.043188e+06  -1.507875e+06
   2.260697e+06   5.086090e+06
  -2.131340e+06   5.951959e+06
  -5.376864e+06   1.042109e+05
  -3.633556e+06  -6.555643e+06
   1.897362e+06  -7.996358e+06
   6.435300e+06  -3.774960e+06
   6.568339e+06   1.856272e+06
   3.106623e+06   4.774404e+06
  -3.105316e+05   4.236135e+06
  -7.566966e+05   2.504554e+06
   1.292598e+06   2.207055e+06
   2.307216e+06   3.711688e+06
  -5.827491e+05   4.756972e+06
  -5.773499e+06   3.035312e+06
  -8.143183e+06  -8.692911e+05
  -4.761359e+06  -3.827314e+06
   1.294347e+06  -3.541698e+06
   4.180335e+06  -8.036705e+05
   1.798973e+06   1.724460e+06
  -2.416654e+06   2.039465e+06
  -4.007165e+06  -3.572194e+04
  -2.115312e+06  -2.954240e+06
   7.413252e+05  -4.188025e+06
   2.004918e+06  -2.215529e+06
   1.227335e+06   1.270465e+06
  -2.297828e+05   2.398992e+06
  -6.337385e+05  -2.688939e+05
   6.182748e+05  -3.275775e+06
   2.234454e+06  -2.326402e+06
   2.067657e+06   1.824780e+06
  -4.401447e+05   3.934633e+06
  -3.085414e+06   1.019148e+06
  -2.886615e+06  -3.738190e+06
   6.532037e+05  -4.996127e+06
   4.677949e+06  -1.532897e+06
   5.551353e+06   3.018101e+06
   2.271883e+06   4.688745e+06
  -2.510922e+06   2.802227e+06
  -4.787614e+06  -4.419645e+05
  -2.827975e+06  -2.403569e+06
   1.158715e+06  -1.894873e+06
   3.214332e+06   1.663946e+05
   1.721180e+06   1.585297e+06
  -1.033901e+06   1.003083e+06
  -1.715527e+06  -6.469349e+05
   1.404121e+05  -1.279772e+06
   1.833726e+06  -1.657161e+05
   9.614363e+05   1.354127e+06
  -1.744202e+06   1.578866e+06
  -3.360615e+06   1.076839e+05
  -1.954059e+06  -2.180311e+06
   1.608612e+06  -3.866016e+06
   4.650910e+06  -3.550044e+06
   5.073841e+06  -7.809094e+05
   2.977922e+06   2.943770e+06
   3.200946e+05   4.960322e+06
  -1.011142e+06   4.085643e+06
  -8.958500e+05   1.962697e+06
  -7.228732e+05   9.567639e+05
  -1.520493e+06   1.206171e+06
  -2.714020e+06   8.379903e+05
  -2.888941e+06  -1.054126e+06
  -1.438393e+06  -2.890480e+06
   8.027280e+05  -2.536260e+06
   2.283641e+06   2.605837e+04
   1.873408e+06   2.594091e+06
  -3.118053e+05   2.999070e+06
  -2.754107e+06   1.031244e+06
  -3.512926e+06  -1.652770e+06
  -1.990336e+06  -3.133248e+06
   3.328548e+05  -2.798780e+06
   1.476465e+06  -1.614490e+06
   1.251392e+06  -9.175321e+05
   1.301777e+06  -9.647623e+05
   2.677217e+06  -7.974640e+05
   4.113028e+06   4.797764e+05
   3.398656e+06   2.543239e+06
   1.761713e+05   4.052876e+06
  -3.307766e+06   3.813059e+06
  -4.376090e+06   1.748686e+06
  -2.520274e+06  -9.136940e+05
   2.637806e+05  -2.372567e+06
   1.502960e+06  -1.678103e+06
   5.066688e+05   2.139564e+05
  -1.239425e+06   1.204143e+06
  -1.771572e+06   3.159698e+05
  -6.654436e+05  -1.119266e+06
   6.859077e+05  -1.120455e+06
   7.246718e+05   3.327966e+05
  -5.864576e+05   1.158922e+06
  -1.819832e+06  -1.957476e+05
  -1.569057e+06  -2.707475e+06
   3.077093e+05  -3.844777e+06
   2.652850e+06  -2.318259e+06
   3.868445e+06   7.013958e+05
   3.026662e+06   2.911159e+06
   6.739383e+05   2.994812e+06
  -1.401530e+06   1.512541e+06
  -1.690332e+06   1.080080e+05
  -4.977680e+05  -5.147997e+04
   3.686647e+05   7.453812e+05
  -3.038607e+05   1.218009e+06
  -1.681011e+06   5.560657e+05
  -1.924876e+06  -6.834542e+05
  -4.947848e+05  -1.253920e+06
   1.116641e+06  -6.397678e+05
   1.071455e+06   4.322935e+05
  -7.220161e+05   8.177254e+05
  -2.444801e+06   4.263077e+04
  -2.213720e+06  -1.359885e+06
   1.949559e+04  -2.294510e+06
   2.380007e+06  -1.908118e+06
   2.850759e+06  -3.433531e+05
   1.198689e+06   1.170907e+06
  -8.495947e+05   1.332795e+06
  -1.364235e+06   1.407635e+05
  -8.711226e+04  -9.758167e+05
   1.485199e+06  -6.947628e+05
   1.746385e+06   6.911425e+05
   5.240810e+05   1.641747e+06
  -9.441951e+05   1.173280e+06
  -1.323188e+06  -8.257773e+04
  -4.199541e+05  -7.092925e+05
   6.876139e+05  -9.002373e+04
   6.870188e+05   1.029946e+06
  -6.367034e+05   1.394811e+06
  -2.042547e+06   4.665063e+05
  -2.008111e+06  -1.103341e+06
  -3.747317e+05  -2.059961e+06
   1.384593e+06  -1.647041e+06
   1.710572e+06  -2.819576e+05
   5.837838e+05   8.354032e+05
  -6.223019e+05   8.605777e+05
  -7.488008e+05   6.667838e+04
   2.661390e+04  -5.573404e+05
   6.519317e+05  -4.123686e+05
   4.408508e+05   1.178546e+05
  -2.880559e+05   1.946183e+05
  -6.162109e+05  -4.570301e+05
   5.215450e+04  -1.159311e+06
   1.339165e+06  -9.455312e+05
   2.100807e+06   3.934020e+05
   1.463209e+06   1.957504e+06
  -2.325509e+05   2.496305e+06
  -1.669599e+06   1.574681e+06
  -1.863529e+06  -1.901245e+04
  -1.092665e+06  -1.049645e+06
  -3.924829e+05  -1.000049e+06
  -3.090313e+05  -4.339714e+05
  -4.233575e+05  -2.431852e+05
  -5.824186e+04  -6.372934e+05
   8.233896e+05  -9.504921e+05
   1.513293e+06  -4.409070e+05
   1.222128e+06   7.751443e+05
  -1.544133e+05   1.660723e+06
  -1.772818e+06   1.214784e+06
  -2.357623e+06  -4.612834e+05
  -1.251820e+06  -2.102634e+06
   8.700562e+05  -2.388638e+06
   2.463643e+06  -1.158433e+06
   2.470760e+06   4.989138e+05
   1.216289e+06   1.354844e+06
  -7.701421e+04   1.171948e+06
  -5.459563e+05   7.135688e+05
  -3.553703e+05   7.428955e+05
  -2.462642e+05   1.161088e+06
  -6.418044e+05   1.180118e+06
  -1.230988e+06   2.755323e+05
  -1.314331e+06  -1.124396e+06
  -5.334816e+05  -1.942749e+06
   6.662737e+05  -1.460084e+06
   1.326578e+06  -2.636261e+04
   8.684251e+05   1.229297e+06
  -2.728626e+05   1.404877e+06
  -1.032147e+06   5.626495e+05
  -8.023777e+05  -4.736322e+05
  -3.485451e+04  -9.588489e+05
   3.398335e+05  -8.213484e+05
   2.825875e+03  -5.077270e+05
  -4.000206e+05  -3.911493e+05
  -3.289658e+04  -4.100443e+05
   1.097027e+06  -2.347263e+05
   1.995161e+06   3.062213e+05
   1.638338e+06   9.913203e+05
   8.215621e+04   1.361362e+06
  -1.471664e+06   1.107831e+06
  -1.810504e+06   3.673404e+05
  -8.933589e+05  -3.346774e+05
   2.005857e+05  -4.968075e+05
   4.745108e+05  -1.018493e+05
  -2.483134e+04   3.261138e+05
  -5.090155e+05   2.292330e+05
  -4.673964e+05  -3.559770e+05
  -1.253892e+05  -7.757828e+05
   2.514758e+04  -4.981601e+05
  -1.550333e+05   1.831328e+05
  -3.842174e+05   4.048171e+05
  -3.031970e+05  -2.245503e+05
   2.142730e+05  -1.048162e+06
   9.186621e+05  -1.055793e+06
   1.241697e+06  -8.346885e+04
   7.132335e+05   9.446597e+05
  -4.332914e+05   1.040315e+06
  -1.200802e+06   2.116167e+05
  -7.241929e+05  -6.319733e+05
   6.893654e+05  -6.823953e+05
   1.678573e+06   3.873007e+04
   1.190117e+06   8.563480e+05
  -3.787135e+05   1.113054e+06
  -1.571427e+06   6.570407e+05
  -1.375414e+06  -1.110434e+05
  -1.990141e+05  -5.576178e+05
   6.524299e+05  -3.314129e+05
   3.511172e+05   2.649082e+05
  -6.621651e+05   4.695435e+05
  -1.199739e+06  -1.866923e+05
  -5.641738e+05  -1.265606e+06
   7.554557e+05  -1.693656e+06
   1.597628e+06  -8.091511e+05
   1.277112e+06   8.416432e+05
   1.698316e+05   1.878542e+06
  -7.823361e+05   1.392624e+06
  -9.771479e+05  -1.169903e+05
  -5.124267e+05  -1.226765e+06
   1.370516e+05  -1.057748e+06
   5.521264e+05  -1.240873e+05
   5.514617e+05   4.132634e+05
   2.488124e+05   1.706287e+05
   2.028931e+04  -1.236697e+05
   1.699178e+05   2.519898e+05
   4.727376e+05   9.811322e+05
   2.833603e+05   1.137241e+06
  -6.319732e+05   4.194458e+05
  -1.537918e+06  -5.015544e+05
  -1.407761e+06  -8.815503e+05
  -1.947258e+05  -7.057378e+05
   9.680224e+05  -4.137800e+05
   1.051074e+06  -2.069810e+05
   3.059267e+05   1.142604e+04
  -1.845304e+05   2.229685e+05
   5.319974e+04   2.590027e+05
   3.710902e+05   1.556132e+05
   1.158826e+04   1.442488e+05
  -7.929347e+05   1.944476e+05
  -1.067899e+06  -6.049728e+04
  -2.903744e+05  -7.055529e+05
   9.834110e+05  -1.140405e+06
   1.702471e+06  -6.763653e+05
   1.327469e+06   5.273757e+05
   2.176431e+05   1.473072e+06
  -7.930191e+05   1.371874e+06
  -1.091334e+06   4.688677e+05
  -6.850343e+05  -3.062713e+05
  -8.960808e+04  -3.706079e+05
   1.558198e+05  -1.079491e+04
  -5.369767e+04   7.988593e+04
  -3.466563e+05  -3.569626e+05
  -2.764905e+05  -8.382886e+05
   2.178741e+05  -6.767043e+05
   7.180427e+05   2.015120e+05
   6.870931e+05   1.057731e+06
  -2.977346e+03   1.055965e+06
  -8.358407e+05   1.530035e+05
  -1.022318e+06  -8.456778e+05
  -2.772828e+05  -1.126161e+06
   7.644149e+05  -6.176304e+05
   1.108009e+06   1.271132e+05
   4.844316e+05   5.832403e+05
  -3.047551e+05   6.131239e+05
  -3.274741e+05   3.520841e+05
   3.333593e+05   4.545931e+04
   6.912472e+05  -1.323031e+04
   1.170560e+05   3.055427e+05
  -8.660717e+05   6.925759e+05
  -1.243053e+06   5.883563e+05
  -7.036824e+05  -1.379613e+05
   1.257109e+05  -8.627495e+05
   5.198171e+05  -8.381496e+05
   3.644319e+05  -1.007500e+05
   3.131351e+03   5.273505e+05
  -2.712703e+05   4.010446e+05
  -3.640009e+05  -2.290401e+05
  -2.375886e+05  -6.036728e+05
   8.301839e+04  -3.755953e+05
   3.989615e+05   8.564543e+04
   4.593313e+05   2.517066e+05
   2.469795e+05   6.149764e+04
   3.260389e+03  -1.009469e+05
  -8.310342e+04   6.638920e+04
  -9.255639e+04   4.094418e+05
  -2.014558e+05   4.895128e+05
  -3.778926e+05   9.085362e+04
  -3.710105e+05  -4.846035e+05
  -2.283614e+04  -6.824430e+05
   4.637262e+05  -2.799914e+05
   6.316756e+05   3.503492e+05
   2.121059e+05   6.252915e+05
  -5.111219e+05   3.541072e+05
  -8.667117e+05  -1.306039e+05
  -4.638819e+05  -4.027012e+05
   3.126475e+05  -3.533947e+05
   6.456706e+05  -1.556727e+05
   2.044016e+05  -1.597234e+03
  -4.344147e+05   6.372874e+03
  -4.484631e+05  -1.528671e+05
   2.423790e+05  -3.422295e+05
   8.746263e+05  -2.588059e+05
