
 $NMID
 id='ANONYMOUS ', fmtdat='(2E16.6)'
 volume=1.0
 tramp=1.0
 $END
   5.234108e+07  -5.099049e+05
   3.174481e+07   3.195286e+07
  -6.504899e+06   3.536981e+07
  -2.535365e+07   1.394342e+07
  -1.531824e+07  -6.191590e+06
   2.918361e+06  -8.657363e+06
   9.091468e+06   9.394030e+05
   2.743426e+06   8.972331e+06
  -5.551142e+06   8.777568e+06
  -8.901392e+06   2.023925e+06
  -6.600005e+06  -5.686455e+06
  -8.834892e+05  -8.026177e+06
   3.707804e+06  -2.602869e+06
   2.575266e+06   5.068942e+06
  -3.370232e+06   6.182083e+06
  -7.320269e+06  -1.116992e+06
  -4.269531e+06  -9.422027e+06
   3.359281e+06  -1.101287e+07
   9.333215e+06  -5.602846e+06
   1.008156e+07   1.817025e+06
   6.206829e+06   6.923982e+06
   6.789270e+05   8.018927e+06
  -2.646572e+06   5.588355e+06
  -1.601220e+06   2.470384e+06
   1.175469e+06   2.022445e+06
   3.232292e+05   3.972284e+06
  -5.045520e+06   4.228767e+06
  -9.084316e+06   5.927962e+05
  -6.646896e+06  -3.792882e+06
  -2.536049e+05  -4.762520e+06
   3.517035e+06  -2.463557e+06
   2.363268e+06   9.465732e+03
  -5.786474e+05   9.921052e+05
  -2.214022e+06   5.489977e+05
  -2.146130e+06  -1.355663e+06
  -7.012084e+05  -3.743486e+06
   1.669018e+06  -3.623794e+06
   3.016233e+06   1.261441e+05
   1.590679e+06   3.405458e+06
  -7.493625e+05   1.751732e+06
  -3.698370e+05  -2.367984e+06
   2.260516e+06  -2.222319e+06
   2.324908e+06   2.922110e+06
  -2.149391e+06   5.701390e+06
  -6.393456e+06   9.953548e+05
  -4.805294e+06  -6.372839e+06
   1.676041e+06  -7.921109e+06
   6.879926e+06  -2.329566e+06
   6.562473e+06   4.037487e+06
   1.848127e+06   5.592376e+06
  -3.186279e+06   2.609996e+06
  -4.950319e+06  -1.303456e+06
  -2.347464e+06  -3.191308e+06
   2.197628e+06  -2.079187e+06
   4.224042e+06   7.852482e+05
   1.857909e+06   2.492383e+06
  -1.578086e+06   1.297528e+06
  -1.653874e+06  -9.201788e+05
   1.174122e+06  -8.772746e+05
   2.299137e+06   1.547470e+06
  -5.049344e+05   3.138084e+06
  -4.226307e+06   1.802421e+06
  -4.919314e+06  -1.164791e+06
  -2.208906e+06  -3.646603e+06
   1.622592e+06  -4.951817e+06
   4.650173e+06  -4.622632e+06
   5.798290e+06  -1.714494e+06
   4.329492e+06   2.922105e+06
   9.664221e+05   5.783503e+06
  -1.644599e+06   4.498217e+06
  -1.587300e+06   1.196608e+06
  -1.489553e+05  -1.723951e+05
  -5.422049e+03   9.791803e+05
  -1.549215e+06   1.724297e+06
  -2.699831e+06   2.412463e+05
  -1.969710e+06  -1.839806e+06
  -5.067881e+04  -2.073803e+06
   1.505090e+06  -2.417252e+05
   1.660563e+06   1.947670e+06
   5.682999e+04   2.795303e+06
  -2.603447e+06   1.604419e+06
  -4.237927e+06  -1.075388e+06
  -3.067484e+06  -3.500754e+06
  -5.251377e+03  -3.957627e+06
   2.097154e+06  -2.558306e+06
   2.059255e+06  -1.089964e+06
   1.695877e+06  -6.824873e+05
   2.763590e+06  -5.212625e+05
   4.127891e+06   6.284565e+05
   3.358247e+06   2.549781e+06
   2.078370e+05   3.915503e+06
  -2.973700e+06   3.772954e+06
  -3.941524e+06   2.095119e+06
  -2.544054e+06  -3.658708e+05
  -2.943860e+05  -2.139914e+06
   1.027551e+06  -1.865551e+06
   5.405472e+05   3.001032e+04
  -1.016898e+06   1.269959e+06
  -1.805845e+06   4.121554e+05
  -8.919122e+05  -1.133252e+06
   4.757180e+05  -1.076710e+06
   4.236263e+05   3.529780e+05
  -9.746558e+05   6.864249e+05
  -1.762606e+06  -1.156662e+06
  -6.896668e+05  -3.256630e+06
   1.398356e+06  -3.254626e+06
   2.919620e+06  -1.141079e+06
   3.171209e+06   1.274557e+06
   2.242209e+06   2.566793e+06
   4.981734e+05   2.480082e+06
  -1.156007e+06   1.424404e+06
  -1.505213e+06   2.482977e+05
  -4.711157e+05  -3.430612e+04
   3.563057e+05   7.105291e+05
  -3.704089e+05   1.282780e+06
  -1.806337e+06   5.822327e+05
  -1.951037e+06  -8.086856e+05
  -3.916262e+05  -1.340376e+06
   1.106234e+06  -5.670018e+05
   8.593180e+05   4.135905e+05
  -7.917473e+05   5.125258e+05
  -2.080877e+06  -2.546445e+05
  -1.694786e+06  -1.250733e+06
   1.905474e+05  -1.883079e+06
   2.167291e+06  -1.625894e+06
   2.642270e+06  -3.149366e+05
   1.183288e+06   1.185970e+06
  -8.539610e+05   1.448815e+06
  -1.486686e+06   2.047840e+05
  -2.088459e+05  -1.031191e+06
   1.436776e+06  -7.314191e+05
   1.654394e+06   7.148037e+05
   3.523719e+05   1.568528e+06
  -1.021096e+06   9.495768e+05
  -1.201637e+06  -2.742542e+05
  -2.468194e+05  -7.386806e+05
   7.600747e+05  -6.426978e+04
   7.237684e+05   9.950248e+05
  -5.244802e+05   1.374674e+06
  -1.911790e+06   5.580661e+05
  -1.968057e+06  -9.666536e+05
  -4.051835e+05  -1.977551e+06
   1.347425e+06  -1.596152e+06
   1.645579e+06  -2.312893e+05
   4.945493e+05   8.202675e+05
  -6.144942e+05   7.791215e+05
  -6.043420e+05   8.776927e+04
   1.019948e+05  -3.435927e+05
   4.597341e+05  -2.116963e+05
   1.181264e+05   5.140130e+04
  -4.232045e+05  -7.125752e+04
  -5.004243e+05  -6.316497e+05
   1.779770e+05  -1.134425e+06
   1.304369e+06  -8.795372e+05
   1.997414e+06   3.575021e+05
   1.437250e+06   1.831442e+06
  -1.602417e+05   2.318756e+06
  -1.513440e+06   1.380182e+06
  -1.613164e+06  -8.600976e+04
  -8.382229e+05  -8.337425e+05
  -3.239450e+05  -6.126244e+05
  -4.671575e+05  -2.038087e+05
  -6.046859e+05  -2.939179e+05
  -9.767994e+04  -7.306395e+05
   8.203194e+05  -8.750053e+05
   1.374381e+06  -3.371709e+05
   1.015775e+06   6.659727e+05
  -2.081370e+05   1.394849e+06
  -1.621890e+06   1.056360e+06
  -2.155965e+06  -4.182537e+05
  -1.120987e+06  -1.983796e+06
   9.231308e+05  -2.276276e+06
   2.409510e+06  -1.028859e+06
   2.253816e+06   5.862417e+05
   9.355200e+05   1.255209e+06
  -1.751647e+05   9.015518e+05
  -3.552342e+05   4.967396e+05
  -5.770013e+04   7.293592e+05
  -7.665517e+04   1.257255e+06
  -6.202504e+05   1.245105e+06
  -1.232966e+06   3.278869e+05
  -1.301123e+06  -1.007626e+06
  -5.700825e+05  -1.800956e+06
   5.660342e+05  -1.387021e+06
   1.227934e+06  -2.268470e+04
   7.982449e+05   1.211332e+06
  -3.490400e+05   1.338734e+06
  -1.101840e+06   4.031861e+05
  -7.823739e+05  -6.555135e+05
   1.035956e+05  -1.028180e+06
   5.006290e+05  -7.516652e+05
   7.249418e+04  -3.954529e+05
  -4.230033e+05  -3.125635e+05
  -6.595944e+04  -3.655577e+05
   1.094721e+06  -2.206008e+05
   1.979782e+06   2.810391e+05
   1.564493e+06   9.610909e+05
  -1.364632e+04   1.371236e+06
  -1.501736e+06   1.118558e+06
  -1.744434e+06   2.975491e+05
  -8.008112e+05  -4.589861e+05
   2.422944e+05  -5.492330e+05
   4.877117e+05  -3.921773e+04
   3.635339e+04   4.062783e+05
  -4.174419e+05   2.587273e+05
  -4.684195e+05  -3.175115e+05
  -2.629162e+05  -6.884214e+05
  -1.063742e+05  -4.593193e+05
  -1.263925e+05   9.058105e+04
  -2.543748e+05   2.840127e+05
  -2.666773e+05  -2.163569e+05
   1.110031e+05  -9.461987e+05
   8.385857e+05  -1.039107e+06
   1.307527e+06  -1.958324e+05
   8.411807e+05   8.604642e+05
  -3.760572e+05   1.104085e+06
  -1.203317e+06   3.532648e+05
  -7.164054e+05  -5.307902e+05
   6.591272e+05  -6.324496e+05
   1.515982e+06   6.160093e+04
   9.691135e+05   8.023166e+05
  -4.470807e+05   9.461891e+05
  -1.416591e+06   4.785494e+05
  -1.173486e+06  -1.600930e+05
  -1.355287e+05  -4.852956e+05
   6.151507e+05  -2.664330e+05
   3.757117e+05   2.772146e+05
  -5.456181e+05   5.194354e+05
  -1.138242e+06  -4.308441e+04
  -6.813357e+05  -1.114477e+06
   5.139687e+05  -1.652774e+06
   1.396521e+06  -8.935018e+05
   1.223056e+06   6.909646e+05
   2.392230e+05   1.708574e+06
  -6.764825e+05   1.250107e+06
  -8.852484e+05  -1.549896e+05
  -4.312202e+05  -1.129879e+06
   1.977258e+05  -9.230729e+05
   5.383373e+05  -8.742900e+04
   4.466887e+05   3.462961e+05
   1.506509e+05   1.220364e+05
   4.741684e+04  -8.828289e+04
   2.876532e+05   2.868674e+05
   5.155673e+05   9.176022e+05
   1.959671e+05   1.022560e+06
  -6.889832e+05   3.889347e+05
  -1.421124e+06  -4.090896e+05
  -1.232912e+06  -7.676618e+05
  -1.916270e+05  -6.668037e+05
   7.954189e+05  -4.265066e+05
   9.325168e+05  -1.949642e+05
   3.554546e+05   5.149041e+04
  -1.291709e+05   2.221855e+05
  -4.241423e+04   1.867344e+05
   2.417613e+05   7.141304e+04
   5.879134e+04   1.265461e+05
  -6.110281e+05   2.542474e+05
  -1.007072e+06   2.270030e+04
  -4.592305e+05  -6.596522e+05
   7.592334e+05  -1.166977e+06
   1.623299e+06  -7.843908e+05
   1.390239e+06   3.671964e+05
   3.121809e+05   1.338870e+06
  -7.023224e+05   1.346780e+06
  -9.938711e+05   5.595392e+05
  -6.346409e+05  -1.925216e+05
  -1.471078e+05  -3.416812e+05
   5.086988e+04  -8.016482e+04
  -8.136121e+04   4.182836e+03
  -2.887480e+05  -3.484533e+05
  -2.526975e+05  -7.669934e+05
   1.483346e+05  -6.620506e+05
   6.555380e+05   8.072093e+04
   7.529943e+05   8.782405e+05
   1.659960e+05   9.920034e+05
  -7.051054e+05   2.838781e+05
  -1.025725e+06  -6.403875e+05
  -3.828570e+05  -1.037591e+06
   6.615042e+05  -6.892127e+05
   1.087166e+06   3.126563e+04
   5.395650e+05   5.869998e+05
  -2.580860e+05   6.790537e+05
  -3.704728e+05   3.671370e+05
   2.193859e+05  -9.537601e+03
   6.173455e+05  -6.247676e+04
   1.568242e+05   2.956896e+05
  -7.702569e+05   6.748679e+05
  -1.206158e+06   5.408814e+05
  -7.547421e+05  -1.644722e+05
   6.388974e+04  -8.455812e+05
   5.211258e+05  -8.451117e+05
   4.254272e+05  -1.809910e+05
   7.924589e+04   4.511679e+05
  -2.128563e+05   4.374168e+05
  -3.441320e+05  -1.109776e+05
  -2.661454e+05  -5.453342e+05
   3.355420e+04  -4.295873e+05
   3.787007e+05   2.156642e+04
   4.707175e+05   2.674639e+05
   2.345947e+05   9.627599e+04
  -4.557955e+04  -1.589928e+05
  -7.714250e+04  -6.954851e+04
   5.148125e+04   3.300742e+05
   5.806444e+03   5.556602e+05
  -2.910593e+05   2.573596e+05
  -4.815597e+05  -3.285118e+05
  -2.077833e+05  -6.176622e+05
   3.722174e+05  -3.271600e+05
   6.624220e+05   2.335659e+05
   2.749821e+05   5.349420e+05
  -4.807760e+05   3.708705e+05
  -8.630215e+05  -3.395402e+04
  -4.792798e+05  -3.459783e+05
   2.697824e+05  -4.097807e+05
   6.132577e+05  -2.595074e+05
   2.561596e+05  -2.780000e+04
  -3.095336e+05   9.713586e+04
  -3.875439e+05  -2.263467e+04
   1.308860e+05  -2.741003e+05
   6.736315e+05  -2.917536e+05
