
 $NMID
 id='ANONYMOUS ', fmtdat='(2E16.6)'
 volume=1.0
 tramp=1.0
 $END
   3.893285e+07  -1.833022e+06
   2.582831e+07   2.053666e+07
  -1.633216e+06   2.598060e+07
  -1.775950e+07   1.381885e+07
  -1.298473e+07  -1.527236e+06
   6.006280e+05  -6.882117e+06
   7.430795e+06  -1.379465e+06
   4.044872e+06   6.538393e+06
  -2.994165e+06   8.622308e+06
  -6.973694e+06   3.204676e+06
  -5.694834e+06  -4.435746e+06
  -9.067282e+05  -6.931565e+06
   3.125157e+06  -1.924493e+06
   2.475177e+06   5.055804e+06
  -2.324217e+06   6.211786e+06
  -6.027863e+06   5.719152e+04
  -4.205742e+06  -7.235758e+06
   1.879697e+06  -9.018286e+06
   7.025060e+06  -4.662271e+06
   7.589874e+06   1.440251e+06
   4.223215e+06   5.072432e+06
   3.326490e+05   5.197693e+06
  -9.644876e+05   3.495797e+06
   6.216116e+05   2.486294e+06
   1.993278e+06   3.338607e+06
  -3.010749e+05   4.543629e+06
  -5.479783e+06   3.454711e+06
  -8.376762e+06  -2.380379e+05
  -5.382432e+06  -3.603240e+06
   7.317652e+05  -3.804440e+06
   3.903576e+06  -1.286654e+06
   1.871815e+06   1.210445e+06
  -1.992615e+06   1.700526e+06
  -3.532420e+06   7.353053e+04
  -2.090489e+06  -2.509492e+06
   3.057197e+05  -4.015320e+06
   1.774441e+06  -2.625183e+06
   1.646704e+06   8.171933e+05
   3.749508e+05   2.551079e+06
  -5.229820e+05   2.807698e+05
   3.589761e+05  -3.009070e+06
   2.216407e+06  -2.376101e+06
   2.278831e+06   2.061748e+06
  -6.688235e+05   4.575319e+06
  -3.960878e+06   1.344725e+06
  -3.703260e+06  -4.254117e+06
   5.910405e+05  -5.905710e+06
   5.205613e+06  -2.032123e+06
   6.018233e+06   3.110547e+06
   2.360004e+06   4.950889e+06
  -2.662173e+06   2.886728e+06
  -4.951217e+06  -5.499456e+05
  -2.842543e+06  -2.601997e+06
   1.385466e+06  -2.062675e+06
   3.558734e+06   1.816383e+05
   1.875566e+06   1.786643e+06
  -1.142230e+06   1.152431e+06
  -1.749769e+06  -6.901800e+05
   4.153420e+05  -1.266420e+06
   2.098436e+06   2.054810e+05
   7.505649e+05   1.923744e+06
  -2.359050e+06   1.881205e+06
  -3.895081e+06  -2.794321e+04
  -2.201859e+06  -2.520317e+06
   1.453648e+06  -4.226864e+06
   4.529756e+06  -3.974813e+06
   5.223014e+06  -1.207192e+06
   3.427618e+06   2.793717e+06
   6.703227e+05   5.165817e+06
  -1.059635e+06   4.302901e+06
  -1.095643e+06   1.853721e+06
  -6.406112e+05   6.450215e+05
  -1.127621e+06   1.080864e+06
  -2.350483e+06   1.053418e+06
  -2.794611e+06  -6.735552e+05
  -1.577525e+06  -2.570506e+06
   5.650760e+05  -2.392544e+06
   2.082112e+06  -3.559109e+04
   1.845182e+06   2.423649e+06
  -1.655529e+05   2.953170e+06
  -2.673761e+06   1.242577e+06
  -3.730570e+06  -1.380922e+06
  -2.392271e+06  -3.130628e+06
   9.359785e+04  -3.110638e+06
   1.542802e+06  -1.959259e+06
   1.439737e+06  -1.063196e+06
   1.416589e+06  -9.612366e+05
   2.729079e+06  -8.021046e+05
   4.180355e+06   4.262348e+05
   3.481197e+06   2.493567e+06
   2.696451e+05   4.050239e+06
  -3.167357e+06   3.891666e+06
  -4.237738e+06   1.924793e+06
  -2.529670e+06  -7.195685e+05
   8.369983e+04  -2.298241e+06
   1.339814e+06  -1.740669e+06
   5.102847e+05   1.547940e+05
  -1.161404e+06   1.244143e+06
  -1.782954e+06   3.860848e+05
  -7.568126e+05  -1.101451e+06
   6.159943e+05  -1.117872e+06
   6.615596e+05   3.493905e+05
  -7.047518e+05   1.089545e+06
  -1.901662e+06  -4.128530e+05
  -1.458686e+06  -2.908942e+06
   5.527548e+05  -3.817502e+06
   2.784678e+06  -2.114236e+06
   3.783052e+06   8.210225e+05
   2.891547e+06   2.838110e+06
   6.647572e+05   2.886771e+06
  -1.321953e+06   1.518095e+06
  -1.644357e+06   1.708771e+05
  -4.950922e+05  -3.779250e+04
   3.832627e+05   7.364722e+05
  -2.921094e+05   1.259142e+06
  -1.715996e+06   6.159080e+05
  -1.975161e+06  -6.777796e+05
  -5.063443e+05  -1.285655e+06
   1.117182e+06  -6.508292e+05
   1.035071e+06   4.249073e+05
  -7.529347e+05   7.690864e+05
  -2.396483e+06  -5.878141e+03
  -2.123147e+06  -1.333515e+06
   4.302716e+04  -2.223146e+06
   2.325160e+06  -1.891671e+06
   2.817806e+06  -3.890697e+05
   1.233750e+06   1.159621e+06
  -8.198202e+05   1.395473e+06
  -1.401062e+06   1.989774e+05
  -1.456859e+05  -9.887360e+05
   1.468742e+06  -7.412082e+05
   1.756795e+06   6.714117e+05
   5.156303e+05   1.639535e+06
  -9.642149e+05   1.152863e+06
  -1.320492e+06  -1.135953e+05
  -3.959415e+05  -7.281803e+05
   7.149095e+05  -1.051935e+05
   7.254546e+05   1.013529e+06
  -5.830866e+05   1.410769e+06
  -2.011394e+06   5.330075e+05
  -2.032906e+06  -1.034988e+06
  -4.276798e+05  -2.047627e+06
   1.354190e+06  -1.678651e+06
   1.706886e+06  -3.055067e+05
   5.829894e+05   8.329700e+05
  -6.136045e+05   8.606997e+05
  -7.150215e+05   7.791014e+04
   5.109610e+04  -5.141774e+05
   6.149577e+05  -3.643810e+05
   3.588328e+05   1.168587e+05
  -3.425095e+05   1.449537e+05
  -6.168727e+05  -5.014207e+05
   5.983001e+04  -1.175548e+06
   1.326225e+06  -9.667898e+05
   2.101229e+06   3.465736e+05
   1.507077e+06   1.911618e+06
  -1.712819e+05   2.473864e+06
  -1.623160e+06   1.565498e+06
  -1.821228e+06  -1.270267e+04
  -1.043812e+06  -9.967431e+05
  -3.714924e+05  -9.033489e+05
  -3.462068e+05  -3.576973e+05
  -4.854931e+05  -2.346393e+05
  -9.229238e+04  -6.636695e+05
   8.135495e+05  -9.596916e+05
   1.489478e+06  -4.438260e+05
   1.190453e+06   7.406936e+05
  -1.510309e+05   1.615307e+06
  -1.734472e+06   1.215766e+06
  -2.335769e+06  -4.147077e+05
  -1.269831e+06  -2.073485e+06
   8.459217e+05  -2.407574e+06
   2.457118e+06  -1.189024e+06
   2.456402e+06   4.863470e+05
   1.177886e+06   1.335585e+06
  -9.752227e+04   1.121702e+06
  -5.012778e+05   6.613384e+05
  -2.640105e+05   7.317075e+05
  -1.692934e+05   1.190316e+06
  -6.098234e+05   1.222141e+06
  -1.233207e+06   3.209472e+05
  -1.341027e+06  -1.075140e+06
  -5.826302e+05  -1.909397e+06
   6.182396e+05  -1.462976e+06
   1.313564e+06  -4.866468e+04
   8.858900e+05   1.222238e+06
  -2.681438e+05   1.413819e+06
  -1.060396e+06   5.557087e+05
  -8.306630e+05  -5.092733e+05
  -2.653994e+04  -9.969658e+05
   3.721794e+05  -8.318989e+05
   1.840090e+04  -4.885457e+05
  -4.132176e+05  -3.627159e+05
  -4.842773e+04  -3.988639e+05
   1.102895e+06  -2.592552e+05
   2.016505e+06   2.566061e+05
   1.656262e+06   9.607015e+05
   9.019708e+04   1.383632e+06
  -1.467755e+06   1.158788e+06
  -1.808065e+06   3.895310e+05
  -8.954393e+05  -3.575538e+05
   1.977384e+05  -5.237385e+05
   4.853197e+05  -9.859227e+04
   5.511730e+03   3.460903e+05
  -4.816152e+05   2.439827e+05
  -4.775006e+05  -3.379758e+05
  -1.745486e+05  -7.461720e+05
  -1.810310e+04  -4.828339e+05
  -1.518801e+05   1.619652e+05
  -3.538899e+05   3.758908e+05
  -3.018362e+05  -2.202039e+05
   1.719179e+05  -1.028755e+06
   8.831593e+05  -1.077812e+06
   1.261130e+06  -1.489845e+05
   7.701628e+05   9.048150e+05
  -3.927937e+05   1.073501e+06
  -1.197171e+06   2.799901e+05
  -7.361737e+05  -5.948695e+05
   6.760104e+05  -6.897488e+05
   1.654795e+06   1.850279e+04
   1.159297e+06   8.400147e+05
  -3.875385e+05   1.094267e+06
  -1.544772e+06   6.409979e+05
  -1.342214e+06  -1.088702e+05
  -1.914992e+05  -5.444201e+05
   6.466172e+05  -3.297749e+05
   3.684307e+05   2.608241e+05
  -6.229893e+05   4.938935e+05
  -1.188517e+06  -1.271805e+05
  -6.186661e+05  -1.215586e+06
   6.622703e+05  -1.698182e+06
   1.534276e+06  -8.611404e+05
   1.283189e+06   7.841925e+05
   2.206460e+05   1.842515e+06
  -7.405970e+05   1.378667e+06
  -9.683963e+05  -1.125606e+05
  -5.172102e+05  -1.207876e+06
   1.405244e+05  -1.040889e+06
   5.542337e+05  -1.275794e+05
   5.336321e+05   3.951451e+05
   2.253431e+05   1.616000e+05
   2.766011e+04  -1.180776e+05
   2.117089e+05   2.503948e+05
   5.068224e+05   9.595929e+05
   2.804035e+05   1.118546e+06
  -6.461102e+05   4.349820e+05
  -1.526649e+06  -4.551785e+05
  -1.387029e+06  -8.409798e+05
  -2.094708e+05  -6.981210e+05
   9.209842e+05  -4.302869e+05
   1.026207e+06  -2.211472e+05
   3.256879e+05   1.093968e+04
  -1.664818e+05   2.247847e+05
   2.865063e+04   2.487229e+05
   3.374745e+05   1.364766e+05
   2.633992e+04   1.370734e+05
  -7.431943e+05   2.164646e+05
  -1.057314e+06  -1.872210e+04
  -3.511746e+05  -6.800444e+05
   9.046883e+05  -1.164060e+06
   1.673900e+06  -7.456658e+05
   1.357061e+06   4.536510e+05
   2.689752e+05   1.439437e+06
  -7.464974e+05   1.390540e+06
  -1.058128e+06   5.157449e+05
  -6.767526e+05  -2.670242e+05
  -1.122789e+05  -3.600407e+05
   1.236702e+05  -2.463525e+04
  -6.581577e+04   6.407814e+04
  -3.425418e+05  -3.548366e+05
  -2.869452e+05  -8.233166e+05
   1.869475e+05  -6.792186e+05
   7.037762e+05   1.596295e+05
   7.219735e+05   9.992522e+05
   6.159985e+04   1.036030e+06
  -7.953156e+05   1.984682e+05
  -1.036868e+06  -7.751950e+05
  -3.276016e+05  -1.098861e+06
   7.243636e+05  -6.526671e+05
   1.108960e+06   7.839113e+04
   5.181467e+05   5.743085e+05
  -2.756428e+05   6.404097e+05
  -3.328353e+05   3.708931e+05
   3.029219e+05   3.255378e+04
   6.742743e+05  -3.689196e+04
   1.352727e+05   3.000007e+05
  -8.344012e+05   7.075287e+05
  -1.235731e+06   6.079735e+05
  -7.297331e+05  -1.256857e+05
   9.158481e+04  -8.648202e+05
   5.050564e+05  -8.608144e+05
   3.754676e+05  -1.366852e+05
   2.973733e+04   5.061432e+05
  -2.460195e+05   4.164790e+05
  -3.582475e+05  -1.929034e+05
  -2.571351e+05  -5.863148e+05
   5.745890e+04  -3.917200e+05
   3.944305e+05   6.169838e+04
   4.741824e+05   2.467000e+05
   2.504141e+05   6.652842e+04
  -1.677221e+04  -1.135775e+05
  -9.176278e+04   3.235157e+04
  -5.191649e+04   3.829998e+05
  -1.314370e+05   5.000502e+05
  -3.429768e+05   1.379725e+05
  -4.029821e+05  -4.302496e+05
  -8.317688e+04  -6.565914e+05
   4.336136e+05  -2.989417e+05
   6.450906e+05   3.053814e+05
   2.384801e+05   5.974802e+05
  -4.984893e+05   3.717875e+05
  -8.697743e+05  -8.603795e+04
  -4.775776e+05  -3.794916e+05
   2.915251e+05  -3.758594e+05
   6.314804e+05  -1.974455e+05
   2.180219e+05  -1.759120e+04
  -3.981090e+05   3.068837e+04
  -4.298206e+05  -1.141401e+05
   2.126301e+05  -3.242420e+05
   8.211909e+05  -2.745412e+05
