
 $NMID
 id='ANONYMOUS ', fmtdat='(2E16.6)'
 volume=1.0
 tramp=1.0
 $END
   2.744082e+07   3.427341e+06
   1.553684e+07   1.592494e+07
  -3.333024e+06   1.705873e+07
  -1.292982e+07   8.664287e+06
  -8.820565e+06  -9.074843e+05
   4.838162e+05  -4.532874e+06
   5.144889e+06  -1.165421e+06
   2.894212e+06   4.514482e+06
  -2.121360e+06   6.369286e+06
  -5.040211e+06   2.239825e+06
  -3.873685e+06  -3.800441e+06
  -9.930643e+04  -5.441438e+06
   2.672169e+06  -1.043003e+06
   1.729129e+06   4.383574e+06
  -1.922621e+06   4.812899e+06
  -4.293238e+06  -1.877432e+05
  -2.545648e+06  -5.514037e+06
   2.038544e+06  -6.347950e+06
   5.527779e+06  -2.592477e+06
   5.260391e+06   2.100673e+06
   2.073733e+06   4.278740e+06
  -8.142361e+05   3.419489e+06
  -8.936460e+05   1.713741e+06
   1.174243e+06   1.601225e+06
   2.063215e+06   3.188741e+06
  -6.143441e+05   4.123110e+06
  -5.112986e+06   2.377713e+06
  -6.912832e+06  -1.160053e+06
  -3.778735e+06  -3.551644e+06
   1.412208e+06  -3.016382e+06
   3.745921e+06  -5.100157e+05
   1.592713e+06   1.667241e+06
  -2.108673e+06   1.884899e+06
  -3.538283e+06  -1.458473e+04
  -1.842530e+06  -2.650427e+06
   7.964941e+05  -3.667060e+06
   1.909828e+06  -1.749215e+06
   9.936688e+05   1.349069e+06
  -4.755391e+05   2.126071e+06
  -7.130320e+05  -3.804169e+05
   5.928416e+05  -2.889858e+06
   1.939528e+06  -1.894943e+06
   1.563086e+06   1.556606e+06
  -5.562376e+05   3.026892e+06
  -2.424417e+06   4.473524e+05
  -1.946244e+06  -3.259262e+06
   9.204334e+05  -3.910342e+06
   3.927422e+06  -8.885681e+05
   4.422972e+06   2.744431e+06
   1.709655e+06   3.920281e+06
  -2.139441e+06   2.229127e+06
  -3.924096e+06  -4.808127e+05
  -2.259962e+06  -2.014247e+06
   9.886936e+05  -1.447097e+06
   2.579377e+06   2.984409e+05
   1.303350e+06   1.344660e+06
  -8.971020e+05   7.418363e+05
  -1.401354e+06  -5.745720e+05
   5.630376e+04  -9.977090e+05
   1.355222e+06  -1.428019e+05
   6.849806e+05   9.195530e+05
  -1.386673e+06   1.023836e+06
  -2.614318e+06  -8.330332e+04
  -1.422277e+06  -1.829278e+06
   1.573835e+06  -3.138079e+06
   4.124822e+06  -2.782671e+06
   4.340075e+06  -3.775764e+05
   2.337228e+06   2.699262e+06
   3.627472e+02   4.196720e+06
  -9.757930e+05   3.321618e+06
  -6.964681e+05   1.604594e+06
  -5.623798e+05   9.080348e+05
  -1.386787e+06   1.130221e+06
  -2.467508e+06   6.821092e+05
  -2.537291e+06  -1.036077e+06
  -1.191851e+06  -2.593011e+06
   7.611885e+05  -2.221340e+06
   1.995590e+06   3.335305e+04
   1.573412e+06   2.260424e+06
  -3.569446e+05   2.563283e+06
  -2.414422e+06   7.637374e+05
  -2.918323e+06  -1.602944e+06
  -1.479242e+06  -2.778701e+06
   4.969046e+05  -2.307240e+06
   1.344018e+06  -1.196957e+06
   1.047750e+06  -6.465636e+05
   1.073581e+06  -7.525232e+05
   2.246337e+06  -5.993865e+05
   3.433262e+06   5.201485e+05
   2.786370e+06   2.239318e+06
   3.707619e+04   3.429035e+06
  -2.916630e+06   3.145102e+06
  -3.796908e+06   1.360391e+06
  -2.145193e+06  -8.817748e+05
   3.060040e+05  -2.057543e+06
   1.363515e+06  -1.400892e+06
   4.354855e+05   2.107913e+05
  -1.100504e+06   9.935663e+05
  -1.508512e+06   2.023767e+05
  -5.105944e+05  -9.838191e+05
   6.209349e+05  -9.448374e+05
   6.166905e+05   2.728989e+05
  -4.603935e+05   9.498862e+05
  -1.438156e+06  -1.558331e+05
  -1.240247e+06  -2.208932e+06
   2.521753e+05  -3.158736e+06
   2.174071e+06  -1.917852e+06
   3.222786e+06   6.051065e+05
   2.540844e+06   2.487768e+06
   5.370677e+05   2.556194e+06
  -1.231951e+06   1.259941e+06
  -1.450829e+06   4.884880e+04
  -4.205597e+05  -5.689946e+04
   2.918963e+05   6.399645e+05
  -2.952361e+05   1.006194e+06
  -1.427412e+06   4.033721e+05
  -1.586239e+06  -6.292939e+05
  -3.758846e+05  -1.056066e+06
   9.541044e+05  -5.101341e+05
   9.042681e+05   3.779448e+05
  -5.992716e+05   6.794417e+05
  -2.053909e+06   1.548178e+04
  -1.865265e+06  -1.168806e+06
   3.581611e+04  -1.940204e+06
   2.047499e+06  -1.572232e+06
   2.420388e+06  -2.243868e+05
   9.728477e+05   1.019819e+06
  -7.668805e+05   1.088652e+06
  -1.151485e+06   6.106266e+04
  -3.064527e+04  -8.328069e+05
   1.278326e+06  -5.422582e+05
   1.452753e+06   6.248350e+05
   4.086454e+05   1.386248e+06
  -8.047757e+05   9.652494e+05
  -1.100687e+06  -8.682019e+04
  -3.394128e+05  -5.920931e+05
   5.755851e+05  -4.980281e+04
   5.490796e+05   8.939895e+05
  -5.829987e+05   1.167778e+06
  -1.750835e+06   3.384284e+05
  -1.673137e+06  -9.941091e+05
  -2.592140e+05  -1.753694e+06
   1.213027e+06  -1.351308e+06
   1.447601e+06  -1.945613e+05
   4.725678e+05   7.136767e+05
  -5.432165e+05   7.113205e+05
  -6.435511e+05   4.549314e+04
   1.435538e+04  -4.749598e+05
   5.543446e+05  -3.585490e+05
   3.941731e+05   8.585446e+04
  -2.145288e+05   1.590132e+05
  -4.956590e+05  -3.811891e+05
   6.836753e+04  -9.639728e+05
   1.151610e+06  -7.633407e+05
   1.766729e+06   3.866548e+05
   1.186658e+06   1.697342e+06
  -2.585529e+05   2.112289e+06
  -1.444135e+06   1.301936e+06
  -1.577021e+06  -4.432257e+04
  -9.240232e+05  -9.053582e+05
  -3.411582e+05  -8.705522e+05
  -2.593811e+05  -4.034990e+05
  -3.334143e+05  -2.313927e+05
  -1.894895e+04  -5.361216e+05
   7.143410e+05  -7.804310e+05
   1.285659e+06  -3.457478e+05
   1.028769e+06   6.758432e+05
  -1.509639e+05   1.404587e+06
  -1.523029e+06   9.937771e+05
  -1.987539e+06  -4.425379e+05
  -1.010037e+06  -1.802899e+06
   7.906223e+05  -1.986895e+06
   2.100238e+06  -9.141536e+05
   2.070080e+06   4.687141e+05
   1.009634e+06   1.156830e+06
  -6.856908e+04   9.915237e+05
  -4.721410e+05   6.156144e+05
  -3.383694e+05   6.438047e+05
  -2.617760e+05   9.803082e+05
  -5.834103e+05   9.722737e+05
  -1.049573e+06   1.915080e+05
  -1.084601e+06  -9.921365e+05
  -4.018339e+05  -1.663898e+06
   6.042064e+05  -1.223196e+06
   1.123472e+06   8.266977e+03
   7.001794e+05   1.055698e+06
  -2.611776e+05   1.171469e+06
  -8.667205e+05   4.457624e+05
  -6.454139e+05  -4.099740e+05
  -2.386988e+03  -7.911118e+05
   2.945435e+05  -6.704534e+05
   2.925457e+03  -4.276099e+05
  -3.310420e+05  -3.480948e+05
  -1.768879e+04  -3.519047e+05
   9.293732e+05  -1.658602e+05
   1.673943e+06   3.176310e+05
   1.357027e+06   8.787430e+05
   3.314457e+04   1.139241e+06
  -1.271638e+06   8.851221e+05
  -1.532892e+06   2.652011e+05
  -7.360311e+05  -2.925073e+05
   1.861728e+05  -4.051611e+05
   3.958439e+05  -7.409541e+04
  -4.185051e+04   2.745300e+05
  -4.435542e+05   1.843990e+05
  -3.862416e+05  -3.160775e+05
  -8.214610e+04  -6.749567e+05
   4.047514e+04  -4.333068e+05
  -1.289525e+05   1.578601e+05
  -3.321477e+05   3.489917e+05
  -2.517583e+05  -1.949916e+05
   2.082256e+05  -8.919321e+05
   8.083164e+05  -8.701467e+05
   1.054612e+06  -2.029842e+04
   5.724421e+05   8.337935e+05
  -4.054007e+05   8.644586e+05
  -1.030422e+06   1.333916e+05
  -6.006704e+05  -5.591435e+05
   5.979721e+05  -5.596361e+05
   1.419658e+06   6.634945e+04
   9.947039e+05   7.391599e+05
  -3.323909e+05   9.293633e+05
  -1.335326e+06   5.313486e+05
  -1.162312e+06  -1.128463e+05
  -1.614359e+05  -4.738878e+05
   5.555076e+05  -2.668578e+05
   2.850967e+05   2.352292e+05
  -5.833665e+05   3.834472e+05
  -1.021764e+06  -1.961146e+05
  -4.441055e+05  -1.102638e+06
   6.976585e+05  -1.428328e+06
   1.389386e+06  -6.469729e+05
   1.067272e+06   7.509650e+05
   9.830319e+04   1.603395e+06
  -6.935011e+05   1.167513e+06
  -8.211990e+05  -1.168977e+05
  -4.086451e+05  -1.046523e+06
   1.308651e+05  -8.890240e+05
   4.660612e+05  -9.149460e+04
   4.645632e+05   3.587655e+05
   2.148720e+05   1.449526e+05
   1.587980e+04  -1.030836e+05
   1.251665e+05   2.261744e+05
   3.719149e+05   8.481286e+05
   2.203766e+05   9.647978e+05
  -5.384161e+05   3.306979e+05
  -1.295459e+06  -4.631214e+05
  -1.179988e+06  -7.749875e+05
  -1.466418e+05  -6.020626e+05
   8.389942e+05  -3.346788e+05
   8.971832e+05  -1.545488e+05
   2.504960e+05   2.097305e+04
  -1.653529e+05   1.873591e+05
   4.954005e+04   2.150381e+05
   3.235132e+05   1.351378e+05
   4.314845e+03   1.273177e+05
  -6.900071e+05   1.533596e+05
  -9.087963e+05  -8.229816e+04
  -2.174293e+05  -6.212924e+05
   8.782214e+05  -9.499780e+05
   1.468542e+06  -5.192624e+05
   1.112984e+06   4.993357e+05
   1.459030e+05   1.263676e+06
  -7.119088e+05   1.141288e+06
  -9.472603e+05   3.657405e+05
  -5.813128e+05  -2.805468e+05
  -6.361886e+04  -3.218805e+05
   1.443286e+05  -1.005717e+04
  -3.886816e+04   6.765152e+04
  -2.854911e+05  -3.060607e+05
  -2.157598e+05  -7.162474e+05
   2.066209e+05  -5.706520e+05
   6.136300e+05   1.926854e+05
   5.595486e+05   9.282157e+05
  -3.845205e+04   9.086222e+05
  -7.284361e+05   1.080176e+05
  -8.542982e+05  -7.553983e+05
  -2.015744e+05  -9.716629e+05
   6.749860e+05  -5.023764e+05
   9.392914e+05   1.440571e+05
   3.867598e+05   5.105075e+05
  -2.839150e+05   5.075206e+05
  -2.851331e+05   2.817587e+05
   2.912535e+05   4.095997e+04
   5.914308e+05   5.633044e+03
   8.792387e+04   2.650419e+05
  -7.540961e+05   5.671395e+05
  -1.062047e+06   4.643869e+05
  -5.827664e+05  -1.404242e+05
   1.338630e+05  -7.294135e+05
   4.633598e+05  -6.895460e+05
   3.136370e+05  -6.338755e+04
  -1.066371e+04   4.557689e+05
  -2.473122e+05   3.327786e+05
  -3.117932e+05  -2.090105e+05
  -1.856575e+05  -5.215620e+05
   8.917071e+04  -3.150954e+05
   3.405339e+05   8.606149e+04
   3.770265e+05   2.258219e+05
   2.035945e+05   5.592742e+04
   1.412219e+04  -8.595844e+04
  -5.965137e+04   6.215813e+04
  -9.150520e+04   3.601703e+05
  -2.029699e+05   4.214221e+05
  -3.416399e+05   6.319602e+04
  -3.057059e+05  -4.388555e+05
   6.354448e+03  -5.964017e+05
   4.087348e+05  -2.275220e+05
   5.303686e+05   3.238092e+05
   1.644822e+05   5.441320e+05
  -4.443419e+05   2.846492e+05
  -7.350545e+05  -1.414280e+05
  -3.828516e+05  -3.578290e+05
   2.816878e+05  -2.887557e+05
   5.599279e+05  -1.084387e+05
   1.714351e+05   1.120193e+04
  -3.819703e+05  -1.523176e+03
  -3.888069e+05  -1.443681e+05
   2.147401e+05  -2.953766e+05
   7.593655e+05  -2.083995e+05
