
 $NMID
 id='ANONYMOUS ', fmtdat='(2E16.6)'
 volume=1.0
 tramp=1.0
 $END
  -5.638991e+07   1.980796e+06
  -3.522748e+07  -3.403342e+07
   6.252716e+06  -3.864912e+07
   2.738949e+07  -1.546892e+07
   1.684617e+07   6.771274e+06
  -3.124445e+06   9.536114e+06
  -9.983178e+06  -1.079962e+06
  -2.987706e+06  -9.833297e+06
   6.111181e+06  -9.483921e+06
   9.676824e+06  -2.187258e+06
   7.135675e+06   5.980840e+06
   1.036895e+06   8.502641e+06
  -3.853197e+06   2.860229e+06
  -2.680323e+06  -5.278345e+06
   3.665517e+06  -6.565284e+06
   7.940236e+06   1.161642e+06
   4.717802e+06   1.009369e+07
  -3.452085e+06   1.190889e+07
  -9.902974e+06   6.233623e+06
  -1.085914e+07  -1.639104e+06
  -6.939356e+06  -7.200765e+06
  -1.099904e+06  -8.663392e+06
   2.707522e+06  -6.297541e+06
   1.954280e+06  -2.859496e+06
  -9.444443e+05  -2.053841e+06
  -3.281492e+05  -3.986724e+06
   5.113850e+06  -4.431018e+06
   9.445919e+06  -7.872685e+05
   7.095899e+06   3.829113e+06
   4.975783e+05   4.951803e+06
  -3.469164e+06   2.650599e+06
  -2.364974e+06   1.969021e+05
   5.229162e+05  -7.569714e+05
   2.080712e+06  -4.514277e+05
   2.086798e+06   1.265510e+06
   8.105016e+05   3.733736e+06
  -1.603171e+06   3.881062e+06
  -3.221000e+06   1.271985e+05
  -1.911331e+06  -3.498933e+06
   6.204395e+05  -2.036733e+06
   3.851361e+05   2.292188e+06
  -2.387147e+06   2.295869e+06
  -2.532259e+06  -3.152720e+06
   2.293691e+06  -6.270306e+06
   7.015272e+06  -1.295220e+06
   5.405457e+06   6.774804e+06
  -1.639769e+06   8.644672e+06
  -7.346116e+06   2.665497e+06
  -7.016836e+06  -4.270493e+06
  -1.930049e+06  -5.980079e+06
   3.429674e+06  -2.743989e+06
   5.252943e+06   1.467336e+06
   2.451184e+06   3.470029e+06
  -2.396110e+06   2.267214e+06
  -4.560980e+06  -8.194994e+05
  -2.017693e+06  -2.692545e+06
   1.684221e+06  -1.421876e+06
   1.738059e+06   1.005263e+06
  -1.373062e+06   9.611788e+05
  -2.592597e+06  -1.761358e+06
   5.335351e+05  -3.585838e+06
   4.653353e+06  -2.101916e+06
   5.399913e+06   1.234921e+06
   2.440397e+06   3.945576e+06
  -1.629433e+06   5.267914e+06
  -4.786972e+06   4.900692e+06
  -6.051049e+06   1.909718e+06
  -4.632478e+06  -2.953718e+06
  -1.108868e+06  -6.066314e+06
   1.773500e+06  -4.782684e+06
   1.804207e+06  -1.224302e+06
   1.996091e+05   3.465911e+05
  -1.187898e+05  -8.607062e+05
   1.431298e+06  -1.771074e+06
   2.681987e+06  -3.452522e+05
   1.999452e+06   1.779980e+06
   8.110860e+04   2.039646e+06
  -1.469700e+06   1.964689e+05
  -1.638196e+06  -1.999402e+06
  -5.762846e+04  -2.863382e+06
   2.660775e+06  -1.699756e+06
   4.435475e+06   1.027518e+06
   3.319253e+06   3.613122e+06
   1.184913e+05   4.216119e+06
  -2.182189e+06   2.807700e+06
  -2.222167e+06   1.215204e+06
  -1.840477e+06   7.085823e+05
  -2.922573e+06   5.049842e+05
  -4.319723e+06  -6.984154e+05
  -3.484116e+06  -2.689311e+06
  -1.799300e+05  -4.071816e+06
   3.100661e+06  -3.882732e+06
   4.053246e+06  -2.154020e+06
   2.604601e+06   3.427053e+05
   3.266866e+05   2.160906e+06
  -1.020536e+06   1.914675e+06
  -5.500711e+05  -1.385648e+04
   1.042251e+06  -1.304278e+06
   1.882261e+06  -4.297581e+05
   9.465797e+05   1.169746e+06
  -4.872592e+05   1.096124e+06
  -4.110075e+05  -4.017020e+05
   1.105184e+06  -6.977143e+05
   1.914619e+06   1.322048e+06
   6.590638e+05   3.540353e+06
  -1.646522e+06   3.428135e+06
  -3.190604e+06   1.076685e+06
  -3.283657e+06  -1.474131e+06
  -2.211754e+06  -2.732204e+06
  -4.375842e+05  -2.556565e+06
   1.199896e+06  -1.447283e+06
   1.541123e+06  -2.457028e+05
   4.871211e+05   3.976541e+04
  -3.623152e+05  -7.419388e+05
   3.967160e+05  -1.348983e+06
   1.899881e+06  -6.088484e+05
   2.044631e+06   8.684277e+05
   3.963088e+05   1.420052e+06
  -1.164771e+06   5.753122e+05
  -8.709364e+05  -4.560017e+05
   8.655814e+05  -5.054705e+05
   2.161444e+06   3.438574e+05
   1.698149e+06   1.354435e+06
  -2.673105e+05   1.938730e+06
  -2.278326e+06   1.633876e+06
  -2.741724e+06   2.880155e+05
  -1.226328e+06  -1.249100e+06
   8.914453e+05  -1.518061e+06
   1.559477e+06  -2.207367e+05
   2.277427e+05   1.072198e+06
  -1.496769e+06   7.523326e+05
  -1.714595e+06  -7.688141e+05
  -3.324443e+05  -1.648077e+06
   1.100997e+06  -9.682050e+05
   1.257577e+06   3.255903e+05
   2.372366e+05   7.918207e+05
  -8.039880e+05   6.558805e+04
  -7.491563e+05  -1.037293e+06
   5.478794e+05  -1.419271e+06
   1.978211e+06  -5.663722e+05
   2.031012e+06   1.012859e+06
   4.044453e+05   2.055965e+06
  -1.418623e+06   1.647916e+06
  -1.717153e+06   2.186136e+05
  -4.996535e+05  -8.663182e+05
   6.538705e+05  -7.997192e+05
   6.148679e+05  -7.579616e+04
  -1.365155e+05   3.436340e+05
  -4.808984e+05   1.798479e+05
  -8.451280e+04  -7.779035e+04
   4.794867e+05   9.132970e+04
   5.226757e+05   6.909801e+05
  -2.084636e+05   1.192172e+06
  -1.370299e+06   8.993420e+05
  -2.068902e+06  -3.929992e+05
  -1.473309e+06  -1.911498e+06
   1.925348e+05  -2.394642e+06
   1.591551e+06  -1.395953e+06
   1.664057e+06   1.308793e+05
   8.234391e+05   8.776035e+05
   2.911996e+05   6.087179e+05
   4.810345e+05   1.780381e+05
   6.523399e+05   2.993391e+05
   1.097630e+05   7.691678e+05
  -8.688288e+05   8.999953e+05
  -1.432628e+06   3.194714e+05
  -1.025092e+06  -7.100725e+05
   2.567026e+05  -1.432837e+06
   1.699796e+06  -1.061740e+06
   2.223418e+06   4.658183e+05
   1.132142e+06   2.078827e+06
  -9.953695e+05   2.363312e+06
  -2.528944e+06   1.039015e+06
  -2.334644e+06  -6.566386e+05
  -9.300865e+05  -1.332668e+06
   2.240935e+05  -9.215803e+05
   3.750172e+05  -4.765003e+05
   3.644709e+04  -7.320562e+05
   6.273672e+04  -1.305860e+06
   6.479502e+05  -1.299916e+06
   1.284693e+06  -3.391192e+05
   1.339015e+06   1.050335e+06
   5.730635e+05   1.866223e+06
  -5.972201e+05   1.427215e+06
  -1.272348e+06   5.518847e+03
  -8.160332e+05  -1.274794e+06
   3.875638e+05  -1.395391e+06
   1.174862e+06  -4.034637e+05
   8.269887e+05   7.100339e+05
  -1.229183e+05   1.092457e+06
  -5.506478e+05   7.890192e+05
  -9.593379e+04   4.073241e+05
   4.345095e+05   3.190229e+05
   6.565955e+04   3.744646e+05
  -1.145362e+06   2.211396e+05
  -2.060926e+06  -3.058996e+05
  -1.616240e+06  -1.017962e+06
   3.265536e+04  -1.441313e+06
   1.577567e+06  -1.161102e+06
   1.822823e+06  -2.851850e+05
   8.348639e+05   5.059673e+05
  -2.560988e+05   5.808641e+05
  -5.165387e+05   3.245430e+04
  -4.889688e+04  -4.267688e+05
   4.253666e+05  -2.616989e+05
   4.832782e+05   3.305951e+05
   2.756120e+05   6.987360e+05
   1.176254e+05   4.640280e+05
   1.381996e+05  -8.168216e+04
   2.655930e+05  -2.704956e+05
   2.726279e+05   2.302322e+05
  -1.212407e+05   9.671499e+05
  -8.760616e+05   1.069972e+06
  -1.362709e+06   2.129934e+05
  -8.774319e+05  -8.836585e+05
   3.884697e+05  -1.151185e+06
   1.245694e+06  -3.751299e+05
   7.339951e+05   5.494406e+05
  -6.939537e+05   6.477511e+05
  -1.567640e+06  -9.217640e+04
  -9.786317e+05  -8.592138e+05
   4.956326e+05  -9.740039e+05
   1.482892e+06  -4.572508e+05
   1.207933e+06   1.989779e+05
   1.249385e+05   5.060833e+05
  -6.462859e+05   2.637563e+05
  -3.939292e+05  -2.910304e+05
   5.567429e+05  -5.327394e+05
   1.168367e+06   4.399937e+04
   7.014072e+05   1.141893e+06
  -5.272020e+05   1.695160e+06
  -1.435670e+06   9.129447e+05
  -1.252429e+06  -7.194154e+05
  -2.291828e+05  -1.761446e+06
   7.172812e+05  -1.275961e+06
   9.172344e+05   1.803221e+05
   4.250758e+05   1.180190e+06
  -2.315336e+05   9.542173e+05
  -5.646515e+05   8.253966e+04
  -4.470395e+05  -3.675541e+05
  -1.419001e+05  -1.326613e+05
  -5.616640e+04   9.071969e+04
  -3.135402e+05  -2.940869e+05
  -5.302799e+05  -9.510300e+05
  -1.778764e+05  -1.065256e+06
   7.305893e+05  -4.034142e+05
   1.460176e+06   4.383380e+05
   1.253328e+06   8.145513e+05
   1.915225e+05   6.937310e+05
  -8.145021e+05   4.249883e+05
  -9.638551e+05   1.848324e+05
  -3.794870e+05  -5.567231e+04
   1.308112e+05  -2.257836e+05
   6.200909e+04  -1.961370e+05
  -2.309228e+05  -7.968751e+04
  -6.368510e+04  -1.263710e+05
   6.155481e+05  -2.503883e+05
   1.037553e+06  -1.953080e+04
   4.877730e+05   6.714334e+05
  -7.753481e+05   1.194815e+06
  -1.681899e+06   8.112393e+05
  -1.440250e+06  -3.707638e+05
  -3.137957e+05  -1.377354e+06
   7.355705e+05  -1.390112e+06
   1.023062e+06  -5.774492e+05
   6.455143e+05   1.984802e+05
   1.543845e+05   3.494565e+05
  -3.652782e+04   8.065788e+04
   9.482601e+04   1.329379e+03
   2.923411e+05   3.702934e+05
   2.494127e+05   7.974198e+05
  -1.537604e+05   6.821477e+05
  -6.661906e+05  -8.235031e+04
  -7.699805e+05  -8.976375e+05
  -1.776614e+05  -1.014474e+06
   7.125318e+05  -2.926204e+05
   1.047573e+06   6.543679e+05
   3.950167e+05   1.066952e+06
  -6.781691e+05   7.126380e+05
  -1.123676e+06  -3.232161e+04
  -5.651970e+05  -6.117937e+05
   2.632419e+05  -7.095118e+05
   3.923140e+05  -3.862434e+05
  -2.123219e+05   3.465459e+03
  -6.327826e+05   5.911714e+04
  -1.648172e+05  -3.050495e+05
   8.006367e+05  -6.884509e+05
   1.263533e+06  -5.480064e+05
   7.944152e+05   1.748697e+05
  -6.784900e+04   8.747613e+05
  -5.493425e+05   8.794516e+05
  -4.441133e+05   1.998667e+05
  -8.028538e+04  -4.566732e+05
   2.158802e+05  -4.534382e+05
   3.454662e+05   1.080314e+05
   2.715497e+05   5.625201e+05
  -2.793003e+04   4.491259e+05
  -3.871516e+05  -2.049231e+04
  -4.921596e+05  -2.830199e+05
  -2.462003e+05  -1.068195e+05
   5.686001e+04   1.676742e+05
   9.209003e+04   8.755374e+04
  -5.875427e+04  -3.234307e+05
  -2.950405e+04  -5.675556e+05
   2.812663e+05  -2.755412e+05
   4.971769e+05   3.200639e+05
   2.254699e+05   6.224073e+05
  -3.771048e+05   3.352546e+05
  -6.821766e+05  -2.336310e+05
  -2.813738e+05  -5.452824e+05
   4.998056e+05  -3.827297e+05
   8.913294e+05   3.190530e+04
   4.942259e+05   3.572785e+05
  -2.748560e+05   4.276635e+05
  -6.290125e+05   2.742173e+05
  -2.704217e+05   3.474025e+04
   3.026273e+05  -9.686947e+04
   3.860619e+05   1.871598e+04
  -1.335191e+05   2.679019e+05
  -6.816763e+05   2.845457e+05
