
 $NMID
 id='ANONYMOUS ', fmtdat='(2E16.6)'
 volume=1.0
 tramp=1.0
 $END
   4.937875e+07   1.161266e+05
   2.995604e+07   2.996585e+07
  -5.989682e+06   3.321891e+07
  -2.396799e+07   1.354270e+07
  -1.478534e+07  -5.408566e+06
   2.538528e+06  -8.252445e+06
   8.763727e+06   5.640097e+05
   2.910860e+06   8.522200e+06
  -5.167480e+06   8.705850e+06
  -8.552965e+06   2.148495e+06
  -6.302986e+06  -5.547953e+06
  -7.247864e+05  -7.819554e+06
   3.630279e+06  -2.374992e+06
   2.439779e+06   5.147953e+06
  -3.283388e+06   6.159823e+06
  -7.041808e+06  -9.851068e+05
  -4.096797e+06  -9.038133e+06
   3.236611e+06  -1.053422e+07
   8.930965e+06  -5.229462e+06
   9.489671e+06   1.919024e+06
   5.631886e+06   6.610559e+06
   4.717167e+05   7.381435e+06
  -2.337353e+06   5.084411e+06
  -1.132272e+06   2.500289e+06
   1.296751e+06   2.397584e+06
   6.341153e+04   4.120301e+06
  -5.256483e+06   3.927207e+06
  -8.947644e+06   1.912549e+05
  -6.283458e+06  -3.894502e+06
   7.530167e+04  -4.534445e+06
   3.656872e+06  -2.095649e+06
   2.225643e+06   3.447391e+05
  -9.637468e+05   1.119082e+06
  -2.543879e+06   3.507980e+05
  -2.081329e+06  -1.691225e+06
  -3.636277e+05  -3.818549e+06
   1.765884e+06  -3.355750e+06
   2.679320e+06   3.336100e+05
   1.242263e+06   3.223402e+06
  -7.049003e+05   1.391611e+06
  -1.223783e+05  -2.524463e+06
   2.317668e+06  -2.215287e+06
   2.273952e+06   2.782661e+06
  -1.912643e+06   5.438193e+06
  -5.866922e+06   9.875949e+05
  -4.456719e+06  -5.979374e+06
   1.565261e+06  -7.454771e+06
   6.555348e+06  -2.141205e+06
   6.384117e+06   3.977848e+06
   1.859353e+06   5.519463e+06
  -3.143882e+06   2.623591e+06
  -4.958907e+06  -1.247598e+06
  -2.414228e+06  -3.132225e+06
   2.061131e+06  -2.050822e+06
   4.077569e+06   7.293386e+05
   1.827127e+06   2.378519e+06
  -1.507648e+06   1.240506e+06
  -1.667600e+06  -9.111493e+05
   1.026685e+06  -9.649807e+05
   2.255719e+06   1.281188e+06
  -2.507479e+05   2.876779e+06
  -3.839769e+06   1.771846e+06
  -4.692994e+06  -9.902732e+05
  -2.155560e+06  -3.444350e+06
   1.691972e+06  -4.763272e+06
   4.738510e+06  -4.376373e+06
   5.714433e+06  -1.472410e+06
   4.062883e+06   2.987490e+06
   7.735372e+05   5.676275e+06
  -1.615292e+06   4.445218e+06
  -1.520784e+06   1.333984e+06
  -2.841709e+05   8.643814e+03
  -3.027567e+05   9.805354e+05
  -1.775051e+06   1.512659e+06
  -2.718145e+06  -4.650526e+04
  -1.821239e+06  -2.062603e+06
   1.557918e+05  -2.146152e+06
   1.651810e+06  -1.425292e+05
   1.653568e+06   2.115899e+06
  -6.832559e+04   2.841697e+06
  -2.662087e+06   1.459161e+06
  -4.100568e+06  -1.244643e+06
  -2.841851e+06  -3.485118e+06
   9.433840e+04  -3.768388e+06
   2.020360e+06  -2.387408e+06
   1.944734e+06  -1.053206e+06
   1.659330e+06  -7.182560e+05
   2.786897e+06  -5.248923e+05
   4.148302e+06   6.841846e+05
   3.342014e+06   2.632163e+06
   1.251293e+05   3.971784e+06
  -3.128220e+06   3.741110e+06
  -4.077222e+06   1.960149e+06
  -2.534312e+06  -5.143316e+05
  -1.485616e+05  -2.185509e+06
   1.149751e+06  -1.811131e+06
   5.318779e+05   7.255762e+04
  -1.086427e+06   1.241066e+06
  -1.817592e+06   3.644150e+05
  -8.364970e+05  -1.148903e+06
   5.387185e+05  -1.076476e+06
   4.743790e+05   3.696009e+05
  -9.401548e+05   7.695215e+05
  -1.793690e+06  -1.028425e+06
  -8.075138e+05  -3.222419e+06
   1.293162e+06  -3.391310e+06
   2.951238e+06  -1.313260e+06
   3.312906e+06   1.262703e+06
   2.339853e+06   2.713913e+06
   4.703781e+05   2.605340e+06
  -1.238118e+06   1.421155e+06
  -1.549632e+06   1.907381e+05
  -4.780905e+05  -4.733472e+04
   3.464637e+05   7.291893e+05
  -3.837180e+05   1.275549e+06
  -1.807375e+06   5.511964e+05
  -1.948922e+06  -8.285743e+05
  -3.898530e+05  -1.345262e+06
   1.129418e+06  -5.625541e+05
   8.950951e+05   4.431975e+05
  -8.045271e+05   5.582592e+05
  -2.165964e+06  -2.540572e+05
  -1.773144e+06  -1.327820e+06
   2.098365e+05  -1.972346e+06
   2.260908e+06  -1.640634e+06
   2.705730e+06  -2.657133e+05
   1.172514e+06   1.214802e+06
  -8.833666e+05   1.422384e+06
  -1.477383e+06   1.702602e+05
  -1.705112e+05  -1.028973e+06
   1.468777e+06  -7.012809e+05
   1.670039e+06   7.501431e+05
   3.535122e+05   1.605054e+06
  -1.039796e+06   9.793896e+05
  -1.232795e+06  -2.686974e+05
  -2.662384e+05  -7.489056e+05
   7.549479e+05  -5.698635e+04
   7.025870e+05   1.021470e+06
  -5.752934e+05   1.375150e+06
  -1.957178e+06   5.054661e+05
  -1.967151e+06  -1.036867e+06
  -3.625858e+05  -2.013551e+06
   1.395794e+06  -1.590159e+06
   1.675057e+06  -2.087662e+05
   4.978843e+05   8.410549e+05
  -6.378218e+05   7.873151e+05
  -6.355646e+05   6.846961e+04
   1.026298e+05  -3.849266e+05
   5.080071e+05  -2.344760e+05
   1.738436e+05   7.611037e+04
  -4.091132e+05  -2.780439e+04
  -5.184760e+05  -6.180565e+05
   1.789133e+05  -1.147872e+06
   1.338936e+06  -8.721471e+05
   2.022808e+06   4.076038e+05
   1.413888e+06   1.895540e+06
  -2.237965e+05   2.362251e+06
  -1.584648e+06   1.391535e+06
  -1.670194e+06  -1.129619e+05
  -8.673732e+05  -9.021450e+05
  -3.149703e+05  -6.945785e+05
  -4.313530e+05  -2.503564e+05
  -5.728225e+05  -2.927992e+05
  -8.057779e+04  -7.199820e+05
   8.457189e+05  -8.794852e+05
   1.419048e+06  -3.280870e+05
   1.044381e+06   7.159724e+05
  -2.346087e+05   1.450533e+06
  -1.685812e+06   1.057234e+06
  -2.198750e+06  -4.761068e+05
  -1.111362e+06  -2.045040e+06
   9.671367e+05  -2.297332e+06
   2.460489e+06  -1.012230e+06
   2.300765e+06   6.244330e+05
   9.656680e+05   1.308722e+06
  -1.844241e+05   9.562635e+05
  -4.081088e+05   5.265062e+05
  -1.255807e+05   7.267813e+05
  -1.283597e+05   1.242548e+06
  -6.502252e+05   1.230197e+06
  -1.246266e+06   2.976275e+05
  -1.290323e+06  -1.060997e+06
  -5.291647e+05  -1.849234e+06
   6.167128e+05  -1.396420e+06
   1.255165e+06   2.891372e+03
   7.931436e+05   1.240823e+06
  -3.654454e+05   1.356183e+06
  -1.110145e+06   4.159351e+05
  -7.849989e+05  -6.433090e+05
   9.693728e+04  -1.025755e+06
   4.920458e+05  -7.652074e+05
   7.159860e+04  -4.191971e+05
  -4.136959e+05  -3.361461e+05
  -5.229988e+04  -3.764185e+05
   1.107834e+06  -2.040226e+05
   1.991104e+06   3.255221e+05
   1.570117e+06   1.005540e+06
  -2.234511e+04   1.382385e+06
  -1.528345e+06   1.097405e+06
  -1.776910e+06   2.770632e+05
  -8.184165e+05  -4.582706e+05
   2.453839e+05  -5.406573e+05
   4.916609e+05  -4.189319e+04
   2.059435e+04   3.937170e+05
  -4.407543e+05   2.446300e+05
  -4.644738e+05  -3.354922e+05
  -2.245940e+05  -7.097234e+05
  -7.378469e+04  -4.675170e+05
  -1.370292e+05   1.045245e+05
  -2.886375e+05   2.988487e+05
  -2.709462e+05  -2.256151e+05
   1.512706e+05  -9.661494e+05
   8.793091e+05  -1.031494e+06
   1.305733e+06  -1.545849e+05
   8.056977e+05   8.937831e+05
  -4.079450e+05   1.091995e+06
  -1.214012e+06   3.079444e+05
  -7.098834e+05  -5.665378e+05
   6.828917e+05  -6.326173e+05
   1.555721e+06   9.171364e+04
   9.988591e+05   8.431116e+05
  -4.612696e+05   9.766456e+05
  -1.469321e+06   4.823064e+05
  -1.216711e+06  -1.810493e+05
  -1.364062e+05  -5.063421e+05
   6.334456e+05  -2.671605e+05
   3.692320e+05   2.834497e+05
  -5.787486e+05   5.004067e+05
  -1.152333e+06  -9.251425e+04
  -6.396407e+05  -1.158910e+06
   5.933947e+05  -1.654976e+06
   1.456948e+06  -8.523296e+05
   1.223924e+06   7.477556e+05
   1.909756e+05   1.753845e+06
  -7.284689e+05   1.268652e+06
  -9.064556e+05  -1.689834e+05
  -4.244843e+05  -1.166241e+06
   2.100848e+05  -9.521107e+05
   5.476237e+05  -8.399682e+04
   4.600379e+05   3.725658e+05
   1.654282e+05   1.375625e+05
   4.570939e+04  -9.518307e+04
   2.644542e+05   2.845317e+05
   4.923696e+05   9.441356e+05
   1.900260e+05   1.057015e+06
  -6.922355e+05   3.859928e+05
  -1.441805e+06  -4.591563e+05
  -1.255110e+06  -8.224547e+05
  -1.797797e+05  -6.824040e+05
   8.397334e+05  -4.069365e+05
   9.646228e+05  -1.771921e+05
   3.495431e+05   4.988838e+04
  -1.442199e+05   2.197655e+05
  -3.146381e+04   2.031849e+05
   2.626413e+05   9.560443e+04
   4.786846e+04   1.303040e+05
  -6.509331e+05   2.282095e+05
  -1.023204e+06  -1.294122e+04
  -4.186013e+05  -6.761122e+05
   8.260691e+05  -1.149463e+06
   1.660871e+06  -7.377343e+05
   1.377360e+06   4.227905e+05
   2.681046e+05   1.375641e+06
  -7.499563e+05   1.345111e+06
  -1.026367e+06   5.256711e+05
  -6.411357e+05  -2.278310e+05
  -1.305740e+05  -3.503740e+05
   6.930798e+04  -6.413962e+04
  -7.948999e+04   1.704585e+04
  -2.943580e+05  -3.598437e+05
  -2.420450e+05  -7.909339e+05
   1.748481e+05  -6.645725e+05
   6.662240e+05   1.172476e+05
   7.245462e+05   9.289363e+05
   1.163058e+05   1.008573e+06
  -7.348854e+05   2.451879e+05
  -1.014135e+06  -7.010210e+05
  -3.444614e+05  -1.064982e+06
   6.955331e+05  -6.658130e+05
   1.095339e+06   6.980231e+04
   5.227565e+05   5.991678e+05
  -2.791033e+05   6.660012e+05
  -3.720509e+05   3.615146e+05
   2.397656e+05   7.909189e+03
   6.347310e+05  -4.017303e+04
   1.450015e+05   3.013493e+05
  -8.063619e+05   6.654343e+05
  -1.233387e+06   5.293648e+05
  -7.489429e+05  -1.736357e+05
   9.192168e+04  -8.517412e+05
   5.405154e+05  -8.403079e+05
   4.186052e+05  -1.619040e+05
   5.534201e+04   4.671914e+05
  -2.319711e+05   4.283160e+05
  -3.444131e+05  -1.399715e+05
  -2.508790e+05  -5.639075e+05
   4.904838e+04  -4.209546e+05
   3.826910e+05   4.095273e+04
   4.676022e+05   2.751836e+05
   2.378083e+05   9.561163e+04
  -3.602468e+04  -1.491554e+05
  -8.173131e+04  -4.747893e+04
   1.744554e+04   3.431120e+05
  -3.952917e+04   5.415745e+05
  -3.083227e+05   2.213473e+05
  -4.542953e+05  -3.643997e+05
  -1.626367e+05  -6.318984e+05
   3.959896e+05  -3.112614e+05
   6.537630e+05   2.676735e+05
   2.528574e+05   5.582384e+05
  -4.962356e+05   3.605859e+05
  -8.663935e+05  -6.787659e+04
  -4.717539e+05  -3.672361e+05
   2.854036e+05  -3.963065e+05
   6.252148e+05  -2.302912e+05
   2.485206e+05  -2.012003e+04
  -3.330720e+05   7.188075e+04
  -3.967399e+05  -5.527013e+04
   1.590640e+05  -2.822866e+05
   7.189286e+05  -2.689710e+05
