
 $NMID
 id='ANONYMOUS ', fmtdat='(2E16.6)'
 volume=1.0
 tramp=1.0
 $END
   2.241381e+07   1.369545e+06
   1.405180e+07   1.140074e+07
  -1.022531e+06   1.399589e+07
  -1.001374e+07   8.686035e+06
  -7.897606e+06   5.098293e+05
  -2.615667e+05  -3.943031e+06
   4.491142e+06  -1.793044e+06
   3.195394e+06   3.638466e+06
  -1.243203e+06   6.024116e+06
  -4.234972e+06   2.544106e+06
  -3.521432e+06  -3.076999e+06
  -2.812221e+05  -4.757781e+06
   2.267235e+06  -9.059798e+05
   1.669675e+06   3.975643e+06
  -1.428268e+06   4.531121e+06
  -3.733967e+06   2.604425e+05
  -2.579325e+06  -4.517415e+06
   1.281350e+06  -5.518151e+06
   4.446281e+06  -2.434057e+06
   4.347341e+06   1.571431e+06
   1.681279e+06   3.348310e+06
  -5.672789e+05   2.520363e+06
  -2.887894e+05   1.244666e+06
   1.584757e+06   1.580189e+06
   2.053623e+06   3.203766e+06
  -6.366408e+05   3.872886e+06
  -4.672577e+06   2.103950e+06
  -6.158465e+06  -1.037313e+06
  -3.287834e+06  -3.052310e+06
   1.377704e+06  -2.537101e+06
   3.436162e+06  -2.812444e+05
   1.320895e+06   1.718690e+06
  -2.237550e+06   1.839724e+06
  -3.494519e+06  -1.195922e+05
  -1.656880e+06  -2.633229e+06
   8.886603e+05  -3.371272e+06
   1.673637e+06  -1.419063e+06
   6.022330e+05   1.281307e+06
  -5.956230e+05   1.701100e+06
  -5.197503e+05  -6.336418e+05
   6.743450e+05  -2.752154e+06
   1.732679e+06  -1.814061e+06
   1.512263e+06   1.205605e+06
  -4.882870e+04   2.640683e+06
  -1.709804e+06   6.975582e+05
  -1.759083e+06  -2.413659e+06
   3.868615e+05  -3.238655e+06
   3.195986e+06  -9.487956e+05
   4.057226e+06   2.175694e+06
   1.807014e+06   3.445867e+06
  -1.816168e+06   2.185144e+06
  -3.656044e+06  -1.896859e+05
  -2.257992e+06  -1.703910e+06
   7.034327e+05  -1.401866e+06
   2.270593e+06   4.361258e+04
   1.273760e+06   1.058396e+06
  -7.052530e+05   7.009209e+05
  -1.334100e+06  -4.538765e+05
  -1.074852e+05  -1.051965e+06
   1.284567e+06  -4.625283e+05
   9.983999e+05   6.503940e+05
  -8.496567e+05   1.108072e+06
  -2.248150e+06   2.920472e+05
  -1.413495e+06  -1.400187e+06
   1.287794e+06  -2.760400e+06
   3.645759e+06  -2.505449e+06
   3.807794e+06  -3.697657e+05
   2.013817e+06   2.334066e+06
   6.856588e+04   3.692242e+06
  -6.838799e+05   3.058962e+06
  -5.406162e+05   1.654017e+06
  -6.516096e+05   9.833194e+05
  -1.488328e+06   1.014960e+06
  -2.370912e+06   4.881773e+05
  -2.310130e+06  -1.091055e+06
  -1.021950e+06  -2.480884e+06
   7.995280e+05  -2.084549e+06
   1.942669e+06   6.469886e+04
   1.504661e+06   2.150422e+06
  -3.267761e+05   2.378155e+06
  -2.187812e+06   6.727721e+05
  -2.580757e+06  -1.436192e+06
  -1.294174e+06  -2.389325e+06
   3.719023e+05  -1.934657e+06
   1.046281e+06  -1.030454e+06
   8.085238e+05  -6.470886e+05
   9.222328e+05  -7.904657e+05
   2.052312e+06  -6.635213e+05
   3.178131e+06   3.565791e+05
   2.631615e+06   1.982038e+06
   1.176973e+05   3.171958e+06
  -2.646872e+06   2.959773e+06
  -3.499083e+06   1.276587e+06
  -1.960809e+06  -8.346426e+05
   3.242921e+05  -1.902710e+06
   1.278578e+06  -1.268256e+06
   3.921567e+05   2.089905e+05
  -1.014960e+06   9.227010e+05
  -1.373415e+06   2.167246e+05
  -4.645673e+05  -8.759963e+05
   5.822603e+05  -8.827194e+05
   6.261796e+05   2.496128e+05
  -3.660620e+05   9.874690e+05
  -1.398974e+06   4.500855e+04
  -1.375118e+06  -1.967726e+06
   1.239918e+04  -3.074630e+06
   1.979812e+06  -2.024675e+06
   3.124768e+06   4.228045e+05
   2.505273e+06   2.321100e+06
   5.599580e+05   2.426775e+06
  -1.141321e+06   1.190516e+06
  -1.353143e+06   5.107641e+04
  -3.913959e+05  -4.563302e+04
   2.873296e+05   5.868708e+05
  -2.278587e+05   9.296092e+05
  -1.281635e+06   4.168600e+05
  -1.483507e+06  -5.133483e+05
  -3.988498e+05  -9.567806e+05
   8.704489e+05  -5.100850e+05
   8.770893e+05   3.372520e+05
  -5.379862e+05   6.948896e+05
  -1.963153e+06   9.726846e+04
  -1.822708e+06  -1.071202e+06
  -2.298457e+04  -1.860424e+06
   1.889766e+06  -1.534563e+06
   2.254753e+06  -2.653777e+05
   9.273670e+05   9.106597e+05
  -6.674186e+05   1.006577e+06
  -1.036012e+06   8.644192e+04
  -3.729558e+04  -7.502806e+05
   1.166329e+06  -5.274753e+05
   1.371073e+06   5.360569e+05
   4.374710e+05   1.287529e+06
  -7.165833e+05   9.519291e+05
  -1.048350e+06  -2.660156e+04
  -3.596706e+05  -5.434253e+05
   5.181542e+05  -7.371281e+04
   5.241123e+05   8.075749e+05
  -5.194090e+05   1.086259e+06
  -1.613683e+06   3.393881e+05
  -1.564397e+06  -8.898576e+05
  -2.782835e+05  -1.616633e+06
   1.087135e+06  -1.283050e+06
   1.340665e+06  -2.227494e+05
   4.685612e+05   6.532178e+05
  -4.866467e+05   6.837582e+05
  -6.137594e+05   4.807583e+04
  -4.495674e+02  -4.763450e+05
   5.414579e+05  -3.661559e+05
   4.117343e+05   9.740322e+04
  -1.869060e+05   2.022475e+05
  -4.945710e+05  -3.154927e+05
   1.722719e+04  -8.987932e+05
   1.045782e+06  -7.420524e+05
   1.648520e+06   3.171807e+05
   1.134917e+06   1.547836e+06
  -2.011598e+05   1.972617e+06
  -1.328858e+06   1.258312e+06
  -1.495127e+06  -2.613365e+03
  -9.003261e+05  -8.578903e+05
  -3.226591e+05  -8.568399e+05
  -2.090205e+05  -3.894732e+05
  -2.869150e+05  -1.826605e+05
  -3.183040e+04  -4.735378e+05
   6.393919e+05  -7.477056e+05
   1.198715e+06  -3.609048e+05
   9.884552e+05   6.218423e+05
  -1.077748e+05   1.339340e+06
  -1.404615e+06   9.712464e+05
  -1.867844e+06  -3.699043e+05
  -9.931219e+05  -1.655592e+06
   6.685675e+05  -1.870557e+06
   1.921874e+06  -9.174896e+05
   1.956988e+06   3.725991e+05
   9.992974e+05   1.069545e+06
  -3.707258e+04   9.630537e+05
  -4.611156e+05   6.011030e+05
  -3.410328e+05   5.839049e+05
  -2.336801e+05   8.822231e+05
  -5.080861e+05   8.987030e+05
  -9.557366e+05   1.977281e+05
  -1.019771e+06  -9.006562e+05
  -4.017341e+05  -1.538443e+06
   5.414175e+05  -1.147005e+06
   1.049303e+06  -1.882994e+04
   6.840680e+05   9.578649e+05
  -1.988121e+05   1.100029e+06
  -7.834174e+05   4.648416e+05
  -6.201986e+05  -3.303851e+05
  -5.170308e+04  -7.250778e+05
   2.301655e+05  -6.467158e+05
  -1.308587e+04  -4.160920e+05
  -3.045765e+05  -3.215477e+05
  -1.759823e+04  -3.273703e+05
   8.502105e+05  -1.806535e+05
   1.547466e+06   2.491274e+05
   1.282064e+06   7.783757e+05
   7.969854e+04   1.050911e+06
  -1.137591e+06   8.503182e+05
  -1.416961e+06   2.944237e+05
  -7.084378e+05  -2.339684e+05
   1.492710e+05  -3.718299e+05
   3.635499e+05  -9.026913e+04
  -3.575918e+04   2.360015e+05
  -4.155496e+05   1.703970e+05
  -3.607947e+05  -2.860452e+05
  -6.594895e+04  -6.227521e+05
   4.900269e+04  -3.968513e+05
  -1.246899e+05   1.614254e+05
  -3.237934e+05   3.410487e+05
  -2.415740e+05  -1.748545e+05
   1.893680e+05  -8.340122e+05
   7.310719e+05  -8.196330e+05
   9.493588e+05  -3.537828e+04
   5.231580e+05   7.543986e+05
  -3.526191e+05   7.914318e+05
  -9.327960e+05   1.288767e+05
  -5.620533e+05  -5.137693e+05
   5.419938e+05  -5.371054e+05
   1.334234e+06   2.820899e+04
   9.669703e+05   6.746176e+05
  -2.793181e+05   8.948193e+05
  -1.248986e+06   5.445974e+05
  -1.107262e+06  -7.617594e+04
  -1.673116e+05  -4.469053e+05
   5.133706e+05  -2.693755e+05
   2.658383e+05   2.041705e+05
  -5.404272e+05   3.531595e+05
  -9.447937e+05  -1.783437e+05
  -4.102838e+05  -1.017168e+06
   6.426222e+05  -1.322640e+06
   1.285485e+06  -6.064597e+05
   1.000549e+06   6.881553e+05
   1.128571e+05   1.493536e+06
  -6.309840e+05   1.108475e+06
  -7.753564e+05  -8.399173e+04
  -4.120907e+05  -9.710888e+05
   9.375637e+04  -8.467412e+05
   4.301140e+05  -1.026882e+05
   4.497724e+05   3.342184e+05
   2.145557e+05   1.415824e+05
   9.742895e+03  -1.028916e+05
   1.046416e+05   1.904358e+05
   3.547263e+05   7.762385e+05
   2.366067e+05   9.051445e+05
  -4.780659e+05   3.281886e+05
  -1.216399e+06  -4.117670e+05
  -1.127124e+06  -7.090146e+05
  -1.496652e+05  -5.554275e+05
   7.887508e+05  -3.174257e+05
   8.401037e+05  -1.614598e+05
   2.252608e+05   2.197214e+03
  -1.558867e+05   1.733042e+05
   6.219576e+04   2.144858e+05
   3.165235e+05   1.372728e+05
  -1.156746e+03   1.162887e+05
  -6.551472e+05   1.384369e+05
  -8.416274e+05  -6.727386e+04
  -1.867351e+05  -5.606048e+05
   8.147817e+05  -8.783323e+05
   1.340115e+06  -4.958745e+05
   1.015528e+06   4.490781e+05
   1.453812e+05   1.172362e+06
  -6.379356e+05   1.066684e+06
  -8.694086e+05   3.416082e+05
  -5.425639e+05  -2.629887e+05
  -5.642340e+04  -2.945703e+05
   1.446920e+05   5.133625e+03
  -3.434752e+04   7.755581e+04
  -2.800011e+05  -2.782617e+05
  -2.179792e+05  -6.651890e+05
   1.857786e+05  -5.280822e+05
   5.714439e+05   1.833606e+05
   5.177842e+05   8.618340e+05
  -4.145172e+04   8.350607e+05
  -6.788440e+05   8.966948e+04
  -7.919433e+05  -7.032135e+05
  -1.895015e+05  -8.943221e+05
   6.178010e+05  -4.619882e+05
   8.638807e+05   1.226382e+05
   3.611553e+05   4.534240e+05
  -2.493065e+05   4.603295e+05
  -2.456628e+05   2.676535e+05
   2.836960e+05   4.632837e+04
   5.521923e+05   1.454738e+03
   8.106758e+04   2.398580e+05
  -6.936197e+05   5.389792e+05
  -9.718467e+05   4.622910e+05
  -5.328596e+05  -1.045873e+05
   1.135417e+05  -6.726410e+05
   4.053647e+05  -6.456738e+05
   2.707881e+05  -5.810749e+04
  -1.456154e+04   4.263500e+05
  -2.248231e+05   3.027544e+05
  -2.875774e+05  -2.039288e+05
  -1.767628e+05  -4.815045e+05
   7.738333e+04  -2.797695e+05
   3.143202e+05   8.126849e+04
   3.520830e+05   1.933711e+05
   1.930381e+05   4.074012e+04
   1.454135e+04  -6.648828e+04
  -6.329571e+04   8.075368e+04
  -1.028789e+05   3.367644e+05
  -2.040472e+05   3.679777e+05
  -3.150395e+05   3.447883e+04
  -2.645548e+05  -4.126404e+05
   2.368273e+04  -5.461445e+05
   3.808355e+05  -2.066620e+05
   4.834294e+05   2.994419e+05
   1.501414e+05   5.057157e+05
  -4.038984e+05   2.693525e+05
  -6.733521e+05  -1.250596e+05
  -3.555810e+05  -3.260974e+05
   2.537809e+05  -2.611909e+05
   5.096736e+05  -9.632668e+04
   1.475607e+05   6.278672e+03
  -3.654170e+05  -1.385014e+04
  -3.625811e+05  -1.471453e+05
   2.118449e+05  -2.812018e+05
   7.225939e+05  -1.940510e+05
