
 $NMID
 id='ANONYMOUS ', fmtdat='(2E16.6)'
 volume=1.0
 tramp=1.0
 $END
   4.911871e+07  -1.359070e+06
   3.073438e+07   2.869619e+07
  -4.806895e+06   3.312509e+07
  -2.331238e+07   1.438007e+07
  -1.491141e+07  -4.698233e+06
   2.167213e+06  -8.279697e+06
   8.738656e+06   1.418011e+05
   3.284432e+06   8.341876e+06
  -4.762880e+06   8.942070e+06
  -8.438968e+06   2.514942e+06
  -6.493225e+06  -5.345214e+06
  -9.804733e+05  -7.832280e+06
   3.577514e+06  -2.472654e+06
   2.647021e+06   5.142654e+06
  -3.043186e+06   6.342535e+06
  -7.059151e+06  -7.028976e+05
  -4.412498e+06  -8.875004e+06
   2.862579e+06  -1.062288e+07
   8.739539e+06  -5.491519e+06
   9.508029e+06   1.653448e+06
   5.755613e+06   6.429031e+06
   6.400073e+05   7.279656e+06
  -2.125921e+06   5.048781e+06
  -9.017751e+05   2.523733e+06
   1.490097e+06   2.463762e+06
   1.755837e+05   4.236213e+06
  -5.249595e+06   4.122328e+06
  -9.044148e+06   4.260811e+05
  -6.416242e+06  -3.752977e+06
   1.442397e+04  -4.560094e+06
   3.696204e+06  -2.177956e+06
   2.264804e+06   3.718970e+05
  -1.024634e+06   1.254912e+06
  -2.676800e+06   4.415078e+05
  -2.194563e+06  -1.729665e+06
  -4.342121e+05  -3.907249e+06
   1.708528e+06  -3.396948e+06
   2.648576e+06   3.296963e+05
   1.263407e+06   3.196606e+06
  -6.867032e+05   1.324836e+06
  -1.742757e+05  -2.622115e+06
   2.268807e+06  -2.338477e+06
   2.379922e+06   2.684746e+06
  -1.673394e+06   5.468371e+06
  -5.735991e+06   1.171484e+06
  -4.599041e+06  -5.788099e+06
   1.301137e+06  -7.448148e+06
   6.465309e+06  -2.337739e+06
   6.555256e+06   3.762657e+06
   2.099425e+06   5.478875e+06
  -3.055731e+06   2.778895e+06
  -5.058128e+06  -1.040365e+06
  -2.580011e+06  -3.041311e+06
   1.963076e+06  -2.132161e+06
   4.101300e+06   5.718601e+05
   1.920844e+06   2.299861e+06
  -1.459498e+06   1.290345e+06
  -1.725523e+06  -8.483405e+05
   9.444327e+05  -1.024930e+06
   2.286872e+06   1.130153e+06
  -9.351693e+04   2.810374e+06
  -3.698856e+06   1.891571e+06
  -4.695645e+06  -7.855421e+05
  -2.278906e+06  -3.340012e+06
   1.558077e+06  -4.836142e+06
   4.665080e+06  -4.555429e+06
   5.719545e+06  -1.641062e+06
   4.158336e+06   2.904390e+06
   9.446485e+05   5.696937e+06
  -1.448480e+06   4.539144e+06
  -1.446083e+06   1.441882e+06
  -3.038435e+05   8.936702e+04
  -3.519406e+05   1.040132e+06
  -1.823428e+06   1.567657e+06
  -2.789503e+06  -1.702129e+04
  -1.909235e+06  -2.092984e+06
   1.207998e+05  -2.221857e+06
   1.718549e+06  -2.009229e+05
   1.776501e+06   2.120480e+06
   1.656995e+04   2.903537e+06
  -2.665459e+06   1.548528e+06
  -4.175599e+06  -1.156061e+06
  -2.946789e+06  -3.428684e+06
  -6.629291e+03  -3.769021e+06
   1.942497e+06  -2.435936e+06
   1.893152e+06  -1.119022e+06
   1.632250e+06  -7.996760e+05
   2.801010e+06  -6.485809e+05
   4.232733e+06   5.350748e+05
   3.490405e+06   2.548921e+06
   2.720484e+05   4.035072e+06
  -3.056747e+06   3.918428e+06
  -4.096026e+06   2.125199e+06
  -2.597631e+06  -4.604411e+05
  -2.028141e+05  -2.233778e+06
   1.130140e+06  -1.876549e+06
   5.433554e+05   6.507975e+04
  -1.070884e+06   1.298952e+06
  -1.831332e+06   4.303059e+05
  -8.782530e+05  -1.138273e+06
   5.188595e+05  -1.117777e+06
   5.116015e+05   3.526523e+05
  -8.981987e+05   8.363262e+05
  -1.848110e+06  -9.243748e+05
  -9.782474e+05  -3.198787e+06
   1.120398e+06  -3.506986e+06
   2.916560e+06  -1.502095e+06
   3.439297e+06   1.119458e+06
   2.522171e+06   2.677568e+06
   5.893707e+05   2.653432e+06
  -1.217268e+06   1.495941e+06
  -1.578199e+06   2.448445e+05
  -4.886974e+05  -3.124048e+04
   3.794993e+05   7.293488e+05
  -3.402065e+05   1.304355e+06
  -1.808043e+06   6.222544e+05
  -2.005438e+06  -7.635361e+05
  -4.492916e+05  -1.345311e+06
   1.125650e+06  -6.165549e+05
   9.369788e+05   4.153264e+05
  -7.880271e+05   6.121087e+05
  -2.223857e+06  -1.571712e+05
  -1.878612e+06  -1.281885e+06
   1.257931e+05  -2.030132e+06
   2.242968e+06  -1.766420e+06
   2.747957e+06  -3.728145e+05
   1.235080e+06   1.189392e+06
  -8.462815e+05   1.469572e+06
  -1.487631e+06   2.213683e+05
  -2.030860e+05  -1.037009e+06
   1.468606e+06  -7.641069e+05
   1.727385e+06   6.980031e+05
   4.278698e+05   1.618107e+06
  -1.012491e+06   1.043434e+06
  -1.265365e+06  -2.155441e+05
  -3.067948e+05  -7.466161e+05
   7.599541e+05  -8.598602e+04
   7.490570e+05   1.013599e+06
  -5.395767e+05   1.419591e+06
  -1.976681e+06   5.813340e+05
  -2.038738e+06  -9.876908e+05
  -4.409514e+05  -2.035653e+06
   1.360218e+06  -1.668339e+06
   1.695611e+06  -2.766076e+05
   5.411840e+05   8.353147e+05
  -6.181236e+05   8.271506e+05
  -6.510832e+05   9.348873e+04
   8.287591e+04  -4.054005e+05
   5.149562e+05  -2.704851e+05
   1.981519e+05   7.003522e+04
  -4.049622e+05  -3.912521e+02
  -5.527684e+05  -5.970293e+05
   1.323389e+05  -1.171210e+06
   1.328180e+06  -9.382618e+05
   2.074309e+06   3.404339e+05
   1.507505e+06   1.879058e+06
  -1.425605e+05   2.416779e+06
  -1.563732e+06   1.483193e+06
  -1.712379e+06  -4.660400e+04
  -9.303380e+05  -8.925665e+05
  -3.541079e+05  -7.140778e+05
  -4.413245e+05  -2.533004e+05
  -5.813277e+05  -2.759120e+05
  -1.045922e+05  -7.231144e+05
   8.253738e+05  -9.277098e+05
   1.434531e+06  -3.925019e+05
   1.099082e+06   6.917091e+05
  -1.784948e+05   1.494812e+06
  -1.678653e+06   1.145526e+06
  -2.260927e+06  -4.025795e+05
  -1.211642e+06  -2.040015e+06
   8.933176e+05  -2.372715e+06
   2.461788e+06  -1.125199e+06
   2.369016e+06   5.420597e+05
   1.044904e+06   1.294875e+06
  -1.431425e+05   9.910521e+05
  -4.026413e+05   5.639704e+05
  -1.172980e+05   7.471242e+05
  -9.571053e+04   1.262896e+06
  -6.172202e+05   1.269101e+06
  -1.254759e+06   3.446426e+05
  -1.350783e+06  -1.036173e+06
  -6.045219e+05  -1.866123e+06
   5.796067e+05  -1.445377e+06
   1.279608e+06  -4.443873e+04
   8.545254e+05   1.230573e+06
  -3.163035e+05   1.392554e+06
  -1.105607e+06   4.706324e+05
  -8.189125e+05  -6.139260e+05
   5.419118e+04  -1.038964e+06
   4.616081e+05  -7.963707e+05
   5.198692e+04  -4.334196e+05
  -4.319349e+05  -3.307550e+05
  -6.558516e+04  -3.830451e+05
   1.116923e+06  -2.483372e+05
   2.034057e+06   2.588869e+05
   1.634943e+06   9.639901e+05
   3.301526e+04   1.402144e+06
  -1.509717e+06   1.168706e+06
  -1.796253e+06   3.508644e+05
  -8.509270e+05  -4.271201e+05
   2.277189e+05  -5.542441e+05
   4.959169e+05  -6.377588e+04
   3.075869e+04   3.952004e+05
  -4.439369e+05   2.639328e+05
  -4.841213e+05  -3.257440e+05
  -2.473664e+05  -7.188864e+05
  -8.514643e+04  -4.757861e+05
  -1.355871e+05   1.166199e+05
  -2.876159e+05   3.223851e+05
  -2.853859e+05  -2.189902e+05
   1.225912e+05  -9.931937e+05
   8.590177e+05  -1.081116e+06
   1.317515e+06  -1.974869e+05
   8.444474e+05   8.841750e+05
  -3.782314e+05   1.120503e+06
  -1.222751e+06   3.489617e+05
  -7.430064e+05  -5.546586e+05
   6.710635e+05  -6.702149e+05
   1.591153e+06   3.284802e+04
   1.057650e+06   8.193188e+05
  -4.264796e+05   1.016489e+06
  -1.479972e+06   5.552099e+05
  -1.252169e+06  -1.338811e+05
  -1.614541e+05  -5.121377e+05
   6.344180e+05  -2.984353e+05
   3.836158e+05   2.738738e+05
  -5.763264e+05   5.278663e+05
  -1.178392e+06  -5.898847e+04
  -6.870742e+05  -1.162962e+06
   5.547987e+05  -1.707020e+06
   1.460055e+06  -9.163076e+05
   1.274625e+06   7.219823e+05
   2.562752e+05   1.783603e+06
  -6.970701e+05   1.323651e+06
  -9.308388e+05  -1.350654e+05
  -4.792781e+05  -1.172551e+06
   1.732613e+05  -9.807792e+05
   5.530484e+05  -1.075062e+05
   4.873037e+05   3.636748e+05
   1.790780e+05   1.349784e+05
   4.094339e+04  -9.988963e+04
   2.717892e+05   2.787852e+05
   5.327051e+05   9.444627e+05
   2.378820e+05   1.071183e+06
  -6.849548e+05   4.180005e+05
  -1.487971e+06  -4.170034e+05
  -1.315255e+06  -7.929787e+05
  -2.080890e+05  -6.882009e+05
   8.472718e+05  -4.453038e+05
   9.790787e+05  -2.173349e+05
   3.533056e+05   3.630416e+04
  -1.414516e+05   2.291168e+05
  -1.822747e+04   2.101191e+05
   2.784244e+05   9.038900e+04
   5.097167e+04   1.321247e+05
  -6.633082e+05   2.545211e+05
  -1.043553e+06   2.041405e+04
  -4.407779e+05  -6.758052e+05
   8.093642e+05  -1.198413e+06
   1.664737e+06  -8.044886e+05
   1.412117e+06   3.886231e+05
   3.188854e+05   1.395248e+06
  -7.168067e+05   1.395300e+06
  -1.029218e+06   5.673039e+05
  -6.634234e+05  -2.134890e+05
  -1.425275e+05  -3.532473e+05
   7.478449e+04  -6.518103e+04
  -7.749784e+04   2.405488e+04
  -3.152665e+05  -3.541882e+05
  -2.768590e+05  -7.976328e+05
   1.568856e+05  -6.827046e+05
   6.856310e+05   1.005687e+05
   7.680902e+05   9.273311e+05
   1.463092e+05   1.025315e+06
  -7.460218e+05   2.701552e+05
  -1.057520e+06  -6.860176e+05
  -3.838150e+05  -1.074747e+06
   6.883595e+05  -6.985895e+05
   1.116776e+06   3.591429e+04
   5.493655e+05   5.895948e+05
  -2.624472e+05   6.831439e+05
  -3.622359e+05   3.791274e+05
   2.507386e+05   8.226543e+02
   6.475657e+05  -6.219971e+04
   1.560926e+05   3.016562e+05
  -7.992785e+05   7.071393e+05
  -1.233998e+06   5.854893e+05
  -7.633212e+05  -1.481060e+05
   6.542496e+04  -8.696727e+05
   5.179685e+05  -8.722499e+05
   4.166461e+05  -1.743237e+05
   7.000445e+04   4.774504e+05
  -2.235563e+05   4.419658e+05
  -3.573808e+05  -1.358161e+05
  -2.744240e+05  -5.668469e+05
   3.789719e+04  -4.267150e+05
   3.919230e+05   3.089839e+04
   4.838244e+05   2.615179e+05
   2.450907e+05   8.625962e+04
  -3.851230e+04  -1.474972e+05
  -8.320166e+04  -3.754525e+04
   2.326518e+04   3.539864e+05
  -3.279915e+04   5.502377e+05
  -3.119473e+05   2.278009e+05
  -4.703447e+05  -3.634741e+05
  -1.787010e+05  -6.415374e+05
   3.963029e+05  -3.289870e+05
   6.731982e+05   2.547435e+05
   2.747429e+05   5.632637e+05
  -4.924314e+05   3.835903e+05
  -8.833792e+05  -4.259911e+04
  -4.921479e+05  -3.588947e+05
   2.783680e+05  -4.101086e+05
   6.293977e+05  -2.512161e+05
   2.489793e+05  -2.733283e+04
  -3.436398e+05   8.173548e+04
  -4.098641e+05  -4.806730e+04
   1.564538e+05  -2.976338e+05
   7.315592e+05  -3.001165e+05
