
 $NMID
 id='ANONYMOUS ', fmtdat='(2E16.6)'
 volume=1.0
 tramp=1.0
 $END
   1.115721e+07   2.058579e+05
   7.537266e+06   5.177363e+06
   8.889812e+04   7.062178e+06
  -4.889272e+06   4.895407e+06
  -4.257911e+06   6.385328e+05
  -3.460379e+05  -2.077444e+06
   2.388208e+06  -1.148995e+06
   1.867754e+06   1.850954e+06
  -5.210624e+05   3.299178e+06
  -2.193621e+06   1.491947e+06
  -1.855979e+06  -1.536831e+06
  -1.765658e+05  -2.465766e+06
   1.142954e+06  -4.512464e+05
   8.613332e+05   2.123513e+06
  -7.195178e+05   2.455605e+06
  -1.960457e+06   2.504892e+05
  -1.444537e+06  -2.281405e+06
   5.288997e+05  -2.877460e+06
   2.197336e+06  -1.320087e+06
   2.171868e+06   7.279374e+05
   8.338520e+05   1.593558e+06
  -2.187416e+05   1.146983e+06
   3.747763e+04   5.976079e+05
   9.860099e+05   9.454833e+05
   1.082860e+06   1.842745e+06
  -4.235819e+05   2.078750e+06
  -2.504042e+06   1.032265e+06
  -3.203007e+06  -6.100688e+05
  -1.663404e+06  -1.579852e+06
   7.740548e+05  -1.239988e+06
   1.810725e+06  -3.629774e+04
   6.128479e+05   9.830778e+05
  -1.325456e+06   9.586473e+05
  -1.932122e+06  -1.647927e+05
  -8.245030e+05  -1.483945e+06
   5.619010e+05  -1.771205e+06
   8.625762e+05  -6.830868e+05
   1.971920e+05   6.720331e+05
  -3.700400e+05   7.983100e+05
  -1.997077e+05  -4.272162e+05
   4.469520e+05  -1.478832e+06
   9.378826e+05  -9.740276e+05
   8.336225e+05   5.918349e+05
   1.016329e+05   1.396948e+06
  -7.742882e+05   4.854345e+05
  -9.419937e+05  -1.117587e+06
   7.237055e+04  -1.643832e+06
   1.593448e+06  -5.401880e+05
   2.160240e+06   1.101560e+06
   1.008324e+06   1.829638e+06
  -9.571432e+05   1.196724e+06
  -1.981756e+06  -7.013767e+04
  -1.254255e+06  -8.994820e+05
   3.269213e+05  -7.730237e+05
   1.191009e+06  -3.154203e+04
   7.035408e+05   5.226507e+05
  -3.451176e+05   3.762564e+05
  -7.243289e+05  -2.367316e+05
  -8.558786e+04  -6.155538e+05
   7.279909e+05  -3.353546e+05
   6.585687e+05   3.229667e+05
  -3.426855e+05   6.681742e+05
  -1.182920e+06   2.615987e+05
  -7.950358e+05  -6.815048e+05
   6.591336e+05  -1.431414e+06
   1.924988e+06  -1.288191e+06
   1.979230e+06  -1.725306e+05
   1.013441e+06   1.210635e+06
   2.715422e+04   1.920231e+06
  -3.314245e+05   1.642038e+06
  -2.889326e+05   9.454556e+05
  -4.170123e+05   5.584307e+05
  -8.784316e+05   4.981352e+05
  -1.295862e+06   1.728158e+05
  -1.198287e+06  -6.586250e+05
  -4.776321e+05  -1.361566e+06
   4.905743e+05  -1.103463e+06
   1.065114e+06   8.230337e+04
   7.843121e+05   1.194054e+06
  -2.070420e+05   1.268721e+06
  -1.160998e+06   3.221617e+05
  -1.326637e+06  -7.777986e+05
  -6.529653e+05  -1.230206e+06
   1.779659e+05  -9.734608e+05
   5.027986e+05  -5.313534e+05
   3.940526e+05  -3.674988e+05
   4.905233e+05  -4.484527e+05
   1.110276e+06  -3.645038e+05
   1.709886e+06   1.947661e+05
   1.408208e+06   1.073141e+06
   4.613413e+04   1.707304e+06
  -1.446612e+06   1.569547e+06
  -1.887915e+06   6.428374e+05
  -1.027278e+06  -4.774200e+05
   2.137504e+05  -1.009277e+06
   7.030158e+05  -6.496759e+05
   1.995641e+05   1.205346e+05
  -5.554052e+05   4.792463e+05
  -7.309038e+05   1.072074e+05
  -2.353097e+05  -4.618921e+05
   3.255274e+05  -4.633901e+05
   3.469694e+05   1.471449e+05
  -2.009851e+05   5.616628e+05
  -7.876110e+05   5.743390e+04
  -7.890775e+05  -1.068009e+06
  -9.982146e+03  -1.713474e+06
   1.099088e+06  -1.140755e+06
   1.726358e+06   2.356991e+05
   1.358937e+06   1.295486e+06
   2.820310e+05   1.332567e+06
  -6.297036e+05   6.306428e+05
  -7.285213e+05   1.080407e+04
  -2.101340e+05  -2.695192e+04
   1.507101e+05   3.179753e+05
  -1.211662e+05   4.968329e+05
  -6.823469e+05   2.213275e+05
  -7.956419e+05  -2.746356e+05
  -2.162942e+05  -5.133887e+05
   4.722857e+05  -2.711386e+05
   4.766238e+05   1.941529e+05
  -3.009918e+05   3.870565e+05
  -1.081529e+06   4.459078e+04
  -9.931819e+05  -6.051284e+05
   1.735647e+03  -1.022560e+06
   1.038593e+06  -8.214765e+05
   1.220066e+06  -1.286911e+05
   4.949457e+05   4.907466e+05
  -3.569461e+05   5.317589e+05
  -5.473306e+05   4.402781e+04
  -1.307142e+04  -3.952331e+05
   6.283353e+05  -2.746628e+05
   7.377106e+05   2.948087e+05
   2.343897e+05   7.006837e+05
  -3.921139e+05   5.193081e+05
  -5.731065e+05  -1.472307e+04
  -1.978247e+05  -2.971979e+05
   2.772333e+05  -3.975177e+04
   2.753499e+05   4.372504e+05
  -2.893835e+05   5.789684e+05
  -8.707038e+05   1.678374e+05
  -8.335948e+05  -4.906025e+05
  -1.394148e+05  -8.707947e+05
   5.907190e+05  -6.852098e+05
   7.235170e+05  -1.149565e+05
   2.512797e+05   3.548663e+05
  -2.669098e+05   3.669872e+05
  -3.338967e+05   1.656199e+04
   7.506046e+03  -2.676953e+05
   3.085587e+05  -1.956647e+05
   2.321734e+05   6.931295e+04
  -1.058393e+05   1.250190e+05
  -2.768967e+05  -1.678987e+05
   7.331881e+03  -4.889878e+05
   5.681393e+05  -3.971873e+05
   8.875848e+05   1.809590e+05
   6.010195e+05   8.410978e+05
  -1.235517e+05   1.062916e+06
  -7.304124e+05   6.734198e+05
  -8.150333e+05  -1.201907e+04
  -4.835109e+05  -4.805719e+05
  -1.598832e+05  -4.787708e+05
  -9.672272e+04  -2.133576e+05
  -1.485718e+05  -9.052800e+04
  -1.823959e+04  -2.497354e+05
   3.482757e+05  -4.036707e+05
   6.552668e+05  -1.903861e+05
   5.348366e+05   3.489263e+05
  -6.896464e+04   7.327109e+05
  -7.698742e+05   5.190003e+05
  -1.009137e+06  -2.136551e+05
  -5.288005e+05  -9.021692e+05
   3.674790e+05  -1.008735e+06
   1.041858e+06  -4.894007e+05
   1.061116e+06   2.107664e+05
   5.405349e+05   5.914438e+05
  -2.886402e+04   5.313300e+05
  -2.650319e+05   3.232384e+05
  -1.974690e+05   3.022467e+05
  -1.315865e+05   4.627686e+05
  -2.741144e+05   4.773204e+05
  -5.117761e+05   1.009490e+05
  -5.408515e+05  -4.921311e+05
  -2.039194e+05  -8.317133e+05
   3.012424e+05  -6.131950e+05
   5.674898e+05  -2.903918e+03
   3.661628e+05   5.200451e+05
  -1.098275e+05   5.953750e+05
  -4.252986e+05   2.557289e+05
  -3.394396e+05  -1.731354e+05
  -3.330002e+04  -3.919441e+05
   1.221667e+05  -3.550902e+05
  -4.311193e+03  -2.301826e+05
  -1.592352e+05  -1.757089e+05
  -5.928226e+03  -1.765909e+05
   4.580168e+05  -9.518447e+04
   8.305990e+05   1.401371e+05
   6.880063e+05   4.262562e+05
   4.305996e+04   5.680113e+05
  -6.125002e+05   4.536247e+05
  -7.668915e+05   1.536291e+05
  -3.875780e+05  -1.266591e+05
   7.782938e+04  -1.988418e+05
   1.974039e+05  -5.034101e+04
  -1.886862e+04   1.214069e+05
  -2.256848e+05   8.612012e+04
  -1.915591e+05  -1.558161e+05
  -2.545589e+04  -3.328858e+05
   3.387043e+04  -2.096028e+05
  -7.191349e+04   8.910125e+04
  -1.847580e+05   1.822630e+05
  -1.310789e+05  -9.667321e+04
   1.116913e+05  -4.483033e+05
   3.994925e+05  -4.362664e+05
   5.042725e+05  -1.416357e+04
   2.710571e+05   4.057119e+05
  -1.918501e+05   4.198161e+05
  -4.963775e+05   6.127924e+04
  -2.970600e+05  -2.816923e+05
   2.956035e+05  -2.877007e+05
   7.235474e+05   2.408658e+04
   5.239087e+05   3.753450e+05
  -1.560946e+05   4.887346e+05
  -6.849602e+05   2.899124e+05
  -6.040602e+05  -4.989649e+04
  -8.820803e+04  -2.456355e+05
   2.804517e+05  -1.439701e+05
   1.415497e+05   1.094066e+05
  -2.942396e+05   1.818982e+05
  -5.041644e+05  -1.065819e+05
  -2.073005e+05  -5.491884e+05
   3.597918e+05  -7.012266e+05
   6.967196e+05  -3.113947e+05
   5.318667e+05   3.801756e+05
   4.737035e+04   8.063902e+05
  -3.514710e+05   5.950193e+05
  -4.211591e+05  -4.948502e+04
  -2.178267e+05  -5.296947e+05
   5.593382e+04  -4.619165e+05
   2.335035e+05  -5.458194e+04
   2.420351e+05   1.874485e+05
   1.165535e+05   8.224619e+04
   5.802511e+03  -5.743580e+04
   5.254902e+04   9.716875e+04
   1.841327e+05   4.189372e+05
   1.231555e+05   4.943215e+05
  -2.569108e+05   1.779269e+05
  -6.530711e+05  -2.326581e+05
  -6.056130e+05  -3.949654e+05
  -7.747926e+04  -3.004900e+05
   4.305559e+05  -1.614207e+05
   4.566818e+05  -8.027083e+04
   1.207326e+05  -1.421776e+03
  -8.626842e+04   9.051955e+04
   3.374399e+04   1.215036e+05
   1.714090e+05   8.269080e+04
  -3.383878e+03   6.163201e+04
  -3.570388e+05   6.355950e+04
  -4.512586e+05  -4.416061e+04
  -9.072397e+04  -2.973714e+05
   4.477500e+05  -4.601634e+05
   7.205253e+05  -2.553869e+05
   5.361484e+05   2.479588e+05
   6.617342e+04   6.318370e+05
  -3.503874e+05   5.688936e+05
  -4.686555e+05   1.740247e+05
  -2.885172e+05  -1.491436e+05
  -2.618603e+04  -1.575890e+05
   7.910830e+04   9.545701e+03
  -2.047853e+04   4.535495e+04
  -1.513882e+05  -1.529118e+05
  -1.131486e+05  -3.616756e+05
   1.047389e+05  -2.810826e+05
   3.043373e+05   1.071905e+05
   2.663985e+05   4.688981e+05
  -3.345675e+04   4.446286e+05
  -3.649441e+05   3.645991e+04
  -4.156440e+05  -3.876232e+05
  -9.198277e+04  -4.804712e+05
   3.345244e+05  -2.399951e+05
   4.611407e+05   7.285509e+04
   1.908084e+05   2.427578e+05
  -1.348154e+05   2.425797e+05
  -1.309086e+05   1.440096e+05
   1.543650e+05   3.179539e+04
   2.976523e+05   6.931713e+03
   4.106773e+04   1.280454e+05
  -3.784953e+05   2.845490e+05
  -5.267006e+05   2.456810e+05
  -2.850811e+05  -5.502499e+04
   6.598161e+04  -3.593767e+05
   2.195165e+05  -3.454604e+05
   1.405646e+05  -2.974973e+04
  -1.464844e+04   2.290103e+05
  -1.225205e+05   1.585804e+05
  -1.503153e+05  -1.154292e+05
  -9.032689e+04  -2.603526e+05
   4.226717e+04  -1.463364e+05
   1.670041e+05   4.772340e+04
   1.887035e+05   1.040215e+05
   1.053111e+05   2.165907e+04
   7.694733e+03  -3.182497e+04
  -3.943568e+04   4.788418e+04
  -6.445442e+04   1.782259e+05
  -1.158572e+05   1.871002e+05
  -1.664054e+05   8.353338e+03
  -1.311527e+05  -2.241240e+05
   2.346053e+04  -2.889651e+05
   2.068656e+05  -1.048368e+05
   2.534923e+05   1.655045e+05
   7.354561e+04   2.732200e+05
  -2.183845e+05   1.417850e+05
  -3.580517e+05  -7.295462e+04
  -1.873971e+05  -1.778368e+05
   1.366782e+05  -1.359038e+05
   2.714858e+05  -4.518931e+04
   7.638333e+04   2.841049e+03
  -1.974736e+05  -1.652125e+04
  -1.917240e+05  -8.715221e+04
   1.212630e+05  -1.487581e+05
   3.949039e+05  -9.341729e+04
