
 $NMID
 id='ANONYMOUS ', fmtdat='(2E16.6)'
 volume=1.0
 tramp=1.0
 $END
  -1.914785e+07  -9.253030e+05
  -1.266364e+07  -7.948884e+06
  -6.135000e+05  -1.135919e+07
   7.664751e+06  -9.137713e+06
   7.285612e+06  -2.357117e+06
   1.129869e+06   3.394740e+06
  -3.986076e+06   2.764404e+06
  -3.829574e+06  -2.824373e+06
   2.253071e+05  -6.234154e+06
   3.659949e+06  -3.155445e+06
   3.453970e+06   2.743162e+06
   4.188434e+05   4.639410e+06
  -2.192207e+06   7.591215e+05
  -1.862479e+06  -4.169871e+06
   9.946552e+05  -4.820382e+06
   3.445926e+06  -7.551860e+05
   2.776730e+06   3.946238e+06
  -7.314385e+05   5.146528e+06
  -3.869525e+06   2.318342e+06
  -3.790905e+06  -1.496029e+06
  -1.124035e+06  -2.950459e+06
   7.802366e+05  -1.728174e+06
  -2.233419e+05  -5.035621e+05
  -2.542919e+06  -1.504873e+06
  -2.677244e+06  -3.758489e+06
   7.245606e+05  -4.389747e+06
   5.101298e+06  -2.161442e+06
   6.388657e+06   1.219240e+06
   3.138954e+06   3.132124e+06
  -1.788803e+06   2.450447e+06
  -3.848123e+06   9.665588e+03
  -1.353437e+06  -2.240155e+06
   2.776667e+06  -2.365680e+06
   4.214122e+06   8.976009e+04
   1.911357e+06   3.135858e+06
  -1.145093e+06   3.759345e+06
  -1.805073e+06   1.227895e+06
  -2.347110e+05  -1.650134e+06
   1.050789e+06  -1.592625e+06
   5.803016e+05   1.186018e+06
  -8.369866e+05   3.222096e+06
  -1.752317e+06   2.052085e+06
  -1.584307e+06  -9.230966e+05
  -4.939653e+05  -2.332782e+06
   9.253747e+05  -7.879664e+05
   1.452842e+06   1.833023e+06
  -3.338169e+04   2.703969e+06
  -2.805439e+06   9.298143e+05
  -4.161700e+06  -1.879527e+06
  -2.195656e+06  -3.351009e+06
   1.652625e+06  -2.454960e+06
   3.852950e+06  -1.946354e+05
   2.601558e+06   1.483438e+06
  -4.124138e+05   1.446665e+06
  -2.140470e+06   2.039090e+05
  -1.348703e+06  -8.205250e+05
   5.824863e+05  -6.838219e+05
   1.449621e+06   3.468919e+05
   4.364817e+05   1.198766e+06
  -1.197259e+06   9.934675e+05
  -1.446804e+06  -1.556074e+05
   2.097491e+05  -1.130890e+06
   1.958999e+06  -7.384453e+05
   1.493884e+06   1.042038e+06
  -1.241660e+06   2.730504e+06
  -3.776368e+06   2.581642e+06
  -3.867957e+06   3.338621e+05
  -1.911726e+06  -2.411612e+06
  -7.643121e+04  -3.723749e+06
   4.121039e+05  -3.175900e+06
   2.922594e+05  -1.985844e+06
   7.750274e+05  -1.396243e+06
   1.937997e+06  -1.245460e+06
   2.835394e+06  -4.189753e+05
   2.589722e+06   1.397431e+06
   1.078790e+06   2.884935e+06
  -9.778481e+05   2.390309e+06
  -2.282896e+06  -4.473829e+04
  -1.766307e+06  -2.392801e+06
   3.326872e+05  -2.608003e+06
   2.348079e+06  -6.707362e+05
   2.639040e+06   1.567240e+06
   1.212089e+06   2.399254e+06
  -4.004499e+05   1.781126e+06
  -9.098068e+05   8.998828e+05
  -6.186152e+05   6.820253e+05
  -8.400040e+05   9.627884e+05
  -2.137682e+06   8.818093e+05
  -3.411592e+06  -1.856973e+05
  -2.920960e+06  -1.985737e+06
  -2.724642e+05  -3.420462e+06
   2.772628e+06  -3.307530e+06
   3.792466e+06  -1.447844e+06
   2.130214e+06   9.424967e+05
  -4.015198e+05   2.114051e+06
  -1.428675e+06   1.366142e+06
  -4.153017e+05  -2.572253e+05
   1.102692e+06  -1.015211e+06
   1.445271e+06  -2.642928e+05
   4.720827e+05   9.115485e+05
  -6.363427e+05   9.746411e+05
  -7.545850e+05  -2.357147e+05
   2.439183e+05  -1.189463e+06
   1.500720e+06  -3.608926e+05
   1.788476e+06   1.883934e+06
   4.269918e+05   3.424752e+06
  -1.933637e+06   2.564058e+06
  -3.533950e+06  -1.373919e+05
  -2.997820e+06  -2.434772e+06
  -7.685681e+05  -2.697394e+06
   1.222203e+06  -1.354314e+06
   1.489502e+06  -8.651589e+04
   4.257175e+05   3.253169e+04
  -3.365565e+05  -6.240401e+05
   1.865334e+05  -9.858142e+05
   1.318012e+06  -4.939632e+05
   1.596056e+06   4.496836e+05
   4.891473e+05   9.785432e+05
  -9.131264e+05   5.985626e+05
  -1.007237e+06  -3.295124e+05
   5.269526e+05  -8.519306e+05
   2.191430e+06  -2.793849e+05
   2.138077e+06   1.082665e+06
   1.619696e+05   2.094250e+06
  -1.998460e+06   1.806507e+06
  -2.447919e+06   4.014303e+05
  -1.034639e+06  -9.223052e+05
   6.657647e+05  -1.073032e+06
   1.068027e+06  -1.208777e+05
   3.878715e+04   7.860991e+05
  -1.235508e+06   6.070619e+05
  -1.511816e+06  -5.020933e+05
  -5.707307e+05  -1.370092e+06
   6.990372e+05  -1.103706e+06
   1.147720e+06  -6.792784e+04
   4.479258e+05   5.552781e+05
  -5.381309e+05   1.056106e+05
  -5.921558e+05  -8.545223e+05
   5.348740e+05  -1.198262e+06
   1.747884e+06  -4.198021e+05
   1.728644e+06   9.115923e+05
   3.677549e+05   1.735954e+06
  -1.108286e+06   1.435152e+06
  -1.433851e+06   3.150056e+05
  -5.495003e+05  -6.768087e+05
   4.915242e+05  -7.706015e+05
   6.893317e+05  -7.136091e+04
   3.930928e+04   5.673821e+05
  -6.148281e+05   4.709901e+05
  -5.313629e+05  -1.026788e+05
   1.551049e+05  -2.978301e+05
   5.774939e+05   2.656793e+05
   6.145764e+04   9.701347e+05
  -1.090700e+06   8.654793e+05
  -1.807416e+06  -2.657979e+05
  -1.298650e+06  -1.631841e+06
   1.346577e+05  -2.163933e+06
   1.396029e+06  -1.459789e+06
   1.660015e+06  -9.042948e+04
   1.069981e+06   9.224943e+05
   4.076215e+05   9.947037e+05
   2.056464e+05   4.636818e+05
   2.726374e+05   1.685706e+05
   5.138925e+04   4.822008e+05
  -6.441105e+05   8.545605e+05
  -1.300513e+06   4.783736e+05
  -1.146250e+06  -6.398644e+05
   3.009507e+04  -1.507676e+06
   1.492360e+06  -1.153807e+06
   2.069890e+06   3.117792e+05
   1.178038e+06   1.752933e+06
  -6.106121e+05   2.063113e+06
  -2.024312e+06   1.108356e+06
  -2.164634e+06  -2.798621e+05
  -1.191135e+06  -1.118231e+06
  -3.327841e+04  -1.099054e+06
   5.101687e+05  -7.211742e+05
   4.102211e+05  -6.460237e+05
   2.490208e+05  -9.310323e+05
   5.045074e+05  -9.694314e+05
   1.012170e+06  -2.452883e+05
   1.138870e+06   9.424800e+05
   4.964335e+05   1.661653e+06
  -5.481272e+05   1.271756e+06
  -1.146523e+06   7.180490e+04
  -7.964446e+05  -9.962862e+05
   1.396967e+05  -1.202987e+06
   7.981439e+05  -5.750507e+05
   6.851423e+05   2.781078e+05
   1.253147e+05   7.564138e+05
  -1.753448e+05   7.207089e+05
   5.147213e+04   4.713811e+05
   3.375710e+05   3.468551e+05
   2.886136e+04   3.603195e+05
  -9.014157e+05   2.409916e+05
  -1.674060e+06  -1.940664e+05
  -1.429894e+06  -7.770378e+05
  -1.599740e+05  -1.119787e+06
   1.169030e+06  -9.642840e+05
   1.517699e+06  -4.016177e+05
   7.918356e+05   1.856578e+05
  -1.307261e+05   3.929409e+05
  -3.814378e+05   1.306494e+05
   3.941101e+04  -2.341195e+05
   4.561415e+05  -1.964021e+05
   3.998908e+05   2.958345e+05
   6.949822e+04   6.830528e+05
  -6.427409e+04   4.359186e+05
   1.318020e+05  -2.024893e+05
   3.622351e+05  -4.119160e+05
   2.795057e+05   1.769839e+05
  -1.836770e+05   9.290567e+05
  -7.618137e+05   9.208711e+05
  -1.000997e+06   5.973971e+04
  -5.683363e+05  -8.019183e+05
   3.513172e+05  -8.504766e+05
   9.912417e+05  -1.516403e+05
   6.293516e+05   5.453617e+05
  -5.597189e+05   6.141793e+05
  -1.468178e+06   4.309157e+04
  -1.122734e+06  -6.860096e+05
   2.366434e+05  -1.012377e+06
   1.346879e+06  -6.891836e+05
   1.238250e+06   1.424032e+04
   2.166640e+05   4.875973e+05
  -5.456720e+05   3.291111e+05
  -2.888469e+05  -2.032890e+05
   5.896415e+05  -3.933499e+05
   1.035506e+06   1.786111e+05
   4.618590e+05   1.104649e+06
  -6.792616e+05   1.457191e+06
  -1.392847e+06   6.931435e+05
  -1.117867e+06  -7.218409e+05
  -1.793702e+05  -1.633016e+06
   6.449858e+05  -1.252307e+06
   8.566935e+05   4.188356e+04
   5.094784e+05   1.042830e+06
  -4.431808e+04   9.444455e+05
  -4.597891e+05   1.404380e+05
  -5.235566e+05  -3.521429e+05
  -2.599202e+05  -1.533949e+05
   1.087836e+03   1.187416e+05
  -9.380260e+04  -1.902718e+05
  -4.080530e+05  -8.284404e+05
  -3.186031e+05  -9.846660e+05
   4.820579e+05  -3.826365e+05
   1.350251e+06   4.020229e+05
   1.283680e+06   7.298872e+05
   1.893558e+05   5.964637e+05
  -8.690937e+05   3.762124e+05
  -9.196523e+05   2.178265e+05
  -2.298423e+05   1.895924e+04
   1.712362e+05  -1.928494e+05
  -1.002438e+05  -2.436292e+05
  -3.769139e+05  -1.518687e+05
   6.369643e+03  -1.294493e+05
   7.378966e+05  -1.667577e+05
   9.191904e+05   4.986616e+04
   1.880051e+05   6.013085e+05
  -8.813838e+05   9.741882e+05
  -1.428277e+06   5.725407e+05
  -1.094574e+06  -4.670797e+05
  -1.921576e+05  -1.279450e+06
   6.508448e+05  -1.180628e+06
   9.370931e+05  -3.883164e+05
   6.064665e+05   2.817503e+05
   6.162759e+04   3.199405e+05
  -1.800773e+05  -1.486758e+04
   2.667291e+04  -1.029880e+05
   3.277981e+05   2.864245e+05
   2.719900e+05   7.189794e+05
  -1.896543e+05   5.781099e+05
  -6.358256e+05  -1.971175e+05
  -5.811207e+05  -9.395608e+05
   4.302148e+04  -9.105670e+05
   7.526964e+05  -9.836946e+04
   8.815668e+05   7.616304e+05
   2.227555e+05   9.685087e+05
  -6.622061e+05   5.086847e+05
  -9.361246e+05  -1.103919e+05
  -3.969766e+05  -4.666151e+05
   2.547432e+05  -4.903333e+05
   2.400414e+05  -2.957503e+05
  -3.324485e+05  -4.840888e+04
  -6.088065e+05   1.467795e+04
  -8.969479e+04  -2.548272e+05
   7.383226e+05  -6.158461e+05
   1.026359e+06  -5.550147e+05
   5.638288e+05   7.856337e+04
  -1.024157e+05   7.296186e+05
  -4.010849e+05   7.102398e+05
  -2.722241e+05   5.743471e+04
   1.226428e+04  -4.748432e+05
   2.389521e+05  -3.268647e+05
   3.224082e+05   2.316664e+05
   2.066658e+05   5.203530e+05
  -8.012985e+04   2.905374e+05
  -3.451188e+05  -8.648799e+04
  -3.840611e+05  -1.855812e+05
  -2.118087e+05  -2.561308e+04
  -2.352734e+04   5.812322e+04
   6.574781e+04  -1.217405e+05
   1.276540e+05  -3.838744e+05
   2.485825e+05  -3.876342e+05
   3.552015e+05  -1.301839e+04
   2.771857e+05   4.647843e+05
  -4.170566e+04   6.004069e+05
  -4.187364e+05   2.290742e+05
  -5.251518e+05  -3.235950e+05
  -1.712094e+05  -5.551425e+05
   4.260645e+05  -3.049136e+05
   7.279455e+05   1.227848e+05
   3.933142e+05   3.446587e+05
  -2.685292e+05   2.788564e+05
  -5.479572e+05   1.039860e+05
  -1.456915e+05  -5.126133e+03
   4.211416e+05   1.880213e+04
   4.092155e+05   1.705396e+05
  -2.395636e+05   3.272223e+05
  -8.113244e+05   2.352960e+05
