
 $NMID
 id='ANONYMOUS ', fmtdat='(2E16.6)'
 volume=1.0
 tramp=1.0
 $END
  -2.757494e+07  -3.231486e+06
  -1.618515e+07  -1.496391e+07
   2.384628e+06  -1.692795e+07
   1.260771e+07  -9.821239e+06
   9.362074e+06  -1.754110e+05
   5.861687e+04   4.673829e+06
  -5.370871e+06   1.908792e+06
  -3.601835e+06  -4.461248e+06
   1.715620e+06  -7.128373e+06
   5.175855e+06  -2.841188e+06
   4.161703e+06   3.922492e+06
   1.675132e+05   5.833996e+06
  -2.841231e+06   1.033355e+06
  -1.947256e+06  -4.890064e+06
   1.866989e+06  -5.417572e+06
   4.509492e+06  -1.096299e+05
   2.891141e+06   5.636430e+06
  -1.872059e+06   6.660861e+06
  -5.618644e+06   2.736412e+06
  -5.318754e+06  -2.208401e+06
  -1.895451e+06  -4.324577e+06
   9.503832e+05  -3.163654e+06
   5.748228e+05  -1.440267e+06
  -1.854670e+06  -1.803577e+06
  -2.519472e+06  -3.874093e+06
   8.093710e+05  -4.753208e+06
   5.805420e+06  -2.514019e+06
   7.575931e+06   1.438943e+06
   3.960070e+06   3.893989e+06
  -1.784328e+06   3.154174e+06
  -4.273396e+06   3.185405e+05
  -1.671418e+06  -2.136009e+06
   2.687274e+06  -2.285857e+06
   4.273032e+06   1.110951e+05
   2.063794e+06   3.229265e+06
  -1.104870e+06   4.172754e+06
  -2.145045e+06   1.736670e+06
  -7.944560e+05  -1.658372e+06
   7.990908e+05  -2.173627e+06
   7.380067e+05   7.688700e+05
  -8.194797e+05   3.388353e+06
  -2.148665e+06   2.173421e+06
  -1.757451e+06  -1.526278e+06
   2.402581e+05  -3.135033e+06
   2.134949e+06  -6.177205e+05
   1.954973e+06   3.123647e+06
  -7.307694e+05   3.912503e+06
  -3.991026e+06   9.639790e+05
  -4.849467e+06  -2.816102e+06
  -2.069706e+06  -4.227906e+06
   2.255687e+06  -2.581985e+06
   4.403052e+06   3.291099e+05
   2.668879e+06   2.101740e+06
  -9.013727e+05   1.630318e+06
  -2.736329e+06  -1.656317e+05
  -1.479952e+06  -1.327713e+06
   8.932557e+05  -8.062552e+05
   1.598408e+06   5.781296e+05
   1.235962e+05   1.215213e+06
  -1.477268e+06   4.914403e+05
  -1.081175e+06  -7.429792e+05
   1.101140e+06  -1.187331e+06
   2.692291e+06  -2.031932e+05
   1.612068e+06   1.770274e+06
  -1.695057e+06   3.355159e+06
  -4.566884e+06   2.994007e+06
  -4.718173e+06   3.381206e+05
  -2.424279e+06  -2.969503e+06
   3.422998e+04  -4.551668e+06
   9.273431e+05  -3.685361e+06
   6.558921e+05  -1.962527e+06
   7.463755e+05  -1.212565e+06
   1.812725e+06  -1.292408e+06
   2.944005e+06  -6.169293e+05
   2.865224e+06   1.359366e+06
   1.256360e+06   3.065525e+06
  -9.833853e+05   2.564986e+06
  -2.370355e+06  -7.442761e+04
  -1.820077e+06  -2.633146e+06
   4.337400e+05  -2.909227e+06
   2.712234e+06  -7.873194e+05
   3.157862e+06   1.842465e+06
   1.519580e+06   3.008804e+06
  -5.573756e+05   2.386081e+06
  -1.361150e+06   1.211846e+06
  -1.021710e+06   7.294010e+05
  -1.132312e+06   9.185619e+05
  -2.504632e+06   7.546327e+05
  -3.862300e+06  -5.095708e+05
  -3.166614e+06  -2.474604e+06
  -8.090974e+04  -3.872047e+06
   3.289616e+06  -3.570583e+06
   4.311235e+06  -1.509565e+06
   2.403332e+06   1.054931e+06
  -4.178603e+05   2.341493e+06
  -1.589492e+06   1.547863e+06
  -4.812815e+05  -2.615305e+05
   1.258585e+06  -1.113755e+06
   1.681731e+06  -2.325101e+05
   5.476174e+05   1.088997e+06
  -7.209765e+05   1.071930e+06
  -7.488422e+05  -3.008493e+05
   4.462595e+05  -1.164197e+06
   1.648592e+06  -1.219603e+04
   1.590172e+06   2.386425e+06
  -6.104420e+04   3.678277e+06
  -2.394263e+06   2.396108e+06
  -3.762207e+06  -5.497163e+05
  -3.016981e+06  -2.835660e+06
  -6.576177e+05  -2.956343e+06
   1.410438e+06  -1.441523e+06
   1.657186e+06  -4.650421e+04
   4.772610e+05   6.148691e+04
  -3.378705e+05  -7.205303e+05
   3.040644e+05  -1.123516e+06
   1.573732e+06  -4.710742e+05
   1.787419e+06   6.612146e+05
   4.569124e+05   1.166838e+06
  -1.066885e+06   5.981664e+05
  -1.056557e+06  -4.196817e+05
   6.583526e+05  -8.257827e+05
   2.376053e+06  -8.939939e+04
   2.198461e+06   1.317238e+06
   7.286860e+03   2.254481e+06
  -2.320186e+06   1.838072e+06
  -2.750991e+06   2.861176e+05
  -1.109525e+06  -1.128585e+06
   8.418228e+05  -1.212481e+06
   1.268527e+06  -7.654819e+04
   2.606317e+04   9.215527e+05
  -1.434744e+06   6.189601e+05
  -1.656030e+06  -6.788335e+05
  -5.066787e+05  -1.566925e+06
   8.812129e+05  -1.135713e+06
   1.262191e+06   5.102119e+04
   4.202524e+05   6.582777e+05
  -6.330399e+05   6.971361e+04
  -6.211561e+05  -1.001250e+06
   6.585978e+05  -1.319746e+06
   1.981527e+06  -3.850266e+05
   1.895856e+06   1.117498e+06
   3.082978e+05   1.978641e+06
  -1.350284e+06   1.541987e+06
  -1.634717e+06   2.463535e+05
  -5.558746e+05  -7.988306e+05
   6.027549e+05  -8.199789e+05
   7.462395e+05  -5.316150e+04
  -1.440457e+03   5.722013e+05
  -6.555690e+05   4.405818e+05
  -4.984229e+05  -1.101378e+05
   2.213906e+05  -2.310691e+05
   5.861610e+05   3.933752e+05
  -4.198576e+04   1.090562e+06
  -1.289943e+06   8.837385e+05
  -2.006039e+06  -4.181717e+05
  -1.357468e+06  -1.911588e+06
   2.773861e+05  -2.404314e+06
   1.634657e+06  -1.512298e+06
   1.816397e+06   2.157442e+04
   1.089808e+06   1.046984e+06
   3.985235e+05   1.041938e+06
   2.639962e+05   4.861278e+05
   3.469910e+05   2.422774e+05
   2.393975e+04   5.846344e+05
  -7.935471e+05   8.994347e+05
  -1.465529e+06   4.209704e+05
  -1.198148e+06  -7.685064e+05
   1.467044e+05  -1.626913e+06
   1.726208e+06  -1.161122e+06
   2.271791e+06   4.813368e+05
   1.179109e+06   2.033630e+06
  -8.531619e+05   2.262273e+06
  -2.357325e+06   1.076929e+06
  -2.370292e+06  -4.868497e+05
  -1.196439e+06  -1.308264e+06
   5.207239e+04  -1.163544e+06
   5.597283e+05  -7.313082e+05
   4.232473e+05  -7.230993e+05
   3.076285e+05  -1.083497e+06
   6.436125e+05  -1.087774e+06
   1.174024e+06  -2.205283e+05
   1.231069e+06   1.119345e+06
   4.646944e+05   1.886212e+06
  -6.803590e+05   1.392048e+06
  -1.278566e+06   4.786913e+03
  -8.125434e+05  -1.180068e+06
   2.650338e+05  -1.331984e+06
   9.581413e+05  -5.419051e+05
   7.378172e+05   4.199367e+05
   3.942740e+04   8.790604e+05
  -2.947945e+05   7.724854e+05
   1.238733e+04   5.012297e+05
   3.708040e+05   3.994633e+05
   1.799522e+04   4.019618e+05
  -1.041864e+06   2.015608e+05
  -1.885863e+06  -3.381250e+05
  -1.547863e+06  -9.745885e+05
  -6.993259e+04  -1.278815e+06
   1.409768e+06  -1.010081e+06
   1.730190e+06  -3.298032e+05
   8.492319e+05   2.984320e+05
  -1.949320e+05   4.492271e+05
  -4.424807e+05   9.992248e+04
   5.202077e+04  -2.935451e+05
   5.107514e+05  -2.061580e+05
   4.370825e+05   3.561383e+05
   7.574790e+04   7.688752e+05
  -6.319522e+04   4.908966e+05
   1.496880e+05  -1.945816e+05
   3.934687e+05  -4.145614e+05
   2.915501e+05   2.178564e+05
  -2.417844e+05   1.019890e+06
  -9.098839e+05   9.891935e+05
  -1.169783e+06   1.912843e+04
  -6.300229e+05  -9.400625e+05
   4.517492e+05  -9.637351e+05
   1.151447e+06  -1.394125e+05
   6.813002e+05   6.372126e+05
  -6.699081e+05   6.447020e+05
  -1.623656e+06  -5.428242e+04
  -1.164439e+06  -8.303199e+05
   3.519818e+05  -1.078689e+06
   1.522722e+06  -6.428657e+05
   1.342784e+06   1.064308e+05
   1.973125e+05   5.437846e+05
  -6.278272e+05   3.178010e+05
  -3.192430e+05  -2.574187e+05
   6.688523e+05  -4.272574e+05
   1.157353e+06   2.324178e+05
   4.901175e+05   1.255502e+06
  -8.063889e+05   1.615062e+06
  -1.584044e+06   7.265642e+05
  -1.214797e+06  -8.556843e+05
  -1.168664e+05  -1.826860e+06
   7.839278e+05  -1.342936e+06
   9.404303e+05   1.152205e+05
   4.853306e+05   1.187908e+06
  -1.269745e+05   1.024674e+06
  -5.251721e+05   1.152217e+05
  -5.433047e+05  -4.103158e+05
  -2.592597e+05  -1.703598e+05
  -1.240769e+04   1.227147e+05
  -1.238623e+05  -2.435243e+05
  -4.204461e+05  -9.571085e+05
  -2.735663e+05  -1.101945e+06
   5.905631e+05  -3.853000e+05
   1.479148e+06   5.205823e+05
   1.363521e+06   8.773316e+05
   1.726841e+05   6.807667e+05
  -9.671015e+05   3.814286e+05
  -1.026040e+06   1.854784e+05
  -2.737646e+05  -1.200498e+04
   1.926698e+05  -2.115729e+05
  -7.373357e+04  -2.554448e+05
  -3.857728e+05  -1.647721e+05
   2.061943e+03  -1.449512e+05
   8.029643e+05  -1.673321e+05
   1.030191e+06   9.563709e+04
   2.222637e+05   6.988065e+05
  -1.011256e+06   1.069173e+06
  -1.652911e+06   5.827930e+05
  -1.242022e+06  -5.716956e+05
  -1.619421e+05  -1.438021e+06
   7.997873e+05  -1.293575e+06
   1.073432e+06  -4.057835e+05
   6.628043e+05   3.278698e+05
   6.518704e+04   3.642782e+05
  -1.786991e+05  -1.108973e+03
   3.953046e+04  -9.029297e+04
   3.346552e+05   3.423987e+05
   2.547270e+05   8.140394e+05
  -2.364913e+05   6.445076e+05
  -6.997998e+05  -2.302489e+05
  -6.256380e+05  -1.064141e+06
   6.139995e+04  -1.028056e+06
   8.362161e+05  -1.057205e+05
   9.645195e+05   8.719034e+05
   2.194634e+05   1.101204e+06
  -7.672057e+05   5.586572e+05
  -1.058066e+06  -1.658727e+05
  -4.317312e+05  -5.659257e+05
   3.184358e+05  -5.611886e+05
   3.083760e+05  -3.185446e+05
  -3.462541e+05  -5.398405e+04
  -6.758951e+05  -8.315847e+03
  -9.524619e+04  -2.971997e+05
   8.558085e+05  -6.481831e+05
   1.193330e+06  -5.435748e+05
   6.478766e+05   1.438141e+05
  -1.512944e+05   8.223895e+05
  -5.102406e+05   7.793834e+05
  -3.388620e+05   6.285497e+04
   2.056452e+04  -5.234631e+05
   2.824334e+05  -3.694310e+05
   3.538518e+05   2.513388e+05
   2.094268e+05   5.925188e+05
  -1.031858e+05   3.444977e+05
  -3.856345e+05  -1.034990e+05
  -4.247641e+05  -2.452832e+05
  -2.322681e+05  -5.416132e+04
  -2.192380e+04   8.551205e+04
   7.009885e+04  -9.418618e+04
   1.245683e+05  -4.163245e+05
   2.567101e+05  -4.598944e+05
   3.941871e+05  -4.478028e+04
   3.266361e+05   5.132510e+05
  -3.250504e+04   6.769283e+05
  -4.706513e+05   2.508965e+05
  -5.920300e+05  -3.758695e+05
  -1.792794e+05  -6.229929e+05
   4.998331e+05  -3.221507e+05
   8.257262e+05   1.655107e+05
   4.308607e+05   4.059599e+05
  -3.184710e+05   3.173181e+05
  -6.304862e+05   1.107150e+05
  -1.830309e+05  -1.362003e+04
   4.486237e+05   1.495050e+04
   4.462824e+05   1.806937e+05
  -2.578907e+05   3.440319e+05
  -8.839346e+05   2.343947e+05
