
 $NMID
 id='ANONYMOUS ', fmtdat='(2E16.6)'
 volume=1.0
 tramp=1.0
 $END
   1.535368e+07   7.884118e+05
   9.822369e+06   7.596821e+06
  -4.574079e+05   9.604393e+06
  -6.802781e+06   6.198300e+06
  -5.545261e+06   5.422792e+05
  -2.948679e+05  -2.738993e+06
   3.121000e+06  -1.357957e+06
   2.316731e+06   2.487783e+06
  -7.842282e+05   4.256274e+06
  -2.926539e+06   1.852363e+06
  -2.466477e+06  -2.106796e+06
  -2.211381e+05  -3.310074e+06
   1.559423e+06  -6.292964e+05
   1.167434e+06   2.785739e+06
  -9.729060e+05   3.195889e+06
  -2.600671e+06   2.335087e+05
  -1.837928e+06  -3.114100e+06
   8.369877e+05  -3.846304e+06
   3.054754e+06  -1.715769e+06
   2.993305e+06   1.066242e+06
   1.145349e+06   2.278308e+06
  -3.757254e+05   1.682376e+06
  -1.224416e+05   8.334693e+05
   1.186734e+06   1.148355e+06
   1.450501e+06   2.315072e+06
  -4.823438e+05   2.735456e+06
  -3.294185e+06   1.441985e+06
  -4.295126e+06  -7.528682e+05
  -2.271314e+06  -2.120800e+06
   9.840180e+05  -1.732544e+06
   2.405207e+06  -1.508840e+05
   8.922796e+05   1.239342e+06
  -1.629508e+06   1.295712e+06
  -2.496953e+06  -1.184219e+05
  -1.155151e+06  -1.892681e+06
   6.565368e+05  -2.374357e+06
   1.169319e+06  -9.716903e+05
   3.743817e+05   9.019514e+05
  -4.461408e+05   1.151582e+06
  -3.395385e+05  -4.916514e+05
   5.090449e+05  -1.948056e+06
   1.223914e+06  -1.281630e+06
   1.074044e+06   8.184509e+05
   2.497693e+04   1.835924e+06
  -1.127984e+06   5.275976e+05
  -1.220642e+06  -1.617780e+06
   2.212560e+05  -2.223469e+06
   2.193157e+06  -6.711630e+05
   2.843734e+06   1.501344e+06
   1.291537e+06   2.412921e+06
  -1.263662e+06   1.551377e+06
  -2.580337e+06  -1.106525e+05
  -1.616110e+06  -1.184453e+06
   4.603757e+05  -9.939627e+05
   1.579181e+06   7.129424e+02
   9.084701e+05   7.166114e+05
  -4.752771e+05   4.911310e+05
  -9.442225e+05  -3.104904e+05
  -9.940905e+04  -7.590364e+05
   9.107011e+05  -3.732022e+05
   7.578519e+05   4.283165e+05
  -5.385664e+05   8.010652e+05
  -1.564369e+06   2.529404e+05
  -1.007752e+06  -9.515125e+05
   8.978219e+05  -1.924861e+06
   2.562439e+06  -1.744564e+06
   2.660279e+06  -2.474306e+05
   1.390031e+06   1.631739e+06
   4.516497e+04   2.577455e+06
  -4.600623e+05   2.156658e+06
  -3.739233e+05   1.196837e+06
  -4.895658e+05   7.170302e+05
  -1.091390e+06   7.023413e+05
  -1.688775e+06   3.054324e+05
  -1.614867e+06  -8.036446e+05
  -6.938385e+05  -1.764215e+06
   5.864832e+05  -1.466446e+06
   1.379724e+06   6.062774e+04
   1.055751e+06   1.529611e+06
  -2.397396e+05   1.674031e+06
  -1.536742e+06   4.592950e+05
  -1.795921e+06  -1.016518e+06
  -8.937033e+05  -1.664151e+06
   2.558348e+05  -1.335560e+06
   7.144076e+05  -7.143185e+05
   5.525429e+05  -4.628746e+05
   6.465065e+05  -5.677501e+05
   1.449048e+06  -4.724596e+05
   2.242385e+06   2.513984e+05
   1.855701e+06   1.399810e+06
   7.850135e+04   2.238304e+06
  -1.876354e+06   2.081410e+06
  -2.472698e+06   8.860013e+05
  -1.373702e+06  -5.992288e+05
   2.441312e+05  -1.338139e+06
   9.071511e+05  -8.843522e+05
   2.711458e+05   1.484735e+05
  -7.181491e+05   6.437579e+05
  -9.624697e+05   1.512896e+05
  -3.219062e+05  -6.116584e+05
   4.116423e+05  -6.187316e+05
   4.443055e+05   1.774279e+05
  -2.544525e+05   7.070833e+05
  -9.949957e+05   4.948329e+04
  -9.928437e+05  -1.385156e+06
  -8.544731e+03  -2.191539e+06
   1.403417e+06  -1.455159e+06
   2.226021e+06   2.938930e+05
   1.780197e+06   1.653098e+06
   3.920086e+05   1.724426e+06
  -8.118759e+05   8.389557e+05
  -9.565049e+05   3.175742e+04
  -2.767493e+05  -3.217719e+04
   2.010566e+05   4.137385e+05
  -1.589169e+05   6.522014e+05
  -8.982541e+05   2.929196e+05
  -1.043295e+06  -3.575167e+05
  -2.834730e+05  -6.696643e+05
   6.118099e+05  -3.574509e+05
   6.183860e+05   2.406734e+05
  -3.837159e+05   4.940082e+05
  -1.394780e+06   6.700244e+04
  -1.292839e+06  -7.651375e+05
  -1.345680e+04  -1.321459e+06
   1.340318e+06  -1.083801e+06
   1.593595e+06  -1.850808e+05
   6.540233e+05   6.402919e+05
  -4.678020e+05   7.056764e+05
  -7.250492e+05   6.147661e+04
  -2.369690e+04  -5.240680e+05
   8.213944e+05  -3.686863e+05
   9.668319e+05   3.780384e+05
   3.109789e+05   9.090216e+05
  -5.039753e+05   6.750146e+05
  -7.408653e+05  -1.535925e+04
  -2.561280e+05  -3.812365e+05
   3.625429e+05  -4.957152e+04
   3.645886e+05   5.713055e+05
  -3.722342e+05   7.633878e+05
  -1.140373e+06   2.327137e+05
  -1.101001e+06  -6.325402e+05
  -1.934331e+05  -1.140699e+06
   7.674137e+05  -9.043423e+05
   9.459252e+05  -1.583266e+05
   3.318803e+05   4.591558e+05
  -3.425333e+05   4.814932e+05
  -4.329158e+05   3.203836e+04
   2.485876e+03  -3.387478e+05
   3.881888e+05  -2.574240e+05
   2.945977e+05   7.486959e+04
  -1.339843e+05   1.485717e+05
  -3.534054e+05  -2.223702e+05
   1.164357e+04  -6.369766e+05
   7.409246e+05  -5.233236e+05
   1.164415e+06   2.277711e+05
   7.981822e+05   1.095926e+06
  -1.460883e+05   1.393987e+06
  -9.421003e+05   8.892248e+05
  -1.060106e+06  -2.940276e+03
  -6.389690e+05  -6.114052e+05
  -2.266230e+05  -6.127042e+05
  -1.430597e+05  -2.787181e+05
  -1.995817e+05  -1.279827e+05
  -2.188466e+04  -3.338849e+05
   4.539389e+05  -5.297517e+05
   8.520117e+05  -2.539163e+05
   7.012372e+05   4.454469e+05
  -7.935206e+04   9.519067e+05
  -9.978096e+05   6.854555e+05
  -1.321269e+06  -2.661752e+05
  -6.995538e+05  -1.172174e+06
   4.739316e+05  -1.320350e+06
   1.358044e+06  -6.466736e+05
   1.384017e+06   2.642528e+05
   7.082125e+05   7.584656e+05
  -2.703893e+04   6.846589e+05
  -3.309198e+05   4.263458e+05
  -2.467098e+05   4.098561e+05
  -1.678897e+05   6.191332e+05
  -3.589144e+05   6.320129e+05
  -6.737546e+05   1.375074e+05
  -7.176191e+05  -6.384624e+05
  -2.799597e+05  -1.087550e+06
   3.851861e+05  -8.086733e+05
   7.412904e+05  -1.133989e+04
   4.820518e+05   6.770514e+05
  -1.405663e+05   7.770363e+05
  -5.526233e+05   3.298474e+05
  -4.382650e+05  -2.310057e+05
  -3.812264e+04  -5.110551e+05
   1.609429e+05  -4.575390e+05
  -9.663823e+03  -2.955196e+05
  -2.144056e+05  -2.288697e+05
  -1.139849e+04  -2.323483e+05
   6.009443e+05  -1.267237e+05
   1.092369e+06   1.788770e+05
   9.044240e+05   5.520349e+05
   5.578411e+04   7.413691e+05
  -8.032856e+05   5.978534e+05
  -1.000900e+06   2.068023e+05
  -5.010829e+05  -1.641128e+05
   1.050323e+05  -2.616089e+05
   2.569186e+05  -6.429875e+04
  -2.578929e+04   1.657431e+05
  -2.948425e+05   1.199316e+05
  -2.547304e+05  -2.026785e+05
  -4.386526e+04  -4.408493e+05
   3.703397e+04  -2.801926e+05
  -8.937860e+04   1.154331e+05
  -2.320989e+05   2.412866e+05
  -1.710236e+05  -1.253926e+05
   1.375313e+05  -5.906788e+05
   5.196158e+05  -5.771589e+05
   6.693347e+05  -2.108431e+04
   3.658016e+05   5.346631e+05
  -2.510606e+05   5.569852e+05
  -6.584267e+05   8.755189e+04
  -3.961233e+05  -3.649338e+05
   3.837678e+05  -3.793507e+05
   9.444845e+05   2.144866e+04
   6.851667e+05   4.790182e+05
  -1.977295e+05   6.343769e+05
  -8.853029e+05   3.851407e+05
  -7.846339e+05  -5.522663e+04
  -1.182039e+05  -3.168691e+05
   3.631618e+05  -1.900094e+05
   1.864993e+05   1.442207e+05
  -3.837258e+05   2.470415e+05
  -6.668792e+05  -1.298067e+05
  -2.858496e+05  -7.203997e+05
   4.589255e+05  -9.326401e+05
   9.107894e+05  -4.248407e+05
   7.059348e+05   4.891651e+05
   7.651300e+04   1.056728e+06
  -4.487168e+05   7.835012e+05
  -5.486158e+05  -6.011051e+04
  -2.902483e+05  -6.876670e+05
   6.714462e+04  -5.993128e+05
   3.040933e+05  -7.191746e+04
   3.180980e+05   2.378990e+05
   1.522444e+05   1.010790e+05
   6.503399e+03  -7.313116e+04
   7.178523e+04   1.339177e+05
   2.483856e+05   5.490288e+05
   1.667722e+05   6.406308e+05
  -3.369893e+05   2.313608e+05
  -8.594069e+05  -2.937387e+05
  -7.968742e+05  -5.039154e+05
  -1.048243e+05  -3.930168e+05
   5.596787e+05  -2.226427e+05
   5.949614e+05  -1.127164e+05
   1.584517e+05   1.290005e+03
  -1.108227e+05   1.220272e+05
   4.505069e+04   1.527830e+05
   2.248100e+05   9.904738e+04
  -2.035857e+03   8.243563e+04
  -4.653004e+05   9.548780e+04
  -5.945739e+05  -5.022155e+04
  -1.284212e+05  -3.964056e+05
   5.794304e+05  -6.179723e+05
   9.475320e+05  -3.463789e+05
   7.151373e+05   3.206516e+05
   9.938881e+04   8.295815e+05
  -4.534423e+05   7.522242e+05
  -6.156854e+05   2.381764e+05
  -3.830208e+05  -1.884347e+05
  -3.822447e+04  -2.084190e+05
   1.036170e+05   5.056008e+03
  -2.412891e+04   5.577381e+04
  -1.978868e+05  -1.971324e+05
  -1.527858e+05  -4.707526e+05
   1.329930e+05  -3.722173e+05
   4.035001e+05   1.322430e+05
   3.627561e+05   6.113490e+05
  -3.291072e+04   5.898200e+05
  -4.807935e+05   6.031490e+04
  -5.576245e+05  -5.002776e+05
  -1.308876e+05  -6.326585e+05
   4.381824e+05  -3.240886e+05
   6.098139e+05   8.936346e+04
   2.532988e+05   3.206613e+05
  -1.775236e+05   3.234924e+05
  -1.732746e+05   1.880715e+05
   2.018450e+05   3.381007e+04
   3.908813e+05   2.667942e+03
   5.634527e+04   1.696091e+05
  -4.916964e+05   3.795073e+05
  -6.871472e+05   3.254152e+05
  -3.752728e+05  -7.415785e+04
   8.195360e+04  -4.747203e+05
   2.870613e+05  -4.550511e+05
   1.903934e+05  -3.957971e+04
  -1.199176e+04   3.019440e+05
  -1.599830e+05   2.128716e+05
  -2.029165e+05  -1.460150e+05
  -1.235913e+05  -3.409426e+05
   5.568360e+04  -1.965836e+05
   2.219078e+05   5.871739e+04
   2.480405e+05   1.367453e+05
   1.364359e+05   2.854977e+04
   1.104499e+04  -4.605134e+04
  -4.499492e+04   5.876931e+04
  -7.517677e+04   2.384657e+05
  -1.473229e+05   2.583133e+05
  -2.234236e+05   2.154917e+04
  -1.844763e+05  -2.936549e+05
   2.011485e+04  -3.862028e+05
   2.703812e+05  -1.445861e+05
   3.402892e+05   2.137308e+05
   1.042173e+05   3.584463e+05
  -2.859770e+05   1.892334e+05
  -4.750488e+05  -9.069011e+04
  -2.501855e+05  -2.314692e+05
   1.800084e+05  -1.831079e+05
   3.601375e+05  -6.580472e+04
   1.034292e+05   4.837125e+03
  -2.593720e+05  -1.174052e+04
  -2.563057e+05  -1.061548e+05
   1.514891e+05  -1.988795e+05
   5.129455e+05  -1.352222e+05
