
 $NMID
 id='ANONYMOUS ', fmtdat='(2E16.6)'
 volume=1.0
 tramp=1.0
 $END
   2.258739e+07  -1.776978e+06
   1.611766e+07   1.097242e+07
   2.432689e+05   1.533282e+07
  -1.029101e+07   9.290470e+06
  -8.425541e+06  -1.008333e+05
  -1.490872e+05  -4.382804e+06
   4.759185e+06  -1.447121e+06
   3.046089e+06   3.955755e+06
  -1.561531e+06   5.808159e+06
  -4.339065e+06   2.392976e+06
  -3.569226e+06  -2.696633e+06
  -5.428859e+05  -4.363640e+06
   1.927001e+06  -1.127636e+06
   1.512464e+06   3.341332e+06
  -1.428126e+06   4.110620e+06
  -3.764652e+06   2.631964e+05
  -2.737807e+06  -4.355955e+06
   9.884664e+05  -5.535962e+06
   4.149912e+06  -2.840389e+06
   4.413449e+06   8.597867e+05
   2.351726e+06   2.850483e+06
   2.617354e+05   2.759340e+06
  -1.668867e+05   1.970789e+06
   7.974884e+05   1.867601e+06
   1.237912e+06   2.593203e+06
  -5.085495e+05   3.005865e+06
  -3.668135e+06   1.899003e+06
  -5.224653e+06  -4.667241e+05
  -3.194586e+06  -2.317790e+06
   6.593891e+05  -2.186317e+06
   2.540471e+06  -4.887443e+05
   9.798700e+05   1.030729e+06
  -1.712913e+06   1.079013e+06
  -2.552260e+06  -2.815545e+05
  -1.171098e+06  -1.972399e+06
   5.746913e+05  -2.609520e+06
   1.186245e+06  -1.444910e+06
   7.120143e+05   6.105538e+05
   6.589801e+03   1.381392e+06
  -1.531824e+05  -1.302832e+05
   5.360384e+05  -2.021306e+06
   1.519316e+06  -1.520607e+06
   1.520361e+06   1.217829e+06
  -1.035026e+05   2.863367e+06
  -2.106671e+06   1.093090e+06
  -2.268943e+06  -2.276554e+06
   9.316951e+04  -3.474800e+06
   3.034235e+06  -1.281765e+06
   3.801387e+06   1.917868e+06
   1.581560e+06   3.195551e+06
  -1.722534e+06   1.938034e+06
  -3.296825e+06  -3.149837e+05
  -1.971320e+06  -1.712080e+06
   7.676062e+05  -1.424830e+06
   2.246456e+06  -7.438451e+03
   1.280452e+06   1.074488e+06
  -6.536487e+05   7.563697e+05
  -1.183531e+06  -4.524504e+05
   1.592705e+05  -9.944368e+05
   1.461757e+06  -1.423908e+05
   8.610499e+05   1.129109e+06
  -1.171263e+06   1.367773e+06
  -2.427994e+06   2.245853e+05
  -1.473708e+06  -1.457746e+06
   9.731561e+05  -2.565210e+06
   2.990593e+06  -2.319746e+06
   3.266243e+06  -5.743948e+05
   1.968399e+06   1.808266e+06
   2.875875e+05   3.234545e+06
  -6.708484e+05   2.807271e+06
  -7.451546e+05   1.376874e+06
  -6.467450e+05   5.203369e+05
  -1.022550e+06   5.650167e+05
  -1.653799e+06   3.891747e+05
  -1.723874e+06  -7.167646e+05
  -8.100821e+05  -1.833747e+06
   5.857379e+05  -1.563008e+06
   1.466105e+06   1.177865e+05
   1.145721e+06   1.745225e+06
  -2.416984e+05   1.941165e+06
  -1.758199e+06   6.605208e+05
  -2.258238e+06  -1.021106e+06
  -1.360663e+06  -1.969153e+06
   9.396239e+04  -1.834996e+06
   8.902281e+05  -1.151604e+06
   8.365392e+05  -6.972693e+05
   9.159130e+05  -6.684075e+05
   1.813339e+06  -5.082778e+05
   2.733961e+06   3.580933e+05
   2.226877e+06   1.722747e+06
   6.601753e+04   2.678195e+06
  -2.221679e+06   2.449611e+06
  -2.864296e+06   1.071984e+06
  -1.598818e+06  -6.086073e+05
   2.086440e+05  -1.494659e+06
   9.785920e+05  -1.053261e+06
   3.201906e+05   1.284625e+05
  -8.101705e+05   7.662440e+05
  -1.166808e+06   2.156635e+05
  -4.491783e+05  -7.159902e+05
   4.574477e+05  -7.247097e+05
   4.800593e+05   2.504762e+05
  -4.519257e+05   8.066334e+05
  -1.317731e+06  -1.574535e+05
  -1.073377e+06  -1.925912e+06
   3.267027e+05  -2.680554e+06
   1.933648e+06  -1.529932e+06
   2.623648e+06   6.037085e+05
   1.926653e+06   2.057348e+06
   3.512017e+05   2.005873e+06
  -9.533739e+05   9.563146e+05
  -1.106012e+06   3.578986e+04
  -3.302436e+05  -4.299040e+04
   2.366019e+05   4.935832e+05
  -1.958238e+05   8.131332e+05
  -1.112210e+06   3.791138e+05
  -1.292771e+06  -4.557762e+05
  -3.424947e+05  -8.464476e+05
   7.412653e+05  -4.222585e+05
   6.996922e+05   3.065601e+05
  -5.151537e+05   5.296550e+05
  -1.640728e+06  -4.403928e+04
  -1.428357e+06  -9.790300e+05
   8.513212e+04  -1.531292e+06
   1.622941e+06  -1.213148e+06
   1.895074e+06  -1.793746e+05
   7.935072e+05   7.886069e+05
  -5.548872e+05   8.847750e+05
  -9.024693e+05   1.060385e+05
  -6.705514e+04  -6.311131e+05
   9.793100e+05  -4.479734e+05
   1.156068e+06   4.783724e+05
   3.299080e+05   1.113395e+06
  -6.593048e+05   7.842506e+05
  -9.015562e+05  -7.326486e+04
  -2.851584e+05  -4.901430e+05
   4.469596e+05  -6.669388e+04
   4.357897e+05   6.712157e+05
  -4.309705e+05   8.926166e+05
  -1.335341e+06   2.721809e+05
  -1.298769e+06  -7.490926e+05
  -2.223281e+05  -1.361496e+06
   9.361906e+05  -1.077443e+06
   1.146935e+06  -1.683386e+05
   3.872572e+05   5.690782e+05
  -4.218199e+05   5.691419e+05
  -4.925676e+05   3.006253e+04
   4.207386e+04  -3.671447e+05
   4.478416e+05  -2.390447e+05
   2.728072e+05   1.152165e+05
  -2.250680e+05   1.307613e+05
  -4.164262e+05  -3.285537e+05
   5.602511e+04  -7.782679e+05
   9.030584e+05  -6.022538e+05
   1.377255e+06   2.944282e+05
   9.314790e+05   1.310586e+06
  -1.988039e+05   1.641177e+06
  -1.143279e+06   1.009285e+06
  -1.242836e+06  -6.117489e+04
  -6.889492e+05  -7.394320e+05
  -2.043873e+05  -6.773547e+05
  -1.719719e+05  -2.738661e+05
  -2.798763e+05  -1.464610e+05
  -3.580882e+04  -4.184814e+05
   5.695008e+05  -6.143029e+05
   1.016317e+06  -2.493070e+05
   7.790652e+05   5.551889e+05
  -1.573556e+05   1.098694e+06
  -1.202827e+06   7.595806e+05
  -1.544858e+06  -3.548182e+05
  -7.914064e+05  -1.414427e+06
   6.093833e+05  -1.573730e+06
   1.653133e+06  -7.360862e+05
   1.639699e+06   3.771954e+05
   7.815181e+05   9.393311e+05
  -9.259125e+04   7.852033e+05
  -3.929744e+05   4.441042e+05
  -2.438945e+05   4.539371e+05
  -1.632099e+05   7.474016e+05
  -4.285793e+05   7.728641e+05
  -8.106125e+05   1.708555e+05
  -8.448277e+05  -7.571526e+05
  -3.185540e+05  -1.284689e+06
   4.614186e+05  -9.479141e+05
   8.763932e+05   4.534193e+03
   5.598033e+05   8.270134e+05
  -2.007055e+05   9.339737e+05
  -7.038465e+05   3.699529e+05
  -5.441488e+05  -3.223164e+05
  -2.115213e+04  -6.478028e+05
   2.384219e+05  -5.559055e+05
   1.768903e+04  -3.444860e+05
  -2.502966e+05  -2.633775e+05
  -9.595865e+03  -2.688631e+05
   7.294574e+05  -1.403569e+05
   1.309922e+06   2.284643e+05
   1.067301e+06   6.796270e+05
   4.280646e+04   9.071970e+05
  -9.804428e+05   7.184502e+05
  -1.207472e+06   2.190876e+05
  -6.008610e+05  -2.374823e+05
   1.326093e+05  -3.295399e+05
   3.210830e+05  -6.305435e+04
  -1.498335e+04   2.100748e+05
  -3.404869e+05   1.364010e+05
  -3.020553e+05  -2.429448e+05
  -6.268285e+04  -5.030652e+05
   2.745429e+04  -3.167353e+05
  -1.155750e+05   1.157908e+05
  -2.705835e+05   2.481775e+05
  -1.919254e+05  -1.569738e+05
   1.692463e+05  -6.776703e+05
   6.204967e+05  -6.739772e+05
   8.050784e+05  -4.360836e+04
   4.479413e+05   6.195617e+05
  -2.925515e+05   6.739810e+05
  -7.813785e+05   1.233319e+05
  -4.611285e+05  -4.287362e+05
   4.696236e+05  -4.408326e+05
   1.113869e+06   6.174175e+04
   7.730562e+05   6.034468e+05
  -2.804887e+05   7.399440e+05
  -1.065750e+06   4.019299e+05
  -9.138332e+05  -1.088690e+05
  -1.187716e+05  -3.775604e+05
   4.403304e+05  -2.094060e+05
   2.295166e+05   1.744124e+05
  -4.376199e+05   2.893849e+05
  -7.753055e+05  -1.440872e+05
  -3.416624e+05  -8.317829e+05
   5.253715e+05  -1.087006e+06
   1.059733e+06  -4.956576e+05
   8.207165e+05   5.785951e+05
   7.278287e+04   1.239220e+06
  -5.485531e+05   9.024247e+05
  -6.484787e+05  -9.716712e+04
  -3.154602e+05  -8.243511e+05
   1.139847e+05  -7.030616e+05
   3.680160e+05  -7.421071e+04
   3.535398e+05   2.893968e+05
   1.591089e+05   1.245204e+05
   1.760573e+04  -8.529618e+04
   1.104994e+05   1.558057e+05
   2.946796e+05   6.493859e+05
   1.656780e+05   7.641497e+05
  -4.235449e+05   2.760737e+05
  -1.003021e+06  -3.612032e+05
  -9.112337e+05  -6.169482e+05
  -1.159154e+05  -4.691766e+05
   6.461254e+05  -2.450455e+05
   6.992766e+05  -1.130907e+05
   2.046728e+05   6.103962e+03
  -1.252829e+05   1.407029e+05
   2.635045e+04   1.827920e+05
   2.360050e+05   1.204756e+05
   2.690487e+03   8.985333e+04
  -5.224407e+05   1.000243e+05
  -6.963065e+05  -5.915835e+04
  -1.761429e+05  -4.533407e+05
   6.631539e+05  -7.198223e+05
   1.122521e+06  -4.175769e+05
   8.537939e+05   3.606362e+05
   1.117760e+05   9.682097e+05
  -5.435156e+05   8.870466e+05
  -7.179524e+05   2.848626e+05
  -4.372964e+05  -2.165530e+05
  -5.065317e+04  -2.395015e+05
   9.780587e+04   6.312188e+03
  -4.305635e+04   5.578645e+04
  -2.243423e+05  -2.448041e+05
  -1.667017e+05  -5.586912e+05
   1.528941e+05  -4.372854e+05
   4.603122e+05   1.482990e+05
   4.235675e+05   7.017855e+05
  -2.235380e+04   6.820442e+05
  -5.433300e+05   7.724670e+04
  -6.458719e+05  -5.731685e+05
  -1.596477e+05  -7.382219e+05
   5.069100e+05  -3.875051e+05
   7.205660e+05   1.007052e+05
   3.115241e+05   3.846965e+05
  -2.026633e+05   3.944070e+05
  -2.168604e+05   2.318840e+05
   2.171591e+05   4.608764e+04
   4.529127e+05   7.751477e+03
   7.173258e+04   1.996573e+05
  -5.829003e+05   4.384605e+05
  -8.321525e+05   3.714946e+05
  -4.645601e+05  -9.391606e+04
   9.546751e+04  -5.626752e+05
   3.521824e+05  -5.471436e+05
   2.331553e+05  -6.618278e+04
  -1.279163e+04   3.425275e+05
  -1.816430e+05   2.551463e+05
  -2.268958e+05  -1.597096e+05
  -1.436500e+05  -3.995630e+05
   5.506757e+04  -2.412497e+05
   2.567192e+05   6.404325e+04
   3.016474e+05   1.699299e+05
   1.659036e+05   4.412526e+04
  -1.246562e+03  -6.069411e+04
  -6.847479e+04   4.482434e+04
  -7.577837e+04   2.570777e+05
  -1.361827e+05   3.002407e+05
  -2.366364e+05   4.453174e+04
  -2.227439e+05  -3.167257e+05
   2.425985e+03  -4.346179e+05
   3.066613e+05  -1.697804e+05
   4.010613e+05   2.380321e+05
   1.227556e+05   4.107488e+05
  -3.403872e+05   2.242819e+05
  -5.612151e+05  -9.841044e+04
  -2.958635e+05  -2.705975e+05
   2.057198e+05  -2.247124e+05
   4.188958e+05  -9.070500e+04
   1.320133e+05  -3.025604e+03
  -2.802910e+05  -1.360594e+04
  -2.834315e+05  -1.137257e+05
   1.718976e+05  -2.140131e+05
   5.807086e+05  -1.416158e+05
