
 $NMID
 id='ANONYMOUS ', fmtdat='(2E16.6)'
 volume=1.0
 tramp=1.0
 $END
  -4.443902e+06  -2.532014e+05
  -3.036121e+06  -2.022561e+06
  -8.014565e+04  -2.802292e+06
   2.009330e+06  -2.078865e+06
   1.837635e+06  -3.517114e+05
   1.911259e+05   8.985356e+05
  -1.049765e+06   5.646611e+05
  -8.602018e+05  -7.860389e+05
   2.076226e+05  -1.476874e+06
   9.507733e+05  -6.698652e+05
   7.688045e+05   6.919305e+05
   1.926100e+04   1.080232e+06
  -5.155947e+05   1.562787e+05
  -3.494426e+05  -9.723112e+05
   3.302504e+05  -1.087725e+06
   8.304898e+05  -1.144884e+05
   5.860921e+05   9.633240e+05
  -2.512566e+05   1.182848e+06
  -9.212805e+05   4.863885e+05
  -8.481254e+05  -3.689600e+05
  -2.524530e+05  -6.591160e+05
   1.392889e+05  -3.981025e+05
  -6.164906e+04  -1.889933e+05
  -4.903934e+05  -4.412513e+05
  -4.637572e+05  -8.854172e+05
   2.544359e+05  -9.310742e+05
   1.146367e+06  -3.790668e+05
   1.388929e+06   3.658470e+05
   6.705397e+05   7.362819e+05
  -4.026385e+05   5.154946e+05
  -8.275068e+05  -5.218335e+04
  -2.409581e+05  -4.918241e+05
   6.622233e+05  -4.255092e+05
   9.038573e+05   1.371967e+05
   3.215533e+05   7.296033e+05
  -3.421009e+05   7.885859e+05
  -4.125484e+05   2.411741e+05
  -2.431076e+04  -3.381681e+05
   2.260108e+05  -3.198259e+05
   6.834305e+04   2.481928e+05
  -2.589867e+05   6.699103e+05
  -4.361617e+05   4.142430e+05
  -3.596322e+05  -2.543435e+05
  -7.715534e+04  -5.875228e+05
   2.621399e+05  -2.204581e+05
   3.620473e+05   4.298197e+05
  -1.446615e+04   6.512240e+05
  -6.504988e+05   1.997719e+05
  -9.164812e+05  -4.943891e+05
  -4.288191e+05  -8.099865e+05
   4.351567e+05  -5.263329e+05
   8.848987e+05   4.584417e+04
   5.575244e+05   4.167216e+05
  -1.387605e+05   3.510343e+05
  -5.163668e+05   1.362083e+04
  -3.086637e+05  -2.327018e+05
   1.476608e+05  -1.646570e+05
   3.261312e+05   1.160320e+05
   5.212179e+04   3.008930e+05
  -3.330382e+05   1.858143e+05
  -3.428376e+05  -1.209269e+05
   9.370373e+04  -2.999013e+05
   4.943726e+05  -1.328911e+05
   3.376919e+05   2.780294e+05
  -3.202361e+05   5.864200e+05
  -8.784502e+05   4.945258e+05
  -8.570481e+05   8.616739e+03
  -3.849824e+05  -5.553781e+05
   4.559657e+04  -8.315829e+05
   1.685008e+05  -7.167406e+05
   1.400011e+05  -4.341905e+05
   2.204012e+05  -2.587070e+05
   4.384788e+05  -1.971244e+05
   6.011544e+05  -2.338405e+04
   5.182241e+05   3.484859e+05
   1.700153e+05   6.420645e+05
  -2.641881e+05   4.957871e+05
  -4.968543e+05  -6.430223e+04
  -3.336556e+05  -5.670438e+05
   1.276103e+05  -5.687539e+05
   5.271828e+05  -1.056516e+05
   5.526544e+05   3.873229e+05
   2.342551e+05   5.480534e+05
  -1.072071e+05   3.950395e+05
  -2.148645e+05   1.981007e+05
  -1.590068e+05   1.490130e+05
  -2.155882e+05   1.965232e+05
  -4.964044e+05   1.478922e+05
  -7.520549e+05  -1.159712e+05
  -6.028371e+05  -5.046511e+05
   1.423412e+04  -7.622642e+05
   6.814086e+05  -6.667072e+05
   8.629104e+05  -2.356627e+05
   4.474515e+05   2.482488e+05
  -1.301167e+05   4.504391e+05
  -3.416322e+05   2.706962e+05
  -9.019810e+04  -6.217396e+04
   2.613381e+05  -2.033945e+05
   3.301851e+05  -3.442564e+04
   9.313664e+04   2.111604e+05
  -1.617902e+05   2.069254e+05
  -1.656504e+05  -6.962298e+04
   8.737521e+04  -2.647626e+05
   3.564752e+05  -4.308690e+04
   3.576177e+05   4.766213e+05
  -9.757326e+02   7.847945e+05
  -5.082197e+05   5.198116e+05
  -7.834164e+05  -1.286763e+05
  -5.975614e+05  -6.185278e+05
  -1.008826e+05  -6.130944e+05
   3.007651e+05  -2.673970e+05
   3.303640e+05   1.625574e+04
   9.410915e+04   1.820847e+04
  -6.302044e+04  -1.448123e+05
   5.866959e+04  -2.186423e+05
   3.044436e+05  -8.829468e+04
   3.528622e+05   1.322817e+05
   9.482587e+04   2.335711e+05
  -2.145301e+05   1.198228e+05
  -2.179909e+05  -9.204803e+04
   1.345509e+05  -1.747908e+05
   4.891707e+05  -8.630412e+03
   4.436645e+05   2.907609e+05
  -1.585686e+04   4.660761e+05
  -4.841581e+05   3.523971e+05
  -5.522391e+05   3.289485e+04
  -2.126137e+05  -2.296113e+05
   1.689439e+05  -2.288179e+05
   2.432775e+05  -8.535055e+03
  -2.411337e+03   1.755747e+05
  -2.857672e+05   1.113372e+05
  -3.272015e+05  -1.442155e+05
  -9.733293e+04  -3.210899e+05
   1.836102e+05  -2.338589e+05
   2.624655e+05   1.024393e+04
   9.236017e+04   1.371862e+05
  -1.187428e+05   1.820622e+04
  -1.134825e+05  -1.950277e+05
   1.391553e+05  -2.488787e+05
   3.896928e+05  -5.486378e+04
   3.601463e+05   2.368551e+05
   4.412418e+04   3.917014e+05
  -2.778719e+05   2.950956e+05
  -3.287821e+05   3.778102e+04
  -1.104957e+05  -1.662121e+05
   1.257163e+05  -1.641788e+05
   1.558549e+05  -2.432692e+03
  -2.344945e+03   1.251957e+05
  -1.439271e+05   8.839445e+04
  -1.113444e+05  -3.521896e+04
   4.301569e+04  -5.998939e+04
   1.202277e+05   7.395769e+04
  -1.000310e+04   2.148008e+05
  -2.593557e+05   1.645551e+05
  -3.908403e+05  -9.912794e+04
  -2.488291e+05  -3.878304e+05
   7.986044e+04  -4.741595e+05
   3.443334e+05  -2.900566e+05
   3.703926e+05   2.156792e+04
   2.117989e+05   2.335615e+05
   6.053180e+04   2.309986e+05
   3.039207e+04   1.044936e+05
   5.547059e+04   4.003942e+04
  -5.331034e+02   1.053801e+05
  -1.630784e+05   1.705947e+05
  -2.958932e+05   7.100562e+04
  -2.321580e+05  -1.696945e+05
   4.575639e+04  -3.292879e+05
   3.548637e+05  -2.164784e+05
   4.469305e+05   1.170361e+05
   2.203649e+05   4.129973e+05
  -1.796024e+05   4.426914e+05
  -4.725229e+05   2.008508e+05
  -4.742579e+05  -1.117827e+05
  -2.381287e+05  -2.776701e+05
   2.053545e+04  -2.451868e+05
   1.317379e+05  -1.448324e+05
   1.048766e+05  -1.289832e+05
   7.394833e+04  -1.980203e+05
   1.317065e+05  -2.033191e+05
   2.281082e+05  -3.252801e+04
   2.294764e+05   2.327601e+05
   7.204163e+04   3.770511e+05
  -1.492017e+05   2.680483e+05
  -2.549183e+05  -9.276639e+03
  -1.545908e+05  -2.374295e+05
   5.728470e+04  -2.638277e+05
   1.904501e+05  -1.115637e+05
   1.476015e+05   7.548535e+04
   1.294909e+04   1.710264e+05
  -5.397049e+04   1.578062e+05
  -1.469852e+02   1.072261e+05
   6.428240e+04   8.444840e+04
  -3.634722e+03   7.926434e+04
  -2.035275e+05   3.219202e+04
  -3.625164e+05  -8.013394e+04
  -2.975223e+05  -2.028288e+05
  -1.284592e+04  -2.507473e+05
   2.771453e+05  -1.876444e+05
   3.449619e+05  -5.570356e+04
   1.734820e+05   5.824255e+04
  -3.644041e+04   8.367003e+04
  -8.746344e+04   2.061431e+04
   1.463364e+04  -4.923496e+04
   1.064925e+05  -3.072147e+04
   8.076748e+04   7.538980e+04
  -3.124119e+03   1.511107e+05
  -2.555159e+04   9.330334e+04
   3.512735e+04  -4.101320e+04
   9.016848e+04  -8.101261e+04
   5.533727e+04   4.474263e+04
  -6.405234e+04   1.973888e+05
  -1.870844e+05   1.830998e+05
  -2.171129e+05  -8.911027e+03
  -1.042767e+05  -1.869455e+05
   9.526507e+04  -1.772488e+05
   2.190296e+05  -9.746391e+03
   1.247591e+05   1.352815e+05
  -1.382042e+05   1.225901e+05
  -3.259092e+05  -2.579713e+04
  -2.324167e+05  -1.797158e+05
   7.689744e+04  -2.195116e+05
   3.153978e+05  -1.207978e+05
   2.742221e+05   3.277739e+04
   3.656177e+04   1.135314e+05
  -1.282915e+05   6.110600e+04
  -5.942933e+04  -4.981271e+04
   1.378908e+05  -7.148315e+04
   2.220603e+05   6.361925e+04
   7.421860e+04   2.526189e+05
  -1.845205e+05   3.027172e+05
  -3.229358e+05   1.179904e+05
  -2.285231e+05  -1.862454e+05
   5.157268e+01  -3.642054e+05
   1.727428e+05  -2.610404e+05
   1.886813e+05   2.895422e+04
   8.858361e+04   2.421649e+05
  -3.097873e+04   2.085490e+05
  -1.040134e+05   2.120673e+04
  -1.074869e+05  -9.050890e+04
  -5.451896e+04  -4.086708e+04
  -2.676857e+03   2.722365e+04
  -1.562974e+04  -4.155705e+04
  -7.052510e+04  -1.911438e+05
  -4.832261e+04  -2.262801e+05
   1.140702e+05  -7.494647e+04
   2.882872e+05   1.207798e+05
   2.665534e+05   1.924950e+05
   2.764960e+04   1.355695e+05
  -2.013571e+05   6.075785e+04
  -2.083724e+05   2.606139e+04
  -5.070683e+04   1.446525e+02
   4.276664e+04  -3.823955e+04
  -1.640619e+04  -5.811973e+04
  -7.948114e+04  -4.398684e+04
   5.009180e+03  -2.715820e+04
   1.667543e+05  -1.704550e+04
   2.001925e+05   3.262618e+04
   2.546333e+04   1.343116e+05
  -2.173730e+05   1.914869e+05
  -3.259256e+05   9.208060e+04
  -2.271481e+05  -1.279697e+05
  -1.088570e+04  -2.856046e+05
   1.702276e+05  -2.436673e+05
   2.137471e+05  -6.205495e+04
   1.256758e+05   7.685277e+04
   5.550813e+03   7.064302e+04
  -3.931304e+04  -9.589670e+03
   8.737145e+03  -2.326693e+04
   6.625212e+04   7.071413e+04
   4.373074e+04   1.647375e+05
  -5.480214e+04   1.222602e+05
  -1.344335e+05  -5.899978e+04
  -1.042482e+05  -2.202332e+05
   3.214588e+04  -1.978433e+05
   1.675554e+05  -1.868937e+03
   1.742777e+05   1.893219e+05
   2.502863e+04   2.173919e+05
  -1.569855e+05   9.472598e+04
  -2.018912e+05  -4.629405e+04
  -7.615171e+04  -1.099914e+05
   6.605504e+04  -1.002609e+05
   5.790513e+04  -6.022577e+04
  -7.285854e+04  -2.060911e+04
  -1.341215e+05  -1.199247e+04
  -1.326812e+04  -5.752713e+04
   1.771961e+05  -1.180624e+05
   2.387740e+05  -9.961329e+04
   1.218977e+05   2.865980e+04
  -3.954809e+04   1.575691e+05
  -1.036401e+05   1.471167e+05
  -5.912755e+04   6.244417e+03
   1.529198e+04  -1.040310e+05
   5.999906e+04  -6.510815e+04
   6.432582e+04   5.991933e+04
   3.273596e+04   1.191899e+05
  -2.392735e+04   6.064570e+04
  -7.338050e+04  -2.764472e+04
  -8.045275e+04  -4.882876e+04
  -4.660477e+04  -1.008458e+04
  -6.227760e+03   1.074050e+04
   1.904490e+04  -2.701932e+04
   3.938827e+04  -8.065018e+04
   6.498551e+04  -7.609262e+04
   7.732587e+04   8.310721e+03
   4.714809e+04   1.088381e+05
  -2.574171e+04   1.293401e+05
  -9.757766e+04   3.916046e+04
  -1.061086e+05  -8.376459e+04
  -2.326808e+04  -1.258975e+05
   1.003630e+05  -5.686558e+04
   1.558335e+05   4.423269e+04
   7.789172e+04   8.483354e+04
  -6.488224e+04   5.415466e+04
  -1.218306e+05   9.115584e+03
  -3.103822e+04  -4.124787e+03
   9.258263e+04   1.596650e+04
   8.543875e+04   4.890738e+04
  -6.207312e+04   6.619912e+04
  -1.856623e+05   3.089353e+04
