
 $NMID
 id='ANONYMOUS ', fmtdat='(2E16.6)'
 volume=1.0
 tramp=1.0
 $END
   1.106715e+07  -3.756956e+06
   9.895879e+06   2.398273e+06
   3.017997e+06   7.295599e+06
  -3.462750e+06   7.052891e+06
  -4.651945e+06   2.268445e+06
  -1.252756e+06  -2.115006e+06
   2.260243e+06  -2.032990e+06
   2.659648e+06   1.419768e+06
   4.202546e+05   3.733711e+06
  -1.893549e+06   2.331323e+06
  -2.359232e+06  -9.253097e+05
  -9.360239e+05  -2.398636e+06
   8.867761e+05  -7.673197e+05
   1.324430e+06   1.941519e+06
  -1.363630e+05   2.800573e+06
  -2.041013e+06   9.177624e+05
  -2.290062e+06  -1.934337e+06
  -4.318316e+05  -3.242952e+06
   1.781005e+06  -2.165949e+06
   2.392372e+06  -7.299024e+04
   1.370769e+06   1.153447e+06
   3.463315e+05   1.057744e+06
   5.352282e+05   6.902047e+05
   1.419814e+06   1.044888e+06
   1.472439e+06   1.898788e+06
  -9.540421e+04   2.252821e+06
  -2.342710e+06   1.525901e+06
  -3.322350e+06   9.946063e+04
  -1.998795e+06  -1.077528e+06
   4.708779e+05  -1.220575e+06
   1.716468e+06  -2.816145e+05
   6.556099e+05   9.054401e+05
  -1.335229e+06   1.175762e+06
  -2.095004e+06   1.028825e+05
  -1.126841e+06  -1.410152e+06
   2.018408e+05  -1.898431e+06
   6.079763e+05  -8.858653e+05
   2.049388e+05   4.989152e+05
  -1.782334e+05   7.063719e+05
  -1.345315e+05  -4.731829e+05
   2.489703e+05  -1.613515e+06
   7.852915e+05  -1.263286e+06
   1.095636e+06   3.448843e+05
   6.197920e+05   1.500171e+06
  -5.877994e+05   9.410694e+05
  -1.361007e+06  -7.253966e+05
  -5.288688e+05  -1.728560e+06
   1.433175e+06  -1.062297e+06
   2.567636e+06   5.799239e+05
   1.565025e+06   1.710879e+06
  -7.086610e+05   1.530391e+06
  -2.152166e+06   4.283542e+05
  -1.630058e+06  -6.267559e+05
   5.884004e+04  -9.216629e+05
   1.215045e+06  -4.217560e+05
   9.284548e+05   2.859488e+05
  -2.043961e+05   4.722887e+05
  -8.255694e+05  -5.481046e+04
  -2.536109e+05  -6.889039e+05
   7.806821e+05  -6.256228e+05
   9.465452e+05   2.043844e+05
  -1.066945e+05   9.558449e+05
  -1.243225e+06   7.283442e+05
  -1.116851e+06  -4.676198e+05
   2.788450e+05  -1.665122e+06
   1.668675e+06  -1.810235e+06
   1.974257e+06  -6.807963e+05
   1.319681e+06   9.381538e+05
   5.374583e+05   1.940597e+06
   1.157797e+05   1.856834e+06
  -1.014662e+05   1.186568e+06
  -4.332952e+05   7.278814e+05
  -9.227528e+05   6.288480e+05
  -1.326588e+06   3.277809e+05
  -1.312490e+06  -5.102308e+05
  -6.912767e+05  -1.316381e+06
   3.333456e+05  -1.195789e+06
   1.122932e+06  -6.972266e+04
   1.032766e+06   1.108280e+06
   4.382322e+04   1.343785e+06
  -1.096979e+06   5.677436e+05
  -1.507454e+06  -4.711647e+05
  -9.828888e+05  -1.045192e+06
  -1.344988e+05  -1.013213e+06
   3.116443e+05  -7.193082e+05
   3.027709e+05  -5.617963e+05
   4.397710e+05  -6.367281e+05
   1.127228e+06  -6.484553e+05
   1.884953e+06  -1.771615e+05
   1.748188e+06   8.277860e+05
   4.173920e+05   1.803690e+06
  -1.205037e+06   1.967074e+06
  -1.840199e+06   1.065239e+06
  -1.135669e+06  -2.816498e+05
   3.931659e+04  -1.067232e+06
   5.754626e+05  -7.942434e+05
   1.965769e+05   7.710748e+04
  -4.784195e+05   5.919735e+05
  -7.132894e+05   2.697774e+05
  -3.341150e+05  -3.980224e+05
   2.293234e+05  -5.202484e+05
   3.802001e+05   1.058008e+05
  -1.229652e+05   6.614040e+05
  -8.921314e+05   2.364391e+05
  -1.142817e+06  -1.014109e+06
  -3.864886e+05  -1.912756e+06
   9.954893e+05  -1.514720e+06
   1.962328e+06  -1.121758e+05
   1.740242e+06   1.130915e+06
   5.666777e+05   1.380241e+06
  -5.381789e+05   8.030092e+05
  -7.592833e+05   1.677591e+05
  -2.282461e+05   2.375211e+04
   2.184607e+05   3.032483e+05
  -1.810878e+04   5.436713e+05
  -6.576695e+05   3.825218e+05
  -8.887874e+05  -1.043123e+05
  -3.363739e+05  -4.763107e+05
   4.388910e+05  -3.631742e+05
   5.262466e+05   1.311612e+05
  -2.821454e+05   4.827819e+05
  -1.182652e+06   2.488319e+05
  -1.190193e+06  -4.766054e+05
  -1.902156e+05  -1.109895e+06
   9.469965e+05  -1.090839e+06
   1.265770e+06  -3.984536e+05
   6.322314e+05   3.961067e+05
  -2.413299e+05   6.285535e+05
  -5.456220e+05   1.786667e+05
  -9.443015e+04  -3.908675e+05
   5.970998e+05  -4.141960e+05
   8.396020e+05   1.529173e+05
   3.989977e+05   6.909901e+05
  -3.049211e+05   6.339673e+05
  -6.079385e+05   1.048179e+05
  -2.633710e+05  -2.678370e+05
   2.899019e+05  -8.313752e+04
   3.716924e+05   4.220501e+05
  -2.047642e+05   6.745947e+05
  -8.970374e+05   3.504830e+05
  -9.856090e+05  -3.488748e+05
  -3.332482e+05  -8.909117e+05
   4.722045e+05  -8.541597e+05
   7.338856e+05  -2.873653e+05
   3.378255e+05   3.085539e+05
  -2.024645e+05   4.313207e+05
  -3.334787e+05   7.332477e+04
  -1.484795e+04  -2.888436e+05
   3.152554e+05  -2.493750e+05
   2.570402e+05   6.361335e+04
  -1.211656e+05   1.758804e+05
  -3.617353e+05  -1.332558e+05
  -1.002368e+05  -5.476484e+05
   5.331436e+05  -5.547834e+05
   9.931241e+05   7.559053e+03
   8.221047e+05   7.715290e+05
   9.620287e+04   1.157584e+06
  -6.366879e+05   8.718558e+05
  -8.764821e+05   1.588839e+05
  -6.162961e+05  -4.130242e+05
  -2.607879e+05  -4.745853e+05
  -1.431443e+05  -1.954102e+05
  -1.915200e+05  -5.707758e+04
  -8.946506e+04  -2.736845e+05
   2.919326e+05  -5.260352e+05
   6.848599e+05  -3.483047e+05
   6.607662e+05   2.763387e+05
   7.161597e+04   8.184644e+05
  -7.322965e+05   7.238393e+05
  -1.132603e+06  -2.154043e+04
  -7.537224e+05  -8.609692e+05
   1.840381e+05  -1.162040e+06
   1.014382e+06  -7.465908e+05
   1.181493e+06   4.038606e+03
   6.976990e+05   5.262546e+05
   6.794742e+04   5.768539e+05
  -2.241122e+05   3.908533e+05
  -1.407961e+05   3.480293e+05
  -2.688499e+04   5.134361e+05
  -1.801581e+05   5.701825e+05
  -5.208970e+05   2.222108e+05
  -6.792328e+05  -4.059275e+05
  -3.921515e+05  -8.393399e+05
   1.899368e+05  -7.122415e+05
   6.026657e+05  -1.185503e+05
   5.016298e+05   4.817397e+05
   7.245904e+03   6.645552e+05
  -4.110756e+05   3.665876e+05
  -4.135398e+05  -1.185549e+05
  -1.218021e+05  -4.244495e+05
   6.400277e+04  -4.144018e+05
  -4.763746e+04  -2.441857e+05
  -2.121036e+05  -1.497136e+05
  -4.791976e+04  -1.894558e+05
   4.765056e+05  -2.070599e+05
   9.294287e+05  -3.209691e+04
   8.299994e+05   3.126365e+05
   1.629812e+05   6.071703e+05
  -5.614766e+05   6.223268e+05
  -7.884037e+05   3.265815e+05
  -4.447823e+05  -6.069574e+04
   3.835942e+04  -2.368647e+05
   2.069593e+05  -9.739935e+04
   1.957912e+04   1.378666e+05
  -2.145438e+05   1.456997e+05
  -2.420331e+05  -1.193168e+05
  -1.078879e+05  -3.414907e+05
  -1.550133e+04  -2.233829e+05
  -6.304336e+04   1.100693e+05
  -1.659586e+05   2.248726e+05
  -1.678126e+05  -8.510565e+04
   2.292090e+04  -5.080816e+05
   3.404802e+05  -5.568957e+05
   5.457606e+05  -1.318142e+05
   3.851447e+05   3.709328e+05
  -1.099337e+05   4.972754e+05
  -5.163139e+05   1.849802e+05
  -3.791194e+05  -2.320448e+05
   2.541847e+05  -3.737888e+05
   7.795791e+05  -1.286652e+05
   6.379641e+05   2.970071e+05
  -6.988654e+04   5.603740e+05
  -6.770316e+05   4.498818e+05
  -6.562814e+05   6.637593e+04
  -1.422647e+05  -2.450554e+05
   2.715530e+05  -2.094060e+05
   1.756524e+05   8.789316e+04
  -2.712624e+05   2.559203e+05
  -5.563225e+05  -1.967315e+03
  -3.422689e+05  -5.328034e+05
   2.208411e+05  -8.208323e+05
   6.653230e+05  -4.861348e+05
   6.480411e+05   2.840196e+05
   2.276202e+05   8.459471e+05
  -2.478904e+05   7.076347e+05
  -4.632033e+05   3.276152e+04
  -3.420491e+05  -5.237338e+05
  -2.813059e+04  -5.063012e+05
   2.434903e+05  -1.053547e+05
   2.924067e+05   1.525543e+05
   1.336637e+05   6.616271e+04
  -4.200118e+03  -6.162452e+04
   8.611929e+04   9.035034e+04
   2.892337e+05   4.048124e+05
   2.302211e+05   5.015999e+05
  -2.424018e+05   2.487707e+05
  -7.439386e+05  -1.060537e+05
  -7.252780e+05  -2.936962e+05
  -1.490004e+05  -3.064218e+05
   4.177478e+05  -2.632986e+05
   4.692176e+05  -1.813404e+05
   1.359676e+05  -2.839432e+04
  -6.816234e+04   1.130949e+05
   5.585823e+04   1.241550e+05
   1.918413e+05   5.511412e+04
   1.038458e+04   6.641753e+04
  -3.592278e+05   1.420393e+05
  -4.894671e+05   5.232133e+04
  -1.713679e+05  -2.904580e+05
   3.663430e+05  -5.856807e+05
   7.110767e+05  -4.377771e+05
   6.306921e+05   1.356753e+05
   2.111453e+05   6.554530e+05
  -2.498057e+05   6.873331e+05
  -4.598980e+05   2.919883e+05
  -3.365292e+05  -9.526935e+04
  -6.359638e+04  -1.616035e+05
   7.872791e+04  -6.097115e+03
  -1.801029e+04   5.029181e+04
  -1.928962e+05  -1.352923e+05
  -1.946778e+05  -3.628874e+05
   4.928323e+04  -3.204386e+05
   3.414523e+05   4.639446e+04
   3.843392e+05   4.330648e+05
   6.911912e+04   4.737922e+05
  -3.703220e+05   1.215116e+05
  -5.243417e+05  -3.128605e+05
  -2.084021e+05  -4.878452e+05
   2.985501e+05  -3.333629e+05
   5.092501e+05  -2.766299e+04
   2.631601e+05   2.195496e+05
  -8.799101e+04   2.944477e+05
  -1.134516e+05   1.858773e+05
   1.639432e+05   3.005438e+02
   3.171346e+05  -5.820576e+04
   7.544747e+04   1.271014e+05
  -3.404793e+05   3.849763e+05
  -5.143194e+05   3.764389e+05
  -3.245670e+05   4.625910e+03
  -1.160769e+04  -3.980749e+05
   1.604252e+05  -4.223578e+05
   1.459330e+05  -7.191926e+04
   3.667265e+04   2.421523e+05
  -9.188350e+04   1.987273e+05
  -1.814260e+05  -8.433940e+04
  -1.543535e+05  -2.563437e+05
   7.463845e+03  -1.687824e+05
   1.861766e+05   1.145913e+04
   2.279412e+05   7.101136e+04
   1.195732e+05   2.648026e+03
  -4.273421e+03  -3.772566e+04
  -3.809086e+04   5.117047e+04
  -2.470460e+04   1.943879e+05
  -6.670715e+04   2.219007e+05
  -1.637434e+05   5.285018e+04
  -1.910427e+05  -1.971243e+05
  -4.791110e+04  -3.042968e+05
   1.922312e+05  -1.580452e+05
   3.074564e+05   1.138369e+05
   1.396762e+05   2.706739e+05
  -2.024031e+05   2.013185e+05
  -3.983503e+05   6.063675e+03
  -2.397817e+05  -1.463616e+05
   1.119632e+05  -1.781585e+05
   2.753559e+05  -1.139758e+05
   8.492824e+04  -1.896139e+04
  -2.035227e+05   2.479935e+04
  -2.149919e+05  -4.591808e+04
   9.413585e+04  -1.766694e+05
   3.904938e+05  -1.801603e+05
