
 $NMID
 id='ANONYMOUS ', fmtdat='(2E16.6)'
 volume=1.0
 tramp=1.0
 $END
   4.559090e+07  -1.909820e+05
   2.781793e+07   2.778383e+07
  -5.527097e+06   3.086304e+07
  -2.224772e+07   1.240841e+07
  -1.366711e+07  -5.235752e+06
   2.443346e+06  -7.660314e+06
   8.115864e+06   6.811387e+05
   2.565799e+06   7.939063e+06
  -4.898890e+06   7.916476e+06
  -7.910954e+06   1.870762e+06
  -5.771750e+06  -5.074102e+06
  -6.679064e+05  -7.117157e+06
   3.287131e+06  -2.205539e+06
   2.177258e+06   4.621687e+06
  -3.067155e+06   5.555253e+06
  -6.484769e+06  -9.614397e+05
  -3.744431e+06  -8.321792e+06
   2.990091e+06  -9.687872e+06
   8.201549e+06  -4.848569e+06
   8.752475e+06   1.678720e+06
   5.294713e+06   6.032129e+06
   5.555231e+05   6.868733e+06
  -2.177184e+06   4.822366e+06
  -1.232980e+06   2.337578e+06
   1.017430e+06   2.069554e+06
   7.310420e+04   3.613290e+06
  -4.653016e+06   3.553581e+06
  -8.052124e+06   2.466153e+05
  -5.745681e+06  -3.476258e+06
  -5.064993e+04  -4.109644e+06
   3.197026e+06  -1.956874e+06
   1.985244e+06   1.831658e+05
  -7.686767e+05   8.690735e+05
  -2.137680e+06   2.892673e+05
  -1.812968e+06  -1.413961e+06
  -3.937243e+05  -3.354272e+06
   1.540732e+06  -3.091174e+06
   2.497753e+06   1.821231e+05
   1.254015e+06   2.919466e+06
  -5.917007e+05   1.392831e+06
  -1.389028e+05  -2.171140e+06
   2.097998e+06  -1.965310e+06
   2.071721e+06   2.582042e+06
  -1.823342e+06   5.041395e+06
  -5.507904e+06   9.407331e+05
  -4.172314e+06  -5.526955e+06
   1.442490e+06  -6.916397e+06
   6.029603e+06  -1.998485e+06
   5.802281e+06   3.653732e+06
   1.627302e+06   5.039803e+06
  -2.890658e+06   2.338297e+06
  -4.475868e+06  -1.208279e+06
  -2.133417e+06  -2.895132e+06
   1.930834e+06  -1.869013e+06
   3.742732e+06   6.958438e+05
   1.659555e+06   2.206091e+06
  -1.390615e+06   1.139558e+06
  -1.493145e+06  -8.491208e+05
   1.012837e+06  -8.591051e+05
   2.097233e+06   1.273808e+06
  -2.982800e+05   2.748862e+06
  -3.628106e+06   1.651358e+06
  -4.351852e+06  -9.656538e+05
  -1.971590e+06  -3.201817e+06
   1.518341e+06  -4.340519e+06
   4.247836e+06  -3.972516e+06
   5.160752e+06  -1.372055e+06
   3.722011e+06   2.665551e+06
   7.277252e+05   5.137182e+06
  -1.511051e+06   4.024727e+06
  -1.444381e+06   1.151591e+06
  -2.460790e+05  -9.162497e+04
  -1.753336e+05   8.177749e+05
  -1.492456e+06   1.375653e+06
  -2.386762e+06   2.873886e+04
  -1.628414e+06  -1.770448e+06
   1.049653e+05  -1.865850e+06
   1.418244e+06  -1.143101e+05
   1.435501e+06   1.867554e+06
  -5.863189e+04   2.522871e+06
  -2.369611e+06   1.328727e+06
  -3.705739e+06  -1.080207e+06
  -2.614967e+06  -3.139925e+06
   5.121315e+04  -3.453526e+06
   1.845421e+06  -2.214427e+06
   1.804678e+06  -9.678142e+05
   1.529597e+06  -6.244188e+05
   2.517227e+06  -4.352207e+05
   3.721699e+06   6.508867e+05
   2.977875e+06   2.384114e+06
   8.492043e+04   3.552333e+06
  -2.807012e+06   3.322802e+06
  -3.628275e+06   1.744444e+06
  -2.255705e+06  -4.372474e+05
  -1.528568e+05  -1.928277e+06
   1.002957e+06  -1.617009e+06
   4.735798e+05   5.403975e+04
  -9.643372e+05   1.104347e+06
  -1.632005e+06   3.231224e+05
  -7.595965e+05  -1.030156e+06
   4.758547e+05  -9.527151e+05
   4.016117e+05   3.445004e+05
  -8.897191e+05   6.608061e+05
  -1.625260e+06  -1.005240e+06
  -6.555586e+05  -2.960276e+06
   1.277327e+06  -3.021854e+06
   2.708402e+06  -1.081411e+06
   2.929414e+06   1.215198e+06
   2.014777e+06   2.446747e+06
   3.777002e+05   2.307665e+06
  -1.104466e+06   1.253381e+06
  -1.373748e+06   1.660534e+05
  -4.261235e+05  -4.499109e+04
   3.040707e+05   6.540203e+05
  -3.553592e+05   1.147997e+06
  -1.632760e+06   4.881023e+05
  -1.747917e+06  -7.638890e+05
  -3.359610e+05  -1.217977e+06
   1.017724e+06  -4.914684e+05
   7.837770e+05   4.079905e+05
  -7.391518e+05   4.752282e+05
  -1.923236e+06  -2.739721e+05
  -1.541056e+06  -1.209415e+06
   2.251343e+05  -1.742774e+06
   2.031110e+06  -1.430396e+06
   2.414223e+06  -2.129213e+05
   1.043152e+06   1.098523e+06
  -7.983485e+05   1.278494e+06
  -1.333066e+06   1.513897e+05
  -1.566603e+05  -9.243539e+05
   1.317227e+06  -6.206860e+05
   1.486951e+06   6.878570e+05
   2.922334e+05   1.441324e+06
  -9.506998e+05   8.576419e+05
  -1.100450e+06  -2.662052e+05
  -2.221828e+05  -6.802453e+05
   6.833671e+05  -4.617234e+04
   6.249819e+05   9.172592e+05
  -5.175589e+05   1.224938e+06
  -1.746705e+06   4.434439e+05
  -1.750843e+06  -9.340296e+05
  -3.120405e+05  -1.801476e+06
   1.260873e+06  -1.412485e+06
   1.500394e+06  -1.710445e+05
   4.342587e+05   7.588041e+05
  -5.787733e+05   6.957774e+05
  -5.592372e+05   5.474139e+04
   1.062445e+05  -3.310967e+05
   4.489987e+05  -1.868209e+05
   1.300591e+05   7.388938e+04
  -3.843040e+05  -4.302227e+04
  -4.577114e+05  -5.738023e+05
   1.777981e+05  -1.030318e+06
   1.206069e+06  -7.678298e+05
   1.803230e+06   3.791090e+05
   1.250428e+06   1.701002e+06
  -2.157934e+05   2.102452e+06
  -1.424490e+06   1.219383e+06
  -1.481120e+06  -1.240149e+05
  -7.477066e+05  -8.063082e+05
  -2.621840e+05  -5.989103e+05
  -3.902806e+05  -2.062339e+05
  -5.265171e+05  -2.649689e+05
  -7.311496e+04  -6.521106e+05
   7.663038e+05  -7.779465e+05
   1.268029e+06  -2.736052e+05
   9.141968e+05   6.470648e+05
  -2.313353e+05   1.281937e+06
  -1.512653e+06   9.216032e+05
  -1.953305e+06  -4.439694e+05
  -9.706670e+05  -1.836612e+06
   8.894457e+05  -2.047618e+06
   2.213211e+06  -8.810026e+05
   2.046318e+06   5.874356e+05
   8.344873e+05   1.180779e+06
  -1.863753e+05   8.396713e+05
  -3.617709e+05   4.484944e+05
  -9.614098e+04   6.416817e+05
  -1.081384e+05   1.115852e+06
  -5.877652e+05   1.103314e+06
  -1.118417e+06   2.627309e+05
  -1.146204e+06  -9.519221e+05
  -4.612783e+05  -1.650755e+06
   5.569917e+05  -1.240352e+06
   1.118698e+06   1.380793e+04
   6.977201e+05   1.118775e+06
  -3.439864e+05   1.211388e+06
  -1.007991e+06   3.562330e+05
  -7.035959e+05  -5.959072e+05
   1.017266e+05  -9.283635e+05
   4.599699e+05  -6.826000e+05
   7.514098e+04  -3.693202e+05
  -3.683998e+05  -2.978720e+05
  -4.563128e+04  -3.338706e+05
   9.953017e+05  -1.747255e+05
   1.782069e+06   3.035666e+05
   1.395574e+06   9.120436e+05
  -3.576603e+04   1.243182e+06
  -1.379894e+06   9.759843e+05
  -1.592737e+06   2.300435e+05
  -7.278407e+05  -4.279889e+05
   2.251819e+05  -4.883505e+05
   4.440142e+05  -3.020165e+04
   2.264950e+04   3.574570e+05
  -3.894466e+05   2.162192e+05
  -4.134864e+05  -3.010971e+05
  -2.044445e+05  -6.278804e+05
  -7.164282e+04  -4.133188e+05
  -1.241344e+05   8.535742e+04
  -2.548425e+05   2.537253e+05
  -2.387018e+05  -2.046714e+05
   1.373741e+05  -8.554060e+05
   7.901670e+05  -9.160319e+05
   1.173911e+06  -1.401088e+05
   7.238207e+05   7.972795e+05
  -3.670988e+05   9.798854e+05
  -1.087188e+06   2.787077e+05
  -6.296917e+05  -5.056412e+05
   6.158415e+05  -5.585505e+05
   1.383685e+06   9.856320e+04
   8.729129e+05   7.650114e+05
  -4.297389e+05   8.628420e+05
  -1.314830e+06   4.057601e+05
  -1.076871e+06  -1.795399e+05
  -1.124146e+05  -4.515756e+05
   5.690092e+05  -2.297236e+05
   3.314451e+05   2.568579e+05
  -5.125163e+05   4.454291e+05
  -1.024504e+06  -8.176949e+04
  -5.704944e+05  -1.029396e+06
   5.265757e+05  -1.470890e+06
   1.295385e+06  -7.555899e+05
   1.084844e+06   6.691992e+05
   1.602248e+05   1.560097e+06
  -6.579442e+05   1.119896e+06
  -8.063496e+05  -1.628124e+05
  -3.645320e+05  -1.044079e+06
   2.028463e+05  -8.445267e+05
   4.917831e+05  -6.869164e+04
   4.007005e+05   3.352425e+05
   1.389600e+05   1.236675e+05
   4.456837e+04  -8.325715e+04
   2.448955e+05   2.561976e+05
   4.368385e+05   8.442361e+05
   1.540071e+05   9.434168e+05
  -6.284261e+05   3.410845e+05
  -1.279191e+06  -4.177464e+05
  -1.104548e+06  -7.424717e+05
  -1.555087e+05  -6.105401e+05
   7.429490e+05  -3.556765e+05
   8.581053e+05  -1.484775e+05
   3.179435e+05   4.856338e+04
  -1.267622e+05   1.945851e+05
  -3.850889e+04   1.794621e+05
   2.231838e+05   8.496403e+04
   4.500659e+04   1.145998e+05
  -5.704549e+05   1.997336e+05
  -9.109508e+05  -1.392084e+04
  -3.820910e+05  -6.011316e+05
   7.313686e+05  -1.021346e+06
   1.485785e+06  -6.565873e+05
   1.232830e+06   3.747774e+05
   2.346793e+05   1.223264e+06
  -6.755644e+05   1.197306e+06
  -9.144456e+05   4.687072e+05
  -5.667528e+05  -2.016777e+05
  -1.182001e+05  -3.114253e+05
   5.301321e+04  -5.919974e+04
  -7.554393e+04   1.002752e+04
  -2.572254e+05  -3.256937e+05
  -2.082150e+05  -7.064898e+05
   1.565102e+05  -5.919365e+05
   5.888824e+05   1.024635e+05
   6.436329e+05   8.230266e+05
   1.082908e+05   8.960392e+05
  -6.475868e+05   2.210383e+05
  -8.996216e+05  -6.203407e+05
  -3.072715e+05  -9.481162e+05
   6.187253e+05  -5.950459e+05
   9.778598e+05   6.334871e+04
   4.691129e+05   5.395976e+05
  -2.494695e+05   5.990723e+05
  -3.387976e+05   3.241216e+05
   2.051867e+05   7.808102e+03
   5.628582e+05  -3.342845e+04
   1.307298e+05   2.694294e+05
  -7.211316e+05   5.876713e+05
  -1.108401e+06   4.623116e+05
  -6.751181e+05  -1.611279e+05
   8.396355e+04  -7.604197e+05
   4.902030e+05  -7.507686e+05
   3.787516e+05  -1.500501e+05
   5.002821e+04   4.117537e+05
  -2.055962e+05   3.837109e+05
  -3.032896e+05  -1.197425e+05
  -2.218193e+05  -5.024035e+05
   4.162677e+04  -3.798277e+05
   3.397346e+05   3.511781e+04
   4.189057e+05   2.507060e+05
   2.127572e+05   9.018713e+04
  -3.651471e+04  -1.368929e+05
  -7.635522e+04  -5.319309e+04
   2.170110e+04   2.980779e+05
  -2.202961e+04   4.845701e+05
  -2.670295e+05   2.062578e+05
  -4.088328e+05  -3.153567e+05
  -1.534457e+05  -5.579877e+05
   3.492417e+05  -2.775084e+05
   5.836624e+05   2.349907e+05
   2.252366e+05   4.940456e+05
  -4.447895e+05   3.205843e+05
  -7.737361e+05  -5.958773e+04
  -4.203031e+05  -3.279116e+05
   2.538824e+05  -3.565331e+05
   5.570417e+05  -2.091650e+05
   2.260930e+05  -1.979198e+04
  -2.875840e+05   6.543852e+04
  -3.474310e+05  -4.435713e+04
   1.382833e+05  -2.440892e+05
   6.310413e+05  -2.333816e+05
