
 $NMID
 id='ANONYMOUS ', fmtdat='(2E16.6)'
 volume=1.0
 tramp=1.0
 $END
   1.938908e+07  -8.691233e+05
   1.374723e+07   7.945480e+06
   1.117453e+06   1.218985e+07
  -7.867754e+06   9.268774e+06
  -7.426897e+06   1.815028e+06
  -9.517791e+05  -3.595646e+06
   4.059500e+06  -2.427302e+06
   3.601922e+06   2.986106e+06
  -4.435751e+05   5.947833e+06
  -3.667767e+06   2.963634e+06
  -3.453805e+06  -2.492992e+06
  -5.917653e+05  -4.351492e+06
   1.976012e+06  -9.088066e+05
   1.781855e+06   3.702539e+06
  -9.623314e+05   4.473040e+06
  -3.417413e+06   7.137520e+05
  -2.825914e+06  -3.826576e+06
   5.739302e+05  -5.114170e+06
   3.693574e+06  -2.552420e+06
   3.859268e+06   1.061269e+06
   1.572386e+06   2.691742e+06
  -2.956416e+05   1.956503e+06
   1.951504e+05   9.648771e+05
   1.967054e+06   1.571405e+06
   2.186447e+06   3.230644e+06
  -5.492353e+05   3.796159e+06
  -4.388228e+06   2.097524e+06
  -5.775726e+06  -7.702034e+05
  -3.102303e+06  -2.638097e+06
   1.290178e+06  -2.272527e+06
   3.259184e+06  -2.238270e+05
   1.193955e+06   1.744022e+06
  -2.322355e+06   1.904913e+06
  -3.538930e+06  -9.171363e+04
  -1.647350e+06  -2.618984e+06
   8.516236e+05  -3.256259e+06
   1.481312e+06  -1.277757e+06
   3.751230e+05   1.220554e+06
  -6.297311e+05   1.440972e+06
  -4.035557e+05  -8.087751e+05
   6.625730e+05  -2.729978e+06
   1.567414e+06  -1.854796e+06
   1.553700e+06   9.282648e+05
   4.004031e+05   2.430571e+06
  -1.220091e+06   9.582863e+05
  -1.750744e+06  -1.804328e+06
  -9.302895e+04  -2.852209e+06
   2.717208e+06  -1.122662e+06
   3.959908e+06   1.689787e+06
   2.029513e+06   3.130067e+06
  -1.553576e+06   2.260728e+06
  -3.552051e+06   1.318698e+05
  -2.367692e+06  -1.442227e+06
   4.604193e+05  -1.419606e+06
   2.097118e+06  -2.162429e+05
   1.318794e+06   8.259567e+05
  -5.551843e+05   7.059486e+05
  -1.328085e+06  -3.309645e+05
  -2.605246e+05  -1.107212e+06
   1.249980e+06  -7.427955e+05
   1.267228e+06   4.424397e+05
  -4.533020e+05   1.227705e+06
  -2.036627e+06   6.455442e+05
  -1.492759e+06  -1.081176e+06
   1.018220e+06  -2.602630e+06
   3.302285e+06  -2.490888e+06
   3.501837e+06  -5.034439e+05
   1.908900e+06   2.054164e+06
   2.471368e+05   3.410226e+06
  -3.850908e+05   2.966672e+06
  -3.881794e+05   1.752355e+06
  -7.039292e+05   1.084387e+06
  -1.566426e+06   9.988079e+05
  -2.337925e+06   4.283206e+05
  -2.226994e+06  -1.083885e+06
  -9.954415e+05  -2.417475e+06
   7.781297e+05  -2.048755e+06
   1.942500e+06   3.170627e+04
   1.550401e+06   2.068429e+06
  -2.358914e+05   2.303298e+06
  -2.047323e+06   6.923983e+05
  -2.441924e+06  -1.260089e+06
  -1.274824e+06  -2.117594e+06
   2.195614e+05  -1.726320e+06
   8.206880e+05  -9.773317e+05
   6.379075e+05  -6.962032e+05
   8.139823e+05  -8.676649e+05
   1.942742e+06  -7.885760e+05
   3.082777e+06   1.484051e+05
   2.645615e+06   1.760304e+06
   2.775451e+05   3.056125e+06
  -2.421224e+06   2.977326e+06
  -3.321698e+06   1.356575e+06
  -1.894569e+06  -7.544025e+05
   2.844805e+05  -1.839854e+06
   1.200077e+06  -1.239587e+06
   3.711221e+05   1.976763e+05
  -9.457761e+05   9.204432e+05
  -1.295372e+06   2.744527e+05
  -4.682128e+05  -7.992871e+05
   5.353444e+05  -8.704495e+05
   6.484621e+05   2.208469e+05
  -2.805248e+05   1.044071e+06
  -1.403539e+06   2.262583e+05
  -1.564179e+06  -1.802503e+06
  -2.516399e+05  -3.086266e+06
   1.827401e+06  -2.207767e+06
   3.141592e+06   2.051951e+05
   2.608773e+06   2.175483e+06
   6.640431e+05   2.370935e+06
  -1.063875e+06   1.204567e+06
  -1.310265e+06   9.852555e+04
  -3.807089e+05  -2.482076e+04
   3.070880e+05   5.526380e+05
  -1.568096e+05   9.010503e+05
  -1.191535e+06   4.745096e+05
  -1.455779e+06  -3.947991e+05
  -4.513735e+05  -8.908230e+05
   8.130899e+05  -5.430860e+05
   8.823925e+05   2.915393e+05
  -4.909252e+05   7.362731e+05
  -1.941917e+06   2.138568e+05
  -1.864510e+06  -9.722310e+05
  -1.204738e+05  -1.844186e+06
   1.771952e+06  -1.599687e+06
   2.177112e+06  -3.719474e+05
   9.439505e+05   8.213590e+05
  -5.774522e+05   9.899421e+05
  -9.712784e+05   1.403572e+05
  -6.563738e+04  -7.041380e+05
   1.094515e+06  -5.633081e+05
   1.358070e+06   4.415622e+05
   5.068911e+05   1.229925e+06
  -6.389060e+05   9.831345e+05
  -1.031905e+06   4.726077e+04
  -3.953566e+05  -5.073954e+05
   4.876917e+05  -1.039832e+05
   5.409682e+05   7.512820e+05
  -4.552814e+05   1.069233e+06
  -1.543382e+06   3.968005e+05
  -1.549825e+06  -7.872284e+05
  -3.487397e+05  -1.545842e+06
   9.801501e+05  -1.296819e+06
   1.285053e+06  -2.912975e+05
   4.949207e+05   6.067526e+05
  -4.349317e+05   6.910863e+05
  -6.007083e+05   6.864161e+04
  -2.086630e+04  -4.860953e+05
   5.350693e+05  -3.923008e+05
   4.337893e+05   9.866863e+04
  -1.701768e+05   2.435968e+05
  -5.178046e+05  -2.634802e+05
  -4.629468e+04  -8.766522e+05
   9.729817e+05  -7.777147e+05
   1.612999e+06   2.238157e+05
   1.173059e+06   1.441392e+06
  -1.017762e+05   1.923599e+06
  -1.235756e+06   1.296626e+06
  -1.469487e+06   7.452691e+04
  -9.303312e+05  -8.125695e+05
  -3.444211e+05  -8.527648e+05
  -1.925018e+05  -3.796970e+05
  -2.694699e+05  -1.441851e+05
  -5.870383e+04  -4.421249e+05
   5.782424e+05  -7.645733e+05
   1.156082e+06  -4.183559e+05
   1.003974e+06   5.678066e+05
  -3.820477e+04   1.328463e+06
  -1.324059e+06   1.022029e+06
  -1.837751e+06  -2.686507e+05
  -1.054386e+06  -1.558171e+06
   5.402635e+05  -1.851259e+06
   1.810574e+06  -9.999037e+05
   1.931188e+06   2.521926e+05
   1.045616e+06   9.996632e+05
   1.333241e+04   9.636645e+05
  -4.436244e+05   6.170418e+05
  -3.293680e+05   5.650389e+05
  -1.888860e+05   8.408304e+05
  -4.371354e+05   8.838069e+05
  -9.047603e+05   2.374224e+05
  -1.025311e+06  -8.232199e+05
  -4.593402e+05  -1.470640e+06
   4.723205e+05  -1.135081e+06
   1.018860e+06  -7.069993e+04
   7.173762e+05   8.893445e+05
  -1.256386e+05   1.080393e+06
  -7.290043e+05   5.117543e+05
  -6.273218e+05  -2.646919e+05
  -1.089395e+05  -6.947857e+05
   1.720876e+05  -6.513286e+05
  -3.703322e+04  -4.153845e+05
  -3.044772e+05  -2.996299e+05
  -2.942043e+04  -3.173235e+05
   8.092399e+05  -2.227821e+05
   1.503312e+06   1.574488e+05
   1.282755e+06   6.853699e+05
   1.452997e+05   1.010783e+06
  -1.043491e+06   8.812234e+05
  -1.357334e+06   3.654457e+05
  -7.110684e+05  -1.774981e+05
   1.154789e+05  -3.627327e+05
   3.469373e+05  -1.146766e+05
  -2.279157e+04   2.171719e+05
  -3.980862e+05   1.793303e+05
  -3.609901e+05  -2.587715e+05
  -7.882470e+04  -5.971074e+05
   4.130522e+04  -3.812023e+05
  -1.193900e+05   1.710048e+05
  -3.140022e+05   3.518838e+05
  -2.463929e+05  -1.585420e+05
   1.527563e+05  -8.191481e+05
   6.683241e+05  -8.268026e+05
   8.988634e+05  -7.794620e+04
   5.268732e+05   6.990873e+05
  -2.981244e+05   7.711369e+05
  -8.822594e+05   1.608774e+05
  -5.646331e+05  -4.742288e+05
   4.974283e+05  -5.506814e+05
   1.303956e+06  -4.071930e+04
   9.888041e+05   6.133851e+05
  -2.207535e+05   8.984307e+05
  -1.198018e+06   6.040423e+05
  -1.094022e+06  -1.788072e+04
  -1.885143e+05  -4.319643e+05
   4.865286e+05  -2.922476e+05
   2.648181e+05   1.792014e+05
  -5.103417e+05   3.577271e+05
  -9.174116e+05  -1.382692e+05
  -4.300673e+05  -9.655136e+05
   5.728451e+05  -1.298980e+06
   1.219647e+06  -6.347343e+05
   9.982315e+05   6.253400e+05
   1.748707e+05   1.444837e+06
  -5.646701e+05   1.110891e+06
  -7.626482e+05  -3.886184e+04
  -4.535588e+05  -9.264420e+05
   4.460004e+04  -8.376090e+05
   4.118992e+05  -1.255685e+05
   4.586359e+05   3.098101e+05
   2.218141e+05   1.350718e+05
   2.635192e+03  -1.047017e+05
   1.005776e+05   1.672610e+05
   3.760970e+05   7.314547e+05
   2.806460e+05   8.745437e+05
  -4.373343e+05   3.485662e+05
  -1.200333e+06  -3.449094e+05
  -1.136042e+06  -6.413752e+05
  -1.730922e+05  -5.305238e+05
   7.588480e+05  -3.383839e+05
   8.126351e+05  -1.966767e+05
   2.139101e+05  -1.741115e+04
  -1.461284e+05   1.722883e+05
   7.808406e+04   2.158918e+05
   3.212829e+05   1.308895e+05
  -8.034401e+02   1.114821e+05
  -6.388408e+05   1.530815e+05
  -8.153656e+05  -3.043696e+04
  -1.902480e+05  -5.245733e+05
   7.574922e+05  -8.749189e+05
   1.264230e+06  -5.355715e+05
   9.865213e+05   3.891820e+05
   1.875162e+05   1.128964e+06
  -5.657719e+05   1.059482e+06
  -8.231331e+05   3.618555e+05
  -5.357328e+05  -2.380574e+05
  -6.276372e+04  -2.803655e+05
   1.468977e+05   1.011258e+04
  -3.006131e+04   8.610751e+04
  -2.904764e+05  -2.564479e+05
  -2.449397e+05  -6.368716e+05
   1.578515e+05  -5.159006e+05
   5.598086e+05   1.612512e+05
   5.287977e+05   8.158727e+05
  -1.508436e+04   8.029944e+05
  -6.546485e+05   1.027589e+05
  -7.891684e+05  -6.541463e+05
  -2.158900e+05  -8.534758e+05
   5.757423e+05  -4.655513e+05
   8.349873e+05   8.144153e+04
   3.669915e+05   4.129743e+05
  -2.158385e+05   4.472521e+05
  -2.163340e+05   2.717830e+05
   2.845448e+05   4.077941e+04
   5.365879e+05  -1.996387e+04
   8.662552e+04   2.251586e+05
  -6.485750e+05   5.535884e+05
  -9.159339e+05   5.016288e+05
  -5.145453e+05  -6.540272e+04
   7.939887e+04  -6.518041e+05
   3.536691e+05  -6.430742e+05
   2.464710e+05  -6.588593e+04
  -2.569446e+03   4.148712e+05
  -2.036894e+05   2.967658e+05
  -2.836137e+05  -1.938003e+05
  -1.905507e+05  -4.580856e+05
   6.116849e+04  -2.650451e+05
   3.054849e+05   6.866070e+04
   3.491120e+05   1.642134e+05
   1.912435e+05   2.546218e+04
   1.229282e+04  -5.595818e+04
  -6.457828e+04   9.524069e+04
  -9.994158e+04   3.301070e+05
  -1.941237e+05   3.468674e+05
  -3.011033e+05   2.826355e+04
  -2.571003e+05  -3.926742e+05
   1.559221e+04  -5.233931e+05
   3.620355e+05  -2.099496e+05
   4.720892e+05   2.719502e+05
   1.608703e+05   4.843887e+05
  -3.760122e+05   2.781404e+05
  -6.498760e+05  -9.343640e+04
  -3.554174e+05  -2.991888e+05
   2.310839e+05  -2.569948e+05
   4.826285e+05  -1.081653e+05
   1.353574e+05  -2.338396e+03
  -3.604407e+05  -9.676378e+03
  -3.561246e+05  -1.385899e+05
   2.038037e+05  -2.832303e+05
   7.038355e+05  -2.121080e+05
