
 $NMID
 id='ANONYMOUS ', fmtdat='(2E16.6)'
 volume=1.0
 tramp=1.0
 $END
   1.436857e+07  -6.929403e+05
   9.959646e+06   6.342524e+06
   4.120163e+05   9.153856e+06
  -5.974324e+06   6.339338e+06
  -5.233011e+06   8.152848e+05
  -4.416630e+05  -2.598848e+06
   2.886620e+06  -1.433144e+06
   2.321126e+06   2.230119e+06
  -5.101705e+05   4.022862e+06
  -2.639439e+06   1.907865e+06
  -2.435563e+06  -1.764814e+06
  -4.364530e+05  -3.023489e+06
   1.371829e+06  -6.979436e+05
   1.233909e+06   2.468060e+06
  -7.164440e+05   3.009734e+06
  -2.424863e+06   3.944922e+05
  -1.946175e+06  -2.765140e+06
   4.811452e+05  -3.646402e+06
   2.684529e+06  -1.852438e+06
   2.852459e+06   7.017480e+05
   1.290878e+06   1.967255e+06
  -1.279185e+05   1.599699e+06
  -1.911954e+04   8.703173e+05
   1.103992e+06   1.050826e+06
   1.399136e+06   2.018949e+06
  -2.777729e+05   2.486358e+06
  -2.875004e+06   1.517224e+06
  -3.944118e+06  -3.804262e+05
  -2.230735e+06  -1.754235e+06
   7.396423e+05  -1.624526e+06
   2.135289e+06  -2.934475e+05
   8.562272e+05   1.033487e+06
  -1.401664e+06   1.213433e+06
  -2.234798e+06   6.641905e+03
  -1.123144e+06  -1.623667e+06
   4.433976e+05  -2.154583e+06
   9.648569e+05  -9.696623e+05
   3.963552e+05   7.350645e+05
  -2.805992e+05   1.049893e+06
  -2.902159e+05  -3.870063e+05
   3.520493e+05  -1.764709e+06
   1.041236e+06  -1.240434e+06
   1.059245e+06   6.972834e+05
   1.439819e+05   1.750967e+06
  -1.061172e+06   6.327011e+05
  -1.314798e+06  -1.404651e+06
   1.224247e+04  -2.124469e+06
   1.981531e+06  -8.159523e+05
   2.729697e+06   1.192064e+06
   1.337424e+06   2.150774e+06
  -1.078615e+06   1.502891e+06
  -2.384680e+06   3.978853e+04
  -1.551808e+06  -1.011072e+06
   3.801328e+05  -9.620414e+05
   1.475795e+06  -1.044006e+05
   8.933003e+05   6.151388e+05
  -4.100830e+05   4.951873e+05
  -8.844419e+05  -2.353337e+05
  -1.032318e+05  -7.051995e+05
   8.613041e+05  -3.719701e+05
   7.325733e+05   4.189299e+05
  -4.854781e+05   8.310026e+05
  -1.472248e+06   3.397553e+05
  -1.017566e+06  -8.277583e+05
   6.738560e+05  -1.827978e+06
   2.201275e+06  -1.763273e+06
   2.398526e+06  -4.214004e+05
   1.389070e+06   1.368510e+06
   2.274984e+05   2.344849e+06
  -2.926741e+05   2.015373e+06
  -3.006128e+05   1.113822e+06
  -4.182264e+05   6.457722e+05
  -9.279312e+05   6.642542e+05
  -1.477342e+06   3.690519e+05
  -1.485610e+06  -6.158519e+05
  -7.216947e+05  -1.535093e+06
   4.444256e+05  -1.342651e+06
   1.241856e+06  -1.138382e+04
   1.033587e+06   1.326602e+06
  -1.180339e+05   1.528024e+06
  -1.357060e+06   5.169647e+05
  -1.696633e+06  -7.903385e+05
  -9.430141e+05  -1.442342e+06
   1.174190e+05  -1.244751e+06
   5.947895e+05  -7.267008e+05
   4.850885e+05  -4.787791e+05
   5.690664e+05  -5.615607e+05
   1.301330e+06  -5.157079e+05
   2.063593e+06   9.573283e+04
   1.775286e+06   1.165224e+06
   2.033198e+05   2.032901e+06
  -1.580039e+06   2.001675e+06
  -2.184135e+06   9.513551e+05
  -1.274958e+06  -4.542361e+05
   1.383912e+05  -1.216740e+06
   7.616425e+05  -8.510564e+05
   2.524922e+05   1.166252e+05
  -6.116651e+05   6.261359e+05
  -8.681773e+05   1.970528e+05
  -3.341694e+05  -5.343218e+05
   3.378242e+05  -5.824339e+05
   4.120504e+05   1.449214e+05
  -2.100867e+05   6.626469e+05
  -9.298261e+05   8.582605e+04
  -9.866300e+05  -1.236414e+06
  -1.031578e+05  -2.014779e+06
   1.227534e+06  -1.395905e+06
   2.047898e+06   1.627663e+05
   1.697841e+06   1.413838e+06
   4.443520e+05   1.543403e+06
  -6.870600e+05   8.052541e+05
  -8.626545e+05   8.354148e+04
  -2.528802e+05  -1.336728e+04
   2.073025e+05   3.655197e+05
  -1.057943e+05   6.081543e+05
  -8.043462e+05   3.247069e+05
  -9.772913e+05  -2.665780e+05
  -2.981991e+05  -5.998470e+05
   5.401800e+05  -3.617884e+05
   5.757206e+05   1.885005e+05
  -3.289640e+05   4.715471e+05
  -1.269434e+06   1.313356e+05
  -1.213222e+06  -6.311987e+05
  -7.813524e+04  -1.201419e+06
   1.160552e+06  -1.058208e+06
   1.438817e+06  -2.579941e+05
   6.342624e+05   5.459832e+05
  -3.822648e+05   6.737970e+05
  -6.585735e+05   1.029917e+05
  -5.631727e+04  -4.753524e+05
   7.259429e+05  -3.850833e+05
   9.036182e+05   2.902500e+05
   3.323861e+05   8.141544e+05
  -4.275841e+05   6.436218e+05
  -6.801777e+05   2.263938e+04
  -2.537847e+05  -3.390358e+05
   3.310607e+05  -6.967260e+04
   3.683675e+05   4.974618e+05
  -2.908903e+05   7.163445e+05
  -1.021041e+06   2.802633e+05
  -1.038078e+06  -5.087034e+05
  -2.433707e+05  -1.026348e+06
   6.464383e+05  -8.685896e+05
   8.531867e+05  -1.975303e+05
   3.273850e+05   4.020066e+05
  -2.866793e+05   4.583077e+05
  -3.906818e+05   5.100269e+04
  -1.143645e+04  -3.086085e+05
   3.407512e+05  -2.505705e+05
   2.665244e+05   5.766027e+04
  -1.218757e+05   1.431524e+05
  -3.382444e+05  -1.865469e+05
  -2.575259e+04  -5.838856e+05
   6.443032e+05  -5.200910e+05
   1.072471e+06   1.388765e+05
   7.902083e+05   9.490106e+05
  -5.268228e+04   1.274232e+06
  -8.079186e+05   8.593091e+05
  -9.635651e+05   5.284812e+04
  -6.079461e+05  -5.218532e+05
  -2.308605e+05  -5.393448e+05
  -1.434353e+05  -2.363453e+05
  -1.944423e+05  -9.971588e+04
  -4.398430e+04  -3.027142e+05
   3.826760e+05  -5.085795e+05
   7.605295e+05  -2.780979e+05
   6.592089e+05   3.660350e+05
  -2.223274e+04   8.686367e+05
  -8.688767e+05   6.786858e+05
  -1.215656e+06  -1.668773e+05
  -7.034328e+05  -1.027832e+06
   3.560891e+05  -1.232352e+06
   1.201832e+06  -6.680556e+05
   1.276430e+06   1.651575e+05
   6.835138e+05   6.551055e+05
   7.204536e+03   6.238192e+05
  -2.785729e+05   3.993028e+05
  -1.951067e+05   3.797256e+05
  -1.098880e+05   5.713336e+05
  -2.868078e+05   5.983475e+05
  -6.044781e+05   1.671285e+05
  -6.893318e+05  -5.369206e+05
  -3.176811e+05  -9.710578e+05
   3.026558e+05  -7.564947e+05
   6.737878e+05  -5.231038e+04
   4.789556e+05   5.898665e+05
  -8.434233e+04   7.180724e+05
  -4.898568e+05   3.335489e+05
  -4.187081e+05  -1.877074e+05
  -6.549363e+04  -4.689587e+05
   1.238501e+05  -4.306535e+05
  -2.196357e+04  -2.689599e+05
  -2.071761e+05  -1.931599e+05
  -2.386752e+04  -2.089277e+05
   5.400781e+05  -1.518576e+05
   1.005383e+06   9.616803e+04
   8.559694e+05   4.497674e+05
   9.478601e+04   6.758469e+05
  -6.961484e+05   5.952150e+05
  -9.010067e+05   2.459991e+05
  -4.690647e+05  -1.243319e+05
   7.887006e+04  -2.470067e+05
   2.322951e+05  -7.360037e+04
  -9.911647e+03   1.517019e+05
  -2.586743e+05   1.244823e+05
  -2.429805e+05  -1.684885e+05
  -6.632601e+04  -3.930452e+05
   1.572071e+04  -2.528131e+05
  -7.652924e+04   1.081007e+05
  -1.980971e+05   2.282970e+05
  -1.628526e+05  -1.041371e+05
   9.008772e+04  -5.414484e+05
   4.370324e+05  -5.553615e+05
   6.063584e+05  -6.465111e+04
   3.658030e+05   4.593120e+05
  -1.916820e+05   5.223426e+05
  -5.902050e+05   1.225308e+05
  -3.798259e+05  -3.068802e+05
   3.276513e+05  -3.671409e+05
   8.597786e+05  -3.242134e+04
   6.479792e+05   4.006472e+05
  -1.478679e+05   5.892367e+05
  -7.861641e+05   3.969922e+05
  -7.165337e+05  -9.609302e+03
  -1.236844e+05  -2.823602e+05
   3.209966e+05  -1.930892e+05
   1.798186e+05   1.196318e+05
  -3.310954e+05   2.459847e+05
  -6.103225e+05  -7.701649e+04
  -3.017836e+05  -6.329110e+05
   3.586043e+05  -8.696282e+05
   7.980444e+05  -4.376540e+05
   6.673323e+05   4.019668e+05
   1.298375e+05   9.531914e+05
  -3.638681e+05   7.355497e+05
  -5.032974e+05  -2.483989e+04
  -3.021243e+05  -6.099595e+05
   2.985686e+04  -5.501452e+05
   2.737579e+05  -8.326109e+04
   3.006628e+05   1.995822e+05
   1.418230e+05   8.523055e+04
   3.162238e+03  -6.727948e+04
   7.682694e+04   1.145157e+05
   2.585988e+05   4.829004e+05
   1.858149e+05   5.746991e+05
  -2.950720e+05   2.327513e+05
  -7.962173e+05  -2.175312e+05
  -7.503355e+05  -4.143227e+05
  -1.182602e+05  -3.511334e+05
   4.930645e+05  -2.316692e+05
   5.337019e+05  -1.350405e+05
   1.465946e+05  -9.449121e+03
  -9.274779e+04   1.161262e+05
   4.635004e+04   1.382202e+05
   2.061356e+05   7.915025e+04
   3.622910e+03   7.343493e+04
  -4.131550e+05   1.107128e+05
  -5.413517e+05  -9.930354e+03
  -1.427116e+05  -3.472337e+05
   4.857430e+05  -5.918462e+05
   8.376392e+05  -3.728210e+05
   6.672143e+05   2.437938e+05
   1.385317e+05   7.446145e+05
  -3.664700e+05   7.099559e+05
  -5.419376e+05   2.532492e+05
  -3.561873e+05  -1.479040e+05
  -4.778197e+04  -1.853042e+05
   9.068154e+04   4.065015e+02
  -2.147998e+04   5.192411e+04
  -1.912150e+05  -1.692899e+05
  -1.654043e+05  -4.193994e+05
   9.781569e+04  -3.450541e+05
   3.710396e+05   9.582202e+04
   3.633636e+05   5.299852e+05
   6.770241e+03   5.331144e+05
  -4.281175e+05   8.228768e+04
  -5.321631e+05  -4.183504e+05
  -1.568424e+05  -5.636688e+05
   3.754544e+05  -3.200218e+05
   5.577945e+05   4.316578e+04
   2.516305e+05   2.750184e+05
  -1.389948e+05   3.053959e+05
  -1.467216e+05   1.838120e+05
   1.821786e+05   2.130610e+04
   3.534960e+05  -1.993973e+04
   6.207008e+04   1.496306e+05
  -4.239285e+05   3.725018e+05
  -6.073603e+05   3.365402e+05
  -3.482808e+05  -4.349159e+04
   4.525533e+04  -4.353803e+05
   2.336413e+05  -4.324210e+05
   1.694962e+05  -5.106485e+04
   6.320897e+03   2.721147e+05
  -1.305830e+05   2.024877e+05
  -1.896407e+05  -1.193021e+05
  -1.320613e+05  -3.012513e+05
   3.613626e+04  -1.818771e+05
   2.034230e+05   3.955039e+04
   2.351324e+05   1.094153e+05
   1.269864e+05   1.869076e+04
   4.505688e+03  -4.206968e+04
  -4.174568e+04   5.379200e+04
  -5.408742e+04   2.159083e+05
  -1.128310e+05   2.388076e+05
  -1.954189e+05   3.326638e+04
  -1.828509e+05  -2.501288e+05
  -6.294535e+03  -3.460758e+05
   2.344757e+05  -1.461167e+05
   3.199144e+05   1.709806e+05
   1.150493e+05   3.167134e+05
  -2.479904e+05   1.892598e+05
  -4.353142e+05  -5.208482e+04
  -2.405929e+05  -1.942294e+05
   1.503509e+05  -1.774604e+05
   3.203243e+05  -8.264207e+04
   9.455344e+04  -3.982519e+03
  -2.321165e+05   2.609478e+03
  -2.348355e+05  -8.093145e+04
   1.262930e+05  -1.857629e+05
   4.548026e+05  -1.485710e+05
