
 $NMID
 id='ANONYMOUS ', fmtdat='(2E16.6)'
 volume=1.0
 tramp=1.0
 $END
   4.852094e+07   1.620019e+06
   2.870460e+07   2.981973e+07
  -6.457969e+06   3.226520e+07
  -2.370840e+07   1.311616e+07
  -1.455167e+07  -5.159234e+06
   2.457732e+06  -8.052102e+06
   8.655629e+06   4.199716e+05
   2.960264e+06   8.382193e+06
  -5.083835e+06   8.762857e+06
  -8.497365e+06   2.166181e+06
  -6.167969e+06  -5.699620e+06
  -5.168421e+05  -7.907480e+06
   3.734465e+06  -2.214710e+06
   2.378785e+06   5.398543e+06
  -3.353181e+06   6.267212e+06
  -6.976929e+06  -1.019095e+06
  -3.923236e+06  -9.047141e+06
   3.406460e+06  -1.039208e+07
   8.973820e+06  -4.925216e+06
   9.288387e+06   2.248597e+06
   5.214751e+06   6.708949e+06
   1.275088e+05   7.127200e+06
  -2.303913e+06   4.738510e+06
  -8.023432e+05   2.478782e+06
   1.495711e+06   2.741204e+06
  -1.358852e+05   4.408215e+06
  -5.661509e+06   3.806022e+06
  -9.173916e+06  -2.148477e+05
  -6.161195e+06  -4.206470e+06
   4.217101e+05  -4.549609e+06
   3.964380e+06  -1.865771e+06
   2.249401e+06   6.663779e+05
  -1.274259e+06   1.328901e+06
  -2.920200e+06   2.595397e+05
  -2.149400e+06  -2.030166e+06
  -9.717763e+04  -4.057888e+06
   1.972526e+06  -3.243725e+06
   2.528658e+06   6.001900e+05
   9.369371e+05   3.253187e+06
  -7.790554e+05   1.130006e+06
   5.261020e+04  -2.772845e+06
   2.442623e+06  -2.266756e+06
   2.244340e+06   2.775328e+06
  -1.875002e+06   5.312128e+06
  -5.619549e+06   8.497490e+05
  -4.173087e+06  -5.940828e+06
   1.676666e+06  -7.254390e+06
   6.534726e+06  -1.932689e+06
   6.376253e+06   4.123691e+06
   1.864024e+06   5.622609e+06
  -3.211418e+06   2.673732e+06
  -5.079138e+06  -1.270603e+06
  -2.496576e+06  -3.172146e+06
   2.030817e+06  -2.037916e+06
   4.054723e+06   7.672071e+05
   1.809135e+06   2.372722e+06
  -1.515080e+06   1.202145e+06
  -1.714795e+06  -9.376851e+05
   9.261214e+05  -1.019900e+06
   2.214164e+06   1.131854e+06
  -1.361348e+05   2.690438e+06
  -3.658539e+06   1.682834e+06
  -4.595801e+06  -9.624756e+05
  -2.102937e+06  -3.404980e+06
   1.867272e+06  -4.747601e+06
   5.021680e+06  -4.287935e+06
   5.867491e+06  -1.263161e+06
   3.956523e+06   3.207746e+06
   5.787049e+05   5.793770e+06
  -1.678630e+06   4.505684e+06
  -1.487380e+06   1.452904e+06
  -3.573827e+05   1.803992e+05
  -5.521815e+05   1.073278e+06
  -2.060096e+06   1.425053e+06
  -2.870900e+06  -2.902038e+05
  -1.788505e+06  -2.340913e+06
   3.226144e+05  -2.306474e+06
   1.835924e+06  -8.858267e+04
   1.715321e+06   2.319888e+06
  -1.790141e+05   2.982905e+06
  -2.823436e+06   1.378220e+06
  -4.132404e+06  -1.471426e+06
  -2.713011e+06  -3.637255e+06
   2.437740e+05  -3.742579e+06
   2.068876e+06  -2.286189e+06
   1.922249e+06  -1.014045e+06
   1.672494e+06  -7.466412e+05
   2.884163e+06  -5.280995e+05
   4.285243e+06   7.708393e+05
   3.420343e+06   2.795558e+06
   4.811578e+04   4.143774e+06
  -3.368580e+06   3.830698e+06
  -4.339038e+06   1.908698e+06
  -2.624860e+06  -6.657427e+05
  -3.204729e+04  -2.314574e+06
   1.302419e+06  -1.836130e+06
   5.481951e+05   1.143061e+05
  -1.186446e+06   1.259784e+06
  -1.889597e+06   3.259444e+05
  -8.105065e+05  -1.210923e+06
   6.112367e+05  -1.115314e+06
   5.284928e+05   3.854935e+05
  -9.259325e+05   8.420238e+05
  -1.831922e+06  -9.609799e+05
  -8.926564e+05  -3.262665e+06
   1.238597e+06  -3.559106e+06
   3.027392e+06  -1.471553e+06
   3.503420e+06   1.278951e+06
   2.494388e+06   2.898308e+06
   4.710114e+05   2.784626e+06
  -1.347102e+06   1.466938e+06
  -1.640797e+06   1.494965e+05
  -4.990257e+05  -6.066360e+04
   3.471193e+05   7.686057e+05
  -4.154942e+05   1.304997e+06
  -1.868440e+06   5.290697e+05
  -1.998848e+06  -8.814297e+05
  -3.901910e+05  -1.389168e+06
   1.184050e+06  -5.713909e+05
   9.514544e+05   4.775708e+05
  -8.305607e+05   6.073890e+05
  -2.290770e+06  -2.564950e+05
  -1.891514e+06  -1.419957e+06
   2.247067e+05  -2.099625e+06
   2.404693e+06  -1.702071e+06
   2.842252e+06  -2.292085e+05
   1.193587e+06   1.281268e+06
  -9.466698e+05   1.440417e+06
  -1.519057e+06   1.349345e+05
  -1.368874e+05  -1.065103e+06
   1.545908e+06  -6.932950e+05
   1.730463e+06   8.069195e+05
   3.606497e+05   1.679907e+06
  -1.083411e+06   1.026266e+06
  -1.287889e+06  -2.737594e+05
  -2.854786e+05  -7.752955e+05
   7.740906e+05  -4.639208e+04
   7.041845e+05   1.080181e+06
  -6.405677e+05   1.420789e+06
  -2.061830e+06   4.744402e+05
  -2.028610e+06  -1.134473e+06
  -3.327731e+05  -2.108889e+06
   1.484480e+06  -1.629655e+06
   1.750240e+06  -1.912985e+05
   5.124126e+05   8.832459e+05
  -6.776784e+05   8.158068e+05
  -6.823893e+05   5.717036e+04
   9.968714e+04  -4.279363e+05
   5.569644e+05  -2.662141e+05
   2.278366e+05   8.676248e+04
  -3.993199e+05   2.076178e+02
  -5.398663e+05  -6.235172e+05
   1.891800e+05  -1.188862e+06
   1.410331e+06  -8.887529e+05
   2.106438e+06   4.664969e+05
   1.435220e+06   2.012766e+06
  -2.867737e+05   2.473446e+06
  -1.691186e+06   1.443078e+06
  -1.765797e+06  -1.363100e+05
  -9.226727e+05  -9.801350e+05
  -3.296043e+05  -7.821043e+05
  -4.234200e+05  -3.045660e+05
  -5.612464e+05  -3.106857e+05
  -6.231274e+04  -7.354449e+05
   8.935910e+05  -9.069643e+05
   1.497210e+06  -3.303712e+05
   1.101776e+06   7.755203e+05
  -2.593222e+05   1.538343e+06
  -1.789278e+06   1.089569e+06
  -2.302132e+06  -5.403197e+05
  -1.133604e+06  -2.159118e+06
   1.039548e+06  -2.379897e+06
   2.578678e+06  -1.021023e+06
   2.404744e+06   6.772879e+05
   1.018448e+06   1.386823e+06
  -1.914426e+05   1.026319e+06
  -4.580642e+05   5.731195e+05
  -1.880761e+05   7.585670e+05
  -1.843930e+05   1.275291e+06
  -7.033673e+05   1.254121e+06
  -1.299506e+06   2.762317e+05
  -1.321465e+06  -1.143356e+06
  -5.091728e+05  -1.950502e+06
   6.811657e+05  -1.448852e+06
   1.316618e+06   2.590217e+04
   8.087645e+05   1.304683e+06
  -3.939304e+05   1.408164e+06
  -1.147249e+06   4.315650e+05
  -8.015807e+05  -6.561342e+05
   1.018817e+05  -1.049889e+06
   5.011260e+05  -7.916836e+05
   7.064949e+04  -4.486824e+05
  -4.205306e+05  -3.686470e+05
  -4.285844e+04  -3.985332e+05
   1.153454e+06  -1.919376e+05
   2.062066e+06   3.804807e+05
   1.620415e+06   1.077644e+06
  -3.686421e+04   1.430949e+06
  -1.603361e+06   1.106209e+06
  -1.857573e+06   2.633124e+05
  -8.514482e+05  -4.721592e+05
   2.600568e+05  -5.477405e+05
   5.079540e+05  -4.268509e+04
   3.459869e+03   3.980481e+05
  -4.757394e+05   2.421971e+05
  -4.756159e+05  -3.627803e+05
  -2.003586e+05  -7.556147e+05
  -4.872383e+04  -4.942599e+05
  -1.468059e+05   1.197646e+05
  -3.224016e+05   3.242573e+05
  -2.824024e+05  -2.399007e+05
   1.891892e+05  -1.016051e+06
   9.441202e+05  -1.056794e+06
   1.350194e+06  -1.172680e+05
   8.010688e+05   9.576197e+05
  -4.542213e+05   1.116591e+06
  -1.267543e+06   2.748307e+05
  -7.280341e+05  -6.164009e+05
   7.245631e+05  -6.505378e+05
   1.635465e+06   1.199644e+05
   1.052702e+06   8.987148e+05
  -4.851453e+05   1.027302e+06
  -1.553598e+06   4.998365e+05
  -1.287416e+06  -2.015072e+05
  -1.419038e+05  -5.375577e+05
   6.669608e+05  -2.746590e+05
   3.737158e+05   3.001139e+05
  -6.282377e+05   5.023906e+05
  -1.205085e+06  -1.387816e+05
  -6.260410e+05  -1.238999e+06
   6.829678e+05  -1.715099e+06
   1.559064e+06  -8.463339e+05
   1.265232e+06   8.210846e+05
   1.560172e+05   1.849194e+06
  -7.940181e+05   1.324240e+06
  -9.499020e+05  -1.862482e+05
  -4.307238e+05  -1.231245e+06
   2.258682e+05  -1.002409e+06
   5.713477e+05  -8.191249e+04
   4.863030e+05   4.037768e+05
   1.839882e+05   1.515811e+05
   4.481590e+04  -1.025256e+05
   2.510700e+05   2.972762e+05
   4.868855e+05   9.992801e+05
   1.906872e+05   1.115752e+06
  -7.171003e+05   3.902733e+05
  -1.505241e+06  -5.165578e+05
  -1.313155e+06  -8.919496e+05
  -1.741290e+05  -7.171655e+05
   9.045694e+05  -4.064701e+05
   1.021382e+06  -1.683876e+05
   3.538297e+05   5.361017e+04
  -1.620412e+05   2.260922e+05
  -2.158749e+04   2.191248e+05
   2.908382e+05   1.145949e+05
   4.055961e+04   1.395355e+05
  -7.073170e+05   2.181228e+05
  -1.071571e+06  -4.483618e+04
  -3.970909e+05  -7.191480e+05
   9.128892e+05  -1.175911e+06
   1.751032e+06  -7.180553e+05
   1.414068e+06   4.901991e+05
   2.393262e+05   1.453577e+06
  -8.174964e+05   1.385882e+06
  -1.090940e+06   5.135051e+05
  -6.699004e+05  -2.648262e+05
  -1.206695e+05  -3.712920e+05
   8.956489e+04  -5.677639e+04
  -7.758483e+04   2.670309e+04
  -3.068745e+05  -3.795164e+05
  -2.400553e+05  -8.354798e+05
   2.045272e+05  -6.893230e+05
   6.999721e+05   1.514745e+05
   7.265772e+05   1.005368e+06
   7.707995e+04   1.060706e+06
  -7.884100e+05   2.228301e+05
  -1.041036e+06  -7.773319e+05
  -3.223475e+05  -1.126305e+06
   7.509002e+05  -6.682549e+05
   1.139635e+06   1.076952e+05
   5.224860e+05   6.323502e+05
  -3.105906e+05   6.766840e+05
  -3.872170e+05   3.648867e+05
   2.659978e+05   1.913134e+04
   6.708724e+05  -2.315759e+04
   1.388659e+05   3.175717e+05
  -8.634581e+05   6.785223e+05
  -1.294778e+06   5.322876e+05
  -7.657529e+05  -1.919298e+05
   1.209705e+05  -8.853420e+05
   5.773479e+05  -8.601039e+05
   4.299008e+05  -1.470800e+05
   3.831055e+04   4.980830e+05
  -2.582026e+05   4.354378e+05
  -3.593110e+05  -1.688819e+05
  -2.459049e+05  -5.989665e+05
   6.726190e+04  -4.287079e+05
   4.001958e+05   5.907730e+04
   4.777889e+05   2.926654e+05
   2.460828e+05   9.864602e+04
  -2.640713e+04  -1.478080e+05
  -8.258351e+04  -3.101633e+04
  -8.398618e+03   3.701476e+05
  -8.292466e+04   5.547501e+05
  -3.395157e+05   2.006898e+05
  -4.504981e+05  -4.115062e+05
  -1.303581e+05  -6.711570e+05
   4.310540e+05  -3.096935e+05
   6.703768e+05   3.081127e+05
   2.435963e+05   5.983276e+05
  -5.266705e+05   3.623538e+05
  -8.996363e+05  -1.015679e+05
  -4.808427e+05  -3.988566e+05
   3.110961e+05  -3.979946e+05
   6.595821e+05  -2.119393e+05
   2.510988e+05  -1.132530e+04
  -3.666082e+05   5.671780e+04
  -4.214301e+05  -8.321080e+04
   1.857932e+05  -3.013904e+05
   7.809934e+05  -2.631832e+05
