
 $NMID
 id='ANONYMOUS ', fmtdat='(2E16.6)'
 volume=1.0
 tramp=1.0
 $END
   2.947841e+07   3.810588e+06
   1.672782e+07   1.692844e+07
  -3.434547e+06   1.824009e+07
  -1.381899e+07   9.533697e+06
  -9.591907e+06  -7.133349e+05
   3.764235e+05  -4.885281e+06
   5.555945e+06  -1.435616e+06
   3.271674e+06   4.817701e+06
  -2.172302e+06   7.013764e+06
  -5.438728e+06   2.546273e+06
  -4.226503e+06  -4.120761e+06
  -1.183085e+05  -5.948983e+06
   2.913871e+06  -1.118617e+06
   1.905438e+06   4.834861e+06
  -2.058136e+06   5.312732e+06
  -4.659662e+06  -1.430411e+05
  -2.796812e+06  -5.966991e+06
   2.182165e+06  -6.895827e+06
   5.987887e+06  -2.798223e+06
   5.668956e+06   2.319245e+06
   2.160179e+06   4.633735e+06
  -9.387283e+05   3.609285e+06
  -8.925198e+05   1.758782e+06
   1.438530e+06   1.770387e+06
   2.333789e+06   3.614750e+06
  -7.239534e+05   4.597839e+06
  -5.686631e+06   2.573783e+06
  -7.598388e+06  -1.342627e+06
  -4.096287e+06  -3.915030e+06
   1.619848e+06  -3.271368e+06
   4.160395e+06  -4.903749e+05
   1.730342e+06   1.917812e+06
  -2.418118e+06   2.132961e+06
  -4.001413e+06  -4.241525e+04
  -2.046480e+06  -3.011170e+06
   9.396917e+05  -4.087779e+06
   2.127257e+06  -1.879855e+06
   1.021323e+06   1.538655e+06
  -6.048388e+05   2.300971e+06
  -7.808975e+05  -5.169117e+05
   7.019850e+05  -3.240334e+06
   2.146356e+06  -2.104274e+06
   1.723364e+06   1.665274e+06
  -5.273989e+05   3.262897e+06
  -2.521808e+06   4.997262e+05
  -2.062287e+06  -3.474370e+06
   9.680172e+05  -4.183668e+06
   4.238635e+06  -9.462330e+05
   4.845099e+06   2.985216e+06
   1.915169e+06   4.294070e+06
  -2.329696e+06   2.479528e+06
  -4.334532e+06  -4.841237e+05
  -2.534181e+06  -2.186849e+06
   1.031163e+06  -1.596086e+06
   2.803034e+06   2.902816e+05
   1.444781e+06   1.436346e+06
  -9.580801e+05   8.076762e+05
  -1.555544e+06  -6.167860e+05
   5.601454e+03  -1.122216e+06
   1.475940e+06  -2.463783e+05
   8.334146e+05   9.260451e+05
  -1.412515e+06   1.122969e+06
  -2.821569e+06  -2.714241e+04
  -1.565703e+06  -1.954319e+06
   1.741848e+06  -3.426838e+06
   4.568962e+06  -3.035092e+06
   4.772379e+06  -3.769995e+05
   2.526681e+06   2.987647e+06
  -2.330332e+04   4.607580e+06
  -1.043662e+06   3.662801e+06
  -7.386687e+05   1.820846e+06
  -6.567089e+05   1.063353e+06
  -1.612435e+06   1.259156e+06
  -2.785306e+06   7.076591e+05
  -2.813123e+06  -1.208886e+06
  -1.293558e+06  -2.915367e+06
   8.782614e+05  -2.477336e+06
   2.241039e+06   4.703444e+04
   1.751989e+06   2.527074e+06
  -4.078994e+05   2.844513e+06
  -2.675873e+06   8.209134e+05
  -3.197046e+06  -1.797558e+06
  -1.591024e+06  -3.057225e+06
   5.626141e+05  -2.501562e+06
   1.458950e+06  -1.283983e+06
   1.124380e+06  -7.100006e+05
   1.171528e+06  -8.468216e+05
   2.482756e+06  -6.757111e+05
   3.800257e+06   5.696890e+05
   3.087542e+06   2.478490e+06
   4.043738e+04   3.801270e+06
  -3.243806e+06   3.482953e+06
  -4.222217e+06   1.491536e+06
  -2.372441e+06  -9.980400e+05
   3.631135e+05  -2.286207e+06
   1.527289e+06  -1.543750e+06
   4.785523e+05   2.377714e+05
  -1.225078e+06   1.095102e+06
  -1.663671e+06   2.226070e+05
  -5.557025e+05  -1.084073e+06
   6.910383e+05  -1.047355e+06
   6.929709e+05   2.976441e+05
  -4.890173e+05   1.070091e+06
  -1.590656e+06  -1.280904e+05
  -1.414298e+06  -2.418324e+06
   2.247577e+05  -3.523975e+06
   2.393015e+06  -2.179419e+06
   3.602892e+06   6.412577e+05
   2.852710e+06   2.768858e+06
   6.040471e+05   2.853733e+06
  -1.375394e+06   1.400382e+06
  -1.615160e+06   4.988360e+04
  -4.676209e+05  -6.275355e+04
   3.230242e+05   7.083364e+05
  -3.224344e+05   1.108159e+06
  -1.570767e+06   4.454404e+05
  -1.752031e+06  -6.865349e+05
  -4.223128e+05  -1.159642e+06
   1.051707e+06  -5.658162e+05
   1.006235e+06   4.171854e+05
  -6.615083e+05   7.623659e+05
  -2.289094e+06   2.843894e+04
  -2.087196e+06  -1.298749e+06
   3.174277e+04  -2.165528e+06
   2.274970e+06  -1.753530e+06
   2.688047e+06  -2.519924e+05
   1.078968e+06   1.125466e+06
  -8.456506e+05   1.199287e+06
  -1.266902e+06   6.708380e+04
  -2.917602e+04  -9.164488e+05
   1.414579e+06  -5.982016e+05
   1.611008e+06   6.881162e+05
   4.620866e+05   1.535102e+06
  -8.835022e+05   1.078442e+06
  -1.221069e+06  -8.443955e+04
  -3.836994e+05  -6.496287e+05
   6.308387e+05  -5.300076e+04
   6.021418e+05   9.914824e+05
  -6.529778e+05   1.291323e+06
  -1.944139e+06   3.681400e+05
  -1.853099e+06  -1.107003e+06
  -2.860334e+05  -1.944158e+06
   1.342616e+06  -1.498673e+06
   1.604376e+06  -2.206423e+05
   5.286722e+05   7.871596e+05
  -5.984337e+05   7.897582e+05
  -7.160960e+05   5.111442e+04
   1.352651e+04  -5.321661e+05
   6.214805e+05  -4.033628e+05
   4.488659e+05   9.856643e+04
  -2.332434e+05   1.864649e+05
  -5.540796e+05  -4.163673e+05
   7.162363e+04  -1.069456e+06
   1.278086e+06  -8.475675e+05
   1.960840e+06   4.307672e+05
   1.314763e+06   1.885464e+06
  -2.885213e+05   2.347095e+06
  -1.604395e+06   1.451505e+06
  -1.757592e+06  -4.413424e+04
  -1.037324e+06  -1.010847e+06
  -3.841491e+05  -9.815826e+05
  -2.818060e+05  -4.587889e+05
  -3.609216e+05  -2.563874e+05
  -1.798959e+04  -5.918482e+05
   7.932317e+05  -8.686831e+05
   1.432344e+06  -3.865013e+05
   1.149740e+06   7.555259e+05
  -1.655912e+05   1.568602e+06
  -1.694870e+06   1.107026e+06
  -2.210152e+06  -4.928172e+05
  -1.123274e+06  -2.000994e+06
   8.733515e+05  -2.203243e+06
   2.326654e+06  -1.017220e+06
   2.300485e+06   5.136476e+05
   1.130775e+06   1.283040e+06
  -7.003473e+04   1.108956e+06
  -5.302132e+05   6.923103e+05
  -3.878975e+05   7.151935e+05
  -2.977509e+05   1.082190e+06
  -6.470945e+05   1.073712e+06
  -1.162123e+06   2.095013e+05
  -1.201699e+06  -1.103647e+06
  -4.436269e+05  -1.848356e+06
   6.728561e+05  -1.357511e+06
   1.247349e+06   8.761359e+03
   7.774819e+05   1.169113e+06
  -2.857547e+05   1.298965e+06
  -9.552615e+05   4.993361e+05
  -7.136411e+05  -4.464096e+05
  -7.486052e+03  -8.717516e+05
   3.190097e+05  -7.433926e+05
  -9.560667e+02  -4.775127e+05
  -3.667399e+05  -3.899186e+05
  -1.829760e+04  -3.928333e+05
   1.030126e+06  -1.836760e+05
   1.855001e+06   3.545942e+05
   1.505259e+06   9.748387e+05
   3.937337e+04   1.259490e+06
  -1.407400e+06   9.779769e+05
  -1.699087e+06   2.966292e+05
  -8.171648e+05  -3.177266e+05
   2.053084e+05  -4.460420e+05
   4.375266e+05  -8.428593e+04
  -4.965957e+04   3.022591e+05
  -4.958911e+05   2.048243e+05
  -4.287606e+05  -3.518458e+05
  -8.624347e+04  -7.533446e+05
   4.993969e+04  -4.830132e+05
  -1.437375e+05   1.791951e+05
  -3.729652e+05   3.920308e+05
  -2.801226e+05  -2.178243e+05
   2.358027e+05  -9.941040e+05
   9.004081e+05  -9.639591e+05
   1.166915e+06  -1.485621e+04
   6.285874e+05   9.294862e+05
  -4.532400e+05   9.550397e+05
  -1.143272e+06   1.409652e+05
  -6.667219e+05  -6.239626e+05
   6.634011e+05  -6.222720e+05
   1.579367e+06   7.134684e+04
   1.111474e+06   8.194236e+05
  -3.641572e+05   1.035890e+06
  -1.484102e+06   5.969417e+05
  -1.295166e+06  -1.216460e+05
  -1.819160e+05  -5.272123e+05
   6.158545e+05  -2.980579e+05
   3.138361e+05   2.603535e+05
  -6.519271e+05   4.230031e+05
  -1.135385e+06  -2.235084e+05
  -4.877757e+05  -1.229148e+06
   7.831306e+05  -1.586103e+06
   1.548664e+06  -7.148689e+05
   1.185991e+06   8.379140e+05
   1.072431e+05   1.784080e+06
  -7.716332e+05   1.300002e+06
  -9.128345e+05  -1.275367e+05
  -4.560687e+05  -1.162484e+06
   1.418114e+05  -9.889358e+05
   5.163526e+05  -1.020955e+05
   5.190520e+05   3.993105e+05
   2.421805e+05   1.613222e+05
   1.586361e+04  -1.152956e+05
   1.329446e+05   2.507038e+05
   4.102049e+05   9.425675e+05
   2.485278e+05   1.071951e+06
  -5.936673e+05   3.662678e+05
  -1.440447e+06  -5.160699e+05
  -1.315062e+06  -8.616829e+05
  -1.625087e+05  -6.687709e+05
   9.369362e+05  -3.719466e+05
   9.986221e+05  -1.724573e+05
   2.749769e+05   2.254281e+04
  -1.852748e+05   2.082306e+05
   5.977548e+04   2.401506e+05
   3.643986e+05   1.520187e+05
   2.498758e+03   1.424606e+05
  -7.728024e+05   1.690012e+05
  -1.009906e+06  -9.475970e+04
  -2.338608e+05  -6.924559e+05
   9.829285e+05  -1.053279e+06
   1.631613e+06  -5.705314e+05
   1.232026e+06   5.614543e+05
   1.584407e+05   1.406680e+06
  -7.932013e+05   1.265686e+06
  -1.054946e+06   4.015038e+05
  -6.469788e+05  -3.155716e+05
  -6.782429e+04  -3.585245e+05
   1.651910e+05  -9.427389e+03
  -4.102378e+04   7.758433e+04
  -3.182352e+05  -3.388989e+05
  -2.399534e+05  -7.958594e+05
   2.319717e+05  -6.329665e+05
   6.832711e+05   2.181779e+05
   6.184165e+05   1.036522e+06
  -4.930033e+04   1.011021e+06
  -8.138527e+05   1.155189e+05
  -9.482481e+05  -8.457118e+05
  -2.193621e+05  -1.081489e+06
   7.533358e+05  -5.543552e+05
   1.042421e+06   1.641987e+05
   4.253620e+05   5.665471e+05
  -3.180287e+05   5.596432e+05
  -3.145139e+05   3.102222e+05
   3.282052e+05   4.610940e+04
   6.589231e+05   7.856689e+03
   9.569130e+04   2.947130e+05
  -8.393432e+05   6.295329e+05
  -1.177485e+06   5.158417e+05
  -6.429165e+05  -1.556186e+05
   1.510861e+05  -8.092966e+05
   5.138674e+05  -7.630560e+05
   3.461904e+05  -6.580907e+04
  -1.420925e+04   5.090466e+05
  -2.772065e+05   3.677647e+05
  -3.477094e+05  -2.363265e+05
  -2.048143e+05  -5.806640e+05
   1.018309e+05  -3.474334e+05
   3.787717e+05   9.790901e+04
   4.166830e+05   2.499049e+05
   2.255289e+05   6.051517e+04
   1.858606e+04  -9.348054e+04
  -6.445426e+04   7.441424e+04
  -1.064067e+05   4.040450e+05
  -2.344847e+05   4.668004e+05
  -3.842977e+05   6.421331e+04
  -3.359494e+05  -4.942030e+05
   1.416111e+04  -6.658382e+05
   4.573635e+05  -2.510165e+05
   5.875705e+05   3.643978e+05
   1.803232e+05   6.074653e+05
  -4.939668e+05   3.145804e+05
  -8.155027e+05  -1.612590e+05
  -4.238528e+05  -3.991761e+05
   3.147099e+05  -3.178389e+05
   6.229373e+05  -1.159225e+05
   1.882003e+05   1.420395e+04
  -4.292113e+05  -3.974839e+03
  -4.347178e+05  -1.645392e+05
   2.415839e+05  -3.311842e+05
   8.497606e+05  -2.316409e+05
