
 $NMID
 id='ANONYMOUS ', fmtdat='(2E16.6)'
 volume=1.0
 tramp=1.0
 $END
  -1.135004e+03  -1.769043e+02
  -6.004563e+02  -3.718970e+02
  -3.167373e+00  -7.218903e+02
   3.917292e+02  -3.782604e+02
   3.442621e+02  -6.065514e+01
   5.039780e+01   4.599881e+01
  -9.561152e+01  -1.106087e+01
  -6.553429e+01  -2.098991e+02
   1.117302e+02  -2.212944e+02
   2.327805e+02   2.047914e+01
   2.236230e+02   2.182308e+02
  -3.965853e+01   6.285483e+01
  -5.132791e+01   2.180216e+01
  -1.432344e+01  -1.356646e+02
  -3.834827e+01  -1.486435e+02
   1.164872e+02  -5.976868e+01
   1.125718e+02   1.374185e+02
   3.145938e+01   1.928923e+02
  -1.545521e+02   9.974858e+01
  -1.445259e+02  -6.964963e+01
  -6.665019e+01  -1.349871e+02
   2.952545e+01  -9.298141e+01
   2.737874e+01  -4.311505e+01
  -5.318949e+01  -4.269600e+01
  -6.886349e+01  -1.141770e+02
   5.990166e+00  -1.276536e+02
   1.510100e+02  -3.421940e+01
   1.595663e+02   4.489890e+01
   6.153154e+01   6.767873e+01
  -9.152631e+01   3.568621e+01
  -1.431412e+02  -2.303201e+01
  -5.171057e+01  -1.045331e+02
   7.586162e+01  -1.124262e+02
   1.290583e+02  -6.563200e+01
   9.872525e+01   4.517595e+01
   4.665744e+01   9.012966e+01
   1.141163e+01   4.780033e+01
   3.749041e+01  -1.769077e+01
   4.429655e+01  -3.560586e+00
   3.622397e+01   7.582930e+01
  -1.362172e+01   1.406316e+02
  -6.290111e+01   1.187201e+02
  -7.701304e+01   4.061721e+00
  -3.277723e+01  -6.348274e+01
   3.425319e+01  -2.442354e+01
   2.899074e+01   7.611670e+01
  -3.330023e+01   1.042409e+02
  -1.283686e+02   1.553025e+01
  -1.448525e+02  -1.001058e+02
  -6.443703e+01  -1.377655e+02
   6.999542e+01  -8.416266e+01
   1.411506e+02  -1.563838e+00
   1.150517e+02   4.854832e+01
   2.104589e+01   4.561182e+01
  -5.625534e+01   3.210317e+01
  -6.513824e+01   1.771966e+01
  -2.322206e+01   8.548712e+00
   5.569418e+00   7.607425e+00
  -1.733756e+01   9.888349e+00
  -5.662785e+01  -6.655676e+00
  -4.233670e+01  -4.908798e+01
   3.889063e+01  -8.567683e+01
   1.152766e+02  -6.336838e+01
   1.042449e+02   2.790055e+01
   5.386538e+00   1.265672e+02
  -9.554929e+01   1.471334e+02
  -1.233406e+02   6.838344e+01
  -8.386084e+01  -4.551545e+01
  -3.951207e+01  -1.110855e+02
  -2.341894e+01  -1.066230e+02
  -1.555187e+01  -7.461816e+01
   1.628914e+01  -5.741707e+01
   6.447082e+01  -4.987114e+01
   9.246007e+01  -1.741516e+01
   7.755622e+01   4.218869e+01
   2.757081e+01   8.335443e+01
  -2.650729e+01   6.617506e+01
  -5.868281e+01  -6.347005e+00
  -5.217488e+01  -7.469878e+01
   2.878037e+00  -8.378070e+01
   7.055536e+01  -2.679711e+01
   1.011682e+02   4.461926e+01
   6.684102e+01   8.541107e+01
   5.502670e+00   8.061710e+01
  -3.410448e+01   6.027333e+01
  -4.211125e+01   4.755051e+01
  -6.035016e+01   4.350937e+01
  -1.119857e+02   2.550806e+01
  -1.549198e+02  -2.834493e+01
  -1.192740e+02  -1.005684e+02
   4.017761e+00  -1.531934e+02
   1.231550e+02  -1.436647e+02
   1.542070e+02  -7.227012e+01
   9.162533e+01   2.175034e+01
   1.195402e+01   7.685369e+01
  -1.788192e+01   6.473971e+01
   8.737209e+00   1.988732e+01
   3.870454e+01  -4.018974e+00
   3.655336e+01   1.217059e+01
   2.291185e+00   3.652744e+01
  -2.906518e+01   2.848675e+01
  -2.685601e+01  -1.264776e+01
   1.101569e+01  -3.314445e+01
   5.266770e+01   3.106364e+00
   5.596819e+01   7.698662e+01
   3.197823e+00   1.191841e+02
  -7.994271e+01   8.318751e+01
  -1.289231e+02  -8.573117e+00
  -1.045842e+02  -8.520332e+01
  -2.709242e+01  -9.384179e+01
   3.702700e+01  -5.039750e+01
   4.303352e+01  -6.943064e+00
   8.523936e+00  -2.461526e+00
  -1.286727e+01  -2.361783e+01
   6.561628e+00  -3.604162e+01
   4.050607e+01  -1.952318e+01
   4.245191e+01   5.826497e+00
   4.194840e+00   1.205516e+01
  -3.069919e+01  -8.510745e+00
  -1.354447e+01  -3.412837e+01
   5.282726e+01  -3.604419e+01
   1.081988e+02  -1.806364e+00
   9.502238e+01   5.085816e+01
   1.633235e+01   8.772057e+01
  -6.338493e+01   8.228335e+01
  -8.387561e+01   3.951234e+01
  -4.242737e+01  -5.425715e+00
   7.447820e+00  -1.748421e+01
   1.548489e+01   2.659851e+00
  -2.110165e+01   2.214856e+01
  -5.983016e+01   8.964261e+00
  -6.020963e+01  -2.901136e+01
  -2.092422e+01  -5.419432e+01
   2.298768e+01  -4.159679e+01
   3.482261e+01  -8.306470e+00
   9.796860e+00   6.567279e+00
  -1.754302e+01  -1.254546e+01
  -9.652635e+00  -4.150425e+01
   3.520561e+01  -4.345075e+01
   7.467783e+01  -8.272846e+00
   6.507383e+01   4.104480e+01
   8.631447e+00   6.748220e+01
  -4.658857e+01   5.334653e+01
  -5.411162e+01   1.220628e+01
  -1.897147e+01  -2.282362e+01
   1.596453e+01  -2.821121e+01
   1.721339e+01  -9.011467e+00
  -4.986222e+00   5.527981e+00
  -1.648618e+01  -1.044614e+00
   2.228528e+00  -1.450989e+01
   3.352163e+01  -6.101212e+00
   4.205003e+01   3.009946e+01
   8.952400e+00   6.334399e+01
  -4.602074e+01   5.718437e+01
  -8.047508e+01   7.164256e+00
  -6.889354e+01  -5.097648e+01
  -2.033594e+01  -7.570574e+01
   2.642149e+01  -5.447503e+01
   4.078109e+01  -1.363563e+01
   2.639588e+01   9.990465e+00
   1.303262e+01   4.713910e+00
   1.920466e+01  -1.000602e+01
   3.402773e+01  -6.183693e+00
   2.671965e+01   2.033418e+01
  -1.010035e+01   4.326050e+01
  -4.655081e+01   3.082666e+01
  -4.391687e+01  -1.301079e+01
   3.580922e+00  -4.985537e+01
   5.994423e+01  -3.862205e+01
   7.634424e+01   1.851324e+01
   3.328388e+01   7.366692e+01
  -3.899220e+01   7.937907e+01
  -8.891137e+01   3.345831e+01
  -8.404033e+01  -2.232845e+01
  -3.800474e+01  -5.085405e+01
   8.642167e+00  -4.420452e+01
   2.600429e+01  -3.014185e+01
   1.908029e+01  -2.846599e+01
   1.369101e+01  -3.722021e+01
   2.701996e+01  -3.207651e+01
   4.786372e+01   8.210721e-01
   4.819549e+01   4.895607e+01
   1.718150e+01   7.763200e+01
  -2.917744e+01   6.135057e+01
  -5.737271e+01   8.896117e+00
  -4.564736e+01  -4.112879e+01
  -6.800398e+00  -5.323257e+01
   2.358635e+01  -2.709946e+01
   2.086957e+01   7.243072e+00
  -1.763548e+00   2.086873e+01
  -1.044934e+01   1.253892e+01
   8.562726e+00   1.642861e+00
   3.011646e+01   3.160266e+00
   1.865811e+01   1.262797e+01
  -2.585302e+01   1.541370e+01
  -6.212347e+01   3.171985e+00
  -5.136644e+01  -1.830972e+01
  -4.196754e-01  -3.286723e+01
   4.560854e+01  -2.799416e+01
   4.933253e+01  -5.896281e+00
   1.600477e+01   1.575015e+01
  -1.906661e+01   1.742354e+01
  -2.805850e+01  -3.164023e+00
  -1.131782e+01  -2.485113e+01
   1.219935e+01  -2.497975e+01
   2.500147e+01  -3.240171e+00
   2.357578e+01   1.595038e+01
   1.737498e+01   1.271093e+01
   1.751561e+01  -3.058931e+00
   2.338665e+01  -2.743347e+00
   2.156929e+01   2.513802e+01
  -3.006547e+00   5.643852e+01
  -4.199061e+01   5.615778e+01
  -6.593171e+01   1.723787e+01
  -4.938787e+01  -2.937449e+01
  -3.126607e+00  -4.737033e+01
   3.144267e+01  -2.891410e+01
   2.186283e+01  -2.894301e-01
  -1.920104e+01   8.461053e+00
  -4.566374e+01  -8.811440e+00
  -2.576635e+01  -3.212193e+01
   2.529592e+01  -3.817216e+01
   6.213450e+01  -1.966439e+01
   5.345735e+01   9.699886e+00
   1.179747e+01   2.721653e+01
  -2.147991e+01   2.038711e+01
  -1.747963e+01  -1.715482e+00
   1.357911e+01  -1.415432e+01
   3.513091e+01   2.548766e+00
   2.126298e+01   3.864715e+01
  -1.803955e+01   5.806379e+01
  -4.935867e+01   3.251605e+01
  -4.657298e+01  -2.374214e+01
  -1.419739e+01  -6.265218e+01
   2.061576e+01  -4.877837e+01
   3.332600e+01   1.518908e+00
   2.047191e+01   3.835003e+01
  -2.527634e+00   3.282516e+01
  -1.685038e+01   4.982451e+00
  -1.459516e+01  -9.178869e+00
  -4.644792e+00  -9.016739e-01
  -2.347264e+00   5.503404e+00
  -1.329163e+01  -8.041319e+00
  -2.361303e+01  -2.897403e+01
  -1.328887e+01  -3.311381e+01
   1.890777e+01  -1.569078e+01
   4.739672e+01   6.295557e+00
   4.357981e+01   1.744902e+01
   8.836847e+00   1.735785e+01
  -2.489747e+01   1.288557e+01
  -2.846567e+01   5.536500e+00
  -6.860259e+00  -3.437897e+00
   1.034485e+01  -7.826331e+00
   6.609479e+00  -3.436420e+00
  -4.545529e+00   2.420076e+00
   4.633396e-01   7.652743e-01
   2.175563e+01  -4.228079e+00
   3.355038e+01   3.679664e+00
   1.266977e+01   2.768311e+01
  -3.092743e+01   4.565481e+01
  -6.254748e+01   3.159468e+01
  -5.623013e+01  -1.219657e+01
  -1.829347e+01  -5.187722e+01
   2.090687e+01  -5.679648e+01
   3.658185e+01  -2.872418e+01
   2.777303e+01   1.964186e+00
   1.112647e+01   1.183694e+01
   3.005852e+00   5.244589e+00
   6.036124e+00   3.412546e+00
   1.187776e+01   1.632227e+01
   9.103497e+00   3.064283e+01
  -6.721251e+00   2.613743e+01
  -2.719902e+01  -3.158735e-01
  -3.322163e+01  -2.954271e+01
  -1.236265e+01  -3.730045e+01
   2.269990e+01  -1.694735e+01
   3.987552e+01   1.492814e+01
   2.015892e+01   3.368212e+01
  -1.834605e+01   2.717473e+01
  -3.674799e+01   2.949279e+00
  -1.897301e+01  -1.912725e+01
   9.426662e+00  -2.401764e+01
   1.371073e+01  -1.139192e+01
  -7.784589e+00   4.289872e+00
  -2.327865e+01   6.247851e+00
  -8.445887e+00  -8.861999e+00
   2.353817e+01  -2.520753e+01
   3.993302e+01  -2.202561e+01
   2.667494e+01   3.057686e+00
  -1.018335e-01   2.918530e+01
  -1.699324e+01   3.186657e+01
  -1.689870e+01   8.867984e+00
  -7.049648e+00  -1.615509e+01
   4.669599e+00  -1.918213e+01
   1.319858e+01  -7.862073e-01
   1.354175e+01   1.635144e+01
   2.679356e+00   1.515015e+01
  -1.153639e+01   7.415228e-01
  -1.617109e+01  -7.014562e+00
  -7.671387e+00  -6.301203e-01
   2.206131e+00   8.369617e+00
   1.497613e+00   4.754749e+00
  -6.255097e+00  -1.100844e+01
  -5.564222e+00  -2.095207e+01
   7.918358e+00  -1.235125e+01
   1.877210e+01   7.711214e+00
   1.042100e+01   1.926315e+01
  -1.208029e+01   1.151182e+01
  -2.421188e+01  -7.020672e+00
  -9.807302e+00  -1.901366e+01
   1.918670e+01  -1.540338e+01
   3.366797e+01  -1.353193e+00
   1.963706e+01   1.254420e+01
  -7.725869e+00   1.851479e+01
  -2.113305e+01   1.483654e+01
  -1.083417e+01   4.629806e+00
   7.251087e+00  -3.646564e+00
   1.064200e+01  -1.398705e+00
  -5.345535e+00   8.501729e+00
  -2.347637e+01   1.119557e+01
