
 $NMID
 id='ANONYMOUS ', fmtdat='(2E16.6)'
 volume=1.0
 tramp=1.0
 $END
  -3.640464e+03  -2.501658e+02
  -2.197490e+03  -1.949902e+03
   2.878409e+02  -2.114984e+03
   1.418628e+03  -1.262131e+03
   8.883982e+02   1.392675e+02
  -1.703717e+02   3.284158e+02
  -4.928615e+02  -2.677741e+02
  -3.408948e+01  -6.887628e+02
   5.655029e+02  -5.757980e+02
   8.495547e+02  -9.358179e+01
   4.008184e+02   6.595432e+02
  -3.408021e+01   7.048458e+02
  -4.200993e+02   1.258044e+02
  -2.874464e+02  -5.364024e+02
   2.044102e+02  -5.327565e+02
   4.294804e+02  -2.426086e+01
   3.058717e+02   5.677671e+02
  -1.711725e+02   6.454054e+02
  -5.137247e+02   2.501085e+02
  -4.322725e+02  -2.067964e+02
  -1.211327e+02  -3.783456e+02
   1.571793e+02  -2.592273e+02
   8.500305e+01  -5.660088e+01
  -1.900348e+02  -5.382382e+01
  -3.308974e+02  -2.477773e+02
  -5.657628e+01  -4.007740e+02
   4.802254e+02  -2.695843e+02
   6.784222e+02   1.274891e+02
   2.882123e+02   4.003953e+02
  -3.177354e+02   3.057491e+02
  -5.920547e+02  -8.129631e+01
  -2.541709e+02  -4.016753e+02
   2.700005e+02  -4.183605e+02
   4.976868e+02  -1.430191e+02
   3.743235e+02   1.967296e+02
   6.868919e+01   3.754717e+02
  -1.001717e+02   1.910699e+02
  -2.662537e+01  -1.450796e+02
   1.897057e+02  -2.425685e+02
   2.915508e+02   1.370149e+02
   7.969142e+01   5.771791e+02
  -2.836856e+02   5.131872e+02
  -4.050693e+02  -1.521035e+01
  -1.521781e+02  -4.038733e+02
   2.064835e+02  -1.907066e+02
   2.328891e+02   3.086291e+02
  -1.087407e+02   4.453694e+02
  -4.831407e+02   7.541502e+01
  -5.142499e+02  -3.916426e+02
  -1.520723e+02  -5.331467e+02
   3.253779e+02  -2.843035e+02
   5.529355e+02   8.124940e+01
   3.566923e+02   2.982126e+02
  -7.904208e+01   2.692574e+02
  -3.423722e+02   7.323211e+01
  -2.347741e+02  -7.699123e+01
   3.066274e+01  -4.651173e+01
   8.745245e+01   7.928393e+01
  -1.178371e+02   9.904760e+01
  -2.773932e+02  -5.145480e+01
  -1.426383e+02  -2.276087e+02
   1.735918e+02  -2.637001e+02
   3.614896e+02  -1.300019e+02
   2.598880e+02   9.605520e+01
  -2.753163e+01   3.036087e+02
  -2.835830e+02   3.581829e+02
  -3.553504e+02   1.744179e+02
  -2.356109e+02  -1.503355e+02
  -5.339878e+01  -3.665879e+02
   4.492972e+01  -3.308000e+02
   3.625128e+01  -1.681214e+02
   3.215942e+01  -8.809013e+01
   1.236899e+02  -1.088101e+02
   2.457323e+02  -6.737858e+01
   2.531066e+02   1.064842e+02
   1.095239e+02   2.618911e+02
  -8.869782e+01   2.143112e+02
  -2.018685e+02  -2.246297e+01
  -1.554143e+02  -2.444476e+02
   3.487728e+01  -2.716257e+02
   2.600503e+02  -8.471619e+01
   3.374611e+02   1.740635e+02
   1.839021e+02   3.251454e+02
  -6.519208e+01   2.895964e+02
  -1.891326e+02   1.539778e+02
  -1.485283e+02   6.285320e+01
  -1.345292e+02   6.460887e+01
  -2.764234e+02   5.056903e+01
  -4.289471e+02  -8.358176e+01
  -3.390886e+02  -3.010198e+02
   1.946011e+01  -4.554304e+02
   3.887657e+02  -4.152947e+02
   4.916049e+02  -1.872035e+02
   3.053946e+02   9.891524e+01
   3.374286e+01   2.711934e+02
  -9.515636e+01   2.216517e+02
  -2.620979e+01   4.195770e+01
   1.121336e+02  -5.628281e+01
   1.426239e+02   2.744090e+01
   2.102996e+01   1.599916e+02
  -1.256840e+02   1.290368e+02
  -1.281389e+02  -5.380933e+01
   2.419314e+01  -1.528443e+02
   1.753928e+02  -1.003168e+01
   1.647205e+02   2.501217e+02
  -1.975105e+01   3.624125e+02
  -2.475012e+02   2.150799e+02
  -3.666274e+02  -6.148196e+01
  -2.946497e+02  -2.628024e+02
  -7.550299e+01  -2.780001e+02
   1.261839e+02  -1.503790e+02
   1.611894e+02  -1.501931e+01
   4.298275e+01   1.364136e+01
  -5.557025e+01  -5.901938e+01
  -1.333973e+00  -1.171674e+02
   1.292882e+02  -7.429044e+01
   1.578580e+02   2.410031e+01
   3.679471e+01   6.077112e+01
  -8.589647e+01  -4.442834e+00
  -4.433210e+01  -8.875745e+01
   1.458867e+02  -9.060770e+01
   3.046497e+02   1.300249e+01
   2.672470e+02   1.618330e+02
   4.085889e+01   2.666311e+02
  -2.034873e+02   2.507316e+02
  -2.789595e+02   1.126759e+02
  -1.516118e+02  -4.479706e+01
   2.795480e+01  -8.824662e+01
   7.173232e+01   1.114217e+00
  -5.154315e+01   8.683126e+01
  -1.944003e+02   3.957624e+01
  -1.989956e+02  -1.074058e+02
  -5.871825e+01  -1.975771e+02
   9.218772e+01  -1.428842e+02
   1.295531e+02  -1.967086e+01
   4.964436e+01   3.663499e+01
  -4.032203e+01  -1.976442e+01
  -2.775997e+01  -1.102937e+02
   9.719559e+01  -1.219936e+02
   2.164573e+02  -1.648864e+01
   1.906293e+02   1.373016e+02
   1.351711e+01   2.188971e+02
  -1.636376e+02   1.598113e+02
  -1.851452e+02   1.095417e+01
  -5.901514e+01  -1.024542e+02
   6.483996e+01  -1.022387e+02
   7.397211e+01  -2.666709e+01
   2.854810e+00   2.471416e+01
  -3.510780e+01   8.827879e+00
   1.243258e+01  -2.405405e+01
   9.107105e+01   2.057504e+00
   1.050310e+02   9.609465e+01
   8.610523e+00   1.796431e+02
  -1.470289e+02   1.574569e+02
  -2.457811e+02   1.090224e+01
  -1.998034e+02  -1.632567e+02
  -3.953029e+01  -2.374333e+02
   1.056006e+02  -1.670282e+02
   1.344324e+02  -3.149880e+01
   7.672495e+01   4.690047e+01
   3.455459e+01   3.096400e+01
   5.648837e+01  -1.374294e+01
   8.859544e+01  -7.360506e+00
   5.668027e+01   5.815791e+01
  -4.060723e+01   1.066468e+02
  -1.234628e+02   6.825552e+01
  -1.090321e+02  -4.492193e+01
   1.650923e+01  -1.322158e+02
   1.672918e+02  -9.337889e+01
   2.145901e+02   6.644172e+01
   9.263055e+01   2.199561e+02
  -1.273506e+02   2.316140e+02
  -2.792059e+02   8.622317e+01
  -2.560441e+02  -9.271182e+01
  -1.044741e+02  -1.750227e+02
   4.131515e+01  -1.429899e+02
   9.265459e+01  -8.416193e+01
   7.305820e+01  -7.430132e+01
   6.173478e+01  -9.859727e+01
   9.422364e+01  -8.194932e+01
   1.370573e+02   1.935984e+01
   1.252674e+02   1.597955e+02
   2.974565e+01   2.352385e+02
  -1.033248e+02   1.758166e+02
  -1.782005e+02   1.461560e+01
  -1.342523e+02  -1.304112e+02
  -1.278745e+01  -1.620592e+02
   7.578506e+01  -8.498415e+01
   6.434302e+01   1.231619e+01
  -2.615983e+00   5.284691e+01
  -2.585206e+01   3.649172e+01
   2.782595e+01   1.348633e+01
   8.452642e+01   1.863470e+01
   5.046221e+01   3.878955e+01
  -7.236359e+01   3.724630e+01
  -1.738526e+02  -3.365112e+00
  -1.465189e+02  -6.266230e+01
  -1.098330e+00  -9.672333e+01
   1.363233e+02  -7.316804e+01
   1.494789e+02  -5.830835e+00
   4.521836e+01   4.983996e+01
  -6.350618e+01   4.342003e+01
  -8.155429e+01  -1.960190e+01
  -1.766709e+01  -7.622174e+01
   5.018485e+01  -6.754833e+01
   7.053906e+01  -2.007448e+00
   5.724726e+01   5.229867e+01
   4.878414e+01   4.407941e+01
   5.904228e+01   6.069927e-01
   6.881817e+01   2.365630e-01
   4.525516e+01   7.506607e+01
  -2.917574e+01   1.582375e+02
  -1.287439e+02   1.501477e+02
  -1.836169e+02   3.333419e+01
  -1.324742e+02  -9.846415e+01
  -1.193588e+00  -1.359640e+02
   9.560190e+01  -6.878004e+01
   6.458999e+01   1.343345e+01
  -5.970205e+01   2.291289e+01
  -1.389865e+02  -4.125578e+01
  -7.566991e+01  -1.083280e+02
   8.250513e+01  -1.126819e+02
   1.931201e+02  -4.797497e+01
   1.622441e+02   3.892016e+01
   3.358360e+01   8.677404e+01
  -6.511202e+01   6.414955e+01
  -5.028312e+01   3.959999e-01
   4.163003e+01  -3.184839e+01
   9.654426e+01   1.966886e+01
   4.100675e+01   1.196295e+02
  -8.345614e+01   1.617233e+02
  -1.640748e+02   7.307167e+01
  -1.303421e+02  -9.450385e+01
  -1.635133e+01  -1.985945e+02
   8.341368e+01  -1.452000e+02
   1.053005e+02   1.085135e+01
   5.702968e+01   1.225832e+02
  -1.074829e+01   1.054845e+02
  -5.148603e+01   1.577710e+01
  -4.821706e+01  -3.288641e+01
  -1.916523e+01  -8.138190e+00
  -4.650106e+00   1.765680e+01
  -2.783242e+01  -2.095276e+01
  -5.832933e+01  -9.082462e+01
  -3.566002e+01  -1.062566e+02
   5.427400e+01  -4.280142e+01
   1.387920e+02   3.799652e+01
   1.270431e+02   6.995790e+01
   1.891143e+01   5.290086e+01
  -8.374915e+01   2.600473e+01
  -8.857717e+01   6.913452e+00
  -1.632140e+01  -1.052365e+01
   3.595089e+01  -2.183236e+01
   1.809003e+01  -1.419018e+01
  -1.726381e+01   3.336512e+00
   3.446137e+00   6.352763e+00
   7.088842e+01   2.566772e-01
   9.631346e+01   2.302462e+01
   1.930562e+01   8.269234e+01
  -1.141636e+02   1.198235e+02
  -1.938714e+02   6.683709e+01
  -1.536815e+02  -6.086427e+01
  -2.960690e+01  -1.631915e+02
   8.331095e+01  -1.579969e+02
   1.181273e+02  -6.618165e+01
   8.064127e+01   2.039115e+01
   2.586969e+01   3.887105e+01
   1.848028e+00   1.245833e+01
   1.430022e+01   7.581809e+00
   3.186629e+01   5.002157e+01
   1.928686e+01   9.422010e+01
  -3.003162e+01   7.419284e+01
  -8.125122e+01  -1.623371e+01
  -8.213454e+01  -1.060078e+02
  -1.358391e+01  -1.137979e+02
   7.780368e+01  -3.129575e+01
   1.084257e+02   6.867490e+01
   4.058542e+01   1.059787e+02
  -6.541991e+01   6.484066e+01
  -1.056616e+02  -8.322660e+00
  -4.620421e+01  -5.800031e+01
   3.434926e+01  -6.147231e+01
   3.922134e+01  -2.985878e+01
  -2.832645e+01   5.482469e+00
  -6.999422e+01   9.727556e+00
  -1.776437e+01  -2.644735e+01
   8.057709e+01  -6.649201e+01
   1.223626e+02  -5.543513e+01
   7.028230e+01   1.593525e+01
  -1.544679e+01   8.638007e+01
  -5.890343e+01   8.448804e+01
  -4.416462e+01   1.213011e+01
  -6.122358e+00  -5.402004e+01
   2.453444e+01  -4.854812e+01
   3.763558e+01   1.201614e+01
   2.932142e+01   5.518337e+01
  -8.586471e-01   3.972658e+01
  -3.459174e+01  -5.401879e+00
  -4.345567e+01  -2.482838e+01
  -2.205950e+01  -3.848123e+00
   3.205073e+00   1.927885e+01
   6.876204e+00   6.390425e+00
  -2.389890e+00  -3.352776e+01
   3.527165e+00  -5.241435e+01
   2.798055e+01  -2.026074e+01
   3.964029e+01   3.633906e+01
   1.069714e+01   6.034037e+01
  -4.165692e+01   2.515537e+01
  -6.282337e+01  -3.458450e+01
  -1.878296e+01  -6.168739e+01
   5.847312e+01  -3.638131e+01
   9.553564e+01   1.246612e+01
   5.241395e+01   4.445146e+01
  -2.921385e+01   4.604629e+01
  -6.744695e+01   2.849366e+01
  -2.945252e+01   8.329955e+00
   3.018910e+01  -9.724440e-01
   3.457045e+01   8.502862e+00
  -2.598014e+01   2.615172e+01
  -8.360591e+01   2.052798e+01
