
 $NMID
 id='ANONYMOUS ', fmtdat='(2E16.6)'
 volume=1.0
 tramp=1.0
 $END
   4.359244e+02   5.686590e+01
   1.719922e+02   7.685497e+00
  -4.987034e+01   1.046131e+02
  -1.387242e+02   1.618690e+02
  -8.035304e+01  -3.514313e+01
   3.335612e+01  -4.356909e+01
   8.227828e+01   4.431314e+00
   6.824950e+01   1.009917e+02
   4.151276e+01   5.547577e+01
  -6.722428e+01  -1.734205e+01
  -3.301387e+01  -3.641040e+01
   1.028171e+01  -3.743129e+01
   2.350422e+01  -6.529775e+01
   2.617232e+01   2.319668e+01
   4.001343e+01   5.963576e+01
   1.814355e+01   3.062754e+01
   3.299513e+00  -1.683413e+01
   1.124655e+01  -7.219858e+01
   8.014055e+01  -1.915330e+01
   2.631113e+01   7.829727e+00
   9.036285e+00   3.689927e+01
  -4.811212e+01   2.654698e+01
  -4.888585e+00   4.783474e+00
  -9.550840e+00   4.854457e+00
   3.405113e+01   1.290324e+01
   1.930920e+00   1.627910e+01
  -2.235311e+01  -8.761896e+00
  -4.041607e+01  -1.544432e+01
  -4.171613e+01  -6.499101e+00
   9.243204e+00  -1.656598e+00
   1.125876e+01  -5.822504e+00
  -6.604597e+00  -7.340041e+00
  -2.737047e+01   1.831431e+01
  -2.907873e+01   6.459436e+00
  -6.392336e+00  -1.320470e+01
  -1.360538e+01  -1.853250e+01
   1.338785e-01  -1.805677e+01
  -4.276225e+00  -3.679830e+00
  -4.892738e+00   6.120862e+00
   3.124814e-01   2.692204e-01
  -1.614983e+01  -1.775903e+01
   1.156227e+01  -1.868308e+01
   1.180906e+01  -4.492265e+00
   9.781692e+00   7.595698e+00
  -1.201023e+01   5.011116e+00
  -1.180918e+00  -1.875718e+01
   1.091180e+01  -1.438940e+01
   1.914183e+01  -3.391372e+00
   1.291932e+01   5.061519e+00
   4.061595e+00  -1.893484e-01
   3.742380e+00  -4.555755e+00
   6.760624e+00  -8.529931e-01
  -6.110178e-01   8.064931e-01
  -1.051012e+00  -8.176629e-01
   9.578682e+00  -3.734730e+00
   1.587581e+01  -3.768993e-01
   5.140007e+00   6.100077e+00
  -6.187267e+00   2.489593e+00
  -2.404269e+00  -6.616456e+00
   1.089874e+01  -5.720432e+00
   1.357879e+01   7.302987e+00
   1.298281e+00   1.501422e+01
  -8.080067e+00   6.791265e+00
  -2.881634e+00  -5.062957e+00
   5.819095e+00  -7.220041e+00
   5.245562e+00  -2.696060e+00
  -3.893832e-01   2.475882e-03
   6.347828e-01   3.740333e-01
   9.437725e+00   4.191342e+00
   1.115395e+01   1.018554e+01
   1.641275e+00   1.018205e+01
  -7.851740e+00   3.668938e+00
  -7.017295e+00  -2.820214e+00
   1.470454e-01  -2.843978e+00
   3.902466e+00   3.566113e+00
  -1.070204e+00   7.138028e+00
  -6.522718e+00   1.518510e+00
  -4.810556e+00  -4.039077e+00
   3.420553e+00  -4.415145e+00
   8.196346e+00   9.235452e-01
   2.468220e+00   5.436544e+00
  -7.472534e+00   1.754906e+00
  -6.749258e+00  -2.719704e+00
  -1.455838e+00  -3.732643e+00
   4.551437e+00  -2.868124e+00
   8.606656e-01  -6.352690e-01
   2.544764e-01  -3.421250e+00
   4.538654e+00  -5.841495e-01
   1.106437e+01   2.011843e+00
   5.233920e+00   7.297667e+00
  -5.948265e+00   6.331454e+00
  -8.850834e+00   5.038327e+00
  -3.351889e+00   5.725657e+00
   5.577324e-01   2.800976e+00
  -3.701006e+00  -6.180671e-01
  -6.420648e+00  -4.403169e+00
  -4.173596e-01  -2.420399e+00
   2.323531e+00   3.226229e+00
  -2.104934e-01   4.543660e+00
  -3.229411e+00   9.709530e-01
  -2.243529e+00  -4.717277e+00
   1.552635e+00  -1.747869e+00
   1.276825e+00   3.822512e+00
  -3.079292e+00   1.861113e+00
  -5.180704e+00  -2.814793e+00
  -1.342203e+00  -7.694102e+00
   4.686880e+00  -3.215474e+00
   6.918679e+00   1.959893e+00
   5.914367e+00   3.578117e+00
   1.714841e+00   8.574536e-01
  -8.906500e-01   5.115233e-01
  -2.408228e+00   3.087940e+00
  -1.572458e+00   4.179002e+00
  -2.834256e-01   2.449336e+00
   2.771372e-01   1.252815e-02
  -1.103995e+00  -1.055236e+00
  -2.168076e+00  -1.306598e-02
  -1.291959e+00   1.167037e+00
   9.475266e-02   6.565695e-01
  -4.899956e-01  -1.980097e-01
  -1.850172e+00  -1.654443e-01
  -2.512309e+00   7.368562e-01
  -1.785808e+00   1.362897e+00
  -1.036776e+00  -4.168336e-01
  -8.946494e-01  -3.739168e+00
  -4.246439e-01  -4.779756e+00
   4.067658e-01  -2.808001e+00
   6.828022e-01   6.155300e-02
   5.471516e-01   4.178396e-01
   9.704349e-01  -1.150767e+00
   2.614018e+00  -1.627780e+00
   3.395454e+00  -6.882362e-01
   2.675779e+00   1.010821e+00
   1.022921e+00   1.386148e+00
  -1.350470e-01   1.657778e+00
  -6.444455e-01   2.730611e+00
  -9.563542e-01   2.698348e+00
  -6.820936e-01   1.435345e+00
  -8.058059e-01   1.809321e-01
  -1.879481e+00  -1.073918e-01
  -2.741031e+00  -3.546749e-01
  -2.351940e+00  -1.232804e+00
  -3.017856e-02  -2.262894e+00
   1.586919e+00  -2.248357e+00
   1.571428e+00  -1.606819e+00
   1.069707e+00  -2.531159e-01
   1.663023e+00   7.593989e-01
   1.062830e+00   1.552018e+00
  -5.965083e-01   1.607587e+00
  -2.945791e+00  -3.224043e-01
  -1.895469e+00  -2.660385e+00
   1.254622e+00  -2.788182e+00
   4.089988e+00  -1.363644e+00
   3.314997e+00   2.621670e-01
   1.500705e+00   1.319055e+00
   5.978828e-01   2.208233e+00
   6.682707e-01   3.832171e+00
   1.169448e-01   3.198548e+00
  -1.935666e+00   1.846683e+00
  -2.961841e+00   2.823342e-01
  -1.970498e+00   9.710194e-01
  -1.785929e+00   8.684157e-01
  -1.585367e+00  -5.904914e-01
  -9.962664e-01  -1.679669e+00
   1.569899e-01  -2.501644e+00
   1.567635e+00  -6.455089e-02
   1.756019e+00   1.861500e+00
   6.757792e-01   2.093661e+00
  -1.722822e+00   2.026827e+00
  -2.953068e+00  -5.372447e-01
  -2.727586e+00  -2.008831e+00
  -5.871385e-01  -3.158398e+00
   2.742315e+00  -1.961415e+00
   3.709594e+00  -9.693124e-01
   3.534902e+00   9.024479e-01
   1.155745e+00   1.853903e+00
  -5.386290e-01   2.567904e+00
  -1.112418e+00   2.770846e+00
  -1.291309e+00   2.240331e+00
  -1.800524e+00   1.333927e+00
  -2.850318e+00   5.311810e-01
  -3.230546e+00  -9.414149e-01
  -2.500276e+00  -2.978511e+00
  -6.785769e-01  -3.708926e+00
   1.484590e+00  -2.489954e+00
   2.372069e+00  -1.753600e-01
   1.648654e+00   1.030131e+00
   5.460627e-01   7.242578e-01
   3.095246e-01   2.073316e-01
   3.171394e-01   5.687669e-01
  -4.667121e-01   8.528485e-01
  -1.313849e+00   7.612303e-03
  -1.120846e+00  -9.833109e-01
   9.388862e-02  -8.270000e-01
   1.166071e+00   4.862637e-01
   1.243877e+00   8.513130e-01
   4.344500e-01  -5.544755e-02
  -1.802238e-01  -8.145368e-01
  -2.304932e-01   3.099779e-02
  -5.249283e-01   1.222017e+00
  -3.297450e-01   1.053497e+00
   2.565742e-01   2.897827e-02
   6.041079e-01  -4.808190e-01
   1.356188e-01   6.528315e-01
  -9.364180e-01   1.631767e+00
  -1.058899e+00   6.097738e-01
  -7.062065e-01  -1.008783e+00
  -3.942711e-01  -9.304289e-01
  -7.932350e-01   6.723529e-01
  -1.466642e+00   9.704005e-01
  -1.408767e+00  -7.107073e-01
  -1.334394e-01  -2.548051e+00
   1.285888e+00  -2.421984e+00
   2.120168e+00  -3.680479e-01
   1.084650e+00   1.419809e+00
  -4.310812e-01   1.227440e+00
  -1.280892e+00   2.727243e-01
  -2.238883e-01  -3.753806e-01
   1.210512e+00  -1.755140e-01
   1.913597e+00   1.023517e-01
   1.213056e+00   8.472251e-01
  -3.410664e-01   1.833348e+00
  -1.636288e+00   1.925721e+00
  -2.217263e+00   8.451940e-01
  -1.435890e+00  -9.580707e-01
   1.419467e-01  -1.405077e+00
   5.038998e-01  -1.917350e-01
  -7.507816e-01   8.319784e-01
  -2.077169e+00   2.488721e-01
  -1.752390e+00  -1.976512e+00
   2.169093e-01  -3.658877e+00
   2.265518e+00  -2.479668e+00
   2.638323e+00   3.643648e-01
   1.555170e+00   2.445104e+00
   5.290620e-01   2.186872e+00
  -6.347366e-01   4.832742e-01
  -9.725537e-01  -6.047226e-01
  -1.321486e+00  -4.403531e-01
  -4.547582e-01  -1.166953e-01
   6.695225e-01  -3.421383e-01
   9.073519e-01  -7.317798e-01
   2.270598e-01  -2.818787e-01
  -4.298060e-01   5.552641e-01
   2.094391e-01   9.734830e-01
   8.483442e-01   7.526815e-02
   2.840204e-01  -2.773781e-01
  -1.219781e+00   9.595444e-02
  -1.662436e+00   5.560932e-01
  -4.565991e-01   1.521271e-02
   8.462556e-01  -9.149734e-01
   5.856665e-01  -7.423283e-01
  -3.990399e-01   2.491504e-02
  -2.233885e-01   3.486562e-01
   7.680734e-01   4.220133e-03
   9.362939e-01   1.103814e-03
  -3.766848e-01   6.673311e-01
  -1.777354e+00   9.251074e-01
  -1.924502e+00  -4.190730e-01
  -8.044025e-02  -2.100251e+00
   1.639726e+00  -2.226593e+00
   2.487448e+00  -5.965293e-01
   1.837205e+00   1.114535e+00
   4.558179e-01   1.729883e+00
  -5.290175e-01   1.106877e+00
  -9.498440e-01   5.662102e-01
  -7.169752e-01   2.406647e-01
  -1.020642e-01   2.251940e-01
   7.923023e-02   1.240568e-01
  -5.173822e-01  -1.391346e-03
  -1.092737e+00  -3.533412e-01
  -1.025442e+00  -1.288211e+00
   1.939809e-01  -1.737592e+00
   1.854076e+00  -9.054676e-01
   2.261687e+00   1.025615e+00
   7.451982e-01   2.390903e+00
  -1.426009e+00   1.703990e+00
  -2.122275e+00  -4.736165e-01
  -8.956186e-01  -1.720081e+00
   6.258454e-01  -1.692782e+00
   1.012569e+00  -3.877863e-01
   4.073205e-01   5.698546e-01
  -1.495691e-01   7.309668e-01
   1.525555e-01   6.452081e-02
   7.568302e-01  -6.418937e-01
   7.603798e-01  -7.074541e-01
   3.437132e-01   6.585764e-03
  -1.289697e-01   1.094590e+00
  -2.781313e-01   1.280694e+00
  -3.699303e-01   5.176932e-01
  -6.038778e-01  -5.682438e-01
  -2.439948e-01  -9.949822e-01
   4.831306e-01  -2.802472e-01
   7.203942e-01   4.254536e-01
   5.456173e-03   6.122109e-01
  -7.035438e-01   1.310286e-01
  -5.589864e-01  -4.434150e-01
   6.729405e-02  -1.164866e-01
   3.630831e-01   6.019591e-02
   1.057344e-01   2.020405e-01
  -1.571318e-01  -3.242100e-01
   1.226406e-01  -4.655554e-01
   4.199944e-01   4.708342e-02
   1.315691e-01   6.425289e-01
  -7.010448e-01   6.445032e-01
  -9.790013e-01  -4.932538e-02
  -4.466984e-01  -8.913780e-01
   4.187666e-01  -1.260602e+00
   9.493554e-01  -4.946563e-01
   7.919063e-01   7.200282e-01
   9.440955e-02   1.259578e+00
  -7.019775e-01   8.057427e-01
  -1.312379e+00  -8.506917e-02
  -8.063682e-01  -7.393282e-01
   2.238942e-01  -9.055172e-01
   8.496940e-01  -4.395278e-01
   4.335105e-01   2.076260e-01
  -4.689623e-01   1.857729e-01
  -7.706856e-01  -4.100168e-01
  -3.779715e-02  -1.101223e+00
   1.243703e+00  -7.628558e-01
