
 $NMID
 id='ANONYMOUS ', fmtdat='(2E16.6)'
 volume=1.0
 tramp=1.0
 $END
   3.609120e+02   5.524202e+01
   1.772589e+02   1.124864e+02
   2.840750e+01   1.244586e+02
  -7.656049e+01   1.198193e+02
  -1.520271e+02  -3.027226e+01
   2.283196e+01   9.454827e+00
   5.753477e+01  -3.232524e+01
   9.555864e+01   6.850083e+01
   5.667584e+01   7.211875e+01
  -1.068604e+02  -1.333445e+01
  -1.259272e+02  -2.038420e+01
  -2.851055e+01  -5.322755e+01
   1.009906e+01  -7.055000e+01
   5.617466e+01   4.293215e+01
   9.897619e+00   1.049223e+01
  -2.072643e+01   5.013281e+01
  -3.839018e+01   2.255372e+01
   8.130354e+00  -3.047264e+01
   1.524790e+01  -3.566577e+01
   5.267385e+01  -2.681825e+01
  -4.254024e+00   4.607039e+01
  -2.657742e+01   6.495878e+01
  -4.151526e+01   2.596792e+01
  -4.509873e+00  -2.019659e+01
   1.723519e+01  -4.902701e+01
   1.945007e+01  -2.759075e+01
   1.599385e+00   1.137571e+01
  -2.510269e+01   3.025672e+01
  -3.802227e+01   2.896884e+01
   6.496477e+00  -1.592079e+01
   2.147959e+01  -8.140235e+00
   1.082563e+01  -5.702384e+00
  -1.131174e+01   3.925030e+01
  -2.727122e+01   2.355543e+01
  -2.148546e+01   8.834434e+00
  -2.109934e+01  -3.425041e+01
  -1.196794e+01  -2.916554e+01
   1.288332e+00  -6.380654e+00
   5.208803e-01   9.837418e+00
   1.848288e+00   8.781481e+00
  -4.516231e-01  -1.406778e+01
  -3.211405e+00  -2.028060e+01
   1.764265e+01  -1.019952e+01
   1.658485e+01   7.847732e+00
   1.030112e+01   2.062708e+01
  -1.101531e+01   2.649396e+00
  -9.005763e+00  -1.007212e+01
   4.103260e+00  -8.174144e+00
   1.703477e+01   2.238296e+00
   1.125384e+01   1.458480e+01
  -5.716174e+00   1.095667e+01
  -1.348839e+01   9.987298e+00
  -9.607261e+00   1.633459e-03
  -2.855186e+00  -6.781579e+00
   2.240706e+00  -5.346771e+00
   2.821385e+00   3.512446e-01
   9.330593e-01   5.247496e+00
  -1.705870e+00  -4.200686e-01
  -1.157349e+00  -8.654459e+00
   5.772020e+00  -6.940574e+00
   1.246321e+01   4.606594e+00
   8.320101e+00   1.446964e+01
  -4.223514e+00   1.380427e+01
  -1.205610e+01   5.962867e+00
  -7.895072e+00  -2.121435e+00
  -6.479732e-01  -6.535723e+00
  -1.238599e-01  -6.534901e+00
  -3.118270e+00  -3.524695e+00
  -8.757714e-01   2.173329e-01
   4.705073e+00   1.578588e+00
   5.970679e+00   4.410447e-01
   7.194677e-01   3.901175e-01
  -1.907113e+00   1.529411e+00
   5.348697e-01   1.206574e+00
   1.669582e+00   1.490095e+00
  -2.060701e+00   2.364964e+00
  -6.946492e+00   1.424551e+00
  -4.002205e+00  -7.874921e-01
   3.618189e+00  -5.393271e+00
   8.371872e+00  -9.974574e-01
   3.990100e+00   7.281296e+00
  -2.532128e+00   8.958558e+00
  -7.603611e+00   3.407585e+00
  -4.913467e+00  -5.823223e+00
  -1.044583e+00  -2.791824e+00
   1.253301e+00   3.029078e+00
  -2.513302e+00   4.437966e+00
  -4.589123e+00  -2.104190e+00
  -2.973180e+00  -8.604929e+00
   3.462299e+00  -8.596901e+00
   8.598718e+00  -1.505303e+00
   7.170502e+00   6.993173e+00
   1.433596e+00   1.166804e+01
  -6.088165e+00   5.811981e+00
  -6.780433e+00  -2.763955e-01
  -4.960014e+00  -4.638229e+00
   3.656688e+00  -3.309426e+00
   4.433461e+00   4.370484e-01
   2.699468e+00   2.418188e+00
  -3.360646e+00   2.058115e+00
  -3.302618e+00  -8.582579e-01
   8.789566e-01  -1.715018e+00
   3.727913e+00   1.604542e+00
   2.532966e+00   4.735085e+00
  -3.115424e+00   5.418205e+00
  -6.076229e+00   1.824383e+00
  -5.560850e+00  -4.659397e+00
  -9.790302e-01  -7.172912e+00
   4.300860e+00  -5.373403e+00
   5.430736e+00   4.323989e-01
   2.195607e+00   4.258510e+00
  -1.920382e+00   3.903114e+00
  -2.484902e+00   7.119959e-01
   7.098402e-01  -2.196950e+00
   2.692366e+00  -1.029092e+00
   1.319229e+00   1.762756e+00
  -2.113407e+00   3.095152e+00
  -3.439149e+00   1.244219e+00
  -1.805723e+00  -1.583871e+00
   3.759458e-01  -2.749068e+00
   2.421874e+00  -1.376783e+00
   2.666472e+00   1.541463e+00
   8.245275e-01   4.235936e+00
  -2.441655e+00   3.767938e+00
  -4.395811e+00   1.301830e-01
  -2.947350e+00  -3.814230e+00
   5.616029e-01  -3.504672e+00
   2.115384e+00   8.327370e-01
   1.416867e-01   3.743626e+00
  -2.774178e+00   1.009589e+00
  -2.784533e+00  -3.515211e+00
   3.041236e-01  -4.718011e+00
   3.518563e+00  -1.499225e+00
   3.432907e+00   1.745691e+00
   1.533839e-01   2.586007e+00
  -2.544290e+00   1.719567e+00
  -2.048722e+00   5.851975e-02
   1.096158e-01  -1.588239e+00
   1.777494e+00  -1.762473e+00
   1.259137e+00   2.048846e-01
  -1.129809e+00   2.418604e+00
  -3.018693e+00   1.753924e+00
  -2.605303e+00  -2.007835e+00
   5.786611e-01  -3.833593e+00
   3.353264e+00  -1.926123e+00
   3.469917e+00   1.460906e+00
   1.011549e+00   2.860331e+00
  -1.235022e+00   1.370385e+00
  -1.700266e+00   4.572547e-01
  -4.379104e-01   3.920428e-01
   7.634142e-03   9.791088e-01
  -6.350705e-01   1.316697e+00
  -2.351034e+00   8.694272e-02
  -2.609815e+00  -1.969894e+00
  -1.073341e+00  -3.711283e+00
   1.714929e+00  -2.619303e+00
   3.649152e+00   8.187144e-01
   2.880615e+00   1.983255e+00
  -4.742520e-02   2.349549e+00
  -2.407830e+00   9.638033e-01
  -1.169056e+00   2.124017e-02
   1.022384e-01  -5.497211e-01
   1.253202e+00  -1.128564e-01
  -6.739501e-01   9.222431e-01
  -1.694825e+00   8.420435e-01
  -1.276905e+00  -9.250791e-01
   6.746596e-01  -2.231433e+00
   3.323780e+00  -1.402728e+00
   3.075333e+00   1.988001e+00
  -3.675023e-01   4.934211e+00
  -4.130015e+00   2.788727e+00
  -5.345026e+00  -1.721235e+00
  -1.713251e+00  -5.236717e+00
   1.919105e+00  -4.202534e+00
   3.547797e+00  -1.095139e+00
   2.593004e+00   1.387538e+00
   9.536629e-01   1.585465e+00
   7.592068e-01   1.069031e+00
   6.046740e-01   8.795169e-01
   1.298595e+00   1.431949e+00
   1.210620e-01   2.320037e+00
  -1.824588e+00   2.796271e+00
  -4.194714e+00   1.692926e+00
  -4.352704e+00  -1.592731e+00
  -1.702645e+00  -4.536084e+00
   2.116422e+00  -4.284530e+00
   3.893391e+00  -1.157756e+00
   2.659882e+00   1.612360e+00
   4.292005e-01   1.732579e+00
  -9.676955e-01   3.960438e-01
  -7.552193e-01  -1.330548e-01
   2.497101e-01   4.518714e-01
   4.838910e-01   7.880768e-01
  -2.801855e-01   6.880588e-01
  -1.039638e+00  -4.083662e-03
  -1.100868e+00  -1.036476e+00
  -1.762005e-01  -1.855623e+00
   1.165123e+00  -1.727240e+00
   1.886914e+00   3.845594e-01
   1.188341e+00   2.127821e+00
  -4.844702e-01   2.136659e+00
  -1.857672e+00   3.000674e-01
  -1.493110e+00  -1.437782e+00
   1.049333e-02  -1.531347e+00
   1.137255e+00  -4.687977e-01
   1.115874e+00   2.660295e-01
   1.155924e-01   2.324167e-01
  -7.850945e-02  -3.780022e-01
   9.640696e-01  -3.859365e-01
   1.582398e+00   5.709485e-01
   8.463753e-01   1.858700e+00
  -1.495590e+00   1.835341e+00
  -2.270685e+00   2.041227e-01
  -1.238261e+00  -1.649665e+00
   6.590079e-01  -1.990384e+00
   1.067001e+00  -5.879660e-01
   1.409895e-01   8.496958e-01
  -5.551505e-01   8.040303e-01
  -1.708093e-01  -2.455122e-01
   8.558377e-01  -1.180794e+00
   1.499354e+00  -1.216659e+00
   1.282299e+00   3.463466e-01
   5.974426e-01   1.857077e+00
  -8.884586e-01   2.177278e+00
  -1.999765e+00   6.972398e-01
  -1.459579e+00  -1.156444e+00
   5.026483e-01  -1.744495e+00
   1.931564e+00  -1.765720e-01
   8.125717e-01   1.699143e+00
  -1.477194e+00   1.262385e+00
  -2.523831e+00  -8.347613e-01
  -1.221309e+00  -2.749598e+00
   1.463052e+00  -2.302031e+00
   2.850504e+00  -3.290028e-02
   2.195103e+00   1.771322e+00
   5.131360e-01   1.638955e+00
  -1.310495e+00   8.077641e-01
  -1.722983e+00  -5.325054e-02
  -7.027516e-01  -1.470493e-01
   7.506751e-01  -4.995606e-01
   9.065338e-01  -1.758098e-01
  -3.060417e-01   5.524279e-01
  -8.461291e-01   5.918215e-01
  -1.054673e-02  -2.910610e-01
   1.030229e+00  -1.007806e+00
   9.126449e-01  -3.632371e-01
  -2.811417e-01   1.269038e+00
  -9.981856e-01   1.911346e+00
  -6.211894e-01   4.118227e-01
   4.511939e-02  -1.164339e+00
   2.706831e-01  -1.431679e+00
   3.377985e-01   1.353985e-02
   4.203758e-01   9.373235e-01
   3.920093e-01   8.230403e-01
   5.717880e-02   1.885966e-02
  -3.252146e-01   2.409763e-01
  -2.231321e-01   1.220471e+00
  -7.116429e-01   1.250339e+00
  -1.278770e+00   1.663678e-01
  -1.514752e+00  -1.494335e+00
  -5.754728e-01  -1.807391e+00
   9.914968e-01  -8.152568e-01
   1.647754e+00   1.314904e-01
   1.092250e+00   7.587315e-01
  -3.988454e-02   9.190109e-01
  -7.706259e-01   8.591118e-01
  -4.880386e-01   3.686135e-01
  -1.126578e-01  -2.384221e-01
   3.192288e-01  -2.278051e-01
  -3.925481e-02   5.015442e-01
  -7.518204e-01   6.413911e-01
  -1.362348e+00  -5.379154e-02
  -3.980956e-01  -1.121911e+00
   9.816484e-01  -1.023895e+00
   1.457043e+00   1.417638e-01
   3.314854e-01   1.205113e+00
  -1.171174e+00   1.196779e+00
  -1.462402e+00   1.344976e-01
  -6.748575e-01  -1.080585e+00
   2.586495e-01  -1.349172e+00
   5.825176e-01  -3.895622e-01
   6.229804e-01   6.125488e-01
   4.869968e-01   8.045706e-01
  -6.215788e-02   3.437796e-02
  -4.465630e-01  -8.481816e-01
  -6.759207e-02  -7.879891e-01
   8.455761e-01   5.879606e-01
   8.124362e-01   1.525598e+00
  -1.006331e-01   1.175072e+00
  -1.280809e+00  -3.465652e-02
  -1.069180e+00  -8.357950e-01
   4.948545e-02  -7.542827e-01
   8.200935e-01  -4.134807e-02
   2.899243e-01   5.667202e-01
  -4.224539e-01   5.112708e-01
  -6.650810e-01   1.100630e-01
  -2.682646e-01  -4.051785e-01
   3.985511e-01  -6.574172e-01
   4.645190e-01  -1.671290e-01
   2.196907e-01   4.123157e-01
  -1.556141e-01   5.228504e-01
  -4.243822e-01   5.376515e-01
  -4.671554e-01   1.323097e-01
  -3.381917e-02  -6.079541e-02
   4.204719e-02   2.850775e-02
  -1.254866e-01   3.419103e-02
  -4.902454e-01   1.795771e-02
  -3.039998e-01  -4.548707e-01
   3.905214e-01  -7.221585e-01
   9.863188e-01  -3.738812e-01
   1.012439e+00   7.664748e-01
   1.291560e-01   1.367967e+00
  -5.833473e-01   1.125442e+00
  -8.581482e-01   3.150896e-03
  -3.943381e-01  -8.660039e-01
   1.371700e-01  -4.547544e-01
  -1.070435e-01   4.198190e-01
  -5.302078e-01   8.370311e-01
  -5.905068e-01  -3.042248e-01
  -1.918418e-01  -1.450471e+00
