
 $NMID
 id='ANONYMOUS ', fmtdat='(2E16.6)'
 volume=1.0
 tramp=1.0
 $END
   3.058790e+03  -1.903493e+02
   2.179144e+03   1.446522e+03
   2.416551e+02   1.920612e+03
  -1.079595e+03   1.413368e+03
  -1.174744e+03   5.155884e+02
  -3.683053e+02  -1.252606e+02
   2.061487e+02  -8.204731e+01
   1.893939e+02   3.197173e+02
  -2.871537e+02   4.476707e+02
  -6.064888e+02   1.904529e+02
  -5.220273e+02  -3.105056e+02
  -1.072103e+02  -6.796494e+02
   2.103112e+02  -3.563119e+02
   3.538720e+02   2.839126e+02
   2.037320e+00   4.696511e+02
  -3.191762e+02   1.205129e+02
  -3.427076e+02  -3.926395e+02
   7.276006e+01  -7.129852e+02
   4.812695e+02  -3.994089e+02
   5.235020e+02   5.535091e+01
   2.356857e+02   3.380116e+02
  -3.210242e+01   2.870989e+02
  -3.770026e+01   1.278639e+02
   2.023320e+02   1.823982e+02
   2.800573e+02   3.056719e+02
  -8.571845e+01   3.074107e+02
  -4.797220e+02   8.936216e+01
  -5.482061e+02  -2.221982e+02
  -1.768515e+02  -2.929850e+02
   2.924001e+02  -1.003297e+02
   4.307537e+02   1.450307e+02
   1.597402e+02   2.993523e+02
  -2.479248e+02   3.153189e+02
  -4.313404e+02   1.343596e+02
  -3.179000e+02  -1.408175e+02
  -1.312292e+02  -2.682050e+02
  -2.392487e+01  -1.710577e+02
  -9.233841e+01   3.684332e+01
  -1.674588e+02   8.158796e+01
  -1.078220e+02  -1.696120e+02
   4.668595e+01  -4.423860e+02
   2.189459e+02  -3.746226e+02
   2.512458e+02  -3.900738e-01
   8.719158e+01   2.544949e+02
  -1.111864e+02   9.661676e+01
  -1.169579e+02  -2.662427e+02
   1.280753e+02  -3.520584e+02
   4.144954e+02  -3.748548e+01
   4.652011e+02   3.774050e+02
   1.609300e+02   4.851624e+02
  -2.775586e+02   2.463928e+02
  -5.034748e+02  -6.111266e+01
  -3.512882e+02  -2.166963e+02
  -1.929022e-01  -2.001465e+02
   2.449863e+02  -1.148934e+02
   2.268805e+02  -3.911461e+01
   6.091018e+01   3.743045e+00
  -1.989265e+01   4.573397e+00
   7.283887e+01  -1.263823e+01
   1.935728e+02   2.499551e+01
   1.309769e+02   1.491271e+02
  -1.320212e+02   2.571097e+02
  -3.627845e+02   1.817749e+02
  -3.116040e+02  -9.943273e+01
   1.090855e+01  -3.789404e+02
   3.313376e+02  -4.060781e+02
   3.977877e+02  -1.451958e+02
   2.271880e+02   1.817372e+02
   4.060118e+01   3.383367e+02
  -8.275304e+00   2.931149e+02
   1.583892e+01   1.961382e+02
  -3.096189e+01   1.606280e+02
  -1.714614e+02   1.415400e+02
  -2.797392e+02   3.635352e+01
  -2.422362e+02  -1.468866e+02
  -7.533039e+01  -2.624559e+02
   1.010514e+02  -1.799704e+02
   1.824204e+02   5.680180e+01
   1.170488e+02   2.497012e+02
  -6.016332e+01   2.414649e+02
  -2.451804e+02   4.810313e+01
  -2.989287e+02  -1.816371e+02
  -1.704939e+02  -2.920941e+02
   3.248572e+01  -2.646086e+02
   1.530477e+02  -1.747364e+02
   1.569651e+02  -1.111836e+02
   1.709349e+02  -8.287970e+01
   3.004934e+02  -2.938783e+01
   4.270214e+02   1.048183e+02
   3.321405e+02   3.094254e+02
  -1.995706e+01   4.542010e+02
  -3.960516e+02   4.146370e+02
  -4.967476e+02   1.800790e+02
  -2.875500e+02  -1.037638e+02
  -1.545431e+01  -2.478114e+02
   7.925227e+01  -1.868448e+02
  -1.177252e+01  -4.051183e+01
  -1.198128e+02   1.939525e+01
  -1.062599e+02  -4.840070e+01
   1.064661e+01  -1.208692e+02
   1.018997e+02  -7.904524e+01
   7.836479e+01   5.441423e+01
  -4.362678e+01   1.123230e+02
  -1.626767e+02  -1.466180e+01
  -1.575122e+02  -2.411861e+02
   1.497318e+01  -3.592796e+02
   2.598287e+02  -2.352792e+02
   3.936971e+02   5.348361e+01
   3.009807e+02   2.837739e+02
   5.349129e+01   2.991458e+02
  -1.410864e+02   1.448794e+02
  -1.490331e+02   2.631259e+00
  -2.809478e+01  -8.039553e+00
   4.483650e+01   7.315692e+01
  -1.771200e+01   1.153278e+02
  -1.290997e+02   5.726079e+01
  -1.407232e+02  -3.469821e+01
  -2.425060e+01  -5.264315e+01
   8.370664e+01   2.322044e+01
   3.212689e+01   1.066564e+02
  -1.644813e+02   9.518393e+01
  -3.218485e+02  -3.066341e+01
  -2.668644e+02  -1.935367e+02
  -1.850445e+01  -2.829651e+02
   2.241803e+02  -2.361972e+02
   2.746586e+02  -8.852856e+01
   1.338549e+02   4.635409e+01
  -2.910544e+01   6.856542e+01
  -5.322638e+01  -1.014984e+01
   6.381239e+01  -7.327714e+01
   1.865203e+02  -2.204232e+01
   1.843188e+02   1.098155e+02
   5.363871e+01   1.884956e+02
  -8.948225e+01   1.332780e+02
  -1.231259e+02   1.250757e+01
  -3.902590e+01  -3.722937e+01
   5.122839e+01   3.198639e+01
   2.617913e+01   1.301062e+02
  -1.122048e+02   1.323932e+02
  -2.296223e+02   9.975153e+00
  -1.916744e+02  -1.464815e+02
  -1.118320e+01  -2.169351e+02
   1.567972e+02  -1.542114e+02
   1.732143e+02  -1.612682e+01
   5.394423e+01   8.817172e+01
  -6.122735e+01   9.122681e+01
  -6.630179e+01   2.307316e+01
   7.527665e+00  -2.647620e+01
   4.796415e+01  -6.522605e+00
  -7.796726e+00   3.454627e+01
  -1.024152e+02   7.622287e+00
  -1.201283e+02  -1.009400e+02
  -9.144696e+00  -1.948122e+02
   1.600342e+02  -1.627328e+02
   2.561109e+02  -1.661493e+00
   1.980520e+02   1.725828e+02
   3.484090e+01   2.368211e+02
  -1.048275e+02   1.637472e+02
  -1.349803e+02   3.482820e+01
  -8.134790e+01  -4.279003e+01
  -3.817081e+01  -3.032413e+01
  -5.774512e+01   1.450628e+01
  -9.444321e+01   8.772523e+00
  -6.649506e+01  -6.131545e+01
   3.988522e+01  -1.221026e+02
   1.387579e+02  -8.107446e+01
   1.257100e+02   5.032732e+01
  -1.768276e+01   1.491587e+02
  -1.850580e+02   1.013441e+02
  -2.256243e+02  -7.583902e+01
  -8.416669e+01  -2.339305e+02
   1.416532e+02  -2.336670e+02
   2.836775e+02  -7.970885e+01
   2.497077e+02   9.695786e+01
   9.735338e+01   1.732517e+02
  -4.203346e+01   1.402311e+02
  -8.726204e+01   8.166030e+01
  -6.608254e+01   7.366066e+01
  -5.746323e+01   1.014589e+02
  -9.530854e+01   8.727240e+01
  -1.421091e+02  -1.567141e+01
  -1.278672e+02  -1.599040e+02
  -2.785049e+01  -2.362227e+02
   1.049433e+02  -1.733222e+02
   1.760210e+02  -9.851309e+00
   1.291488e+02   1.342662e+02
   6.043855e+00   1.621584e+02
  -8.375365e+01   8.027189e+01
  -6.927115e+01  -2.162406e+01
   7.323147e+00  -6.250804e+01
   3.733381e+01  -3.935684e+01
  -2.240464e+01  -9.647515e+00
  -9.050526e+01  -1.590354e+01
  -5.528145e+01  -4.323451e+01
   8.191248e+01  -4.311774e+01
   1.904925e+02   6.481963e+00
   1.510526e+02   7.545178e+01
  -1.129819e+01   1.086549e+02
  -1.510879e+02   7.529038e+01
  -1.543158e+02  -9.495296e-01
  -4.412629e+01  -5.953240e+01
   6.386563e+01  -5.100922e+01
   8.432560e+01   1.682271e+01
   2.667112e+01   7.937423e+01
  -4.305830e+01   7.428456e+01
  -7.496100e+01   6.315564e+00
  -6.833722e+01  -5.363290e+01
  -5.249997e+01  -4.793358e+01
  -5.347722e+01  -3.200754e+00
  -6.599326e+01  -9.841881e-01
  -5.118360e+01  -7.741464e+01
   2.442366e+01  -1.636867e+02
   1.363431e+02  -1.563726e+02
   1.996006e+02  -3.581946e+01
   1.433070e+02   1.026263e+02
   8.120531e-01   1.456177e+02
  -1.020875e+02   7.871541e+01
  -6.833586e+01  -8.938163e+00
   5.968840e+01  -2.359754e+01
   1.387804e+02   4.097856e+01
   7.237444e+01   1.107266e+02
  -8.757758e+01   1.135584e+02
  -1.951711e+02   4.369345e+01
  -1.597863e+02  -4.470226e+01
  -2.917533e+01  -8.709853e+01
   6.711914e+01  -5.867969e+01
   4.893879e+01   6.133367e+00
  -4.346327e+01   3.558479e+01
  -9.925753e+01  -1.729259e+01
  -4.767426e+01  -1.192276e+02
   7.369337e+01  -1.667370e+02
   1.588015e+02  -8.248016e+01
   1.343304e+02   8.772015e+01
   2.315076e+01   1.982668e+02
  -8.242097e+01   1.470639e+02
  -1.083208e+02  -1.279810e+01
  -5.489631e+01  -1.267800e+02
   1.954634e+01  -1.063002e+02
   5.680440e+01  -1.323851e+01
   4.378303e+01   3.446721e+01
   1.301182e+01   8.090209e+00
   7.805328e+00  -1.554320e+01
   3.716158e+01   2.603776e+01
   6.088541e+01   9.470464e+01
   2.715305e+01   1.070652e+02
  -6.372260e+01   4.302354e+01
  -1.403075e+02  -3.651494e+01
  -1.247964e+02  -7.073146e+01
  -2.121825e+01  -5.798145e+01
   7.838029e+01  -3.058340e+01
   8.902925e+01  -6.555416e+00
   2.320338e+01   1.361395e+01
  -3.202587e+01   2.230720e+01
  -2.274300e+01   1.133628e+01
   1.141418e+01  -5.030929e+00
  -1.834719e+00  -3.932276e+00
  -6.560514e+01   4.353302e+00
  -9.887894e+01  -1.973532e+01
  -3.173098e+01  -8.351500e+01
   1.042969e+02  -1.264071e+02
   1.974145e+02  -7.750586e+01
   1.662299e+02   5.236915e+01
   3.815975e+01   1.635895e+02
  -8.419014e+01   1.667601e+02
  -1.228373e+02   7.490826e+01
  -8.367191e+01  -1.832884e+01
  -2.859482e+01  -4.273104e+01
  -5.825259e+00  -1.779295e+01
  -1.660475e+01  -1.145241e+01
  -3.000017e+01  -5.250385e+01
  -1.641956e+01  -9.532760e+01
   2.944430e+01  -7.584167e+01
   8.039435e+01   1.199584e+01
   8.731243e+01   1.008334e+02
   2.315098e+01   1.139995e+02
  -7.321395e+01   3.939782e+01
  -1.136713e+02  -6.019455e+01
  -4.901941e+01  -1.069478e+02
   6.449693e+01  -7.357193e+01
   1.131883e+02   3.759046e+00
   5.332693e+01   6.416167e+01
  -3.582132e+01   7.116541e+01
  -4.716889e+01   3.202075e+01
   2.211812e+01  -9.995994e+00
   7.055591e+01  -1.214542e+01
   2.184545e+01   2.934835e+01
  -8.059167e+01   6.959137e+01
  -1.293484e+02   5.501058e+01
  -7.964504e+01  -1.919600e+01
   1.097376e+01  -9.074873e+01
   6.188740e+01  -9.126188e+01
   5.148155e+01  -1.973980e+01
   1.187378e+01   5.154959e+01
  -2.251434e+01   5.424157e+01
  -3.864683e+01  -5.051580e+00
  -3.156125e+01  -5.596589e+01
  -9.963589e-01  -4.649836e+01
   3.520705e+01   1.629135e+00
   4.591487e+01   2.804073e+01
   2.270623e+01   7.160963e+00
  -5.449575e+00  -2.387055e+01
  -6.982198e+00  -1.512283e+01
   1.030318e+01   3.107706e+01
   8.392147e+00   6.056142e+01
  -2.445845e+01   3.188133e+01
  -4.946738e+01  -3.048441e+01
  -2.383231e+01  -6.232421e+01
   3.858228e+01  -3.092553e+01
   7.000009e+01   3.015680e+01
   2.553059e+01   6.156354e+01
  -5.983832e+01   4.027914e+01
  -1.012361e+02  -7.523188e+00
  -5.642085e+01  -4.344799e+01
   2.845961e+01  -5.118684e+01
   6.845611e+01  -3.555627e+01
   3.327826e+01  -1.021553e+01
  -2.470109e+01   6.721324e+00
  -3.326265e+01  -3.392893e-01
   1.905589e+01  -2.336228e+01
   7.421859e+01  -2.474905e+01
