
 $NMID
 id='ANONYMOUS ', fmtdat='(2E16.6)'
 volume=1.0
 tramp=1.0
 $END
  -4.131364e+03   5.366963e+01
  -2.731220e+03  -2.815654e+03
   5.016474e+02  -2.763919e+03
   2.005049e+03  -1.064123e+03
   9.732730e+02   5.662476e+02
  -5.649505e+02   6.049807e+02
  -9.152446e+02  -4.376781e+02
  -1.349409e+02  -9.622388e+02
   8.233404e+02  -8.542171e+02
   9.669571e+02   1.982822e+02
   4.277065e+02   7.760897e+02
  -1.236572e+02   9.162139e+02
  -6.281795e+02   2.101375e+02
  -4.011873e+02  -7.200314e+02
   2.136876e+02  -7.283529e+02
   6.584001e+02  -3.293317e+01
   3.224561e+02   7.348059e+02
  -3.473743e+02   6.616575e+02
  -5.772873e+02   1.521764e+02
  -4.403502e+02  -3.542432e+02
  -4.637917e+01  -5.018291e+02
   2.262133e+02  -2.918985e+02
   2.118389e+02  -2.347028e+00
  -9.924388e+01   9.521870e+01
  -3.905837e+02  -9.479644e+01
  -2.080878e+02  -4.277877e+02
   4.850313e+02  -4.343862e+02
   8.779545e+02   9.127298e+01
   4.683638e+02   5.598180e+02
  -3.994239e+02   5.229606e+02
  -7.827061e+02  -5.970298e+00
  -3.700201e+02  -4.914897e+02
   2.827522e+02  -5.193191e+02
   5.721664e+02  -2.213173e+02
   4.499942e+02   2.354133e+02
   8.884451e+01   5.218600e+02
  -2.230677e+02   3.096569e+02
  -2.127923e+02  -2.277552e+02
   1.474464e+02  -4.743611e+02
   4.763059e+02   6.009145e-01
   2.804760e+02   7.311970e+02
  -3.508059e+02   7.649665e+02
  -6.859599e+02   6.767944e+00
  -2.983962e+02  -6.128067e+02
   3.276705e+02  -3.792333e+02
   4.524186e+02   3.313529e+02
  -5.684318e+01   6.137878e+02
  -6.083378e+02   1.783749e+02
  -6.556837e+02  -4.227047e+02
  -1.896074e+02  -6.349480e+02
   4.081324e+02  -3.842732e+02
   6.734254e+02   7.357627e+01
   4.058157e+02   4.206528e+02
  -1.656730e+02   4.109771e+02
  -4.910826e+02   6.313681e+01
  -2.737553e+02  -2.268245e+02
   1.315135e+02  -1.345820e+02
   1.767037e+02   1.656180e+02
  -1.660878e+02   2.248358e+02
  -3.894357e+02  -5.482727e+01
  -1.773737e+02  -3.188536e+02
   2.073248e+02  -2.927368e+02
   3.523422e+02  -9.198659e+01
   2.021240e+02   8.498155e+01
  -3.690796e+01   2.325539e+02
  -2.335973e+02   3.379983e+02
  -3.482337e+02   2.257251e+02
  -3.045492e+02  -1.487498e+02
  -8.777320e+01  -4.689513e+02
   1.227258e+02  -4.130993e+02
   1.376286e+02  -1.163403e+02
   3.424344e+01   2.086158e+01
   4.293157e+01  -8.780458e+01
   1.939325e+02  -1.426459e+02
   2.876149e+02   4.282125e+01
   1.772544e+02   2.771401e+02
  -5.733058e+01   2.714988e+02
  -2.270761e+02   2.046613e+01
  -2.149001e+02  -2.364067e+02
  -8.121352e+00  -3.033097e+02
   2.663486e+02  -1.322642e+02
   3.826681e+02   1.565687e+02
   2.132525e+02   3.637820e+02
  -9.826452e+01   3.338269e+02
  -2.452523e+02   1.342627e+02
  -1.622654e+02   1.519404e-01
  -9.482217e+01   3.026502e+01
  -2.317829e+02   7.480971e+01
  -4.149256e+02  -4.034927e+01
  -3.563342e+02  -2.825422e+02
  -1.061842e+01  -4.651755e+02
   3.678463e+02  -4.423999e+02
   5.063677e+02  -2.246673e+02
   3.595550e+02   9.024745e+01
   7.179724e+01   3.117114e+02
  -1.283820e+02   2.757555e+02
  -8.878321e+01   3.916681e+01
   1.057250e+02  -1.145708e+02
   2.067387e+02  -1.811737e+00
   6.136728e+01   2.061876e+02
  -1.721857e+02   1.890349e+02
  -2.018103e+02  -6.183189e+01
   1.017482e+01  -2.127957e+02
   2.122889e+02  -4.815652e+01
   1.870293e+02   2.536742e+02
  -2.495062e+01   3.674173e+02
  -2.390283e+02   2.066096e+02
  -3.364337e+02  -5.845843e+01
  -2.867082e+02  -2.385826e+02
  -1.039199e+02  -2.678437e+02
   1.091156e+02  -1.678466e+02
   1.813074e+02  -2.595109e+01
   6.215266e+01   3.350036e+01
  -7.549928e+01  -3.835961e+01
  -3.938748e+01  -1.333707e+02
   1.235674e+02  -1.124835e+02
   1.893486e+02   5.841145e+00
   6.852454e+01   7.582262e+01
  -7.935671e+01   2.166221e+01
  -5.941360e+01  -7.328686e+01
   1.217542e+02  -9.126618e+01
   2.850390e+02  -5.241455e+00
   2.707511e+02   1.363395e+02
   6.969862e+01   2.578799e+02
  -1.787630e+02   2.729285e+02
  -2.876280e+02   1.398057e+02
  -1.798497e+02  -4.858270e+01
   2.098628e+01  -1.175237e+02
   9.659169e+01  -1.233293e+01
  -2.943525e+01   1.100213e+02
  -2.039926e+02   7.250859e+01
  -2.283233e+02  -9.969084e+01
  -7.821586e+01  -2.181044e+02
   9.612244e+01  -1.704178e+02
   1.499123e+02  -3.441213e+01
   7.385401e+01   4.276261e+01
  -2.886589e+01   5.945445e+00
  -4.130080e+01  -8.311356e+01
   6.802429e+01  -1.184564e+02
   2.005427e+02  -3.739092e+01
   2.022665e+02   1.201483e+02
   3.243973e+01   2.259060e+02
  -1.653079e+02   1.768774e+02
  -2.056219e+02   1.147461e+01
  -7.570628e+01  -1.197148e+02
   6.577014e+01  -1.200078e+02
   8.874591e+01  -3.444373e+01
   2.206559e+01   2.560700e+01
  -2.096493e+01   1.770393e+01
   1.083859e+01  -8.892538e+00
   7.457992e+01   8.989904e+00
   9.449868e+01   8.351521e+01
   2.153043e+01   1.637611e+02
  -1.254015e+02   1.636056e+02
  -2.425688e+02   3.729998e+01
  -2.175377e+02  -1.463142e+02
  -5.411780e+01  -2.468426e+02
   1.086877e+02  -1.827361e+02
   1.432473e+02  -3.357828e+01
   7.584916e+01   5.569288e+01
   3.025139e+01   3.740161e+01
   5.347358e+01  -1.169172e+01
   8.195949e+01  -5.899787e+00
   4.349643e+01   5.195327e+01
  -4.442444e+01   8.990422e+01
  -1.058191e+02   5.674131e+01
  -8.926358e+01  -3.437946e+01
   9.314241e+00  -1.121330e+02
   1.419550e+02  -9.409127e+01
   2.041533e+02   4.173834e+01
   1.122360e+02   2.012127e+02
  -9.860558e+01   2.401665e+02
  -2.708859e+02   1.112475e+02
  -2.690682e+02  -7.910321e+01
  -1.190607e+02  -1.798737e+02
   3.440971e+01  -1.540801e+02
   9.322185e+01  -9.002519e+01
   7.921906e+01  -7.442352e+01
   6.811562e+01  -9.692234e+01
   9.593951e+01  -7.948518e+01
   1.339944e+02   1.917235e+01
   1.250991e+02   1.553659e+02
   3.621748e+01   2.327009e+02
  -9.648754e+01   1.812739e+02
  -1.801845e+02   2.728916e+01
  -1.455564e+02  -1.213248e+02
  -2.591329e+01  -1.644365e+02
   6.662229e+01  -9.797326e+01
   6.284108e+01  -4.036305e+00
   6.647278e+00   4.214320e+01
  -9.839267e+00   3.590189e+01
   3.768687e+01   2.027841e+01
   8.143033e+01   2.401457e+01
   4.512492e+01   3.780604e+01
  -6.649889e+01   3.557383e+01
  -1.622807e+02   2.641830e+00
  -1.459991e+02  -5.083637e+01
  -1.496496e+01  -8.933085e+01
   1.239423e+02  -7.731774e+01
   1.489016e+02  -1.657024e+01
   4.987475e+01   4.125994e+01
  -6.149660e+01   4.038864e+01
  -7.806520e+01  -1.761220e+01
  -8.878690e+00  -7.080202e+01
   5.629973e+01  -6.139489e+01
   6.523142e+01   1.904070e+00
   4.698655e+01   5.271115e+01
   4.581488e+01   4.346866e+01
   6.219297e+01   4.197275e-01
   6.608604e+01  -1.665818e+00
   3.624631e+01   6.889313e+01
  -2.990569e+01   1.516230e+02
  -1.151032e+02   1.482955e+02
  -1.680503e+02   3.676236e+01
  -1.304510e+02  -9.231985e+01
  -1.078317e+01  -1.296088e+02
   8.754981e+01  -6.387038e+01
   6.294886e+01   1.486200e+01
  -6.071696e+01   2.122222e+01
  -1.435929e+02  -4.342104e+01
  -8.108948e+01  -1.095792e+02
   8.109137e+01  -1.171417e+02
   1.962982e+02  -5.739698e+01
   1.686079e+02   3.087209e+01
   4.026954e+01   8.801945e+01
  -6.106416e+01   7.400522e+01
  -5.015612e+01   9.114667e+00
   3.961864e+01  -2.879942e+01
   9.473275e+01   2.095446e+01
   3.692159e+01   1.227708e+02
  -9.210344e+01   1.634476e+02
  -1.737169e+02   6.910484e+01
  -1.344909e+02  -1.024879e+02
  -1.487567e+01  -2.064088e+02
   8.559366e+01  -1.519939e+02
   1.077217e+02   5.013272e+00
   6.482263e+01   1.205403e+02
   1.181491e+00   1.088610e+02
  -4.557389e+01   2.079624e+01
  -5.436147e+01  -3.067552e+01
  -2.827814e+01  -7.435595e+00
  -4.501961e+00   2.089644e+01
  -2.083130e+01  -1.700482e+01
  -5.785474e+01  -9.173936e+01
  -4.491025e+01  -1.114463e+02
   4.741387e+01  -4.590909e+01
   1.436423e+02   3.910148e+01
   1.354360e+02   7.024860e+01
   1.805575e+01   4.993605e+01
  -9.166029e+01   2.390787e+01
  -9.116836e+01   9.272824e+00
  -1.013733e+01  -7.791582e+00
   4.029574e+01  -2.427066e+01
   1.362065e+01  -1.930181e+01
  -2.303833e+01   1.580247e+00
   6.699844e+00   8.006564e+00
   7.930862e+01   1.135389e+00
   9.700279e+01   2.295409e+01
   9.998827e+00   8.536568e+01
  -1.225180e+02   1.231289e+02
  -1.927057e+02   6.371279e+01
  -1.476941e+02  -7.087077e+01
  -2.772330e+01  -1.710876e+02
   8.112218e+01  -1.572446e+02
   1.183812e+02  -6.006658e+01
   8.423300e+01   2.365561e+01
   2.639966e+01   3.709639e+01
  -3.026376e+00   8.461855e+00
   1.070452e+01   3.532065e+00
   3.539514e+01   4.697405e+01
   2.547251e+01   9.351364e+01
  -2.933037e+01   7.523809e+01
  -8.541209e+01  -1.795959e+01
  -8.231797e+01  -1.119571e+02
  -5.167448e+00  -1.167459e+02
   8.702909e+01  -2.502395e+01
   1.089140e+02   7.827986e+01
   3.356699e+01   1.072392e+02
  -7.001116e+01   5.720596e+01
  -1.020411e+02  -1.227195e+01
  -4.020880e+01  -5.157891e+01
   3.373155e+01  -5.262587e+01
   3.117753e+01  -2.911724e+01
  -3.608708e+01  -2.087268e-01
  -7.078351e+01   6.127245e+00
  -1.370110e+01  -2.647096e+01
   8.252427e+01  -6.908873e+01
   1.185234e+02  -6.137641e+01
   6.499687e+01   1.263111e+01
  -1.567416e+01   8.684171e+01
  -5.321852e+01   8.255051e+01
  -3.733130e+01   5.344038e+00
  -1.594919e+00  -5.824704e+01
   2.661653e+01  -4.396133e+01
   3.787289e+01   1.973068e+01
   2.737462e+01   5.621486e+01
  -3.583089e+00   3.400164e+01
  -3.474963e+01  -8.570534e+00
  -4.080696e+01  -2.096792e+01
  -2.100871e+01  -4.686817e-01
   3.801225e-01   1.439168e+01
   6.443893e+00  -4.496668e+00
   7.209068e+00  -3.964925e+01
   1.844847e+01  -4.695603e+01
   3.481766e+01  -6.282964e+00
   3.145821e+01   4.989175e+01
  -3.409961e+00   6.561439e+01
  -4.836166e+01   2.128636e+01
  -6.046831e+01  -4.286831e+01
  -1.585663e+01  -6.772236e+01
   5.728501e+01  -3.645332e+01
   9.324372e+01   1.524040e+01
   5.185276e+01   4.505604e+01
  -2.967089e+01   4.199796e+01
  -6.687422e+01   2.239490e+01
  -2.376861e+01   4.999795e+00
   4.073082e+01   1.920399e+00
   4.059598e+01   1.702696e+01
  -3.223823e+01   3.490000e+01
  -9.645323e+01   2.306959e+01
