
 $NMID
 id='ANONYMOUS ', fmtdat='(2E16.6)'
 volume=1.0
 tramp=1.0
 $END
   1.604849e+03   6.105494e+01
   1.445278e+03   8.993176e+02
   1.882037e+02   1.220954e+03
  -7.346142e+02   8.200045e+02
  -6.902149e+02   3.687329e+02
  -2.557667e+02   1.239026e+02
  -1.798176e+01   4.564967e+01
  -7.932509e+00   1.974604e+02
  -1.874894e+02   3.086741e+02
  -3.574727e+02   1.583451e+02
  -3.242602e+02  -2.276746e+02
  -9.325823e+01  -3.547622e+02
   1.221675e+02  -1.597648e+02
   1.337683e+02   1.240910e+02
  -1.695294e+01   3.159160e+02
  -2.221118e+02   6.784064e+01
  -1.815106e+02  -2.012053e+02
   3.476346e+01  -3.877113e+02
   2.312832e+02  -2.536563e+02
   3.055557e+02   4.440649e+01
   1.758945e+02   2.357288e+02
  -6.466796e+00   1.976639e+02
   1.029745e+00   1.442918e+02
   8.288162e+01   1.625466e+02
   1.271268e+02   2.403092e+02
  -8.431110e+01   2.134735e+02
  -3.238595e+02   2.938011e+01
  -3.401686e+02  -1.739426e+02
  -1.065317e+02  -1.884522e+02
   1.953080e+02  -7.513146e+01
   2.670639e+02   1.220641e+02
   7.568688e+01   2.171200e+02
  -1.649874e+02   2.072676e+02
  -2.725090e+02   9.766339e+01
  -2.262537e+02  -4.950237e+01
  -1.117525e+02  -1.728040e+02
  -4.788719e+01  -1.107046e+02
  -9.242133e+01   1.562923e+01
  -1.436151e+02   2.982130e+01
  -9.129729e+01  -1.473020e+02
   3.703846e+01  -3.375088e+02
   1.769572e+02  -2.835130e+02
   1.787767e+02  -3.513984e+00
   6.056991e+01   1.710444e+02
  -6.968915e+01   5.849936e+01
  -6.677265e+01  -1.900463e+02
   1.106722e+02  -2.488557e+02
   3.034869e+02  -2.179682e+01
   3.249967e+02   2.758410e+02
   1.081288e+02   3.443734e+02
  -1.944220e+02   1.786451e+02
  -3.467811e+02  -4.451475e+01
  -2.402448e+02  -1.501465e+02
   5.705172e+00  -1.330862e+02
   1.753026e+02  -7.423878e+01
   1.636934e+02  -2.468220e+01
   4.716256e+01   4.723741e-01
  -1.257567e+01  -7.947855e-01
   5.179942e+01  -7.097418e+00
   1.398761e+02   2.974999e+01
   9.735780e+01   1.219598e+02
  -9.529269e+01   1.907836e+02
  -2.671434e+02   1.241306e+02
  -2.276575e+02  -8.140428e+01
   1.501773e+01  -2.715520e+02
   2.479451e+02  -2.739409e+02
   2.813843e+02  -8.090192e+01
   1.418867e+02   1.406497e+02
   1.088106e+01   2.331120e+02
  -7.649454e+00   1.940519e+02
   1.809021e+01   1.333924e+02
  -2.460445e+01   1.178094e+02
  -1.345226e+02   1.009826e+02
  -2.033690e+02   1.455560e+01
  -1.565731e+02  -1.180344e+02
  -2.899097e+01  -1.845287e+02
   8.570918e+01  -1.078489e+02
   1.205747e+02   5.870015e+01
   6.358635e+01   1.823710e+02
  -5.916962e+01   1.632399e+02
  -1.762736e+02   2.648877e+01
  -2.039104e+02  -1.281212e+02
  -1.145538e+02  -2.042575e+02
   2.526129e+01  -1.851308e+02
   1.051467e+02  -1.215211e+02
   1.057732e+02  -7.603577e+01
   1.260875e+02  -5.673572e+01
   2.177884e+02  -1.433646e+01
   2.996441e+02   8.817751e+01
   2.168761e+02   2.312295e+02
  -4.233534e+01   3.162684e+02
  -2.955582e+02   2.637141e+02
  -3.415976e+02   9.455444e+01
  -1.814169e+02  -8.623669e+01
   9.428633e+00  -1.616434e+02
   6.064563e+01  -1.136009e+02
  -1.477507e+01  -2.725482e+01
  -8.856695e+01   1.341423e+00
  -7.023762e+01  -4.179825e+01
   9.841925e+00  -8.397382e+01
   7.318181e+01  -5.077260e+01
   5.698882e+01   3.710666e+01
  -2.445483e+01   7.281781e+01
  -1.042684e+02  -1.579951e+01
  -9.979206e+01  -1.701315e+02
   2.030584e+01  -2.449363e+02
   1.877439e+02  -1.472232e+02
   2.692644e+02   5.825265e+01
   1.929828e+02   2.102922e+02
   2.135235e+01   2.047251e+02
  -1.026919e+02   8.604711e+01
  -9.749398e+01  -9.724992e+00
  -1.476855e+01  -4.847518e+00
   2.799814e+01   5.717294e+01
  -1.947537e+01   8.074081e+01
  -9.168199e+01   3.031627e+01
  -9.071695e+01  -3.313193e+01
  -7.752843e+00  -3.567970e+01
   6.134501e+01   2.487237e+01
   1.867236e+01   7.849809e+01
  -1.200085e+02   5.936285e+01
  -2.248481e+02  -3.430073e+01
  -1.783867e+02  -1.423887e+02
   4.075780e-01  -1.931823e+02
   1.679415e+02  -1.528780e+02
   1.933758e+02  -5.069109e+01
   8.637868e+01   3.600721e+01
  -2.689236e+01   4.494670e+01
  -3.616463e+01  -1.105318e+01
   5.121936e+01  -5.006895e+01
   1.329296e+02  -7.873231e+00
   1.225725e+02   8.469557e+01
   2.714067e+01   1.323194e+02
  -6.722159e+01   8.527097e+01
  -8.117466e+01  -5.607579e-01
  -1.813631e+01  -2.670818e+01
   3.944584e+01   3.000257e+01
   1.270615e+01   9.722926e+01
  -8.812705e+01   8.892585e+01
  -1.640615e+02  -3.988522e+00
  -1.268555e+02  -1.105720e+02
   3.896382e+00  -1.501585e+02
   1.169203e+02  -9.856717e+01
   1.195409e+02  -3.181147e+00
   3.163053e+01   6.319839e+01
  -4.758166e+01   5.906604e+01
  -4.627210e+01   1.083695e+01
   9.176988e+00  -1.880441e+01
   3.636345e+01   8.952848e-01
  -7.142485e+00   2.948224e+01
  -7.453661e+01   4.897835e+00
  -8.316741e+01  -7.589120e+01
   1.827654e-01  -1.396665e+02
   1.191489e+02  -1.089015e+02
   1.786093e+02   1.032982e+01
   1.295795e+02   1.307966e+02
   1.341040e+01   1.671462e+02
  -8.034079e+01   1.074647e+02
  -9.472747e+01   1.778580e+01
  -5.471853e+01  -3.031501e+01
  -2.625419e+01  -1.961602e+01
  -4.234096e+01   8.329753e+00
  -6.808317e+01   1.074582e+00
  -4.691903e+01  -4.891496e+01
   3.161166e+01  -8.606339e+01
   1.011103e+02  -5.192655e+01
   8.751746e+01   4.061891e+01
  -1.709793e+01   1.033281e+02
  -1.321928e+02   6.210301e+01
  -1.533845e+02  -6.425869e+01
  -4.829452e+01  -1.652885e+02
   1.081931e+02  -1.541735e+02
   2.003187e+02  -4.199591e+01
   1.698831e+02   7.761690e+01
   6.021824e+01   1.226175e+02
  -3.553335e+01   9.474856e+01
  -6.351190e+01   5.382964e+01
  -4.776692e+01   4.951240e+01
  -4.233189e+01   6.857019e+01
  -6.969634e+01   5.712159e+01
  -9.829627e+01  -1.655011e+01
  -8.215608e+01  -1.166795e+02
  -9.372408e+00  -1.659541e+02
   7.991165e+01  -1.155527e+02
   1.221617e+02   2.406396e+00
   8.312727e+01   1.001823e+02
  -4.163249e+00   1.120491e+02
  -6.317301e+01   4.878300e+01
  -4.710834e+01  -2.155624e+01
   1.011467e+01  -4.505301e+01
   3.144562e+01  -2.614907e+01
  -1.287419e+01  -6.985049e+00
  -6.238825e+01  -1.359258e+01
  -3.692998e+01  -3.058790e+01
   6.042543e+01  -2.570904e+01
   1.345739e+02   1.169001e+01
   1.022841e+02   5.756313e+01
  -1.379360e+01   7.529220e+01
  -1.085878e+02   4.811148e+01
  -1.055388e+02  -5.541176e+00
  -2.609490e+01  -4.364493e+01
   4.727586e+01  -3.378624e+01
   5.820873e+01   1.601081e+01
   1.643371e+01   5.925982e+01
  -3.183290e+01   5.238073e+01
  -5.321855e+01   1.985692e+00
  -4.754822e+01  -4.048688e+01
  -3.623337e+01  -3.468116e+01
  -3.717335e+01  -2.332145e+00
  -4.600007e+01  -1.909319e+00
  -3.402749e+01  -5.667819e+01
   2.127059e+01  -1.154007e+02
   1.004752e+02  -1.060252e+02
   1.415830e+02  -1.818045e+01
   9.694344e+01   7.725694e+01
  -4.884956e+00   1.023570e+02
  -7.476281e+01   5.140687e+01
  -4.785908e+01  -8.994282e+00
   4.228441e+01  -1.465092e+01
   9.494772e+01   3.333438e+01
   4.594510e+01   7.945934e+01
  -6.593538e+01   7.528525e+01
  -1.384003e+02   2.164611e+01
  -1.097376e+02  -3.892680e+01
  -1.607926e+01  -6.295080e+01
   5.114914e+01  -3.871552e+01
   3.609926e+01   6.369078e+00
  -3.077827e+01   2.441484e+01
  -6.895653e+01  -1.476904e+01
  -2.961587e+01  -8.508266e+01
   5.758658e+01  -1.146192e+02
   1.145683e+02  -5.156480e+01
   9.074127e+01   6.819380e+01
   8.327238e+00   1.410043e+02
  -6.379293e+01   9.846936e+01
  -7.574073e+01  -1.595248e+01
  -3.330546e+01  -9.218142e+01
   1.879168e+01  -7.229440e+01
   4.116614e+01  -5.297651e+00
   2.934153e+01   2.538610e+01
   8.388447e+00   4.387861e+00
   6.089623e+00  -1.067347e+01
   2.591323e+01   2.118731e+01
   3.979759e+01   6.962243e+01
   1.435391e+01   7.495643e+01
  -4.782992e+01   2.619261e+01
  -9.783381e+01  -3.153007e+01
  -8.376288e+01  -5.457096e+01
  -1.024595e+01  -4.186899e+01
   5.848383e+01  -1.883263e+01
   6.357820e+01   3.940317e-02
   1.505322e+01   1.239955e+01
  -2.451446e+01   1.524399e+01
  -1.718606e+01   6.091333e+00
   8.312293e+00  -3.978282e+00
  -4.486204e-01  -1.870336e+00
  -4.600270e+01   2.691991e+00
  -6.962468e+01  -1.705151e+01
  -2.082217e+01  -6.186773e+01
   7.673697e+01  -8.776213e+01
   1.419726e+02  -4.828461e+01
   1.164325e+02   4.376525e+01
   2.231512e+01   1.175642e+02
  -6.480042e+01   1.143207e+02
  -8.942619e+01   4.751131e+01
  -5.861638e+01  -1.635241e+01
  -1.856355e+01  -3.097812e+01
  -2.901527e+00  -1.269911e+01
  -1.039810e+01  -8.989148e+00
  -1.845679e+01  -3.776910e+01
  -7.741756e+00  -6.670071e+01
   2.345217e+01  -5.141317e+01
   5.595650e+01   1.113180e+01
   5.794899e+01   7.328581e+01
   1.263367e+01   8.100555e+01
  -5.238637e+01   2.621110e+01
  -7.773481e+01  -4.567736e+01
  -3.068395e+01  -7.733489e+01
   4.834734e+01  -5.006621e+01
   7.989836e+01   7.638966e+00
   3.529276e+01   4.902912e+01
  -2.798107e+01   4.978255e+01
  -3.494778e+01   2.066275e+01
   1.495215e+01  -6.735788e+00
   4.865006e+01  -5.769085e+00
   1.304993e+01   2.179006e+01
  -5.962018e+01   4.519615e+01
  -9.224724e+01   3.177739e+01
  -5.428563e+01  -1.821887e+01
   1.194915e+01  -6.376571e+01
   4.786623e+01  -6.103205e+01
   3.768604e+01  -1.123144e+01
   6.817912e+00   3.718147e+01
  -1.765059e+01   3.733267e+01
  -2.678476e+01  -4.842201e+00
  -1.968419e+01  -4.029451e+01
   1.719074e+00  -3.220821e+01
   2.481787e+01   3.302869e+00
   3.084707e+01   2.261862e+01
   1.491189e+01   6.183744e+00
  -3.546918e+00  -1.757896e+01
  -3.816224e+00  -1.162727e+01
   7.051095e+00   2.251593e+01
   4.110984e+00   4.406343e+01
  -1.902485e+01   2.251644e+01
  -3.516623e+01  -2.312777e+01
  -1.504269e+01  -4.525756e+01
   2.848932e+01  -2.081612e+01
   4.849545e+01   2.382561e+01
   1.551154e+01   4.422944e+01
  -4.415996e+01   2.611445e+01
  -7.116744e+01  -9.314028e+00
  -3.774375e+01  -3.307564e+01
   2.221451e+01  -3.550926e+01
   4.964424e+01  -2.272882e+01
   2.421976e+01  -5.552021e+00
  -1.686396e+01   4.656874e+00
  -2.282722e+01  -8.391339e-01
   1.405609e+01  -1.568564e+01
   5.230927e+01  -1.510140e+01
