
 $NMID
 id='ANONYMOUS ', fmtdat='(2E16.6)'
 volume=1.0
 tramp=1.0
 $END
   1.396997e+03   1.586414e+02
   1.079338e+03   7.936336e+02
   3.084894e+02   1.041026e+03
  -3.072047e+02   6.706508e+02
  -4.065008e+02   4.073771e+02
  -1.668280e+02   1.431795e+02
   4.455553e+01   8.672017e+01
  -7.325657e+01   2.841133e+02
  -1.259309e+02   1.709762e+02
  -2.702306e+02   4.762811e+01
  -2.763539e+02  -2.367139e+02
  -5.004582e+01  -2.513411e+02
   1.196470e+02  -8.175373e+01
   7.743036e+01   1.509588e+02
  -1.212952e+01   1.748097e+02
  -1.168757e+02   5.595557e+01
  -1.181138e+02  -1.803993e+02
   4.276338e+01  -2.477102e+02
   2.151667e+02  -1.819456e+02
   2.456617e+02   5.490108e+01
   9.327378e+01   1.882823e+02
  -4.513315e+01   1.364028e+02
  -4.380233e+00   7.969637e+01
   1.481890e+02   7.425224e+01
   9.935780e+01   1.811989e+02
  -7.054640e+01   1.558422e+02
  -2.290157e+02   4.920840e+01
  -2.619603e+02  -8.309446e+01
  -7.111055e+01  -1.304256e+02
   1.404113e+02  -5.095384e+01
   2.095364e+02   7.161050e+01
   7.236798e+01   1.669458e+02
  -1.314635e+02   1.785898e+02
  -2.265683e+02   7.264400e+01
  -1.789776e+02  -7.429854e+01
  -7.033216e+01  -1.410716e+02
  -2.870111e+01  -8.884807e+01
  -5.417186e+01   3.063172e+01
  -1.132773e+02   3.594951e+01
  -9.236479e+01  -1.320049e+02
   3.731436e+01  -2.602685e+02
   1.323237e+02  -2.138399e+02
   1.421121e+02   6.054922e+00
   5.687346e+01   1.454941e+02
  -4.640588e+01   5.698197e+01
  -6.220039e+01  -1.366929e+02
   6.020533e+01  -1.999765e+02
   2.184808e+02  -2.736853e+01
   2.502749e+02   1.948371e+02
   9.180817e+01   2.664150e+02
  -1.483144e+02   1.491856e+02
  -2.654890e+02  -1.997520e+01
  -1.856749e+02  -1.124361e+02
  -1.343446e+00  -1.071739e+02
   1.217806e+02  -6.130900e+01
   1.106883e+02  -1.794987e+01
   2.745324e+01   1.018782e+00
  -9.242616e+00  -3.414618e+00
   3.699567e+01  -9.363345e+00
   9.500048e+01   1.694640e+01
   6.408830e+01   8.148555e+01
  -6.657484e+01   1.302764e+02
  -1.861096e+02   8.811508e+01
  -1.645209e+02  -5.521739e+01
   1.925588e+00  -2.008403e+02
   1.751152e+02  -2.200062e+02
   2.155782e+02  -8.302803e+01
   1.230097e+02   9.909810e+01
   1.793187e+01   1.903888e+02
  -8.130090e+00   1.604355e+02
   1.355347e+01   9.521097e+01
  -6.814319e+00   7.413660e+01
  -8.801708e+01   7.692015e+01
  -1.572823e+02   2.926108e+01
  -1.384568e+02  -7.526517e+01
  -3.998461e+01  -1.438212e+02
   6.172676e+01  -9.639566e+01
   9.799432e+01   3.775965e+01
   5.501808e+01   1.395270e+02
  -4.013323e+01   1.252963e+02
  -1.309462e+02   1.454700e+01
  -1.532050e+02  -9.891538e+01
  -9.000592e+01  -1.509258e+02
   1.151221e+01  -1.338335e+02
   7.385790e+01  -9.041047e+01
   8.182737e+01  -6.047361e+01
   9.917053e+01  -4.473690e+01
   1.651319e+02  -1.954429e+01
   2.239216e+02   5.830637e+01
   1.678804e+02   1.629972e+02
  -1.493116e+01   2.389530e+02
  -2.067470e+02   2.202470e+02
  -2.586505e+02   9.402919e+01
  -1.501713e+02  -5.620625e+01
  -4.240774e+00  -1.304157e+02
   4.784844e+01  -9.397658e+01
  -5.121261e+00  -1.558105e+01
  -7.094000e+01   1.007291e+01
  -6.526040e+01  -3.219634e+01
   3.431260e+00  -7.195831e+01
   6.078253e+01  -4.263280e+01
   5.233173e+01   3.257960e+01
  -1.568280e+01   6.607040e+01
  -8.405460e+01  -2.264656e+00
  -8.295438e+01  -1.264737e+02
   4.764867e+00  -1.865658e+02
   1.314463e+02  -1.192926e+02
   2.012651e+02   3.053314e+01
   1.550713e+02   1.493938e+02
   2.908852e+01   1.570486e+02
  -7.315665e+01   7.627879e+01
  -7.805977e+01  -7.927970e-01
  -1.487569e+01  -8.114742e+00
   2.512996e+01   3.463264e+01
  -8.421492e+00   6.014336e+01
  -6.917075e+01   3.237325e+01
  -7.495294e+01  -1.562450e+01
  -9.710817e+00  -2.670924e+01
   5.081953e+01   1.199964e+01
   2.263879e+01   5.668569e+01
  -8.815110e+01   5.310166e+01
  -1.770425e+02  -1.175114e+01
  -1.474619e+02  -9.899869e+01
  -1.172192e+01  -1.493637e+02
   1.187269e+02  -1.272802e+02
   1.440427e+02  -4.918314e+01
   6.835687e+01   2.365353e+01
  -1.654076e+01   3.557559e+01
  -2.811743e+01  -7.948783e+00
   3.337910e+01  -4.263825e+01
   9.782864e+01  -1.478628e+01
   9.763083e+01   5.680898e+01
   2.984443e+01   9.929558e+01
  -4.540946e+01   7.052286e+01
  -6.411764e+01   6.749302e+00
  -2.014341e+01  -1.995694e+01
   2.777210e+01   1.505083e+01
   1.526675e+01   6.543327e+01
  -5.822904e+01   6.740752e+01
  -1.202129e+02   6.109956e+00
  -9.954643e+01  -7.415351e+01
  -4.463001e+00  -1.123692e+02
   8.380873e+01  -8.194717e+01
   9.210697e+01  -9.949802e+00
   2.952433e+01   4.649356e+01
  -3.203476e+01   5.024014e+01
  -3.586093e+01   1.368256e+01
   3.214577e+00  -1.445533e+01
   2.567242e+01  -5.032363e+00
  -2.210378e+00   1.766779e+01
  -5.148086e+01   6.583163e+00
  -6.242361e+01  -4.887219e+01
  -6.972466e+00  -9.868804e+01
   8.070447e+01  -8.588339e+01
   1.320142e+02  -4.275523e+00
   1.029369e+02   8.855479e+01
   1.912073e+01   1.237863e+02
  -5.346774e+01   8.627147e+01
  -6.885682e+01   1.782400e+01
  -4.180910e+01  -2.236344e+01
  -2.037250e+01  -1.519261e+01
  -3.121979e+01   8.359571e+00
  -4.999676e+01   4.833463e+00
  -3.482979e+01  -3.281014e+01
   1.991973e+01  -6.346686e+01
   7.133812e+01  -4.290542e+01
   6.437072e+01   2.537324e+01
  -9.433734e+00   7.652573e+01
  -9.345124e+01   5.099579e+01
  -1.151015e+02  -3.906763e+01
  -4.345156e+01  -1.196638e+02
   7.238975e+01  -1.214923e+02
   1.464912e+02  -4.299385e+01
   1.311960e+02   5.049189e+01
   5.214857e+01   9.187721e+01
  -2.053838e+01   7.421232e+01
  -4.572561e+01   4.259540e+01
  -3.557326e+01   3.763316e+01
  -3.045049e+01   5.331435e+01
  -4.980313e+01   4.619759e+01
  -7.352193e+01  -8.718635e+00
  -6.608546e+01  -8.480500e+01
  -1.379211e+01  -1.240373e+02
   5.583608e+01  -9.023284e+01
   9.237811e+01  -4.766824e+00
   6.710574e+01   6.986785e+01
   2.937345e+00   8.474791e+01
  -4.296705e+01   4.311459e+01
  -3.505823e+01  -1.010993e+01
   3.804198e+00  -3.304819e+01
   1.821652e+01  -2.252564e+01
  -1.285698e+01  -6.460108e+00
  -4.754419e+01  -8.568694e+00
  -2.850257e+01  -2.293436e+01
   4.433535e+01  -2.450448e+01
   1.029636e+02   7.385528e-01
   8.380211e+01   3.894648e+01
  -1.929165e+00   5.969979e+01
  -7.824727e+01   4.360131e+01
  -8.222978e+01   2.781656e+00
  -2.457037e+01  -2.931771e+01
   3.310400e+01  -2.547933e+01
   4.348896e+01   9.931640e+00
   1.226980e+01   4.188996e+01
  -2.357113e+01   3.818136e+01
  -3.845326e+01   2.624879e+00
  -3.405046e+01  -2.766317e+01
  -2.758429e+01  -2.403838e+01
  -3.036231e+01  -2.307929e-01
  -3.684357e+01   5.636212e-01
  -2.761026e+01  -3.967379e+01
   1.242120e+01  -8.602518e+01
   7.027054e+01  -8.386673e+01
   1.030775e+02  -2.193943e+01
   7.478518e+01   5.071941e+01
   1.799775e+00   7.567367e+01
  -5.170368e+01   4.218365e+01
  -3.521735e+01  -3.392592e+00
   3.120400e+01  -1.281161e+01
   7.334719e+01   1.994590e+01
   3.867125e+01   5.754586e+01
  -4.614616e+01   6.104098e+01
  -1.038705e+02   2.450662e+01
  -8.536133e+01  -2.372816e+01
  -1.610952e+01  -4.771871e+01
   3.534671e+01  -3.277834e+01
   2.638956e+01   2.432697e+00
  -2.180855e+01   1.854671e+01
  -5.066230e+01  -9.382358e+00
  -2.452312e+01  -6.262517e+01
   3.791229e+01  -8.695140e+01
   8.210194e+01  -4.283177e+01
   6.987744e+01   4.575236e+01
   1.343262e+01   1.031216e+02
  -4.188612e+01   7.621563e+01
  -5.701852e+01  -6.913322e+00
  -3.017010e+01  -6.684292e+01
   9.802875e+00  -5.676780e+01
   3.148909e+01  -7.883472e+00
   2.542565e+01   1.762530e+01
   8.018100e+00   4.104678e+00
   4.164166e+00  -8.205273e+00
   2.009383e+01   1.385426e+01
   3.409126e+01   5.089479e+01
   1.617095e+01   5.810343e+01
  -3.371046e+01   2.397837e+01
  -7.598675e+01  -1.860956e+01
  -6.773360e+01  -3.697924e+01
  -1.124739e+01  -3.030237e+01
   4.224708e+01  -1.618761e+01
   4.708816e+01  -3.912853e+00
   1.125935e+01   6.400859e+00
  -1.732271e+01   1.108041e+01
  -1.117150e+01   5.540725e+00
   7.384788e+00  -3.181292e+00
  -2.537084e-01  -2.091060e+00
  -3.429189e+01   3.290346e+00
  -5.159837e+01  -8.647733e+00
  -1.630438e+01  -4.302814e+01
   5.429753e+01  -6.767503e+01
   1.028210e+02  -4.276361e+01
   8.754470e+01   2.682034e+01
   2.224962e+01   8.720078e+01
  -4.173083e+01   8.975027e+01
  -6.377835e+01   4.058409e+01
  -4.501862e+01  -9.054973e+00
  -1.600715e+01  -2.162687e+01
  -3.389326e+00  -7.903740e+00
  -9.097914e+00  -5.031281e+00
  -1.713241e+01  -2.779016e+01
  -1.009457e+01  -5.123905e+01
   1.523776e+01  -4.090808e+01
   4.347360e+01   6.157019e+00
   4.725561e+01   5.346271e+01
   1.278627e+01   6.067508e+01
  -3.888923e+01   2.141108e+01
  -6.066193e+01  -3.101222e+01
  -2.676098e+01  -5.613001e+01
   3.325888e+01  -3.916808e+01
   5.949126e+01   8.461519e-01
   2.843108e+01   3.326145e+01
  -1.823824e+01   3.757457e+01
  -2.409219e+01   1.718395e+01
   1.239870e+01  -5.585567e+00
   3.785085e+01  -7.281085e+00
   1.230009e+01   1.538624e+01
  -4.157325e+01   3.848807e+01
  -6.704085e+01   3.137926e+01
  -4.136189e+01  -8.621694e+00
   5.230645e+00  -4.791450e+01
   3.095902e+01  -4.800255e+01
   2.567218e+01  -9.277916e+00
   5.981568e+00   2.859327e+01
  -1.155700e+01   2.885164e+01
  -2.061948e+01  -3.245572e+00
  -1.809815e+01  -2.941509e+01
  -1.719429e+00  -2.399386e+01
   1.851292e+01   1.159324e+00
   2.482944e+01   1.434281e+01
   1.200416e+01   3.274300e+00
  -3.994995e+00  -1.241261e+01
  -4.675030e+00  -7.455318e+00
   5.485220e+00   1.613104e+01
   5.266429e+00   3.083153e+01
  -1.238573e+01   1.649484e+01
  -2.665958e+01  -1.509195e+01
  -1.341361e+01  -3.149464e+01
   1.981598e+01  -1.655269e+01
   3.697860e+01   1.418471e+01
   1.371053e+01   3.103073e+01
  -3.119539e+01   2.148911e+01
  -5.300981e+01  -2.490840e+00
  -2.945351e+01  -2.210015e+01
   1.451111e+01  -2.759468e+01
   3.502455e+01  -1.997083e+01
   1.684383e+01  -5.999219e+00
  -1.254657e+01   3.561597e+00
  -1.600988e+01  -1.430003e-01
   1.123225e+01  -1.250179e+01
   3.889324e+01  -1.333935e+01
