
 $NMID
 id='ANONYMOUS ', fmtdat='(2E16.6)'
 volume=1.0
 tramp=1.0
 $END
   3.129564e+03   5.794869e+01
   2.096104e+03   1.726268e+03
   9.454802e+01   1.895550e+03
  -1.037542e+03   9.661951e+02
  -7.602297e+02   2.626592e+02
  -3.052032e+01  -4.283446e+01
   3.090587e+02   1.593861e+02
   2.292453e+01   4.380880e+02
  -3.907806e+02   4.690348e+02
  -4.977120e+02   6.689966e+01
  -4.197854e+02  -5.461415e+02
  -2.300504e+01  -5.864408e+02
   2.638906e+02  -1.060281e+02
   2.222088e+02   4.549214e+02
  -1.241660e+02   4.691582e+02
  -4.092041e+02   6.454157e+01
  -2.516241e+02  -5.126461e+02
   1.600803e+02  -5.265358e+02
   4.617399e+02  -2.414065e+02
   3.916351e+02   1.558674e+02
   1.051125e+02   3.118293e+02
  -1.339377e+02   2.207902e+02
  -5.777027e+01   8.404662e+01
   1.891074e+02   1.218299e+02
   2.859950e+02   2.488436e+02
  -6.868916e+01   3.162900e+02
  -4.748307e+02   1.660820e+02
  -6.268740e+02  -2.154109e+02
  -2.021858e+02  -3.678008e+02
   3.302888e+02  -2.118913e+02
   5.164462e+02   1.336105e+02
   2.111567e+02   3.695122e+02
  -2.578683e+02   3.543247e+02
  -4.621216e+02   1.277005e+02
  -3.268797e+02  -1.609332e+02
  -7.465054e+01  -3.171517e+02
   1.105897e+01  -1.695936e+02
  -3.697141e+01   9.465087e+01
  -1.916172e+02   1.677027e+02
  -1.954898e+02  -1.322459e+02
  -1.014152e+01  -4.994873e+02
   2.402338e+02  -4.409253e+02
   3.198033e+02  -3.490209e-01
   1.277381e+02   3.151623e+02
  -1.451956e+02   1.465455e+02
  -1.779335e+02  -2.657566e+02
   1.116351e+02  -3.932267e+02
   4.570563e+02  -5.239002e+01
   4.893883e+02   3.715113e+02
   1.540727e+02   5.022924e+02
  -3.094720e+02   2.771642e+02
  -5.263753e+02  -5.411845e+01
  -3.399017e+02  -2.510887e+02
   5.356446e+01  -2.340448e+02
   2.929542e+02  -9.064890e+01
   2.156445e+02   2.956948e+01
   5.307002e+00   2.769225e+01
  -4.851169e+01  -4.082730e+01
   1.047014e+02  -4.621662e+01
   2.321397e+02   5.953162e+01
   1.237622e+02   1.938199e+02
  -1.543076e+02   2.388129e+02
  -3.421055e+02   1.377096e+02
  -2.662526e+02  -8.130771e+01
   1.215441e+01  -3.036519e+02
   2.817937e+02  -3.613824e+02
   3.614615e+02  -1.667945e+02
   2.353515e+02   1.540980e+02
   4.654885e+01   3.534395e+02
  -4.826392e+01   3.143046e+02
  -3.342544e+01   1.681041e+02
  -3.080825e+01   9.701468e+01
  -1.236779e+02   1.024566e+02
  -2.386149e+02   4.482412e+01
  -2.385034e+02  -1.213431e+02
  -9.197736e+01  -2.497762e+02
   9.352354e+01  -1.877136e+02
   1.901586e+02   3.582830e+01
   1.340501e+02   2.302649e+02
  -4.680061e+01   2.412106e+02
  -2.385858e+02   6.178169e+01
  -2.943676e+02  -1.627280e+02
  -1.589331e+02  -2.932983e+02
   5.144988e+01  -2.686105e+02
   1.623056e+02  -1.594430e+02
   1.451024e+02  -7.583409e+01
   1.496654e+02  -5.564134e+01
   2.747440e+02  -2.455618e+01
   3.978370e+02   9.350351e+01
   3.055140e+02   2.874225e+02
  -2.172933e+01   4.213738e+02
  -3.724341e+02   3.869948e+02
  -4.681016e+02   1.720942e+02
  -2.849187e+02  -9.394355e+01
  -2.225502e+01  -2.455865e+02
   9.334409e+01  -1.977024e+02
   1.708538e+01  -3.930567e+01
  -1.096683e+02   4.085702e+01
  -1.253932e+02  -3.403425e+01
  -1.031877e+01  -1.381717e+02
   1.141520e+02  -9.993421e+01
   1.080659e+02   5.308617e+01
  -2.421554e+01   1.323357e+02
  -1.550723e+02   2.954046e+00
  -1.496209e+02  -2.257299e+02
   1.529861e+01  -3.291898e+02
   2.302515e+02  -2.018470e+02
   3.446553e+02   5.606181e+01
   2.715381e+02   2.511317e+02
   6.288149e+01   2.651553e+02
  -1.209827e+02   1.373439e+02
  -1.443543e+02   7.212405e+00
  -3.533898e+01  -1.113629e+01
   4.803595e+01   6.260808e+01
  -3.828391e+00   1.136737e+02
  -1.207945e+02   6.591601e+01
  -1.442451e+02  -2.668080e+01
  -3.258437e+01  -5.325020e+01
   7.783544e+01   1.482271e+01
   3.506870e+01   9.294064e+01
  -1.485606e+02   8.421791e+01
  -2.976503e+02  -2.660057e+01
  -2.514910e+02  -1.714940e+02
  -2.428016e+01  -2.586802e+02
   2.066386e+02  -2.273448e+02
   2.648933e+02  -9.314118e+01
   1.354112e+02   4.431805e+01
  -2.910886e+01   7.566539e+01
  -6.295039e+01  -3.758444e+00
   5.211441e+01  -7.594929e+01
   1.814650e+02  -3.028121e+01
   1.844294e+02   1.026040e+02
   5.440429e+01   1.834203e+02
  -8.768798e+01   1.320331e+02
  -1.225605e+02   1.633592e+01
  -4.427472e+01  -3.470800e+01
   4.208244e+01   2.209732e+01
   2.549566e+01   1.090210e+02
  -9.738364e+01   1.164929e+02
  -2.074148e+02   1.175380e+01
  -1.764220e+02  -1.337964e+02
  -8.003429e+00  -2.058418e+02
   1.535481e+02  -1.469171e+02
   1.698756e+02  -7.846057e+00
   5.358356e+01   9.617415e+01
  -6.091579e+01   9.529075e+01
  -7.001304e+01   2.282500e+01
  -2.512537e+00  -2.761627e+01
   3.665994e+01  -1.098474e+01
  -7.359869e+00   2.555136e+01
  -8.617622e+01   3.317530e+00
  -1.027820e+02  -8.875881e+01
  -9.728111e+00  -1.721788e+02
   1.400594e+02  -1.495317e+02
   2.339983e+02  -9.281382e+00
   1.867045e+02   1.555694e+02
   3.585663e+01   2.239523e+02
  -9.969746e+01   1.585483e+02
  -1.271788e+02   3.334862e+01
  -7.351435e+01  -4.241994e+01
  -3.419868e+01  -2.999218e+01
  -5.539575e+01   1.274437e+01
  -8.838067e+01   6.783072e+00
  -5.886562e+01  -5.687597e+01
   3.775862e+01  -1.050793e+02
   1.223873e+02  -6.978759e+01
   1.078779e+02   4.310526e+01
  -1.613009e+01   1.278068e+02
  -1.622148e+02   8.814280e+01
  -2.021118e+02  -6.649436e+01
  -8.022928e+01  -2.111385e+02
   1.260676e+02  -2.173128e+02
   2.644812e+02  -7.657925e+01
   2.392020e+02   9.364034e+01
   9.458895e+01   1.691169e+02
  -4.109479e+01   1.351168e+02
  -8.845964e+01   7.706555e+01
  -6.876621e+01   6.699855e+01
  -5.760707e+01   9.262232e+01
  -9.011788e+01   7.813353e+01
  -1.307040e+02  -1.903486e+01
  -1.159410e+02  -1.531432e+02
  -2.220322e+01  -2.219518e+02
   1.018718e+02  -1.610445e+02
   1.665415e+02  -7.833027e+00
   1.207798e+02   1.256949e+02
   6.722103e+00   1.514241e+02
  -7.463085e+01   7.728253e+01
  -6.144521e+01  -1.415251e+01
   4.242588e+00  -5.162163e+01
   2.716128e+01  -3.531330e+01
  -2.612719e+01  -1.351783e+01
  -8.339837e+01  -2.005305e+01
  -4.906625e+01  -4.164672e+01
   7.470806e+01  -3.935351e+01
   1.750222e+02   4.900016e+00
   1.438339e+02   6.740829e+01
  -2.842201e+00   9.977993e+01
  -1.360315e+02   7.189409e+01
  -1.450168e+02   2.840893e+00
  -4.339771e+01  -5.043948e+01
   5.903472e+01  -4.169985e+01
   7.593357e+01   1.952055e+01
   1.713795e+01   7.313392e+01
  -4.700563e+01   6.421969e+01
  -6.922601e+01   1.083149e+00
  -5.810117e+01  -5.203897e+01
  -4.749668e+01  -4.523295e+01
  -5.409858e+01  -3.824355e+00
  -6.271567e+01  -3.065956e+00
  -4.156558e+01  -7.261830e+01
   2.958354e+01  -1.505304e+02
   1.268413e+02  -1.418581e+02
   1.793050e+02  -2.982687e+01
   1.283447e+02   9.625357e+01
   7.681338e-01   1.326524e+02
  -9.280733e+01   6.883823e+01
  -6.302994e+01  -1.065661e+01
   5.533212e+01  -2.012374e+01
   1.304578e+02   4.204007e+01
   6.823807e+01   1.052371e+02
  -8.320147e+01   1.055882e+02
  -1.864159e+02   3.923251e+01
  -1.529665e+02  -4.338097e+01
  -2.790601e+01  -8.359186e+01
   6.484978e+01  -5.740467e+01
   4.767984e+01   3.263325e+00
  -4.054556e+01   3.064920e+01
  -9.165747e+01  -1.992497e+01
  -3.901631e+01  -1.135248e+02
   7.786353e+01  -1.526087e+02
   1.537422e+02  -6.914947e+01
   1.226619e+02   8.952957e+01
   1.450672e+01   1.883408e+02
  -8.168804e+01   1.369051e+02
  -1.018965e+02  -1.336705e+01
  -5.229375e+01  -1.205233e+02
   1.518092e+01  -1.021947e+02
   5.185940e+01  -1.390196e+01
   4.444511e+01   3.271915e+01
   1.710206e+01   7.734748e+00
   7.285577e+00  -1.698222e+01
   3.130931e+01   2.192280e+01
   5.634304e+01   9.049453e+01
   2.927504e+01   1.050992e+02
  -5.708391e+01   4.176946e+01
  -1.338044e+02  -3.855931e+01
  -1.199546e+02  -7.051415e+01
  -1.749201e+01  -5.308069e+01
   7.924113e+01  -2.415243e+01
   8.518689e+01  -4.254061e+00
   1.787276e+01   1.126141e+01
  -3.315866e+01   1.994635e+01
  -1.875570e+01   1.222805e+01
   1.463888e+01  -2.951991e+00
  -2.815365e+00  -4.286587e+00
  -6.571888e+01   1.790145e+00
  -9.161729e+01  -2.110942e+01
  -2.096400e+01  -7.972769e+01
   1.069146e+02  -1.163156e+02
   1.866409e+02  -6.481901e+01
   1.503243e+02   5.962421e+01
   2.952843e+01   1.597696e+02
  -8.234608e+01   1.548068e+02
  -1.170165e+02   6.406087e+01
  -7.975234e+01  -2.102558e+01
  -2.616634e+01  -3.874570e+01
  -3.319367e+00  -1.278152e+01
  -1.489005e+01  -8.064742e+00
  -3.030916e+01  -4.943519e+01
  -1.677508e+01  -9.134859e+01
   2.965908e+01  -7.137369e+01
   7.746174e+01   1.539488e+01
   7.899362e+01   1.008431e+02
   1.407334e+01   1.088941e+02
  -7.393338e+01   3.144833e+01
  -1.049008e+02  -6.404787e+01
  -4.022069e+01  -1.018512e+02
   6.333824e+01  -6.393795e+01
   1.033717e+02   7.443754e+00
   4.542932e+01   5.779014e+01
  -3.429047e+01   6.163609e+01
  -3.992587e+01   2.940654e+01
   2.598319e+01  -5.802753e+00
   6.768844e+01  -8.435520e+00
   1.752395e+01   2.794845e+01
  -7.918933e+01   6.564568e+01
  -1.213802e+02   5.263597e+01
  -7.126804e+01  -1.734489e+01
   1.359332e+01  -8.506611e+01
   5.753306e+01  -8.271300e+01
   4.364285e+01  -1.271885e+01
   5.601027e+00   5.199297e+01
  -2.442416e+01   4.749328e+01
  -3.618200e+01  -1.076888e+01
  -2.786161e+01  -5.417448e+01
  -1.125029e-01  -3.998433e+01
   3.172883e+01   4.573541e+00
   4.127108e+01   2.436914e+01
   2.166791e+01   3.389543e+00
  -2.551423e+00  -2.117050e+01
  -5.839820e+00  -8.704259e+00
   4.170545e+00   3.217596e+01
  -2.941539e-01   5.264164e+01
  -2.595191e+01   2.221373e+01
  -4.095687e+01  -3.422649e+01
  -1.413482e+01  -5.851573e+01
   3.904043e+01  -2.547971e+01
   6.248021e+01   3.195137e+01
   1.991816e+01   5.845588e+01
  -5.682979e+01   3.494336e+01
  -9.309874e+01  -1.129631e+01
  -5.042630e+01  -4.262590e+01
   2.918916e+01  -4.565105e+01
   6.543278e+01  -2.916513e+01
   2.905506e+01  -7.850500e+00
  -2.775086e+01   3.441742e+00
  -3.254297e+01  -5.521832e+00
   2.353333e+01  -2.433494e+01
   7.694878e+01  -2.052439e+01
