
 $NMID
 id='ANONYMOUS ', fmtdat='(2E16.6)'
 volume=1.0
 tramp=1.0
 $END
  -2.671440e+03   1.799850e+02
  -2.105042e+03  -1.719319e+03
   7.734222e+01  -2.039453e+03
   8.943626e+02  -9.187029e+02
   9.386949e+02  -7.988944e+01
   1.534203e+01   2.047324e+02
  -3.924423e+02  -1.363812e+02
  -6.756395e+01  -4.370169e+02
   4.295191e+02  -3.614473e+02
   5.487031e+02  -8.341703e+01
   4.919734e+02   4.703182e+02
   5.411143e+00   6.432479e+02
  -4.049104e+02   1.464475e+02
  -2.695451e+02  -3.423483e+02
   1.121395e+02  -5.273408e+02
   4.499853e+02  -6.354414e+01
   2.702525e+02   4.937096e+02
  -1.573908e+02   5.719760e+02
  -4.535099e+02   2.075687e+02
  -3.865579e+02  -1.859049e+02
  -9.335108e+01  -3.314396e+02
   1.196373e+02  -2.421733e+02
   6.932803e+01  -6.642360e+01
  -1.726775e+02  -2.975195e+01
  -2.748960e+02  -2.184889e+02
   2.340753e+00  -3.794626e+02
   4.384207e+02  -1.622751e+02
   5.588730e+02   1.449536e+02
   2.106688e+02   3.585467e+02
  -3.041889e+02   2.307843e+02
  -4.856399e+02  -1.126995e+02
  -2.036628e+02  -3.431442e+02
   2.321736e+02  -3.444412e+02
   4.227856e+02  -1.162920e+02
   3.023743e+02   1.524132e+02
   6.903776e+01   2.907166e+02
  -5.248362e+01   1.744113e+02
   2.541502e+01  -1.121177e+02
   1.664463e+02  -1.486381e+02
   2.101518e+02   1.219636e+02
   3.970264e+01   4.680591e+02
  -2.319784e+02   4.380977e+02
  -3.279337e+02   6.267952e+00
  -1.211100e+02  -3.159467e+02
   1.584814e+02  -1.472957e+02
   1.825462e+02   2.522215e+02
  -1.019488e+02   3.648915e+02
  -4.213090e+02   5.232322e+01
  -4.510757e+02  -3.491799e+02
  -1.327055e+02  -4.603280e+02
   2.952098e+02  -2.554575e+02
   4.953268e+02   6.055474e+01
   3.156274e+02   2.479473e+02
  -6.071046e+01   2.329834e+02
  -2.887910e+02   8.371431e+01
  -2.061715e+02  -4.738272e+01
   4.958558e+00  -3.854673e+01
   5.083679e+01   5.425355e+01
  -1.092612e+02   6.989313e+01
  -2.299897e+02  -5.657362e+01
  -1.102312e+02  -2.106311e+02
   1.611451e+02  -2.385923e+02
   3.225789e+02  -1.050843e+02
   2.278194e+02   1.079220e+02
  -3.830377e+01   2.816637e+02
  -2.738257e+02   3.057572e+02
  -3.294142e+02   1.304947e+02
  -2.069881e+02  -1.496415e+02
  -3.629119e+01  -3.295324e+02
   4.334703e+01  -2.943811e+02
   2.754883e+01  -1.545497e+02
   2.899601e+01  -8.910555e+01
   1.206185e+02  -1.047106e+02
   2.276045e+02  -5.710694e+01
   2.245465e+02   1.067752e+02
   8.412732e+01   2.380360e+02
  -8.898059e+01   1.763998e+02
  -1.743485e+02  -4.018126e+01
  -1.218692e+02  -2.283009e+02
   4.682967e+01  -2.314372e+02
   2.288922e+02  -5.636734e+01
   2.860604e+02   1.590919e+02
   1.534394e+02   2.752515e+02
  -5.728707e+01   2.423259e+02
  -1.657543e+02   1.335036e+02
  -1.384701e+02   5.967336e+01
  -1.283768e+02   5.037169e+01
  -2.431570e+02   2.405738e+01
  -3.669279e+02  -9.860169e+01
  -2.828906e+02  -2.814039e+02
   3.974605e+01  -3.925063e+02
   3.541090e+02  -3.446888e+02
   4.335203e+02  -1.486172e+02
   2.577901e+02   8.814522e+01
   1.781998e+01   2.226390e+02
  -8.389365e+01   1.834423e+02
  -1.487835e+01   3.952142e+01
   1.049107e+02  -3.889609e+01
   1.230323e+02   2.787554e+01
   1.260578e+01   1.310438e+02
  -1.078550e+02   1.044306e+02
  -1.074881e+02  -4.385551e+01
   2.473965e+01  -1.227044e+02
   1.448952e+02  -1.394219e+00
   1.274072e+02   2.180725e+02
  -3.579657e+01   3.097979e+02
  -2.311500e+02   1.719883e+02
  -3.202468e+02  -8.193939e+01
  -2.376805e+02  -2.569577e+02
  -4.072956e+01  -2.518752e+02
   1.252593e+02  -1.213786e+02
   1.422334e+02  -2.687096e-01
   3.644546e+01   1.496592e+01
  -4.392370e+01  -5.416623e+01
   3.836203e+00  -1.025025e+02
   1.132338e+02  -6.041204e+01
   1.347167e+02   2.579370e+01
   3.082304e+01   5.324651e+01
  -7.126831e+01  -7.885701e+00
  -3.165301e+01  -8.198841e+01
   1.352501e+02  -7.557730e+01
   2.683461e+02   2.635328e+01
   2.243361e+02   1.600869e+02
   1.784256e+01   2.381330e+02
  -1.919582e+02   2.070993e+02
  -2.446349e+02   8.162656e+01
  -1.260821e+02  -4.530786e+01
   2.672068e+01  -7.339723e+01
   5.878807e+01   2.274371e+00
  -4.773173e+01   6.980315e+01
  -1.666048e+02   2.608905e+01
  -1.668478e+02  -9.734906e+01
  -4.563699e+01  -1.706714e+02
   8.419286e+01  -1.212821e+02
   1.144485e+02  -1.419922e+01
   4.330730e+01   3.232847e+01
  -3.377125e+01  -1.936648e+01
  -1.838191e+01  -9.583346e+01
   9.126358e+01  -1.000986e+02
   1.888137e+02  -3.719532e+00
   1.581744e+02   1.269588e+02
   1.712357e+00   1.893014e+02
  -1.466323e+02   1.318427e+02
  -1.581946e+02   3.858914e+00
  -4.554806e+01  -8.997519e+01
   6.116174e+01  -8.630367e+01
   6.492436e+01  -2.066724e+01
  -6.856949e-01   2.306179e+01
  -3.399091e+01   7.516115e+00
   1.116363e+01  -2.213570e+01
   8.244614e+01   2.597245e+00
   9.136086e+01   8.725719e+01
   1.476524e+00   1.571211e+02
  -1.349170e+02   1.293191e+02
  -2.124344e+02  -1.299088e+00
  -1.643236e+02  -1.494311e+02
  -2.227202e+01  -2.053881e+02
   9.879339e+01  -1.386530e+02
   1.181724e+02  -2.173044e+01
   6.476041e+01   4.520041e+01
   2.880108e+01   3.009192e+01
   5.007881e+01  -1.005567e+01
   7.825319e+01  -4.623886e+00
   4.679470e+01   5.183341e+01
  -4.096769e+01   9.336780e+01
  -1.125306e+02   5.527582e+01
  -9.088208e+01  -4.386479e+01
   2.308829e+01  -1.155853e+02
   1.518619e+02  -7.391313e+01
   1.839322e+02   6.797075e+01
   6.855917e+01   1.956379e+02
  -1.227863e+02   1.945799e+02
  -2.475333e+02   6.273797e+01
  -2.188218e+02  -9.094401e+01
  -8.200814e+01  -1.567235e+02
   4.353747e+01  -1.239891e+02
   8.367662e+01  -6.991376e+01
   6.503172e+01  -6.137452e+01
   5.488491e+01  -8.374855e+01
   8.451372e+01  -6.921551e+01
   1.188186e+02   2.070685e+01
   1.027126e+02   1.432305e+02
   1.711712e+01   2.045464e+02
  -9.485424e+01   1.472623e+02
  -1.525335e+02   4.862878e+00
  -1.095149e+02  -1.182589e+02
  -4.035192e+00  -1.396300e+02
   6.886703e+01  -6.833161e+01
   5.386860e+01   1.600088e+01
  -7.208705e+00   4.742093e+01
  -2.586489e+01   2.935417e+01
   2.515237e+01   9.701599e+00
   7.639084e+01   1.837997e+01
   4.362212e+01   3.817935e+01
  -6.785562e+01   3.326140e+01
  -1.560842e+02  -8.323634e+00
  -1.268056e+02  -6.205269e+01
   4.784152e+00  -8.714706e+01
   1.236240e+02  -6.064021e+01
   1.301400e+02  -1.534646e-01
   3.679276e+01   4.600571e+01
  -5.687760e+01   3.689581e+01
  -7.027889e+01  -1.980465e+01
  -1.363647e+01  -6.902224e+01
   4.578022e+01  -5.958375e+01
   6.357010e+01  -4.235333e-02
   5.094758e+01   4.935781e+01
   4.156643e+01   4.201548e+01
   4.985156e+01   2.778751e+00
   5.873231e+01   1.902597e+00
   3.757503e+01   6.690323e+01
  -2.946169e+01   1.381721e+02
  -1.176958e+02   1.283797e+02
  -1.628748e+02   2.386548e+01
  -1.138786e+02  -9.082732e+01
   2.826228e+00  -1.206078e+02
   8.565160e+01  -5.858332e+01
   5.560105e+01   1.355741e+01
  -5.350948e+01   1.858798e+01
  -1.196204e+02  -4.041826e+01
  -6.106236e+01  -9.826801e+01
   7.726902e+01  -9.745392e+01
   1.704699e+02  -3.645383e+01
   1.397528e+02   3.943773e+01
   2.673428e+01   7.736939e+01
  -5.716967e+01   5.436039e+01
  -4.205121e+01  -9.428493e-01
   3.758029e+01  -2.630131e+01
   8.265700e+01   1.986460e+01
   3.229922e+01   1.053030e+02
  -7.609323e+01   1.391571e+02
  -1.440059e+02   6.017179e+01
  -1.109969e+02  -8.557179e+01
  -8.761203e+00  -1.736330e+02
   7.793509e+01  -1.231701e+02
   9.226086e+01   1.462715e+01
   4.483868e+01   1.099830e+02
  -1.499040e+01   9.081284e+01
  -4.646967e+01   1.071544e+01
  -3.962963e+01  -3.011386e+01
  -1.478172e+01  -6.563168e+00
  -5.254749e+00   1.533403e+01
  -2.557632e+01  -2.040425e+01
  -4.877336e+01  -8.169362e+01
  -2.603570e+01  -9.347022e+01
   5.100333e+01  -3.550549e+01
   1.207284e+02   3.650155e+01
   1.079009e+02   6.467241e+01
   1.412281e+01   4.861960e+01
  -7.345659e+01   2.182732e+01
  -7.687929e+01   2.323715e+00
  -1.352685e+01  -1.237070e+01
   3.278368e+01  -1.900865e+01
   1.819377e+01  -9.549484e+00
  -1.343270e+01   5.411656e+00
   2.407460e+00   6.193253e+00
   5.996691e+01   9.447793e-01
   8.279600e+01   2.278749e+01
   1.667447e+01   7.556319e+01
  -1.010776e+02   1.051994e+02
  -1.728484e+02   5.435575e+01
  -1.375702e+02  -5.884025e+01
  -2.544625e+01  -1.458484e+02
   7.707051e+01  -1.377325e+02
   1.081651e+02  -5.547486e+01
   7.292900e+01   1.989365e+01
   2.246990e+01   3.543534e+01
   6.581368e-01   1.256390e+01
   1.098896e+01   8.136228e+00
   2.556278e+01   4.399846e+01
   1.421976e+01   8.106447e+01
  -2.733893e+01   6.349672e+01
  -6.999586e+01  -1.469607e+01
  -6.993471e+01  -9.263905e+01
  -1.062563e+01  -9.984624e+01
   6.834195e+01  -2.783812e+01
   9.401206e+01   6.058038e+01
   3.393808e+01   9.353180e+01
  -5.883480e+01   5.623098e+01
  -9.248826e+01  -9.789052e+00
  -3.849873e+01  -5.330864e+01
   3.343229e+01  -5.374348e+01
   3.704817e+01  -2.346365e+01
  -2.413997e+01   6.744225e+00
  -6.204744e+01   7.811958e+00
  -1.645702e+01  -2.465423e+01
   7.079377e+01  -5.713890e+01
   1.078120e+02  -4.472481e+01
   6.185726e+01   1.737951e+01
  -1.461172e+01   7.571690e+01
  -5.386718e+01   7.142014e+01
  -4.078523e+01   8.506314e+00
  -5.602781e+00  -4.787863e+01
   2.265511e+01  -4.223900e+01
   3.428006e+01   1.051256e+01
   2.525819e+01   4.852994e+01
  -2.251112e+00   3.493857e+01
  -3.093084e+01  -5.522589e+00
  -3.694671e+01  -2.371051e+01
  -1.763776e+01  -5.042774e+00
   3.517357e+00   1.736272e+01
   5.331567e+00   7.195587e+00
  -2.713668e+00  -2.914203e+01
   3.700214e+00  -4.765162e+01
   2.603939e+01  -1.884574e+01
   3.588040e+01   3.340825e+01
   8.768303e+00   5.517039e+01
  -3.768289e+01   2.213573e+01
  -5.506300e+01  -3.244441e+01
  -1.497728e+01  -5.600242e+01
   5.297665e+01  -3.123393e+01
   8.406752e+01   1.357387e+01
   4.474967e+01   4.149302e+01
  -2.733495e+01   4.117877e+01
  -6.028670e+01   2.378945e+01
  -2.642697e+01   4.588179e+00
   2.623311e+01  -3.512186e+00
   3.100361e+01   6.582458e+00
  -2.089335e+01   2.357307e+01
  -7.120155e+01   1.830455e+01
