
 $NMID
 id='ANONYMOUS ', fmtdat='(2E16.6)'
 volume=1.0
 tramp=1.0
 $END
  -3.836711e+03   3.873824e+02
  -2.522926e+03  -2.677554e+03
   6.971304e+02  -2.706679e+03
   2.027493e+03  -9.068301e+02
   9.326128e+02   6.095385e+02
  -6.396595e+02   5.321306e+02
  -8.819358e+02  -4.805906e+02
  -4.271473e+01  -9.407993e+02
   8.643596e+02  -7.303398e+02
   8.371277e+02  -2.650835e+01
   4.332345e+02   7.606851e+02
  -1.631973e+02   8.535571e+02
  -5.797067e+02   1.786297e+02
  -3.856033e+02  -6.796499e+02
   2.703603e+02  -7.312763e+02
   6.113072e+02   4.031808e+01
   2.515442e+02   6.892012e+02
  -3.363219e+02   5.427440e+02
  -5.644496e+02   7.069673e+01
  -3.496533e+02  -3.841924e+02
  -2.476729e+01  -4.136854e+02
   2.423977e+02  -2.058459e+02
   2.128267e+02   1.679975e+01
  -1.029147e+02   1.017988e+02
  -3.963999e+02  -1.118307e+02
  -2.228786e+02  -4.278810e+02
   4.201609e+02  -4.008116e+02
   8.435184e+02   7.524171e+01
   4.286509e+02   5.497148e+02
  -4.142883e+02   4.537428e+02
  -7.417480e+02  -5.546830e+01
  -3.314490e+02  -4.876628e+02
   2.906781e+02  -5.034936e+02
   5.682797e+02  -1.966150e+02
   4.107312e+02   2.268153e+02
   8.075939e+01   4.758897e+02
  -1.945948e+02   2.960769e+02
  -1.704626e+02  -2.281614e+02
   1.901559e+02  -4.610255e+02
   4.696590e+02   1.529824e+01
   2.573725e+02   7.000595e+02
  -3.318309e+02   7.241877e+02
  -6.284711e+02   2.582213e+00
  -2.727901e+02  -5.701310e+02
   3.072612e+02  -3.465751e+02
   4.008488e+02   3.043562e+02
  -5.564480e+01   5.603440e+02
  -5.545623e+02   1.484124e+02
  -5.993829e+02  -4.072733e+02
  -1.652488e+02  -5.944121e+02
   3.882482e+02  -3.573098e+02
   6.386548e+02   6.612372e+01
   3.851724e+02   3.882918e+02
  -1.487848e+02   3.736578e+02
  -4.368258e+02   5.925716e+01
  -2.310657e+02  -1.988594e+02
   1.239802e+02  -1.034569e+02
   1.345915e+02   1.647058e+02
  -1.769619e+02   1.901977e+02
  -3.419657e+02  -8.517387e+01
  -1.218971e+02  -3.082441e+02
   2.117886e+02  -2.461756e+02
   3.129093e+02  -5.094941e+01
   1.726554e+02   8.521328e+01
  -2.887470e+01   1.950210e+02
  -2.055388e+02   2.948488e+02
  -3.239812e+02   2.052696e+02
  -2.853421e+02  -1.408248e+02
  -6.682211e+01  -4.400515e+02
   1.389390e+02  -3.768591e+02
   1.391164e+02  -8.779739e+01
   2.145861e+01   3.546742e+01
   2.509622e+01  -8.660939e+01
   1.821691e+02  -1.491536e+02
   2.783837e+02   3.977422e+01
   1.631346e+02   2.744997e+02
  -7.008836e+01   2.661413e+02
  -2.242999e+02   1.169836e+01
  -1.906806e+02  -2.435210e+02
   1.249520e+01  -2.927330e+02
   2.579050e+02  -1.132488e+02
   3.484214e+02   1.651128e+02
   1.828222e+02   3.483998e+02
  -9.731528e+01   2.999708e+02
  -2.270694e+02   1.123117e+02
  -1.501825e+02  -7.476884e+00
  -9.214431e+01   2.510672e+01
  -2.129582e+02   6.433780e+01
  -3.733787e+02  -4.941946e+01
  -3.158143e+02  -2.705879e+02
  -1.232851e+00  -4.240821e+02
   3.426094e+02  -3.955600e+02
   4.741625e+02  -1.892725e+02
   3.308501e+02   9.563718e+01
   5.423223e+01   2.873737e+02
  -1.355897e+02   2.462768e+02
  -8.920911e+01   2.837364e+01
   1.090803e+02  -1.067644e+02
   2.031441e+02   7.808365e+00
   5.466668e+01   1.969351e+02
  -1.648405e+02   1.728886e+02
  -1.882118e+02  -5.910969e+01
   8.590337e+00  -1.932998e+02
   1.866883e+02  -3.471200e+01
   1.539105e+02   2.378268e+02
  -3.558602e+01   3.307429e+02
  -2.219135e+02   1.737280e+02
  -3.060772e+02  -7.009930e+01
  -2.601516e+02  -2.330897e+02
  -8.650970e+01  -2.542987e+02
   1.156869e+02  -1.544214e+02
   1.768940e+02  -1.572664e+01
   5.635551e+01   3.982182e+01
  -7.324388e+01  -3.248830e+01
  -3.176829e+01  -1.250798e+02
   1.231598e+02  -1.034335e+02
   1.786628e+02   1.114328e+01
   5.892976e+01   7.518082e+01
  -7.825120e+01   2.044697e+01
  -5.520391e+01  -6.828389e+01
   1.162822e+02  -7.934691e+01
   2.665006e+02   5.658357e+00
   2.486919e+02   1.355780e+02
   5.482647e+01   2.407742e+02
  -1.798033e+02   2.455587e+02
  -2.772944e+02   1.186296e+02
  -1.672987e+02  -5.308185e+01
   2.534728e+01  -1.106231e+02
   9.357535e+01  -1.087090e+01
  -2.733965e+01   9.904038e+01
  -1.891139e+02   5.912504e+01
  -2.075419e+02  -1.006610e+02
  -6.544626e+01  -2.052799e+02
   9.634982e+01  -1.555468e+02
   1.456039e+02  -2.700556e+01
   7.314979e+01   4.536813e+01
  -2.606845e+01   1.006335e+01
  -3.954718e+01  -7.299836e+01
   6.254732e+01  -1.054574e+02
   1.856336e+02  -2.963465e+01
   1.825095e+02   1.153264e+02
   1.937486e+01   2.077260e+02
  -1.609175e+02   1.562416e+02
  -1.884645e+02   2.341990e+00
  -6.101238e+01  -1.150977e+02
   6.880543e+01  -1.099963e+02
   8.472640e+01  -2.819956e+01
   2.094660e+01   2.805894e+01
  -1.982858e+01   2.162223e+01
   6.648523e+00  -5.094710e+00
   6.223807e+01   7.542224e+00
   8.149181e+01   7.367311e+01
   1.809726e+01   1.466751e+02
  -1.147538e+02   1.454083e+02
  -2.211020e+02   2.849437e+01
  -1.949720e+02  -1.409426e+02
  -4.062218e+01  -2.276330e+02
   1.060739e+02  -1.635355e+02
   1.315637e+02  -2.512069e+01
   6.627476e+01   5.482136e+01
   2.621982e+01   3.497248e+01
   5.177734e+01  -1.132223e+01
   7.601849e+01  -4.848541e+00
   3.783433e+01   4.647548e+01
  -4.006076e+01   8.059065e+01
  -9.309342e+01   5.114959e+01
  -7.660143e+01  -3.031661e+01
   1.059343e+01  -9.672675e+01
   1.256040e+02  -7.727698e+01
   1.791339e+02   4.423339e+01
   9.317203e+01   1.827730e+02
  -9.813629e+01   2.112166e+02
  -2.506352e+02   8.944690e+01
  -2.429368e+02  -8.163125e+01
  -1.012782e+02  -1.689517e+02
   3.873967e+01  -1.404231e+02
   9.107683e+01  -7.784470e+01
   7.710871e+01  -6.331193e+01
   6.550138e+01  -8.462769e+01
   8.731456e+01  -6.963581e+01
   1.185136e+02   2.204704e+01
   1.083942e+02   1.479324e+02
   2.735598e+01   2.151209e+02
  -9.353562e+01   1.621180e+02
  -1.670295e+02   1.758887e+01
  -1.306744e+02  -1.159300e+02
  -1.909962e+01  -1.506383e+02
   6.330943e+01  -8.835077e+01
   5.651736e+01  -3.542908e+00
   5.707539e+00   3.773055e+01
  -6.870403e+00   3.267789e+01
   3.729128e+01   1.947276e+01
   7.569515e+01   2.420429e+01
   4.126057e+01   3.836476e+01
  -6.147443e+01   3.685372e+01
  -1.507474e+02   4.240860e+00
  -1.378338e+02  -4.874292e+01
  -1.693844e+01  -8.535347e+01
   1.137093e+02  -7.093777e+01
   1.387483e+02  -1.235614e+01
   4.710579e+01   3.836138e+01
  -5.694574e+01   3.346375e+01
  -7.132088e+01  -1.908530e+01
  -5.445520e+00  -6.244432e+01
   5.454407e+01  -5.052617e+01
   5.975025e+01   4.370688e+00
   4.008911e+01   4.721281e+01
   3.972577e+01   3.962255e+01
   5.737978e+01   3.701725e+00
   6.168081e+01   2.202576e+00
   3.157871e+01   6.331090e+01
  -3.198454e+01   1.363290e+02
  -1.090718e+02   1.330658e+02
  -1.537939e+02   3.216899e+01
  -1.159820e+02  -8.526846e+01
  -7.250341e+00  -1.187549e+02
   7.967103e+01  -5.750859e+01
   5.539132e+01   1.450336e+01
  -5.627441e+01   1.811415e+01
  -1.298763e+02  -4.281606e+01
  -7.091272e+01  -1.023982e+02
   7.786407e+01  -1.060169e+02
   1.823895e+02  -4.836239e+01
   1.549056e+02   3.284021e+01
   3.526016e+01   8.320453e+01
  -5.857909e+01   6.833631e+01
  -4.725329e+01   8.964547e+00
   3.585451e+01  -2.392348e+01
   8.431362e+01   2.197025e+01
   2.838114e+01   1.117523e+02
  -8.992420e+01   1.437502e+02
  -1.600738e+02   5.554199e+01
  -1.184276e+02  -9.822125e+01
  -6.270227e+00  -1.889500e+02
   8.438731e+01  -1.369518e+02
   1.010781e+02   7.120771e+00
   5.815457e+01   1.135514e+02
  -1.391360e+00   1.027874e+02
  -4.324817e+01   1.942313e+01
  -4.922312e+01  -3.065126e+01
  -2.462716e+01  -8.346733e+00
  -4.131101e+00   2.162691e+01
  -1.986615e+01  -1.236590e+01
  -5.290001e+01  -8.505120e+01
  -3.925524e+01  -1.070910e+02
   4.562555e+01  -4.437256e+01
   1.326289e+02   3.935030e+01
   1.238218e+02   7.047727e+01
   1.589398e+01   4.820645e+01
  -8.462899e+01   1.996747e+01
  -8.420966e+01   6.348018e+00
  -9.445082e+00  -6.916976e+00
   3.751256e+01  -2.098880e+01
   1.322736e+01  -1.732119e+01
  -2.133467e+01   1.587269e+00
   4.849426e+00   8.974472e+00
   7.074305e+01   3.509038e+00
   8.715788e+01   2.190852e+01
   7.422324e+00   7.615020e+01
  -1.133445e+02   1.088600e+02
  -1.763479e+02   5.493619e+01
  -1.340936e+02  -6.633085e+01
  -2.396694e+01  -1.560274e+02
   7.520915e+01  -1.423241e+02
   1.089706e+02  -5.367181e+01
   7.711435e+01   2.146473e+01
   2.377513e+01   3.231884e+01
  -3.153742e+00   5.892808e+00
   9.996012e+00   2.566222e+00
   3.301680e+01   4.352960e+01
   2.275787e+01   8.618970e+01
  -2.789879e+01   6.808036e+01
  -7.739852e+01  -1.854356e+01
  -7.157281e+01  -1.038553e+02
  -7.182667e-01  -1.060308e+02
   8.022924e+01  -2.059552e+01
   9.665332e+01   7.342709e+01
   2.788499e+01   9.808107e+01
  -6.400236e+01   5.091483e+01
  -9.100066e+01  -1.208750e+01
  -3.460922e+01  -4.631564e+01
   3.196347e+01  -4.640843e+01
   2.815361e+01  -2.563171e+01
  -3.486728e+01  -8.424859e-01
  -6.696677e+01   4.449696e+00
  -1.345174e+01  -2.469474e+01
   7.674781e+01  -6.261046e+01
   1.103959e+02  -5.529997e+01
   5.984259e+01   1.174173e+01
  -1.595639e+01   7.859659e+01
  -4.988430e+01   7.390417e+01
  -3.316571e+01   3.333547e+00
   9.147972e-01  -5.364076e+01
   2.549929e+01  -3.892244e+01
   3.418583e+01   1.993446e+01
   2.422499e+01   5.228676e+01
  -3.385865e+00   3.012510e+01
  -3.109253e+01  -9.422377e+00
  -3.657207e+01  -2.003744e+01
  -1.843577e+01  -3.398767e-01
   9.130718e-01   1.336154e+01
   6.164551e+00  -3.336383e+00
   7.015489e+00  -3.471237e+01
   1.726172e+01  -4.073168e+01
   3.132103e+01  -4.890506e+00
   2.747262e+01   4.418578e+01
  -4.040657e+00   5.786484e+01
  -4.363162e+01   1.857007e+01
  -5.352997e+01  -3.813859e+01
  -1.355056e+01  -6.003130e+01
   5.139285e+01  -3.186984e+01
   8.308996e+01   1.501526e+01
   4.587188e+01   4.130244e+01
  -2.739449e+01   3.702949e+01
  -6.096269e+01   1.820356e+01
  -2.160478e+01   3.288640e+00
   3.728643e+01   2.714256e+00
   3.675443e+01   1.704090e+01
  -2.998509e+01   3.101592e+01
  -8.846372e+01   1.810777e+01
