
 $NMID
 id='ANONYMOUS ', fmtdat='(2E16.6)'
 volume=1.0
 tramp=1.0
 $END
   4.673903e+03  -3.066012e+02
   2.750919e+03   2.803417e+03
  -8.423520e+02   3.177091e+03
  -2.430920e+03   7.020332e+02
  -1.093989e+03  -8.091959e+02
   8.259112e+02  -7.326471e+02
   9.553579e+02   3.838551e+02
   7.184143e+01   1.129065e+03
  -8.890737e+02   8.317211e+02
  -8.932933e+02  -1.777720e+02
  -4.803575e+02  -9.034088e+02
   2.770172e+02  -9.016744e+02
   6.412123e+02  -8.507682e+01
   4.220637e+02   8.074047e+02
  -2.786379e+02   7.430343e+02
  -6.828772e+02  -3.442830e+01
  -2.768294e+02  -7.283142e+02
   2.918257e+02  -6.455574e+02
   5.658097e+02  -6.380978e+01
   3.936896e+02   4.005626e+02
   1.403337e+01   5.213499e+02
  -2.878919e+02   2.625826e+02
  -2.575527e+02  -3.141655e+01
   1.453494e+02  -1.190812e+02
   4.392213e+02   1.126179e+02
   1.994381e+02   5.097342e+02
  -5.069277e+02   4.573170e+02
  -9.093365e+02  -9.948211e+01
  -4.599014e+02  -6.196356e+02
   4.459459e+02  -5.100384e+02
   7.874989e+02   5.534121e+01
   3.554333e+02   5.288282e+02
  -3.088926e+02   5.391911e+02
  -6.041935e+02   2.081907e+02
  -4.334162e+02  -2.474590e+02
  -1.004806e+02  -4.985115e+02
   2.084088e+02  -2.835485e+02
   1.721368e+02   2.295167e+02
  -1.960737e+02   4.463417e+02
  -4.953898e+02  -3.777370e+01
  -2.356312e+02  -7.370299e+02
   3.591353e+02  -7.472441e+02
   6.609333e+02   9.854127e+00
   2.660389e+02   5.975239e+02
  -3.459474e+02   3.429883e+02
  -4.275859e+02  -3.617309e+02
   8.501737e+01  -5.915252e+02
   6.089686e+02  -1.474341e+02
   6.292942e+02   4.334584e+02
   1.614143e+02   6.143729e+02
  -4.107998e+02   3.493194e+02
  -6.528694e+02  -8.928591e+01
  -3.748142e+02  -4.144787e+02
   1.801063e+02  -3.828342e+02
   4.755526e+02  -4.149925e+01
   2.454920e+02   2.253413e+02
  -1.415776e+02   1.071335e+02
  -1.610542e+02  -1.881794e+02
   1.767005e+02  -2.140581e+02
   3.723692e+02   8.158703e+01
   1.479657e+02   3.180853e+02
  -2.183663e+02   2.564576e+02
  -3.403988e+02   5.250471e+01
  -1.863402e+02  -1.035215e+02
   4.502115e+01  -2.339359e+02
   2.417883e+02  -3.345959e+02
   3.611232e+02  -2.211344e+02
   3.107344e+02   1.501240e+02
   8.250835e+01   4.607682e+02
  -1.237434e+02   4.009885e+02
  -1.220566e+02   1.126267e+02
  -1.316266e+01  -1.587654e+01
  -3.370408e+01   9.248372e+01
  -2.001870e+02   1.423815e+02
  -2.940362e+02  -4.810293e+01
  -1.677662e+02  -2.803634e+02
   7.897738e+01  -2.694404e+02
   2.478700e+02  -7.750205e+00
   2.140011e+02   2.596629e+02
  -1.435873e+01   3.191175e+02
  -2.885242e+02   1.276566e+02
  -3.900732e+02  -1.747851e+02
  -2.042563e+02  -3.679745e+02
   1.007530e+02  -3.202694e+02
   2.388707e+02  -1.224342e+02
   1.542770e+02  -4.697088e+00
   9.480977e+01  -3.914539e+01
   2.352179e+02  -7.566910e+01
   4.098304e+02   4.951600e+01
   3.482803e+02   2.896095e+02
   5.852056e+00   4.566961e+02
  -3.665794e+02   4.276345e+02
  -5.061621e+02   2.073499e+02
  -3.486621e+02  -9.970688e+01
  -5.339947e+01  -3.038430e+02
   1.440969e+02  -2.583309e+02
   8.941820e+01  -2.540194e+01
  -1.198762e+02   1.166504e+02
  -2.165699e+02  -6.671961e+00
  -5.621517e+01  -2.061961e+02
   1.776893e+02  -1.831729e+02
   1.966886e+02   6.463542e+01
  -1.757131e+01   2.069900e+02
  -2.072655e+02   4.014157e+01
  -1.719327e+02  -2.548693e+02
   3.415076e+01  -3.561084e+02
   2.373001e+02  -1.938890e+02
   3.290241e+02   6.422177e+01
   2.796270e+02   2.405503e+02
   9.570436e+01   2.684987e+02
  -1.160360e+02   1.666685e+02
  -1.828671e+02   2.177181e+01
  -5.927152e+01  -3.731741e+01
   7.563107e+01   3.684243e+01
   3.273839e+01   1.312270e+02
  -1.285507e+02   1.069020e+02
  -1.863853e+02  -1.260775e+01
  -5.933634e+01  -7.721964e+01
   8.693880e+01  -1.818283e+01
   6.154859e+01   7.742349e+01
  -1.245503e+02   9.426975e+01
  -2.905994e+02   7.722801e+00
  -2.756630e+02  -1.350656e+02
  -7.035587e+01  -2.594768e+02
   1.821512e+02  -2.743505e+02
   2.897499e+02  -1.381207e+02
   1.766358e+02   5.047161e+01
  -2.592667e+01   1.142311e+02
  -9.636832e+01   6.999397e+00
   3.403218e+01  -1.097358e+02
   2.068825e+02  -6.454590e+01
   2.255051e+02   1.074237e+02
   7.204022e+01   2.187830e+02
  -1.009052e+02   1.658631e+02
  -1.521646e+02   2.980224e+01
  -7.417446e+01  -4.486067e+01
   2.907458e+01  -5.566283e+00
   4.019118e+01   8.435679e+01
  -7.146828e+01   1.176506e+02
  -2.030599e+02   3.216962e+01
  -1.990320e+02  -1.268471e+02
  -2.377214e+01  -2.270062e+02
   1.705118e+02  -1.710915e+02
   2.022555e+02  -5.504234e+00
   6.824575e+01   1.206797e+02
  -7.027271e+01   1.162388e+02
  -8.718395e+01   3.097510e+01
  -1.800794e+01  -2.799721e+01
   2.467601e+01  -1.966877e+01
  -8.718482e+00   8.980075e+00
  -7.344924e+01  -5.416981e+00
  -9.324465e+01  -7.929193e+01
  -1.992494e+01  -1.607026e+02
   1.266724e+02  -1.601101e+02
   2.403577e+02  -3.203655e+01
   2.096772e+02   1.526094e+02
   4.334691e+01   2.460569e+02
  -1.129690e+02   1.743786e+02
  -1.400586e+02   2.422524e+01
  -6.984145e+01  -5.955073e+01
  -2.662601e+01  -3.463209e+01
  -5.350097e+01   1.695260e+01
  -8.159372e+01   8.316375e+00
  -4.279173e+01  -4.919086e+01
   4.270770e+01  -8.933255e+01
   1.012151e+02  -5.765372e+01
   8.470063e+01   3.293547e+01
  -1.161911e+01   1.122368e+02
  -1.404167e+02   9.228132e+01
  -2.027046e+02  -4.419423e+01
  -1.099457e+02  -2.050016e+02
   1.020508e+02  -2.422696e+02
   2.743290e+02  -1.075663e+02
   2.688866e+02   8.525341e+01
   1.163153e+02   1.839843e+02
  -3.930805e+01   1.539655e+02
  -9.669646e+01   8.713399e+01
  -7.983013e+01   7.111171e+01
  -6.654965e+01   9.386905e+01
  -9.312669e+01   7.739969e+01
  -1.321715e+02  -1.930699e+01
  -1.248302e+02  -1.543794e+02
  -3.662233e+01  -2.310590e+02
   9.681804e+01  -1.798311e+02
   1.797135e+02  -2.590642e+01
   1.423813e+02   1.222981e+02
   2.215663e+01   1.640179e+02
  -6.805656e+01   9.543641e+01
  -6.191078e+01   6.989486e-01
  -6.077335e+00  -4.409098e+01
   9.333435e+00  -3.527631e+01
  -3.828497e+01  -1.809486e+01
  -8.176879e+01  -2.224337e+01
  -4.647549e+01  -3.895059e+01
   6.354877e+01  -4.023766e+01
   1.603068e+02  -7.882322e+00
   1.478636e+02   4.815815e+01
   1.923721e+01   8.966389e+01
  -1.207406e+02   7.797686e+01
  -1.484582e+02   1.663605e+01
  -5.023086e+01  -4.091772e+01
   6.214661e+01  -3.916921e+01
   7.940726e+01   1.819733e+01
   9.195294e+00   6.960883e+01
  -5.643081e+01   6.063906e+01
  -6.447446e+01   4.001156e-01
  -4.538479e+01  -4.862810e+01
  -4.517051e+01  -4.109065e+01
  -6.361574e+01  -1.173761e+00
  -6.823204e+01   1.307133e+00
  -3.745114e+01  -6.700478e+01
   2.961599e+01  -1.489022e+02
   1.136559e+02  -1.481359e+02
   1.647043e+02  -3.901234e+01
   1.273820e+02   8.953762e+01
   1.121327e+01   1.279046e+02
  -8.363683e+01   6.332049e+01
  -5.959807e+01  -1.493842e+01
   6.026673e+01  -2.108013e+01
   1.407472e+02   4.256074e+01
   7.974174e+01   1.085675e+02
  -7.950939e+01   1.167277e+02
  -1.932187e+02   5.786608e+01
  -1.667143e+02  -3.010866e+01
  -4.035941e+01  -8.800783e+01
   6.058090e+01  -7.449509e+01
   5.070900e+01  -9.356688e+00
  -3.732904e+01   2.853531e+01
  -9.120952e+01  -2.034962e+01
  -3.421544e+01  -1.196093e+02
   9.153216e+01  -1.576202e+02
   1.693406e+02  -6.398217e+01
   1.288441e+02   1.029161e+02
   1.182734e+01   2.019377e+02
  -8.541855e+01   1.472651e+02
  -1.064057e+02  -6.118048e+00
  -6.403226e+01  -1.197718e+02
  -1.308944e+00  -1.088723e+02
   4.549845e+01  -2.180172e+01
   5.436118e+01   3.077162e+01
   2.838499e+01   8.199247e+00
   4.885269e+00  -2.160584e+01
   2.115864e+01   1.416627e+01
   5.815371e+01   8.883379e+01
   4.556648e+01   1.108343e+02
  -4.557239e+01   4.697416e+01
  -1.404231e+02  -3.798724e+01
  -1.324278e+02  -6.924962e+01
  -1.725203e+01  -4.822536e+01
   9.028909e+01  -2.153891e+01
   8.938181e+01  -7.851445e+00
   8.819920e+00   7.371320e+00
  -4.122925e+01   2.284859e+01
  -1.449613e+01   1.828341e+01
   2.253918e+01  -1.812400e+00
  -6.010067e+00  -8.744400e+00
  -7.685650e+01  -2.612402e+00
  -9.388616e+01  -2.379046e+01
  -7.821302e+00  -8.384244e+01
   1.216087e+02  -1.196852e+02
   1.889960e+02  -6.131905e+01
   1.441877e+02   6.974794e+01
   2.769819e+01   1.678040e+02
  -7.800544e+01   1.545923e+02
  -1.154017e+02   5.999262e+01
  -8.350613e+01  -2.228930e+01
  -2.693069e+01  -3.644549e+01
   3.421211e+00  -8.624419e+00
  -9.333027e+00  -2.998083e+00
  -3.423440e+01  -4.467097e+01
  -2.562359e+01  -9.023560e+01
   2.769706e+01  -7.305401e+01
   8.268190e+01   1.745551e+01
   7.967493e+01   1.085918e+02
   5.176040e+00   1.133405e+02
  -8.387557e+01   2.459629e+01
  -1.052040e+02  -7.524565e+01
  -3.334916e+01  -1.035469e+02
   6.607723e+01  -5.607549e+01
   9.782684e+01   1.057248e+01
   3.940789e+01   4.928744e+01
  -3.206763e+01   5.163295e+01
  -3.055190e+01   2.876778e+01
   3.439781e+01  -9.461529e-01
   6.915932e+01  -8.375603e+00
   1.504360e+01   2.403058e+01
  -7.773896e+01   6.761607e+01
  -1.135545e+02   6.143886e+01
  -6.307012e+01  -1.025924e+01
   1.432015e+01  -8.313070e+01
   5.049985e+01  -7.988721e+01
   3.595929e+01  -5.062849e+00
   2.250019e+00   5.673661e+01
  -2.513623e+01   4.267374e+01
  -3.750552e+01  -1.911544e+01
  -2.830787e+01  -5.411063e+01
   2.102116e+00  -3.248890e+01
   3.369023e+01   8.290078e+00
   4.059948e+01   1.934503e+01
   2.083753e+01  -2.538592e-01
  -8.821318e-01  -1.338185e+01
  -7.765338e+00   4.657171e+00
  -7.963804e+00   3.627583e+01
  -1.760571e+01   4.180698e+01
  -3.134934e+01   4.486211e+00
  -2.741837e+01  -4.627292e+01
   5.189069e+00  -6.027852e+01
   4.633397e+01  -1.951278e+01
   5.661521e+01   4.053914e+01
   1.400027e+01   6.515816e+01
  -5.552221e+01   3.631930e+01
  -8.979468e+01  -1.426092e+01
  -5.052878e+01  -4.464079e+01
   2.749923e+01  -4.187757e+01
   6.385398e+01  -2.187374e+01
   2.343973e+01  -5.013384e+00
  -3.794993e+01  -3.091610e+00
  -3.759501e+01  -1.801865e+01
   3.242353e+01  -3.368533e+01
   9.387534e+01  -2.041446e+01
