
 $NMID
 id='ANONYMOUS ', fmtdat='(2E16.6)'
 volume=1.0
 tramp=1.0
 $END
   2.331830e+03  -2.055900e+02
   1.797186e+03   1.591904e+03
  -7.353888e+01   1.667344e+03
  -6.906841e+02   1.103586e+03
  -8.114076e+02   1.876634e+02
  -2.037408e+02  -2.172083e+02
   3.291307e+02  -1.022505e+01
   2.304446e+02   3.150421e+02
  -3.344869e+02   4.711423e+02
  -5.562447e+02   1.245227e+02
  -4.230867e+02  -3.502731e+02
  -3.191181e+01  -6.181074e+02
   3.105775e+02  -1.919895e+02
   2.495245e+02   2.812832e+02
  -7.652614e+01   4.267893e+02
  -4.140548e+02   5.830906e+01
  -3.170732e+02  -3.658136e+02
   8.621277e+01  -5.727603e+02
   3.838601e+02  -2.626228e+02
   4.332422e+02   1.572894e+02
   2.026994e+02   3.450515e+02
  -6.460271e+01   2.078977e+02
  -2.477577e+01   3.421627e+01
   1.771726e+02   9.029803e+01
   2.403516e+02   2.966848e+02
  -8.326416e+01   3.891125e+02
  -5.016567e+02   1.249731e+02
  -5.237969e+02  -1.978333e+02
  -1.618256e+02  -3.425020e+02
   3.162811e+02  -1.578373e+02
   4.220895e+02   1.465276e+02
   1.495561e+02   3.126174e+02
  -2.325054e+02   2.883916e+02
  -3.986092e+02   8.455249e+01
  -2.663030e+02  -1.395281e+02
  -6.980754e+01  -2.363383e+02
   1.408095e+01  -1.188818e+02
  -8.637672e+01   1.007149e+02
  -1.936085e+02   8.474520e+01
  -1.556863e+02  -1.866237e+02
   4.341513e+01  -4.398015e+02
   2.456608e+02  -3.479739e+02
   2.674652e+02   3.794911e+01
   8.446223e+01   2.795032e+02
  -1.356812e+02   9.962361e+01
  -1.376077e+02  -2.485668e+02
   1.219684e+02  -3.331622e+02
   3.945509e+02  -3.902512e+01
   4.160167e+02   3.542548e+02
   1.198348e+02   4.545587e+02
  -2.809892e+02   2.303159e+02
  -4.641394e+02  -8.166621e+01
  -2.939625e+02  -2.348283e+02
   4.520569e+01  -1.909018e+02
   2.514634e+02  -6.263906e+01
   1.895289e+02   1.732836e+01
   1.135156e+01   8.943433e+00
  -4.469382e+01  -3.359068e+01
   7.420422e+01  -3.265519e+01
   1.874207e+02   4.384566e+01
   1.071602e+02   1.556519e+02
  -1.379983e+02   2.103723e+02
  -3.256762e+02   1.243076e+02
  -2.625679e+02  -9.516436e+01
   1.901828e+01  -3.129602e+02
   2.930448e+02  -3.468529e+02
   3.528367e+02  -1.387754e+02
   2.034667e+02   1.584104e+02
   2.660886e+01   3.187830e+02
  -2.875354e+01   2.731380e+02
   4.959247e-02   1.591513e+02
  -2.386026e+01   1.173949e+02
  -1.441505e+02   1.175952e+02
  -2.504341e+02   3.587896e+01
  -2.213686e+02  -1.369103e+02
  -6.197359e+01  -2.517340e+02
   1.099840e+02  -1.698733e+02
   1.815535e+02   5.594388e+01
   1.128344e+02   2.372458e+02
  -6.257742e+01   2.262570e+02
  -2.331030e+02   4.353711e+01
  -2.730703e+02  -1.703227e+02
  -1.417009e+02  -2.695258e+02
   5.383767e+01  -2.330725e+02
   1.527840e+02  -1.411859e+02
   1.320716e+02  -8.266014e+01
   1.376251e+02  -6.867328e+01
   2.596927e+02  -2.563823e+01
   3.807714e+02   1.011638e+02
   2.928941e+02   2.856226e+02
  -3.481838e+01   4.056260e+02
  -3.634787e+02   3.546287e+02
  -4.470509e+02   1.425009e+02
  -2.527885e+02  -1.069694e+02
   8.269066e-01  -2.254951e+02
   9.057651e+01  -1.637899e+02
   1.193841e-01  -2.507652e+01
  -1.165993e+02   2.817836e+01
  -1.106947e+02  -4.758421e+01
   6.816384e+00  -1.252784e+02
   1.064681e+02  -7.961332e+01
   8.744533e+01   5.629803e+01
  -3.638547e+01   1.126452e+02
  -1.442945e+02  -1.100517e+01
  -1.301498e+02  -2.196875e+02
   2.377777e+01  -3.137405e+02
   2.291595e+02  -1.907628e+02
   3.380685e+02   6.228764e+01
   2.583028e+02   2.564693e+02
   4.521806e+01   2.649654e+02
  -1.301294e+02   1.266617e+02
  -1.399775e+02  -3.382923e+00
  -2.581762e+01  -1.309522e+01
   4.581517e+01   6.445575e+01
  -1.448491e+01   1.078396e+02
  -1.230329e+02   5.306495e+01
  -1.328866e+02  -3.642224e+01
  -2.027177e+01  -5.455934e+01
   8.103378e+01   1.666964e+01
   3.336638e+01   9.233323e+01
  -1.445826e+02   8.050493e+01
  -2.839408e+02  -3.048425e+01
  -2.330574e+02  -1.721052e+02
  -1.029856e+01  -2.499285e+02
   2.081475e+02  -2.081606e+02
   2.526433e+02  -7.299709e+01
   1.193344e+02   5.102544e+01
  -3.544816e+01   6.725262e+01
  -5.611152e+01  -1.258586e+01
   6.005495e+01  -7.206207e+01
   1.764667e+02  -1.799588e+01
   1.676205e+02   1.081222e+02
   3.904401e+01   1.750429e+02
  -9.059517e+01   1.167969e+02
  -1.138543e+02   4.813050e+00
  -3.281949e+01  -3.711953e+01
   4.742515e+01   2.692306e+01
   2.315159e+01   1.135574e+02
  -1.007889e+02   1.133993e+02
  -2.039245e+02   2.960295e+00
  -1.664746e+02  -1.362172e+02
  -8.216236e-01  -1.950389e+02
   1.498847e+02  -1.313941e+02
   1.584025e+02  -2.766634e+00
   4.401300e+01   8.753827e+01
  -6.247072e+01   8.194971e+01
  -6.519572e+01   1.663010e+01
   4.593385e+00  -2.609132e+01
   4.286402e+01  -7.233930e+00
  -5.476629e+00   2.838698e+01
  -8.746712e+01   4.498330e+00
  -1.034706e+02  -8.931729e+01
  -5.717878e+00  -1.705762e+02
   1.453012e+02  -1.416841e+02
   2.287983e+02   2.715861e+00
   1.736263e+02   1.609531e+02
   2.187186e+01   2.162394e+02
  -1.021364e+02   1.426102e+02
  -1.211186e+02   2.275244e+01
  -6.743866e+01  -4.375347e+01
  -3.097312e+01  -2.752331e+01
  -5.245612e+01   1.287007e+01
  -8.278680e+01   5.630827e+00
  -5.390444e+01  -5.576175e+01
   3.913867e+01  -1.035234e+02
   1.219520e+02  -6.444297e+01
   1.057970e+02   4.660754e+01
  -1.868840e+01   1.287373e+02
  -1.626772e+02   8.511668e+01
  -1.981491e+02  -6.976396e+01
  -7.231523e+01  -2.082981e+02
   1.304481e+02  -2.077281e+02
   2.572954e+02  -6.698256e+01
   2.244232e+02   9.471973e+01
   8.375990e+01   1.618380e+02
  -4.342403e+01   1.271188e+02
  -8.278393e+01   7.049121e+01
  -6.382718e+01   6.193456e+01
  -5.449787e+01   8.707662e+01
  -8.584996e+01   7.437029e+01
  -1.230975e+02  -1.824438e+01
  -1.078792e+02  -1.466035e+02
  -1.825544e+01  -2.121248e+02
   9.880400e+01  -1.513998e+02
   1.588859e+02  -1.576009e+00
   1.130660e+02   1.265959e+02
   6.595455e-01   1.471312e+02
  -7.846418e+01   6.981951e+01
  -6.250893e+01  -2.093841e+01
   6.768337e+00  -5.518671e+01
   3.277305e+01  -3.426159e+01
  -2.046325e+01  -9.776007e+00
  -8.017798e+01  -1.626276e+01
  -4.891606e+01  -3.864428e+01
   7.177583e+01  -3.718880e+01
   1.683821e+02   6.630303e+00
   1.348075e+02   6.691371e+01
  -8.851489e+00   9.588993e+01
  -1.339532e+02   6.610173e+01
  -1.370731e+02  -2.375129e+00
  -3.759183e+01  -5.298255e+01
   5.864118e+01  -4.228481e+01
   7.393150e+01   1.907205e+01
   1.913330e+01   7.169142e+01
  -4.244856e+01   6.349624e+01
  -6.647940e+01   2.629297e+00
  -5.775862e+01  -4.907830e+01
  -4.505726e+01  -4.319330e+01
  -4.851587e+01  -4.012207e+00
  -5.889179e+01  -1.876649e+00
  -4.254264e+01  -6.810654e+01
   2.517282e+01  -1.435042e+02
   1.219569e+02  -1.360217e+02
   1.744564e+02  -2.809984e+01
   1.232524e+02   9.372573e+01
  -1.838497e+00   1.279022e+02
  -9.044536e+01   6.517312e+01
  -5.953285e+01  -1.104034e+01
   5.392160e+01  -1.829147e+01
   1.219899e+02   4.199637e+01
   6.110087e+01   1.006034e+02
  -8.196633e+01   9.758917e+01
  -1.768942e+02   3.279334e+01
  -1.428965e+02  -4.432862e+01
  -2.414809e+01  -7.967719e+01
   6.258252e+01  -5.341509e+01
   4.505958e+01   3.731747e+00
  -3.877678e+01   2.876577e+01
  -8.645881e+01  -1.935176e+01
  -3.575545e+01  -1.082299e+02
   7.494002e+01  -1.445186e+02
   1.463245e+02  -6.421891e+01
   1.160880e+02   8.656134e+01
   1.206003e+01   1.788874e+02
  -8.006258e+01   1.273126e+02
  -9.755357e+01  -1.649851e+01
  -4.620915e+01  -1.157295e+02
   1.997421e+01  -9.475977e+01
   5.192575e+01  -1.003454e+01
   4.006113e+01   3.286144e+01
   1.258758e+01   8.020383e+00
   6.380648e+00  -1.477590e+01
   3.057388e+01   2.229245e+01
   5.164588e+01   8.576482e+01
   2.308899e+01   9.769233e+01
  -5.676982e+01   3.757374e+01
  -1.246120e+02  -3.733231e+01
  -1.097757e+02  -6.756798e+01
  -1.578075e+01  -5.164175e+01
   7.322093e+01  -2.321553e+01
   8.004059e+01  -1.965218e+00
   1.766807e+01   1.355448e+01
  -3.233364e+01   1.951245e+01
  -2.161530e+01   9.660960e+00
   1.080551e+01  -4.751921e+00
  -1.650601e+00  -4.535385e+00
  -5.921010e+01   1.185656e+00
  -8.677722e+01  -2.145641e+01
  -2.382051e+01  -7.702353e+01
   9.778029e+01  -1.105196e+02
   1.772010e+02  -6.186339e+01
   1.454699e+02   5.448511e+01
   2.978347e+01   1.482929e+02
  -7.810274e+01   1.448580e+02
  -1.108863e+02   6.115870e+01
  -7.484316e+01  -1.903899e+01
  -2.436366e+01  -3.748654e+01
  -3.812937e+00  -1.415668e+01
  -1.389748e+01  -9.446646e+00
  -2.607133e+01  -4.681418e+01
  -1.302236e+01  -8.500355e+01
   2.838202e+01  -6.626361e+01
   7.094981e+01   1.374539e+01
   7.300425e+01   9.274149e+01
   1.503446e+01   1.013543e+02
  -6.647895e+01   3.043934e+01
  -9.732801e+01  -5.894879e+01
  -3.816208e+01  -9.573847e+01
   5.981279e+01  -6.056285e+01
   9.932500e+01   8.743602e+00
   4.420998e+01   5.801718e+01
  -3.412694e+01   6.034553e+01
  -4.228779e+01   2.668731e+01
   2.063963e+01  -7.164871e+00
   6.327247e+01  -7.977893e+00
   1.788370e+01   2.642216e+01
  -7.403872e+01   5.942006e+01
  -1.153704e+02   4.531856e+01
  -6.810086e+01  -1.888273e+01
   1.364956e+01  -7.958547e+01
   5.660103e+01  -7.740150e+01
   4.368993e+01  -1.362361e+01
   7.314419e+00   4.688600e+01
  -2.168290e+01   4.538727e+01
  -3.361778e+01  -8.013629e+00
  -2.565794e+01  -5.030761e+01
   1.489433e+00  -3.888871e+01
   3.191481e+01   4.280244e+00
   3.980142e+01   2.595983e+01
   1.895922e+01   6.516095e+00
  -5.167479e+00  -1.969632e+01
  -6.987787e+00  -1.117016e+01
   5.913201e+00   2.749327e+01
   2.950569e+00   5.034930e+01
  -2.260529e+01   2.357458e+01
  -3.918084e+01  -3.002959e+01
  -1.447562e+01  -5.512187e+01
   3.669158e+01  -2.450794e+01
   5.942843e+01   3.073823e+01
   1.902694e+01   5.731824e+01
  -5.355092e+01   3.483266e+01
  -8.798377e+01  -1.035874e+01
  -4.818167e+01  -4.087784e+01
   2.602270e+01  -4.328274e+01
   6.064349e+01  -2.671861e+01
   2.829259e+01  -6.497798e+00
  -2.354388e+01   3.689085e+00
  -2.947229e+01  -4.321945e+00
   2.011135e+01  -2.138171e+01
   6.953944e+01  -1.812638e+01
