
 $NMID
 id='ANONYMOUS ', fmtdat='(2E16.6)'
 volume=1.0
 tramp=1.0
 $END
  -3.209438e+03   4.194179e+02
  -2.481974e+03  -2.087789e+03
   5.585479e+01  -2.202555e+03
   1.198739e+03  -1.306862e+03
   8.891762e+02  -1.938554e+02
  -4.673164e+01   3.311992e+02
  -3.973337e+02   3.195409e+00
  -1.252913e+02  -5.515791e+02
   5.483759e+02  -6.390074e+02
   7.465445e+02  -7.875552e+01
   4.764237e+02   5.965364e+02
   2.289069e+01   7.404681e+02
  -4.195464e+02   2.351139e+02
  -2.539636e+02  -4.546796e+02
   1.214484e+02  -6.511823e+02
   5.221117e+02  -1.112003e+02
   3.850183e+02   5.638103e+02
  -1.363171e+02   6.964402e+02
  -5.036661e+02   2.531569e+02
  -5.009899e+02  -2.156607e+02
  -1.703728e+02  -3.746706e+02
   1.372014e+02  -2.314284e+02
   8.301373e+01  -3.280392e+01
  -1.869970e+02  -5.729769e+01
  -3.561730e+02  -2.782246e+02
   5.233599e-01  -4.416052e+02
   5.547185e+02  -2.715218e+02
   7.387241e+02   1.741214e+02
   2.831158e+02   4.712435e+02
  -3.739021e+02   3.035016e+02
  -6.310524e+02  -1.023078e+02
  -2.650775e+02  -4.252862e+02
   2.868444e+02  -4.275322e+02
   5.156579e+02  -1.490326e+02
   3.747564e+02   2.065722e+02
   7.070429e+01   3.628946e+02
  -1.046130e+02   2.020168e+02
  -2.058897e+01  -1.585176e+02
   2.132442e+02  -2.757830e+02
   3.001036e+02   1.176667e+02
   7.789161e+01   6.157111e+02
  -3.123113e+02   5.700091e+02
  -4.393629e+02  -9.887666e+00
  -1.600113e+02  -4.580819e+02
   2.363601e+02  -2.351319e+02
   2.803627e+02   3.121475e+02
  -9.440129e+01   4.931027e+02
  -5.125256e+02   1.109769e+02
  -5.646285e+02  -4.056886e+02
  -1.768029e+02  -5.747215e+02
   3.642891e+02  -3.283331e+02
   6.127615e+02   7.727102e+01
   3.845159e+02   3.261007e+02
  -9.590177e+01   2.958618e+02
  -3.701051e+02   8.223416e+01
  -2.417928e+02  -8.337416e+01
   3.066115e+01  -5.473857e+01
   7.583620e+01   7.204466e+01
  -1.313495e+02   8.761803e+01
  -2.768243e+02  -6.550651e+01
  -1.311350e+02  -2.359674e+02
   1.841884e+02  -2.660440e+02
   3.740927e+02  -1.364171e+02
   2.844394e+02   8.807652e+01
  -4.052985e+00   3.161932e+02
  -2.912210e+02   4.005788e+02
  -3.960834e+02   2.130669e+02
  -2.719437e+02  -1.563907e+02
  -5.068239e+01  -4.071054e+02
   6.979950e+01  -3.559630e+02
   4.299475e+01  -1.582476e+02
   1.672859e+01  -7.769513e+01
   1.174604e+02  -1.235320e+02
   2.658417e+02  -8.399291e+01
   2.798317e+02   1.197201e+02
   1.125869e+02   2.936237e+02
  -1.080037e+02   2.285666e+02
  -2.185738e+02  -3.458128e+01
  -1.586306e+02  -2.655616e+02
   4.695164e+01  -2.803580e+02
   2.708247e+02  -8.031079e+01
   3.424894e+02   1.832896e+02
   1.848799e+02   3.345738e+02
  -6.936059e+01   3.005607e+02
  -1.969569e+02   1.607671e+02
  -1.592437e+02   6.596518e+01
  -1.460435e+02   6.665131e+01
  -2.879748e+02   5.075055e+01
  -4.452060e+02  -8.937088e+01
  -3.553359e+02  -3.242029e+02
   1.513162e+01  -4.854996e+02
   4.083026e+02  -4.417893e+02
   5.284395e+02  -1.955184e+02
   3.284681e+02   1.110094e+02
   3.021513e+01   2.904747e+02
  -1.138041e+02   2.303651e+02
  -3.080161e+01   3.458608e+01
   1.296046e+02  -6.190641e+01
   1.604111e+02   3.702600e+01
   1.266534e+01   1.744979e+02
  -1.478572e+02   1.328992e+02
  -1.419308e+02  -6.260512e+01
   2.834839e+01  -1.622288e+02
   1.869009e+02  -9.092535e+00
   1.706524e+02   2.579480e+02
  -2.366662e+01   3.734444e+02
  -2.608715e+02   2.243865e+02
  -3.854928e+02  -6.374144e+01
  -3.091456e+02  -2.797566e+02
  -7.686822e+01  -3.002773e+02
   1.396077e+02  -1.597367e+02
   1.747654e+02  -7.714028e+00
   4.210929e+01   2.184038e+01
  -6.656313e+01  -6.519079e+01
  -5.998770e+00  -1.340791e+02
   1.408081e+02  -8.346381e+01
   1.739325e+02   2.963267e+01
   4.150721e+01   6.916295e+01
  -9.141910e+01  -5.850732e+00
  -4.624011e+01  -9.836059e+01
   1.576001e+02  -9.538829e+01
   3.229504e+02   2.159397e+01
   2.776240e+02   1.806112e+02
   3.390830e+01   2.835432e+02
  -2.223415e+02   2.576284e+02
  -2.953761e+02   1.088248e+02
  -1.549390e+02  -5.432199e+01
   3.553137e+01  -9.398513e+01
   7.936896e+01   3.749423e+00
  -5.455900e+01   9.591210e+01
  -2.082551e+02   4.391010e+01
  -2.129644e+02  -1.155788e+02
  -6.143603e+01  -2.132376e+02
   1.030242e+02  -1.538592e+02
   1.437277e+02  -1.807025e+01
   5.478865e+01   4.455995e+01
  -4.667174e+01  -1.683805e+01
  -3.521356e+01  -1.160181e+02
   1.009252e+02  -1.309833e+02
   2.314033e+02  -1.840781e+01
   2.044750e+02   1.465586e+02
   1.360793e+01   2.330836e+02
  -1.755359e+02   1.685568e+02
  -1.966253e+02   8.672594e+00
  -6.023480e+01  -1.115282e+02
   7.317309e+01  -1.085301e+02
   8.261884e+01  -2.502655e+01
   4.635236e+00   3.347733e+01
  -4.035065e+01   1.607580e+01
   6.711212e+00  -2.396109e+01
   9.194910e+01  -2.026327e+00
   1.128303e+02   9.608727e+01
   1.441342e+01   1.891798e+02
  -1.528202e+02   1.694805e+02
  -2.622490e+02   1.570067e+01
  -2.147698e+02  -1.720789e+02
  -4.139559e+01  -2.530219e+02
   1.144390e+02  -1.787974e+02
   1.447171e+02  -3.304414e+01
   8.080366e+01   5.255956e+01
   3.558541e+01   3.622984e+01
   5.908464e+01  -1.283798e+01
   9.240480e+01  -7.738245e+00
   5.644464e+01   5.924791e+01
  -4.476644e+01   1.115611e+02
  -1.298837e+02   7.249583e+01
  -1.140263e+02  -4.663779e+01
   1.548330e+01  -1.394336e+02
   1.743527e+02  -1.003600e+02
   2.254778e+02   6.688013e+01
   9.866626e+01   2.289222e+02
  -1.326803e+02   2.433626e+02
  -2.921802e+02   9.197686e+01
  -2.683334e+02  -9.734341e+01
  -1.080722e+02  -1.860062e+02
   4.420841e+01  -1.530457e+02
   9.749053e+01  -8.797699e+01
   7.815267e+01  -7.505421e+01
   6.606873e+01  -1.013947e+02
   9.956972e+01  -8.540342e+01
   1.421440e+02   2.075784e+01
   1.277751e+02   1.688437e+02
   2.774545e+01   2.471781e+02
  -1.107189e+02   1.826225e+02
  -1.882461e+02   1.262985e+01
  -1.409164e+02  -1.399414e+02
  -1.172076e+01  -1.736367e+02
   8.312923e+01  -9.285297e+01
   7.137239e+01   1.158048e+01
  -3.992365e-01   5.782219e+01
  -2.595134e+01   4.143287e+01
   3.050253e+01   1.620089e+01
   9.026688e+01   2.126890e+01
   5.308748e+01   4.387149e+01
  -7.945596e+01   4.241059e+01
  -1.885774e+02  -3.824138e+00
  -1.583036e+02  -7.097861e+01
  -6.015258e-01  -1.080426e+02
   1.480185e+02  -8.036999e+01
   1.619955e+02  -5.089365e+00
   5.005853e+01   5.525235e+01
  -6.642501e+01   4.754323e+01
  -8.582693e+01  -2.010265e+01
  -1.917784e+01  -7.962666e+01
   5.184564e+01  -7.058245e+01
   7.352174e+01  -1.932488e+00
   6.040377e+01   5.552064e+01
   5.144974e+01   4.746480e+01
   6.100216e+01   1.756946e+00
   7.028013e+01  -7.721261e-02
   4.636656e+01   7.685707e+01
  -2.965253e+01   1.653218e+02
  -1.344490e+02   1.594437e+02
  -1.940473e+02   3.722035e+01
  -1.421154e+02  -1.035448e+02
  -3.996874e+00  -1.454186e+02
   9.997551e+01  -7.483299e+01
   6.771397e+01   1.291856e+01
  -6.377818e+01   2.248965e+01
  -1.466620e+02  -4.688504e+01
  -7.729225e+01  -1.175658e+02
   9.153932e+01  -1.196204e+02
   2.069994e+02  -4.846449e+01
   1.715672e+02   4.400498e+01
   3.459516e+01   9.277751e+01
  -6.882313e+01   6.723146e+01
  -5.262101e+01  -2.101090e-01
   4.343507e+01  -3.242927e+01
   1.008801e+02   2.294937e+01
   4.301228e+01   1.277465e+02
  -8.833400e+01   1.701610e+02
  -1.748277e+02   7.512582e+01
  -1.401778e+02  -1.018086e+02
  -1.772275e+01  -2.114082e+02
   9.138451e+01  -1.546513e+02
   1.152450e+02   1.140542e+01
   6.154978e+01   1.310004e+02
  -1.277810e+01   1.133048e+02
  -5.539581e+01   1.694170e+01
  -5.015120e+01  -3.570181e+01
  -1.953699e+01  -8.725654e+00
  -6.147577e+00   2.035886e+01
  -3.167121e+01  -2.103370e+01
  -6.239918e+01  -9.816477e+01
  -3.565039e+01  -1.165470e+02
   6.076425e+01  -4.716387e+01
   1.490526e+02   4.219738e+01
   1.346406e+02   7.781108e+01
   1.882815e+01   5.855616e+01
  -8.984915e+01   2.777694e+01
  -9.508071e+01   6.503090e+00
  -1.813737e+01  -1.219809e+01
   3.853993e+01  -2.450094e+01
   2.095518e+01  -1.583889e+01
  -1.680629e+01   3.863136e+00
   3.413676e+00   7.484317e+00
   7.345334e+01  -1.340222e-01
   1.016481e+02   2.340721e+01
   2.302946e+01   8.834472e+01
  -1.181275e+02   1.297798e+02
  -2.056349e+02   7.302470e+01
  -1.665844e+02  -6.525987e+01
  -3.498374e+01  -1.756962e+02
   8.793806e+01  -1.697266e+02
   1.276207e+02  -7.084939e+01
   8.840991e+01   2.155275e+01
   2.943940e+01   4.108942e+01
   3.312704e+00   1.382008e+01
   1.573597e+01   9.453657e+00
   3.316906e+01   5.454575e+01
   1.872325e+01   1.001358e+02
  -3.324443e+01   7.803875e+01
  -8.586978e+01  -1.777540e+01
  -8.590131e+01  -1.126198e+02
  -1.331156e+01  -1.203494e+02
   8.289678e+01  -3.255194e+01
   1.147348e+02   7.323490e+01
   4.287237e+01   1.122221e+02
  -6.996570e+01   6.827942e+01
  -1.127138e+02  -8.759624e+00
  -4.977493e+01  -6.106102e+01
   3.629875e+01  -6.512317e+01
   4.204557e+01  -3.237182e+01
  -2.988311e+01   4.510082e+00
  -7.468305e+01   8.717404e+00
  -1.904132e+01  -2.960178e+01
   8.663899e+01  -7.177551e+01
   1.316830e+02  -5.921537e+01
   7.622548e+01   1.752224e+01
  -1.546581e+01   9.258347e+01
  -6.169927e+01   8.996030e+01
  -4.616325e+01   1.288314e+01
  -5.854897e+00  -5.680929e+01
   2.577886e+01  -5.047616e+01
   3.896226e+01   1.331210e+01
   3.018865e+01   5.849902e+01
  -1.078938e+00   4.164905e+01
  -3.646313e+01  -5.866510e+00
  -4.588182e+01  -2.648158e+01
  -2.351843e+01  -4.696604e+00
   3.307968e+00   1.983315e+01
   7.714087e+00   6.266364e+00
  -1.507287e+00  -3.588244e+01
   4.833027e+00  -5.586067e+01
   3.022749e+01  -2.090492e+01
   4.204901e+01   4.033920e+01
   1.050131e+01   6.581435e+01
  -4.499377e+01   2.729241e+01
  -6.774308e+01  -3.774576e+01
  -2.124944e+01  -6.747542e+01
   6.148533e+01  -4.042916e+01
   1.020099e+02   1.209395e+01
   5.708026e+01   4.719097e+01
  -3.005612e+01   4.933511e+01
  -7.107400e+01   3.039102e+01
  -3.081278e+01   7.957979e+00
   3.281244e+01  -1.971001e+00
   3.721889e+01   9.520850e+00
  -2.745316e+01   2.923397e+01
  -8.883000e+01   2.250083e+01
