
 $NMID
 id='ANONYMOUS ', fmtdat='(2E16.6)'
 volume=1.0
 tramp=1.0
 $END
   1.733415e+03   4.275697e+00
   1.662168e+03   9.782118e+02
   2.370459e+02   1.334781e+03
  -7.675798e+02   9.316230e+02
  -6.255763e+02   3.940411e+02
  -1.342937e+02   5.989249e+01
   1.334666e+02  -1.147477e+01
   7.368546e+00   2.960974e+02
  -2.735816e+02   3.792421e+02
  -4.170569e+02   7.864157e+01
  -2.507817e+02  -3.347444e+02
  -5.730292e+01  -4.228504e+02
   1.684020e+02  -1.294764e+02
   1.321550e+02   2.623878e+02
  -1.098411e+02   3.312413e+02
  -3.083152e+02   1.423021e+01
  -1.989216e+02  -3.427059e+02
   4.788186e+01  -4.341462e+02
   3.124630e+02  -2.861276e+02
   3.572769e+02   9.407997e+01
   1.499041e+02   2.512722e+02
  -6.710669e+01   1.924289e+02
  -3.151612e+01   6.716798e+01
   1.962884e+02   8.850117e+01
   2.293892e+02   2.588049e+02
  -5.292179e+01   2.776705e+02
  -3.980532e+02   1.035126e+02
  -4.466179e+02  -1.731951e+02
  -1.109325e+02  -2.537107e+02
   2.570318e+02  -9.426841e+01
   3.797073e+02   1.177317e+02
   1.219483e+02   2.738110e+02
  -2.167471e+02   2.640053e+02
  -3.523649e+02   1.090314e+02
  -2.563503e+02  -1.344526e+02
  -6.052581e+01  -2.227034e+02
   4.338141e+00  -1.083139e+02
  -7.813860e+01   8.087268e+01
  -1.674322e+02   1.048911e+02
  -1.187930e+02  -1.398680e+02
   4.244411e+01  -3.692556e+02
   1.822118e+02  -3.165300e+02
   2.038949e+02   1.777389e+00
   7.400294e+01   2.270915e+02
  -9.725307e+01   9.337592e+01
  -1.155848e+02  -1.975374e+02
   8.689427e+01  -2.965922e+02
   3.500969e+02  -4.051122e+01
   3.955556e+02   3.006567e+02
   1.400300e+02   4.003724e+02
  -2.358935e+02   2.138987e+02
  -4.239960e+02  -4.918995e+01
  -2.872632e+02  -1.834238e+02
   2.137155e+01  -1.604536e+02
   2.150862e+02  -7.215840e+01
   1.749066e+02  -8.404515e+00
   2.523501e+01   3.618045e+00
  -3.044065e+01  -1.849722e+01
   6.245908e+01  -2.987200e+01
   1.629267e+02   1.963183e+01
   1.051979e+02   1.283999e+02
  -1.059709e+02   2.091417e+02
  -2.840450e+02   1.489683e+02
  -2.461883e+02  -6.496733e+01
  -2.942953e+00  -2.906524e+02
   2.476253e+02  -3.354577e+02
   3.160752e+02  -1.425329e+02
   1.946578e+02   1.390307e+02
   3.704938e+01   2.963305e+02
  -2.303829e+01   2.610456e+02
  -6.460289e+00   1.516096e+02
  -2.551661e+01   1.021292e+02
  -1.261706e+02   1.004376e+02
  -2.230728e+02   3.620777e+01
  -2.049652e+02  -1.126565e+02
  -6.648175e+01  -2.206114e+02
   9.281621e+01  -1.558051e+02
   1.610202e+02   4.838207e+01
   9.632644e+01   2.151036e+02
  -5.947060e+01   2.028628e+02
  -2.050655e+02   3.430305e+01
  -2.418945e+02  -1.506521e+02
  -1.372238e+02  -2.391111e+02
   2.724526e+01  -2.094737e+02
   1.187563e+02  -1.385139e+02
   1.198186e+02  -8.835272e+01
   1.353475e+02  -7.057039e+01
   2.422387e+02  -3.304904e+01
   3.464142e+02   8.039989e+01
   2.694877e+02   2.461241e+02
  -1.507144e+01   3.665637e+02
  -3.188843e+02   3.343315e+02
  -4.024091e+02   1.413543e+02
  -2.353372e+02  -8.963863e+01
  -8.915879e+00  -2.091565e+02
   7.652779e+01  -1.534399e+02
  -3.831366e+00  -2.759908e+01
  -1.047556e+02   1.951984e+01
  -1.004313e+02  -4.538381e+01
   7.487184e+00  -1.172327e+02
   9.985021e+01  -7.794822e+01
   8.450754e+01   4.233749e+01
  -2.132027e+01   9.834571e+01
  -1.237655e+02  -3.437121e+00
  -1.211070e+02  -1.866511e+02
   1.078261e+01  -2.777886e+02
   1.987631e+02  -1.810357e+02
   3.063921e+02   4.028792e+01
   2.412724e+02   2.192372e+02
   5.048342e+01   2.366179e+02
  -1.113622e+02   1.195260e+02
  -1.217635e+02   1.187012e+00
  -2.123452e+01  -1.222886e+01
   4.460272e+01   5.556473e+01
  -7.333419e+00   9.771970e+01
  -1.056238e+02   5.365764e+01
  -1.187047e+02  -2.515144e+01
  -2.005364e+01  -4.555913e+01
   7.255445e+01   1.553833e+01
   3.135764e+01   8.600005e+01
  -1.309847e+02   8.004153e+01
  -2.611881e+02  -1.942546e+01
  -2.179800e+02  -1.512018e+02
  -1.686484e+01  -2.262143e+02
   1.801217e+02  -1.911821e+02
   2.217807e+02  -7.177476e+01
   1.059064e+02   4.001041e+01
  -2.916889e+01   5.839591e+01
  -4.923920e+01  -1.014464e+01
   4.974946e+01  -6.649660e+01
   1.543436e+02  -2.496124e+01
   1.540804e+02   8.689052e+01
   4.538259e+01   1.554604e+02
  -7.367426e+01   1.124640e+02
  -1.029299e+02   1.169913e+01
  -3.364389e+01  -3.390254e+01
   4.311052e+01   1.843384e+01
   2.688644e+01   9.952590e+01
  -8.482719e+01   1.073409e+02
  -1.824585e+02   1.341547e+01
  -1.544161e+02  -1.128736e+02
  -8.875501e+00  -1.727766e+02
   1.275990e+02  -1.245470e+02
   1.408403e+02  -1.239323e+01
   4.376968e+01   7.418068e+01
  -5.163268e+01   7.804396e+01
  -5.864921e+01   2.097272e+01
   6.125558e-01  -2.218563e+01
   3.644932e+01  -9.533731e+00
  -2.504249e+00   2.427534e+01
  -7.704104e+01   7.065103e+00
  -9.733774e+01  -7.737552e+01
  -1.467129e+01  -1.551123e+02
   1.230964e+02  -1.350634e+02
   2.073766e+02  -7.328264e+00
   1.650061e+02   1.364501e+02
   3.223633e+01   1.910636e+02
  -8.334636e+01   1.329987e+02
  -1.068146e+02   2.719216e+01
  -6.313347e+01  -3.334647e+01
  -3.066374e+01  -2.160806e+01
  -4.777423e+01   1.487158e+01
  -7.715572e+01   8.942217e+00
  -5.248351e+01  -4.943434e+01
   3.082787e+01  -9.762469e+01
   1.074810e+02  -6.568009e+01
   9.881304e+01   3.757910e+01
  -1.089047e+01   1.161448e+02
  -1.409725e+02   8.079147e+01
  -1.784723e+02  -5.614254e+01
  -7.200242e+01  -1.815635e+02
   1.082736e+02  -1.862479e+02
   2.262941e+02  -6.760267e+01
   2.043522e+02   7.446319e+01
   8.059700e+01   1.387920e+02
  -3.345971e+01   1.130221e+02
  -7.079016e+01   6.651495e+01
  -5.329963e+01   5.902342e+01
  -4.511852e+01   8.163404e+01
  -7.588960e+01   7.086562e+01
  -1.131223e+02  -1.215073e+01
  -1.018142e+02  -1.289408e+02
  -2.155715e+01  -1.900399e+02
   8.446494e+01  -1.385847e+02
   1.412465e+02  -7.106279e+00
   1.040993e+02   1.083924e+02
   6.145121e+00   1.313481e+02
  -6.646346e+01   6.743000e+01
  -5.685815e+01  -1.398834e+01
   2.425609e+00  -4.956661e+01
   2.673013e+01  -3.476796e+01
  -1.839043e+01  -1.103501e+01
  -7.121524e+01  -1.307265e+01
  -4.429812e+01  -3.349619e+01
   6.387596e+01  -3.615267e+01
   1.532309e+02   4.048609e-01
   1.261906e+02   5.753731e+01
  -2.131120e+00   8.926971e+01
  -1.175830e+02   6.607222e+01
  -1.252017e+02   3.155554e+00
  -3.894161e+01  -4.631429e+01
   4.898100e+01  -3.993974e+01
   6.621171e+01   1.479314e+01
   2.017471e+01   6.366119e+01
  -3.470655e+01   5.731306e+01
  -5.878434e+01   3.468477e+00
  -5.339555e+01  -4.203305e+01
  -4.293980e+01  -3.610732e+01
  -4.525849e+01  -1.308677e+00
  -5.362217e+01  -1.432715e+00
  -4.020925e+01  -6.186150e+01
   1.887239e+01  -1.306667e+02
   1.060960e+02  -1.257737e+02
   1.570755e+02  -3.130398e+01
   1.156726e+02   7.915453e+01
   3.568023e+00   1.153897e+02
  -7.978030e+01   6.314434e+01
  -5.506825e+01  -6.846545e+00
   4.733901e+01  -1.888345e+01
   1.122432e+02   3.322120e+01
   5.913793e+01   8.991928e+01
  -7.085368e+01   9.210943e+01
  -1.591178e+02   3.464395e+01
  -1.299436e+02  -3.774374e+01
  -2.279910e+01  -7.178009e+01
   5.607459e+01  -4.793471e+01
   4.151228e+01   4.639868e+00
  -3.436430e+01   2.835741e+01
  -7.986723e+01  -1.384462e+01
  -3.805452e+01  -9.495708e+01
   6.002185e+01  -1.328551e+02
   1.285723e+02  -6.568551e+01
   1.087665e+02   7.031165e+01
   1.974986e+01   1.597757e+02
  -6.588591e+01   1.198374e+02
  -8.815483e+01  -8.285562e+00
  -4.648249e+01  -1.013678e+02
   1.376805e+01  -8.624873e+01
   4.565942e+01  -1.121244e+01
   3.610538e+01   2.769951e+01
   1.051988e+01   5.951905e+00
   4.998484e+00  -1.470873e+01
   2.995061e+01   1.854720e+01
   5.188452e+01   7.606313e+01
   2.561903e+01   8.842636e+01
  -5.055390e+01   3.717239e+01
  -1.156035e+02  -2.851443e+01
  -1.033938e+02  -5.730207e+01
  -1.711726e+01  -4.716739e+01
   6.538997e+01  -2.532469e+01
   7.310026e+01  -6.229315e+00
   1.790280e+01   1.034658e+01
  -2.691643e+01   1.855677e+01
  -1.822676e+01   1.025770e+01
   1.033693e+01  -3.985056e+00
  -6.108804e-01  -4.176136e+00
  -5.201616e+01   3.387608e+00
  -7.840361e+01  -1.438865e+01
  -2.516402e+01  -6.585046e+01
   8.236761e+01  -1.021330e+02
   1.564941e+02  -6.385811e+01
   1.337623e+02   4.122946e+01
   3.411646e+01   1.322944e+02
  -6.368194e+01   1.355518e+02
  -9.772543e+01   6.125871e+01
  -6.900368e+01  -1.338742e+01
  -2.449358e+01  -3.200842e+01
  -4.998441e+00  -1.153695e+01
  -1.418368e+01  -7.755875e+00
  -2.693490e+01  -4.274583e+01
  -1.633220e+01  -7.844722e+01
   2.309305e+01  -6.267314e+01
   6.619243e+01   8.981910e+00
   7.143932e+01   8.113167e+01
   1.824897e+01   9.168816e+01
  -5.981267e+01   3.100304e+01
  -9.181492e+01  -4.954060e+01
  -3.890769e+01  -8.651694e+01
   5.252421e+01  -5.951897e+01
   9.170525e+01   2.029892e+00
   4.440835e+01   5.015313e+01
  -2.629816e+01   5.683603e+01
  -3.536425e+01   2.752428e+01
   1.949867e+01  -5.764207e+00
   5.732906e+01  -8.636480e+00
   1.736595e+01   2.442871e+01
  -6.496386e+01   5.839647e+01
  -1.036483e+02   4.748813e+01
  -6.383707e+01  -1.354518e+01
   7.871950e+00  -7.289566e+01
   4.778584e+01  -7.321572e+01
   3.942096e+01  -1.413843e+01
   8.693981e+00   4.312065e+01
  -1.823749e+01   4.293068e+01
  -3.148297e+01  -5.767084e+00
  -2.638857e+01  -4.558731e+01
  -1.428309e+00  -3.639233e+01
   2.866358e+01   2.286764e+00
   3.780906e+01   2.189530e+01
   1.856436e+01   4.996828e+00
  -5.258631e+00  -1.815654e+01
  -6.890919e+00  -1.033763e+01
   6.590800e+00   2.506985e+01
   5.591099e+00   4.631703e+01
  -1.972795e+01   2.321833e+01
  -3.871963e+01  -2.516863e+01
  -1.743465e+01  -4.926512e+01
   3.146588e+01  -2.441056e+01
   5.560178e+01   2.358600e+01
   2.000174e+01   4.878605e+01
  -4.736822e+01   3.210494e+01
  -7.997252e+01  -5.461320e+00
  -4.434605e+01  -3.415975e+01
   2.284323e+01  -4.012515e+01
   5.406688e+01  -2.769976e+01
   2.520243e+01  -7.940427e+00
  -2.130815e+01   4.737344e+00
  -2.681909e+01  -1.837380e+00
   1.728526e+01  -1.993244e+01
   6.181560e+01  -1.996588e+01
