
 $NMID
 id='ANONYMOUS ', fmtdat='(2E16.6)'
 volume=1.0
 tramp=1.0
 $END
  -2.028817e+03  -1.273151e+02
  -1.756336e+03  -1.106686e+03
  -1.955182e+02  -1.529235e+03
   8.362188e+02  -1.103402e+03
   9.348054e+02  -5.025017e+02
   1.429199e+02  -1.120218e+01
  -1.291249e+02  -1.109913e+02
   5.739322e+01  -3.306252e+02
   2.771416e+02  -3.802020e+02
   4.826910e+02  -1.323971e+02
   3.684570e+02   4.392907e+02
  -7.829226e-01   4.607295e+02
  -2.093679e+02   1.088802e+02
  -8.555327e+01  -2.745433e+02
   1.251948e+02  -4.040566e+02
   3.166167e+02  -3.234141e+01
   2.742088e+02   3.212326e+02
  -3.869197e+01   4.756640e+02
  -3.737119e+02   2.946800e+02
  -4.030909e+02  -1.294940e+02
  -1.595386e+02  -2.625916e+02
   3.690539e+01  -1.881928e+02
   3.780331e+00  -1.169374e+02
  -1.711225e+02  -1.530703e+02
  -1.686352e+02  -3.073894e+02
   8.136610e+01  -2.716605e+02
   4.348590e+02  -3.457956e+01
   4.436480e+02   2.073023e+02
   9.686043e+01   2.521819e+02
  -2.587638e+02   8.278219e+01
  -3.758056e+02  -1.398504e+02
  -1.319995e+02  -2.892008e+02
   2.122192e+02  -2.733898e+02
   3.608238e+02  -1.097760e+02
   2.754142e+02   1.281811e+02
   9.506380e+01   2.435534e+02
   3.217558e+01   1.512744e+02
   1.026812e+02  -4.773826e+01
   1.481451e+02  -8.758465e+01
   9.562633e+01   1.472091e+02
  -5.110248e+01   3.710670e+02
  -1.874048e+02   3.296823e+02
  -2.046229e+02   2.080720e+01
  -7.453075e+01  -1.931599e+02
   7.737782e+01  -6.219997e+01
   9.072219e+01   2.074820e+02
  -9.463589e+01   2.875578e+02
  -3.442000e+02   3.269520e+01
  -4.068522e+02  -3.103046e+02
  -1.584687e+02  -4.054816e+02
   2.272620e+02  -2.243581e+02
   4.342034e+02   3.798029e+01
   3.128938e+02   1.729332e+02
   5.666923e+00   1.619237e+02
  -2.055947e+02   9.607412e+01
  -1.881504e+02   3.613252e+01
  -5.132862e+01   5.341367e+00
   6.436454e+00   4.762435e+00
  -7.346000e+01   7.831734e+00
  -1.583317e+02  -3.607852e+01
  -8.724332e+01  -1.361255e+02
   1.304674e+02  -2.062947e+02
   3.008991e+02  -1.311954e+02
   2.405553e+02   9.573259e+01
  -2.820743e+01   3.150725e+02
  -2.851187e+02   3.348506e+02
  -3.366225e+02   1.228037e+02
  -1.980441e+02  -1.579782e+02
  -4.175284e+01  -3.045375e+02
   7.881572e+00  -2.720303e+02
  -1.663825e+00  -1.751030e+02
   4.106423e+01  -1.261754e+02
   1.539186e+02  -1.084498e+02
   2.383964e+02  -2.830803e+01
   1.996228e+02   1.238704e+02
   5.566823e+01   2.227447e+02
  -9.298990e+01   1.509856e+02
  -1.508735e+02  -5.531285e+01
  -8.646033e+01  -2.236957e+02
   6.742265e+01  -2.059175e+02
   2.159966e+02  -2.981140e+01
   2.494881e+02   1.655751e+02
   1.361718e+02   2.542566e+02
  -3.429297e+01   2.186040e+02
  -1.275645e+02   1.468097e+02
  -1.325023e+02   1.003857e+02
  -1.555109e+02   7.338081e+01
  -2.657043e+02   1.700672e+01
  -3.654729e+02  -1.120363e+02
  -2.714967e+02  -2.742819e+02
   3.962394e+01  -3.824076e+02
   3.508478e+02  -3.355605e+02
   4.204290e+02  -1.365723e+02
   2.337183e+02   9.159230e+01
   1.811305e+00   2.088194e+02
  -7.199547e+01   1.571727e+02
   1.517185e+01   3.528815e+01
   1.080957e+02  -1.415975e+01
   9.353190e+01   4.223711e+01
  -7.524720e+00   1.076652e+02
  -8.587468e+01   7.127999e+01
  -6.914708e+01  -4.091922e+01
   2.910133e+01  -8.859456e+01
   1.259608e+02   1.811357e+01
   1.189366e+02   2.074664e+02
  -2.359507e+01   2.984353e+02
  -2.234731e+02   1.826274e+02
  -3.275819e+02  -6.535178e+01
  -2.417039e+02  -2.512752e+02
  -3.553013e+01  -2.515540e+02
   1.243150e+02  -1.152225e+02
   1.248150e+02   4.370095e+00
   2.187333e+01   8.368134e+00
  -3.717918e+01  -6.331462e+01
   1.791198e+01  -9.789158e+01
   1.120145e+02  -4.702860e+01
   1.183702e+02   2.863242e+01
   1.784678e+01   4.146144e+01
  -7.202270e+01  -2.302475e+01
  -2.375999e+01  -8.936812e+01
   1.470157e+02  -7.461589e+01
   2.789688e+02   3.523912e+01
   2.240371e+02   1.716185e+02
   4.794013e+00   2.415117e+02
  -2.010196e+02   1.958605e+02
  -2.367594e+02   6.927803e+01
  -1.102649e+02  -4.162677e+01
   2.818011e+01  -5.677348e+01
   4.540970e+01   1.080878e+01
  -5.608246e+01   6.142161e+01
  -1.585869e+02   1.466322e+01
  -1.537938e+02  -9.640782e+01
  -4.225581e+01  -1.583741e+02
   7.695440e+01  -1.082700e+02
   1.034550e+02  -7.072873e+00
   3.214392e+01   3.100793e+01
  -4.211094e+01  -2.915215e+01
  -1.823330e+01  -1.078601e+02
   9.824980e+01  -1.031767e+02
   1.916817e+02   1.986501e+00
   1.528543e+02   1.280916e+02
  -1.341513e+00   1.790041e+02
  -1.381107e+02   1.216922e+02
  -1.451386e+02   7.875922e+00
  -4.151183e+01  -7.536551e+01
   5.433684e+01  -7.559300e+01
   5.711776e+01  -1.973536e+01
  -5.136137e+00   1.891490e+01
  -3.732379e+01   2.981924e+00
   8.944521e+00  -2.755252e+01
   8.568401e+01  -2.261947e+00
   9.933187e+01   8.904027e+01
   6.291714e+00   1.645771e+02
  -1.358142e+02   1.348318e+02
  -2.145551e+02  -1.960395e+00
  -1.654290e+02  -1.481495e+02
  -2.809370e+01  -1.992154e+02
   8.944381e+01  -1.359182e+02
   1.118921e+02  -2.684942e+01
   6.605246e+01   3.518659e+01
   3.314894e+01   2.382742e+01
   5.319367e+01  -1.163636e+01
   8.373453e+01  -3.607468e+00
   5.400897e+01   5.626392e+01
  -4.038181e+01   1.011954e+02
  -1.230250e+02   6.118328e+01
  -1.047618e+02  -4.739179e+01
   2.303534e+01  -1.241037e+02
   1.608736e+02  -7.785719e+01
   1.879709e+02   7.047618e+01
   6.387500e+01   1.968023e+02
  -1.252627e+02   1.903897e+02
  -2.398151e+02   5.952474e+01
  -2.097281e+02  -8.695192e+01
  -7.960267e+01  -1.473959e+02
   3.855910e+01  -1.165936e+02
   7.733256e+01  -6.704051e+01
   6.011232e+01  -6.253979e+01
   5.120507e+01  -8.754333e+01
   8.311041e+01  -7.390013e+01
   1.197543e+02   1.781004e+01
   1.036316e+02   1.435258e+02
   1.592233e+01   2.054129e+02
  -9.576910e+01   1.448409e+02
  -1.504349e+02   2.460738e-01
  -1.047033e+02  -1.210355e+02
   5.327221e-01  -1.388000e+02
   7.232901e+01  -6.551711e+01
   5.523495e+01   1.956994e+01
  -9.826619e+00   5.126019e+01
  -3.130620e+01   3.217511e+01
   2.314078e+01   1.001537e+01
   8.110880e+01   1.724279e+01
   4.802303e+01   3.855122e+01
  -7.257742e+01   3.615566e+01
  -1.668910e+02  -6.649970e+00
  -1.327663e+02  -6.512101e+01
   7.840339e+00  -9.316317e+01
   1.289296e+02  -6.519348e+01
   1.322475e+02   4.944007e-01
   3.811217e+01   5.029372e+01
  -5.424906e+01   4.082968e+01
  -7.088132e+01  -1.958741e+01
  -2.055487e+01  -7.161517e+01
   3.933265e+01  -6.244421e+01
   6.559972e+01  -8.941181e-01
   5.806511e+01   4.884563e+01
   4.496385e+01   4.031566e+01
   4.799663e+01   1.389384e+00
   5.950493e+01   2.923201e+00
   4.394283e+01   7.060392e+01
  -2.552693e+01   1.426836e+02
  -1.228732e+02   1.316908e+02
  -1.734364e+02   2.646120e+01
  -1.202383e+02  -9.025475e+01
   3.601281e+00  -1.241919e+02
   8.950772e+01  -6.565796e+01
   5.858525e+01   7.607211e+00
  -5.182691e+01   1.788387e+01
  -1.180921e+02  -3.808707e+01
  -5.942177e+01  -9.580014e+01
   7.825936e+01  -9.433092e+01
   1.700487e+02  -3.171890e+01
   1.373499e+02   4.333529e+01
   2.267182e+01   7.591125e+01
  -6.077794e+01   4.825918e+01
  -4.324700e+01  -7.033504e+00
   3.862446e+01  -2.923216e+01
   8.556014e+01   1.874365e+01
   3.791280e+01   1.046179e+02
  -6.797341e+01   1.408412e+02
  -1.383815e+02   6.532722e+01
  -1.123742e+02  -7.922505e+01
  -1.481869e+01  -1.701388e+02
   7.377063e+01  -1.229884e+02
   9.276540e+01   1.383008e+01
   4.529035e+01   1.091022e+02
  -1.780811e+01   8.997632e+01
  -4.827644e+01   1.084894e+01
  -3.640990e+01  -2.818497e+01
  -1.023563e+01  -4.667783e+00
  -6.519516e+00   1.518782e+01
  -3.285120e+01  -2.206178e+01
  -5.363828e+01  -8.224471e+01
  -2.416367e+01  -9.284415e+01
   5.517705e+01  -3.671773e+01
   1.213876e+02   3.297105e+01
   1.067168e+02   6.289514e+01
   1.641527e+01   5.037574e+01
  -6.884253e+01   2.502780e+01
  -7.621180e+01   3.532279e+00
  -1.837041e+01  -1.261909e+01
   2.839374e+01  -1.791070e+01
   1.932199e+01  -7.770009e+00
  -1.057752e+01   5.253691e+00
   9.448533e-01   3.671374e+00
   5.547380e+01  -2.626694e+00
   8.276081e+01   1.927182e+01
   2.428460e+01   7.319361e+01
  -9.244265e+01   1.068223e+02
  -1.714207e+02   6.171199e+01
  -1.436300e+02  -4.993501e+01
  -3.235794e+01  -1.428960e+02
   7.397825e+01  -1.432381e+02
   1.079773e+02  -6.376135e+01
   7.402193e+01   1.544241e+01
   2.538504e+01   3.582291e+01
   5.003604e+00   1.453882e+01
   1.469513e+01   9.838447e+00
   2.644939e+01   4.606285e+01
   1.418224e+01   8.337585e+01
  -2.644044e+01   6.594364e+01
  -7.002092e+01  -1.094362e+01
  -7.449844e+01  -8.825713e+01
  -1.821533e+01  -9.920606e+01
   6.438987e+01  -3.350357e+01
   9.758260e+01   5.307851e+01
   4.068676e+01   9.291381e+01
  -5.647857e+01   6.300307e+01
  -9.663642e+01  -3.878534e+00
  -4.425942e+01  -5.481614e+01
   3.158057e+01  -5.924819e+01
   3.957847e+01  -2.631446e+01
  -2.118000e+01   8.217326e+00
  -6.233754e+01   9.218111e+00
  -1.927317e+01  -2.597321e+01
   6.943813e+01  -5.918636e+01
   1.108636e+02  -4.597997e+01
   6.717173e+01   1.690626e+01
  -1.129453e+01   7.703138e+01
  -5.451332e+01   7.573793e+01
  -4.400090e+01   1.365837e+01
  -8.421839e+00  -4.642748e+01
   2.123331e+01  -4.613982e+01
   3.398714e+01   6.498068e+00
   2.678401e+01   4.964739e+01
   3.682220e-02   3.974409e+01
  -3.048491e+01  -3.084054e+00
  -3.893695e+01  -2.516546e+01
  -1.882457e+01  -5.754443e+00
   4.526518e+00   2.160596e+01
   4.692019e+00   1.301586e+01
  -9.691360e+00  -2.793030e+01
  -6.639216e+00  -5.310069e+01
   2.249277e+01  -2.737218e+01
   4.359440e+01   2.685462e+01
   2.011516e+01   5.375737e+01
  -3.386234e+01   2.591814e+01
  -5.994508e+01  -2.652557e+01
  -2.054332e+01  -5.251691e+01
   5.251290e+01  -3.303530e+01
   8.632019e+01   8.500132e+00
   4.622055e+01   3.862020e+01
  -2.636265e+01   4.335610e+01
  -5.936035e+01   2.845799e+01
  -2.779086e+01   6.338134e+00
   2.210763e+01  -6.742502e+00
   2.871524e+01   1.004826e+00
  -1.662184e+01   2.102017e+01
  -6.357541e+01   2.083275e+01
