
 $NMID
 id='ANONYMOUS ', fmtdat='(2E16.6)'
 volume=1.0
 tramp=1.0
 $END
   3.554291e+03   9.096948e+01
   2.188977e+03   1.825540e+03
  -1.297489e+02   2.413656e+03
  -1.554263e+03   1.115592e+03
  -9.124174e+02  -6.071390e+01
   8.299894e+01  -2.249118e+02
   4.309531e+02   2.281947e+02
  -1.284035e+01   7.223090e+02
  -5.711515e+02   6.211326e+02
  -7.265538e+02   2.299829e+01
  -4.450542e+02  -6.676406e+02
   1.460784e+02  -7.626496e+02
   4.265590e+02  -1.741302e+02
   3.037421e+02   4.359376e+02
  -1.624787e+02   5.801084e+02
  -4.937886e+02   7.524714e+01
  -3.034323e+02  -5.596013e+02
   1.696026e+02  -6.667234e+02
   5.060956e+02  -2.137589e+02
   4.198122e+02   2.066450e+02
   9.180464e+01   3.765861e+02
  -1.357955e+02   2.550401e+02
  -6.239349e+01   5.988766e+01
   1.768984e+02   6.924473e+01
   3.382981e+02   2.634386e+02
  -7.725277e-01   3.560154e+02
  -4.584533e+02   2.192301e+02
  -6.426603e+02  -1.823512e+02
  -2.279610e+02  -3.889959e+02
   3.601451e+02  -2.334046e+02
   5.428787e+02   1.353288e+02
   2.232573e+02   4.288768e+02
  -2.812601e+02   3.957235e+02
  -5.269546e+02   1.213195e+02
  -3.510936e+02  -1.956044e+02
  -7.079927e+01  -3.462866e+02
   6.307453e+01  -1.906202e+02
   2.846279e-01   1.035114e+02
  -1.873150e+02   1.988436e+02
  -2.312612e+02  -1.423196e+02
  -2.866570e+01  -5.267140e+02
   2.733144e+02  -4.684671e+02
   3.715689e+02   3.727276e+00
   1.511144e+02   3.420363e+02
  -1.609278e+02   1.600919e+02
  -2.090369e+02  -2.814727e+02
   8.821185e+01  -4.058910e+02
   4.676557e+02  -7.202455e+01
   5.399002e+02   3.683961e+02
   1.941948e+02   5.249651e+02
  -3.157301e+02   3.130119e+02
  -5.684992e+02  -4.583730e+01
  -3.646049e+02  -2.795275e+02
   6.759488e+01  -2.654338e+02
   3.219383e+02  -8.919231e+01
   2.246802e+02   5.140226e+01
  -7.348595e+00   3.491768e+01
  -5.719701e+01  -5.871646e+01
   1.098990e+02  -6.284647e+01
   2.372152e+02   6.152327e+01
   1.182412e+02   1.979263e+02
  -1.587449e+02   2.282459e+02
  -3.348943e+02   1.239631e+02
  -2.543766e+02  -8.272037e+01
   1.916104e+01  -3.009802e+02
   2.875753e+02  -3.702400e+02
   3.757283e+02  -1.762952e+02
   2.528923e+02   1.697063e+02
   5.082999e+01   3.897264e+02
  -6.043199e+01   3.394342e+02
  -5.019923e+01   1.653019e+02
  -4.114713e+01   8.618763e+01
  -1.315598e+02   1.076746e+02
  -2.509488e+02   6.017516e+01
  -2.522721e+02  -1.192364e+02
  -9.727721e+01  -2.693008e+02
   9.987706e+01  -2.088972e+02
   2.021680e+02   3.294918e+01
   1.402752e+02   2.508878e+02
  -5.444424e+01   2.612589e+02
  -2.585801e+02   6.331478e+01
  -3.140551e+02  -1.853838e+02
  -1.605211e+02  -3.122304e+02
   6.537102e+01  -2.733535e+02
   1.769753e+02  -1.533398e+02
   1.509197e+02  -7.529499e+01
   1.504045e+02  -6.266821e+01
   2.822405e+02  -2.361191e+01
   4.170613e+02   1.088196e+02
   3.163532e+02   3.054757e+02
  -3.036926e+01   4.330362e+02
  -3.950934e+02   3.910943e+02
  -4.943815e+02   1.724917e+02
  -2.979065e+02  -1.042753e+02
  -1.616592e+01  -2.627468e+02
   1.134045e+02  -2.104915e+02
   2.593484e+01  -3.743662e+01
  -1.233785e+02   5.017042e+01
  -1.444052e+02  -3.980831e+01
  -1.047305e+01  -1.563261e+02
   1.298616e+02  -1.142033e+02
   1.207791e+02   5.607449e+01
  -2.562169e+01   1.408806e+02
  -1.633979e+02   1.376873e+00
  -1.480135e+02  -2.413154e+02
   2.628374e+01  -3.462018e+02
   2.435651e+02  -2.058794e+02
   3.556018e+02   6.614284e+01
   2.795907e+02   2.669133e+02
   6.301632e+01   2.782649e+02
  -1.281181e+02   1.437094e+02
  -1.539032e+02   6.840282e+00
  -3.840510e+01  -1.547430e+01
   5.102944e+01   6.027218e+01
  -3.785532e+00   1.151915e+02
  -1.280710e+02   6.837737e+01
  -1.527085e+02  -2.743579e+01
  -3.410738e+01  -5.699177e+01
   8.412955e+01   1.168950e+01
   4.085902e+01   9.421323e+01
  -1.522846e+02   8.876465e+01
  -3.117288e+02  -2.505062e+01
  -2.664189e+02  -1.804530e+02
  -2.688257e+01  -2.769762e+02
   2.214701e+02  -2.434701e+02
   2.867320e+02  -9.499909e+01
   1.482040e+02   5.618182e+01
  -3.180034e+01   8.764309e+01
  -7.136246e+01  -2.868703e+00
   5.110165e+01  -8.300062e+01
   1.897261e+02  -3.274768e+01
   1.931709e+02   1.103976e+02
   5.539476e+01   1.963721e+02
  -9.539588e+01   1.405008e+02
  -1.335321e+02   1.566322e+01
  -5.162839e+01  -4.206652e+01
   4.185070e+01   1.544043e+01
   2.945428e+01   1.075767e+02
  -9.622928e+01   1.186440e+02
  -2.117457e+02   1.169285e+01
  -1.809831e+02  -1.390314e+02
  -5.196886e+00  -2.137733e+02
   1.629576e+02  -1.512391e+02
   1.783009e+02  -5.465689e+00
   5.438711e+01   1.029456e+02
  -6.567853e+01   1.003256e+02
  -7.444658e+01   2.508997e+01
  -4.507675e+00  -2.812672e+01
   3.619411e+01  -1.261655e+01
  -7.384614e+00   2.308530e+01
  -8.654802e+01   4.328555e-01
  -1.050200e+02  -9.197772e+01
  -1.031519e+01  -1.759623e+02
   1.446730e+02  -1.528823e+02
   2.439777e+02  -8.402601e+00
   1.949386e+02   1.618042e+02
   3.514903e+01   2.322552e+02
  -1.062844e+02   1.623011e+02
  -1.333592e+02   3.066631e+01
  -7.396971e+01  -4.707461e+01
  -3.300617e+01  -3.203594e+01
  -5.616691e+01   1.504992e+01
  -8.771099e+01   8.913723e+00
  -5.579740e+01  -5.551670e+01
   3.946037e+01  -1.056482e+02
   1.201528e+02  -7.010031e+01
   1.046268e+02   4.175454e+01
  -1.901881e+01   1.272187e+02
  -1.635019e+02   8.727212e+01
  -2.034964e+02  -6.931618e+01
  -7.944646e+01  -2.165588e+02
   1.320763e+02  -2.228658e+02
   2.736962e+02  -7.717635e+01
   2.458296e+02   9.995410e+01
   9.640492e+01   1.790421e+02
  -4.497111e+01   1.417198e+02
  -9.459676e+01   7.819335e+01
  -7.506975e+01   6.674977e+01
  -6.222167e+01   9.330227e+01
  -9.293557e+01   7.849822e+01
  -1.329535e+02  -2.242466e+01
  -1.183785e+02  -1.599628e+02
  -2.286511e+01  -2.296076e+02
   1.053465e+02  -1.665748e+02
   1.733178e+02  -9.066685e+00
   1.264395e+02   1.293564e+02
   8.522980e+00   1.581132e+02
  -7.483209e+01   8.270805e+01
  -6.182895e+01  -1.208545e+01
   2.852400e+00  -5.222822e+01
   2.405313e+01  -3.592461e+01
  -2.941074e+01  -1.294597e+01
  -8.475150e+01  -1.911829e+01
  -4.947261e+01  -4.172172e+01
   7.405995e+01  -4.129012e+01
   1.760609e+02   2.043761e+00
   1.482582e+02   6.618477e+01
   2.063442e+00   1.021783e+02
  -1.360382e+02   7.666009e+01
  -1.499361e+02   6.154637e+00
  -4.722372e+01  -5.056607e+01
   6.021770e+01  -4.323378e+01
   7.859171e+01   1.938778e+01
   1.665284e+01   7.471131e+01
  -4.975240e+01   6.565292e+01
  -7.027503e+01   1.851687e+00
  -5.726333e+01  -5.148730e+01
  -4.851521e+01  -4.505535e+01
  -5.782362e+01  -4.280529e+00
  -6.627071e+01  -3.834926e+00
  -4.294931e+01  -7.421235e+01
   3.004985e+01  -1.530922e+02
   1.279503e+02  -1.456146e+02
   1.816540e+02  -3.333324e+01
   1.311915e+02   9.512773e+01
   1.822203e+00   1.334469e+02
  -9.431242e+01   6.906647e+01
  -6.304651e+01  -1.172561e+01
   5.977775e+01  -2.165025e+01
   1.370608e+02   4.274547e+01
   7.174660e+01   1.096084e+02
  -8.629322e+01   1.115116e+02
  -1.928889e+02   4.338158e+01
  -1.585880e+02  -4.418309e+01
  -2.979395e+01  -8.804234e+01
   6.608705e+01  -6.180073e+01
   4.901952e+01   1.908223e+00
  -4.092467e+01   3.124384e+01
  -9.311054e+01  -2.065721e+01
  -3.881538e+01  -1.171617e+02
   8.144553e+01  -1.567223e+02
   1.600102e+02  -6.997563e+01
   1.275931e+02   9.286670e+01
   1.509268e+01   1.946147e+02
  -8.480807e+01   1.427874e+02
  -1.063776e+02  -1.116096e+01
  -5.575448e+01  -1.227428e+02
   1.407668e+01  -1.063557e+02
   5.327099e+01  -1.615740e+01
   4.672729e+01   3.381031e+01
   1.730052e+01   9.070469e+00
   5.331151e+00  -1.821765e+01
   3.035593e+01   1.974993e+01
   5.906764e+01   9.131912e+01
   3.341057e+01   1.090106e+02
  -5.645571e+01   4.521824e+01
  -1.386827e+02  -3.820188e+01
  -1.260591e+02  -7.250523e+01
  -1.923054e+01  -5.520965e+01
   8.205198e+01  -2.582679e+01
   8.848936e+01  -5.305435e+00
   1.830614e+01   1.144591e+01
  -3.455586e+01   2.171056e+01
  -1.971143e+01   1.377495e+01
   1.483184e+01  -3.544590e+00
  -2.969197e+00  -6.537900e+00
  -6.645242e+01  -1.244237e-01
  -9.270402e+01  -2.164880e+01
  -2.142188e+01  -8.029598e+01
   1.077700e+02  -1.181868e+02
   1.896048e+02  -6.729171e+01
   1.557451e+02   5.847258e+01
   3.486998e+01   1.612111e+02
  -8.041190e+01   1.582371e+02
  -1.190210e+02   6.812705e+01
  -8.270861e+01  -1.828119e+01
  -2.692608e+01  -3.768519e+01
  -2.254428e+00  -1.211925e+01
  -1.487457e+01  -7.160990e+00
  -3.238950e+01  -4.916024e+01
  -1.909745e+01  -9.295314e+01
   2.992061e+01  -7.398531e+01
   7.980834e+01   1.450254e+01
   8.079657e+01   1.033361e+02
   1.414599e+01   1.126059e+02
  -7.601996e+01   3.291683e+01
  -1.070870e+02  -6.549548e+01
  -4.094846e+01  -1.043408e+02
   6.426071e+01  -6.589922e+01
   1.051625e+02   6.544637e+00
   4.680363e+01   5.786800e+01
  -3.430846e+01   6.265518e+01
  -4.027679e+01   3.024240e+01
   2.725792e+01  -6.137580e+00
   7.125130e+01  -1.011212e+01
   2.068495e+01   2.786360e+01
  -7.840303e+01   6.920073e+01
  -1.234050e+02   5.753024e+01
  -7.427205e+01  -1.504966e+01
   1.146970e+01  -8.674081e+01
   5.709174e+01  -8.579816e+01
   4.484873e+01  -1.366385e+01
   7.526533e+00   5.326084e+01
  -2.336709e+01   4.889820e+01
  -3.679481e+01  -1.110153e+01
  -2.892844e+01  -5.509738e+01
   2.820977e-01  -4.021739e+01
   3.332949e+01   5.720310e+00
   4.236251e+01   2.628257e+01
   2.109702e+01   5.005996e+00
  -4.107489e+00  -2.030895e+01
  -7.635281e+00  -8.686159e+00
   3.132186e+00   3.174348e+01
  -1.513592e+00   5.226396e+01
  -2.702218e+01   2.154595e+01
  -4.118525e+01  -3.528364e+01
  -1.346107e+01  -6.004283e+01
   3.995215e+01  -2.672818e+01
   6.346920e+01   3.161788e+01
   2.103104e+01   5.958992e+01
  -5.636940e+01   3.665217e+01
  -9.402818e+01  -1.037741e+01
  -5.153756e+01  -4.310523e+01
   2.913775e+01  -4.627719e+01
   6.671571e+01  -2.848202e+01
   2.930772e+01  -6.452048e+00
  -2.953428e+01   4.153109e+00
  -3.476203e+01  -6.121643e+00
   2.323622e+01  -2.587531e+01
   7.919909e+01  -2.171441e+01
