
 $NMID
 id='ANONYMOUS ', fmtdat='(2E16.6)'
 volume=1.0
 tramp=1.0
 $END
  -4.167132e+03   4.581994e+01
  -2.604048e+03  -2.317686e+03
   4.669112e+02  -2.586291e+03
   1.831264e+03  -9.942880e+02
   7.927974e+02   5.016948e+02
  -3.219210e+02   5.431972e+02
  -7.396674e+02  -3.792238e+02
  -8.158371e+01  -9.845808e+02
   6.151888e+02  -6.424237e+02
   8.856782e+02   5.887501e+01
   5.409934e+02   7.603888e+02
  -2.470820e+02   9.135790e+02
  -5.764771e+02   1.583503e+02
  -3.260959e+02  -6.532246e+02
   2.564423e+02  -6.936681e+02
   5.540881e+02  -2.628251e+01
   2.420311e+02   6.256584e+02
  -2.082353e+02   5.915240e+02
  -5.429738e+02   1.583441e+02
  -4.098908e+02  -2.702522e+02
  -2.444697e+01  -4.151817e+02
   2.195687e+02  -2.786404e+02
   1.691596e+02  -3.563241e+01
  -1.323340e+02   3.694546e+01
  -4.115276e+02  -1.593477e+02
  -1.362127e+02  -4.025549e+02
   4.850784e+02  -3.605544e+02
   8.086695e+02   1.197740e+02
   3.601589e+02   5.125575e+02
  -3.875302e+02   3.952592e+02
  -6.794684e+02  -7.776189e+01
  -3.065463e+02  -4.710654e+02
   2.739253e+02  -4.577724e+02
   5.505171e+02  -1.669576e+02
   3.974395e+02   2.054220e+02
   8.192637e+01   4.148220e+02
  -1.423448e+02   2.390716e+02
  -1.130544e+02  -1.740577e+02
   1.640283e+02  -3.593586e+02
   3.646709e+02   4.629680e+01
   1.890199e+02   6.002128e+02
  -2.837130e+02   6.108854e+02
  -5.052046e+02   1.604146e+01
  -2.167271e+02  -4.784210e+02
   2.260421e+02  -2.685032e+02
   3.137708e+02   3.028234e+02
  -5.775657e+01   5.076509e+02
  -5.125061e+02   1.156347e+02
  -5.679854e+02  -4.026432e+02
  -1.715531e+02  -5.741395e+02
   3.634998e+02  -3.381963e+02
   6.115508e+02   6.356552e+01
   3.725434e+02   3.487284e+02
  -1.174331e+02   3.382507e+02
  -3.975900e+02   8.050612e+01
  -2.414630e+02  -1.378244e+02
   7.023612e+01  -8.983957e+01
   1.135667e+02   1.019618e+02
  -1.299542e+02   1.275247e+02
  -2.887134e+02  -7.359396e+01
  -1.238646e+02  -2.564606e+02
   1.908141e+02  -2.345523e+02
   3.419472e+02  -7.702003e+01
   2.339480e+02   9.339976e+01
  -1.303964e+01   2.561938e+02
  -2.515612e+02   3.481765e+02
  -3.678262e+02   2.135651e+02
  -2.872000e+02  -1.421449e+02
  -6.294302e+01  -4.248702e+02
   1.084441e+02  -3.778184e+02
   1.010049e+02  -1.301974e+02
   2.430570e+01  -9.377479e+00
   6.340951e+01  -8.167416e+01
   2.086223e+02  -1.071079e+02
   2.697245e+02   6.444481e+01
   1.367924e+02   2.612762e+02
  -8.171922e+01   2.364658e+02
  -2.148716e+02  -7.453148e+00
  -1.694437e+02  -2.443921e+02
   3.148253e+01  -2.778586e+02
   2.587760e+02  -9.101614e+01
   3.360556e+02   1.727162e+02
   1.736312e+02   3.330367e+02
  -8.308995e+01   2.897925e+02
  -2.033074e+02   1.271095e+02
  -1.505037e+02   2.526606e+01
  -1.150114e+02   4.136943e+01
  -2.383865e+02   5.109297e+01
  -3.914144e+02  -6.578994e+01
  -3.210164e+02  -2.777557e+02
   4.372213e+00  -4.277401e+02
   3.626038e+02  -3.987277e+02
   4.845008e+02  -1.877226e+02
   3.193592e+02   9.584256e+01
   3.794377e+01   2.814852e+02
  -1.276373e+02   2.392853e+02
  -6.346025e+01   3.563167e+01
   1.112721e+02  -8.760090e+01
   1.735000e+02   1.444684e+01
   3.338860e+01   1.794639e+02
  -1.518498e+02   1.522723e+02
  -1.598368e+02  -5.835960e+01
   1.779465e+01  -1.789842e+02
   1.813985e+02  -2.944026e+01
   1.572075e+02   2.379871e+02
  -2.642364e+01   3.463105e+02
  -2.281469e+02   1.981685e+02
  -3.291899e+02  -6.167340e+01
  -2.741348e+02  -2.446062e+02
  -8.423899e+01  -2.655949e+02
   1.173813e+02  -1.545506e+02
   1.700123e+02  -1.603451e+01
   5.429601e+01   2.831523e+01
  -6.338743e+01  -4.202026e+01
  -2.167027e+01  -1.177528e+02
   1.214550e+02  -8.795119e+01
   1.694498e+02   1.585299e+01
   5.188684e+01   6.440313e+01
  -8.040565e+01   5.543635e+00
  -5.067545e+01  -7.918120e+01
   1.320694e+02  -8.331447e+01
   2.888630e+02   1.349001e+01
   2.578644e+02   1.541471e+02
   4.187712e+01   2.561274e+02
  -1.984413e+02   2.454017e+02
  -2.800833e+02   1.090835e+02
  -1.569177e+02  -5.486819e+01
   2.982525e+01  -1.021013e+02
   8.493244e+01  -4.887950e+00
  -3.711388e+01   9.503137e+01
  -1.906044e+02   5.155454e+01
  -2.054455e+02  -1.033073e+02
  -6.556586e+01  -2.033814e+02
   9.486314e+01  -1.535480e+02
   1.432911e+02  -2.639526e+01
   6.723420e+01   4.147113e+01
  -3.195118e+01  -9.495941e-01
  -3.659735e+01  -8.721235e+01
   7.741139e+01  -1.120919e+02
   2.012614e+02  -2.405044e+01
   1.886726e+02   1.248051e+02
   1.843435e+01   2.133834e+02
  -1.619077e+02   1.598427e+02
  -1.885686e+02   7.990034e+00
  -6.276085e+01  -1.093349e+02
   6.673907e+01  -1.082883e+02
   8.294351e+01  -2.873786e+01
   1.709118e+01   2.883471e+01
  -2.561357e+01   1.991709e+01
   5.904207e+00  -1.126539e+01
   7.093685e+01   3.699133e+00
   9.169337e+01   8.038114e+01
   1.678237e+01   1.607739e+02
  -1.256344e+02   1.537373e+02
  -2.319380e+02   2.412036e+01
  -1.990950e+02  -1.495021e+02
  -4.222454e+01  -2.329133e+02
   1.056708e+02  -1.665345e+02
   1.339870e+02  -2.812291e+01
   7.041304e+01   5.253425e+01
   2.874220e+01   3.496685e+01
   5.253996e+01  -1.266372e+01
   8.066628e+01  -6.954602e+00
   4.604750e+01   5.034183e+01
  -4.025411e+01   9.101343e+01
  -1.058585e+02   5.819593e+01
  -9.177269e+01  -3.662295e+01
   1.111802e+01  -1.128926e+02
   1.422715e+02  -8.615842e+01
   1.959116e+02   5.281716e+01
   9.681721e+01   1.990491e+02
  -1.081680e+02   2.212687e+02
  -2.632137e+02   9.187682e+01
  -2.512083e+02  -8.448016e+01
  -1.048560e+02  -1.735154e+02
   3.923280e+01  -1.439040e+02
   9.228357e+01  -8.174615e+01
   7.607231e+01  -6.697986e+01
   6.301868e+01  -8.868340e+01
   8.908623e+01  -7.319477e+01
   1.251782e+02   2.119776e+01
   1.141761e+02   1.506855e+02
   2.713652e+01   2.202623e+02
  -9.781718e+01   1.656672e+02
  -1.709389e+02   1.641419e+01
  -1.311473e+02  -1.212843e+02
  -1.596159e+01  -1.562029e+02
   6.908121e+01  -8.857499e+01
   6.089927e+01   2.352260e+00
   2.814884e+00   4.471949e+01
  -1.533517e+01   3.446194e+01
   3.256817e+01   1.507852e+01
   8.022931e+01   1.888201e+01
   4.755271e+01   3.782711e+01
  -6.400851e+01   3.996760e+01
  -1.605022e+02   4.708357e+00
  -1.433056e+02  -5.419930e+01
  -1.207385e+01  -9.343890e+01
   1.226576e+02  -7.588883e+01
   1.443097e+02  -1.136448e+01
   4.821902e+01   4.426015e+01
  -5.767275e+01   3.950071e+01
  -7.430508e+01  -1.821447e+01
  -1.019541e+01  -6.795945e+01
   5.222973e+01  -5.808688e+01
   6.348801e+01   9.640687e-01
   4.707187e+01   4.895967e+01
   4.422056e+01   4.208073e+01
   5.904969e+01   4.378745e+00
   6.409928e+01   3.366947e+00
   3.606862e+01   6.882355e+01
  -3.151858e+01   1.441695e+02
  -1.173334e+02   1.392361e+02
  -1.661879e+02   3.280973e+01
  -1.242396e+02  -9.028202e+01
  -6.556519e+00  -1.259536e+02
   8.612464e+01  -6.261284e+01
   6.031363e+01   1.398655e+01
  -5.709464e+01   2.023906e+01
  -1.342084e+02  -4.302169e+01
  -7.349079e+01  -1.065649e+02
   8.034252e+01  -1.098011e+02
   1.874651e+02  -4.740266e+01
   1.577554e+02   3.713744e+01
   3.424876e+01   8.546856e+01
  -6.090491e+01   6.603861e+01
  -4.794928e+01   4.617784e+00
   3.732458e+01  -2.703373e+01
   8.752171e+01   2.202627e+01
   3.304663e+01   1.150563e+02
  -8.628155e+01   1.500185e+02
  -1.611623e+02   6.142220e+01
  -1.242582e+02  -9.665376e+01
  -1.118105e+01  -1.919119e+02
   8.493121e+01  -1.397126e+02
   1.045640e+02   8.730472e+00
   5.809451e+01   1.175633e+02
  -7.212294e+00   1.046200e+02
  -4.911891e+01   1.864048e+01
  -5.001549e+01  -3.164390e+01
  -2.248084e+01  -8.740474e+00
  -4.756155e+00   1.972909e+01
  -2.447921e+01  -1.621220e+01
  -5.620323e+01  -8.874027e+01
  -3.788552e+01  -1.092922e+02
   5.018977e+01  -4.588220e+01
   1.363526e+02   3.838224e+01
   1.260429e+02   7.135213e+01
   1.741521e+01   5.167710e+01
  -8.440243e+01   2.328725e+01
  -8.678468e+01   6.553301e+00
  -1.344279e+01  -9.346031e+00
   3.626286e+01  -2.280455e+01
   1.585779e+01  -1.743397e+01
  -1.828991e+01   1.683173e+00
   5.018348e+00   8.328465e+00
   7.037010e+01   2.698828e+00
   9.102834e+01   2.251412e+01
   1.481130e+01   7.874674e+01
  -1.104344e+02   1.141410e+02
  -1.831269e+02   6.191055e+01
  -1.456214e+02  -6.148173e+01
  -3.106220e+01  -1.578008e+02
   7.659638e+01  -1.501181e+02
   1.139631e+02  -6.176721e+01
   8.090293e+01   1.866686e+01
   2.605926e+01   3.486670e+01
  -7.581386e-01   1.015681e+01
   1.155934e+01   6.052054e+00
   3.169805e+01   4.671274e+01
   1.986098e+01   8.920568e+01
  -3.005499e+01   7.044647e+01
  -7.940947e+01  -1.752995e+01
  -7.601531e+01  -1.050470e+02
  -6.289401e+00  -1.102650e+02
   7.922868e+01  -2.637620e+01
   1.017086e+02   7.078657e+01
   3.297096e+01   1.019235e+02
  -6.566842e+01   5.791404e+01
  -9.881726e+01  -1.041787e+01
  -4.045872e+01  -5.274032e+01
   3.343990e+01  -5.528689e+01
   3.398649e+01  -2.922497e+01
  -3.116512e+01   1.552743e+00
  -6.896850e+01   6.809360e+00
  -1.663205e+01  -2.624408e+01
   7.840243e+01  -6.650794e+01
   1.177439e+02  -5.726162e+01
   6.796930e+01   1.326540e+01
  -1.328784e+01   8.336099e+01
  -5.377577e+01   8.048804e+01
  -3.961757e+01   8.370197e+00
  -3.690728e+00  -5.370727e+01
   2.465025e+01  -4.365015e+01
   3.561745e+01   1.588892e+01
   2.641098e+01   5.309744e+01
  -2.028102e+00   3.378423e+01
  -3.215567e+01  -8.036849e+00
  -3.933151e+01  -2.242030e+01
  -2.047158e+01  -2.237616e+00
   1.756853e+00   1.576562e+01
   7.064750e+00   4.704723e-01
   3.823519e+00  -3.511944e+01
   1.219386e+01  -4.665633e+01
   3.078453e+01  -1.155251e+01
   3.422885e+01   4.196466e+01
   3.697658e+00   6.059082e+01
  -4.242829e+01   2.291658e+01
  -5.849209e+01  -3.550501e+01
  -1.765053e+01  -6.028368e+01
   5.287504e+01  -3.377968e+01
   8.793524e+01   1.335596e+01
   4.906998e+01   4.198078e+01
  -2.761503e+01   4.053939e+01
  -6.402998e+01   2.250641e+01
  -2.591253e+01   4.964857e+00
   3.389832e+01  -1.862682e-01
   3.722142e+01   1.211575e+01
  -2.571414e+01   2.932601e+01
  -8.455882e+01   2.091407e+01
