
 $NMID
 id='ANONYMOUS ', fmtdat='(2E16.6)'
 volume=1.0
 tramp=1.0
 $END
  -4.043910e+03   2.882721e+02
  -2.402753e+03  -2.244817e+03
   4.422422e+02  -2.497568e+03
   1.673209e+03  -1.108636e+03
   9.703902e+02   5.057756e+02
  -2.723696e+02   5.599212e+02
  -7.763430e+02  -2.690687e+02
  -1.355244e+02  -8.423198e+02
   6.227991e+02  -7.315854e+02
   7.802424e+02  -1.048215e+02
   4.338326e+02   7.323116e+02
  -1.244367e+02   8.365536e+02
  -4.798074e+02   2.182912e+02
  -3.882894e+02  -6.110214e+02
   2.419784e+02  -7.005038e+02
   5.742504e+02  -2.823467e+01
   2.732155e+02   6.392266e+02
  -2.480234e+02   6.613360e+02
  -5.430596e+02   1.442771e+02
  -3.594080e+02  -2.503047e+02
  -1.810405e+00  -3.299260e+02
   2.026755e+02  -2.655836e+02
   1.562177e+02  -2.219089e+01
  -1.443246e+02   7.494283e+01
  -3.769789e+02  -1.532989e+02
  -1.615181e+02  -4.261829e+02
   4.399290e+02  -3.795304e+02
   7.724437e+02   8.234620e+01
   3.807424e+02   5.293968e+02
  -3.519095e+02   4.115934e+02
  -6.673363e+02  -7.129959e+01
  -2.921956e+02  -4.680012e+02
   2.700525e+02  -4.520344e+02
   5.012075e+02  -1.668805e+02
   3.741197e+02   2.051010e+02
   6.161624e+01   4.031222e+02
  -1.660851e+02   2.685972e+02
  -1.351342e+02  -1.735544e+02
   1.764073e+02  -3.940648e+02
   4.070294e+02   1.672980e+01
   2.060637e+02   6.033376e+02
  -3.113301e+02   6.298817e+02
  -5.629210e+02   9.644313e+00
  -2.129412e+02  -5.103745e+02
   2.819248e+02  -2.922949e+02
   3.523407e+02   3.048620e+02
  -7.857643e+01   5.063324e+02
  -5.286923e+02   1.136556e+02
  -5.444826e+02  -3.934405e+02
  -1.298726e+02  -5.440718e+02
   3.702044e+02  -2.972026e+02
   5.778418e+02   9.260632e+01
   3.250005e+02   3.615594e+02
  -1.593031e+02   3.255440e+02
  -4.088389e+02   4.382206e+01
  -2.160257e+02  -1.810203e+02
   1.141797e+02  -1.024645e+02
   1.388177e+02   1.353348e+02
  -1.394627e+02   1.780963e+02
  -3.074211e+02  -4.840716e+01
  -1.291371e+02  -2.600778e+02
   1.757511e+02  -2.351523e+02
   2.894188e+02  -6.620403e+01
   1.739937e+02   8.396357e+01
  -1.979166e+01   2.070609e+02
  -1.977329e+02   2.916281e+02
  -3.122939e+02   1.925829e+02
  -2.745123e+02  -1.268898e+02
  -7.208435e+01  -3.959695e+02
   1.143110e+02  -3.466544e+02
   1.151614e+02  -9.995803e+01
   1.546108e+01   9.030760e+00
   3.079340e+01  -8.413493e+01
   1.813226e+02  -1.210332e+02
   2.631515e+02   5.114890e+01
   1.476348e+02   2.481400e+02
  -6.905968e+01   2.297643e+02
  -2.084315e+02   5.455111e+00
  -1.739783e+02  -2.122177e+02
   1.267613e+01  -2.543975e+02
   2.395397e+02  -9.900136e+01
   3.276109e+02   1.489634e+02
   1.683184e+02   3.148717e+02
  -9.427345e+01   2.817383e+02
  -2.125659e+02   1.120708e+02
  -1.430276e+02  -2.972502e+00
  -8.642723e+01   2.388007e+01
  -2.042802e+02   5.712452e+01
  -3.601733e+02  -5.281410e+01
  -2.979646e+02  -2.621064e+02
   8.813621e+00  -4.060567e+02
   3.335406e+02  -3.743437e+02
   4.481109e+02  -1.749821e+02
   3.022946e+02   9.241208e+01
   4.547977e+01   2.719417e+02
  -1.204383e+02   2.288427e+02
  -7.153188e+01   2.359115e+01
   1.037709e+02  -9.812999e+01
   1.809768e+02   7.060540e+00
   4.401050e+01   1.819039e+02
  -1.470800e+02   1.575318e+02
  -1.609853e+02  -5.454559e+01
   1.954940e+01  -1.733789e+02
   1.810368e+02  -2.442746e+01
   1.467342e+02   2.302490e+02
  -3.532079e+01   3.199776e+02
  -2.156542e+02   1.762111e+02
  -3.003068e+02  -5.595316e+01
  -2.529622e+02  -2.150474e+02
  -8.496961e+01  -2.385207e+02
   1.028389e+02  -1.464533e+02
   1.594057e+02  -2.082028e+01
   5.058920e+01   2.693334e+01
  -6.484644e+01  -3.789006e+01
  -2.508368e+01  -1.137016e+02
   1.153205e+02  -8.699391e+01
   1.637356e+02   1.645949e+01
   5.242265e+01   6.836239e+01
  -7.358476e+01   1.412075e+01
  -5.034110e+01  -6.709261e+01
   1.099849e+02  -7.667404e+01
   2.507106e+02   3.362397e+00
   2.328148e+02   1.278778e+02
   5.063699e+01   2.295618e+02
  -1.677383e+02   2.331889e+02
  -2.552635e+02   1.106177e+02
  -1.518691e+02  -4.974212e+01
   2.316201e+01  -1.005215e+02
   8.181641e+01  -6.502160e+00
  -3.192309e+01   9.342064e+01
  -1.795210e+02   5.332807e+01
  -1.940791e+02  -9.492776e+01
  -6.198872e+01  -1.912473e+02
   8.821313e+01  -1.453525e+02
   1.331695e+02  -2.795858e+01
   6.542420e+01   3.630339e+01
  -2.468010e+01   2.019889e+00
  -3.338918e+01  -7.532471e+01
   6.620274e+01  -1.018464e+02
   1.812995e+02  -2.559320e+01
   1.752864e+02   1.134741e+02
   1.987850e+01   2.002039e+02
  -1.504495e+02   1.503808e+02
  -1.779016e+02   4.504614e+00
  -5.992919e+01  -1.063411e+02
   6.153032e+01  -1.017372e+02
   7.629852e+01  -2.547959e+01
   1.663139e+01   2.702155e+01
  -2.007337e+01   1.862730e+01
   8.352041e+00  -8.456104e+00
   6.404036e+01   6.488366e+00
   7.833114e+01   7.390512e+01
   1.117451e+01   1.433620e+02
  -1.159897e+02   1.380801e+02
  -2.117281e+02   2.275934e+01
  -1.819184e+02  -1.367514e+02
  -3.665565e+01  -2.154931e+02
   9.985947e+01  -1.555444e+02
   1.240337e+02  -2.523702e+01
   6.425589e+01   5.113494e+01
   2.587313e+01   3.549834e+01
   4.686432e+01  -7.274168e+00
   7.032198e+01  -3.991609e+00
   3.511137e+01   4.385415e+01
  -3.914162e+01   7.668912e+01
  -9.255213e+01   4.777304e+01
  -7.706318e+01  -3.353664e+01
   1.299393e+01  -9.966195e+01
   1.277692e+02  -7.785987e+01
   1.781938e+02   4.541651e+01
   9.234007e+01   1.821046e+02
  -9.551189e+01   2.065722e+02
  -2.412246e+02   8.838034e+01
  -2.328791e+02  -7.630484e+01
  -9.803414e+01  -1.589142e+02
   3.634800e+01  -1.322571e+02
   8.524127e+01  -7.553173e+01
   7.039984e+01  -6.202598e+01
   5.942636e+01  -8.072963e+01
   8.330628e+01  -6.524562e+01
   1.153813e+02   2.173344e+01
   1.046748e+02   1.393523e+02
   2.506781e+01   2.027008e+02
  -9.025797e+01   1.539899e+02
  -1.594981e+02   1.804892e+01
  -1.239377e+02  -1.103508e+02
  -1.684070e+01  -1.452852e+02
   6.228231e+01  -8.413476e+01
   5.527254e+01   1.478079e-01
   3.873638e+00   3.996812e+01
  -1.051554e+01   3.146564e+01
   3.192667e+01   1.535451e+01
   7.037619e+01   1.960763e+01
   3.834355e+01   3.451104e+01
  -5.872612e+01   3.291261e+01
  -1.412550e+02   1.272401e+00
  -1.259608e+02  -4.820128e+01
  -1.114293e+01  -8.083365e+01
   1.091403e+02  -6.581617e+01
   1.296015e+02  -9.712932e+00
   4.258695e+01   3.932291e+01
  -5.412479e+01   3.507894e+01
  -6.797086e+01  -1.675814e+01
  -8.029864e+00  -6.137199e+01
   4.768631e+01  -5.222560e+01
   5.490815e+01   1.089801e+00
   3.929908e+01   4.388348e+01
   3.976693e+01   3.757004e+01
   5.482621e+01   3.070999e+00
   5.683262e+01   1.045449e+00
   2.871782e+01   5.940953e+01
  -3.037171e+01   1.279659e+02
  -1.028307e+02   1.234582e+02
  -1.446479e+02   2.738253e+01
  -1.084883e+02  -8.324754e+01
  -4.866069e+00  -1.124540e+02
   7.730182e+01  -5.250364e+01
   5.332703e+01   1.563920e+01
  -5.318561e+01   1.746287e+01
  -1.222817e+02  -4.111753e+01
  -6.652090e+01  -9.727439e+01
   7.283370e+01  -9.937039e+01
   1.698640e+02  -4.478987e+01
   1.439036e+02   3.050722e+01
   3.318720e+01   7.642376e+01
  -5.244107e+01   6.198643e+01
  -4.156483e+01   6.812793e+00
   3.507541e+01  -2.287449e+01
   7.927546e+01   2.137016e+01
   2.741374e+01   1.064399e+02
  -8.292430e+01   1.371184e+02
  -1.495395e+02   5.395170e+01
  -1.120841e+02  -9.140437e+01
  -7.322279e+00  -1.771296e+02
   7.881486e+01  -1.282067e+02
   9.476482e+01   7.344840e+00
   5.350449e+01   1.071336e+02
  -3.528423e+00   9.644850e+01
  -4.232795e+01   1.795879e+01
  -4.651498e+01  -2.922834e+01
  -2.318920e+01  -8.907822e+00
  -4.158962e+00   1.779196e+01
  -1.843855e+01  -1.399059e+01
  -4.769425e+01  -8.002825e+01
  -3.433518e+01  -9.845926e+01
   4.360388e+01  -3.931610e+01
   1.227201e+02   3.795453e+01
   1.140928e+02   6.559939e+01
   1.448347e+01   4.466277e+01
  -7.907733e+01   1.889803e+01
  -7.940184e+01   5.907622e+00
  -1.003393e+01  -7.203329e+00
   3.505921e+01  -2.091314e+01
   1.364426e+01  -1.719245e+01
  -1.843732e+01   1.270903e+00
   5.548494e+00   9.398039e+00
   6.685558e+01   5.695711e+00
   8.159647e+01   2.355863e+01
   5.891079e+00   7.299157e+01
  -1.088793e+02   1.012201e+02
  -1.681418e+02   4.906556e+01
  -1.264364e+02  -6.386898e+01
  -2.052655e+01  -1.466752e+02
   7.371986e+01  -1.331778e+02
   1.040019e+02  -5.007586e+01
   7.211868e+01   2.125707e+01
   2.142173e+01   3.266605e+01
  -3.690641e+00   8.216944e+00
   8.167492e+00   4.128224e+00
   2.810301e+01   4.096912e+01
   1.828899e+01   7.946259e+01
  -2.743993e+01   6.187943e+01
  -7.119955e+01  -1.894541e+01
  -6.551805e+01  -9.771177e+01
  -1.175087e+00  -9.879763e+01
   7.317649e+01  -1.846616e+01
   8.927568e+01   6.913028e+01
   2.592458e+01   9.166409e+01
  -6.031196e+01   4.708282e+01
  -8.698935e+01  -1.301196e+01
  -3.429293e+01  -4.594721e+01
   3.011068e+01  -4.594875e+01
   2.919505e+01  -2.572783e+01
  -2.912533e+01  -1.321377e+00
  -6.049873e+01   4.161080e+00
  -1.171459e+01  -2.254180e+01
   7.260457e+01  -5.641673e+01
   1.043445e+02  -4.863427e+01
   5.653002e+01   1.337731e+01
  -1.581958e+01   7.438184e+01
  -4.893771e+01   6.912301e+01
  -3.349104e+01   3.646966e+00
  -5.127523e-01  -4.945720e+01
   2.368845e+01  -3.670251e+01
   3.180826e+01   1.727370e+01
   2.240435e+01   4.809126e+01
  -3.377926e+00   2.891466e+01
  -2.948356e+01  -7.811218e+00
  -3.503044e+01  -1.903852e+01
  -1.919826e+01  -1.972060e+00
  -6.462267e-01   1.155365e+01
   6.070344e+00  -3.194576e+00
   7.777327e+00  -3.262365e+01
   1.703244e+01  -3.937746e+01
   2.913304e+01  -5.996261e+00
   2.516448e+01   4.149033e+01
  -4.040617e+00   5.528078e+01
  -4.047799e+01   1.760289e+01
  -4.967727e+01  -3.716140e+01
  -1.212850e+01  -5.784755e+01
   4.935083e+01  -2.982345e+01
   7.941026e+01   1.543989e+01
   4.403306e+01   4.030520e+01
  -2.562276e+01   3.545609e+01
  -5.792252e+01   1.754666e+01
  -2.161098e+01   3.985340e+00
   3.316233e+01   3.272175e+00
   3.327483e+01   1.547112e+01
  -2.834519e+01   2.763723e+01
  -8.217453e+01   1.555880e+01
