
 $NMID
 id='ANONYMOUS ', fmtdat='(2E16.6)'
 volume=1.0
 tramp=1.0
 $END
  -4.528694e+03   2.635404e+02
  -2.699705e+03  -2.617734e+03
   5.466994e+02  -2.916055e+03
   1.954212e+03  -1.233504e+03
   1.119924e+03   5.075123e+02
  -5.016386e+02   5.371907e+02
  -8.627437e+02  -2.946567e+02
  -1.148412e+02  -1.088833e+03
   9.124736e+02  -8.548547e+02
   9.740249e+02   4.227574e+01
   4.373127e+02   8.562630e+02
  -1.579461e+02   9.386249e+02
  -6.139416e+02   7.436261e+01
  -3.443643e+02  -7.303575e+02
   2.228106e+02  -8.244519e+02
   6.864268e+02   7.166236e+00
   3.159409e+02   7.221241e+02
  -2.830610e+02   7.250145e+02
  -6.551618e+02   1.616159e+02
  -4.152171e+02  -3.971997e+02
   8.777535e+00  -4.688421e+02
   2.617699e+02  -2.608006e+02
   1.979892e+02   1.921138e+01
  -1.902533e+02   6.498244e+01
  -4.033927e+02  -1.680641e+02
  -2.019884e+02  -5.095713e+02
   5.132000e+02  -3.895821e+02
   8.919730e+02   1.150460e+02
   4.233721e+02   5.969001e+02
  -4.159938e+02   4.884302e+02
  -7.508663e+02  -6.318962e+01
  -3.380442e+02  -4.881310e+02
   2.954241e+02  -5.202637e+02
   5.669306e+02  -2.027651e+02
   4.275965e+02   2.304145e+02
   7.471070e+01   4.858583e+02
  -1.855736e+02   3.137705e+02
  -1.617553e+02  -2.088490e+02
   1.466035e+02  -4.141226e+02
   4.281925e+02   1.723169e+01
   2.257083e+02   6.758317e+02
  -3.140520e+02   7.012046e+02
  -5.897523e+02   4.625265e+00
  -2.301243e+02  -5.524929e+02
   3.079193e+02  -2.937906e+02
   3.619474e+02   3.525327e+02
  -9.938599e+01   5.594461e+02
  -5.773008e+02   1.255378e+02
  -6.016311e+02  -4.291997e+02
  -1.698746e+02  -5.847936e+02
   3.785123e+02  -3.325015e+02
   6.299070e+02   8.744136e+01
   3.791732e+02   3.806604e+02
  -1.563579e+02   3.599134e+02
  -4.557184e+02   5.711573e+01
  -2.545316e+02  -1.932649e+02
   1.164076e+02  -1.053704e+02
   1.446831e+02   1.581876e+02
  -1.803694e+02   1.974639e+02
  -3.772511e+02  -7.158969e+01
  -1.563856e+02  -3.193941e+02
   2.219725e+02  -2.897383e+02
   3.610990e+02  -8.794935e+01
   2.059769e+02   9.718328e+01
  -3.964782e+01   2.473315e+02
  -2.366987e+02   3.445127e+02
  -3.441912e+02   2.271253e+02
  -2.995871e+02  -1.369252e+02
  -9.727854e+01  -4.477992e+02
   9.589580e+01  -4.092590e+02
   1.153407e+02  -1.435384e+02
   3.766796e+01  -1.294225e+01
   6.662856e+01  -9.302123e+01
   2.173313e+02  -1.197583e+02
   2.923593e+02   6.734963e+01
   1.645175e+02   2.817511e+02
  -7.350758e+01   2.620803e+02
  -2.345771e+02   1.174162e+01
  -2.116449e+02  -2.472045e+02
   4.582442e+00  -3.063110e+02
   2.757294e+02  -1.266652e+02
   3.864994e+02   1.688017e+02
   2.051549e+02   3.663948e+02
  -9.850242e+01   3.196332e+02
  -2.339217e+02   1.282390e+02
  -1.546727e+02   1.080545e+01
  -1.029639e+02   4.511270e+01
  -2.525507e+02   7.575956e+01
  -4.254477e+02  -6.208309e+01
  -3.516840e+02  -3.024357e+02
   1.069863e+01  -4.669537e+02
   3.816338e+02  -4.326128e+02
   5.084787e+02  -2.075576e+02
   3.446920e+02   9.585768e+01
   5.496795e+01   3.020608e+02
  -1.256377e+02   2.630880e+02
  -7.313141e+01   3.559036e+01
   1.178565e+02  -1.062931e+02
   1.990834e+02   4.564298e+00
   4.699641e+01   1.986987e+02
  -1.649311e+02   1.756720e+02
  -1.784953e+02  -6.048030e+01
   2.727207e+01  -1.943712e+02
   2.056160e+02  -2.891644e+01
   1.706499e+02   2.645947e+02
  -3.410087e+01   3.709271e+02
  -2.464085e+02   2.050312e+02
  -3.500400e+02  -6.973232e+01
  -2.955512e+02  -2.565999e+02
  -9.717232e+01  -2.779973e+02
   1.238147e+02  -1.652548e+02
   1.885627e+02  -1.939268e+01
   6.207151e+01   3.211970e+01
  -7.135525e+01  -4.345604e+01
  -2.909227e+01  -1.310746e+02
   1.297619e+02  -1.022198e+02
   1.847515e+02   1.544552e+01
   5.980838e+01   7.693038e+01
  -8.307442e+01   1.686094e+01
  -5.643949e+01  -7.686553e+01
   1.303463e+02  -9.068879e+01
   2.956790e+02   6.084875e-01
   2.749992e+02   1.453314e+02
   6.119012e+01   2.641439e+02
  -1.935692e+02   2.708084e+02
  -2.932136e+02   1.339104e+02
  -1.717598e+02  -4.880412e+01
   2.866586e+01  -1.096761e+02
   9.316322e+01  -6.750303e+00
  -3.770235e+01   1.060738e+02
  -2.062323e+02   6.316062e+01
  -2.241011e+02  -1.042969e+02
  -7.533158e+01  -2.153268e+02
   9.505184e+01  -1.658842e+02
   1.484321e+02  -3.306338e+01
   7.387854e+01   4.094536e+01
  -2.666554e+01   1.476086e+00
  -3.526272e+01  -8.824781e+01
   7.769067e+01  -1.180106e+02
   2.077236e+02  -2.822663e+01
   1.994416e+02   1.318269e+02
   2.093807e+01   2.313229e+02
  -1.737627e+02   1.740554e+02
  -2.042256e+02   8.051144e+00
  -6.932038e+01  -1.197735e+02
   6.917182e+01  -1.175644e+02
   8.578813e+01  -3.365961e+01
   1.786153e+01   2.463896e+01
  -2.264339e+01   1.747026e+01
   1.191281e+01  -8.081873e+00
   7.674371e+01   1.180082e+01
   9.312939e+01   8.895864e+01
   1.483929e+01   1.660102e+02
  -1.339780e+02   1.576721e+02
  -2.442637e+02   2.584251e+01
  -2.112236e+02  -1.557130e+02
  -4.572903e+01  -2.454725e+02
   1.108467e+02  -1.762362e+02
   1.400317e+02  -2.960767e+01
   7.438992e+01   5.631258e+01
   3.175335e+01   3.534463e+01
   5.724049e+01  -1.504726e+01
   8.373811e+01  -8.255897e+00
   4.290741e+01   5.385185e+01
  -4.497909e+01   9.531190e+01
  -1.092592e+02   5.845282e+01
  -8.823040e+01  -3.888067e+01
   1.791650e+01  -1.188506e+02
   1.524651e+02  -8.981451e+01
   2.076615e+02   5.645406e+01
   1.026641e+02   2.143161e+02
  -1.149926e+02   2.405271e+02
  -2.808053e+02   1.004943e+02
  -2.698115e+02  -8.857530e+01
  -1.157497e+02  -1.835632e+02
   3.932272e+01  -1.536859e+02
   9.748680e+01  -8.909875e+01
   8.194356e+01  -7.459243e+01
   6.790535e+01  -9.750024e+01
   9.538886e+01  -7.962770e+01
   1.350784e+02   2.159788e+01
   1.265770e+02   1.611945e+02
   3.434568e+01   2.380155e+02
  -1.024463e+02   1.818954e+02
  -1.847784e+02   2.117783e+01
  -1.433971e+02  -1.290807e+02
  -1.908537e+01  -1.672517e+02
   7.209957e+01  -9.335627e+01
   6.240682e+01   3.948579e+00
   2.158821e+00   4.609731e+01
  -1.379002e+01   3.342298e+01
   3.827416e+01   1.534168e+01
   8.615076e+01   2.177824e+01
   4.979244e+01   4.004474e+01
  -6.564143e+01   4.002890e+01
  -1.652072e+02   6.114814e+00
  -1.496948e+02  -4.925989e+01
  -1.622886e+01  -8.960808e+01
   1.241561e+02  -7.763116e+01
   1.485824e+02  -1.607282e+01
   4.876368e+01   4.192148e+01
  -6.341534e+01   4.039329e+01
  -8.028192e+01  -1.918253e+01
  -1.044921e+01  -7.359534e+01
   5.660345e+01  -6.412691e+01
   6.678041e+01  -1.147993e-01
   4.826721e+01   5.221703e+01
   4.672396e+01   4.369812e+01
   6.485387e+01   8.295496e-01
   7.035137e+01  -1.748111e+00
   3.918908e+01   7.016773e+01
  -3.252441e+01   1.543588e+02
  -1.209832e+02   1.504748e+02
  -1.713598e+02   3.649033e+01
  -1.285963e+02  -9.492015e+01
  -7.145706e+00  -1.317958e+02
   8.852927e+01  -6.399880e+01
   6.209996e+01   1.607224e+01
  -6.106510e+01   2.110959e+01
  -1.428907e+02  -4.485540e+01
  -8.016938e+01  -1.114442e+02
   8.241523e+01  -1.169171e+02
   1.987851e+02  -5.464859e+01
   1.709350e+02   3.446516e+01
   3.998330e+01   9.061745e+01
  -6.393406e+01   7.408520e+01
  -5.237602e+01   7.849231e+00
   3.986771e+01  -2.939280e+01
   9.570888e+01   2.158419e+01
   3.693584e+01   1.238957e+02
  -9.300749e+01   1.635647e+02
  -1.741147e+02   6.831029e+01
  -1.335717e+02  -1.033040e+02
  -1.297535e+01  -2.065780e+02
   8.815815e+01  -1.511270e+02
   1.093198e+02   7.206899e+00
   6.349535e+01   1.234816e+02
  -2.351353e+00   1.110691e+02
  -4.815628e+01   2.082371e+01
  -5.365191e+01  -3.242194e+01
  -2.553343e+01  -8.643189e+00
  -2.904291e+00   2.130734e+01
  -2.156701e+01  -1.521552e+01
  -5.944305e+01  -9.049367e+01
  -4.553065e+01  -1.118790e+02
   4.787304e+01  -4.688170e+01
   1.440470e+02   3.905528e+01
   1.357956e+02   7.193234e+01
   1.876965e+01   5.171469e+01
  -9.136060e+01   2.412187e+01
  -9.177725e+01   8.015706e+00
  -1.084332e+01  -8.561695e+00
   4.097418e+01  -2.342036e+01
   1.552227e+01  -1.750238e+01
  -2.164261e+01   3.166915e+00
   6.561310e+00   9.802998e+00
   7.773346e+01   3.750087e+00
   9.541655e+01   2.516016e+01
   9.005740e+00   8.501977e+01
  -1.229427e+02   1.210835e+02
  -1.931253e+02   6.298541e+01
  -1.485161e+02  -6.840012e+01
  -2.912161e+01  -1.681487e+02
   8.000207e+01  -1.570323e+02
   1.179076e+02  -6.235867e+01
   8.406694e+01   2.160703e+01
   2.610844e+01   3.695675e+01
  -3.276056e+00   9.216574e+00
   1.033461e+01   3.644876e+00
   3.492514e+01   4.642985e+01
   2.513284e+01   9.300629e+01
  -2.874825e+01   7.487974e+01
  -8.404674e+01  -1.768064e+01
  -8.151486e+01  -1.110182e+02
  -6.536329e+00  -1.165402e+02
   8.495800e+01  -2.642620e+01
   1.084679e+02   7.646472e+01
   3.564858e+01   1.074619e+02
  -6.772224e+01   5.946280e+01
  -1.021925e+02  -1.104852e+01
  -4.188739e+01  -5.286206e+01
   3.343647e+01  -5.435958e+01
   3.336983e+01  -2.869800e+01
  -3.390534e+01   2.295791e+00
  -7.111548e+01   8.661160e+00
  -1.604271e+01  -2.540134e+01
   8.042990e+01  -6.877798e+01
   1.183749e+02  -6.084886e+01
   6.574007e+01   1.327033e+01
  -1.646164e+01   8.744601e+01
  -5.583941e+01   8.288233e+01
  -4.024725e+01   5.074090e+00
  -3.438976e+00  -5.965312e+01
   2.626479e+01  -4.617049e+01
   3.914545e+01   1.820503e+01
   2.884025e+01   5.571174e+01
  -2.918498e+00   3.384842e+01
  -3.512963e+01  -9.443480e+00
  -4.088645e+01  -2.208405e+01
  -1.983687e+01  -1.046270e+00
   2.512699e+00   1.530669e+01
   7.025095e+00  -1.946690e+00
   4.785460e+00  -3.708702e+01
   1.522835e+01  -4.651691e+01
   3.328616e+01  -8.982313e+00
   3.276329e+01   4.547474e+01
  -1.069260e+00   6.317498e+01
  -4.689536e+01   2.202966e+01
  -5.975740e+01  -3.996874e+01
  -1.506047e+01  -6.576399e+01
   5.766578e+01  -3.653458e+01
   9.275022e+01   1.519657e+01
   5.088909e+01   4.612628e+01
  -3.010842e+01   4.354976e+01
  -6.731625e+01   2.315797e+01
  -2.539545e+01   4.536981e+00
   3.767013e+01   8.455023e-01
   3.861223e+01   1.496079e+01
  -3.126915e+01   3.225498e+01
  -9.373900e+01   2.108320e+01
