
 $NMID
 id='ANONYMOUS ', fmtdat='(2E16.6)'
 volume=1.0
 tramp=1.0
 $END
   4.663193e+03  -1.306795e+02
   2.703252e+03   2.737026e+03
  -7.790770e+02   3.051476e+03
  -2.247841e+03   1.173301e+03
  -9.669899e+02  -7.669602e+02
   6.977516e+02  -5.572274e+02
   1.014184e+03   4.082437e+02
   9.297306e+01   1.151368e+03
  -9.190426e+02   7.988990e+02
  -9.652180e+02   3.950260e+01
  -4.414910e+02  -9.027950e+02
   2.397965e+02  -1.051214e+03
   5.631707e+02  -9.543918e+01
   3.747788e+02   7.328995e+02
  -2.012899e+02   8.691764e+02
  -6.652698e+02   5.807653e+00
  -2.848593e+02  -7.161536e+02
   3.762394e+02  -7.185196e+02
   6.167172e+02  -5.531766e+01
   3.871442e+02   3.387502e+02
   2.642717e+00   4.232830e+02
  -2.817935e+02   2.592903e+02
  -2.302964e+02  -1.182192e+01
   1.109599e+02  -6.921361e+01
   4.306673e+02   1.349998e+02
   2.163663e+02   4.896601e+02
  -4.857665e+02   4.289172e+02
  -8.763622e+02  -9.310554e+01
  -4.461264e+02  -5.972319e+02
   3.938230e+02  -5.216682e+02
   7.518084e+02   5.086400e+01
   3.561719e+02   5.066479e+02
  -2.947428e+02   5.197963e+02
  -5.935885e+02   1.932231e+02
  -4.354676e+02  -2.357637e+02
  -5.012524e+01  -4.923533e+02
   2.390458e+02  -2.912495e+02
   1.940828e+02   2.344420e+02
  -1.826631e+02   4.585716e+02
  -4.937855e+02  -3.084330e+00
  -2.543659e+02  -7.182637e+02
   3.580295e+02  -7.258102e+02
   6.402591e+02   8.528956e+00
   2.502932e+02   5.873328e+02
  -3.297991e+02   3.312072e+02
  -3.946867e+02  -3.581651e+02
   1.098656e+02  -5.674301e+02
   5.978125e+02  -1.331527e+02
   6.062912e+02   4.303421e+02
   1.563429e+02   5.968455e+02
  -3.961007e+02   3.461707e+02
  -6.414065e+02  -9.252808e+01
  -3.720140e+02  -4.087392e+02
   1.757745e+02  -3.771799e+02
   4.747916e+02  -3.485013e+01
   2.545434e+02   2.354656e+02
  -1.394463e+02   1.198086e+02
  -1.662275e+02  -1.820082e+02
   1.742210e+02  -2.194283e+02
   3.752787e+02   8.037911e+01
   1.488543e+02   3.353674e+02
  -2.262200e+02   2.787527e+02
  -3.542148e+02   5.874940e+01
  -1.969157e+02  -1.068570e+02
   4.097442e+01  -2.263931e+02
   2.337430e+02  -3.167488e+02
   3.394238e+02  -2.143463e+02
   2.850486e+02   1.359416e+02
   7.005935e+01   4.384555e+02
  -1.213273e+02   3.886025e+02
  -1.213155e+02   1.156660e+02
  -2.374537e+01  -1.064785e+01
  -4.676751e+01   8.226277e+01
  -2.013607e+02   1.210224e+02
  -2.798512e+02  -5.881066e+01
  -1.555275e+02  -2.685824e+02
   7.103039e+01  -2.520342e+02
   2.237604e+02  -1.730490e+01
   2.005069e+02   2.293803e+02
  -5.455477e+00   2.893222e+02
  -2.638600e+02   1.197243e+02
  -3.633180e+02  -1.700243e+02
  -1.825401e+02  -3.576220e+02
   1.127642e+02  -3.119923e+02
   2.395047e+02  -1.140207e+02
   1.481282e+02   7.277270e+00
   8.883156e+01  -3.222546e+01
   2.333105e+02  -6.480844e+01
   4.065204e+02   6.262704e+01
   3.305916e+02   2.981944e+02
  -2.031757e+01   4.508763e+02
  -3.773473e+02   4.055070e+02
  -4.951153e+02   1.841635e+02
  -3.347467e+02  -1.070873e+02
  -4.700816e+01  -3.014384e+02
   1.394365e+02  -2.555196e+02
   8.788399e+01  -2.533465e+01
  -1.112282e+02   1.157500e+02
  -2.022735e+02  -3.295741e+00
  -5.217293e+01  -2.046958e+02
   1.677971e+02  -1.807877e+02
   1.843537e+02   6.185533e+01
  -2.101355e+01   1.991709e+02
  -1.974981e+02   3.112786e+01
  -1.577453e+02  -2.579985e+02
   4.458192e+01  -3.527358e+02
   2.386480e+02  -1.813156e+02
   3.241030e+02   7.694694e+01
   2.716347e+02   2.424809e+02
   8.907697e+01   2.587135e+02
  -1.168086e+02   1.551305e+02
  -1.794844e+02   1.952319e+01
  -5.762257e+01  -3.191434e+01
   7.153687e+01   3.984538e+01
   2.895925e+01   1.267722e+02
  -1.275109e+02   9.910202e+01
  -1.814132e+02  -1.659635e+01
  -5.991770e+01  -7.608895e+01
   7.747105e+01  -1.832030e+01
   5.270637e+01   6.832878e+01
  -1.203898e+02   7.781042e+01
  -2.717134e+02  -6.262340e+00
  -2.535264e+02  -1.380551e+02
  -5.666965e+01  -2.499248e+02
   1.833309e+02  -2.582650e+02
   2.839753e+02  -1.246207e+02
   1.712331e+02   5.604200e+01
  -2.646709e+01   1.132138e+02
  -9.459459e+01   6.247377e+00
   3.211370e+01  -1.055619e+02
   1.976116e+02  -5.900481e+01
   2.133011e+02   1.059687e+02
   6.664554e+01   2.086768e+02
  -9.594214e+01   1.554446e+02
  -1.434981e+02   2.812989e+01
  -7.155824e+01  -3.892574e+01
   2.399771e+01  -1.379183e+00
   3.396535e+01   8.048651e+01
  -7.158947e+01   1.076694e+02
  -1.966394e+02   2.389527e+01
  -1.909131e+02  -1.275900e+02
  -1.842654e+01  -2.212180e+02
   1.713825e+02  -1.622682e+02
   1.998732e+02   8.501708e-01
   6.536243e+01   1.219877e+02
  -7.077966e+01   1.134581e+02
  -8.715519e+01   2.945429e+01
  -2.228532e+01  -2.701642e+01
   1.638098e+01  -1.918109e+01
  -1.308181e+01   4.873139e+00
  -6.794933e+01  -1.429864e+01
  -8.013440e+01  -8.427646e+01
  -7.291659e+00  -1.546370e+02
   1.287511e+02  -1.448826e+02
   2.300410e+02  -1.858937e+01
   1.953295e+02   1.546988e+02
   3.457312e+01   2.382524e+02
  -1.146261e+02   1.660459e+02
  -1.374842e+02   2.171315e+01
  -6.909314e+01  -5.943029e+01
  -2.755229e+01  -3.725935e+01
  -5.265279e+01   1.015728e+01
  -7.636540e+01   3.689353e+00
  -3.608753e+01  -4.979452e+01
   4.621721e+01  -8.251942e+01
   1.008373e+02  -4.825030e+01
   7.933672e+01   3.715419e+01
  -1.741362e+01   1.077561e+02
  -1.415774e+02   8.211768e+01
  -1.938762e+02  -5.254713e+01
  -9.929955e+01  -2.011371e+02
   1.053602e+02  -2.279746e+02
   2.666279e+02  -9.515214e+01
   2.575158e+02   8.650886e+01
   1.100770e+02   1.763217e+02
  -4.046897e+01   1.465796e+02
  -9.704997e+01   8.383512e+01
  -8.247369e+01   6.797773e+01
  -6.897353e+01   8.715950e+01
  -9.297144e+01   6.943669e+01
  -1.259431e+02  -2.512880e+01
  -1.130947e+02  -1.547218e+02
  -2.518323e+01  -2.257119e+02
   1.011850e+02  -1.713694e+02
   1.757717e+02  -1.814386e+01
   1.346819e+02   1.249446e+02
   1.690598e+01   1.610289e+02
  -6.886557e+01   9.102280e+01
  -6.013595e+01  -6.515654e-01
  -5.169984e+00  -4.165339e+01
   8.852660e+00  -3.261762e+01
  -3.726387e+01  -1.851679e+01
  -7.786171e+01  -2.504905e+01
  -4.290518e+01  -3.914792e+01
   6.200349e+01  -3.476119e+01
   1.522148e+02  -5.418754e-01
   1.377851e+02   5.063782e+01
   1.408683e+01   8.442716e+01
  -1.176777e+02   6.921809e+01
  -1.413957e+02   1.071890e+01
  -4.619721e+01  -4.087641e+01
   6.056382e+01  -3.604967e+01
   7.498445e+01   2.011904e+01
   6.377791e+00   6.807464e+01
  -5.579041e+01   5.661238e+01
  -6.169075e+01  -2.995342e+00
  -4.180409e+01  -4.988503e+01
  -4.205197e+01  -4.037157e+01
  -6.144682e+01  -1.317144e+00
  -6.598666e+01  -8.784035e-01
  -3.290266e+01  -6.864573e+01
   3.555880e+01  -1.441784e+02
   1.165196e+02  -1.357586e+02
   1.602270e+02  -2.665820e+01
   1.179948e+02   9.390515e+01
   3.963807e+00   1.228801e+02
  -8.504409e+01   5.591262e+01
  -5.785620e+01  -1.693044e+01
   5.879612e+01  -1.666672e+01
   1.337432e+02   4.758317e+01
   7.181614e+01   1.076097e+02
  -8.234773e+01   1.085558e+02
  -1.897928e+02   4.719428e+01
  -1.601701e+02  -3.614463e+01
  -3.529185e+01  -8.669976e+01
   6.165295e+01  -6.907229e+01
   4.879688e+01  -7.267600e+00
  -3.899769e+01   2.511503e+01
  -8.869868e+01  -2.555895e+01
  -2.833009e+01  -1.195871e+02
   9.697961e+01  -1.502730e+02
   1.698684e+02  -5.480076e+01
   1.236811e+02   1.067618e+02
   3.864153e+00   1.982188e+02
  -9.005787e+01   1.404414e+02
  -1.044163e+02  -1.051527e+01
  -5.815022e+01  -1.185941e+02
   2.754353e+00  -1.045127e+02
   4.483402e+01  -1.801027e+01
   5.112891e+01   3.247945e+01
   2.617640e+01   8.880814e+00
   3.158514e+00  -2.116601e+01
   1.736364e+01   1.422071e+01
   5.176377e+01   8.732504e+01
   4.019350e+01   1.073152e+02
  -4.571626e+01   4.202400e+01
  -1.353215e+02  -4.302036e+01
  -1.261640e+02  -7.293139e+01
  -1.383486e+01  -4.881552e+01
   9.040546e+01  -1.889463e+01
   8.776631e+01  -4.358175e+00
   7.766149e+00   8.752109e+00
  -4.127318e+01   2.186666e+01
  -1.496811e+01   1.709471e+01
   2.121789e+01  -1.739896e+00
  -6.764520e+00  -9.697344e+00
  -7.507608e+01  -6.637883e+00
  -8.916463e+01  -2.852240e+01
  -3.281892e+00  -8.341097e+01
   1.226685e+02  -1.120528e+02
   1.852061e+02  -5.186195e+01
   1.375834e+02   7.298940e+01
   2.215342e+01   1.618102e+02
  -7.976622e+01   1.446874e+02
  -1.128271e+02   5.319560e+01
  -7.889561e+01  -2.353688e+01
  -2.356748e+01  -3.485246e+01
   4.291369e+00  -8.056345e+00
  -8.288029e+00  -3.896056e+00
  -3.047203e+01  -4.506866e+01
  -1.998730e+01  -8.810957e+01
   3.073171e+01  -6.854642e+01
   7.952612e+01   2.183194e+01
   7.243562e+01   1.103817e+02
  -5.339626e-01   1.110540e+02
  -8.342946e+01   1.967315e+01
  -9.925713e+01  -7.918514e+01
  -2.702902e+01  -1.028195e+02
   6.811042e+01  -5.060038e+01
   9.507573e+01   1.649510e+01
   3.512130e+01   5.090102e+01
  -3.437927e+01   4.851619e+01
  -3.071926e+01   2.592968e+01
   3.411571e+01   3.994311e-01
   6.715940e+01  -4.958806e+00
   1.162955e+01   2.444773e+01
  -7.989269e+01   6.213641e+01
  -1.128473e+02   5.346528e+01
  -5.949157e+01  -1.480319e+01
   1.945542e+01  -8.198707e+01
   5.491857e+01  -7.535107e+01
   3.714983e+01  -1.484312e+00
   3.151893e-01   5.735363e+01
  -2.721621e+01   4.138232e+01
  -3.667999e+01  -2.005183e+01
  -2.464713e+01  -5.330045e+01
   5.131887e+00  -3.010425e+01
   3.302013e+01   1.092227e+01
   3.730419e+01   2.176541e+01
   1.838977e+01   9.366938e-01
  -6.239556e-01  -1.327748e+01
  -6.856927e+00   4.190707e+00
  -9.002580e+00   3.623275e+01
  -2.053164e+01   4.222227e+01
  -3.339590e+01   4.156913e+00
  -2.667683e+01  -4.727770e+01
   7.166757e+00  -6.099914e+01
   4.593788e+01  -1.839667e+01
   5.343262e+01   4.190668e+01
   1.132765e+01   6.419827e+01
  -5.466552e+01   3.248280e+01
  -8.610296e+01  -1.850454e+01
  -4.679517e+01  -4.565786e+01
   2.918029e+01  -3.872196e+01
   6.375835e+01  -1.726558e+01
   2.246667e+01  -2.498547e+00
  -3.866442e+01  -3.912772e+00
  -3.737396e+01  -1.943680e+01
   3.308224e+01  -3.269688e+01
   9.367073e+01  -1.708669e+01
