
 $NMID
 id='ANONYMOUS ', fmtdat='(2E16.6)'
 volume=1.0
 tramp=1.0
 $END
   4.637128e+03   1.924237e+02
   2.694215e+03   2.695569e+03
  -9.128882e+02   2.901173e+03
  -2.127723e+03   8.138157e+02
  -9.913927e+02  -7.608325e+02
   6.495920e+02  -5.401988e+02
   9.751237e+02   5.851595e+02
  -1.066947e+02   1.248186e+03
  -9.162838e+02   9.331155e+02
  -9.962899e+02  -1.194984e+02
  -4.639070e+02  -9.114613e+02
   2.939415e+02  -9.358557e+02
   7.405902e+02  -1.377150e+02
   3.936223e+02   7.954547e+02
  -2.969226e+02   8.512656e+02
  -6.274011e+02  -1.358955e+01
  -2.698614e+02  -7.602810e+02
   3.624294e+02  -7.111139e+02
   6.217329e+02  -7.111462e+01
   3.637545e+02   3.943102e+02
   1.701636e+01   4.792564e+02
  -2.473757e+02   2.706036e+02
  -2.737172e+02   3.047858e+01
   8.581759e+01  -1.030456e+02
   4.384951e+02   6.645829e+01
   2.409635e+02   4.266180e+02
  -4.319205e+02   4.269749e+02
  -8.779009e+02  -7.909365e+01
  -4.639918e+02  -5.756054e+02
   4.014360e+02  -5.062830e+02
   7.695469e+02   3.743415e+01
   3.794310e+02   5.171301e+02
  -2.637737e+02   5.463530e+02
  -5.834867e+02   2.285051e+02
  -4.522546e+02  -2.436902e+02
  -8.366370e+01  -5.113708e+02
   2.232853e+02  -3.323172e+02
   2.336943e+02   2.105326e+02
  -1.468777e+02   4.860391e+02
  -4.743930e+02   1.904878e+00
  -2.825597e+02  -7.174863e+02
   3.218863e+02  -7.500371e+02
   6.472171e+02   1.497527e+00
   2.852417e+02   5.877981e+02
  -3.071792e+02   3.524295e+02
  -4.041158e+02  -3.292687e+02
   6.591862e+01  -5.647701e+02
   5.686277e+02  -1.515566e+02
   6.144010e+02   4.081928e+02
   1.824087e+02   6.016015e+02
  -3.827714e+02   3.747553e+02
  -6.551849e+02  -5.853107e+01
  -4.087409e+02  -3.993628e+02
   1.497656e+02  -3.991740e+02
   4.722278e+02  -7.028505e+01
   2.622249e+02   2.084585e+02
  -1.247221e+02   1.139286e+02
  -1.532112e+02  -1.731210e+02
   1.786591e+02  -2.057505e+02
   3.731981e+02   8.773887e+01
   1.472404e+02   3.280608e+02
  -2.206948e+02   2.655264e+02
  -3.443052e+02   6.097315e+01
  -1.922726e+02  -8.948909e+01
   3.512732e+01  -2.183229e+02
   2.247218e+02  -3.353009e+02
   3.481770e+02  -2.405362e+02
   3.157216e+02   1.388748e+02
   9.997403e+01   4.754912e+02
  -1.188902e+02   4.271720e+02
  -1.472737e+02   1.227653e+02
  -4.938825e+01  -2.783400e+01
  -5.015715e+01   7.794183e+01
  -1.926947e+02   1.394520e+02
  -2.819535e+02  -4.436476e+01
  -1.672696e+02  -2.818530e+02
   7.137114e+01  -2.806773e+02
   2.408330e+02  -2.220663e+01
   2.146293e+02   2.560248e+02
  -8.989871e+00   3.250542e+02
  -2.882013e+02   1.384260e+02
  -3.904409e+02  -1.753505e+02
  -1.993509e+02  -3.808522e+02
   1.052756e+02  -3.319650e+02
   2.401969e+02  -1.265137e+02
   1.545182e+02  -8.946311e-01
   9.778936e+01  -3.672000e+01
   2.429428e+02  -7.886635e+01
   4.209750e+02   4.714333e+01
   3.543913e+02   2.946121e+02
   9.477316e+00   4.655685e+02
  -3.666860e+02   4.399873e+02
  -5.106854e+02   2.206610e+02
  -3.640052e+02  -9.300647e+01
  -6.962955e+01  -3.150614e+02
   1.382045e+02  -2.776353e+02
   9.726641e+01  -3.432777e+01
  -1.067704e+02   1.232754e+02
  -2.118896e+02   1.803344e+00
  -6.194820e+01  -2.117369e+02
   1.663076e+02  -1.910504e+02
   1.920730e+02   6.089996e+01
  -1.509893e+01   2.101895e+02
  -2.049881e+02   3.967539e+01
  -1.711893e+02  -2.610409e+02
   3.577220e+01  -3.683362e+02
   2.400494e+02  -1.998759e+02
   3.329092e+02   7.057437e+01
   2.859627e+02   2.528582e+02
   1.012625e+02   2.770504e+02
  -1.177451e+02   1.690222e+02
  -1.933848e+02   1.969696e+01
  -7.020116e+01  -4.160022e+01
   7.354285e+01   3.199176e+01
   3.909881e+01   1.294610e+02
  -1.251392e+02   1.102446e+02
  -1.895029e+02  -8.162578e+00
  -6.447762e+01  -7.780689e+01
   8.452257e+01  -2.377269e+01
   6.156439e+01   7.162261e+01
  -1.249513e+02   9.070485e+01
  -2.919522e+02   4.614914e+00
  -2.754589e+02  -1.400512e+02
  -6.659376e+01  -2.641452e+02
   1.895773e+02  -2.771916e+02
   2.997749e+02  -1.386510e+02
   1.861235e+02   5.316671e+01
  -2.114349e+01   1.214987e+02
  -9.938586e+01   1.526001e+01
   2.591131e+01  -1.070004e+02
   2.011886e+02  -6.827457e+01
   2.274478e+02   1.031480e+02
   7.962823e+01   2.193674e+02
  -9.569106e+01   1.703447e+02
  -1.537762e+02   3.345612e+01
  -7.959313e+01  -4.508969e+01
   2.565228e+01  -7.776518e+00
   4.090192e+01   8.229802e+01
  -6.913241e+01   1.175602e+02
  -2.027319e+02   3.435568e+01
  -2.008037e+02  -1.247393e+02
  -2.507309e+01  -2.285382e+02
   1.721472e+02  -1.759843e+02
   2.063741e+02  -9.726547e+00
   7.202235e+01   1.213719e+02
  -6.835167e+01   1.215122e+02
  -8.816595e+01   3.737125e+01
  -2.193176e+01  -2.431184e+01
   2.021705e+01  -2.106127e+01
  -9.983792e+00   3.972477e+00
  -7.175183e+01  -1.035843e+01
  -9.044412e+01  -8.154441e+01
  -1.827688e+01  -1.603510e+02
   1.266066e+02  -1.585957e+02
   2.419393e+02  -3.237708e+01
   2.134611e+02   1.515485e+02
   4.748482e+01   2.478621e+02
  -1.128681e+02   1.796544e+02
  -1.433068e+02   2.906276e+01
  -7.342362e+01  -5.943290e+01
  -2.829659e+01  -3.754443e+01
  -5.340922e+01   1.555157e+01
  -8.138687e+01   9.396733e+00
  -4.311155e+01  -5.005365e+01
   3.985960e+01  -9.042035e+01
   9.855003e+01  -5.795607e+01
   8.301855e+01   3.529165e+01
  -1.334438e+01   1.104777e+02
  -1.416946e+02   8.537275e+01
  -2.005302e+02  -5.294148e+01
  -1.049409e+02  -2.066443e+02
   1.061041e+02  -2.358258e+02
   2.755830e+02  -1.012817e+02
   2.692227e+02   8.582484e+01
   1.175424e+02   1.816591e+02
  -3.850168e+01   1.537140e+02
  -9.802437e+01   9.001318e+01
  -8.378609e+01   7.416600e+01
  -6.988425e+01   9.420810e+01
  -9.495450e+01   7.619661e+01
  -1.324844e+02  -2.214629e+01
  -1.242641e+02  -1.581159e+02
  -3.475614e+01  -2.344159e+02
   1.003365e+02  -1.808950e+02
   1.835032e+02  -2.488976e+01
   1.448785e+02   1.235532e+02
   2.266165e+01   1.652880e+02
  -6.784646e+01   9.776079e+01
  -6.127567e+01   3.806625e+00
  -5.832317e+00  -4.135748e+01
   8.714852e+00  -3.438864e+01
  -3.894741e+01  -1.824857e+01
  -8.262787e+01  -2.190609e+01
  -4.847315e+01  -3.733604e+01
   6.054805e+01  -3.867200e+01
   1.575684e+02  -8.445979e+00
   1.470710e+02   4.546087e+01
   2.057248e+01   8.720657e+01
  -1.188772e+02   7.731982e+01
  -1.476351e+02   1.713638e+01
  -5.085198e+01  -4.042199e+01
   6.119782e+01  -3.885890e+01
   7.857795e+01   1.848663e+01
   8.095658e+00   6.946888e+01
  -5.758953e+01   5.901331e+01
  -6.421468e+01  -1.676893e+00
  -4.316621e+01  -4.948097e+01
  -4.313790e+01  -4.061630e+01
  -6.369558e+01  -5.684983e-01
  -6.988647e+01   4.231760e-01
  -3.820412e+01  -6.832131e+01
   3.103757e+01  -1.483306e+02
   1.157983e+02  -1.455202e+02
   1.657812e+02  -3.719450e+01
   1.267126e+02   8.968252e+01
   9.161834e+00   1.270898e+02
  -8.640400e+01   6.305883e+01
  -6.129616e+01  -1.502358e+01
   6.045360e+01  -2.115879e+01
   1.429521e+02   4.312792e+01
   8.115460e+01   1.099138e+02
  -8.079825e+01   1.176095e+02
  -1.968776e+02   5.708181e+01
  -1.700436e+02  -3.211576e+01
  -4.110190e+01  -8.940785e+01
   6.181814e+01  -7.474631e+01
   5.123990e+01  -9.706758e+00
  -3.850344e+01   2.730506e+01
  -9.258425e+01  -2.204521e+01
  -3.475739e+01  -1.209287e+02
   9.292461e+01  -1.586971e+02
   1.723495e+02  -6.496793e+01
   1.321888e+02   1.025462e+02
   1.292888e+01   2.030021e+02
  -8.716532e+01   1.498582e+02
  -1.089236e+02  -4.103946e+00
  -6.488993e+01  -1.190629e+02
  -3.008105e-01  -1.094218e+02
   4.620250e+01  -2.247798e+01
   5.355847e+01   3.031632e+01
   2.645716e+01   8.542149e+00
   3.113355e+00  -2.130441e+01
   2.045091e+01   1.419910e+01
   5.837190e+01   8.898649e+01
   4.585999e+01   1.117978e+02
  -4.621712e+01   4.791346e+01
  -1.424773e+02  -3.796942e+01
  -1.353390e+02  -7.117676e+01
  -1.963109e+01  -5.126751e+01
   8.997237e+01  -2.428554e+01
   9.103392e+01  -9.393927e+00
   1.153376e+01   6.847205e+00
  -3.890220e+01   2.351649e+01
  -1.382620e+01   1.958971e+01
   2.231923e+01  -1.327278e+00
  -5.649309e+00  -9.754307e+00
  -7.559451e+01  -3.868179e+00
  -9.313928e+01  -2.245671e+01
  -9.484846e+00  -7.959286e+01
   1.182076e+02  -1.160574e+02
   1.859476e+02  -6.181697e+01
   1.436385e+02   6.477285e+01
   2.887833e+01   1.616255e+02
  -7.662035e+01   1.514219e+02
  -1.136364e+02   6.088618e+01
  -8.120970e+01  -1.944890e+01
  -2.444712e+01  -3.371237e+01
   4.395656e+00  -7.356321e+00
  -1.015923e+01  -2.694788e+00
  -3.600303e+01  -4.502406e+01
  -2.640692e+01  -9.098398e+01
   2.788585e+01  -7.390169e+01
   8.346482e+01   1.699621e+01
   8.071166e+01   1.093472e+02
   5.789618e+00   1.150250e+02
  -8.376142e+01   2.580656e+01
  -1.055998e+02  -7.557300e+01
  -3.379710e+01  -1.048547e+02
   6.604849e+01  -5.672510e+01
   9.826050e+01   1.104117e+01
   3.955639e+01   4.976331e+01
  -3.243545e+01   5.098486e+01
  -3.050812e+01   2.785696e+01
   3.575069e+01  -1.248159e+00
   7.147694e+01  -7.844585e+00
   1.671057e+01   2.448185e+01
  -7.869061e+01   6.780394e+01
  -1.156035e+02   6.189195e+01
  -6.376915e+01  -9.727054e+00
   1.613928e+01  -8.300998e+01
   5.341577e+01  -8.000847e+01
   3.673477e+01  -4.960788e+00
   6.215611e-01   5.735688e+01
  -2.695179e+01   4.325541e+01
  -3.719711e+01  -1.944754e+01
  -2.672349e+01  -5.490597e+01
   3.477050e+00  -3.205658e+01
   3.407168e+01   1.006408e+01
   4.029821e+01   2.159332e+01
   2.041696e+01   3.726615e-01
  -1.291018e+00  -1.466621e+01
  -7.321957e+00   3.844765e+00
  -7.098171e+00   3.827539e+01
  -1.770133e+01   4.602593e+01
  -3.366693e+01   7.247237e+00
  -3.134939e+01  -4.691597e+01
   1.896110e+00  -6.319959e+01
   4.549749e+01  -2.196545e+01
   5.800206e+01   3.925871e+01
   1.550450e+01   6.380406e+01
  -5.484446e+01   3.490141e+01
  -8.963840e+01  -1.493242e+01
  -4.978331e+01  -4.404805e+01
   2.916957e+01  -4.126931e+01
   6.588871e+01  -2.176163e+01
   2.457024e+01  -4.511091e+00
  -3.871575e+01  -1.581598e+00
  -3.975041e+01  -1.568444e+01
   3.023755e+01  -3.268191e+01
   9.279721e+01  -2.188625e+01
