
 $NMID
 id='ANONYMOUS ', fmtdat='(2E16.6)'
 volume=1.0
 tramp=1.0
 $END
   2.182786e+03  -1.050537e+02
   1.381974e+03   9.200518e+02
  -1.249326e+02   1.364640e+03
  -1.169186e+03   6.945377e+02
  -5.602635e+02  -9.589233e+01
   2.139539e+02  -2.024684e+02
   3.697652e+02   1.177639e+02
  -6.977415e+01   4.244518e+02
  -3.405546e+02   3.734785e+02
  -4.607595e+02   1.340185e+01
  -2.215730e+02  -3.147178e+02
   2.920697e+01  -4.612745e+02
   1.800284e+02  -9.353349e+01
   1.473285e+02   3.473267e+02
  -6.622324e+01   3.782932e+02
  -2.308194e+02   2.479628e+01
  -1.665946e+02  -3.013168e+02
   1.156278e+02  -3.322568e+02
   2.820309e+02  -8.088494e+01
   2.489822e+02   1.247625e+02
   3.073557e+01   1.912236e+02
  -1.433727e+02   1.048532e+02
  -8.388642e+01   9.421249e+00
   7.232486e+01   8.058003e+00
   1.795583e+02   1.076386e+02
   6.750818e+01   1.966837e+02
  -2.192243e+02   1.436125e+02
  -3.748967e+02  -9.082362e+01
  -1.853068e+02  -2.209741e+02
   1.719494e+02  -1.744601e+02
   3.269736e+02   3.037192e+01
   1.522604e+02   1.963930e+02
  -1.410257e+02   2.044634e+02
  -2.566015e+02   6.519146e+01
  -1.602689e+02  -1.120918e+02
   3.048420e+00  -1.962296e+02
   1.028681e+02  -9.694270e+01
   5.415322e+01   7.808723e+01
  -9.367006e+01   1.642181e+02
  -1.813334e+02  -2.597538e+01
  -7.190503e+01  -2.791833e+02
   1.556661e+02  -2.721589e+02
   2.217301e+02   1.118696e+01
   7.786318e+01   2.261569e+02
  -1.184527e+02   1.210039e+02
  -1.387562e+02  -1.542694e+02
   5.537543e+01  -2.365818e+02
   2.430858e+02  -4.849900e+01
   2.496485e+02   1.950832e+02
   6.044024e+01   2.697935e+02
  -1.751379e+02   1.506061e+02
  -2.792040e+02  -4.232189e+01
  -1.689699e+02  -1.761153e+02
   5.503755e+01  -1.637060e+02
   1.899146e+02  -2.956715e+01
   1.206390e+02   7.403369e+01
  -2.848189e+01   4.313950e+01
  -5.142949e+01  -5.369510e+01
   6.797119e+01  -6.369259e+01
   1.474854e+02   3.656128e+01
   6.327808e+01   1.269652e+02
  -9.568776e+01   1.199893e+02
  -1.689517e+02   4.480167e+01
  -1.122011e+02  -4.471966e+01
   8.193154e+00  -1.305259e+02
   1.216858e+02  -1.709495e+02
   1.766114e+02  -9.771452e+01
   1.358035e+02   7.229384e+01
   2.566818e+01   1.966162e+02
  -5.578290e+01   1.697793e+02
  -4.738945e+01   6.114929e+01
  -9.280518e+00   1.418835e+01
  -3.335052e+01   4.447975e+01
  -1.069719e+02   4.003033e+01
  -1.322213e+02  -4.958956e+01
  -6.152233e+01  -1.360081e+02
   4.742527e+01  -1.115956e+02
   1.106930e+02   8.413323e+00
   8.741093e+01   1.179808e+02
  -9.659062e+00   1.322688e+02
  -1.228012e+02   4.618036e+01
  -1.627866e+02  -8.005220e+01
  -8.777312e+01  -1.572997e+02
   3.946810e+01  -1.430965e+02
   1.012459e+02  -6.792347e+01
   7.414771e+01  -1.695082e+01
   5.866159e+01  -2.087637e+01
   1.205448e+02  -2.084812e+01
   1.943241e+02   3.923051e+01
   1.561325e+02   1.419071e+02
  -9.766280e+00   2.136841e+02
  -1.874861e+02   1.942139e+02
  -2.406568e+02   8.640989e+01
  -1.563280e+02  -5.467653e+01
  -1.759081e+01  -1.409090e+02
   6.200352e+01  -1.155398e+02
   3.266291e+01  -1.787127e+01
  -5.147558e+01   3.641682e+01
  -8.129143e+01  -1.055684e+01
  -1.379411e+01  -8.161597e+01
   7.309288e+01  -6.541248e+01
   7.206041e+01   3.212417e+01
  -1.305911e+01   8.275938e+01
  -8.973641e+01   8.258350e+00
  -7.646198e+01  -1.187485e+02
   1.309442e+01  -1.677089e+02
   1.116991e+02  -9.419202e+01
   1.616623e+02   3.027301e+01
   1.354992e+02   1.186199e+02
   4.223911e+01   1.295043e+02
  -5.632461e+01   7.452060e+01
  -8.340073e+01   7.737505e+00
  -2.823909e+01  -1.257003e+01
   2.796622e+01   2.284409e+01
   8.761692e+00   5.893478e+01
  -5.808215e+01   4.085261e+01
  -8.025674e+01  -1.122465e+01
  -2.508226e+01  -3.298850e+01
   3.611515e+01  -8.447031e-01
   2.142127e+01   4.050328e+01
  -6.451305e+01   3.893401e+01
  -1.373203e+02  -1.105907e+01
  -1.211865e+02  -7.824056e+01
  -1.810527e+01  -1.241293e+02
   9.591176e+01  -1.163403e+02
   1.342592e+02  -5.095160e+01
   7.518970e+01   2.636066e+01
  -1.352480e+01   4.769880e+01
  -3.892410e+01   1.393298e+00
   2.046774e+01  -4.494206e+01
   9.311496e+01  -2.300903e+01
   9.740221e+01   5.121533e+01
   2.863129e+01   9.792302e+01
  -4.624356e+01   7.282032e+01
  -6.553201e+01   1.184722e+01
  -2.818393e+01  -1.869119e+01
   1.562146e+01   4.504005e+00
   1.350843e+01   4.655103e+01
  -4.202538e+01   5.577129e+01
  -9.930274e+01   9.623589e+00
  -9.168955e+01  -6.350300e+01
  -1.024893e+01  -1.045251e+02
   7.605458e+01  -7.712490e+01
   9.046130e+01  -4.101074e+00
   3.156211e+01   5.135861e+01
  -3.030445e+01   5.005276e+01
  -3.884237e+01   1.274193e+01
  -7.589576e+00  -1.344387e+01
   1.195639e+01  -7.704976e+00
  -5.045615e+00   7.030483e+00
  -3.675118e+01  -2.711589e+00
  -4.432799e+01  -4.249468e+01
  -4.544076e+00  -8.056773e+01
   6.614332e+01  -7.322167e+01
   1.143372e+02  -6.964190e+00
   9.370533e+01   7.655459e+01
   1.651504e+01   1.142091e+02
  -5.392566e+01   7.958996e+01
  -6.643042e+01   1.315509e+01
  -3.631850e+01  -2.538787e+01
  -1.637489e+01  -1.784625e+01
  -2.620848e+01   1.494747e+00
  -3.810888e+01  -2.864162e+00
  -1.936388e+01  -2.833166e+01
   2.406029e+01  -4.391195e+01
   5.537328e+01  -2.471777e+01
   4.741722e+01   2.244722e+01
  -6.880039e+00   5.925458e+01
  -7.461982e+01   4.394942e+01
  -1.008622e+02  -2.677503e+01
  -4.919320e+01  -9.957506e+01
   5.432122e+01  -1.111205e+02
   1.309689e+02  -4.623906e+01
   1.236586e+02   4.252987e+01
   5.119560e+01   8.599578e+01
  -1.999713e+01   7.158265e+01
  -4.613970e+01   4.008101e+01
  -3.891351e+01   3.235933e+01
  -3.313247e+01   4.236619e+01
  -4.492680e+01   3.425683e+01
  -6.076037e+01  -1.185748e+01
  -5.364751e+01  -7.444912e+01
  -1.046104e+01  -1.080203e+02
   4.928771e+01  -8.106444e+01
   8.325867e+01  -7.210856e+00
   6.269080e+01   6.132236e+01
   5.861917e+00   7.809538e+01
  -3.586160e+01   4.337839e+01
  -3.114334e+01  -2.876948e+00
  -1.264562e+00  -2.341252e+01
   8.732000e+00  -1.727803e+01
  -1.519548e+01  -7.402996e+00
  -3.963328e+01  -9.603970e+00
  -2.362495e+01  -1.863293e+01
   3.161379e+01  -1.816545e+01
   7.843684e+01   1.101636e+00
   6.799737e+01   2.941902e+01
   2.140660e+00   4.538500e+01
  -6.347315e+01   3.392757e+01
  -7.175126e+01   1.910762e+00
  -2.288314e+01  -2.415637e+01
   2.931339e+01  -2.057849e+01
   3.733655e+01   8.219654e+00
   5.738708e+00   3.347015e+01
  -2.463996e+01   2.891542e+01
  -3.065567e+01  -2.841142e-01
  -2.253459e+01  -2.437796e+01
  -2.114310e+01  -2.120496e+01
  -2.856020e+01  -2.630791e+00
  -3.121511e+01  -2.359522e+00
  -1.639303e+01  -3.474751e+01
   1.851660e+01  -7.000881e+01
   6.109923e+01  -6.437048e+01
   8.283317e+01  -1.026366e+01
   5.855536e+01   4.853331e+01
  -9.797506e-01   6.256175e+01
  -4.579588e+01   2.940476e+01
  -3.139116e+01  -7.185783e+00
   2.721172e+01  -8.538275e+00
   6.448564e+01   2.263873e+01
   3.389845e+01   5.210722e+01
  -4.159207e+01   5.133880e+01
  -9.304790e+01   1.935804e+01
  -7.680375e+01  -2.117147e+01
  -1.456289e+01  -4.243266e+01
   3.204491e+01  -3.068292e+01
   2.392873e+01  -2.415178e-01
  -2.003981e+01   1.377458e+01
  -4.438743e+01  -1.165787e+01
  -1.550839e+01  -5.722707e+01
   4.444908e+01  -7.287376e+01
   8.014799e+01  -2.863537e+01
   5.906250e+01   4.902281e+01
   2.076537e+00   9.462938e+01
  -4.344679e+01   6.789229e+01
  -5.076840e+01  -5.385268e+00
  -2.690527e+01  -5.840703e+01
   4.042876e+00  -5.122982e+01
   2.342585e+01  -8.749372e+00
   2.375610e+01   1.567003e+01
   1.121912e+01   4.452738e+00
   2.371762e+00  -8.797535e+00
   1.086731e+01   9.116789e+00
   2.514502e+01   4.415761e+01
   1.632364e+01   5.248675e+01
  -2.515248e+01   2.010424e+01
  -6.542826e+01  -2.144773e+01
  -6.007320e+01  -3.653295e+01
  -7.734668e+00  -2.508325e+01
   4.116685e+01  -9.566801e+00
   4.232038e+01  -1.539203e+00
   6.798394e+00   4.455256e+00
  -1.755530e+01   9.850066e+00
  -8.070128e+00   7.981770e+00
   8.344012e+00   2.976057e-01
  -3.245068e+00  -2.935897e+00
  -3.476907e+01  -2.431341e+00
  -4.390948e+01  -1.390151e+01
  -4.853311e+00  -3.984059e+01
   5.736941e+01  -5.326948e+01
   9.143692e+01  -2.536537e+01
   6.932806e+01   3.432966e+01
   1.049352e+01   7.863573e+01
  -4.197920e+01   7.247119e+01
  -5.777414e+01   2.803216e+01
  -3.982438e+01  -1.164578e+01
  -1.290113e+01  -1.947160e+01
  -1.259627e-01  -6.716085e+00
  -5.439062e+00  -4.165449e+00
  -1.337761e+01  -2.383205e+01
  -6.859698e+00  -4.430941e+01
   1.662701e+01  -3.390120e+01
   3.882509e+01   1.053251e+01
   3.552908e+01   5.342904e+01
   1.035154e+00   5.408939e+01
  -3.969529e+01   1.088576e+01
  -4.875071e+01  -3.700806e+01
  -1.396673e+01  -5.036874e+01
   3.381682e+01  -2.645898e+01
   4.834224e+01   7.240307e+00
   1.863629e+01   2.671274e+01
  -1.743150e+01   2.649837e+01
  -1.749524e+01   1.362139e+01
   1.422652e+01  -2.483875e-01
   3.234401e+01  -2.150899e+00
   6.454104e+00   1.283674e+01
  -3.953751e+01   2.999674e+01
  -5.810589e+01   2.427723e+01
  -3.247930e+01  -9.062431e+00
   8.380350e+00  -4.110435e+01
   2.855639e+01  -3.861818e+01
   2.059364e+01  -3.540066e+00
   1.346402e+00   2.663544e+01
  -1.319779e+01   2.194216e+01
  -1.787042e+01  -7.254546e+00
  -1.254944e+01  -2.626494e+01
   1.086127e+00  -1.783236e+01
   1.529469e+01   2.736881e+00
   1.904467e+01   1.080959e+01
   1.071748e+01   1.780288e+00
   2.531209e-01  -7.442532e+00
  -3.345534e+00  -2.190379e-01
  -3.006686e+00   1.660022e+01
  -6.851520e+00   2.201142e+01
  -1.472061e+01   4.495973e+00
  -1.479447e+01  -2.163804e+01
   2.720231e-01  -2.968804e+01
   2.154247e+01  -9.797244e+00
   2.797810e+01   1.948982e+01
   7.470557e+00   3.092294e+01
  -2.656852e+01   1.616924e+01
  -4.311058e+01  -8.299828e+00
  -2.362399e+01  -2.212789e+01
   1.389192e+01  -1.990436e+01
   3.120624e+01  -9.994231e+00
   1.253305e+01  -2.231013e+00
  -1.628611e+01  -9.321626e-01
  -1.681526e+01  -7.183842e+00
   1.445445e+01  -1.419934e+01
   4.269418e+01  -8.237705e+00
