
 $NMID
 id='ANONYMOUS ', fmtdat='(2E16.6)'
 volume=1.0
 tramp=1.0
 $END
  -4.803923e+03  -1.394216e+02
  -2.759462e+03  -2.828650e+03
   6.545183e+02  -3.126436e+03
   2.236172e+03  -1.034733e+03
   9.689065e+02   7.995123e+02
  -6.907018e+02   7.298617e+02
  -1.120794e+03  -6.381361e+02
  -2.973024e+01  -1.197974e+03
   9.001203e+02  -8.666910e+02
   1.105615e+03   1.197197e+02
   4.369250e+02   8.086260e+02
  -2.071865e+02   8.753045e+02
  -5.280848e+02   2.480762e+02
  -4.150089e+02  -6.160789e+02
   1.879470e+02  -7.839187e+02
   6.318674e+02  -2.561968e+00
   3.142187e+02   7.202207e+02
  -3.732432e+02   7.266431e+02
  -6.450253e+02   1.263741e+02
  -4.347403e+02  -3.605814e+02
   3.580312e+00  -4.532935e+02
   2.534827e+02  -2.833264e+02
   2.433194e+02   6.811354e+00
  -1.254529e+02   1.267093e+02
  -4.371180e+02  -1.269645e+02
  -2.488392e+02  -4.732911e+02
   4.637977e+02  -4.215414e+02
   8.857921e+02   7.545849e+01
   4.686653e+02   5.727564e+02
  -4.064311e+02   5.163694e+02
  -7.799898e+02  -3.935159e+01
  -3.861123e+02  -4.944211e+02
   2.643646e+02  -5.471968e+02
   5.764708e+02  -2.014619e+02
   4.183241e+02   2.282796e+02
   5.279928e+01   4.754633e+02
  -2.139687e+02   2.946032e+02
  -1.650387e+02  -2.110813e+02
   1.820033e+02  -4.353509e+02
   4.694356e+02   1.929640e+01
   2.452545e+02   6.847415e+02
  -3.326777e+02   6.992998e+02
  -6.251082e+02  -1.237933e+01
  -2.477032e+02  -5.897333e+02
   3.207498e+02  -3.338780e+02
   4.116150e+02   3.555907e+02
  -8.471695e+01   5.807619e+02
  -5.815029e+02   1.376162e+02
  -5.955679e+02  -4.358506e+02
  -1.388806e+02  -6.051326e+02
   4.110386e+02  -3.412227e+02
   6.421312e+02   9.544902e+01
   3.663432e+02   4.126349e+02
  -1.751842e+02   3.842798e+02
  -4.691509e+02   5.280866e+01
  -2.558127e+02  -2.152740e+02
   1.263957e+02  -1.247938e+02
   1.618533e+02   1.584448e+02
  -1.617589e+02   2.054585e+02
  -3.613739e+02  -7.118083e+01
  -1.496088e+02  -3.212601e+02
   2.182464e+02  -2.753268e+02
   3.525059e+02  -5.873035e+01
   1.988639e+02   1.148618e+02
  -4.221497e+01   2.373950e+02
  -2.327815e+02   3.191086e+02
  -3.304368e+02   2.096645e+02
  -2.776471e+02  -1.371891e+02
  -7.675405e+01  -4.328711e+02
   1.072099e+02  -3.810664e+02
   1.154180e+02  -1.102666e+02
   2.850157e+01   1.130068e+01
   5.190878e+01  -9.100142e+01
   2.040941e+02  -1.328623e+02
   2.847766e+02   5.555146e+01
   1.617526e+02   2.789858e+02
  -7.279822e+01   2.647612e+02
  -2.349640e+02   1.173686e+01
  -2.091461e+02  -2.446559e+02
   4.994776e+00  -2.976248e+02
   2.743115e+02  -1.193089e+02
   3.769398e+02   1.684240e+02
   1.951552e+02   3.571793e+02
  -1.124719e+02   3.162624e+02
  -2.479626e+02   1.206657e+02
  -1.600373e+02  -5.830619e+00
  -8.703908e+01   2.559344e+01
  -2.215481e+02   6.813141e+01
  -4.055506e+02  -5.396309e+01
  -3.431762e+02  -2.914950e+02
   6.659316e+00  -4.569328e+02
   3.745130e+02  -4.202403e+02
   4.991618e+02  -1.962566e+02
   3.376207e+02   1.030068e+02
   5.012836e+01   2.995666e+02
  -1.324405e+02   2.547164e+02
  -8.416105e+01   2.751984e+01
   1.130642e+02  -1.129278e+02
   2.021137e+02   6.088325e+00
   5.407844e+01   2.040284e+02
  -1.648769e+02   1.792877e+02
  -1.870578e+02  -6.432928e+01
   1.609655e+01  -2.020643e+02
   2.004333e+02  -3.567236e+01
   1.675969e+02   2.543223e+02
  -3.587694e+01   3.552784e+02
  -2.389703e+02   1.930633e+02
  -3.351597e+02  -6.626757e+01
  -2.848318e+02  -2.434759e+02
  -9.699594e+01  -2.726424e+02
   1.184886e+02  -1.700041e+02
   1.870562e+02  -2.534248e+01
   6.288281e+01   3.393648e+01
  -7.273909e+01  -3.752030e+01
  -3.201681e+01  -1.290340e+02
   1.285970e+02  -1.040368e+02
   1.858810e+02   1.429656e+01
   6.068915e+01   7.749012e+01
  -8.256269e+01   1.885236e+01
  -5.679432e+01  -7.337811e+01
   1.231919e+02  -8.539276e+01
   2.804208e+02   2.631760e+00
   2.607331e+02   1.400019e+02
   5.820828e+01   2.532744e+02
  -1.869051e+02   2.607273e+02
  -2.884488e+02   1.268576e+02
  -1.729327e+02  -5.515394e+01
   2.790060e+01  -1.161971e+02
   9.695215e+01  -1.049391e+01
  -3.215173e+01   1.059123e+02
  -2.018140e+02   6.310688e+01
  -2.189825e+02  -1.060519e+02
  -6.855166e+01  -2.162386e+02
   9.944356e+01  -1.632023e+02
   1.481314e+02  -2.884019e+01
   7.270057e+01   4.326051e+01
  -2.640354e+01   2.736499e+00
  -3.573644e+01  -8.414417e+01
   7.290009e+01  -1.136390e+02
   2.005560e+02  -2.847854e+01
   1.958034e+02   1.264933e+02
   2.264838e+01   2.241688e+02
  -1.693751e+02   1.688934e+02
  -2.013269e+02   5.237354e+00
  -6.838843e+01  -1.196727e+02
   6.884570e+01  -1.151307e+02
   8.625996e+01  -3.148572e+01
   1.989209e+01   2.507345e+01
  -1.962734e+01   1.666757e+01
   1.342676e+01  -7.395245e+00
   7.396405e+01   1.311500e+01
   8.779267e+01   8.765890e+01
   1.133635e+01   1.606848e+02
  -1.312176e+02   1.523564e+02
  -2.372914e+02   2.449916e+01
  -2.038019e+02  -1.535579e+02
  -4.092168e+01  -2.425045e+02
   1.125058e+02  -1.724185e+02
   1.388254e+02  -2.562756e+01
   7.099167e+01   5.959718e+01
   2.687115e+01   3.752203e+01
   5.261340e+01  -1.304610e+01
   7.881362e+01  -6.811417e+00
   3.983691e+01   5.080938e+01
  -4.368912e+01   8.875907e+01
  -1.020574e+02   5.319999e+01
  -8.409493e+01  -3.944194e+01
   1.467289e+01  -1.149531e+02
   1.434480e+02  -8.842099e+01
   2.011253e+02   5.121726e+01
   1.056159e+02   2.056924e+02
  -1.053156e+02   2.345984e+02
  -2.712358e+02   1.006608e+02
  -2.626999e+02  -8.677205e+01
  -1.118452e+02  -1.799164e+02
   4.016289e+01  -1.503122e+02
   9.719418e+01  -8.571459e+01
   8.197294e+01  -6.942017e+01
   6.825565e+01  -8.942878e+01
   9.238517e+01  -7.203529e+01
   1.279479e+02   2.444628e+01
   1.176301e+02   1.556364e+02
   2.945684e+01   2.275888e+02
  -9.978883e+01   1.733880e+02
  -1.788646e+02   2.058978e+01
  -1.397769e+02  -1.242432e+02
  -1.922945e+01  -1.632169e+02
   6.993983e+01  -9.436939e+01
   6.269826e+01  -1.555293e-01
   5.410548e+00   4.403875e+01
  -1.096911e+01   3.459499e+01
   3.643692e+01   1.700203e+01
   8.009333e+01   2.149972e+01
   4.579147e+01   3.713081e+01
  -6.237266e+01   3.535996e+01
  -1.554608e+02   2.437756e+00
  -1.404781e+02  -4.944997e+01
  -1.375029e+01  -8.509603e+01
   1.205278e+02  -7.132505e+01
   1.444383e+02  -1.270829e+01
   4.768803e+01   4.074794e+01
  -6.089122e+01   3.776539e+01
  -7.710304e+01  -1.727072e+01
  -9.248717e+00  -6.662454e+01
   5.400516e+01  -5.750615e+01
   6.137794e+01   1.636343e+00
   4.250282e+01   4.950668e+01
   4.202684e+01   4.130135e+01
   6.031174e+01   9.766607e-01
   6.506133e+01  -1.852732e+00
   3.387168e+01   6.479261e+01
  -3.319429e+01   1.434868e+02
  -1.147594e+02   1.398024e+02
  -1.610768e+02   3.211434e+01
  -1.205399e+02  -9.208922e+01
  -5.067973e+00  -1.258184e+02
   8.616946e+01  -5.921454e+01
   5.934683e+01   1.709295e+01
  -6.018898e+01   1.970098e+01
  -1.380650e+02  -4.518470e+01
  -7.561543e+01  -1.083480e+02
   8.195759e+01  -1.119942e+02
   1.924080e+02  -5.138287e+01
   1.637904e+02   3.368302e+01
   3.768256e+01   8.711703e+01
  -6.151143e+01   7.212865e+01
  -4.984621e+01   9.430476e+00
   3.849836e+01  -2.622446e+01
   9.062479e+01   2.221456e+01
   3.187644e+01   1.193783e+02
  -9.458196e+01   1.553019e+02
  -1.710241e+02   6.191158e+01
  -1.282362e+02  -1.031830e+02
  -9.042779e+00  -2.001063e+02
   8.764040e+01  -1.448760e+02
   1.053307e+02   7.623797e+00
   5.983499e+01   1.183408e+02
  -2.914403e+00   1.057386e+02
  -4.660318e+01   1.925898e+01
  -5.290293e+01  -3.189742e+01
  -2.648182e+01  -9.356966e+00
  -3.214235e+00   1.908614e+01
  -1.817233e+01  -1.678419e+01
  -5.296255e+01  -8.957091e+01
  -4.067966e+01  -1.089105e+02
   4.697827e+01  -4.316089e+01
   1.380286e+02   4.223339e+01
   1.293992e+02   7.313555e+01
   1.604219e+01   5.035366e+01
  -9.046709e+01   2.154800e+01
  -9.003963e+01   6.508117e+00
  -1.075337e+01  -8.780302e+00
   3.954411e+01  -2.401908e+01
   1.417322e+01  -1.984051e+01
  -2.173538e+01   2.740535e-01
   6.624026e+00   9.038586e+00
   7.672221e+01   5.603463e+00
   9.350140e+01   2.643727e+01
   7.645156e+00   8.208403e+01
  -1.212916e+02   1.135778e+02
  -1.876096e+02   5.567485e+01
  -1.412870e+02  -6.995503e+01
  -2.366924e+01  -1.618857e+02
   8.102673e+01  -1.473102e+02
   1.149350e+02  -5.602604e+01
   8.037927e+01   2.230450e+01
   2.399151e+01   3.509587e+01
  -3.984966e+00   8.906661e+00
   9.187353e+00   4.959863e+00
   3.167239e+01   4.639320e+01
   2.095613e+01   8.969253e+01
  -3.086248e+01   7.036879e+01
  -8.135460e+01  -2.052756e+01
  -7.527121e+01  -1.100496e+02
  -1.555636e+00  -1.125657e+02
   8.351121e+01  -2.211848e+01
   1.015803e+02   7.757552e+01
   2.916222e+01   1.039437e+02
  -6.854539e+01   5.352237e+01
  -9.760553e+01  -1.426698e+01
  -3.751673e+01  -5.120599e+01
   3.396748e+01  -5.083806e+01
   3.145474e+01  -2.791638e+01
  -3.416197e+01  -1.043945e+00
  -6.843910e+01   5.204485e+00
  -1.313427e+01  -2.472186e+01
   8.086897e+01  -6.372024e+01
   1.159424e+02  -5.580232e+01
   6.248542e+01   1.421777e+01
  -1.782888e+01   8.368266e+01
  -5.474967e+01   7.871188e+01
  -3.796326e+01   4.638783e+00
  -1.548037e+00  -5.609805e+01
   2.617293e+01  -4.211182e+01
   3.649405e+01   1.916776e+01
   2.519125e+01   5.388926e+01
  -5.374771e+00   3.221539e+01
  -3.489507e+01  -9.054203e+00
  -3.974613e+01  -2.175572e+01
  -2.030658e+01  -2.888566e+00
   4.357995e-01   1.163221e+01
   7.283827e+00  -4.956401e+00
   9.333134e+00  -3.677270e+01
   1.995003e+01  -4.321972e+01
   3.293354e+01  -5.389639e+00
   2.718636e+01   4.746161e+01
  -5.815166e+00   6.240203e+01
  -4.593890e+01   1.985564e+01
  -5.535399e+01  -4.199164e+01
  -1.373956e+01  -6.576552e+01
   5.439854e+01  -3.415420e+01
   8.826034e+01   1.736347e+01
   4.909106e+01   4.571070e+01
  -2.917874e+01   4.013238e+01
  -6.604548e+01   1.912710e+01
  -2.471636e+01   3.196447e+00
   3.849609e+01   2.413930e+00
   3.909202e+01   1.708265e+01
  -3.176440e+01   3.186923e+01
  -9.430034e+01   1.854890e+01
