
 $NMID
 id='ANONYMOUS ', fmtdat='(2E16.6)'
 volume=1.0
 tramp=1.0
 $END
   4.631383e+03   4.984802e+01
   2.877687e+03   2.856761e+03
  -8.291163e+02   2.835879e+03
  -2.276827e+03   9.127912e+02
  -8.876522e+02  -9.429339e+02
   5.911605e+02  -6.931654e+02
   1.002252e+03   5.178388e+02
   6.910627e+01   1.154004e+03
  -8.027970e+02   9.371722e+02
  -1.073599e+03  -8.240490e+01
  -5.036505e+02  -8.556574e+02
   1.591957e+02  -8.636377e+02
   6.028700e+02  -1.233651e+02
   4.078036e+02   7.061650e+02
  -2.107205e+02   8.097339e+02
  -6.297601e+02   7.119934e+00
  -3.071693e+02  -7.271532e+02
   3.201517e+02  -6.682843e+02
   6.472246e+02  -1.352520e+02
   4.134087e+02   3.297806e+02
   8.813773e+00   4.595552e+02
  -2.649261e+02   3.266679e+02
  -1.906095e+02   1.229873e+01
   1.158160e+02  -1.224278e+02
   4.566855e+02   7.655904e+01
   2.700261e+02   4.377730e+02
  -4.459837e+02   4.665952e+02
  -9.046444e+02  -2.446557e+01
  -5.083086e+02  -5.863422e+02
   3.722613e+02  -5.669648e+02
   7.995663e+02   5.245739e+00
   4.050557e+02   5.192700e+02
  -2.829115e+02   5.596894e+02
  -6.023618e+02   2.201600e+02
  -4.472845e+02  -2.665440e+02
  -5.182270e+01  -5.200257e+02
   2.450615e+02  -2.989060e+02
   1.926564e+02   2.478504e+02
  -1.723305e+02   4.807902e+02
  -4.824100e+02  -1.301497e+01
  -2.686735e+02  -7.211690e+02
   3.659346e+02  -7.346082e+02
   6.616305e+02   9.928627e+00
   2.803812e+02   6.178829e+02
  -3.310658e+02   3.606788e+02
  -4.354899e+02  -3.412253e+02
   5.707853e+01  -5.955841e+02
   5.984322e+02  -1.693893e+02
   6.398903e+02   4.298309e+02
   1.706680e+02   6.376359e+02
  -4.202938e+02   3.804261e+02
  -6.736984e+02  -9.147121e+01
  -3.888784e+02  -4.358013e+02
   1.784103e+02  -4.023134e+02
   4.809327e+02  -4.413437e+01
   2.566842e+02   2.343078e+02
  -1.349791e+02   1.286806e+02
  -1.662982e+02  -1.695019e+02
   1.670946e+02  -2.130643e+02
   3.722276e+02   7.008985e+01
   1.614748e+02   3.177554e+02
  -2.083495e+02   2.766933e+02
  -3.549095e+02   8.170842e+01
  -2.225349e+02  -8.182684e+01
   1.413695e+01  -2.319117e+02
   2.329542e+02  -3.518184e+02
   3.664766e+02  -2.400359e+02
   3.140905e+02   1.505866e+02
   7.687085e+01   4.743446e+02
  -1.358313e+02   4.019931e+02
  -1.355784e+02   9.604618e+01
  -2.351640e+01  -2.620420e+01
  -4.172183e+01   1.028854e+02
  -2.092488e+02   1.530629e+02
  -3.008124e+02  -5.763522e+01
  -1.706199e+02  -3.033353e+02
   8.055451e+01  -2.854837e+02
   2.490294e+02  -1.501051e+01
   2.182454e+02   2.537044e+02
  -5.618870e+00   3.083752e+02
  -2.821708e+02   1.245907e+02
  -3.845980e+02  -1.680909e+02
  -1.935523e+02  -3.666276e+02
   1.159140e+02  -3.230921e+02
   2.495468e+02  -1.221678e+02
   1.581117e+02   6.134573e+00
   9.193371e+01  -3.640933e+01
   2.313119e+02  -7.782244e+01
   4.170308e+02   4.706710e+01
   3.541076e+02   2.950847e+02
   5.420855e+00   4.704651e+02
  -3.725643e+02   4.389126e+02
  -5.161207e+02   2.091852e+02
  -3.605316e+02  -1.061112e+02
  -5.493821e+01  -3.201920e+02
   1.500504e+02  -2.707079e+02
   9.598032e+01  -2.325223e+01
  -1.184555e+02   1.269650e+02
  -2.201415e+02  -5.360673e-01
  -5.953871e+01  -2.155967e+02
   1.767233e+02  -1.921907e+02
   1.977406e+02   6.473769e+01
  -1.854180e+01   2.111357e+02
  -2.118728e+02   3.888382e+01
  -1.772007e+02  -2.621862e+02
   3.163472e+01  -3.709075e+02
   2.389660e+02  -2.028741e+02
   3.379387e+02   6.192120e+01
   2.898462e+02   2.416432e+02
   1.019280e+02   2.693404e+02
  -1.170831e+02   1.667611e+02
  -1.873208e+02   2.097415e+01
  -5.973005e+01  -3.813146e+01
   8.005378e+01   3.720418e+01
   3.697295e+01   1.340545e+02
  -1.309458e+02   1.097233e+02
  -1.928749e+02  -1.353230e+01
  -6.476894e+01  -8.166921e+01
   8.509399e+01  -2.217197e+01
   6.231330e+01   7.517362e+01
  -1.240648e+02   9.025427e+01
  -2.904775e+02  -5.792891e-01
  -2.730755e+02  -1.449679e+02
  -6.254503e+01  -2.650541e+02
   1.945291e+02  -2.735782e+02
   3.015600e+02  -1.322230e+02
   1.810432e+02   6.005711e+01
  -2.923982e+01   1.244111e+02
  -1.031948e+02   1.214255e+01
   3.063341e+01  -1.127153e+02
   2.076592e+02  -7.027193e+01
   2.275426e+02   1.072336e+02
   7.197879e+01   2.238242e+02
  -1.032776e+02   1.691189e+02
  -1.543464e+02   2.751374e+01
  -7.489344e+01  -4.921347e+01
   3.038312e+01  -7.601594e+00
   4.311225e+01   8.412759e+01
  -6.807948e+01   1.180449e+02
  -2.022174e+02   3.399546e+01
  -2.019089e+02  -1.242076e+02
  -2.693309e+01  -2.267973e+02
   1.713533e+02  -1.737377e+02
   2.071867e+02  -7.645942e+00
   7.245307e+01   1.222874e+02
  -6.960422e+01   1.204253e+02
  -8.970585e+01   3.386568e+01
  -2.213060e+01  -2.703522e+01
   2.054075e+01  -1.937752e+01
  -1.088505e+01   9.780074e+00
  -7.261440e+01  -7.968665e+00
  -9.264314e+01  -8.351385e+01
  -2.014738e+01  -1.651536e+02
   1.266732e+02  -1.626499e+02
   2.434061e+02  -3.239423e+01
   2.158033e+02   1.534793e+02
   4.775864e+01   2.490431e+02
  -1.144265e+02   1.804507e+02
  -1.437222e+02   3.003992e+01
  -7.389574e+01  -5.814079e+01
  -2.957397e+01  -3.832115e+01
  -5.475788e+01   1.170732e+01
  -8.089213e+01   6.448793e+00
  -3.995630e+01  -5.012434e+01
   4.432399e+01  -8.793451e+01
   1.022096e+02  -5.404661e+01
   8.607653e+01   3.689460e+01
  -1.124495e+01   1.137029e+02
  -1.428152e+02   9.202661e+01
  -2.058707e+02  -4.750545e+01
  -1.124995e+02  -2.040936e+02
   1.028985e+02  -2.381945e+02
   2.740057e+02  -1.062065e+02
   2.676561e+02   8.202006e+01
   1.152408e+02   1.803722e+02
  -3.887551e+01   1.534273e+02
  -9.629255e+01   8.918544e+01
  -8.246067e+01   7.251067e+01
  -7.069107e+01   9.243088e+01
  -9.591813e+01   7.415750e+01
  -1.308903e+02  -2.400496e+01
  -1.206835e+02  -1.588557e+02
  -3.175012e+01  -2.336903e+02
   1.011282e+02  -1.801828e+02
   1.847204e+02  -2.415496e+01
   1.468841e+02   1.252892e+02
   2.395447e+01   1.684099e+02
  -6.901014e+01   1.006352e+02
  -6.393774e+01   4.620253e+00
  -7.660886e+00  -4.270430e+01
   8.283113e+00  -3.568790e+01
  -3.837159e+01  -1.856744e+01
  -8.116321e+01  -2.193394e+01
  -4.590951e+01  -3.769662e+01
   6.302852e+01  -3.769370e+01
   1.586265e+02  -4.658092e+00
   1.454695e+02   5.060311e+01
   1.641659e+01   9.012452e+01
  -1.235302e+02   7.671274e+01
  -1.503038e+02   1.434506e+01
  -5.109827e+01  -4.266310e+01
   6.180678e+01  -4.045805e+01
   7.814781e+01   1.654491e+01
   7.795879e+00   6.721305e+01
  -5.605984e+01   5.774908e+01
  -6.192913e+01  -1.681059e+00
  -4.187012e+01  -5.000150e+01
  -4.343768e+01  -4.152597e+01
  -6.303611e+01  -1.742106e+00
  -6.648409e+01  -7.907978e-02
  -3.429964e+01  -6.809209e+01
   3.347997e+01  -1.474462e+02
   1.165144e+02  -1.434945e+02
   1.664656e+02  -3.395107e+01
   1.269798e+02   9.348988e+01
   8.258053e+00   1.295817e+02
  -8.875751e+01   6.322220e+01
  -6.291805e+01  -1.528874e+01
   6.088267e+01  -2.047153e+01
   1.430849e+02   4.478601e+01
   7.903233e+01   1.108460e+02
  -8.420255e+01   1.169845e+02
  -1.987698e+02   5.588287e+01
  -1.690603e+02  -3.303830e+01
  -3.941703e+01  -8.983817e+01
   6.187086e+01  -7.525668e+01
   5.010827e+01  -1.035370e+01
  -3.930487e+01   2.686600e+01
  -9.263788e+01  -2.264840e+01
  -3.350930e+01  -1.221666e+02
   9.490746e+01  -1.596529e+02
   1.740178e+02  -6.468519e+01
   1.326071e+02   1.048058e+02
   1.152960e+01   2.061543e+02
  -8.896047e+01   1.510933e+02
  -1.100019e+02  -5.796588e+00
  -6.482535e+01  -1.221005e+02
   1.281832e-01  -1.112408e+02
   4.714922e+01  -2.164960e+01
   5.490345e+01   3.270178e+01
   2.764403e+01   9.395272e+00
   3.193850e+00  -2.174757e+01
   1.974641e+01   1.406495e+01
   5.716598e+01   9.042057e+01
   4.467533e+01   1.132506e+02
  -4.750240e+01   4.735728e+01
  -1.434931e+02  -4.071880e+01
  -1.349314e+02  -7.365082e+01
  -1.737399e+01  -5.159356e+01
   9.251704e+01  -2.350435e+01
   9.234974e+01  -8.576423e+00
   1.106367e+01   7.655013e+00
  -3.985186e+01   2.459884e+01
  -1.411119e+01   2.074687e+01
   2.233125e+01  -3.754894e-01
  -6.295826e+00  -9.077597e+00
  -7.716978e+01  -3.873952e+00
  -9.460880e+01  -2.426874e+01
  -9.249091e+00  -8.264784e+01
   1.209272e+02  -1.174078e+02
   1.896644e+02  -5.932806e+01
   1.449443e+02   6.990158e+01
   2.662966e+01   1.656630e+02
  -8.076379e+01   1.520237e+02
  -1.170905e+02   5.887570e+01
  -8.264767e+01  -2.163119e+01
  -2.497246e+01  -3.515375e+01
   3.737824e+00  -8.432667e+00
  -1.047336e+01  -4.307268e+00
  -3.458639e+01  -4.664475e+01
  -2.344296e+01  -9.194554e+01
   3.062429e+01  -7.322401e+01
   8.370615e+01   1.945355e+01
   7.794797e+01   1.120624e+02
   2.224948e+00   1.151635e+02
  -8.569526e+01   2.298671e+01
  -1.046771e+02  -7.915864e+01
  -3.098957e+01  -1.062210e+02
   6.899365e+01  -5.543806e+01
   9.953547e+01   1.307812e+01
   3.914965e+01   5.099150e+01
  -3.385077e+01   5.201174e+01
  -3.121915e+01   2.931388e+01
   3.591878e+01   1.061264e+00
   7.118838e+01  -5.628265e+00
   1.418287e+01   2.616577e+01
  -8.307240e+01   6.765392e+01
  -1.202559e+02   5.969464e+01
  -6.630166e+01  -1.335051e+01
   1.598298e+01  -8.652636e+01
   5.452940e+01  -8.229321e+01
   3.862806e+01  -6.348026e+00
   2.614792e+00   5.636003e+01
  -2.535228e+01   4.297932e+01
  -3.670602e+01  -1.889638e+01
  -2.657065e+01  -5.415330e+01
   3.925131e+00  -3.250433e+01
   3.466028e+01   8.814469e+00
   4.055734e+01   2.170646e+01
   2.100804e+01   2.057471e+00
  -7.112564e-01  -1.250445e+01
  -7.588461e+00   4.831247e+00
  -9.104879e+00   3.782241e+01
  -2.011552e+01   4.446136e+01
  -3.426292e+01   5.415375e+00
  -2.920227e+01  -4.858689e+01
   4.749320e+00  -6.387969e+01
   4.685835e+01  -2.076849e+01
   5.765172e+01   4.151071e+01
   1.537318e+01   6.557935e+01
  -5.464394e+01   3.485892e+01
  -9.029743e+01  -1.609163e+01
  -5.093230e+01  -4.493312e+01
   2.852875e+01  -4.082775e+01
   6.631649e+01  -2.073697e+01
   2.481933e+01  -4.671467e+00
  -3.896252e+01  -3.337116e+00
  -3.939937e+01  -1.791741e+01
   3.231492e+01  -3.331792e+01
   9.587475e+01  -2.029226e+01
