
 $NMID
 id='ANONYMOUS ', fmtdat='(2E16.6)'
 volume=1.0
 tramp=1.0
 $END
   4.472590e+03   2.344315e+01
   2.559223e+03   2.528287e+03
  -4.799479e+02   2.893157e+03
  -2.003644e+03   1.151788e+03
  -1.107676e+03  -4.119018e+02
   6.499318e+02  -6.790372e+02
   8.295491e+02   3.755106e+02
  -1.714403e+01   9.888100e+02
  -9.220695e+02   7.566046e+02
  -1.096768e+03  -1.539749e+02
  -4.944549e+02  -8.390471e+02
   1.741467e+02  -9.775315e+02
   6.848401e+02  -2.408261e+02
   4.969691e+02   6.799143e+02
  -3.075611e+02   8.033771e+02
  -6.258095e+02  -5.124324e+00
  -3.351799e+02  -7.419164e+02
   2.922766e+02  -7.633022e+02
   6.395840e+02  -1.190325e+02
   4.473295e+02   4.064865e+02
   3.275631e+01   4.370166e+02
  -2.679304e+02   2.500220e+02
  -2.219715e+02   1.070135e+01
   1.084913e+02  -3.061984e+01
   3.929745e+02   1.334967e+02
   1.765763e+02   4.089416e+02
  -4.551662e+02   3.676485e+02
  -8.559003e+02  -6.461238e+01
  -4.493600e+02  -5.131838e+02
   3.615287e+02  -4.835458e+02
   7.239007e+02   1.169168e+01
   3.569707e+02   4.415173e+02
  -2.653653e+02   5.271218e+02
  -5.605565e+02   2.011991e+02
  -4.114882e+02  -2.209337e+02
  -7.353366e+01  -4.561823e+02
   1.721387e+02  -2.918794e+02
   1.532001e+02   2.014919e+02
  -1.619102e+02   4.072333e+02
  -4.122678e+02  -2.317834e+01
  -2.249181e+02  -6.599847e+02
   3.020325e+02  -6.842997e+02
   5.780364e+02  -1.609465e+01
   2.615442e+02   5.388610e+02
  -2.725396e+02   3.075774e+02
  -3.703134e+02  -3.125906e+02
   6.829525e+01  -5.273683e+02
   5.507083e+02  -1.253099e+02
   5.851212e+02   4.139067e+02
   1.559983e+02   5.777698e+02
  -3.713881e+02   3.224244e+02
  -6.118828e+02  -8.415726e+01
  -3.696675e+02  -3.661531e+02
   1.401037e+02  -3.478202e+02
   4.321893e+02  -6.314145e+01
   2.477640e+02   1.740989e+02
  -1.062895e+02   1.075870e+02
  -1.453144e+02  -1.307865e+02
   1.539736e+02  -1.762668e+02
   3.432199e+02   5.960938e+01
   1.447424e+02   2.832230e+02
  -2.060168e+02   2.596656e+02
  -3.386177e+02   7.969103e+01
  -1.984355e+02  -8.420315e+01
   2.734778e+01  -2.206512e+02
   2.142248e+02  -3.177530e+02
   3.204845e+02  -2.226495e+02
   2.816477e+02   1.115350e+02
   9.067321e+01   4.114603e+02
  -9.416496e+01   3.850461e+02
  -1.150551e+02   1.327420e+02
  -3.638136e+01   9.529264e-01
  -4.972864e+01   7.895613e+01
  -1.824557e+02   1.156152e+02
  -2.616213e+02  -5.433813e+01
  -1.585129e+02  -2.629585e+02
   5.927635e+01  -2.523322e+02
   2.208320e+02  -1.278541e+01
   2.026104e+02   2.392097e+02
   4.095888e+00   2.974876e+02
  -2.588072e+02   1.219409e+02
  -3.668958e+02  -1.657453e+02
  -1.980242e+02  -3.524009e+02
   9.246084e+01  -3.082817e+02
   2.264618e+02  -1.244375e+02
   1.527363e+02  -6.119143e+00
   9.886722e+01  -3.631558e+01
   2.344917e+02  -6.643033e+01
   4.026463e+02   5.184602e+01
   3.351664e+02   2.804825e+02
  -3.009845e-01   4.406425e+02
  -3.549362e+02   4.179508e+02
  -4.797613e+02   2.099133e+02
  -3.338460e+02  -8.350756e+01
  -6.424107e+01  -2.891494e+02
   1.126286e+02  -2.589578e+02
   7.902451e+01  -3.993130e+01
  -9.855470e+01   1.050175e+02
  -1.846612e+02   7.211861e-01
  -5.335524e+01  -1.898602e+02
   1.469269e+02  -1.753925e+02
   1.759169e+02   5.212720e+01
  -7.106855e+00   1.918171e+02
  -1.846646e+02   3.722328e+01
  -1.671922e+02  -2.464148e+02
   2.193489e+01  -3.542819e+02
   2.290666e+02  -1.965361e+02
   3.350906e+02   6.452353e+01
   2.877914e+02   2.424914e+02
   1.010862e+02   2.656383e+02
  -1.127684e+02   1.625410e+02
  -1.828294e+02   2.528944e+01
  -6.592068e+01  -2.832679e+01
   6.644157e+01   3.893703e+01
   3.266269e+01   1.239347e+02
  -1.187963e+02   1.023156e+02
  -1.780725e+02  -8.228817e+00
  -6.358251e+01  -7.151059e+01
   7.499064e+01  -2.012763e+01
   5.521074e+01   6.917626e+01
  -1.191624e+02   8.658222e+01
  -2.769244e+02   4.572545e+00
  -2.620302e+02  -1.317406e+02
  -6.514772e+01  -2.487613e+02
   1.753205e+02  -2.617541e+02
   2.776024e+02  -1.344940e+02
   1.717594e+02   4.273498e+01
  -1.812082e+01   1.076552e+02
  -8.780720e+01   1.254764e+01
   2.963214e+01  -9.788069e+01
   1.913472e+02  -6.189398e+01
   2.146863e+02   9.565304e+01
   7.699646e+01   2.037685e+02
  -8.656899e+01   1.601239e+02
  -1.411823e+02   3.527037e+01
  -7.334952e+01  -3.589465e+01
   2.280756e+01  -1.462582e+00
   3.440707e+01   8.106969e+01
  -7.099608e+01   1.110869e+02
  -1.961106e+02   3.015386e+01
  -1.922249e+02  -1.209149e+02
  -2.454860e+01  -2.191106e+02
   1.614200e+02  -1.693808e+02
   1.939186e+02  -1.273896e+01
   6.798867e+01   1.116828e+02
  -6.237588e+01   1.130366e+02
  -7.868533e+01   3.417605e+01
  -1.656070e+01  -2.360776e+01
   1.922147e+01  -1.925450e+01
  -1.302091e+01   5.904476e+00
  -7.028931e+01  -9.538489e+00
  -8.416416e+01  -7.939037e+01
  -1.257758e+01  -1.543148e+02
   1.235811e+02  -1.502434e+02
   2.292690e+02  -2.762107e+01
   2.008720e+02   1.478294e+02
   4.460768e+01   2.386390e+02
  -1.079712e+02   1.741285e+02
  -1.392102e+02   3.018986e+01
  -7.611400e+01  -5.823635e+01
  -3.093194e+01  -3.941785e+01
  -5.271296e+01   1.033257e+01
  -7.741997e+01   7.595076e+00
  -4.063709e+01  -4.868683e+01
   4.025837e+01  -8.808942e+01
   1.008930e+02  -5.593919e+01
   8.497537e+01   3.622109e+01
  -1.318899e+01   1.116292e+02
  -1.423651e+02   8.575649e+01
  -1.985427e+02  -5.201680e+01
  -1.020204e+02  -2.019869e+02
   1.059076e+02  -2.294557e+02
   2.665572e+02  -9.814938e+01
   2.589108e+02   8.303371e+01
   1.120871e+02   1.746015e+02
  -3.670165e+01   1.470828e+02
  -9.328572e+01   8.621644e+01
  -7.814472e+01   7.142843e+01
  -6.554736e+01   9.086474e+01
  -9.090162e+01   7.411520e+01
  -1.279301e+02  -2.001208e+01
  -1.198285e+02  -1.499187e+02
  -3.318937e+01  -2.232862e+02
   9.541348e+01  -1.729119e+02
   1.741631e+02  -2.363087e+01
   1.368359e+02   1.189887e+02
   2.064111e+01   1.580360e+02
  -6.602498e+01   9.100674e+01
  -5.900099e+01  -3.526949e-01
  -4.067411e+00  -4.171906e+01
   1.136979e+01  -3.190756e+01
  -3.465357e+01  -1.596955e+01
  -7.744331e+01  -2.169189e+01
  -4.458690e+01  -3.657455e+01
   6.080738e+01  -3.330540e+01
   1.527508e+02  -5.858125e-01
   1.386532e+02   4.936162e+01
   1.392138e+01   8.314958e+01
  -1.188702e+02   7.033229e+01
  -1.424556e+02   1.345962e+01
  -4.677241e+01  -3.930791e+01
   6.021024e+01  -3.668535e+01
   7.580992e+01   1.853470e+01
   8.069304e+00   6.835599e+01
  -5.567046e+01   5.829945e+01
  -6.434701e+01  -1.953364e+00
  -4.490592e+01  -4.974470e+01
  -4.295292e+01  -4.107909e+01
  -5.974428e+01  -1.491302e+00
  -6.529036e+01  -1.420709e-01
  -3.563608e+01  -6.717252e+01
   3.088225e+01  -1.441963e+02
   1.138911e+02  -1.392953e+02
   1.620124e+02  -3.329046e+01
   1.221422e+02   8.910237e+01
   6.628202e+00   1.246013e+02
  -8.523220e+01   6.209105e+01
  -6.032055e+01  -1.430193e+01
   5.718148e+01  -2.188100e+01
   1.355913e+02   3.940386e+01
   7.634068e+01   1.040375e+02
  -7.701419e+01   1.118321e+02
  -1.861403e+02   5.349963e+01
  -1.597157e+02  -3.142922e+01
  -3.783270e+01  -8.464897e+01
   5.871546e+01  -6.900655e+01
   4.731753e+01  -7.437727e+00
  -3.878360e+01   2.640788e+01
  -9.019184e+01  -2.194399e+01
  -3.365947e+01  -1.172697e+02
   8.938625e+01  -1.539629e+02
   1.657077e+02  -6.454770e+01
   1.266656e+02   9.696219e+01
   1.212336e+01   1.949701e+02
  -8.241577e+01   1.437664e+02
  -1.016838e+02  -5.186834e+00
  -5.906428e+01  -1.154831e+02
   1.283509e+00  -1.043399e+02
   4.416994e+01  -1.908244e+01
   5.067018e+01   3.150066e+01
   2.514421e+01   9.126285e+00
   2.889342e+00  -1.969948e+01
   1.896488e+01   1.436553e+01
   5.435478e+01   8.565165e+01
   4.209473e+01   1.060848e+02
  -4.506709e+01   4.441778e+01
  -1.361135e+02  -3.752040e+01
  -1.286951e+02  -6.886072e+01
  -1.814889e+01  -4.960442e+01
   8.619846e+01  -2.360924e+01
   8.700744e+01  -8.754741e+00
   1.142631e+01   7.133845e+00
  -3.678591e+01   2.256863e+01
  -1.352134e+01   1.860705e+01
   2.025853e+01  -9.789161e-01
  -6.868357e+00  -9.045516e+00
  -7.330281e+01  -5.121600e+00
  -8.927373e+01  -2.448939e+01
  -7.861411e+00  -7.826773e+01
   1.157933e+02  -1.102427e+02
   1.806516e+02  -5.647699e+01
   1.372245e+02   6.448715e+01
   2.398133e+01   1.552331e+02
  -7.756122e+01   1.437202e+02
  -1.103985e+02   5.607939e+01
  -7.640733e+01  -2.083275e+01
  -2.189504e+01  -3.405432e+01
   4.049534e+00  -8.452265e+00
  -9.791935e+00  -3.961247e+00
  -3.230513e+01  -4.440301e+01
  -2.219636e+01  -8.740280e+01
   2.841066e+01  -6.943478e+01
   7.924308e+01   1.844490e+01
   7.567834e+01   1.061169e+02
   4.844734e+00   1.097289e+02
  -8.040293e+01   2.323298e+01
  -1.015969e+02  -7.379793e+01
  -3.229729e+01  -1.014394e+02
   6.515140e+01  -5.476379e+01
   9.688863e+01   1.136321e+01
   3.927614e+01   4.955314e+01
  -3.200878e+01   5.121990e+01
  -3.128931e+01   2.835532e+01
   3.260935e+01  -2.999941e-02
   6.716864e+01  -6.838046e+00
   1.386620e+01   2.357168e+01
  -7.801385e+01   6.325677e+01
  -1.128706e+02   5.649248e+01
  -6.139551e+01  -1.208379e+01
   1.693153e+01  -8.150287e+01
   5.324556e+01  -7.793197e+01
   3.707712e+01  -5.189886e+00
   1.351966e+00   5.582318e+01
  -2.618178e+01   4.313089e+01
  -3.684890e+01  -1.775473e+01
  -2.623967e+01  -5.408185e+01
   3.899191e+00  -3.365614e+01
   3.392195e+01   8.171655e+00
   3.968700e+01   2.180962e+01
   2.019989e+01   2.263472e+00
  -1.103465e+00  -1.389809e+01
  -6.795334e+00   2.115707e+00
  -5.832603e+00   3.560607e+01
  -1.516551e+01   4.500413e+01
  -3.069769e+01   9.457982e+00
  -2.980400e+01  -4.259654e+01
   6.099841e-01  -5.954172e+01
   4.207522e+01  -2.057318e+01
   5.422156e+01   3.822927e+01
   1.362968e+01   6.185549e+01
  -5.390264e+01   3.291555e+01
  -8.698372e+01  -1.599631e+01
  -4.764156e+01  -4.415840e+01
   2.899253e+01  -4.049686e+01
   6.414734e+01  -2.111225e+01
   2.413988e+01  -4.683048e+00
  -3.617754e+01  -1.497505e+00
  -3.667903e+01  -1.396280e+01
   2.979964e+01  -2.921172e+01
   8.844431e+01  -1.890918e+01
