
 $NMID
 id='ANONYMOUS ', fmtdat='(2E16.6)'
 volume=1.0
 tramp=1.0
 $END
   2.516704e+03   1.112710e+02
   1.363262e+03   1.165447e+03
  -1.289749e+02   1.371436e+03
  -1.069006e+03   7.037422e+02
  -7.188523e+02  -5.947691e+01
   2.097659e+02  -3.533988e+02
   4.123937e+02   1.693008e+02
  -4.456698e-01   5.886592e+02
  -3.660517e+02   4.752373e+02
  -4.711314e+02  -5.530297e+01
  -2.369211e+02  -4.807334e+02
   1.057717e+01  -4.653901e+02
   2.651104e+02  -1.480694e+01
   1.968474e+02   3.889309e+02
  -1.138195e+02   4.130179e+02
  -2.603415e+02   4.496747e+01
  -1.417831e+02  -3.632239e+02
   1.557684e+02  -3.729000e+02
   2.930459e+02  -1.305455e+02
   2.436516e+02   1.763349e+02
   3.375660e+01   2.707347e+02
  -1.663716e+02   1.564761e+02
  -9.383734e+01  -2.812925e+00
   7.434911e+01  -6.886775e+00
   1.688728e+02   7.785643e+01
   6.493387e+01   2.244308e+02
  -2.474024e+02   1.483513e+02
  -4.274950e+02  -5.422205e+01
  -2.328285e+02  -2.406146e+02
   1.919061e+02  -2.284759e+02
   3.662535e+02  -1.694250e+01
   1.827239e+02   2.057207e+02
  -1.354491e+02   2.596754e+02
  -2.793532e+02   1.227438e+02
  -1.893465e+02  -1.001575e+02
  -3.378804e+01  -2.537976e+02
   5.675783e+01  -1.464305e+02
   4.859154e+01   9.859738e+01
  -9.093140e+01   1.840050e+02
  -1.953045e+02  -1.305116e+01
  -9.165139e+01  -3.177942e+02
   1.659825e+02  -3.221332e+02
   2.862377e+02  -5.329365e+00
   1.238909e+02   2.558532e+02
  -1.435673e+02   1.508878e+02
  -2.011057e+02  -1.627935e+02
   3.021202e+01  -2.831953e+02
   2.856360e+02  -7.270736e+01
   3.111115e+02   2.046310e+02
   9.224975e+01   2.887767e+02
  -1.851448e+02   1.535980e+02
  -3.043616e+02  -4.806916e+01
  -1.833220e+02  -1.731795e+02
   6.903710e+01  -1.561904e+02
   2.135598e+02  -2.301259e+01
   1.262984e+02   8.499871e+01
  -4.743466e+01   5.122263e+01
  -7.357776e+01  -6.710788e+01
   7.128574e+01  -9.520683e+01
   1.755886e+02   2.110735e+01
   8.937600e+01   1.487635e+02
  -9.260298e+01   1.578009e+02
  -1.799358e+02   6.323112e+01
  -1.182424e+02  -4.985502e+01
   1.195311e+01  -1.389282e+02
   1.244599e+02  -1.758347e+02
   1.756246e+02  -1.051660e+02
   1.421130e+02   6.624703e+01
   4.593369e+01   2.060025e+02
  -3.163374e+01   1.924522e+02
  -3.659959e+01   8.012362e+01
  -1.483505e+01   2.094587e+01
  -4.149391e+01   4.923124e+01
  -1.081534e+02   5.223492e+01
  -1.331363e+02  -3.619765e+01
  -7.372260e+01  -1.328813e+02
   3.065525e+01  -1.211088e+02
   1.074034e+02  -4.194113e+00
   1.036913e+02   1.172349e+02
   1.166605e+01   1.478497e+02
  -1.223694e+02   6.421601e+01
  -1.852889e+02  -7.337374e+01
  -1.117724e+02  -1.680171e+02
   3.566005e+01  -1.533187e+02
   1.097824e+02  -6.914214e+01
   7.439775e+01  -1.303760e+01
   5.166583e+01  -2.817018e+01
   1.249028e+02  -3.932401e+01
   2.136915e+02   2.281862e+01
   1.848113e+02   1.419680e+02
   8.265644e+00   2.321940e+02
  -1.778737e+02   2.281793e+02
  -2.449737e+02   1.205304e+02
  -1.720407e+02  -3.891730e+01
  -3.878965e+01  -1.458869e+02
   4.902202e+01  -1.297128e+02
   3.203759e+01  -2.093599e+01
  -4.983567e+01   5.065315e+01
  -8.811069e+01   2.175924e+00
  -2.848574e+01  -8.699842e+01
   6.664911e+01  -8.207530e+01
   7.819522e+01   2.082872e+01
  -9.241699e+00   8.804786e+01
  -9.425381e+01   1.886680e+01
  -8.994648e+01  -1.183577e+02
   1.584803e+00  -1.818082e+02
   1.109061e+02  -1.155759e+02
   1.753972e+02   1.331234e+01
   1.570873e+02   1.126188e+02
   5.966253e+01   1.354599e+02
  -5.253541e+01   8.677284e+01
  -8.772753e+01   1.754170e+01
  -2.978259e+01  -9.542430e+00
   3.353526e+01   2.359365e+01
   1.425278e+01   6.425304e+01
  -6.048768e+01   5.133988e+01
  -8.851852e+01  -3.984871e+00
  -3.174709e+01  -3.521904e+01
   3.758622e+01  -8.942152e+00
   2.843622e+01   3.686822e+01
  -6.029779e+01   4.819461e+01
  -1.432217e+02   8.260665e+00
  -1.381491e+02  -6.261230e+01
  -3.780145e+01  -1.259405e+02
   8.499054e+01  -1.357820e+02
   1.355667e+02  -7.321668e+01
   8.144252e+01   1.559527e+01
  -1.141654e+01   4.960760e+01
  -4.209597e+01   4.724933e+00
   1.843381e+01  -4.946650e+01
   9.836843e+01  -3.365543e+01
   1.097165e+02   4.264250e+01
   4.181905e+01   9.788426e+01
  -4.002818e+01   8.013049e+01
  -6.832867e+01   2.022692e+01
  -3.410857e+01  -1.577212e+01
   1.589317e+01   2.070984e+00
   2.190785e+01   4.613410e+01
  -3.444558e+01   6.384738e+01
  -1.031927e+02   2.241606e+01
  -1.054462e+02  -5.750488e+01
  -2.176259e+01  -1.119361e+02
   7.519699e+01  -9.079454e+01
   9.685871e+01  -1.215990e+01
   3.728946e+01   5.297621e+01
  -2.774468e+01   5.665992e+01
  -3.811541e+01   1.733127e+01
  -7.477217e+00  -1.182782e+01
   1.095527e+01  -7.701640e+00
  -7.896086e+00   6.879676e+00
  -4.090479e+01  -3.252740e+00
  -4.978190e+01  -4.331418e+01
  -1.085263e+01  -8.454271e+01
   6.487139e+01  -8.291951e+01
   1.221806e+02  -1.939498e+01
   1.091749e+02   7.194315e+01
   2.975692e+01   1.215474e+02
  -4.930986e+01   9.184383e+01
  -6.925858e+01   2.102121e+01
  -4.010923e+01  -2.420405e+01
  -1.752235e+01  -1.671096e+01
  -2.705589e+01   8.421021e+00
  -4.032936e+01   6.355771e+00
  -2.500748e+01  -2.470281e+01
   1.762018e+01  -4.775003e+01
   5.225230e+01  -3.289594e+01
   4.652510e+01   1.857314e+01
  -3.774296e+00   6.453918e+01
  -7.414978e+01   5.402454e+01
  -1.074684e+02  -2.109010e+01
  -6.251725e+01  -1.055589e+02
   4.348445e+01  -1.261950e+02
   1.324438e+02  -6.113998e+01
   1.362609e+02   3.390102e+01
   6.404185e+01   8.471423e+01
  -1.272379e+01   7.500899e+01
  -4.343048e+01   4.549535e+01
  -3.586373e+01   3.859424e+01
  -2.929886e+01   4.987825e+01
  -4.451068e+01   4.320917e+01
  -6.732239e+01  -3.975092e+00
  -6.663311e+01  -7.322608e+01
  -2.356401e+01  -1.156531e+02
   4.479937e+01  -9.356273e+01
   8.994652e+01  -1.665719e+01
   7.477711e+01   6.049534e+01
   1.455721e+01   8.390353e+01
  -3.405502e+01   4.924533e+01
  -3.334292e+01  -7.602464e-01
  -3.504710e+00  -2.454130e+01
   7.110831e+00  -1.832512e+01
  -1.733170e+01  -6.325359e+00
  -4.242600e+01  -7.771679e+00
  -2.562030e+01  -1.811578e+01
   3.200747e+01  -2.080590e+01
   8.143948e+01  -5.503928e+00
   7.344368e+01   2.249102e+01
   7.369067e+00   4.421536e+01
  -6.096089e+01   3.997650e+01
  -7.300972e+01   1.017287e+01
  -2.576730e+01  -2.053107e+01
   2.845454e+01  -2.286785e+01
   3.963742e+01   5.167098e+00
   9.836817e+00   3.400093e+01
  -2.256206e+01   3.241927e+01
  -3.170074e+01   2.740666e+00
  -2.568024e+01  -2.294954e+01
  -2.425532e+01  -1.957066e+01
  -3.053078e+01   1.408162e+00
  -3.382713e+01   2.712828e+00
  -2.172908e+01  -3.292109e+01
   1.126421e+01  -7.622865e+01
   5.640483e+01  -7.708719e+01
   8.540021e+01  -2.238137e+01
   6.704090e+01   4.402792e+01
   6.666476e+00   6.667014e+01
  -4.311184e+01   3.649368e+01
  -3.289334e+01  -4.610710e+00
   2.744988e+01  -1.193592e+01
   6.983123e+01   1.687023e+01
   4.155358e+01   5.072397e+01
  -3.706657e+01   5.774449e+01
  -9.499845e+01   3.043741e+01
  -8.345794e+01  -1.299922e+01
  -2.075925e+01  -4.234394e+01
   3.046561e+01  -3.625319e+01
   2.612582e+01  -4.104662e+00
  -1.839397e+01   1.588768e+01
  -4.722600e+01  -7.369031e+00
  -2.183916e+01  -5.836862e+01
   3.969085e+01  -8.153012e+01
   8.142344e+01  -3.845725e+01
   6.675141e+01   4.606604e+01
   1.159353e+01   9.993215e+01
  -3.837767e+01   7.563748e+01
  -5.281892e+01  -1.529717e+00
  -3.345773e+01  -5.932261e+01
  -1.219093e+00  -5.376274e+01
   2.274920e+01  -1.039449e+01
   2.616661e+01   1.467204e+01
   1.226120e+01   3.159261e+00
   1.368704e+00  -1.039055e+01
   1.150555e+01   7.955285e+00
   3.081512e+01   4.322813e+01
   2.364646e+01   5.257800e+01
  -2.307557e+01   2.230170e+01
  -7.121801e+01  -1.664251e+01
  -6.751757e+01  -3.194889e+01
  -9.922543e+00  -2.490325e+01
   4.433368e+01  -1.422748e+01
   4.567952e+01  -6.528550e+00
   6.861449e+00   3.834970e+00
  -1.861119e+01   1.219254e+01
  -7.021949e+00   9.109195e+00
   1.068954e+01  -8.166804e-01
  -3.056907e+00  -2.652007e+00
  -3.809880e+01   1.645969e+00
  -4.880311e+01  -9.393809e+00
  -8.751270e+00  -4.163135e+01
   5.569133e+01  -6.320238e+01
   9.282483e+01  -3.691673e+01
   7.492225e+01   2.811633e+01
   1.862657e+01   8.031623e+01
  -3.500636e+01   7.896552e+01
  -5.561410e+01   3.482494e+01
  -4.152307e+01  -7.801488e+00
  -1.475882e+01  -1.840757e+01
   2.885023e-01  -6.634509e+00
  -5.026325e+00  -3.322727e+00
  -1.667109e+01  -2.253781e+01
  -1.294732e+01  -4.454171e+01
   1.270461e+01  -3.686946e+01
   4.149361e+01   6.691613e+00
   4.322018e+01   5.205082e+01
   7.087198e+00   5.672082e+01
  -4.041308e+01   1.530400e+01
  -5.546853e+01  -3.440521e+01
  -2.064552e+01  -5.158625e+01
   3.197639e+01  -3.095126e+01
   5.151856e+01   2.574907e+00
   2.310957e+01   2.516786e+01
  -1.435294e+01   2.865310e+01
  -1.588573e+01   1.627583e+01
   1.550769e+01  -4.405610e-01
   3.344773e+01  -4.966506e+00
   7.163408e+00   1.214277e+01
  -3.909122e+01   3.460239e+01
  -5.762962e+01   3.124881e+01
  -3.305513e+01  -6.065890e+00
   6.530740e+00  -4.415680e+01
   2.698481e+01  -4.321919e+01
   2.130296e+01  -4.411863e+00
   4.288942e+00   2.951478e+01
  -1.154700e+01   2.503078e+01
  -1.967879e+01  -6.001047e+00
  -1.560491e+01  -2.574105e+01
   3.291017e-01  -1.718081e+01
   1.715527e+01   3.114762e+00
   2.023230e+01   9.894043e+00
   9.283847e+00  -4.935369e-02
  -1.944337e+00  -7.919087e+00
  -3.523999e+00   6.425067e-01
  -9.969343e-01   1.810396e+01
  -5.132842e+00   2.348365e+01
  -1.486411e+01   5.984700e+00
  -1.700970e+01  -2.066492e+01
  -2.086862e+00  -3.040520e+01
   2.107347e+01  -1.210750e+01
   2.990933e+01   1.790147e+01
   9.583539e+00   3.201623e+01
  -2.706613e+01   1.998400e+01
  -4.608843e+01  -4.498472e+00
  -2.673158e+01  -2.142830e+01
   1.291190e+01  -2.314738e+01
   3.214468e+01  -1.415529e+01
   1.276043e+01  -3.474747e+00
  -1.774157e+01   7.832323e-01
  -1.877530e+01  -5.477676e+00
   1.412764e+01  -1.581481e+01
   4.422298e+01  -1.257344e+01
