
 $NMID
 id='ANONYMOUS ', fmtdat='(2E16.6)'
 volume=1.0
 tramp=1.0
 $END
  -4.284576e+03   4.500987e+01
  -2.611862e+03  -2.652686e+03
   4.080502e+02  -2.968241e+03
   2.036457e+03  -1.193980e+03
   1.329428e+03   4.858824e+02
  -4.391604e+02   6.041510e+02
  -8.571185e+02  -2.549819e+02
  -1.877410e+02  -9.330832e+02
   9.573869e+02  -9.031234e+02
   1.037953e+03  -8.316952e+00
   6.438115e+02   8.988244e+02
  -2.152632e+02   8.911894e+02
  -6.733659e+02   1.971476e+02
  -5.103904e+02  -6.326976e+02
   2.462157e+02  -8.329781e+02
   6.480039e+02  -2.978277e+01
   3.308491e+02   6.373087e+02
  -2.938710e+02   7.107662e+02
  -6.127050e+02   1.456672e+02
  -4.513883e+02  -3.589611e+02
  -4.643587e+01  -4.286448e+02
   2.201930e+02  -2.719293e+02
   1.835176e+02  -2.618445e+01
  -1.244781e+02   1.177394e+01
  -3.854596e+02  -1.614634e+02
  -1.781701e+02  -4.163443e+02
   4.819487e+02  -3.713247e+02
   8.563781e+02   9.315516e+01
   4.123424e+02   5.267729e+02
  -3.890790e+02   4.640942e+02
  -7.270758e+02  -4.198875e+01
  -3.431266e+02  -4.749047e+02
   2.672364e+02  -5.022496e+02
   5.601321e+02  -1.984024e+02
   4.012598e+02   2.171076e+02
   6.047118e+01   4.610066e+02
  -1.924004e+02   2.937098e+02
  -1.493754e+02  -2.160683e+02
   1.705311e+02  -4.344774e+02
   4.284265e+02   8.817590e+00
   2.229229e+02   6.579725e+02
  -3.112919e+02   6.716295e+02
  -5.708331e+02   1.402897e+01
  -2.312080e+02  -5.344606e+02
   2.895003e+02  -2.861733e+02
   3.675033e+02   3.403626e+02
  -9.450303e+01   5.377279e+02
  -5.670380e+02   1.180516e+02
  -5.942050e+02  -4.266090e+02
  -1.553146e+02  -5.836071e+02
   3.791525e+02  -3.280269e+02
   6.250491e+02   9.128504e+01
   3.777839e+02   3.835496e+02
  -1.447491e+02   3.520428e+02
  -4.436001e+02   5.476243e+01
  -2.544907e+02  -1.888955e+02
   1.117669e+02  -1.029706e+02
   1.552932e+02   1.504954e+02
  -1.550055e+02   1.879700e+02
  -3.578804e+02  -7.096622e+01
  -1.551802e+02  -3.091556e+02
   2.177442e+02  -2.780388e+02
   3.683233e+02  -7.411354e+01
   2.215299e+02   1.134761e+02
  -3.372723e+01   2.540778e+02
  -2.438456e+02   3.299057e+02
  -3.478218e+02   2.056857e+02
  -2.848099e+02  -1.389788e+02
  -7.372075e+01  -4.232414e+02
   1.084368e+02  -3.790242e+02
   1.111918e+02  -1.253479e+02
   2.729717e+01  -4.158399e+00
   5.802723e+01  -8.575598e+01
   2.056286e+02  -1.161099e+02
   2.754062e+02   6.388026e+01
   1.491206e+02   2.707106e+02
  -7.619911e+01   2.549597e+02
  -2.261121e+02   1.069439e+01
  -1.940284e+02  -2.437731e+02
   1.065265e+01  -2.959058e+02
   2.647998e+02  -1.146496e+02
   3.628175e+02   1.740694e+02
   1.869414e+02   3.544841e+02
  -1.043449e+02   3.049425e+02
  -2.339403e+02   1.221281e+02
  -1.571873e+02   9.021418e+00
  -1.012412e+02   3.696802e+01
  -2.355982e+02   5.553305e+01
  -4.030069e+02  -7.192877e+01
  -3.322840e+02  -2.955036e+02
   9.929503e+00  -4.458941e+02
   3.727576e+02  -4.093339e+02
   4.951977e+02  -1.934614e+02
   3.356356e+02   9.524500e+01
   5.124611e+01   2.915559e+02
  -1.274260e+02   2.533115e+02
  -7.656106e+01   3.643643e+01
   1.080435e+02  -1.025218e+02
   1.894001e+02   3.775454e+00
   5.105319e+01   1.885208e+02
  -1.503794e+02   1.700612e+02
  -1.736854e+02  -5.384087e+01
   1.214107e+01  -1.843044e+02
   1.891251e+02  -2.824567e+01
   1.672448e+02   2.512773e+02
  -2.673134e+01   3.552986e+02
  -2.365868e+02   1.969863e+02
  -3.440733e+02  -6.459494e+01
  -2.930832e+02  -2.445080e+02
  -9.757115e+01  -2.702062e+02
   1.195716e+02  -1.651191e+02
   1.850975e+02  -2.559310e+01
   6.272316e+01   2.776826e+01
  -6.693694e+01  -4.105803e+01
  -2.749492e+01  -1.234127e+02
   1.243328e+02  -9.721174e+01
   1.770398e+02   1.342216e+01
   5.907629e+01   7.121897e+01
  -7.413752e+01   1.530421e+01
  -4.614936e+01  -7.080002e+01
   1.286088e+02  -7.908176e+01
   2.789064e+02   1.068033e+01
   2.532055e+02   1.468073e+02
   5.018741e+01   2.546249e+02
  -1.891847e+02   2.562146e+02
  -2.838211e+02   1.232511e+02
  -1.694168e+02  -5.079356e+01
   2.417532e+01  -1.083036e+02
   8.826838e+01  -9.098247e+00
  -3.607356e+01   9.746649e+01
  -1.971068e+02   5.365490e+01
  -2.114401e+02  -1.060907e+02
  -6.660614e+01  -2.074891e+02
   9.530211e+01  -1.546558e+02
   1.427599e+02  -2.780304e+01
   6.966293e+01   3.774179e+01
  -2.592583e+01  -4.080145e+00
  -3.264447e+01  -8.663757e+01
   7.626189e+01  -1.099175e+02
   2.010696e+02  -2.289206e+01
   1.921674e+02   1.278350e+02
   1.940041e+01   2.202698e+02
  -1.685353e+02   1.648482e+02
  -1.970856e+02   6.135795e+00
  -6.525849e+01  -1.160781e+02
   6.857611e+01  -1.130337e+02
   8.338726e+01  -3.141729e+01
   1.746441e+01   2.495517e+01
  -1.957656e+01   1.723327e+01
   1.482423e+01  -7.382438e+00
   7.405897e+01   1.417893e+01
   8.545857e+01   8.866140e+01
   7.706021e+00   1.610058e+02
  -1.331420e+02   1.494194e+02
  -2.361123e+02   1.936226e+01
  -2.005049e+02  -1.558382e+02
  -3.901962e+01  -2.409657e+02
   1.131777e+02  -1.722620e+02
   1.407262e+02  -2.850129e+01
   7.454415e+01   5.747561e+01
   3.121408e+01   4.068896e+01
   5.400843e+01  -7.011294e+00
   7.834876e+01  -1.802811e+00
   3.868872e+01   5.241670e+01
  -4.708657e+01   8.717527e+01
  -1.082895e+02   4.997032e+01
  -8.819130e+01  -4.245794e+01
   1.686687e+01  -1.147536e+02
   1.486763e+02  -8.550277e+01
   2.018804e+02   5.401316e+01
   1.022066e+02   2.039182e+02
  -1.083079e+02   2.293417e+02
  -2.681410e+02   9.622931e+01
  -2.581436e+02  -8.637528e+01
  -1.102378e+02  -1.762210e+02
   3.906216e+01  -1.465142e+02
   9.562120e+01  -8.387879e+01
   8.153859e+01  -6.969647e+01
   6.972597e+01  -8.998291e+01
   9.509173e+01  -7.206733e+01
   1.287333e+02   2.512019e+01
   1.142187e+02   1.568241e+02
   2.419978e+01   2.281205e+02
  -1.032982e+02   1.725516e+02
  -1.770725e+02   1.822561e+01
  -1.352286e+02  -1.265991e+02
  -1.653444e+01  -1.634269e+02
   7.036491e+01  -9.224444e+01
   6.180855e+01   1.739322e+00
   4.283523e+00   4.381135e+01
  -1.227564e+01   3.391903e+01
   3.497818e+01   1.895975e+01
   7.883906e+01   2.605091e+01
   4.356924e+01   3.998327e+01
  -6.556601e+01   3.228368e+01
  -1.582509e+02  -5.853679e+00
  -1.398149e+02  -5.670430e+01
  -9.675535e+00  -8.628423e+01
   1.246218e+02  -6.742761e+01
   1.454497e+02  -8.699451e+00
   4.693040e+01   4.207955e+01
  -6.117756e+01   3.700782e+01
  -7.600442e+01  -1.955418e+01
  -7.576940e+00  -6.885696e+01
   5.600736e+01  -5.816454e+01
   6.384317e+01   3.444674e+00
   4.380926e+01   5.305002e+01
   4.220032e+01   4.386111e+01
   5.978569e+01   2.680403e+00
   6.514528e+01   1.143185e-01
   3.398458e+01   6.738545e+01
  -3.546114e+01   1.450422e+02
  -1.193591e+02   1.379640e+02
  -1.646943e+02   2.843650e+01
  -1.202548e+02  -9.512673e+01
  -2.405564e+00  -1.270947e+02
   8.904106e+01  -5.959556e+01
   6.182632e+01   1.773714e+01
  -5.808186e+01   2.111754e+01
  -1.371080e+02  -4.492356e+01
  -7.581253e+01  -1.093081e+02
   8.141859e+01  -1.112991e+02
   1.924084e+02  -4.741936e+01
   1.632547e+02   3.814126e+01
   3.556306e+01   8.727854e+01
  -6.328366e+01   6.800472e+01
  -4.932352e+01   5.958111e+00
   4.071646e+01  -2.593071e+01
   9.178786e+01   2.471219e+01
   3.063648e+01   1.204554e+02
  -9.648787e+01   1.549322e+02
  -1.715995e+02   6.109521e+01
  -1.265511e+02  -1.039325e+02
  -6.426215e+00  -2.011013e+02
   8.917995e+01  -1.448529e+02
   1.047070e+02   9.092781e+00
   5.762748e+01   1.201750e+02
  -4.791391e+00   1.057755e+02
  -4.638881e+01   1.752452e+01
  -5.101624e+01  -3.318025e+01
  -2.523731e+01  -9.149763e+00
  -3.516675e+00   1.984571e+01
  -1.906410e+01  -1.715845e+01
  -5.244271e+01  -9.077439e+01
  -3.870449e+01  -1.098013e+02
   4.853517e+01  -4.295041e+01
   1.377660e+02   4.359812e+01
   1.287457e+02   7.476348e+01
   1.683705e+01   5.132998e+01
  -8.835358e+01   2.112598e+01
  -8.887181e+01   5.679290e+00
  -1.164792e+01  -8.045166e+00
   3.791148e+01  -2.162139e+01
   1.393655e+01  -1.770954e+01
  -2.096562e+01   4.981013e-01
   6.843006e+00   8.439563e+00
   7.565242e+01   5.873519e+00
   9.187693e+01   2.732254e+01
   6.305767e+00   8.117877e+01
  -1.227233e+02   1.101084e+02
  -1.879398e+02   5.172527e+01
  -1.386457e+02  -7.175246e+01
  -1.798922e+01  -1.614314e+02
   8.648324e+01  -1.458401e+02
   1.168192e+02  -5.393982e+01
   7.894515e+01   2.495174e+01
   2.265286e+01   3.789292e+01
  -3.786618e+00   1.065203e+01
   9.375435e+00   5.589668e+00
   3.029513e+01   4.675703e+01
   1.889914e+01   9.040495e+01
  -3.137145e+01   7.063730e+01
  -8.019217e+01  -2.116756e+01
  -7.424039e+01  -1.113636e+02
  -1.580299e+00  -1.130843e+02
   8.327136e+01  -2.126059e+01
   1.019449e+02   7.963281e+01
   2.933949e+01   1.058819e+02
  -6.935758e+01   5.388964e+01
  -9.911851e+01  -1.579443e+01
  -3.790062e+01  -5.339516e+01
   3.524671e+01  -5.194399e+01
   3.308555e+01  -2.746541e+01
  -3.349876e+01  -2.925725e-01
  -6.843645e+01   4.633771e+00
  -1.238002e+01  -2.545745e+01
   8.301227e+01  -6.280566e+01
   1.179794e+02  -5.318854e+01
   6.290165e+01   1.613707e+01
  -1.942501e+01   8.421238e+01
  -5.723821e+01   7.885939e+01
  -3.917125e+01   4.847908e+00
  -9.919169e-01  -5.689404e+01
   2.698422e+01  -4.393663e+01
   3.697460e+01   1.811275e+01
   2.528048e+01   5.554472e+01
  -4.628838e+00   3.465201e+01
  -3.447308e+01  -9.005837e+00
  -3.982953e+01  -2.390292e+01
  -2.081308e+01  -3.581485e+00
   3.453014e-01   1.372184e+01
   6.903005e+00  -2.602910e+00
   7.929693e+00  -3.745000e+01
   1.882053e+01  -4.639717e+01
   3.353093e+01  -7.876282e+00
   2.980847e+01   4.690867e+01
  -2.850148e+00   6.244949e+01
  -4.420899e+01   1.940262e+01
  -5.455418e+01  -4.179974e+01
  -1.234894e+01  -6.375777e+01
   5.605238e+01  -3.131535e+01
   8.863037e+01   1.953326e+01
   4.806074e+01   4.611529e+01
  -3.026944e+01   3.995694e+01
  -6.617463e+01   1.972061e+01
  -2.528591e+01   4.516097e+00
   3.656380e+01   3.004000e+00
   3.697134e+01   1.549055e+01
  -3.176220e+01   2.917858e+01
  -9.190849e+01   1.664689e+01
