
 $NMID
 id='ANONYMOUS ', fmtdat='(2E16.6)'
 volume=1.0
 tramp=1.0
 $END
   3.730739e+03   3.647613e+02
   2.435147e+03   1.841794e+03
  -1.830754e+02   2.263430e+03
  -1.623920e+03   1.394294e+03
  -9.209774e+02   8.782639e+01
   2.267146e+02  -3.349863e+02
   5.855182e+02   1.048080e+02
   5.369150e+01   7.969516e+02
  -6.127757e+02   7.159798e+02
  -7.634615e+02   1.330106e+02
  -4.703027e+02  -6.524581e+02
   4.382403e+01  -7.529692e+02
   4.405060e+02  -1.896503e+02
   3.448587e+02   6.082784e+02
  -1.347618e+02   7.460417e+02
  -4.612051e+02   4.093626e+00
  -3.384310e+02  -5.768539e+02
   1.508315e+02  -6.990088e+02
   5.438908e+02  -2.011658e+02
   4.738377e+02   2.641110e+02
   1.343357e+02   4.067276e+02
  -1.299704e+02   2.495324e+02
  -1.570990e+02   9.952435e+01
   1.081507e+02   7.759266e+01
   3.054075e+02   1.725359e+02
   8.340499e+01   3.283861e+02
  -4.162836e+02   2.377096e+02
  -6.764335e+02  -1.383505e+02
  -3.391231e+02  -3.663424e+02
   3.086010e+02  -2.951595e+02
   5.951605e+02   6.684689e+01
   2.775171e+02   3.743476e+02
  -2.387838e+02   4.422658e+02
  -4.928763e+02   1.846142e+02
  -3.928768e+02  -1.852873e+02
  -1.226651e+02  -4.052594e+02
   8.480358e+01  -2.260885e+02
   6.435589e+01   1.156003e+02
  -1.497573e+02   2.409706e+02
  -2.720054e+02  -8.565193e+01
  -9.248102e+01  -5.457224e+02
   2.625241e+02  -5.258632e+02
   4.234444e+02  -5.492707e+00
   1.755080e+02   3.788220e+02
  -1.898912e+02   1.963682e+02
  -2.496474e+02  -2.801326e+02
   7.823933e+01  -4.398191e+02
   4.618580e+02  -1.188082e+02
   5.324520e+02   3.519943e+02
   1.919286e+02   5.185226e+02
  -2.907923e+02   3.201010e+02
  -5.498177e+02  -3.245573e+01
  -3.860952e+02  -2.772718e+02
   4.211030e+01  -2.826809e+02
   3.275894e+02  -1.036369e+02
   2.401699e+02   6.334940e+01
  -2.149880e+01   5.600554e+01
  -8.219768e+01  -6.642911e+01
   1.231214e+02  -1.037404e+02
   2.900235e+02   3.404018e+01
   1.574481e+02   2.205161e+02
  -1.656779e+02   2.769553e+02
  -3.584259e+02   1.538413e+02
  -2.578646e+02  -7.649389e+01
   2.344413e+01  -2.956346e+02
   2.707892e+02  -3.643487e+02
   3.478863e+02  -1.898222e+02
   2.510344e+02   1.423818e+02
   8.099338e+01   3.777437e+02
  -3.494049e+01   3.514762e+02
  -5.218386e+01   1.753796e+02
  -5.182968e+01   7.770849e+01
  -1.208780e+02   9.656401e+01
  -2.252584e+02   7.167937e+01
  -2.416349e+02  -9.001040e+01
  -1.153340e+02  -2.515417e+02
   7.654559e+01  -2.234263e+02
   1.992942e+02   4.289525e+00
   1.627202e+02   2.374248e+02
  -2.776728e+01   2.751550e+02
  -2.527241e+02   9.480334e+01
  -3.310927e+02  -1.721326e+02
  -1.792477e+02  -3.261306e+02
   6.350850e+01  -2.891137e+02
   1.849795e+02  -1.503227e+02
   1.505090e+02  -6.554132e+01
   1.385004e+02  -6.567462e+01
   2.762290e+02  -5.238411e+01
   4.223809e+02   7.789498e+01
   3.403341e+02   2.966407e+02
  -6.014186e+00   4.527970e+02
  -3.761734e+02   4.235316e+02
  -4.884278e+02   2.053865e+02
  -3.148406e+02  -9.095737e+01
  -4.465936e+01  -2.749392e+02
   9.388359e+01  -2.292167e+02
   3.515957e+01  -4.006224e+01
  -1.090540e+02   6.723644e+01
  -1.512624e+02  -1.946333e+01
  -3.265574e+01  -1.595734e+02
   1.241385e+02  -1.369654e+02
   1.345166e+02   4.441257e+01
  -1.684977e+01   1.514131e+02
  -1.712774e+02   1.725874e+01
  -1.663140e+02  -2.376925e+02
   1.434424e+01  -3.539541e+02
   2.422528e+02  -2.177430e+02
   3.606286e+02   5.586071e+01
   2.906860e+02   2.596531e+02
   7.678388e+01   2.796106e+02
  -1.241232e+02   1.521985e+02
  -1.619228e+02   1.318673e+01
  -4.294822e+01  -1.851690e+01
   5.865192e+01   5.739151e+01
   7.465636e+00   1.226428e+02
  -1.270653e+02   8.256702e+01
  -1.613746e+02  -1.848623e+01
  -4.016451e+01  -5.920352e+01
   8.567836e+01   4.758403e+00
   4.583417e+01   9.171155e+01
  -1.481634e+02   9.592772e+01
  -3.106797e+02  -7.152298e+00
  -2.748140e+02  -1.597314e+02
  -4.791619e+01  -2.696697e+02
   1.979321e+02  -2.588108e+02
   2.784320e+02  -1.214382e+02
   1.576477e+02   4.108250e+01
  -2.041032e+01   9.040631e+01
  -7.086255e+01   3.397970e+00
   4.529841e+01  -8.755345e+01
   1.896325e+02  -4.690450e+01
   2.029535e+02   9.974652e+01
   6.989116e+01   1.966329e+02
  -8.346153e+01   1.494210e+02
  -1.291267e+02   2.667229e+01
  -5.472445e+01  -3.520900e+01
   3.734437e+01   1.524377e+01
   3.059377e+01   1.059173e+02
  -9.034347e+01   1.240670e+02
  -2.122099e+02   2.488014e+01
  -1.935387e+02  -1.297751e+02
  -2.104002e+01  -2.185472e+02
   1.582615e+02  -1.657697e+02
   1.863282e+02  -1.772312e+01
   6.501904e+01   1.002552e+02
  -5.958494e+01   1.040086e+02
  -7.249650e+01   3.109812e+01
  -4.812453e+00  -2.152874e+01
   3.297797e+01  -8.117277e+00
  -1.130940e+01   2.292633e+01
  -8.834491e+01  -1.691301e+00
  -1.052020e+02  -9.344206e+01
  -1.504832e+01  -1.782586e+02
   1.393954e+02  -1.594962e+02
   2.443226e+02  -1.811411e+01
   2.053272e+02   1.568970e+02
   4.777978e+01   2.374480e+02
  -1.005835e+02   1.704375e+02
  -1.339255e+02   3.477207e+01
  -7.809394e+01  -4.656329e+01
  -3.558183e+01  -2.950339e+01
  -5.773322e+01   1.734893e+01
  -8.930713e+01   9.834519e+00
  -5.609828e+01  -5.766823e+01
   4.175366e+01  -1.078399e+02
   1.210925e+02  -7.040735e+01
   1.051111e+02   4.292459e+01
  -1.530934e+01   1.302930e+02
  -1.617317e+02   9.342714e+01
  -2.098368e+02  -6.239455e+01
  -9.289830e+01  -2.166688e+02
   1.208251e+02  -2.312339e+02
   2.739542e+02  -9.036932e+01
   2.569119e+02   8.813889e+01
   1.091506e+02   1.735265e+02
  -3.744090e+01   1.454177e+02
  -9.034510e+01   8.722579e+01
  -7.326241e+01   7.809879e+01
  -6.217266e+01   1.020024e+02
  -9.528348e+01   8.484147e+01
  -1.395974e+02  -1.734482e+01
  -1.293670e+02  -1.582805e+02
  -3.473688e+01  -2.352676e+02
   9.879070e+01  -1.785406e+02
   1.761769e+02  -2.023699e+01
   1.356624e+02   1.252129e+02
   1.694442e+01   1.596784e+02
  -7.074300e+01   8.508165e+01
  -6.093820e+01  -1.155720e+01
   2.438877e+00  -5.213487e+01
   2.284218e+01  -3.544283e+01
  -2.999905e+01  -1.242882e+01
  -8.421968e+01  -1.829338e+01
  -4.956556e+01  -3.970318e+01
   7.134549e+01  -4.027824e+01
   1.727131e+02  -1.812411e+00
   1.488941e+02   5.770504e+01
   7.291934e+00   9.581399e+01
  -1.306281e+02   7.823080e+01
  -1.483894e+02   1.227305e+01
  -4.770043e+01  -4.699791e+01
   6.116011e+01  -4.468312e+01
   8.075321e+01   1.812565e+01
   1.805664e+01   7.703456e+01
  -4.991961e+01   6.936676e+01
  -7.066351e+01   2.484882e+00
  -5.760476e+01  -5.233764e+01
  -4.995191e+01  -4.217445e+01
  -6.056961e+01   2.396264e+00
  -7.042015e+01   1.920821e+00
  -4.789230e+01  -7.508974e+01
   2.438184e+01  -1.605905e+02
   1.240293e+02  -1.545104e+02
   1.819202e+02  -3.891034e+01
   1.358795e+02   9.340180e+01
   6.951388e+00   1.343698e+02
  -9.212446e+01   7.110849e+01
  -6.400647e+01  -1.118904e+01
   5.987757e+01  -2.385376e+01
   1.410825e+02   3.851437e+01
   7.903049e+01   1.076381e+02
  -8.005338e+01   1.170913e+02
  -1.926754e+02   5.482258e+01
  -1.648252e+02  -3.456672e+01
  -3.758093e+01  -8.701851e+01
   6.216622e+01  -6.684191e+01
   4.957183e+01  -1.706811e+00
  -4.125056e+01   3.275140e+01
  -9.755414e+01  -1.879291e+01
  -4.415870e+01  -1.209261e+02
   8.026613e+01  -1.658821e+02
   1.641168e+02  -7.821225e+01
   1.349085e+02   9.133300e+01
   2.330310e+01   1.992211e+02
  -7.836898e+01   1.493632e+02
  -1.054557e+02  -5.342001e+00
  -6.215926e+01  -1.189488e+02
   4.930355e+00  -1.054230e+02
   4.917964e+01  -1.865407e+01
   4.922406e+01   2.962154e+01
   2.024886e+01   6.343307e+00
   4.121025e+00  -1.845565e+01
   2.818950e+01   1.994564e+01
   6.236304e+01   8.967035e+01
   4.113997e+01   1.067066e+02
  -5.252197e+01   4.585419e+01
  -1.421088e+02  -3.321866e+01
  -1.318085e+02  -6.659103e+01
  -2.122828e+01  -5.325027e+01
   8.365824e+01  -2.904209e+01
   8.881425e+01  -9.833990e+00
   1.624564e+01   9.808603e+00
  -3.535694e+01   2.291156e+01
  -1.733965e+01   1.487649e+01
   1.707267e+01  -4.058081e+00
  -4.512487e+00  -6.959064e+00
  -7.139020e+01   1.262041e+00
  -9.585124e+01  -2.009180e+01
  -2.035018e+01  -8.186764e+01
   1.104417e+02  -1.233260e+02
   1.907782e+02  -7.303243e+01
   1.553992e+02   5.601052e+01
   3.591068e+01   1.622563e+02
  -7.744609e+01   1.608600e+02
  -1.162801e+02   7.022873e+01
  -8.236396e+01  -1.724642e+01
  -2.751606e+01  -3.762778e+01
  -1.488999e+00  -1.267988e+01
  -1.350691e+01  -7.300252e+00
  -3.340860e+01  -4.864235e+01
  -2.291516e+01  -9.293493e+01
   2.721374e+01  -7.507493e+01
   8.235103e+01   1.322524e+01
   8.648902e+01   1.037465e+02
   1.710627e+01   1.147836e+02
  -7.833966e+01   3.457532e+01
  -1.122868e+02  -6.598688e+01
  -4.459045e+01  -1.064917e+02
   6.396091e+01  -6.788948e+01
   1.067243e+02   5.051676e+00
   4.854561e+01   5.686130e+01
  -3.227522e+01   6.241075e+01
  -3.810820e+01   3.055313e+01
   2.824512e+01  -7.034136e+00
   7.004796e+01  -1.232879e+01
   1.982768e+01   2.583457e+01
  -7.675115e+01   7.009310e+01
  -1.194635e+02   6.100983e+01
  -7.141964e+01  -1.269970e+01
   1.138894e+01  -8.727009e+01
   5.567710e+01  -8.699251e+01
   4.433552e+01  -1.279052e+01
   8.077128e+00   5.529317e+01
  -2.369794e+01   4.972760e+01
  -3.889009e+01  -1.187288e+01
  -3.054901e+01  -5.533650e+01
   5.468673e-01  -3.940333e+01
   3.488829e+01   5.405031e+00
   4.355251e+01   2.371311e+01
   2.128862e+01   2.434692e+00
  -3.725727e+00  -2.009961e+01
  -5.949980e+00  -6.065558e+00
   4.274199e+00   3.471158e+01
  -2.082024e+00   5.379257e+01
  -2.837046e+01   2.129590e+01
  -4.174836e+01  -3.593266e+01
  -1.263223e+01  -6.066335e+01
   4.144280e+01  -2.635526e+01
   6.435133e+01   3.324993e+01
   2.067185e+01   6.197530e+01
  -5.803060e+01   3.867066e+01
  -9.657117e+01  -9.342818e+00
  -5.381985e+01  -4.323760e+01
   2.833067e+01  -4.786148e+01
   6.679239e+01  -3.107812e+01
   2.910886e+01  -8.233913e+00
  -3.116549e+01   3.776661e+00
  -3.607291e+01  -6.750638e+00
   2.435286e+01  -2.838802e+01
   8.267433e+01  -2.530324e+01
