
 $NMID
 id='ANONYMOUS ', fmtdat='(2E16.6)'
 volume=1.0
 tramp=1.0
 $END
  -6.875745e+02  -1.947224e+02
  -2.573001e+02  -1.522832e+02
   4.850701e+00  -2.952834e+02
   1.297092e+02  -2.399923e+02
  -1.555276e+01  -7.070039e+01
  -6.071582e+01   7.203465e+01
  -2.961820e+01   7.538478e+01
   6.399608e+00  -8.165263e+01
   1.319747e+01  -8.324608e+01
   5.212850e+01  -3.530643e+01
   7.972092e+01   4.094141e+01
   4.543333e+01   6.065454e+01
  -4.755266e+01  -4.382391e+01
  -1.204884e+01  -6.106469e+01
   1.980931e+01  -1.699315e+01
   8.235360e+00   1.053481e+01
   4.579222e+01   4.295156e+00
  -1.699162e+01   1.014770e+01
  -2.636158e+00   6.999201e+01
  -5.215402e+01   2.922115e+01
  -3.609937e+01  -3.476930e+01
   1.109241e+01  -4.005587e+01
   8.993618e-01  -2.261665e+01
   8.913907e+00  -8.903155e+00
  -3.812380e+00  -2.126996e+01
   7.752057e+00  -3.477517e+01
   1.840062e+01  -9.025374e-01
   2.518058e+01  -2.619828e+01
   4.153287e+01   3.760113e+01
   8.958492e+00   1.584712e+01
  -1.844864e+01   2.311846e+01
  -6.712464e+00  -1.546407e+01
   1.210983e+01  -7.649191e+00
   2.072691e+01  -3.317777e+01
   2.001735e+00  -3.773617e+00
   1.180144e+01   7.850989e-01
   4.182966e+00   3.003470e+01
   2.113328e+01  -1.179187e+01
   1.772323e+01  -7.608871e+00
   1.041409e+01  -1.439425e+00
   3.221077e+00   2.019266e+01
  -1.554351e+01   1.867766e+01
  -1.657786e+01   1.747275e+00
  -7.941013e+00  -8.786686e+00
   1.202254e+01  -2.904600e+00
   2.014956e+01   1.293823e+01
  -9.457205e+00   2.399804e+01
  -2.775356e+01   3.604819e+00
  -2.746203e+01  -1.541008e+01
  -1.052280e+00  -1.791394e+01
   1.920827e+01  -5.450252e+00
   1.794392e+01   8.798492e+00
   6.242909e+00   1.237675e+01
  -7.328898e+00   8.137084e+00
  -1.456686e+01  -3.898771e+00
  -8.982924e+00  -1.055017e+01
   3.006289e+00  -1.022171e+00
   5.792740e+00   1.512322e+01
  -4.602801e+00   1.678762e+01
  -1.566416e+01   4.066917e-01
  -1.358663e+01  -1.761761e+01
   9.514288e-01  -2.175880e+01
   1.423244e+01  -1.104144e+01
   1.471170e+01   6.362172e+00
   2.247824e+00   2.015185e+01
  -1.117458e+01   2.092599e+01
  -1.553108e+01   8.368951e+00
  -9.869383e+00  -7.343739e+00
  -6.008591e+00  -1.500861e+01
  -8.871627e+00  -1.472246e+01
  -9.705933e+00  -1.236288e+01
   7.963015e-02  -1.193866e+01
   1.391887e+01  -1.039406e+01
   1.909467e+01  -3.771986e+00
   1.407115e+01   6.403185e+00
   6.380234e+00   1.251700e+01
  -1.619385e+00   8.892592e+00
  -8.826372e+00  -6.917954e-03
  -1.408108e+01  -6.647641e+00
  -9.772602e+00  -8.017653e+00
   4.972379e+00  -7.000853e+00
   1.442908e+01  -3.605188e+00
   1.683845e+01   2.269718e+00
   6.337778e+00   7.315637e+00
  -1.403867e+00   8.836284e+00
  -2.635560e+00   8.258634e+00
  -6.153198e+00   8.183443e+00
  -1.276134e+01   7.275466e+00
  -2.134357e+01   3.253587e+00
  -1.980917e+01  -8.238509e+00
  -4.060071e+00  -1.974842e+01
   7.443223e+00  -2.577579e+01
   1.858198e+01  -1.823842e+01
   1.226920e+01  -2.977713e+00
   7.402625e+00   9.943151e+00
   1.500227e+00   9.616744e+00
   2.281503e+00   3.137992e+00
   7.357507e-01  -2.522819e+00
   3.591178e+00   5.360371e-02
   4.338885e-01   2.536004e+00
  -2.639735e+00   2.268882e+00
  -8.498737e+00  -5.695388e+00
  -9.088023e-01  -9.403870e+00
   1.130099e+01  -3.993379e+00
   1.759513e+01   6.584711e+00
   1.017688e+01   1.504313e+01
  -4.938593e+00   1.419176e+01
  -1.619803e+01   8.429184e+00
  -1.704285e+01   5.813268e-01
  -9.238495e+00  -6.746543e+00
   5.419492e-01  -8.553761e+00
   4.261788e+00  -6.099159e+00
   1.263670e+00  -1.797059e+00
  -2.853386e+00  -9.663361e-01
  -1.852711e+00  -3.240991e+00
   2.668122e+00  -4.933607e+00
   4.783459e+00  -2.547310e+00
   2.298150e+00   4.244582e-01
  -1.571384e+00   2.079445e-01
  -9.144338e-01  -3.446591e+00
   5.113706e+00  -6.521297e+00
   1.208758e+01  -3.861165e+00
   1.291481e+01   4.079639e+00
   6.371161e+00   1.137459e+01
  -3.205866e+00   1.278094e+01
  -8.102442e+00   7.759530e+00
  -5.191642e+00   1.559254e+00
   8.878195e-01  -1.468183e+00
   2.122757e+00   7.191457e-01
  -1.908965e+00   3.912481e+00
  -6.807025e+00   4.116866e+00
  -7.199176e+00   4.756781e-01
  -3.469383e+00  -3.092451e+00
   3.726920e-01  -3.259885e+00
   1.746464e+00  -1.072355e+00
  -1.761463e-01   6.779121e-01
  -3.477121e+00  -6.677257e-01
  -4.843113e+00  -4.227445e+00
  -1.530619e+00  -6.494296e+00
   5.447015e+00  -4.950558e+00
   9.465480e+00  -7.549936e-01
   6.837892e+00   3.298199e+00
  -3.771678e-01   4.841706e+00
  -4.789434e+00   3.097622e+00
  -2.703681e+00   4.112650e-01
   1.030867e+00  -9.715125e-01
   2.531045e+00  -6.395047e-01
  -1.195094e-02  -4.470150e-01
  -1.556394e+00  -1.174511e+00
   8.167413e-01  -2.332358e+00
   4.490654e+00  -8.260997e-01
   6.094988e+00   3.572794e+00
   2.968747e+00   8.747483e+00
  -3.860663e+00   9.913447e+00
  -9.577074e+00   5.301302e+00
  -1.202758e+01  -4.231203e+00
  -6.975591e+00  -9.654929e+00
  -4.553858e-01  -9.706499e+00
   5.091252e+00  -5.080826e+00
   4.861020e+00  -1.809836e+00
   3.522048e+00  -4.153656e-01
   2.936395e+00  -1.465854e+00
   4.418751e+00   2.532025e-01
   3.789445e+00   2.615037e+00
  -1.338677e-01   6.737958e+00
  -7.039566e+00   4.735985e+00
  -8.274886e+00  -1.218925e+00
  -3.968978e+00  -8.663359e+00
   4.880566e+00  -1.179253e+01
   1.152580e+01  -5.072429e+00
   1.208144e+01   5.740325e+00
   5.021494e+00   1.381417e+01
  -6.007807e+00   1.258829e+01
  -1.244042e+01   3.938446e+00
  -1.000224e+01  -2.972398e+00
  -3.826437e+00  -5.962194e+00
   5.243305e-01  -5.038997e+00
   6.396606e-01  -4.343158e+00
   1.758453e-01  -5.107554e+00
   1.860494e+00  -4.904441e+00
   4.871589e+00  -2.794598e+00
   6.872565e+00   1.762683e+00
   4.971227e+00   6.967924e+00
  -6.938145e-01   8.240070e+00
  -6.035567e+00   4.252253e+00
  -7.276933e+00  -2.507242e+00
  -3.293422e+00  -7.212817e+00
   1.962240e+00  -6.526545e+00
   4.015421e+00  -1.863200e+00
   2.081964e+00   2.450269e+00
   3.937595e-01   3.164527e+00
   1.354384e+00   1.023099e+00
   3.340379e+00  -7.154012e-02
   2.093254e+00   1.299339e+00
  -3.202932e+00   3.019426e+00
  -7.841617e+00   1.902174e+00
  -7.166108e+00  -1.899215e+00
  -1.609776e+00  -5.483020e+00
   4.545621e+00  -5.888573e+00
   7.104266e+00  -3.200793e+00
   4.911307e+00   9.507001e-01
   1.164553e+00   4.110810e+00
  -2.142825e+00   3.464052e+00
  -3.457302e+00   5.776672e-02
  -2.438273e+00  -2.183317e+00
   9.186891e-02  -1.783668e+00
   2.360861e+00   2.986823e-01
   2.676282e+00   3.329524e-01
   1.969850e+00  -1.541276e+00
   2.296488e+00  -2.030704e+00
   2.992721e+00   1.009045e+00
   1.648946e+00   6.023909e+00
  -2.547161e+00   7.230446e+00
  -6.595871e+00   3.741342e+00
  -6.409546e+00  -1.815607e+00
  -1.773861e+00  -5.136935e+00
   3.372609e+00  -4.426401e+00
   3.629197e+00  -1.324872e+00
  -9.362730e-01   9.168673e-01
  -4.921511e+00   1.102729e+00
  -4.129001e+00  -1.102202e+00
   1.117341e+00  -3.272118e+00
   5.824040e+00  -3.844183e+00
   6.052924e+00  -1.089358e+00
   1.710279e+00   2.182326e+00
  -2.560605e+00   3.087904e+00
  -2.844899e+00   1.005114e-01
   1.168931e+00  -3.163012e+00
   4.748286e+00  -2.458728e+00
   4.706818e+00   3.430812e+00
   6.648488e-01   8.255160e+00
  -4.043420e+00   6.774773e+00
  -6.525217e+00  -9.580085e-01
  -4.764899e+00  -7.335745e+00
  -1.634125e-01  -7.037445e+00
   3.965570e+00  -1.619443e+00
   4.941427e+00   3.277572e+00
   2.421001e+00   3.866185e+00
  -1.023448e+00   1.731997e+00
  -2.474839e+00   5.460872e-01
  -1.415199e+00   1.019135e+00
  -5.883024e-01   8.422450e-01
  -2.025129e+00  -1.181857e+00
  -3.774648e+00  -3.199592e+00
  -2.558678e+00  -3.692562e+00
   1.930433e+00  -2.246040e+00
   6.213625e+00  -4.423532e-01
   6.259952e+00   9.561753e-01
   1.943277e+00   1.882741e+00
  -2.664793e+00   2.709156e+00
  -3.715819e+00   2.034526e+00
  -1.569494e+00   4.366365e-01
   4.657379e-01  -8.604493e-01
   7.540708e-02  -9.606481e-01
  -1.197475e+00  -6.172301e-01
  -2.770090e-01  -1.000480e+00
   2.811498e+00  -1.970024e+00
   4.878800e+00  -1.196816e+00
   3.022843e+00   2.772527e+00
  -1.598558e+00   6.708908e+00
  -5.916553e+00   6.636907e+00
  -6.577846e+00   1.234257e+00
  -4.160297e+00  -5.340908e+00
  -5.956014e-01  -7.688934e+00
   2.352423e+00  -5.270905e+00
   3.463062e+00  -1.430374e+00
   3.132531e+00   4.934508e-01
   1.971542e+00   4.640006e-01
   1.278628e+00   8.811059e-01
   1.751002e+00   2.502645e+00
   1.600413e+00   4.089641e+00
  -4.048212e-01   3.311210e+00
  -3.751304e+00   6.239180e-01
  -5.305803e+00  -2.588138e+00
  -2.555046e+00  -4.109278e+00
   2.696919e+00  -2.765962e+00
   5.572028e+00   3.034805e-01
   3.306134e+00   3.365041e+00
  -1.728277e+00   3.977586e+00
  -4.730492e+00   1.811649e+00
  -3.068610e+00  -1.521629e+00
   6.858943e-03  -3.313527e+00
   1.063586e+00  -2.550245e+00
  -8.067829e-01  -1.381889e-01
  -2.094010e+00   8.962230e-01
  -6.470238e-01  -9.018796e-01
   2.714904e+00  -3.699457e+00
   4.734633e+00  -3.619464e+00
   3.918636e+00   4.184051e-02
   1.055114e+00   4.561363e+00
  -1.536867e+00   5.545498e+00
  -2.999897e+00   2.177657e+00
  -2.455738e+00  -1.999208e+00
  -8.153543e-01  -3.613423e+00
   1.655170e+00  -1.605532e+00
   2.828320e+00   8.893177e-01
   1.763032e+00   1.814305e+00
  -7.444935e-01   1.102860e+00
  -2.017598e+00   4.718452e-01
  -1.404608e+00   7.080889e-01
  -1.919824e-02   8.314721e-01
   4.443540e-01   3.185743e-01
  -3.881064e-01  -1.084486e+00
  -7.517871e-01  -1.804763e+00
   3.484003e-01  -9.641841e-01
   1.658771e+00   8.109721e-01
   1.313059e+00   2.066065e+00
  -1.010648e+00   1.746391e+00
  -2.976560e+00   3.444398e-02
  -2.133542e+00  -1.916420e+00
   9.716038e-01  -2.221186e+00
   3.163696e+00  -1.444819e+00
   2.479669e+00   1.969898e-01
  -7.044823e-03   1.778527e+00
  -1.589029e+00   2.072845e+00
  -8.648436e-01   1.054206e+00
   8.348065e-01  -1.921541e-01
   1.029048e+00  -2.420111e-03
  -7.514357e-01   1.349247e+00
  -3.249664e+00   2.077745e+00
