
 $NMID
 id='ANONYMOUS ', fmtdat='(2E16.6)'
 volume=1.0
 tramp=1.0
 $END
  -3.393207e+03   2.418820e+01
  -1.901290e+03  -1.684155e+03
   8.779358e+01  -2.172616e+03
   1.459681e+03  -1.101628e+03
   9.310594e+02  -1.078126e+02
  -1.413358e+02   1.283141e+02
  -4.095778e+02  -2.296726e+02
   1.526147e+01  -6.439311e+02
   5.089589e+02  -5.666421e+02
   6.319566e+02  -3.075542e+01
   3.777358e+02   5.312602e+02
  -1.240857e+02   6.051679e+02
  -3.727287e+02   1.762566e+02
  -2.779507e+02  -4.342235e+02
   1.164036e+02  -5.251839e+02
   4.436802e+02  -7.974191e+01
   2.448899e+02   5.266403e+02
  -1.742867e+02   5.474795e+02
  -5.014900e+02   1.794898e+02
  -4.509693e+02  -2.520543e+02
  -1.205684e+02  -3.850204e+02
   1.377481e+02  -2.513997e+02
   1.154148e+02  -1.140287e+02
  -1.537363e+02  -1.058886e+02
  -2.747460e+02  -2.737291e+02
   4.435224e+01  -3.251610e+02
   4.846310e+02  -1.535520e+02
   6.110884e+02   1.895580e+02
   2.223490e+02   3.362954e+02
  -3.147491e+02   2.086795e+02
  -5.024579e+02  -1.244519e+02
  -1.977247e+02  -3.728155e+02
   2.693496e+02  -3.700838e+02
   4.880842e+02  -1.358812e+02
   3.516355e+02   1.687838e+02
   1.022396e+02   3.346684e+02
  -2.007506e+01   1.928342e+02
   3.908693e+01  -7.274147e+01
   1.728773e+02  -1.481650e+02
   1.790381e+02   1.556934e+02
   2.646613e+00   4.718905e+02
  -2.329794e+02   4.252723e+02
  -2.988674e+02   3.087654e+00
  -1.238669e+02  -2.891194e+02
   1.305085e+02  -1.188661e+02
   1.597465e+02   2.672472e+02
  -1.109808e+02   3.827423e+02
  -4.434821e+02   6.291634e+01
  -4.913408e+02  -3.512802e+02
  -1.799927e+02  -4.897444e+02
   2.795671e+02  -2.871326e+02
   5.143650e+02   3.888178e+01
   3.533047e+02   2.424769e+02
  -2.954604e+01   2.283742e+02
  -2.805657e+02   8.841836e+01
  -2.220508e+02  -2.073727e+01
  -2.107118e+01  -1.104758e+01
   3.909090e+01   5.413304e+01
  -9.912130e+01   5.024323e+01
  -2.206679e+02  -6.264215e+01
  -1.211422e+02  -1.981556e+02
   1.493635e+02  -2.404711e+02
   3.425318e+02  -1.345883e+02
   2.724856e+02   9.264860e+01
  -1.490060e+01   3.241800e+02
  -2.967343e+02   3.840188e+02
  -3.770764e+02   1.788925e+02
  -2.464049e+02  -1.624033e+02
  -6.169571e+01  -3.752338e+02
   2.723485e+01  -3.345065e+02
   2.422733e+01  -1.795308e+02
   4.616395e+01  -1.056870e+02
   1.497580e+02  -1.142406e+02
   2.536863e+02  -5.581263e+01
   2.389973e+02   1.200779e+02
   9.094896e+01   2.607530e+02
  -9.062319e+01   2.001540e+02
  -1.858621e+02  -3.751191e+01
  -1.306488e+02  -2.481827e+02
   5.502116e+01  -2.546419e+02
   2.495084e+02  -5.580186e+01
   3.029654e+02   1.836522e+02
   1.628885e+02   3.050394e+02
  -4.857867e+01   2.657495e+02
  -1.558878e+02   1.564063e+02
  -1.434013e+02   8.771789e+01
  -1.600180e+02   7.322247e+01
  -2.962939e+02   3.646808e+01
  -4.223088e+02  -1.009921e+02
  -3.164253e+02  -3.057015e+02
   3.253205e+01  -4.437253e+02
   3.916823e+02  -3.998417e+02
   4.862675e+02  -1.744665e+02
   2.919364e+02   1.020093e+02
   1.790725e+01   2.521946e+02
  -9.667075e+01   1.977775e+02
  -9.157926e+00   3.933121e+01
   1.248174e+02  -3.453183e+01
   1.345047e+02   4.664470e+01
   7.297373e+00   1.471865e+02
  -1.211660e+02   1.039346e+02
  -1.107364e+02  -5.484618e+01
   2.787856e+01  -1.311197e+02
   1.615054e+02   4.638516e+00
   1.474479e+02   2.424514e+02
  -2.712188e+01   3.491541e+02
  -2.522143e+02   2.091759e+02
  -3.650407e+02  -7.027029e+01
  -2.769584e+02  -2.786617e+02
  -5.116851e+01  -2.858069e+02
   1.360538e+02  -1.392637e+02
   1.495417e+02   2.502266e+00
   3.152368e+01   1.830299e+01
  -5.027673e+01  -6.332768e+01
   9.018216e+00  -1.156382e+02
   1.276502e+02  -6.427904e+01
   1.460311e+02   2.986170e+01
   2.701228e+01   5.424275e+01
  -8.778152e+01  -1.738221e+01
  -4.094000e+01  -9.880641e+01
   1.543579e+02  -8.941461e+01
   3.142752e+02   2.718822e+01
   2.668007e+02   1.810018e+02
   2.468586e+01   2.724909e+02
  -2.206420e+02   2.361547e+02
  -2.794659e+02   9.278893e+01
  -1.398895e+02  -4.884326e+01
   3.182674e+01  -7.626706e+01
   6.305108e+01   8.508507e+00
  -5.829062e+01   7.977822e+01
  -1.886674e+02   2.744044e+01
  -1.874065e+02  -1.103153e+02
  -5.271315e+01  -1.911031e+02
   9.065743e+01  -1.351295e+02
   1.238968e+02  -1.467884e+01
   4.279402e+01   3.670348e+01
  -4.394966e+01  -2.506511e+01
  -2.272490e+01  -1.157382e+02
   1.067338e+02  -1.198083e+02
   2.182646e+02  -6.544861e+00
   1.808099e+02   1.436190e+02
   2.940058e+00   2.126287e+02
  -1.625060e+02   1.482750e+02
  -1.756607e+02   7.775515e+00
  -5.305925e+01  -9.390991e+01
   6.328773e+01  -9.230388e+01
   6.949702e+01  -2.297365e+01
  -2.433269e+00   2.307106e+01
  -4.209138e+01   4.789378e+00
   6.712534e+00  -2.976561e+01
   9.157946e+01  -2.782584e+00
   1.097589e+02   9.610483e+01
   1.091544e+01   1.812564e+02
  -1.470178e+02   1.531899e+02
  -2.428632e+02   3.309713e+00
  -1.915628e+02  -1.648306e+02
  -3.425977e+01  -2.287355e+02
   1.030459e+02  -1.552238e+02
   1.279854e+02  -2.841054e+01
   7.109574e+01   4.258149e+01
   3.251944e+01   2.473023e+01
   5.784614e+01  -1.912208e+01
   9.313925e+01  -9.184116e+00
   6.249463e+01   5.980560e+01
  -3.987163e+01   1.124141e+02
  -1.279900e+02   7.238521e+01
  -1.121141e+02  -4.613733e+01
   2.012169e+01  -1.337987e+02
   1.701274e+02  -8.944164e+01
   2.078540e+02   7.390701e+01
   7.686884e+01   2.209576e+02
  -1.371836e+02   2.221370e+02
  -2.753499e+02   7.323713e+01
  -2.448061e+02  -1.002556e+02
  -9.457532e+01  -1.746666e+02
   4.467704e+01  -1.386090e+02
   9.183167e+01  -7.943053e+01
   7.074704e+01  -6.995898e+01
   5.872340e+01  -9.628847e+01
   9.262346e+01  -8.133561e+01
   1.363796e+02   1.915601e+01
   1.221619e+02   1.590856e+02
   2.491473e+01   2.318172e+02
  -1.048455e+02   1.687571e+02
  -1.724909e+02   8.852106e+00
  -1.248998e+02  -1.305629e+02
  -7.037685e+00  -1.562654e+02
   7.532529e+01  -7.756025e+01
   6.083753e+01   1.761270e+01
  -5.870998e+00   5.485517e+01
  -2.848991e+01   3.493346e+01
   2.672677e+01   1.069999e+01
   8.507364e+01   1.802687e+01
   5.063295e+01   4.153510e+01
  -7.562931e+01   4.074816e+01
  -1.785539e+02  -4.332932e+00
  -1.474394e+02  -6.801533e+01
   2.973446e+00  -1.017837e+02
   1.397613e+02  -7.435462e+01
   1.489421e+02  -3.307797e+00
   4.420080e+01   5.242825e+01
  -6.160417e+01   4.391947e+01
  -7.918007e+01  -2.005611e+01
  -1.905137e+01  -7.621650e+01
   4.750608e+01  -6.703630e+01
   7.141086e+01  -1.528477e+00
   6.066107e+01   5.253090e+01
   4.922343e+01   4.404158e+01
   5.624967e+01   1.503569e+00
   6.717399e+01   2.450620e+00
   4.765108e+01   7.680982e+01
  -2.702532e+01   1.589289e+02
  -1.315021e+02   1.506200e+02
  -1.888708e+02   3.480029e+01
  -1.355646e+02  -9.698263e+01
  -1.105903e+00  -1.368503e+02
   9.594184e+01  -7.187726e+01
   6.263709e+01   1.073062e+01
  -6.174428e+01   2.159743e+01
  -1.383655e+02  -4.241405e+01
  -7.196713e+01  -1.096500e+02
   8.608372e+01  -1.124008e+02
   1.932116e+02  -4.419724e+01
   1.591872e+02   4.321300e+01
   3.008826e+01   8.660876e+01
  -6.653644e+01   6.029088e+01
  -5.039376e+01  -3.200603e+00
   4.030350e+01  -3.243232e+01
   9.480676e+01   1.891347e+01
   4.290456e+01   1.164906e+02
  -7.649473e+01   1.582486e+02
  -1.571556e+02   7.344319e+01
  -1.284222e+02  -8.968863e+01
  -1.880502e+01  -1.926419e+02
   8.133158e+01  -1.413134e+02
   1.047075e+02   1.191760e+01
   5.486519e+01   1.216272e+02
  -1.476723e+01   1.036294e+02
  -5.308122e+01   1.427519e+01
  -4.497699e+01  -3.297258e+01
  -1.532583e+01  -7.620209e+00
  -5.715474e+00   1.758072e+01
  -3.238409e+01  -2.144937e+01
  -6.005372e+01  -9.051422e+01
  -3.219390e+01  -1.056403e+02
   5.763247e+01  -4.304467e+01
   1.373984e+02   3.666360e+01
   1.236264e+02   6.942040e+01
   1.856212e+01   5.400960e+01
  -8.040453e+01   2.667321e+01
  -8.691129e+01   5.783750e+00
  -1.822362e+01  -1.181832e+01
   3.411858e+01  -2.133743e+01
   1.975680e+01  -1.207153e+01
  -1.478930e+01   4.649690e+00
   2.277888e+00   5.265682e+00
   6.624647e+01  -2.781091e+00
   9.508269e+01   1.937546e+01
   2.528485e+01   8.079334e+01
  -1.053659e+02   1.218195e+02
  -1.903518e+02   7.271265e+01
  -1.578898e+02  -5.419385e+01
  -3.666874e+01  -1.603746e+02
   7.903453e+01  -1.604042e+02
   1.174049e+02  -7.063550e+01
   8.167387e+01   1.721983e+01
   2.775944e+01   3.823427e+01
   3.920581e+00   1.355664e+01
   1.531985e+01   8.495824e+00
   3.159426e+01   4.993294e+01
   1.917871e+01   9.282049e+01
  -2.840497e+01   7.411916e+01
  -7.964085e+01  -1.283961e+01
  -8.387235e+01  -1.008577e+02
  -1.825634e+01  -1.122101e+02
   7.430392e+01  -3.606143e+01
   1.092984e+02   6.173689e+01
   4.448017e+01   1.039807e+02
  -6.289937e+01   6.838874e+01
  -1.062996e+02  -4.739646e+00
  -4.820385e+01  -5.890374e+01
   3.431301e+01  -6.469340e+01
   4.185928e+01  -3.050839e+01
  -2.552421e+01   7.826234e+00
  -7.048557e+01   1.165289e+01
  -2.157290e+01  -2.710289e+01
   7.694606e+01  -6.878470e+01
   1.228705e+02  -5.754342e+01
   7.512023e+01   1.427039e+01
  -1.041229e+01   8.560134e+01
  -5.700487e+01   8.648912e+01
  -4.566840e+01   1.615106e+01
  -8.491587e+00  -5.146468e+01
   2.308890e+01  -4.980849e+01
   3.729280e+01   8.877689e+00
   3.019052e+01   5.441816e+01
   6.290710e-01   4.174664e+01
  -3.330000e+01  -3.829890e+00
  -4.335499e+01  -2.551426e+01
  -2.169646e+01  -4.399650e+00
   4.022293e+00   2.177572e+01
   6.105838e+00   1.047648e+01
  -6.808709e+00  -3.183240e+01
  -2.607338e+00  -5.499530e+01
   2.618647e+01  -2.542841e+01
   4.443946e+01   3.254309e+01
   1.701349e+01   5.959167e+01
  -3.968598e+01   2.767463e+01
  -6.578597e+01  -3.061983e+01
  -2.218323e+01  -5.958307e+01
   5.775148e+01  -3.796239e+01
   9.618437e+01   8.517173e+00
   5.325275e+01   4.232679e+01
  -2.816450e+01   4.762245e+01
  -6.643032e+01   3.123982e+01
  -3.053710e+01   8.051908e+00
   2.729991e+01  -5.112506e+00
   3.422066e+01   4.082351e+00
  -2.084875e+01   2.513277e+01
  -7.649117e+01   2.331384e+01
