
 $NMID
 id='ANONYMOUS ', fmtdat='(2E16.6)'
 volume=1.0
 tramp=1.0
 $END
  -5.123759e+03  -4.210736e+01
  -2.719945e+03  -2.864250e+03
   6.836350e+02  -3.172118e+03
   2.356410e+03  -9.721894e+02
   1.140743e+03   6.678831e+02
  -7.686616e+02   7.072076e+02
  -9.319586e+02  -4.977411e+02
  -4.229681e+01  -1.251790e+03
   8.538643e+02  -8.843545e+02
   1.042519e+03   1.241847e+02
   6.097369e+02   9.305238e+02
  -2.370724e+02   9.983748e+02
  -6.899934e+02   1.893156e+02
  -4.773822e+02  -6.979256e+02
   3.348925e+02  -8.381336e+02
   6.878054e+02  -3.746417e+01
   3.494019e+02   7.685306e+02
  -4.119797e+02   7.142289e+02
  -6.679930e+02   9.287150e+01
  -4.063975e+02  -4.129616e+02
   1.329365e+01  -5.172273e+02
   2.870804e+02  -2.940484e+02
   2.656474e+02  -2.296858e+01
  -9.959891e+01   5.570958e+01
  -4.290881e+02  -1.242300e+02
  -2.233004e+02  -4.451948e+02
   4.902415e+02  -4.547581e+02
   9.197611e+02   4.891211e+01
   4.816218e+02   5.731423e+02
  -4.309897e+02   5.395551e+02
  -8.148432e+02  -2.016171e+01
  -3.791668e+02  -5.141400e+02
   3.077850e+02  -5.692672e+02
   5.882474e+02  -2.276742e+02
   4.243422e+02   2.332594e+02
   1.017176e+02   5.217033e+02
  -2.005018e+02   3.351643e+02
  -1.896431e+02  -2.066952e+02
   1.593158e+02  -4.819914e+02
   5.023511e+02  -1.861384e+01
   2.946856e+02   7.141654e+02
  -3.204634e+02   7.575846e+02
  -6.597531e+02   1.975481e+01
  -2.880907e+02  -5.970440e+02
   3.261157e+02  -3.451013e+02
   4.307795e+02   3.674377e+02
  -7.399736e+01   5.894851e+02
  -5.972248e+02   1.246679e+02
  -6.211227e+02  -4.544113e+02
  -1.476165e+02  -6.257288e+02
   4.192607e+02  -3.536698e+02
   6.662326e+02   9.072380e+01
   3.903596e+02   4.176229e+02
  -1.658307e+02   3.970495e+02
  -4.716143e+02   6.166511e+01
  -2.500602e+02  -2.187582e+02
   1.410996e+02  -1.187583e+02
   1.629311e+02   1.811185e+02
  -1.813281e+02   2.232111e+02
  -3.842932e+02  -7.833870e+01
  -1.565750e+02  -3.369400e+02
   2.241129e+02  -2.791470e+02
   3.588897e+02  -5.615042e+01
   2.055393e+02   1.097484e+02
  -3.458273e+01   2.327360e+02
  -2.373816e+02   3.309560e+02
  -3.585405e+02   2.275465e+02
  -3.140386e+02  -1.435446e+02
  -9.197298e+01  -4.674607e+02
   1.196996e+02  -4.136608e+02
   1.369514e+02  -1.165887e+02
   3.977800e+01   1.930516e+01
   5.158415e+01  -9.228141e+01
   1.997468e+02  -1.444213e+02
   2.860941e+02   5.209000e+01
   1.689200e+02   2.889014e+02
  -6.362361e+01   2.792131e+02
  -2.323437e+02   2.320273e+01
  -2.130592e+02  -2.437280e+02
  -5.230372e+00  -3.109608e+02
   2.732024e+02  -1.351702e+02
   3.831391e+02   1.647661e+02
   2.066144e+02   3.723825e+02
  -1.016743e+02   3.322946e+02
  -2.449270e+02   1.244667e+02
  -1.602507e+02  -9.317439e+00
  -9.257347e+01   2.736041e+01
  -2.305884e+02   7.484639e+01
  -4.116095e+02  -4.502626e+01
  -3.510413e+02  -2.878908e+02
  -9.101429e+00  -4.580881e+02
   3.637302e+02  -4.274464e+02
   5.032148e+02  -2.115854e+02
   3.519630e+02   9.219016e+01
   5.862854e+01   3.058448e+02
  -1.408733e+02   2.707177e+02
  -9.633363e+01   3.244897e+01
   1.094814e+02  -1.212915e+02
   2.113140e+02  -3.243969e+00
   6.262723e+01   2.055919e+02
  -1.678653e+02   1.880870e+02
  -1.936586e+02  -6.469991e+01
   1.598798e+01  -2.120428e+02
   2.073534e+02  -3.977527e+01
   1.740076e+02   2.657219e+02
  -3.526999e+01   3.707024e+02
  -2.417730e+02   1.980448e+02
  -3.380181e+02  -7.053400e+01
  -2.898837e+02  -2.487174e+02
  -1.028195e+02  -2.735459e+02
   1.168261e+02  -1.692458e+02
   1.914018e+02  -2.353632e+01
   6.695578e+01   3.737311e+01
  -7.585156e+01  -3.530747e+01
  -3.867712e+01  -1.306266e+02
   1.264855e+02  -1.093684e+02
   1.896806e+02   9.922812e+00
   6.527871e+01   7.749354e+01
  -8.171164e+01   2.240789e+01
  -5.898727e+01  -7.051385e+01
   1.219037e+02  -8.700200e+01
   2.835474e+02  -2.638276e+00
   2.686665e+02   1.360013e+02
   6.759820e+01   2.567906e+02
  -1.823726e+02   2.721716e+02
  -2.922643e+02   1.386090e+02
  -1.816169e+02  -4.995631e+01
   2.176182e+01  -1.176327e+02
   9.658343e+01  -1.249776e+01
  -3.065428e+01   1.068832e+02
  -2.035518e+02   6.500986e+01
  -2.247785e+02  -1.066462e+02
  -7.435202e+01  -2.195308e+02
   9.862072e+01  -1.672500e+02
   1.533072e+02  -3.075772e+01
   7.898820e+01   4.446037e+01
  -2.453391e+01   6.039951e+00
  -3.959654e+01  -8.203029e+01
   6.904562e+01  -1.151275e+02
   2.016981e+02  -3.138811e+01
   2.008243e+02   1.272860e+02
   2.656440e+01   2.298784e+02
  -1.701236e+02   1.750321e+02
  -2.055016e+02   6.836164e+00
  -7.197193e+01  -1.220859e+02
   6.757795e+01  -1.178459e+02
   8.744231e+01  -3.147550e+01
   2.171343e+01   2.732645e+01
  -1.926334e+01   1.949579e+01
   1.119617e+01  -5.949342e+00
   7.107721e+01   1.112170e+01
   8.754485e+01   8.210902e+01
   1.538245e+01   1.585024e+02
  -1.267875e+02   1.572008e+02
  -2.382020e+02   3.126808e+01
  -2.091903e+02  -1.517948e+02
  -4.510005e+01  -2.474105e+02
   1.129516e+02  -1.777632e+02
   1.426714e+02  -2.624187e+01
   7.435944e+01   6.147009e+01
   2.874106e+01   3.924239e+01
   5.164661e+01  -1.052560e+01
   7.696227e+01  -4.572909e+00
   3.944290e+01   4.926903e+01
  -4.280888e+01   8.436631e+01
  -9.943360e+01   5.066500e+01
  -8.252016e+01  -3.682411e+01
   1.421128e+01  -1.101070e+02
   1.428558e+02  -8.600966e+01
   2.033616e+02   5.065220e+01
   1.086367e+02   2.068488e+02
  -1.060249e+02   2.394691e+02
  -2.781347e+02   1.049241e+02
  -2.712290e+02  -8.633296e+01
  -1.170903e+02  -1.841147e+02
   3.961414e+01  -1.554548e+02
   9.849848e+01  -8.981800e+01
   8.166530e+01  -7.271509e+01
   6.800010e+01  -9.183690e+01
   9.385302e+01  -7.415206e+01
   1.313824e+02   2.189873e+01
   1.217050e+02   1.539830e+02
   3.281282e+01   2.289234e+02
  -9.953404e+01   1.777382e+02
  -1.801929e+02   2.438958e+01
  -1.411548e+02  -1.232013e+02
  -2.078253e+01  -1.648301e+02
   6.830771e+01  -9.629726e+01
   6.155476e+01  -1.202221e+00
   6.325714e+00   4.299415e+01
  -8.836875e+00   3.370733e+01
   3.719452e+01   1.752096e+01
   7.892531e+01   2.327261e+01
   4.471596e+01   3.894937e+01
  -6.194001e+01   3.625988e+01
  -1.554917e+02   1.465697e+00
  -1.426372e+02  -5.122622e+01
  -1.537249e+01  -8.643117e+01
   1.218550e+02  -7.185150e+01
   1.473343e+02  -1.226338e+01
   4.874271e+01   4.136697e+01
  -6.267835e+01   3.758369e+01
  -7.855656e+01  -1.904033e+01
  -8.046754e+00  -6.826674e+01
   5.704177e+01  -5.810798e+01
   6.415465e+01   1.526059e+00
   4.368062e+01   4.969970e+01
   4.279902e+01   4.198252e+01
   6.023203e+01   2.195110e+00
   6.471838e+01  -1.880901e-01
   3.433849e+01   6.578008e+01
  -3.209621e+01   1.441664e+02
  -1.142108e+02   1.408125e+02
  -1.625839e+02   3.269321e+01
  -1.227560e+02  -9.207839e+01
  -6.042020e+00  -1.262405e+02
   8.726717e+01  -5.953997e+01
   6.092792e+01   1.786510e+01
  -6.015763e+01   2.172340e+01
  -1.404253e+02  -4.385746e+01
  -7.917277e+01  -1.090277e+02
   7.945568e+01  -1.150098e+02
   1.932011e+02  -5.507946e+01
   1.669106e+02   3.135861e+01
   4.068890e+01   8.710395e+01
  -6.047944e+01   7.348618e+01
  -5.040608e+01   1.028252e+01
   3.837303e+01  -2.603672e+01
   9.186762e+01   2.271094e+01
   3.293863e+01   1.205115e+02
  -9.514045e+01   1.573449e+02
  -1.735881e+02   6.348900e+01
  -1.307424e+02  -1.033903e+02
  -1.066820e+01  -2.028742e+02
   8.722679e+01  -1.488092e+02
   1.064502e+02   4.804977e+00
   6.253377e+01   1.187517e+02
   5.127051e-02   1.082326e+02
  -4.539938e+01   2.078990e+01
  -5.378887e+01  -3.237020e+01
  -2.779472e+01  -9.788343e+00
  -3.099368e+00   2.063921e+01
  -1.791262e+01  -1.447229e+01
  -5.451025e+01  -8.883909e+01
  -4.336430e+01  -1.100747e+02
   4.586036e+01  -4.466939e+01
   1.394470e+02   4.148670e+01
   1.314813e+02   7.251878e+01
   1.660978e+01   4.968337e+01
  -9.092418e+01   2.174425e+01
  -9.015347e+01   7.609371e+00
  -1.026705e+01  -7.484127e+00
   3.930793e+01  -2.328229e+01
   1.308074e+01  -1.936817e+01
  -2.258355e+01   9.788961e-01
   6.967712e+00   9.006914e+00
   7.701784e+01   4.013381e+00
   9.277323e+01   2.496594e+01
   5.932253e+00   8.244487e+01
  -1.227637e+02   1.154621e+02
  -1.881540e+02   5.661231e+01
  -1.412881e+02  -7.159036e+01
  -2.347740e+01  -1.650041e+02
   8.144323e+01  -1.498449e+02
   1.159951e+02  -5.689000e+01
   8.128799e+01   2.312701e+01
   2.416015e+01   3.650539e+01
  -4.656021e+00   9.617875e+00
   8.633320e+00   4.248193e+00
   3.250846e+01   4.492791e+01
   2.267658e+01   8.897526e+01
  -2.954077e+01   7.084921e+01
  -8.156732e+01  -1.992923e+01
  -7.640018e+01  -1.106930e+02
  -2.145690e+00  -1.136411e+02
   8.476267e+01  -2.213081e+01
   1.038698e+02   7.880587e+01
   3.099485e+01   1.050106e+02
  -6.789942e+01   5.413543e+01
  -9.806411e+01  -1.378543e+01
  -3.791010e+01  -5.030197e+01
   3.400077e+01  -5.034827e+01
   3.115967e+01  -2.751336e+01
  -3.491350e+01  -1.043950e-01
  -6.955833e+01   6.717072e+00
  -1.369483e+01  -2.390128e+01
   8.035887e+01  -6.466974e+01
   1.148724e+02  -5.804058e+01
   6.145897e+01   1.217741e+01
  -1.779580e+01   8.313519e+01
  -5.347135e+01   7.854868e+01
  -3.620872e+01   3.759731e+00
  -4.647244e-01  -5.705827e+01
   2.678302e+01  -4.254316e+01
   3.716743e+01   1.954583e+01
   2.636272e+01   5.476476e+01
  -4.054892e+00   3.315066e+01
  -3.482004e+01  -8.303904e+00
  -4.048727e+01  -2.081225e+01
  -2.085711e+01  -1.930663e+00
   1.794748e-01   1.202538e+01
   7.001824e+00  -5.245523e+00
   8.481924e+00  -3.753652e+01
   1.950268e+01  -4.372962e+01
   3.334450e+01  -5.668780e+00
   2.785412e+01   4.695007e+01
  -5.319793e+00   6.172477e+01
  -4.557769e+01   1.953666e+01
  -5.518722e+01  -4.151311e+01
  -1.332998e+01  -6.495193e+01
   5.483397e+01  -3.437632e+01
   8.891770e+01   1.609866e+01
   4.976209e+01   4.490006e+01
  -2.836103e+01   4.079572e+01
  -6.515319e+01   2.095973e+01
  -2.429598e+01   4.810778e+00
   3.838290e+01   2.718666e+00
   3.866447e+01   1.644508e+01
  -3.205542e+01   3.147801e+01
  -9.406060e+01   1.894946e+01
