
 $NMID
 id='ANONYMOUS ', fmtdat='(2E16.6)'
 volume=1.0
 tramp=1.0
 $END
  -2.813439e+03   1.575226e+02
  -2.004479e+03  -1.935554e+03
   1.492172e+02  -2.199223e+03
   1.320740e+03  -1.208903e+03
   8.025446e+02  -4.870181e+01
   1.064614e+01   3.120762e+02
  -4.604473e+02  -1.485844e+02
   2.923210e+01  -5.001046e+02
   5.038030e+02  -6.287792e+02
   6.886297e+02  -8.459855e+00
   3.498892e+02   6.070484e+02
  -1.025415e+02   5.738292e+02
  -3.731727e+02   1.893200e+02
  -3.020789e+02  -4.333816e+02
   2.103175e+02  -3.782962e+02
   4.434060e+02  -4.119390e+01
   2.712222e+02   4.733020e+02
  -1.913258e+02   5.287087e+02
  -4.482447e+02   2.096619e+02
  -3.642529e+02  -2.161530e+02
  -1.343863e+02  -3.295228e+02
   1.040874e+02  -2.192187e+02
   1.064881e+02  -6.263087e+01
  -1.254350e+02  -5.303341e+01
  -2.319709e+02  -2.244071e+02
  -5.249398e+01  -3.496948e+02
   4.299657e+02  -2.518787e+02
   5.790508e+02   1.461300e+02
   2.580876e+02   3.856409e+02
  -3.210578e+02   2.692400e+02
  -5.049150e+02  -6.851754e+01
  -2.089457e+02  -3.675128e+02
   2.471072e+02  -3.907771e+02
   4.440896e+02  -1.645129e+02
   3.287717e+02   1.718246e+02
   1.093958e+02   3.470839e+02
  -6.367056e+01   1.998624e+02
  -1.994823e+01  -9.956212e+01
   1.406437e+02  -2.211333e+02
   2.535693e+02   9.850532e+01
   8.796079e+01   5.173270e+02
  -2.279994e+02   4.921749e+02
  -3.685377e+02   2.576401e+01
  -1.629245e+02  -3.338409e+02
   1.679895e+02  -1.583524e+02
   1.966076e+02   2.669583e+02
  -1.201626e+02   3.928850e+02
  -4.492504e+02   4.987232e+01
  -4.720714e+02  -3.576931e+02
  -1.504498e+02  -4.776966e+02
   2.877127e+02  -2.503649e+02
   5.067364e+02   6.042208e+01
   3.369747e+02   2.584178e+02
  -6.563514e+01   2.394432e+02
  -3.161959e+02   7.333979e+01
  -2.225775e+02  -6.228591e+01
   1.516708e+01  -3.690850e+01
   6.630043e+01   7.978896e+01
  -1.137585e+02   9.207661e+01
  -2.481296e+02  -5.720454e+01
  -1.225046e+02  -2.211910e+02
   1.532955e+02  -2.428119e+02
   3.106931e+02  -1.136860e+02
   2.241944e+02   8.478568e+01
  -1.779291e+01   2.682593e+02
  -2.440862e+02   3.284469e+02
  -3.264880e+02   1.712682e+02
  -2.380732e+02  -1.366830e+02
  -6.888318e+01  -3.555114e+02
   4.283677e+01  -3.240846e+02
   4.642790e+01  -1.558857e+02
   3.243403e+01  -7.110936e+01
   1.016130e+02  -1.008014e+02
   2.137933e+02  -7.667263e+01
   2.361765e+02   8.243479e+01
   1.123769e+02   2.350557e+02
  -7.371083e+01   2.010826e+02
  -1.879173e+02  -1.716159e+01
  -1.453893e+02  -2.250017e+02
   3.318016e+01  -2.548713e+02
   2.391143e+02  -7.964455e+01
   3.073756e+02   1.606066e+02
   1.715988e+02   2.997846e+02
  -5.280500e+01   2.642731e+02
  -1.682203e+02   1.426801e+02
  -1.375346e+02   6.198386e+01
  -1.272199e+02   6.210252e+01
  -2.563816e+02   5.026907e+01
  -3.944236e+02  -7.419747e+01
  -3.158967e+02  -2.718296e+02
   9.174538e+00  -4.188489e+02
   3.515113e+02  -3.830509e+02
   4.526928e+02  -1.791280e+02
   2.826949e+02   8.748436e+01
   3.437979e+01   2.430675e+02
  -8.942525e+01   1.993794e+02
  -2.568201e+01   3.569773e+01
   1.055569e+02  -5.209966e+01
   1.386981e+02   2.827614e+01
   2.333332e+01   1.460977e+02
  -1.162714e+02   1.183791e+02
  -1.184593e+02  -4.979151e+01
   2.188439e+01  -1.403525e+02
   1.624061e+02  -1.271329e+01
   1.546913e+02   2.259133e+02
  -1.406971e+01   3.346101e+02
  -2.253639e+02   2.053906e+02
  -3.361980e+02  -5.201629e+01
  -2.686265e+02  -2.445607e+02
  -6.726732e+01  -2.594069e+02
   1.166681e+02  -1.355966e+02
   1.446267e+02  -7.132766e+00
   3.562255e+01   1.639956e+01
  -5.310904e+01  -5.458899e+01
  -2.062702e+00  -1.103364e+02
   1.185266e+02  -7.131307e+01
   1.460543e+02   1.947106e+01
   3.470852e+01   5.476264e+01
  -8.008965e+01  -3.576049e+00
  -4.363152e+01  -8.240876e+01
   1.331472e+02  -8.719387e+01
   2.831512e+02   7.283699e+00
   2.505548e+02   1.473923e+02
   4.154838e+01   2.462719e+02
  -1.838650e+02   2.309368e+02
  -2.542904e+02   1.026930e+02
  -1.389819e+02  -4.009384e+01
   2.450908e+01  -7.697364e+01
   6.668429e+01   4.200418e+00
  -4.408006e+01   8.177315e+01
  -1.776590e+02   3.747481e+01
  -1.871567e+02  -9.746692e+01
  -5.956853e+01  -1.821420e+02
   8.390598e+01  -1.335232e+02
   1.226107e+02  -1.829047e+01
   4.742677e+01   3.647843e+01
  -3.972154e+01  -1.492208e+01
  -2.936567e+01  -1.005585e+02
   8.670331e+01  -1.145383e+02
   1.978086e+02  -1.875926e+01
   1.752352e+02   1.238337e+02
   1.360961e+01   2.004633e+02
  -1.479507e+02   1.487337e+02
  -1.692766e+02   1.301912e+01
  -5.607973e+01  -9.209145e+01
   5.696304e+01  -9.462947e+01
   6.650841e+01  -2.633655e+01
   1.770008e+00   2.194149e+01
  -3.532621e+01   8.430446e+00
   8.049803e+00  -2.443222e+01
   8.374634e+01  -4.073249e+00
   1.026549e+02   8.305273e+01
   1.667355e+01   1.648141e+02
  -1.300768e+02   1.497575e+02
  -2.262399e+02   1.601938e+01
  -1.869090e+02  -1.454296e+02
  -3.916915e+01  -2.164767e+02
   9.408765e+01  -1.519184e+02
   1.218146e+02  -2.847682e+01
   6.705977e+01   4.280703e+01
   2.849880e+01   2.609734e+01
   5.096555e+01  -1.720981e+01
   8.426782e+01  -1.034569e+01
   5.525870e+01   5.073710e+01
  -3.674279e+01   9.915332e+01
  -1.137933e+02   6.578410e+01
  -1.001781e+02  -3.777959e+01
   1.597813e+01  -1.206248e+02
   1.540144e+02  -8.693194e+01
   1.952773e+02   5.857549e+01
   8.300368e+01   2.011480e+02
  -1.171263e+02   2.133473e+02
  -2.543732e+02   7.985704e+01
  -2.337511e+02  -8.399544e+01
  -9.517489e+01  -1.590046e+02
   3.605079e+01  -1.300275e+02
   8.202797e+01  -7.635286e+01
   6.324825e+01  -6.806812e+01
   5.394160e+01  -9.352203e+01
   8.534325e+01  -8.023712e+01
   1.270737e+02   1.300440e+01
   1.186928e+02   1.453755e+02
   3.193745e+01   2.171981e+02
  -9.126903e+01   1.634010e+02
  -1.629160e+02   1.551223e+01
  -1.245062e+02  -1.182307e+02
  -1.325173e+01  -1.478260e+02
   6.848480e+01  -7.783884e+01
   5.775059e+01   1.110747e+01
  -3.133437e+00   4.847951e+01
  -2.284965e+01   3.314314e+01
   2.818259e+01   1.170124e+01
   8.047151e+01   1.630555e+01
   4.729077e+01   3.634928e+01
  -6.800533e+01   3.786713e+01
  -1.625047e+02   2.182696e+00
  -1.367046e+02  -5.449777e+01
  -2.527748e+00  -8.958685e+01
   1.235248e+02  -7.077316e+01
   1.352925e+02  -7.710648e+00
   3.987684e+01   4.658778e+01
  -5.941845e+01   4.107052e+01
  -7.593707e+01  -1.937025e+01
  -1.763938e+01  -7.369017e+01
   4.597179e+01  -6.480803e+01
   6.687363e+01  -1.603004e+00
   5.515632e+01   4.916649e+01
   4.503934e+01   4.019633e+01
   5.214776e+01  -1.791056e+00
   6.202924e+01  -2.546958e+00
   4.428305e+01   6.767940e+01
  -2.154540e+01   1.465682e+02
  -1.147158e+02   1.414207e+02
  -1.696686e+02   3.528263e+01
  -1.260137e+02  -8.689228e+01
  -5.019424e+00  -1.249361e+02
   8.630691e+01  -6.615985e+01
   5.910008e+01   9.429518e+00
  -5.625089e+01   2.110766e+01
  -1.297704e+02  -3.689288e+01
  -7.061860e+01  -9.994713e+01
   7.650286e+01  -1.070328e+02
   1.782580e+02  -4.832445e+01
   1.500604e+02   3.408848e+01
   3.234210e+01   8.034784e+01
  -5.836569e+01   6.031781e+01
  -4.607250e+01  -4.308498e-02
   3.702076e+01  -3.084536e+01
   8.869162e+01   1.662463e+01
   4.053352e+01   1.101405e+02
  -7.252558e+01   1.506164e+02
  -1.491834e+02   6.982754e+01
  -1.220453e+02  -8.560968e+01
  -1.891608e+01  -1.830055e+02
   7.473505e+01  -1.351350e+02
   9.768736e+01   8.731315e+00
   5.445334e+01   1.121730e+02
  -8.405488e+00   9.667116e+01
  -4.608145e+01   1.473948e+01
  -4.292254e+01  -2.930072e+01
  -1.661285e+01  -6.102866e+00
  -5.091849e+00   1.726435e+01
  -2.836367e+01  -1.859685e+01
  -5.669820e+01  -8.294689e+01
  -3.401813e+01  -9.760160e+01
   5.100964e+01  -4.051837e+01
   1.295465e+02   3.205372e+01
   1.178705e+02   6.158621e+01
   1.732175e+01   4.849822e+01
  -7.694071e+01   2.579722e+01
  -8.103086e+01   7.931699e+00
  -1.448858e+01  -9.751243e+00
   3.320490e+01  -2.074451e+01
   1.672020e+01  -1.255179e+01
  -1.576860e+01   4.083914e+00
   3.168108e+00   5.361098e+00
   6.482626e+01  -2.609724e+00
   8.863709e+01   1.864529e+01
   1.948721e+01   7.717121e+01
  -1.023216e+02   1.151258e+02
  -1.773656e+02   6.624083e+01
  -1.439379e+02  -5.444972e+01
  -3.221367e+01  -1.518090e+02
   7.254757e+01  -1.483058e+02
   1.077346e+02  -6.305373e+01
   7.559866e+01   1.729561e+01
   2.521725e+01   3.451856e+01
   1.853312e+00   1.032729e+01
   1.323519e+01   6.019070e+00
   3.143350e+01   4.507456e+01
   2.144978e+01   8.654654e+01
  -2.518972e+01   6.970529e+01
  -7.600124e+01  -1.174061e+01
  -8.002242e+01  -9.469768e+01
  -1.639049e+01  -1.043951e+02
   7.079814e+01  -3.150533e+01
   1.021121e+02   5.954504e+01
   4.032261e+01   9.581503e+01
  -5.897667e+01   6.059285e+01
  -9.799883e+01  -5.383681e+00
  -4.405058e+01  -5.246007e+01
   3.061412e+01  -5.716681e+01
   3.611304e+01  -2.829559e+01
  -2.533281e+01   5.639341e+00
  -6.428645e+01   1.027906e+01
  -1.787571e+01  -2.411683e+01
   7.190692e+01  -6.353301e+01
   1.113213e+02  -5.473501e+01
   6.579359e+01   1.243063e+01
  -1.144207e+01   7.985875e+01
  -5.144729e+01   7.949205e+01
  -3.998004e+01   1.194486e+01
  -6.659350e+00  -4.967883e+01
   2.145412e+01  -4.503185e+01
   3.452474e+01   1.076459e+01
   2.768693e+01   5.049619e+01
  -5.970018e-02   3.596930e+01
  -3.148545e+01  -5.188477e+00
  -3.959515e+01  -2.161224e+01
  -1.937299e+01  -1.484070e+00
   3.195269e+00   1.944590e+01
   4.911412e+00   6.294720e+00
  -5.190544e+00  -3.173866e+01
   5.481138e-01  -4.979387e+01
   2.579682e+01  -2.013547e+01
   3.892302e+01   3.298807e+01
   1.208009e+01   5.577019e+01
  -3.868272e+01   2.431549e+01
  -6.011361e+01  -3.078435e+01
  -1.934588e+01  -5.750755e+01
   5.356164e+01  -3.623346e+01
   8.937651e+01   8.104722e+00
   5.006655e+01   3.978931e+01
  -2.562451e+01   4.417078e+01
  -6.116286e+01   2.836028e+01
  -2.659154e+01   7.286137e+00
   2.839963e+01  -3.199396e+00
   3.275030e+01   6.745296e+00
  -2.257359e+01   2.637051e+01
  -7.580681e+01   2.255546e+01
