
 $NMID
 id='ANONYMOUS ', fmtdat='(2E16.6)'
 volume=1.0
 tramp=1.0
 $END
   3.521467e+03  -1.646540e+02
   2.211210e+03   2.018108e+03
  -2.267636e+02   2.115199e+03
  -1.394775e+03   1.246125e+03
  -7.061501e+02  -1.299186e+02
   1.759594e+02  -2.647861e+02
   4.602484e+02   2.374616e+02
   9.205899e+00   5.641788e+02
  -4.910679e+02   6.659061e+02
  -7.727202e+02   6.297676e+01
  -3.364976e+02  -5.855772e+02
   6.194338e+01  -6.339028e+02
   3.249413e+02  -6.293679e+01
   3.007582e+02   5.554590e+02
  -1.982094e+02   5.427329e+02
  -4.746154e+02  -1.971445e+00
  -3.166187e+02  -5.167792e+02
   1.297245e+02  -5.896736e+02
   4.858640e+02  -2.232509e+02
   3.989790e+02   1.919531e+02
   1.242647e+02   3.909084e+02
  -1.639609e+02   2.647506e+02
  -1.097602e+02   8.288101e+01
   1.943696e+02  -2.590755e+00
   3.527444e+02   2.118844e+02
   6.904187e+01   4.116907e+02
  -5.056032e+02   2.458143e+02
  -6.872081e+02  -1.526987e+02
  -2.960150e+02  -4.218500e+02
   3.558373e+02  -3.063267e+02
   6.018097e+02   1.104912e+02
   2.307360e+02   3.909842e+02
  -2.838187e+02   4.120272e+02
  -4.816103e+02   1.497570e+02
  -3.630775e+02  -1.841908e+02
  -7.832821e+01  -3.758590e+02
   9.077984e+01  -2.012984e+02
   2.090306e+01   1.510832e+02
  -1.740671e+02   2.513365e+02
  -2.956663e+02  -1.056941e+02
  -1.053131e+02  -5.813599e+02
   2.682551e+02  -5.519054e+02
   4.370026e+02   1.014496e+00
   1.750617e+02   4.105858e+02
  -2.158843e+02   2.010647e+02
  -2.577726e+02  -3.127349e+02
   9.609357e+01  -4.708928e+02
   4.995790e+02  -9.610230e+01
   5.458024e+02   3.942010e+02
   1.741468e+02   5.470102e+02
  -3.293270e+02   3.043809e+02
  -5.789593e+02  -6.513325e+01
  -3.749282e+02  -2.990528e+02
   7.398232e+01  -2.758789e+02
   3.452216e+02  -7.708558e+01
   2.384100e+02   7.538779e+01
  -2.049488e+01   4.708190e+01
  -7.442448e+01  -7.711011e+01
   1.217511e+02  -9.358279e+01
   2.710467e+02   5.297882e+01
   1.436382e+02   2.224751e+02
  -1.519438e+02   2.642076e+02
  -3.343602e+02   1.513384e+02
  -2.568452e+02  -6.372874e+01
   5.328408e+00  -2.912400e+02
   2.683586e+02  -3.758798e+02
   3.669442e+02  -1.888783e+02
   2.547350e+02   1.713039e+02
   4.759398e+01   4.059124e+02
  -7.201151e+01   3.434685e+02
  -4.989793e+01   1.449006e+02
  -2.072940e+01   6.812687e+01
  -1.121198e+02   1.212909e+02
  -2.569974e+02   9.244269e+01
  -2.770056e+02  -1.021052e+02
  -1.184818e+02  -2.806969e+02
   9.932105e+01  -2.300642e+02
   2.168958e+02   2.481111e+01
   1.570699e+02   2.552559e+02
  -4.368554e+01   2.731407e+02
  -2.641010e+02   7.791769e+01
  -3.354698e+02  -1.795026e+02
  -1.797200e+02  -3.235548e+02
   6.444614e+01  -2.836657e+02
   1.880378e+02  -1.499666e+02
   1.478234e+02  -6.663827e+01
   1.366769e+02  -7.235975e+01
   2.761282e+02  -6.275256e+01
   4.317206e+02   7.685083e+01
   3.493677e+02   3.038803e+02
  -9.256579e+00   4.646632e+02
  -3.832172e+02   4.269757e+02
  -5.008073e+02   1.975791e+02
  -3.188491e+02  -1.023009e+02
  -3.292435e+01  -2.783706e+02
   1.059292e+02  -2.196914e+02
   3.009292e+01  -2.776614e+01
  -1.271871e+02   6.716417e+01
  -1.596220e+02  -3.206521e+01
  -1.902957e+01  -1.731941e+02
   1.412583e+02  -1.344991e+02
   1.347301e+02   6.170911e+01
  -3.359958e+01   1.600376e+02
  -1.818347e+02   1.149363e+01
  -1.620651e+02  -2.480152e+02
   2.158727e+01  -3.573169e+02
   2.431413e+02  -2.158928e+02
   3.604507e+02   5.596007e+01
   2.927162e+02   2.600693e+02
   7.608676e+01   2.809855e+02
  -1.287064e+02   1.519764e+02
  -1.621829e+02   9.037981e+00
  -3.736448e+01  -1.983435e+01
   6.375594e+01   6.183313e+01
   4.674561e+00   1.265073e+02
  -1.340900e+02   7.956678e+01
  -1.641773e+02  -2.653222e+01
  -3.698751e+01  -6.337818e+01
   9.151995e+01   7.169714e+00
   4.938056e+01   9.501547e+01
  -1.480606e+02   9.679227e+01
  -3.142608e+02  -8.378266e+00
  -2.782881e+02  -1.625358e+02
  -4.570056e+01  -2.737447e+02
   2.067247e+02  -2.600795e+02
   2.847176e+02  -1.152920e+02
   1.535812e+02   4.978858e+01
  -2.972216e+01   9.199266e+01
  -7.421382e+01  -3.886117e+00
   5.117295e+01  -9.409666e+01
   1.970597e+02  -4.319622e+01
   2.036589e+02   1.101954e+02
   6.212288e+01   2.038436e+02
  -9.471620e+01   1.473211e+02
  -1.358655e+02   1.762442e+01
  -5.253050e+01  -4.328150e+01
   4.507610e+01   1.389197e+01
   3.548145e+01   1.089828e+02
  -9.308575e+01   1.260737e+02
  -2.179370e+02   2.171285e+01
  -1.936684e+02  -1.343930e+02
  -1.409298e+01  -2.180565e+02
   1.640048e+02  -1.600897e+02
   1.847772e+02  -1.187195e+01
   5.851993e+01   1.015988e+02
  -6.549421e+01   1.018531e+02
  -7.508363e+01   2.696693e+01
  -3.821683e+00  -2.579468e+01
   3.788752e+01  -9.200590e+00
  -7.636464e+00   2.804725e+01
  -9.052229e+01   6.034213e+00
  -1.138810e+02  -9.240475e+01
  -2.081942e+01  -1.855197e+02
   1.422280e+02  -1.688028e+02
   2.507581e+02  -2.051013e+01
   2.088593e+02   1.611642e+02
   4.492579e+01   2.406233e+02
  -1.033608e+02   1.696698e+02
  -1.318220e+02   3.408185e+01
  -7.420979e+01  -4.414401e+01
  -3.543505e+01  -2.696033e+01
  -6.196504e+01   1.679602e+01
  -9.503187e+01   8.550886e+00
  -5.952255e+01  -5.896175e+01
   4.139759e+01  -1.104153e+02
   1.249556e+02  -7.419299e+01
   1.106112e+02   3.852871e+01
  -1.148509e+01   1.316645e+02
  -1.624996e+02   9.893374e+01
  -2.137246e+02  -5.989550e+01
  -9.514780e+01  -2.190464e+02
   1.239069e+02  -2.341909e+02
   2.779992e+02  -8.848611e+01
   2.573636e+02   9.253576e+01
   1.052383e+02   1.761040e+02
  -4.047681e+01   1.435478e+02
  -9.133306e+01   8.353468e+01
  -7.198414e+01   7.436860e+01
  -6.117537e+01   1.009756e+02
  -9.475012e+01   8.591443e+01
  -1.386082e+02  -1.698587e+01
  -1.277774e+02  -1.605300e+02
  -3.223908e+01  -2.386099e+02
   1.021430e+02  -1.796046e+02
   1.801641e+02  -1.766828e+01
   1.385300e+02   1.298627e+02
   1.649896e+01   1.643566e+02
  -7.500429e+01   8.860472e+01
  -6.558906e+01  -1.000765e+01
   7.103614e-01  -5.385051e+01
   2.373114e+01  -3.938279e+01
  -3.047279e+01  -1.511443e+01
  -8.696954e+01  -1.830152e+01
  -5.058807e+01  -3.975915e+01
   7.580933e+01  -4.256713e+01
   1.804579e+02  -3.162459e+00
   1.531496e+02   6.154131e+01
   4.758263e+00   1.030546e+02
  -1.367799e+02   8.237455e+01
  -1.525455e+02   1.106033e+01
  -4.871798e+01  -5.001823e+01
   6.109664e+01  -4.500980e+01
   8.037739e+01   1.899294e+01
   1.740045e+01   7.557272e+01
  -5.019433e+01   6.639068e+01
  -7.105486e+01   1.178639e+00
  -5.831587e+01  -5.162401e+01
  -4.993003e+01  -4.266695e+01
  -6.013167e+01   9.115602e-02
  -7.009221e+01  -3.151653e-02
  -4.817482e+01  -7.526232e+01
   2.495816e+01  -1.615223e+02
   1.262542e+02  -1.578092e+02
   1.862345e+02  -4.184721e+01
   1.393929e+02   9.448642e+01
   8.368714e+00   1.384656e+02
  -9.230870e+01   7.397075e+01
  -6.382510e+01  -1.001683e+01
   6.143870e+01  -2.226088e+01
   1.417809e+02   4.135503e+01
   7.696882e+01   1.104574e+02
  -8.495375e+01   1.178413e+02
  -1.976763e+02   5.324077e+01
  -1.662566e+02  -3.732505e+01
  -3.602107e+01  -8.984732e+01
   6.429562e+01  -6.908474e+01
   5.063896e+01  -2.389988e+00
  -4.034796e+01   3.333389e+01
  -9.606952e+01  -1.800791e+01
  -4.286471e+01  -1.208107e+02
   8.016175e+01  -1.652750e+02
   1.634368e+02  -7.632353e+01
   1.342591e+02   9.390367e+01
   2.162049e+01   2.006974e+02
  -8.228697e+01   1.488309e+02
  -1.095835e+02  -8.635043e+00
  -6.238039e+01  -1.236861e+02
   8.793458e+00  -1.091609e+02
   5.293656e+01  -1.918081e+01
   4.980202e+01   3.129212e+01
   1.975165e+01   7.758158e+00
   5.839034e+00  -1.883458e+01
   3.145764e+01   1.983012e+01
   6.318644e+01   9.167137e+01
   3.840223e+01   1.098815e+02
  -5.567874e+01   4.672590e+01
  -1.426798e+02  -3.543828e+01
  -1.306618e+02  -6.882735e+01
  -2.017852e+01  -5.272428e+01
   8.395592e+01  -2.675537e+01
   8.859114e+01  -8.536613e+00
   1.537171e+01   9.073846e+00
  -3.693416e+01   2.171787e+01
  -1.811971e+01   1.431699e+01
   1.784277e+01  -4.211505e+00
  -3.515802e+00  -7.061625e+00
  -7.162790e+01   1.126391e+00
  -9.731469e+01  -1.991075e+01
  -2.080601e+01  -8.238731e+01
   1.124544e+02  -1.252323e+02
   1.934509e+02  -7.439802e+01
   1.565049e+02   5.751463e+01
   3.556155e+01   1.663032e+02
  -7.842643e+01   1.641718e+02
  -1.173997e+02   7.038583e+01
  -8.359054e+01  -1.896619e+01
  -2.867670e+01  -3.812069e+01
  -2.914671e+00  -1.116392e+01
  -1.539419e+01  -6.570315e+00
  -3.529884e+01  -5.062921e+01
  -2.359476e+01  -9.645308e+01
   2.830164e+01  -7.698694e+01
   8.379555e+01   1.382784e+01
   8.712793e+01   1.045594e+02
   1.686424e+01   1.139692e+02
  -7.852232e+01   3.330016e+01
  -1.119309e+02  -6.625165e+01
  -4.431813e+01  -1.055181e+02
   6.413886e+01  -6.768130e+01
   1.071920e+02   4.119950e+00
   4.921784e+01   5.618443e+01
  -3.202077e+01   6.297976e+01
  -3.829599e+01   3.182216e+01
   2.880874e+01  -5.912712e+00
   7.116166e+01  -1.136988e+01
   1.911619e+01   2.734937e+01
  -7.999007e+01   7.139341e+01
  -1.234406e+02   6.129454e+01
  -7.265278e+01  -1.378354e+01
   1.214874e+01  -8.891911e+01
   5.561888e+01  -8.834506e+01
   4.253998e+01  -1.404728e+01
   6.730737e+00   5.379596e+01
  -2.265113e+01   4.838230e+01
  -3.647123e+01  -1.269907e+01
  -2.985183e+01  -5.538630e+01
  -4.157525e-01  -3.897690e+01
   3.439526e+01   5.227954e+00
   4.463801e+01   2.288057e+01
   2.312125e+01   1.604961e+00
  -3.082886e+00  -1.978932e+01
  -6.801730e+00  -5.094719e+00
   3.572249e+00   3.517014e+01
  -1.543491e+00   5.334308e+01
  -2.733232e+01   2.052902e+01
  -4.134898e+01  -3.627813e+01
  -1.226378e+01  -6.044185e+01
   4.220428e+01  -2.599533e+01
   6.521470e+01   3.384596e+01
   2.084258e+01   6.305418e+01
  -5.892528e+01   3.989650e+01
  -9.811815e+01  -8.955633e+00
  -5.491912e+01  -4.407308e+01
   2.827068e+01  -4.877532e+01
   6.706577e+01  -3.148810e+01
   2.877302e+01  -8.963428e+00
  -3.127677e+01   1.961019e+00
  -3.499481e+01  -8.616751e+00
   2.676299e+01  -2.891443e+01
   8.479913e+01  -2.378141e+01
