
 $NMID
 id='ANONYMOUS ', fmtdat='(2E16.6)'
 volume=1.0
 tramp=1.0
 $END
   4.012367e+03   1.065565e+01
   2.521650e+03   2.710917e+03
  -7.305194e+02   2.855086e+03
  -2.198046e+03   8.445997e+02
  -8.879141e+02  -6.431010e+02
   5.777705e+02  -4.651903e+02
   8.707128e+02   5.039463e+02
  -4.848803e+01   1.207511e+03
  -7.655717e+02   7.064424e+02
  -9.591308e+02  -1.318161e+02
  -3.964863e+02  -9.144816e+02
   2.507948e+02  -8.552968e+02
   6.606286e+02  -1.252676e+02
   3.496886e+02   7.060167e+02
  -3.384982e+02   7.284698e+02
  -5.710326e+02  -2.339872e+01
  -2.205546e+02  -6.210671e+02
   3.204316e+02  -5.992201e+02
   5.508170e+02  -5.455186e+01
   3.508663e+02   3.708898e+02
   4.450834e+01   4.283252e+02
  -2.371521e+02   2.888739e+02
  -2.326564e+02   6.284210e+01
   9.078225e+01  -1.037205e+02
   3.690123e+02   4.198806e+01
   2.241163e+02   4.136617e+02
  -4.331828e+02   4.463886e+02
  -8.486810e+02  -2.301664e+01
  -4.748039e+02  -5.373335e+02
   3.872480e+02  -5.310708e+02
   7.740667e+02   1.740565e+01
   3.647103e+02   4.758161e+02
  -2.765451e+02   5.661344e+02
  -5.686768e+02   2.195642e+02
  -4.115019e+02  -2.294708e+02
  -8.989006e+01  -4.982200e+02
   2.146893e+02  -2.796121e+02
   2.023706e+02   2.391330e+02
  -1.417131e+02   4.651686e+02
  -4.796639e+02   2.013190e+01
  -2.942426e+02  -6.774599e+02
   2.871026e+02  -7.214167e+02
   6.126826e+02  -1.355088e+01
   2.881406e+02   5.593544e+02
  -2.856529e+02   3.231348e+02
  -3.980910e+02  -3.155581e+02
   4.556950e+01  -5.391982e+02
   5.383966e+02  -1.490165e+02
   5.921874e+02   3.879629e+02
   1.713351e+02   5.831751e+02
  -3.799050e+02   3.623837e+02
  -6.347366e+02  -5.701411e+01
  -3.824761e+02  -3.813688e+02
   1.554715e+02  -3.761149e+02
   4.446101e+02  -6.480762e+01
   2.349196e+02   1.969034e+02
  -1.294268e+02   1.134423e+02
  -1.476732e+02  -1.498734e+02
   1.649059e+02  -1.835229e+02
   3.418602e+02   7.739678e+01
   1.345319e+02   2.951612e+02
  -1.983660e+02   2.452924e+02
  -3.124605e+02   6.585333e+01
  -1.869898e+02  -7.033344e+01
   9.220951e+00  -1.963418e+02
   1.903379e+02  -3.154597e+02
   3.205537e+02  -2.339772e+02
   2.949910e+02   1.209410e+02
   8.348144e+01   4.395517e+02
  -1.260910e+02   3.899704e+02
  -1.373250e+02   9.539101e+01
  -2.432917e+01  -4.527796e+01
  -2.024027e+01   6.900481e+01
  -1.717682e+02   1.450619e+02
  -2.748261e+02  -2.300851e+01
  -1.743544e+02  -2.556319e+02
   5.832540e+01  -2.657166e+02
   2.266695e+02  -2.757640e+01
   2.043838e+02   2.314557e+02
  -9.700561e-01   2.972124e+02
  -2.617365e+02   1.288455e+02
  -3.647655e+02  -1.585260e+02
  -1.921660e+02  -3.494021e+02
   9.757622e+01  -3.077966e+02
   2.290093e+02  -1.213415e+02
   1.493898e+02   1.106739e+00
   9.123556e+01  -3.122914e+01
   2.204603e+02  -7.583920e+01
   3.884048e+02   3.777126e+01
   3.363817e+02   2.641791e+02
   2.042539e+01   4.304272e+02
  -3.271928e+02   4.162018e+02
  -4.681675e+02   2.187108e+02
  -3.399080e+02  -7.855992e+01
  -6.632406e+01  -2.923820e+02
   1.263428e+02  -2.588199e+02
   9.444668e+01  -2.704653e+01
  -1.031593e+02   1.206471e+02
  -2.017260e+02   2.155785e+00
  -5.990430e+01  -2.007372e+02
   1.633200e+02  -1.858098e+02
   1.896967e+02   5.728036e+01
  -8.457471e+00   2.032334e+02
  -1.879401e+02   4.780811e+01
  -1.623475e+02  -2.345523e+02
   2.214927e+01  -3.387128e+02
   2.121064e+02  -1.881351e+02
   3.079950e+02   5.741681e+01
   2.710563e+02   2.260058e+02
   1.011681e+02   2.525958e+02
  -1.075908e+02   1.571116e+02
  -1.799918e+02   1.994224e+01
  -6.067551e+01  -3.575804e+01
   7.472669e+01   3.340613e+01
   3.844903e+01   1.239621e+02
  -1.192301e+02   1.055328e+02
  -1.800534e+02  -5.623112e+00
  -6.017794e+01  -7.204004e+01
   8.140440e+01  -2.275372e+01
   6.030260e+01   6.595389e+01
  -1.138701e+02   8.935246e+01
  -2.718299e+02   1.499801e+01
  -2.613781e+02  -1.193942e+02
  -7.213406e+01  -2.425230e+02
   1.663481e+02  -2.649589e+02
   2.749947e+02  -1.390744e+02
   1.746176e+02   4.495248e+01
  -1.836585e+01   1.143776e+02
  -9.341809e+01   1.624604e+01
   2.338013e+01  -1.014284e+02
   1.896004e+02  -6.855196e+01
   2.160360e+02   9.298948e+01
   7.657930e+01   2.057824e+02
  -8.901956e+01   1.624767e+02
  -1.448369e+02   3.427029e+01
  -7.654178e+01  -4.176357e+01
   2.344527e+01  -9.250358e+00
   4.040221e+01   7.571976e+01
  -6.078283e+01   1.104323e+02
  -1.873786e+02   3.444042e+01
  -1.898066e+02  -1.142348e+02
  -2.754088e+01  -2.125124e+02
   1.583627e+02  -1.643541e+02
   1.932886e+02  -9.110572e+00
   6.854937e+01   1.142826e+02
  -6.443751e+01   1.143670e+02
  -8.408065e+01   3.397099e+01
  -2.119178e+01  -2.477202e+01
   2.001326e+01  -2.044023e+01
  -7.300887e+00   6.086622e+00
  -6.571618e+01  -4.102545e+00
  -8.745721e+01  -7.096980e+01
  -2.325235e+01  -1.480827e+02
   1.128933e+02  -1.516923e+02
   2.229319e+02  -3.616014e+01
   1.995997e+02   1.374300e+02
   4.632514e+01   2.311235e+02
  -1.018486e+02   1.685133e+02
  -1.293414e+02   2.829761e+01
  -6.856321e+01  -5.361790e+01
  -2.888095e+01  -3.273206e+01
  -5.370997e+01   1.423212e+01
  -7.698913e+01   8.207484e+00
  -4.135003e+01  -4.558121e+01
   3.663001e+01  -8.374268e+01
   9.141022e+01  -5.550567e+01
   7.875598e+01   2.762775e+01
  -7.679782e+00   1.008988e+02
  -1.288633e+02   8.273340e+01
  -1.884652e+02  -4.436727e+01
  -1.010874e+02  -1.915487e+02
   9.893966e+01  -2.233956e+02
   2.588373e+02  -9.692597e+01
   2.537771e+02   8.112668e+01
   1.106512e+02   1.728968e+02
  -3.597689e+01   1.458449e+02
  -9.155799e+01   8.466022e+01
  -7.722232e+01   7.032124e+01
  -6.532012e+01   9.050177e+01
  -8.995079e+01   7.393389e+01
  -1.252323e+02  -1.911995e+01
  -1.178566e+02  -1.473449e+02
  -3.538617e+01  -2.194040e+02
   9.036069e+01  -1.712485e+02
   1.702296e+02  -2.687972e+01
   1.372319e+02   1.122072e+02
   2.518695e+01   1.532799e+02
  -6.023581e+01   9.194968e+01
  -5.561259e+01   3.660906e+00
  -4.697501e+00  -3.956640e+01
   8.127307e+00  -3.246163e+01
  -3.652956e+01  -1.555132e+01
  -7.635250e+01  -1.851191e+01
  -4.321328e+01  -3.398952e+01
   5.877248e+01  -3.697711e+01
   1.491077e+02  -8.726143e+00
   1.386713e+02   4.319125e+01
   1.981835e+01   8.393308e+01
  -1.110161e+02   7.525029e+01
  -1.380535e+02   1.815646e+01
  -4.689774e+01  -3.626086e+01
   5.806856e+01  -3.497902e+01
   7.287940e+01   1.904399e+01
   5.773683e+00   6.655288e+01
  -5.592938e+01   5.614523e+01
  -6.138767e+01  -1.505111e+00
  -4.172211e+01  -4.673349e+01
  -4.218182e+01  -3.835074e+01
  -6.057747e+01  -5.479443e-01
  -6.516966e+01   1.160835e+00
  -3.598003e+01  -6.406116e+01
   2.661496e+01  -1.410955e+02
   1.051788e+02  -1.399111e+02
   1.544527e+02  -3.846814e+01
   1.210274e+02   8.185925e+01
   1.171157e+01   1.188242e+02
  -7.857998e+01   5.960061e+01
  -5.639751e+01  -1.376797e+01
   5.772502e+01  -2.056083e+01
   1.344459e+02   3.890917e+01
   7.639313e+01   1.015880e+02
  -7.431195e+01   1.115326e+02
  -1.821806e+02   5.750082e+01
  -1.579296e+02  -2.592863e+01
  -4.050290e+01  -8.249071e+01
   5.399522e+01  -7.175483e+01
   4.535859e+01  -1.117933e+01
  -3.599198e+01   2.529541e+01
  -8.620853e+01  -2.027754e+01
  -3.321248e+01  -1.135396e+02
   8.526166e+01  -1.497608e+02
   1.598518e+02  -6.278561e+01
   1.237889e+02   9.403712e+01
   1.423053e+01   1.886668e+02
  -7.843355e+01   1.399412e+02
  -1.003371e+02  -2.559488e+00
  -6.221371e+01  -1.097861e+02
  -3.329873e+00  -1.024095e+02
   4.233079e+01  -2.258953e+01
   5.191353e+01   2.719531e+01
   2.684071e+01   7.581063e+00
   3.276901e+00  -2.013718e+01
   1.912796e+01   1.245235e+01
   5.628886e+01   8.256351e+01
   4.565740e+01   1.047219e+02
  -4.184451e+01   4.599515e+01
  -1.338765e+02  -3.366483e+01
  -1.272820e+02  -6.407446e+01
  -1.774854e+01  -4.585352e+01
   8.475043e+01  -2.198168e+01
   8.388036e+01  -9.363959e+00
   8.398307e+00   6.031748e+00
  -3.789302e+01   2.223030e+01
  -1.225928e+01   1.855550e+01
   2.198510e+01  -1.888849e+00
  -5.623065e+00  -9.396003e+00
  -7.246022e+01  -2.478240e+00
  -8.822401e+01  -1.998919e+01
  -7.969259e+00  -7.566238e+01
   1.126732e+02  -1.116231e+02
   1.757531e+02  -5.963030e+01
   1.352356e+02   6.268984e+01
   2.728458e+01   1.558832e+02
  -7.205410e+01   1.453857e+02
  -1.076660e+02   5.752830e+01
  -7.791329e+01  -1.943315e+01
  -2.416531e+01  -3.268315e+01
   3.888148e+00  -7.125386e+00
  -9.317749e+00  -2.336143e+00
  -3.420273e+01  -4.198048e+01
  -2.615063e+01  -8.511602e+01
   2.529553e+01  -6.942641e+01
   7.838410e+01   1.574113e+01
   7.599813e+01   1.017993e+02
   5.269902e+00   1.065778e+02
  -7.874083e+01   2.294373e+01
  -9.871022e+01  -7.100815e+01
  -3.088036e+01  -9.752495e+01
   6.214757e+01  -5.269950e+01
   9.179862e+01   9.876633e+00
   3.709734e+01   4.595312e+01
  -2.946355e+01   4.847418e+01
  -2.745758e+01   2.734561e+01
   3.362586e+01  -9.969118e-01
   6.630026e+01  -8.345159e+00
   1.512591e+01   2.266430e+01
  -7.266038e+01   6.537646e+01
  -1.069068e+02   6.109419e+01
  -5.961080e+01  -6.839552e+00
   1.252833e+01  -7.732605e+01
   4.595733e+01  -7.540454e+01
   3.132550e+01  -5.305863e+00
   6.870630e-02   5.244940e+01
  -2.424265e+01   3.837637e+01
  -3.438293e+01  -1.968439e+01
  -2.530052e+01  -5.148857e+01
   2.610824e+00  -2.985160e+01
   3.180724e+01   8.643222e+00
   3.773471e+01   1.825852e+01
   1.936400e+01  -1.072158e+00
  -7.675998e-01  -1.358864e+01
  -5.869514e+00   4.366912e+00
  -5.949696e+00   3.604277e+01
  -1.617452e+01   4.235515e+01
  -3.152559e+01   6.470906e+00
  -2.898688e+01  -4.331567e+01
   2.416278e+00  -5.795591e+01
   4.296255e+01  -1.963132e+01
   5.421524e+01   3.714482e+01
   1.401109e+01   6.026372e+01
  -5.231879e+01   3.352314e+01
  -8.552914e+01  -1.310407e+01
  -4.823774e+01  -4.124000e+01
   2.634766e+01  -3.979570e+01
   6.148948e+01  -2.181139e+01
   2.279280e+01  -5.435384e+00
  -3.648349e+01  -2.374347e+00
  -3.675245e+01  -1.557361e+01
   2.940347e+01  -3.138200e+01
   8.769627e+01  -2.083850e+01
