
 $NMID
 id='ANONYMOUS ', fmtdat='(2E16.6)'
 volume=1.0
 tramp=1.0
 $END
   4.856677e+03   3.347013e+02
   2.634033e+03   2.801348e+03
  -8.447644e+02   3.108145e+03
  -2.409997e+03   1.104112e+03
  -1.090838e+03  -7.763121e+02
   6.396171e+02  -7.223278e+02
   1.048597e+03   3.950024e+02
   3.236596e+01   1.182375e+03
  -9.187804e+02   7.928656e+02
  -1.072699e+03  -8.394445e+01
  -5.654291e+02  -9.519485e+02
   1.405029e+02  -9.284271e+02
   7.360890e+02  -1.586322e+02
   5.341771e+02   8.053365e+02
  -2.343958e+02   8.014100e+02
  -6.596886e+02   4.851532e+01
  -2.794902e+02  -6.450161e+02
   3.415083e+02  -6.543462e+02
   6.175452e+02  -6.164184e+01
   4.295142e+02   3.438566e+02
   2.768859e+01   4.588944e+02
  -2.491822e+02   3.304803e+02
  -2.430645e+02   3.494710e+01
   6.284253e+01  -1.012554e+02
   4.024664e+02   4.636921e+01
   1.985785e+02   4.148730e+02
  -4.670093e+02   4.544307e+02
  -9.240167e+02  -3.130557e+01
  -4.888477e+02  -5.792838e+02
   4.093806e+02  -5.516854e+02
   8.172756e+02   1.090261e+01
   3.857417e+02   4.894726e+02
  -2.897570e+02   5.669740e+02
  -5.774465e+02   2.264597e+02
  -4.322753e+02  -2.213375e+02
  -9.830035e+01  -4.935656e+02
   1.891778e+02  -3.035286e+02
   2.015828e+02   2.244597e+02
  -1.638353e+02   4.566679e+02
  -4.787784e+02  -1.562723e+01
  -2.857765e+02  -7.135729e+02
   3.288137e+02  -7.345739e+02
   6.570738e+02   5.177453e-01
   2.880762e+02   6.087566e+02
  -3.287054e+02   3.631052e+02
  -4.427506e+02  -3.321699e+02
   5.332516e+01  -5.868668e+02
   5.765557e+02  -1.703877e+02
   6.136403e+02   4.049341e+02
   1.667894e+02   6.057505e+02
  -3.972652e+02   3.644802e+02
  -6.434212e+02  -7.467872e+01
  -3.775241e+02  -4.086213e+02
   1.713484e+02  -3.925118e+02
   4.668008e+02  -5.579690e+01
   2.471640e+02   2.278205e+02
  -1.420071e+02   1.336246e+02
  -1.684019e+02  -1.608935e+02
   1.689022e+02  -2.105032e+02
   3.684319e+02   6.704649e+01
   1.434499e+02   3.068795e+02
  -2.246530e+02   2.539716e+02
  -3.402128e+02   5.409275e+01
  -1.807397e+02  -9.216727e+01
   3.854007e+01  -2.127888e+02
   2.132751e+02  -3.251000e+02
   3.310598e+02  -2.407947e+02
   3.052976e+02   1.186254e+02
   9.497134e+01   4.466525e+02
  -1.226502e+02   4.040087e+02
  -1.399407e+02   1.067811e+02
  -2.471357e+01  -4.117463e+01
  -2.001625e+01   6.566095e+01
  -1.725372e+02   1.357514e+02
  -2.725225e+02  -3.573413e+01
  -1.659670e+02  -2.624064e+02
   6.498254e+01  -2.597597e+02
   2.253925e+02  -1.249426e+01
   2.021751e+02   2.403505e+02
  -8.256409e-01   2.983923e+02
  -2.633002e+02   1.221166e+02
  -3.724844e+02  -1.685640e+02
  -1.964338e+02  -3.606242e+02
   1.078418e+02  -3.202201e+02
   2.487815e+02  -1.191941e+02
   1.636969e+02   1.291899e+01
   9.066266e+01  -2.082447e+01
   2.167631e+02  -6.148586e+01
   3.876456e+02   5.035771e+01
   3.298068e+02   2.792323e+02
   6.336028e+00   4.383040e+02
  -3.475318e+02   4.177972e+02
  -4.853433e+02   2.134932e+02
  -3.495227e+02  -8.301602e+01
  -6.938695e+01  -3.002834e+02
   1.298265e+02  -2.670298e+02
   9.724510e+01  -3.095408e+01
  -1.040381e+02   1.219001e+02
  -2.102388e+02   6.974544e+00
  -6.882840e+01  -2.007873e+02
   1.592924e+02  -1.862228e+02
   1.900899e+02   5.375502e+01
  -1.001609e+01   1.983154e+02
  -1.962513e+02   3.626939e+01
  -1.690346e+02  -2.490095e+02
   2.607199e+01  -3.487208e+02
   2.249024e+02  -1.899587e+02
   3.262487e+02   5.799614e+01
   2.890950e+02   2.272127e+02
   1.103266e+02   2.597782e+02
  -1.087313e+02   1.697841e+02
  -1.875840e+02   3.212285e+01
  -6.907065e+01  -3.193053e+01
   7.220464e+01   3.301686e+01
   3.927143e+01   1.273193e+02
  -1.202079e+02   1.091099e+02
  -1.836241e+02  -6.991163e+00
  -6.512462e+01  -7.568697e+01
   7.635809e+01  -2.314297e+01
   5.511466e+01   6.800525e+01
  -1.194668e+02   8.522577e+01
  -2.747808e+02   3.475389e+00
  -2.594928e+02  -1.306116e+02
  -6.521875e+01  -2.487146e+02
   1.758516e+02  -2.659847e+02
   2.819474e+02  -1.378534e+02
   1.763682e+02   4.617824e+01
  -2.006744e+01   1.145714e+02
  -9.415219e+01   1.474543e+01
   2.746890e+01  -1.019979e+02
   1.957536e+02  -6.493233e+01
   2.194176e+02   9.729689e+01
   7.652936e+01   2.069653e+02
  -9.081700e+01   1.619362e+02
  -1.460316e+02   3.582972e+01
  -7.712823e+01  -3.717495e+01
   2.193609e+01  -6.020555e+00
   3.923582e+01   7.601081e+01
  -6.284921e+01   1.114339e+02
  -1.927136e+02   3.607482e+01
  -1.964065e+02  -1.160650e+02
  -3.067132e+01  -2.192582e+02
   1.614293e+02  -1.714485e+02
   1.984772e+02  -1.011672e+01
   7.019873e+01   1.170018e+02
  -6.620394e+01   1.152408e+02
  -8.581865e+01   3.260898e+01
  -2.246951e+01  -2.719096e+01
   1.789812e+01  -2.306462e+01
  -8.747345e+00   8.536315e-01
  -6.305007e+01  -1.367046e+01
  -7.992735e+01  -7.747904e+01
  -1.429803e+01  -1.482370e+02
   1.196013e+02  -1.469661e+02
   2.293281e+02  -2.967653e+01
   2.035278e+02   1.447080e+02
   4.378740e+01   2.384481e+02
  -1.116865e+02   1.751299e+02
  -1.398021e+02   2.805231e+01
  -7.224814e+01  -6.070196e+01
  -2.641526e+01  -4.081640e+01
  -4.958638e+01   9.553922e+00
  -7.428461e+01   7.129516e+00
  -3.700956e+01  -4.604007e+01
   4.231145e+01  -8.181980e+01
   9.597123e+01  -5.059215e+01
   7.850869e+01   3.647153e+01
  -1.245371e+01   1.075229e+02
  -1.354271e+02   8.583796e+01
  -1.954028e+02  -4.704236e+01
  -1.085055e+02  -1.992681e+02
   9.699884e+01  -2.335660e+02
   2.658567e+02  -1.050505e+02
   2.650836e+02   8.078407e+01
   1.179664e+02   1.777211e+02
  -3.490370e+01   1.515324e+02
  -9.466269e+01   8.681587e+01
  -8.053567e+01   6.867129e+01
  -6.684239e+01   8.935127e+01
  -9.068122e+01   7.360844e+01
  -1.257060e+02  -1.992937e+01
  -1.166800e+02  -1.501188e+02
  -3.116635e+01  -2.225080e+02
   9.660728e+01  -1.715222e+02
   1.751471e+02  -2.229765e+01
   1.376844e+02   1.198148e+02
   2.063600e+01   1.588909e+02
  -6.722951e+01   9.328950e+01
  -6.186410e+01   3.394508e+00
  -8.417450e+00  -3.997791e+01
   7.210633e+00  -3.494713e+01
  -3.575495e+01  -2.248926e+01
  -7.434251e+01  -2.671573e+01
  -4.018178e+01  -3.746581e+01
   6.219986e+01  -3.221787e+01
   1.513863e+02  -6.516882e-03
   1.386540e+02   4.947564e+01
   1.633489e+01   8.491815e+01
  -1.173018e+02   7.285958e+01
  -1.442440e+02   1.502782e+01
  -4.982367e+01  -4.001584e+01
   5.898234e+01  -3.939955e+01
   7.560095e+01   1.546839e+01
   7.323599e+00   6.587757e+01
  -5.547154e+01   5.723756e+01
  -6.062250e+01  -1.026554e+00
  -4.036139e+01  -4.914965e+01
  -4.149708e+01  -4.220803e+01
  -6.094086e+01  -3.826158e+00
  -6.467085e+01  -1.114417e+00
  -3.177644e+01  -6.494810e+01
   3.405678e+01  -1.399561e+02
   1.123940e+02  -1.355216e+02
   1.574079e+02  -3.113341e+01
   1.191229e+02   8.906255e+01
   7.279174e+00   1.223603e+02
  -8.432451e+01   5.903131e+01
  -6.084417e+01  -1.543426e+01
   5.555650e+01  -2.046772e+01
   1.347567e+02   4.055704e+01
   7.684272e+01   1.024942e+02
  -7.585228e+01   1.089647e+02
  -1.851825e+02   5.225117e+01
  -1.592215e+02  -3.090256e+01
  -3.756528e+01  -8.416129e+01
   5.862033e+01  -6.949157e+01
   4.739199e+01  -8.330257e+00
  -3.826440e+01   2.522234e+01
  -8.875369e+01  -2.322702e+01
  -3.117133e+01  -1.178524e+02
   9.253342e+01  -1.521076e+02
   1.676315e+02  -6.083017e+01
   1.258925e+02   9.978397e+01
   9.798294e+00   1.953820e+02
  -8.414632e+01   1.435909e+02
  -1.023088e+02  -4.565771e+00
  -6.062899e+01  -1.151269e+02
  -1.365878e+00  -1.054847e+02
   4.327578e+01  -2.107537e+01
   5.315658e+01   3.027269e+01
   2.884215e+01   8.519371e+00
   4.056358e+00  -2.046555e+01
   1.727677e+01   1.462644e+01
   5.326584e+01   8.799810e+01
   4.300502e+01   1.089654e+02
  -4.458062e+01   4.438112e+01
  -1.374744e+02  -4.069579e+01
  -1.303978e+02  -7.168733e+01
  -1.701771e+01  -4.954986e+01
   8.920819e+01  -2.172534e+01
   8.879142e+01  -8.044739e+00
   1.019919e+01   6.563047e+00
  -3.859434e+01   2.208018e+01
  -1.275844e+01   1.892519e+01
   2.244137e+01  -6.316045e-01
  -6.016901e+00  -8.998924e+00
  -7.453351e+01  -5.002411e+00
  -8.938141e+01  -2.496695e+01
  -4.881352e+00  -7.952096e+01
   1.200571e+02  -1.104407e+02
   1.828437e+02  -5.332627e+01
   1.363458e+02   7.029096e+01
   2.163779e+01   1.607311e+02
  -8.017314e+01   1.461343e+02
  -1.134635e+02   5.520023e+01
  -7.978507e+01  -2.323361e+01
  -2.427476e+01  -3.662111e+01
   4.013304e+00  -9.829154e+00
  -8.586787e+00  -4.014705e+00
  -3.133712e+01  -4.403354e+01
  -2.151417e+01  -8.759505e+01
   2.960521e+01  -6.971870e+01
   8.008081e+01   1.981112e+01
   7.403611e+01   1.090289e+02
   6.254566e-01   1.110593e+02
  -8.359754e+01   2.051542e+01
  -1.006098e+02  -7.792469e+01
  -2.876701e+01  -1.022320e+02
   6.691796e+01  -5.191949e+01
   9.491891e+01   1.345393e+01
   3.637754e+01   4.799382e+01
  -3.236506e+01   4.807829e+01
  -2.886586e+01   2.773635e+01
   3.488081e+01   1.915968e+00
   6.744861e+01  -5.078752e+00
   1.269715e+01   2.348452e+01
  -7.872773e+01   6.298194e+01
  -1.124476e+02   5.660643e+01
  -6.043425e+01  -1.198291e+01
   1.749149e+01  -8.130373e+01
   5.298420e+01  -7.684600e+01
   3.591864e+01  -3.258921e+00
   1.308687e-01   5.679263e+01
  -2.669815e+01   4.194859e+01
  -3.660389e+01  -1.918571e+01
  -2.599191e+01  -5.354978e+01
   3.391502e+00  -3.180421e+01
   3.283240e+01   8.398431e+00
   3.889445e+01   1.985300e+01
   2.092300e+01   1.089829e+00
   4.046838e-01  -1.187675e+01
  -6.984682e+00   5.441661e+00
  -9.870346e+00   3.666395e+01
  -2.061757e+01   4.215264e+01
  -3.281645e+01   4.116902e+00
  -2.639974e+01  -4.713882e+01
   6.393124e+00  -6.066317e+01
   4.493583e+01  -1.876192e+01
   5.346011e+01   4.078357e+01
   1.250662e+01   6.266864e+01
  -5.333939e+01   3.199769e+01
  -8.577348e+01  -1.694595e+01
  -4.739390e+01  -4.328709e+01
   2.857907e+01  -3.820115e+01
   6.390236e+01  -1.931389e+01
   2.322988e+01  -4.966828e+00
  -3.818237e+01  -3.957207e+00
  -3.764181e+01  -1.707319e+01
   3.197397e+01  -3.078377e+01
   9.231080e+01  -1.786491e+01
