
 $NMID
 id='ANONYMOUS ', fmtdat='(2E16.6)'
 volume=1.0
 tramp=1.0
 $END
   2.797418e+03  -5.089603e+01
   1.848082e+03   1.474929e+03
  -4.034295e+01   1.904380e+03
  -1.330411e+03   1.196592e+03
  -8.742753e+02   8.460641e+01
  -1.525264e+02  -2.109612e+02
   3.871773e+02   1.152710e+00
   1.004283e+02   5.583737e+02
  -3.894382e+02   5.967758e+02
  -6.088703e+02   1.601152e+02
  -4.318434e+02  -4.439525e+02
  -3.513939e+01  -5.856173e+02
   2.979173e+02  -1.629005e+02
   2.624673e+02   3.943931e+02
  -1.256727e+02   4.763426e+02
  -4.237764e+02   9.267795e+01
  -3.299709e+02  -4.327002e+02
   1.020919e+02  -6.417357e+02
   4.437667e+02  -3.637160e+02
   4.368266e+02   1.238227e+02
   1.486566e+02   3.621383e+02
  -9.483766e+01   2.790964e+02
  -3.297799e+01   5.696438e+01
   1.778681e+02   1.173862e+02
   2.404592e+02   2.712221e+02
  -9.640000e+01   3.787078e+02
  -4.557527e+02   1.270049e+02
  -5.202129e+02  -2.239435e+02
  -1.418930e+02  -3.138258e+02
   3.335660e+02  -1.506454e+02
   4.791806e+02   1.635932e+02
   1.354688e+02   3.510070e+02
  -2.698863e+02   3.120062e+02
  -4.149086e+02   1.103473e+02
  -2.969283e+02  -1.291773e+02
  -1.026835e+02  -2.728340e+02
  -1.527984e+01  -1.501614e+02
  -8.836362e+01   5.451144e+01
  -1.958242e+02   6.415195e+01
  -1.528969e+02  -1.850567e+02
   2.950760e+01  -4.618916e+02
   2.316953e+02  -3.603861e+02
   2.514729e+02   3.603503e+00
   7.635044e+01   2.441250e+02
  -1.234123e+02   6.516666e+01
  -1.093582e+02  -2.838338e+02
   1.556936e+02  -3.497576e+02
   4.349907e+02  -1.666241e+01
   4.510503e+02   3.851553e+02
   1.323739e+02   4.786522e+02
  -2.898759e+02   2.362344e+02
  -4.797607e+02  -7.362458e+01
  -3.090939e+02  -2.223451e+02
   3.470631e+01  -1.861903e+02
   2.472388e+02  -7.885887e+01
   1.967775e+02  -4.416941e+00
   2.458136e+01   2.675897e-01
  -3.027168e+01  -3.292156e+01
   9.229721e+01  -3.673120e+01
   2.159673e+02   4.071618e+01
   1.331357e+02   1.727043e+02
  -1.400293e+02   2.430806e+02
  -3.539159e+02   1.426596e+02
  -2.807647e+02  -1.095954e+02
   3.993762e+01  -3.393915e+02
   3.361523e+02  -3.535634e+02
   3.796933e+02  -1.199853e+02
   2.035822e+02   1.820754e+02
   2.026611e+01   3.354887e+02
  -3.020467e+01   2.895704e+02
  -3.929490e+00   1.806476e+02
  -3.870517e+01   1.336172e+02
  -1.565215e+02   1.174464e+02
  -2.498836e+02   2.457311e+01
  -2.133619e+02  -1.436371e+02
  -6.266982e+01  -2.433096e+02
   9.895258e+01  -1.549664e+02
   1.707787e+02   6.748642e+01
   1.069076e+02   2.388447e+02
  -6.312689e+01   2.227381e+02
  -2.370694e+02   3.744632e+01
  -2.811073e+02  -1.770804e+02
  -1.512006e+02  -2.813643e+02
   4.663027e+01  -2.486136e+02
   1.523130e+02  -1.559071e+02
   1.462273e+02  -9.184691e+01
   1.599802e+02  -7.253719e+01
   2.878606e+02  -1.973489e+01
   4.015111e+02   1.160318e+02
   2.992871e+02   3.111618e+02
  -4.697928e+01   4.272532e+02
  -3.933291e+02   3.673593e+02
  -4.678012e+02   1.420548e+02
  -2.626724e+02  -1.123841e+02
  -6.525777e-01  -2.337047e+02
   8.712334e+01  -1.689025e+02
  -7.344551e+00  -3.781362e+01
  -1.187701e+02   1.150887e+01
  -1.073392e+02  -5.175011e+01
   6.449550e+00  -1.187983e+02
   1.045815e+02  -7.637491e+01
   8.415545e+01   4.972459e+01
  -3.635962e+01   1.047837e+02
  -1.458349e+02  -1.573314e+01
  -1.357736e+02  -2.254771e+02
   2.697081e+01  -3.275607e+02
   2.427559e+02  -2.022027e+02
   3.560098e+02   6.486866e+01
   2.673538e+02   2.684098e+02
   4.430493e+01   2.731520e+02
  -1.316908e+02   1.274700e+02
  -1.358713e+02  -3.353909e+00
  -2.197264e+01  -7.956295e+00
   4.635048e+01   7.047414e+01
  -1.595810e+01   1.099392e+02
  -1.236397e+02   5.148904e+01
  -1.324103e+02  -3.517543e+01
  -1.949058e+01  -4.770437e+01
   8.205046e+01   2.706625e+01
   2.959577e+01   1.013309e+02
  -1.574451e+02   8.334739e+01
  -3.030706e+02  -3.608385e+01
  -2.463500e+02  -1.835057e+02
  -1.017593e+01  -2.609488e+02
   2.155664e+02  -2.157193e+02
   2.574227e+02  -7.912233e+01
   1.192834e+02   4.404565e+01
  -3.405771e+01   6.167528e+01
  -5.024572e+01  -1.473749e+01
   6.780143e+01  -7.191975e+01
   1.831118e+02  -1.775114e+01
   1.727730e+02   1.091448e+02
   4.290979e+01   1.797579e+02
  -8.903783e+01   1.230465e+02
  -1.141341e+02   9.022751e+00
  -3.341384e+01  -3.494309e+01
   4.659196e+01   3.195944e+01
   1.927625e+01   1.222164e+02
  -1.094040e+02   1.204923e+02
  -2.149379e+02   2.667949e+00
  -1.748382e+02  -1.449538e+02
  -3.673765e+00  -2.070634e+02
   1.530000e+02  -1.410616e+02
   1.653706e+02  -6.721819e+00
   4.969799e+01   8.956289e+01
  -6.054572e+01   8.664568e+01
  -6.548625e+01   1.904448e+01
   4.735141e+00  -2.627186e+01
   4.229258e+01  -6.451085e+00
  -8.574163e+00   3.090487e+01
  -9.491372e+01   3.889182e+00
  -1.087911e+02  -9.648998e+01
  -4.367835e+00  -1.821454e+02
   1.537824e+02  -1.493060e+02
   2.405758e+02   3.026774e+00
   1.823830e+02   1.670193e+02
   2.773342e+01   2.237661e+02
  -1.021603e+02   1.492471e+02
  -1.254931e+02   2.732197e+01
  -7.328059e+01  -3.973235e+01
  -3.484658e+01  -2.613940e+01
  -5.501478e+01   1.229664e+01
  -8.855837e+01   4.167411e+00
  -6.081590e+01  -5.966100e+01
   3.969116e+01  -1.099524e+02
   1.295054e+02  -6.982020e+01
   1.128451e+02   4.883862e+01
  -2.113048e+01   1.369105e+02
  -1.749316e+02   9.014335e+01
  -2.091655e+02  -7.506638e+01
  -7.689688e+01  -2.212336e+02
   1.357536e+02  -2.189581e+02
   2.696232e+02  -7.157995e+01
   2.378510e+02   9.681041e+01
   9.114883e+01   1.674179e+02
  -4.327305e+01   1.328826e+02
  -8.697811e+01   7.600217e+01
  -6.608887e+01   6.770849e+01
  -5.578183e+01   9.354099e+01
  -8.991355e+01   7.903709e+01
  -1.314990e+02  -1.881222e+01
  -1.155326e+02  -1.535096e+02
  -1.988053e+01  -2.227250e+02
   1.037627e+02  -1.600588e+02
   1.661455e+02  -3.538020e+00
   1.171001e+02   1.314670e+02
  -3.451719e-02   1.543581e+02
  -8.154477e+01   7.385897e+01
  -6.459728e+01  -2.227881e+01
   7.185492e+00  -5.909455e+01
   3.306729e+01  -3.787840e+01
  -2.272500e+01  -1.264394e+01
  -8.412293e+01  -2.024525e+01
  -4.935211e+01  -4.322851e+01
   7.883967e+01  -3.910781e+01
   1.809244e+02   9.271478e+00
   1.449939e+02   7.255647e+01
  -7.730097e+00   1.018868e+02
  -1.418865e+02   7.047806e+01
  -1.471738e+02  -6.995146e-01
  -4.229827e+01  -5.549482e+01
   6.212519e+01  -4.665724e+01
   8.111797e+01   1.826298e+01
   2.410185e+01   7.740966e+01
  -4.270480e+01   7.106712e+01
  -7.109069e+01   5.335030e+00
  -6.315906e+01  -5.125317e+01
  -5.059874e+01  -4.526316e+01
  -5.420698e+01  -2.987072e+00
  -6.425581e+01  -2.225335e+00
  -4.551846e+01  -7.462309e+01
   2.822464e+01  -1.543284e+02
   1.308597e+02  -1.444018e+02
   1.853992e+02  -2.919155e+01
   1.302330e+02   9.935643e+01
  -2.144152e+00   1.353832e+02
  -9.588169e+01   6.979868e+01
  -6.318139e+01  -1.096980e+01
   5.639788e+01  -2.023025e+01
   1.291280e+02   4.300396e+01
   6.539912e+01   1.059403e+02
  -8.518029e+01   1.037769e+02
  -1.855638e+02   3.446833e+01
  -1.494005e+02  -4.798971e+01
  -2.340241e+01  -8.348169e+01
   6.805060e+01  -5.247144e+01
   4.847072e+01   8.757056e+00
  -4.221487e+01   3.354400e+01
  -9.480633e+01  -1.927728e+01
  -4.172898e+01  -1.146889e+02
   7.700302e+01  -1.547797e+02
   1.548672e+02  -7.116472e+01
   1.239204e+02   8.918691e+01
   1.396750e+01   1.893915e+02
  -8.301395e+01   1.361609e+02
  -1.011794e+02  -1.628640e+01
  -4.812615e+01  -1.218842e+02
   1.958905e+01  -9.977472e+01
   5.265863e+01  -1.015240e+01
   4.185387e+01   3.395265e+01
   1.499008e+01   7.130212e+00
   8.351856e+00  -1.613902e+01
   3.278997e+01   2.477962e+01
   5.416130e+01   9.193198e+01
   2.447192e+01   1.034723e+02
  -5.949586e+01   3.891601e+01
  -1.316397e+02  -4.013802e+01
  -1.163509e+02  -7.159798e+01
  -1.628767e+01  -5.436414e+01
   7.863736e+01  -2.411326e+01
   8.545733e+01  -1.475985e+00
   1.850285e+01   1.422626e+01
  -3.419144e+01   1.982156e+01
  -2.183515e+01   9.515195e+00
   1.282110e+01  -4.540896e+00
  -1.641357e+00  -3.552234e+00
  -6.378339e+01   2.338203e+00
  -9.273712e+01  -2.284229e+01
  -2.438113e+01  -8.277225e+01
   1.055572e+02  -1.184533e+02
   1.898915e+02  -6.579234e+01
   1.554967e+02   5.963954e+01
   3.241822e+01   1.605920e+02
  -8.334711e+01   1.565944e+02
  -1.197156e+02   6.584379e+01
  -8.221707e+01  -2.090122e+01
  -2.741117e+01  -4.093976e+01
  -3.218481e+00  -1.590183e+01
  -1.304958e+01  -1.040863e+01
  -2.722048e+01  -4.970931e+01
  -1.504432e+01  -8.986539e+01
   2.919314e+01  -7.008382e+01
   7.642529e+01   1.462748e+01
   7.944993e+01   9.899088e+01
   1.591606e+01   1.088792e+02
  -7.347377e+01   3.408653e+01
  -1.069273e+02  -6.245322e+01
  -4.221218e+01  -1.040097e+02
   6.413886e+01  -6.777102e+01
   1.068408e+02   6.553289e+00
   4.801540e+01   6.069894e+01
  -3.506514e+01   6.453703e+01
  -4.340164e+01   2.915360e+01
   2.304502e+01  -7.194315e+00
   6.740280e+01  -8.721866e+00
   1.888483e+01   2.768373e+01
  -7.826014e+01   6.319722e+01
  -1.220099e+02   4.908482e+01
  -7.238678e+01  -1.947508e+01
   1.410044e+01  -8.523958e+01
   6.095957e+01  -8.312952e+01
   4.856993e+01  -1.357666e+01
   9.311115e+00   5.283529e+01
  -2.425408e+01   5.135952e+01
  -3.918760e+01  -7.250622e+00
  -3.072849e+01  -5.446803e+01
  -2.227178e-02  -4.286216e+01
   3.382612e+01   3.335945e+00
   4.233802e+01   2.705160e+01
   1.985544e+01   6.178498e+00
  -5.514289e+00  -2.240207e+01
  -6.201920e+00  -1.325812e+01
   7.737422e+00   2.897904e+01
   4.048923e+00   5.395464e+01
  -2.442778e+01   2.616536e+01
  -4.292321e+01  -3.109020e+01
  -1.602911e+01  -5.810135e+01
   3.942417e+01  -2.641870e+01
   6.405108e+01   3.171723e+01
   2.039327e+01   5.961564e+01
  -5.777883e+01   3.682441e+01
  -9.434572e+01  -9.739593e+00
  -5.101532e+01  -4.247515e+01
   2.831552e+01  -4.645127e+01
   6.493782e+01  -3.007671e+01
   3.020177e+01  -7.502711e+00
  -2.544993e+01   5.257239e+00
  -3.205002e+01  -3.243981e+00
   2.051264e+01  -2.306092e+01
   7.321356e+01  -2.058826e+01
