
 $NMID
 id='ANONYMOUS ', fmtdat='(2E16.6)'
 volume=1.0
 tramp=1.0
 $END
  -3.195918e+03   1.388092e+02
  -2.487700e+03  -1.962018e+03
   5.751681e+01  -2.186011e+03
   1.392269e+03  -1.264870e+03
   1.087635e+03  -5.196646e+01
  -6.019740e+01   3.367338e+02
  -4.347271e+02  -2.850111e+02
  -9.597603e+01  -6.530930e+02
   4.938792e+02  -5.829359e+02
   6.248729e+02   4.478663e+01
   5.246430e+02   4.923952e+02
  -3.748636e+01   6.736467e+02
  -3.742675e+02   1.934177e+02
  -3.130688e+02  -4.907552e+02
   1.242355e+02  -5.907362e+02
   4.339354e+02  -8.725606e+01
   2.915489e+02   5.392334e+02
  -1.883506e+02   5.775226e+02
  -4.795449e+02   2.576586e+02
  -4.513281e+02  -1.902345e+02
  -1.110489e+02  -3.838944e+02
   1.129483e+02  -2.792863e+02
   1.002894e+02  -1.190632e+02
  -1.678050e+02  -3.308517e+01
  -2.894390e+02  -2.170573e+02
  -3.854413e+01  -3.903108e+02
   4.527519e+02  -2.166238e+02
   6.208935e+02   1.588567e+02
   2.779294e+02   3.959047e+02
  -3.340662e+02   2.407834e+02
  -5.581218e+02  -1.155000e+02
  -2.385195e+02  -3.849838e+02
   2.552052e+02  -3.938883e+02
   4.921265e+02  -1.501188e+02
   3.618054e+02   1.849764e+02
   1.085791e+02   3.467133e+02
  -8.465688e+01   2.071391e+02
  -4.115786e+01  -1.155180e+02
   1.489015e+02  -2.174214e+02
   2.708317e+02   1.101870e+02
   9.008511e+01   5.318416e+02
  -2.372438e+02   5.230470e+02
  -3.980582e+02   2.975657e+01
  -1.880586e+02  -3.621515e+02
   1.540977e+02  -2.096270e+02
   2.382746e+02   2.589886e+02
  -7.277805e+01   4.474341e+02
  -4.722765e+02   1.202599e+02
  -5.496345e+02  -3.445243e+02
  -1.953128e+02  -5.272872e+02
   3.144051e+02  -3.318309e+02
   5.671503e+02   2.265395e+01
   3.746589e+02   2.797175e+02
  -5.359050e+01   2.919243e+02
  -3.271370e+02   1.148318e+02
  -2.394817e+02  -5.549974e+01
   2.229136e+00  -5.687091e+01
   6.975832e+01   5.698386e+01
  -9.684996e+01   9.176583e+01
  -2.401918e+02  -3.740056e+01
  -1.338325e+02  -2.074386e+02
   1.466087e+02  -2.531657e+02
   3.314703e+02  -1.303882e+02
   2.559670e+02   9.482051e+01
  -1.386396e+01   3.115755e+02
  -2.805309e+02   3.749546e+02
  -3.768468e+02   1.829591e+02
  -2.678727e+02  -1.674198e+02
  -6.896053e+01  -4.012130e+02
   5.484985e+01  -3.510150e+02
   5.312650e+01  -1.577593e+02
   3.287346e+01  -7.114033e+01
   1.083427e+02  -1.142731e+02
   2.345977e+02  -9.211890e+01
   2.654152e+02   8.710809e+01
   1.285234e+02   2.601423e+02
  -7.870093e+01   2.205605e+02
  -2.059441e+02  -1.674244e+01
  -1.616267e+02  -2.368959e+02
   3.304855e+01  -2.619551e+02
   2.526307e+02  -8.351599e+01
   3.251280e+02   1.579365e+02
   1.841329e+02   3.085713e+02
  -5.398875e+01   2.892649e+02
  -1.810535e+02   1.627022e+02
  -1.597427e+02   6.838386e+01
  -1.483490e+02   5.490596e+01
  -2.711099e+02   4.618332e+01
  -4.144579e+02  -7.626287e+01
  -3.414302e+02  -2.883622e+02
  -3.086792e-02  -4.475008e+02
   3.657521e+02  -4.209427e+02
   4.841793e+02  -2.048811e+02
   3.062817e+02   8.387613e+01
   3.780071e+01   2.562688e+02
  -9.366360e+01   2.114486e+02
  -2.402411e+01   3.860428e+01
   1.173358e+02  -5.344411e+01
   1.506174e+02   3.280392e+01
   2.407851e+01   1.563875e+02
  -1.274963e+02   1.244834e+02
  -1.362239e+02  -5.444877e+01
   1.520793e+01  -1.528203e+02
   1.708047e+02  -1.822714e+01
   1.679633e+02   2.354547e+02
  -1.121177e+01   3.487010e+02
  -2.398510e+02   2.108052e+02
  -3.558632e+02  -6.115898e+01
  -2.788040e+02  -2.611946e+02
  -6.345698e+01  -2.752847e+02
   1.292335e+02  -1.437610e+02
   1.566782e+02  -5.309026e+00
   3.873774e+01   2.248574e+01
  -5.796400e+01  -5.388653e+01
  -6.661197e+00  -1.186796e+02
   1.232504e+02  -7.962499e+01
   1.576226e+02   1.931734e+01
   4.128864e+01   5.892922e+01
  -8.269278e+01  -3.995220e+00
  -4.595616e+01  -8.999851e+01
   1.431283e+02  -9.167582e+01
   3.028434e+02   1.445236e+01
   2.652604e+02   1.645449e+02
   3.808109e+01   2.638927e+02
  -2.026374e+02   2.426371e+02
  -2.736682e+02   1.054277e+02
  -1.465157e+02  -4.660122e+01
   2.851516e+01  -8.667487e+01
   7.298054e+01   1.379982e+00
  -4.558302e+01   8.868900e+01
  -1.886510e+02   4.435339e+01
  -1.995019e+02  -1.027606e+02
  -6.364797e+01  -1.968098e+02
   9.076826e+01  -1.449500e+02
   1.331762e+02  -1.911733e+01
   5.254430e+01   4.034969e+01
  -4.230395e+01  -1.535384e+01
  -3.250995e+01  -1.069945e+02
   9.220626e+01  -1.212250e+02
   2.111096e+02  -1.914490e+01
   1.876248e+02   1.316495e+02
   1.611099e+01   2.133651e+02
  -1.566314e+02   1.582856e+02
  -1.808225e+02   1.318987e+01
  -6.069213e+01  -9.932607e+01
   6.133531e+01  -1.005030e+02
   7.323272e+01  -2.529736e+01
   1.619980e+00   2.670252e+01
  -4.049320e+01   8.487065e+00
   5.119248e+00  -2.947949e+01
   8.989818e+01  -8.109819e+00
   1.133872e+02   8.766182e+01
   2.145500e+01   1.771621e+02
  -1.381555e+02   1.610703e+02
  -2.428251e+02   2.012523e+01
  -2.021543e+02  -1.536718e+02
  -4.394578e+01  -2.316434e+02
   9.987731e+01  -1.649631e+02
   1.303647e+02  -3.310443e+01
   7.321516e+01   4.391539e+01
   3.221961e+01   2.619118e+01
   5.669790e+01  -1.978461e+01
   9.187007e+01  -1.062462e+01
   5.972687e+01   5.700568e+01
  -3.844842e+01   1.100012e+02
  -1.215402e+02   7.324192e+01
  -1.067310e+02  -3.995134e+01
   1.487945e+01  -1.291614e+02
   1.598600e+02  -9.315295e+01
   2.062583e+02   6.067124e+01
   8.883748e+01   2.115980e+02
  -1.225068e+02   2.255012e+02
  -2.708279e+02   8.679870e+01
  -2.496047e+02  -8.906741e+01
  -1.002322e+02  -1.720731e+02
   4.211186e+01  -1.415732e+02
   9.073073e+01  -8.239808e+01
   6.970250e+01  -7.238550e+01
   5.715613e+01  -9.811677e+01
   9.061163e+01  -8.323556e+01
   1.360970e+02   1.657874e+01
   1.276394e+02   1.549209e+02
   3.581874e+01   2.297294e+02
  -9.557617e+01   1.732559e+02
  -1.721187e+02   1.915950e+01
  -1.333985e+02  -1.219301e+02
  -1.678771e+01  -1.556650e+02
   7.026715e+01  -8.396819e+01
   6.035581e+01   1.080243e+01
  -3.567442e+00   5.201506e+01
  -2.418041e+01   3.514164e+01
   3.117839e+01   1.034923e+01
   8.772177e+01   1.614759e+01
   5.153351e+01   4.069555e+01
  -7.413000e+01   4.379081e+01
  -1.771443e+02   3.229165e+00
  -1.491658e+02  -6.035415e+01
  -2.818222e+00  -9.911124e+01
   1.347392e+02  -7.764679e+01
   1.474214e+02  -9.247461e+00
   4.407804e+01   4.843894e+01
  -6.230402e+01   4.330402e+01
  -7.957967e+01  -1.897118e+01
  -1.723247e+01  -7.555751e+01
   4.912216e+01  -6.728056e+01
   7.045942e+01  -2.069678e+00
   5.844497e+01   5.194651e+01
   4.947474e+01   4.358635e+01
   5.755606e+01  -3.794115e-01
   6.637440e+01  -8.049065e-01
   4.578386e+01   7.344448e+01
  -2.434363e+01   1.580244e+02
  -1.239130e+02   1.531604e+02
  -1.827178e+02   3.864093e+01
  -1.365238e+02  -9.401697e+01
  -6.785978e+00  -1.360241e+02
   9.202033e+01  -7.241856e+01
   6.334081e+01   9.616436e+00
  -6.003303e+01   2.165556e+01
  -1.386239e+02  -4.014509e+01
  -7.506462e+01  -1.071517e+02
   8.296956e+01  -1.144037e+02
   1.915855e+02  -5.217596e+01
   1.612079e+02   3.481314e+01
   3.592249e+01   8.537862e+01
  -6.034175e+01   6.625430e+01
  -4.782330e+01   2.837547e+00
   3.898661e+01  -3.162067e+01
   9.309124e+01   1.676667e+01
   4.362123e+01   1.168323e+02
  -7.511447e+01   1.622387e+02
  -1.580584e+02   7.756763e+01
  -1.323276e+02  -8.965699e+01
  -2.377173e+01  -1.963287e+02
   7.861320e+01  -1.459069e+02
   1.067741e+02   8.570779e+00
   6.121280e+01   1.206531e+02
  -8.492939e+00   1.050142e+02
  -5.118328e+01   1.733952e+01
  -4.761776e+01  -2.985298e+01
  -1.821680e+01  -5.295748e+00
  -5.581427e+00   1.863135e+01
  -3.140840e+01  -2.074081e+01
  -6.232563e+01  -8.975375e+01
  -3.700173e+01  -1.048107e+02
   5.482674e+01  -4.348175e+01
   1.391254e+02   3.362011e+01
   1.261317e+02   6.519294e+01
   1.809346e+01   5.180840e+01
  -8.245298e+01   2.811729e+01
  -8.644465e+01   8.373416e+00
  -1.532603e+01  -1.178553e+01
   3.572782e+01  -2.352484e+01
   1.833835e+01  -1.317824e+01
  -1.634307e+01   6.132711e+00
   3.142087e+00   6.553718e+00
   6.851183e+01  -4.150275e+00
   9.499345e+01   1.809405e+01
   2.279609e+01   8.285373e+01
  -1.074449e+02   1.258212e+02
  -1.903268e+02   7.333002e+01
  -1.574976e+02  -5.838666e+01
  -3.788322e+01  -1.648376e+02
   7.750771e+01  -1.611935e+02
   1.180043e+02  -6.924054e+01
   8.377938e+01   1.770892e+01
   2.821171e+01   3.701444e+01
   2.352078e+00   1.217881e+01
   1.408097e+01   7.839535e+00
   3.343195e+01   4.913347e+01
   2.264212e+01   9.178125e+01
  -2.689526e+01   7.381946e+01
  -8.143474e+01  -1.236181e+01
  -8.631685e+01  -1.004782e+02
  -1.829276e+01  -1.122106e+02
   7.663394e+01  -3.588216e+01
   1.112424e+02   6.155968e+01
   4.437642e+01   1.024871e+02
  -6.304602e+01   6.691245e+01
  -1.047643e+02  -3.991122e+00
  -4.607639e+01  -5.592096e+01
   3.369557e+01  -6.190486e+01
   3.806239e+01  -2.984913e+01
  -2.920469e+01   7.512228e+00
  -7.046191e+01   1.108845e+01
  -1.936643e+01  -2.873361e+01
   7.782888e+01  -7.188809e+01
   1.205910e+02  -6.024877e+01
   7.293753e+01   1.448018e+01
  -8.927193e+00   8.715481e+01
  -5.321189e+01   8.579579e+01
  -4.326490e+01   1.351256e+01
  -8.362614e+00  -5.216325e+01
   2.240754e+01  -4.715432e+01
   3.757624e+01   1.139300e+01
   3.030389e+01   5.332002e+01
   2.152404e-01   3.893649e+01
  -3.354398e+01  -4.492855e+00
  -4.223369e+01  -2.268932e+01
  -2.073992e+01  -1.715083e+00
   3.628196e+00   2.107740e+01
   5.389641e+00   7.208411e+00
  -5.348098e+00  -3.443469e+01
   5.180176e-01  -5.418451e+01
   2.803206e+01  -2.122718e+01
   4.269928e+01   3.723731e+01
   1.351897e+01   6.206275e+01
  -4.265575e+01   2.679140e+01
  -6.690662e+01  -3.385725e+01
  -2.254257e+01  -6.282228e+01
   5.763842e+01  -3.971040e+01
   9.679379e+01   8.114535e+00
   5.401845e+01   4.238353e+01
  -2.794215e+01   4.750196e+01
  -6.583129e+01   3.053820e+01
  -2.803901e+01   6.702625e+00
   3.133509e+01  -5.423723e+00
   3.639669e+01   6.540269e+00
  -2.303211e+01   2.978854e+01
  -8.095150e+01   2.682362e+01
