
 $NMID
 id='ANONYMOUS ', fmtdat='(2E16.6)'
 volume=1.0
 tramp=1.0
 $END
  -4.297982e+03  -9.973625e+01
  -2.511704e+03  -2.776584e+03
   9.266853e+02  -2.914746e+03
   2.275270e+03  -6.889835e+02
   8.226616e+02   8.770097e+02
  -7.034817e+02   6.168096e+02
  -9.745180e+02  -3.127013e+02
  -1.763747e+01  -1.194266e+03
   8.416373e+02  -8.032254e+02
   9.546567e+02   1.611445e+02
   4.678848e+02   9.415259e+02
  -3.359790e+02   9.483826e+02
  -7.545937e+02   1.352198e+02
  -4.457242e+02  -7.565655e+02
   3.098410e+02  -7.800741e+02
   6.322142e+02   2.181305e+01
   2.933079e+02   7.142278e+02
  -3.133955e+02   6.474328e+02
  -5.766982e+02   1.016511e+02
  -3.890299e+02  -3.769594e+02
  -4.384978e+00  -4.233882e+02
   2.783648e+02  -2.644652e+02
   2.281316e+02   1.267355e+01
  -1.160801e+02   1.242444e+02
  -3.995810e+02  -7.867788e+01
  -2.293618e+02  -4.230837e+02
   4.293077e+02  -4.668426e+02
   8.787035e+02   4.692006e+01
   4.670916e+02   5.744121e+02
  -3.829220e+02   5.402994e+02
  -7.783433e+02   1.779641e+00
  -3.655010e+02  -4.780301e+02
   2.681121e+02  -5.292314e+02
   5.709795e+02  -2.198656e+02
   4.488172e+02   2.295328e+02
   8.631219e+01   4.887586e+02
  -2.166366e+02   2.931009e+02
  -2.199830e+02  -2.295567e+02
   1.362968e+02  -4.862942e+02
   4.804331e+02  -8.722282e+00
   3.017981e+02   7.049522e+02
  -3.225589e+02   7.522377e+02
  -6.480487e+02   3.609249e+01
  -3.006916e+02  -5.828147e+02
   2.985265e+02  -3.612171e+02
   4.138637e+02   3.078544e+02
  -5.360760e+01   5.614503e+02
  -5.734695e+02   1.481787e+02
  -6.161801e+02  -4.124178e+02
  -1.670843e+02  -6.049136e+02
   4.018397e+02  -3.606072e+02
   6.531010e+02   7.785004e+01
   3.822380e+02   4.090809e+02
  -1.746658e+02   3.926227e+02
  -4.813522e+02   5.332198e+01
  -2.593736e+02  -2.358084e+02
   1.429319e+02  -1.390494e+02
   1.784717e+02   1.690638e+02
  -1.642807e+02   2.233928e+02
  -3.770117e+02  -6.719454e+01
  -1.539765e+02  -3.232016e+02
   2.238004e+02  -2.714001e+02
   3.451028e+02  -5.903346e+01
   1.795434e+02   9.743046e+01
  -4.757287e+01   2.129691e+02
  -2.209451e+02   3.121019e+02
  -3.288221e+02   2.224469e+02
  -2.930915e+02  -1.306950e+02
  -7.946079e+01  -4.525164e+02
   1.336184e+02  -4.103057e+02
   1.457879e+02  -1.139424e+02
   3.191129e+01   3.955162e+01
   2.998291e+01  -5.893367e+01
   1.825110e+02  -1.255361e+02
   2.808096e+02   4.217742e+01
   1.685990e+02   2.653289e+02
  -6.627799e+01   2.639138e+02
  -2.297932e+02   2.393643e+01
  -2.071651e+02  -2.326117e+02
  -3.862819e+00  -3.003374e+02
   2.597111e+02  -1.327878e+02
   3.703624e+02   1.577692e+02
   2.045106e+02   3.617657e+02
  -9.272955e+01   3.238090e+02
  -2.339072e+02   1.256814e+02
  -1.603659e+02  -7.722660e+00
  -1.029498e+02   2.404951e+01
  -2.338563e+02   6.376090e+01
  -3.968072e+02  -5.627364e+01
  -3.248749e+02  -2.837980e+02
   6.793940e+00  -4.415193e+02
   3.604090e+02  -4.138444e+02
   4.873564e+02  -2.052918e+02
   3.444891e+02   8.974987e+01
   6.618320e+01   3.044774e+02
  -1.326403e+02   2.709761e+02
  -1.005334e+02   3.831442e+01
   9.592301e+01  -1.195256e+02
   2.043598e+02  -1.040685e+01
   6.484527e+01   1.978672e+02
  -1.636035e+02   1.856818e+02
  -1.949388e+02  -5.653709e+01
   7.422921e+00  -2.028302e+02
   1.993322e+02  -4.209451e+01
   1.715669e+02   2.487155e+02
  -2.827083e+01   3.553773e+02
  -2.270576e+02   1.950127e+02
  -3.231429e+02  -5.766653e+01
  -2.837765e+02  -2.285233e+02
  -1.109697e+02  -2.584880e+02
   1.014515e+02  -1.683001e+02
   1.798411e+02  -3.213428e+01
   6.610189e+01   3.059841e+01
  -7.123890e+01  -3.218269e+01
  -3.814123e+01  -1.240409e+02
   1.199785e+02  -1.081428e+02
   1.832258e+02   3.949300e+00
   6.564718e+01   7.210474e+01
  -7.572080e+01   2.314851e+01
  -5.718419e+01  -6.520093e+01
   1.146502e+02  -8.369212e+01
   2.704530e+02  -5.421180e+00
   2.595539e+02   1.269607e+02
   6.974971e+01   2.448409e+02
  -1.702005e+02   2.624733e+02
  -2.789298e+02   1.363153e+02
  -1.761559e+02  -4.516505e+01
   1.954405e+01  -1.125602e+02
   9.469490e+01  -1.315920e+01
  -2.643432e+01   1.034123e+02
  -1.956423e+02   6.737770e+01
  -2.204557e+02  -9.613501e+01
  -7.730089e+01  -2.088456e+02
   9.114270e+01  -1.650180e+02
   1.469588e+02  -3.697694e+01
   7.736949e+01   3.855353e+01
  -2.287937e+01   6.827386e+00
  -3.988678e+01  -7.703476e+01
   6.306907e+01  -1.122581e+02
   1.930746e+02  -3.584629e+01
   1.968810e+02   1.166081e+02
   3.106260e+01   2.188018e+02
  -1.606131e+02   1.698553e+02
  -1.973176e+02   9.682111e+00
  -6.988888e+01  -1.161422e+02
   6.551417e+01  -1.147947e+02
   8.545729e+01  -3.252414e+01
   2.360933e+01   2.589867e+01
  -1.506708e+01   2.228111e+01
   1.176582e+01  -8.089842e-01
   6.491393e+01   1.451658e+01
   8.002303e+01   8.014461e+01
   1.422574e+01   1.512382e+02
  -1.203164e+02   1.506719e+02
  -2.308686e+02   3.178312e+01
  -2.062106e+02  -1.441201e+02
  -4.798352e+01  -2.388935e+02
   1.093461e+02  -1.764356e+02
   1.414987e+02  -3.064295e+01
   7.597228e+01   5.806466e+01
   3.020711e+01   4.155346e+01
   5.079969e+01  -7.134536e+00
   7.424828e+01  -4.222547e+00
   3.501561e+01   4.671442e+01
  -4.444279e+01   8.010172e+01
  -9.705343e+01   5.024219e+01
  -7.929671e+01  -3.204419e+01
   1.228390e+01  -1.034228e+02
   1.336250e+02  -8.666312e+01
   1.928278e+02   4.107661e+01
   1.082614e+02   1.910685e+02
  -9.313979e+01   2.304527e+02
  -2.597722e+02   1.077392e+02
  -2.610038e+02  -7.587540e+01
  -1.178587e+02  -1.757113e+02
   3.318002e+01  -1.509711e+02
   9.371380e+01  -8.676895e+01
   8.112840e+01  -6.932000e+01
   6.800965e+01  -8.968019e+01
   9.130805e+01  -7.343263e+01
   1.252449e+02   2.124274e+01
   1.162308e+02   1.509256e+02
   3.153840e+01   2.227934e+02
  -9.556497e+01   1.725564e+02
  -1.745948e+02   2.479852e+01
  -1.386828e+02  -1.180363e+02
  -2.318484e+01  -1.602012e+02
   6.416383e+01  -9.684519e+01
   5.970300e+01  -5.997710e+00
   8.221389e+00   3.944881e+01
  -5.166133e+00   3.458811e+01
   3.909668e+01   2.080875e+01
   7.779640e+01   2.557730e+01
   4.219885e+01   3.901046e+01
  -6.258821e+01   3.624358e+01
  -1.542578e+02   2.975352e+00
  -1.429748e+02  -4.932594e+01
  -1.991887e+01  -8.637916e+01
   1.164438e+02  -7.461866e+01
   1.454066e+02  -1.690713e+01
   5.115836e+01   3.791282e+01
  -5.863819e+01   3.745405e+01
  -7.530843e+01  -1.709876e+01
  -6.464786e+00  -6.678213e+01
   5.665777e+01  -5.729952e+01
   6.153908e+01   2.125228e+00
   4.081854e+01   4.974958e+01
   4.235471e+01   4.157808e+01
   6.265281e+01   2.145824e+00
   6.616934e+01   6.945327e-01
   3.244319e+01   6.641281e+01
  -3.466741e+01   1.421434e+02
  -1.131887e+02   1.367723e+02
  -1.579610e+02   3.172624e+01
  -1.189561e+02  -8.856804e+01
  -6.794328e+00  -1.217626e+02
   8.407140e+01  -5.882763e+01
   6.027096e+01   1.551889e+01
  -5.642009e+01   2.086746e+01
  -1.359704e+02  -4.045924e+01
  -7.752887e+01  -1.033633e+02
   7.623965e+01  -1.095497e+02
   1.862529e+02  -5.173349e+01
   1.596634e+02   3.209704e+01
   3.640018e+01   8.423244e+01
  -6.084701e+01   6.780411e+01
  -4.866584e+01   6.125986e+00
   3.996383e+01  -2.662109e+01
   9.172661e+01   2.379419e+01
   3.269351e+01   1.189539e+02
  -9.286970e+01   1.528045e+02
  -1.683886e+02   6.077822e+01
  -1.250346e+02  -9.991381e+01
  -8.194359e+00  -1.950475e+02
   8.434978e+01  -1.425880e+02
   1.007229e+02   5.570946e+00
   5.887215e+01   1.151827e+02
   1.091272e+00   1.045702e+02
  -4.202547e+01   2.015610e+01
  -5.200249e+01  -3.060951e+01
  -2.851795e+01  -8.040174e+00
  -4.360915e+00   2.146556e+01
  -1.823829e+01  -1.398704e+01
  -5.454854e+01  -8.788460e+01
  -4.413692e+01  -1.097370e+02
   4.431390e+01  -4.570830e+01
   1.384861e+02   3.932565e+01
   1.314265e+02   7.087311e+01
   1.743036e+01   4.926853e+01
  -8.910916e+01   2.201667e+01
  -8.794431e+01   8.281208e+00
  -9.240167e+00  -6.397748e+00
   3.841056e+01  -2.218815e+01
   1.174199e+01  -1.877745e+01
  -2.255995e+01   1.255023e+00
   7.320721e+00   9.590384e+00
   7.576031e+01   4.358288e+00
   8.924412e+01   2.368777e+01
   4.379489e+00   7.944402e+01
  -1.194485e+02   1.127518e+02
  -1.819262e+02   5.644933e+01
  -1.375947e+02  -6.899449e+01
  -2.498905e+01  -1.615895e+02
   7.719529e+01  -1.476347e+02
   1.129837e+02  -5.647786e+01
   8.081842e+01   2.189258e+01
   2.476276e+01   3.480400e+01
  -4.342830e+00   8.469167e+00
   9.012855e+00   3.673538e+00
   3.348009e+01   4.431764e+01
   2.358600e+01   8.837457e+01
  -2.916576e+01   7.075358e+01
  -8.165351e+01  -1.873321e+01
  -7.596220e+01  -1.088425e+02
  -1.311166e+00  -1.122919e+02
   8.467491e+01  -2.210110e+01
   1.022476e+02   7.796140e+01
   2.946035e+01   1.039600e+02
  -6.728704e+01   5.359634e+01
  -9.568166e+01  -1.304369e+01
  -3.700458e+01  -4.873562e+01
   3.188359e+01  -4.852800e+01
   2.798975e+01  -2.709212e+01
  -3.609183e+01  -7.581341e-01
  -6.812338e+01   5.605808e+00
  -1.272752e+01  -2.460726e+01
   7.892314e+01  -6.505496e+01
   1.121752e+02  -5.833449e+01
   6.003721e+01   1.165795e+01
  -1.733994e+01   8.183836e+01
  -5.235178e+01   7.657997e+01
  -3.554120e+01   1.920173e+00
   1.748637e-01  -5.814735e+01
   2.760007e+01  -4.272141e+01
   3.803459e+01   1.964918e+01
   2.730369e+01   5.405928e+01
  -2.701644e+00   3.205990e+01
  -3.275285e+01  -8.285261e+00
  -3.844844e+01  -1.984323e+01
  -2.002841e+01  -3.217251e-01
  -3.551439e-02   1.317055e+01
   6.517397e+00  -4.645461e+00
   8.943827e+00  -3.697978e+01
   2.034156e+01  -4.303332e+01
   3.337319e+01  -5.143844e+00
   2.710917e+01   4.670931e+01
  -5.652404e+00   6.120042e+01
  -4.441177e+01   1.978061e+01
  -5.315485e+01  -3.984442e+01
  -1.284293e+01  -6.273281e+01
   5.303400e+01  -3.279446e+01
   8.553033e+01   1.625963e+01
   4.767133e+01   4.332014e+01
  -2.811993e+01   3.844366e+01
  -6.337209e+01   1.896433e+01
  -2.242718e+01   4.029355e+00
   3.926016e+01   3.603051e+00
   3.888513e+01   1.790673e+01
  -3.156485e+01   3.218712e+01
  -9.265690e+01   1.856578e+01
