
 $NMID
 id='ANONYMOUS ', fmtdat='(2E16.6)'
 volume=1.0
 tramp=1.0
 $END
   4.339809e+03   6.123091e+01
   2.705080e+03   2.693073e+03
  -1.050223e+03   2.979181e+03
  -2.130425e+03   7.876126e+02
  -9.632712e+02  -8.559644e+02
   7.715325e+02  -5.472539e+02
   9.360209e+02   3.575589e+02
   2.995479e+01   1.150117e+03
  -8.446514e+02   7.789643e+02
  -1.034645e+03  -1.419005e+02
  -4.659907e+02  -9.469080e+02
   2.416145e+02  -9.319180e+02
   7.582056e+02  -5.102985e+01
   4.167606e+02   8.313811e+02
  -2.464005e+02   8.180733e+02
  -6.614384e+02   2.450819e+01
  -2.777066e+02  -6.816551e+02
   2.835690e+02  -6.110074e+02
   5.831091e+02  -5.546972e+01
   3.431638e+02   3.814505e+02
  -6.778047e+01   4.440134e+02
  -2.970620e+02   2.396139e+02
  -2.122994e+02  -3.484141e+01
   1.582915e+02  -1.423985e+02
   4.461070e+02   1.122405e+02
   1.996846e+02   4.558115e+02
  -5.013792e+02   4.438535e+02
  -9.353761e+02  -6.413642e+01
  -4.213475e+02  -6.027759e+02
   4.484089e+02  -5.482519e+02
   8.040650e+02   2.259792e+01
   3.396534e+02   5.251050e+02
  -3.254635e+02   5.413380e+02
  -5.968489e+02   2.217924e+02
  -4.370374e+02  -2.233223e+02
  -5.665805e+01  -4.907528e+02
   2.203587e+02  -3.107471e+02
   1.982095e+02   2.499801e+02
  -1.748256e+02   4.962771e+02
  -4.986943e+02  -8.932668e+00
  -2.801332e+02  -7.348604e+02
   3.572400e+02  -7.591170e+02
   6.692475e+02   3.511846e+00
   2.750106e+02   6.300323e+02
  -3.326955e+02   3.599515e+02
  -4.259078e+02  -3.623539e+02
   8.068396e+01  -5.955350e+02
   6.190375e+02  -1.325224e+02
   6.329837e+02   4.666959e+02
   1.551317e+02   6.447394e+02
  -4.364098e+02   3.612715e+02
  -6.819324e+02  -1.085388e+02
  -3.862183e+02  -4.339271e+02
   1.923873e+02  -3.919541e+02
   4.908504e+02  -3.509681e+01
   2.472857e+02   2.357575e+02
  -1.582890e+02   1.133307e+02
  -1.688093e+02  -1.900530e+02
   1.909920e+02  -2.155756e+02
   3.916870e+02   9.063732e+01
   1.528722e+02   3.348366e+02
  -2.256498e+02   2.720840e+02
  -3.500455e+02   6.674027e+01
  -2.015230e+02  -8.341083e+01
   2.081203e+01  -2.124402e+02
   2.161245e+02  -3.267357e+02
   3.462960e+02  -2.318675e+02
   3.058469e+02   1.352180e+02
   7.347190e+01   4.561178e+02
  -1.428078e+02   4.036787e+02
  -1.401238e+02   1.093333e+02
  -1.712484e+01  -2.849454e+01
  -2.640534e+01   7.913030e+01
  -1.971275e+02   1.357260e+02
  -2.964319e+02  -5.123782e+01
  -1.689414e+02  -2.853313e+02
   8.355555e+01  -2.730976e+02
   2.473403e+02  -1.195936e+01
   2.131492e+02   2.527289e+02
  -7.291053e+00   3.095670e+02
  -2.724835e+02   1.255642e+02
  -3.740420e+02  -1.678435e+02
  -1.927733e+02  -3.630634e+02
   1.051714e+02  -3.183303e+02
   2.370059e+02  -1.188622e+02
   1.552747e+02   4.723165e+00
   9.965146e+01  -3.173151e+01
   2.375708e+02  -6.950915e+01
   4.094172e+02   5.934598e+01
   3.359927e+02   2.974769e+02
  -5.536632e+00   4.569319e+02
  -3.695549e+02   4.258135e+02
  -5.048558e+02   2.034383e+02
  -3.558395e+02  -9.863208e+01
  -6.078642e+01  -3.105263e+02
   1.429507e+02  -2.665311e+02
   9.192514e+01  -2.758928e+01
  -1.172340e+02   1.201322e+02
  -2.125117e+02  -4.311938e+00
  -4.968922e+01  -2.131662e+02
   1.819440e+02  -1.825632e+02
   1.955856e+02   7.202980e+01
  -2.488450e+01   2.120005e+02
  -2.127910e+02   3.666035e+01
  -1.705771e+02  -2.568803e+02
   3.236804e+01  -3.540226e+02
   2.249674e+02  -1.903641e+02
   3.191961e+02   5.901004e+01
   2.815957e+02   2.278912e+02
   1.064495e+02   2.598902e+02
  -1.096916e+02   1.671284e+02
  -1.859419e+02   2.454361e+01
  -6.427772e+01  -3.642498e+01
   7.456647e+01   3.528875e+01
   3.551838e+01   1.306133e+02
  -1.269747e+02   1.072418e+02
  -1.866647e+02  -1.258013e+01
  -6.263343e+01  -7.822599e+01
   8.176112e+01  -2.027592e+01
   5.845421e+01   7.387979e+01
  -1.225624e+02   8.996910e+01
  -2.848625e+02   3.436780e+00
  -2.702612e+02  -1.389144e+02
  -6.572871e+01  -2.608826e+02
   1.869975e+02  -2.712467e+02
   2.938046e+02  -1.312253e+02
   1.771556e+02   5.709555e+01
  -2.761694e+01   1.175945e+02
  -9.757172e+01   7.520802e+00
   3.400432e+01  -1.091416e+02
   2.059967e+02  -6.270360e+01
   2.231955e+02   1.082113e+02
   7.132801e+01   2.179127e+02
  -9.987630e+01   1.663265e+02
  -1.526961e+02   3.332144e+01
  -7.826271e+01  -4.257493e+01
   2.538771e+01  -9.051351e+00
   4.182404e+01   7.671507e+01
  -6.593272e+01   1.121352e+02
  -1.981229e+02   3.273149e+01
  -1.970425e+02  -1.223269e+02
  -2.368387e+01  -2.226462e+02
   1.704252e+02  -1.676725e+02
   2.018234e+02  -3.170995e+00
   6.681472e+01   1.217088e+02
  -7.222652e+01   1.162996e+02
  -8.921439e+01   3.073422e+01
  -2.292160e+01  -2.849788e+01
   1.799889e+01  -2.223449e+01
  -1.134766e+01   3.565555e+00
  -6.879395e+01  -1.172909e+01
  -8.446075e+01  -8.244993e+01
  -1.361021e+01  -1.581287e+02
   1.261463e+02  -1.554617e+02
   2.359413e+02  -3.016013e+01
   2.063264e+02   1.515558e+02
   4.481872e+01   2.433696e+02
  -1.113502e+02   1.765519e+02
  -1.394215e+02   2.940441e+01
  -7.287308e+01  -5.663510e+01
  -3.131371e+01  -3.877485e+01
  -5.550860e+01   8.859441e+00
  -7.867502e+01   4.937281e+00
  -3.682726e+01  -4.830804e+01
   4.405601e+01  -8.321919e+01
   9.963913e+01  -5.300112e+01
   8.212888e+01   3.207526e+01
  -1.093123e+01   1.063038e+02
  -1.354060e+02   8.779414e+01
  -1.956631e+02  -4.424920e+01
  -1.071010e+02  -1.972370e+02
   1.002054e+02  -2.315360e+02
   2.679271e+02  -1.017747e+02
   2.631417e+02   8.534926e+01
   1.140976e+02   1.808183e+02
  -3.850758e+01   1.501731e+02
  -9.739368e+01   8.482739e+01
  -8.379528e+01   6.905226e+01
  -7.152044e+01   9.102369e+01
  -9.545641e+01   7.277757e+01
  -1.276145e+02  -2.511866e+01
  -1.148174e+02  -1.579875e+02
  -2.640542e+01  -2.296057e+02
   1.019153e+02  -1.746016e+02
   1.790898e+02  -2.061179e+01
   1.392989e+02   1.247121e+02
   2.042339e+01   1.645198e+02
  -6.730201e+01   9.775372e+01
  -6.135065e+01   5.401094e+00
  -8.001575e+00  -4.015347e+01
   5.647381e+00  -3.595424e+01
  -4.015967e+01  -2.328318e+01
  -8.026683e+01  -2.801868e+01
  -4.365377e+01  -4.095016e+01
   6.588275e+01  -3.722899e+01
   1.619646e+02  -2.451282e+00
   1.492684e+02   5.235481e+01
   2.023322e+01   9.074991e+01
  -1.210494e+02   7.716185e+01
  -1.498999e+02   1.668596e+01
  -5.231326e+01  -3.811220e+01
   5.930535e+01  -3.536768e+01
   7.459637e+01   1.930419e+01
   4.030887e+00   6.653064e+01
  -5.861520e+01   5.491836e+01
  -6.186433e+01  -4.252681e+00
  -4.082119e+01  -5.071838e+01
  -4.357232e+01  -4.228217e+01
  -6.533079e+01  -3.950192e+00
  -6.829150e+01  -2.776579e+00
  -3.215598e+01  -6.939196e+01
   3.899999e+01  -1.462874e+02
   1.208238e+02  -1.404692e+02
   1.650170e+02  -3.088516e+01
   1.220343e+02   9.455966e+01
   5.239619e+00   1.284077e+02
  -8.745324e+01   6.096043e+01
  -6.105041e+01  -1.628757e+01
   5.922403e+01  -1.896271e+01
   1.388398e+02   4.687863e+01
   7.603912e+01   1.103050e+02
  -8.400996e+01   1.127205e+02
  -1.972533e+02   4.959132e+01
  -1.675364e+02  -3.754410e+01
  -3.685107e+01  -9.030383e+01
   6.528384e+01  -7.310250e+01
   5.237528e+01  -8.747209e+00
  -3.872717e+01   2.652597e+01
  -9.099214e+01  -2.354966e+01
  -2.990879e+01  -1.199107e+02
   9.714865e+01  -1.534559e+02
   1.706172e+02  -5.824828e+01
   1.242801e+02   1.057733e+02
   4.862281e+00   2.011338e+02
  -8.961103e+01   1.445357e+02
  -1.061716e+02  -9.379048e+00
  -6.160026e+01  -1.224288e+02
   8.189493e-01  -1.105233e+02
   4.646605e+01  -2.141972e+01
   5.503892e+01   3.202410e+01
   2.925099e+01   8.470514e+00
   5.145994e+00  -2.290374e+01
   2.044231e+01   1.404633e+01
   5.680867e+01   9.204616e+01
   4.471168e+01   1.151319e+02
  -4.608450e+01   4.766022e+01
  -1.416614e+02  -4.200875e+01
  -1.349019e+02  -7.403131e+01
  -1.912057e+01  -4.958568e+01
   9.069073e+01  -2.047649e+01
   9.090635e+01  -8.097075e+00
   9.941303e+00   4.655754e+00
  -4.048682e+01   2.050241e+01
  -1.308289e+01   1.906981e+01
   2.448273e+01  -3.671605e-02
  -4.840189e+00  -9.768310e+00
  -7.666896e+01  -6.513492e+00
  -9.209847e+01  -2.624809e+01
  -3.229943e+00  -8.060585e+01
   1.264585e+02  -1.121621e+02
   1.898818e+02  -5.405213e+01
   1.401667e+02   7.345919e+01
   2.127056e+01   1.674613e+02
  -8.293998e+01   1.526857e+02
  -1.172255e+02   5.804506e+01
  -8.336907e+01  -2.353897e+01
  -2.693378e+01  -3.692138e+01
   2.431182e+00  -9.082192e+00
  -1.015256e+01  -4.394962e+00
  -3.306790e+01  -4.710425e+01
  -2.206280e+01  -9.245124e+01
   3.091511e+01  -7.244275e+01
   8.235448e+01   2.107329e+01
   7.546226e+01   1.125475e+02
   6.633278e-01   1.138605e+02
  -8.493289e+01   2.065931e+01
  -1.024509e+02  -8.045325e+01
  -2.974764e+01  -1.054711e+02
   6.799157e+01  -5.375430e+01
   9.741858e+01   1.388183e+01
   3.813705e+01   4.970416e+01
  -3.241735e+01   4.948704e+01
  -2.894300e+01   2.799742e+01
   3.747835e+01   2.085283e+00
   7.095246e+01  -4.336583e+00
   1.326345e+01   2.581576e+01
  -8.283902e+01   6.643989e+01
  -1.175870e+02   5.975919e+01
  -6.279756e+01  -1.106824e+01
   1.771047e+01  -8.345374e+01
   5.319065e+01  -7.988254e+01
   3.488357e+01  -4.901048e+00
  -9.097515e-01   5.733273e+01
  -2.645805e+01   4.250396e+01
  -3.563515e+01  -2.016438e+01
  -2.585653e+01  -5.496211e+01
   2.403490e+00  -3.152658e+01
   3.218795e+01   9.813040e+00
   3.951498e+01   2.053040e+01
   2.191573e+01  -1.084301e-01
   7.271670e-01  -1.328269e+01
  -7.917344e+00   6.077301e+00
  -1.102617e+01   3.843578e+01
  -2.134475e+01   4.248719e+01
  -3.300111e+01   2.650010e+00
  -2.617631e+01  -4.910614e+01
   7.167658e+00  -6.143671e+01
   4.624310e+01  -1.763616e+01
   5.442911e+01   4.285734e+01
   1.170959e+01   6.441068e+01
  -5.592749e+01   3.206192e+01
  -8.820996e+01  -1.864916e+01
  -4.756199e+01  -4.532257e+01
   3.068318e+01  -3.882820e+01
   6.537296e+01  -1.867493e+01
   2.253645e+01  -4.598317e+00
  -3.983866e+01  -4.840748e+00
  -3.775583e+01  -1.885829e+01
   3.477683e+01  -3.146600e+01
   9.600543e+01  -1.665696e+01
