
 $NMID
 id='ANONYMOUS ', fmtdat='(2E16.6)'
 volume=1.0
 tramp=1.0
 $END
  -2.951950e+03  -1.958574e+02
  -2.172583e+03  -1.566970e+03
   3.295990e+02  -1.895354e+03
   1.559807e+03  -9.927253e+02
   7.419031e+02   5.475518e+01
  -1.018639e+02   2.066578e+02
  -2.489707e+02  -1.771257e+02
   6.523778e+01  -6.978363e+02
   4.772213e+02  -4.772937e+02
   6.094374e+02  -4.769663e+01
   4.099655e+02   6.253221e+02
  -5.634464e+01   5.879849e+02
  -4.010100e+02   6.079099e+01
  -2.075578e+02  -5.395162e+02
   1.451239e+02  -5.610789e+02
   3.549077e+02  -3.730247e+01
   2.638535e+02   4.413537e+02
  -1.434992e+02   5.039328e+02
  -4.009081e+02   2.423016e+02
  -3.732151e+02  -2.232997e+02
  -6.039694e+01  -3.883094e+02
   1.433260e+02  -2.472780e+02
   6.115795e+01  -6.203631e+01
  -1.704711e+02  -2.522753e+01
  -2.550704e+02  -1.784705e+02
  -2.743594e+01  -3.506217e+02
   4.428896e+02  -2.232173e+02
   6.268810e+02   1.294299e+02
   2.162614e+02   3.905188e+02
  -3.267900e+02   2.303865e+02
  -5.152339e+02  -1.052354e+02
  -1.973272e+02  -3.568116e+02
   2.665148e+02  -3.688757e+02
   4.637645e+02  -1.361545e+02
   3.310827e+02   1.654418e+02
   6.923873e+01   3.114752e+02
  -5.040489e+01   1.914210e+02
  -7.938552e+00  -1.202496e+02
   1.545805e+02  -2.055309e+02
   2.468310e+02   9.448979e+01
   8.835716e+01   4.997071e+02
  -2.320479e+02   4.882849e+02
  -3.841838e+02   2.911064e+01
  -1.722998e+02  -3.268310e+02
   1.581009e+02  -1.767316e+02
   2.257776e+02   2.383459e+02
  -8.003391e+01   3.963850e+02
  -4.484650e+02   8.082342e+01
  -5.067817e+02  -3.434887e+02
  -1.639701e+02  -4.873965e+02
   3.002656e+02  -2.870214e+02
   5.147236e+02   4.378734e+01
   3.351103e+02   2.549151e+02
  -5.708284e+01   2.419504e+02
  -2.947567e+02   7.713219e+01
  -2.116844e+02  -6.313751e+01
   1.074412e+01  -4.493398e+01
   5.970533e+01   6.458856e+01
  -1.069903e+02   8.504390e+01
  -2.372098e+02  -4.706857e+01
  -1.205927e+02  -2.058165e+02
   1.522709e+02  -2.415214e+02
   3.175946e+02  -1.249589e+02
   2.335283e+02   8.254515e+01
  -2.099095e+01   2.826921e+02
  -2.613131e+02   3.424977e+02
  -3.443132e+02   1.700153e+02
  -2.414297e+02  -1.464097e+02
  -5.849433e+01  -3.591833e+02
   5.300222e+01  -3.219644e+02
   4.566269e+01  -1.568573e+02
   2.633456e+01  -7.518630e+01
   9.939709e+01  -9.505302e+01
   2.181514e+02  -5.934147e+01
   2.363506e+02   1.024911e+02
   1.008067e+02   2.413298e+02
  -9.122795e+01   1.881396e+02
  -1.947262e+02  -3.372310e+01
  -1.431890e+02  -2.288160e+02
   3.794780e+01  -2.373126e+02
   2.352249e+02  -6.450570e+01
   2.934241e+02   1.592473e+02
   1.586581e+02   2.855680e+02
  -5.911967e+01   2.519264e+02
  -1.668112e+02   1.389420e+02
  -1.415350e+02   6.667713e+01
  -1.392966e+02   6.084375e+01
  -2.600940e+02   3.600613e+01
  -3.829613e+02  -9.037220e+01
  -3.007032e+02  -2.798048e+02
   2.097927e+01  -4.099004e+02
   3.534647e+02  -3.739868e+02
   4.488995e+02  -1.659992e+02
   2.719208e+02   8.900533e+01
   2.119394e+01   2.387510e+02
  -9.452896e+01   1.925958e+02
  -2.312057e+01   3.277196e+01
   1.109782e+02  -5.130196e+01
   1.366274e+02   2.756356e+01
   1.491993e+01   1.405814e+02
  -1.211189e+02   1.053997e+02
  -1.207043e+02  -5.442469e+01
   2.521116e+01  -1.351681e+02
   1.629927e+02  -5.151338e+00
   1.498793e+02   2.212456e+02
  -2.044899e+01   3.173502e+02
  -2.270646e+02   1.872207e+02
  -3.256379e+02  -5.998998e+01
  -2.506053e+02  -2.385355e+02
  -5.542000e+01  -2.493049e+02
   1.168363e+02  -1.297726e+02
   1.386235e+02  -6.289226e+00
   3.345312e+01   1.573393e+01
  -4.896153e+01  -5.359193e+01
  -3.861969e-01  -1.066767e+02
   1.139332e+02  -6.540900e+01
   1.391021e+02   2.291644e+01
   3.213541e+01   5.126107e+01
  -7.649818e+01  -1.148855e+01
  -3.841891e+01  -8.715357e+01
   1.363428e+02  -8.246640e+01
   2.814458e+02   1.921394e+01
   2.428496e+02   1.574766e+02
   2.976235e+01   2.454793e+02
  -1.927242e+02   2.201197e+02
  -2.528928e+02   9.049750e+01
  -1.303585e+02  -4.544942e+01
   3.009242e+01  -7.557046e+01
   6.381240e+01   6.276152e+00
  -4.995647e+01   7.922874e+01
  -1.771047e+02   3.258809e+01
  -1.792179e+02  -9.992356e+01
  -5.102773e+01  -1.798266e+02
   8.692442e+01  -1.306090e+02
   1.207767e+02  -1.884793e+01
   4.608474e+01   3.288921e+01
  -3.676469e+01  -1.649908e+01
  -2.395801e+01  -9.652993e+01
   8.986056e+01  -1.051375e+02
   1.944425e+02  -9.567062e+00
   1.665440e+02   1.254944e+02
   6.120802e+00   1.926092e+02
  -1.491325e+02   1.359578e+02
  -1.646636e+02   4.214404e+00
  -5.033663e+01  -9.296007e+01
   6.074970e+01  -8.996363e+01
   6.953824e+01  -2.295058e+01
   4.892914e+00   2.111419e+01
  -3.123018e+01   6.613594e+00
   1.098841e+01  -2.217720e+01
   8.319885e+01   2.579169e+00
   9.746391e+01   8.829122e+01
   9.985414e+00   1.631417e+02
  -1.336816e+02   1.407719e+02
  -2.216030e+02   9.252204e+00
  -1.765627e+02  -1.461502e+02
  -3.191508e+01  -2.100338e+02
   9.446038e+01  -1.481359e+02
   1.179432e+02  -2.925920e+01
   6.676032e+01   4.086131e+01
   3.303289e+01   2.709431e+01
   5.579490e+01  -1.214108e+01
   8.319160e+01  -4.505921e+00
   4.901645e+01   5.505207e+01
  -4.005895e+01   9.680596e+01
  -1.133791e+02   6.106555e+01
  -9.597696e+01  -3.997145e+01
   1.642023e+01  -1.159120e+02
   1.485252e+02  -7.933296e+01
   1.855392e+02   6.154406e+01
   7.450522e+01   1.940671e+02
  -1.175436e+02   1.991291e+02
  -2.472446e+02   6.914653e+01
  -2.233636e+02  -8.849129e+01
  -8.640665e+01  -1.584099e+02
   4.103536e+01  -1.268950e+02
   8.466026e+01  -7.201022e+01
   6.676354e+01  -6.412854e+01
   5.676842e+01  -8.809302e+01
   8.682664e+01  -7.268938e+01
   1.232047e+02   2.063971e+01
   1.089813e+02   1.476498e+02
   2.111038e+01   2.122615e+02
  -9.632639e+01   1.548945e+02
  -1.597089e+02   9.403906e+00
  -1.176963e+02  -1.188039e+02
  -8.873419e+00  -1.451483e+02
   6.858282e+01  -7.625484e+01
   5.673845e+01   1.058204e+01
  -3.258827e+00   4.740336e+01
  -2.313294e+01   3.337755e+01
   2.704806e+01   1.342924e+01
   7.934944e+01   1.864893e+01
   4.704572e+01   3.784061e+01
  -6.762504e+01   3.693067e+01
  -1.627124e+02  -1.547034e+00
  -1.372616e+02  -5.817604e+01
  -2.424368e+00  -9.044237e+01
   1.244705e+02  -6.854924e+01
   1.360136e+02  -6.510761e+00
   4.071004e+01   4.337415e+01
  -5.682928e+01   3.656916e+01
  -7.029875e+01  -1.991035e+01
  -1.132097e+01  -6.899149e+01
   4.874469e+01  -5.918327e+01
   6.466618e+01   4.600236e-01
   5.124124e+01   4.956482e+01
   4.490999e+01   4.204419e+01
   5.527624e+01   3.543328e+00
   6.326164e+01   3.844223e+00
   3.922824e+01   7.072892e+01
  -3.045972e+01   1.452824e+02
  -1.211790e+02   1.367084e+02
  -1.693045e+02   2.936252e+01
  -1.215314e+02  -9.053364e+01
  -2.511506e+00  -1.245845e+02
   8.495798e+01  -6.340737e+01
   5.711342e+01   1.018749e+01
  -5.491180e+01   1.686204e+01
  -1.252133e+02  -4.250054e+01
  -6.477817e+01  -1.016752e+02
   8.055828e+01  -1.013495e+02
   1.790862e+02  -3.921476e+01
   1.473660e+02   3.991783e+01
   2.833221e+01   8.065437e+01
  -6.047228e+01   5.799285e+01
  -4.528948e+01  -4.398606e-01
   3.802033e+01  -2.856024e+01
   8.571757e+01   1.877601e+01
   3.490162e+01   1.089375e+02
  -7.598289e+01   1.459523e+02
  -1.473120e+02   6.458477e+01
  -1.165670e+02  -8.763060e+01
  -1.352439e+01  -1.813077e+02
   7.740338e+01  -1.313485e+02
   9.735818e+01   1.209961e+01
   5.242480e+01   1.138820e+02
  -1.059263e+01   9.736243e+01
  -4.752659e+01   1.472722e+01
  -4.368118e+01  -2.906048e+01
  -1.752815e+01  -5.468450e+00
  -6.077543e+00   1.767278e+01
  -2.847168e+01  -1.949995e+01
  -5.518635e+01  -8.528111e+01
  -3.209190e+01  -9.932674e+01
   5.135901e+01  -3.958168e+01
   1.280566e+02   3.534718e+01
   1.159478e+02   6.461941e+01
   1.645638e+01   4.784527e+01
  -7.644665e+01   2.241993e+01
  -7.976285e+01   5.566852e+00
  -1.328962e+01  -8.884029e+00
   3.386609e+01  -1.801974e+01
   1.669581e+01  -1.094972e+01
  -1.615545e+01   4.172204e+00
   2.481578e+00   6.031412e+00
   6.330017e+01   1.208305e-02
   8.593588e+01   2.143072e+01
   1.641446e+01   7.690576e+01
  -1.044773e+02   1.108542e+02
  -1.773505e+02   6.045804e+01
  -1.421020e+02  -5.813510e+01
  -2.959550e+01  -1.521681e+02
   7.518615e+01  -1.463179e+02
   1.092592e+02  -6.100809e+01
   7.631092e+01   1.814416e+01
   2.580679e+01   3.465638e+01
   2.975856e+00   1.086648e+01
   1.384528e+01   7.177093e+00
   2.972005e+01   4.657541e+01
   1.766777e+01   8.684505e+01
  -2.792244e+01   6.860422e+01
  -7.473795e+01  -1.411955e+01
  -7.541765e+01  -9.631990e+01
  -1.241620e+01  -1.041210e+02
   7.116592e+01  -2.953109e+01
   9.890131e+01   6.154014e+01
   3.679687e+01   9.613807e+01
  -5.977113e+01   5.891680e+01
  -9.559020e+01  -7.381010e+00
  -4.066178e+01  -5.271310e+01
   3.231381e+01  -5.550843e+01
   3.563832e+01  -2.628431e+01
  -2.711809e+01   5.914207e+00
  -6.537950e+01   8.774310e+00
  -1.777910e+01  -2.584963e+01
   7.274759e+01  -6.326480e+01
   1.121048e+02  -5.252963e+01
   6.580942e+01   1.379067e+01
  -1.167481e+01   7.878275e+01
  -5.153343e+01   7.689163e+01
  -3.936437e+01   1.109132e+01
  -5.671403e+00  -4.893272e+01
   2.145140e+01  -4.350785e+01
   3.340707e+01   1.137306e+01
   2.661202e+01   5.014077e+01
   5.924243e-01   3.526059e+01
  -2.924925e+01  -5.584921e+00
  -3.835270e+01  -2.216003e+01
  -2.033272e+01  -1.918986e+00
   1.717684e+00   1.940853e+01
   5.256051e+00   5.684394e+00
  -1.954073e+00  -3.246326e+01
   3.912093e+00  -4.927211e+01
   2.660929e+01  -1.771564e+01
   3.728717e+01   3.546809e+01
   9.882033e+00   5.627566e+01
  -3.866683e+01   2.232138e+01
  -5.809343e+01  -3.284995e+01
  -1.720023e+01  -5.675445e+01
   5.440362e+01  -3.250362e+01
   8.779251e+01   1.216290e+01
   4.719047e+01   4.135458e+01
  -2.782385e+01   4.268647e+01
  -6.178431e+01   2.601028e+01
  -2.629670e+01   6.281280e+00
   2.814830e+01  -2.597649e+00
   3.161788e+01   7.342144e+00
  -2.365865e+01   2.530287e+01
  -7.562505e+01   2.018726e+01
