
 $NMID
 id='ANONYMOUS ', fmtdat='(2E16.6)'
 volume=1.0
 tramp=1.0
 $END
  -2.773212e+03   2.177126e+02
  -1.702121e+03  -1.715085e+03
   7.066802e+02  -1.646841e+03
   1.351849e+03  -5.087651e+02
   5.193784e+02   3.274681e+02
  -5.649609e+02   4.082292e+02
  -5.829695e+02  -2.764280e+02
  -1.535193e+01  -6.468109e+02
   5.748072e+02  -5.120939e+02
   5.162639e+02   1.611472e+01
   2.455331e+02   4.851226e+02
  -1.124071e+02   5.777694e+02
  -3.866841e+02   7.479341e+01
  -2.261179e+02  -5.010648e+02
   1.918927e+02  -5.183115e+02
   4.259469e+02   3.426944e+01
   1.721259e+02   4.645369e+02
  -2.037679e+02   3.881936e+02
  -3.406130e+02   1.377298e+01
  -2.373260e+02  -3.133581e+02
   5.883669e+00  -2.237315e+02
   1.588617e+02  -1.060453e+02
   1.543884e+02   3.459179e+00
  -1.003374e+02   9.171429e+01
  -2.911932e+02  -8.521073e+01
  -1.510319e+02  -3.388560e+02
   3.106621e+02  -2.709378e+02
   5.918555e+02   6.449025e+01
   2.696366e+02   4.192829e+02
  -2.815731e+02   3.358925e+02
  -5.208947e+02  -2.535667e+01
  -2.494660e+02  -3.211121e+02
   1.733805e+02  -3.356146e+02
   3.601286e+02  -1.064207e+02
   2.549613e+02   1.713390e+02
   1.183062e+01   2.914024e+02
  -1.507691e+02   1.548886e+02
  -1.256332e+02  -2.014331e+02
   1.135362e+02  -3.093453e+02
   3.188359e+02   7.593782e-01
   1.851416e+02   4.550238e+02
  -2.039005e+02   4.917462e+02
  -4.230807e+02   7.810725e+00
  -1.876400e+02  -3.937448e+02
   2.050526e+02  -2.217466e+02
   2.870123e+02   2.039669e+02
  -2.261437e+01   3.746498e+02
  -3.592639e+02   1.082946e+02
  -3.955087e+02  -2.612814e+02
  -1.107167e+02  -3.811763e+02
   2.526816e+02  -2.263856e+02
   4.178293e+02   4.827367e+01
   2.467515e+02   2.560298e+02
  -1.107266e+02   2.465259e+02
  -2.998715e+02   3.470250e+01
  -1.527837e+02  -1.388838e+02
   9.063106e+01  -7.570695e+01
   9.567292e+01   1.032547e+02
  -1.177001e+02   1.252118e+02
  -2.298571e+02  -4.903472e+01
  -8.532089e+01  -1.923560e+02
   1.294094e+02  -1.620925e+02
   1.946885e+02  -5.369441e+01
   1.190462e+02   3.040652e+01
   9.099293e+00   1.246043e+02
  -1.080841e+02   2.197232e+02
  -2.134590e+02   1.667658e+02
  -2.079706e+02  -7.788979e+01
  -5.736478e+01  -2.897112e+02
   9.128695e+01  -2.479530e+02
   8.446563e+01  -5.239295e+01
  -9.873975e+00   2.389971e+01
  -4.891563e+00  -6.818907e+01
   1.232636e+02  -1.148664e+02
   2.072613e+02   1.465753e+01
   1.274368e+02   1.820904e+02
  -4.654101e+01   1.861487e+02
  -1.638519e+02   2.002784e+01
  -1.427082e+02  -1.565052e+02
   3.987385e+00  -2.005852e+02
   1.763066e+02  -8.593578e+01
   2.376788e+02   1.047883e+02
   1.200984e+02   2.307958e+02
  -7.273928e+01   1.993186e+02
  -1.507576e+02   7.544715e+01
  -9.450363e+01  -4.113080e+00
  -5.438515e+01   1.899692e+01
  -1.397523e+02   5.430365e+01
  -2.587410e+02  -1.962960e+01
  -2.323212e+02  -1.726477e+02
  -2.136926e+01  -2.865576e+02
   2.147122e+02  -2.832330e+02
   3.167853e+02  -1.468467e+02
   2.294399e+02   5.110876e+01
   4.419365e+01   1.957257e+02
  -8.734342e+01   1.712402e+02
  -6.058399e+01   1.491426e+01
   7.511041e+01  -8.177758e+01
   1.389019e+02   6.591628e-01
   3.389701e+01   1.385216e+02
  -1.170179e+02   1.199440e+02
  -1.310928e+02  -4.552037e+01
   1.165571e+01  -1.409128e+02
   1.346023e+02  -3.273434e+01
   1.127480e+02   1.575127e+02
  -1.410829e+01   2.265731e+02
  -1.402446e+02   1.286252e+02
  -2.042133e+02  -3.339866e+01
  -1.814813e+02  -1.484134e+02
  -7.161906e+01  -1.715093e+02
   6.968978e+01  -1.080424e+02
   1.210451e+02  -1.202422e+01
   4.051454e+01   2.771268e+01
  -5.255210e+01  -2.386172e+01
  -2.661937e+01  -9.036581e+01
   8.409390e+01  -7.602173e+01
   1.270100e+02   6.364038e+00
   4.309591e+01   5.555305e+01
  -5.742313e+01   2.027514e+01
  -4.585369e+01  -4.524264e+01
   7.368857e+01  -6.412834e+01
   1.834077e+02  -1.408274e+01
   1.789258e+02   7.952105e+01
   5.086094e+01   1.661626e+02
  -1.124772e+02   1.807176e+02
  -1.871693e+02   9.089412e+01
  -1.175737e+02  -3.643050e+01
   1.574904e+01  -8.012440e+01
   6.759857e+01  -7.146251e+00
  -1.417967e+01   7.457674e+01
  -1.294282e+02   4.771131e+01
  -1.471320e+02  -6.614447e+01
  -5.051788e+01  -1.419642e+02
   6.382212e+01  -1.089612e+02
   1.017891e+02  -1.918941e+01
   5.305230e+01   3.312681e+01
  -1.767029e+01   1.098560e+01
  -3.189631e+01  -4.747203e+01
   3.611674e+01  -7.425914e+01
   1.230504e+02  -2.590055e+01
   1.259596e+02   7.384607e+01
   1.768573e+01   1.411373e+02
  -1.069783e+02   1.093509e+02
  -1.293323e+02   4.042021e+00
  -4.469505e+01  -7.961421e+01
   4.527302e+01  -7.881555e+01
   5.865453e+01  -2.271777e+01
   1.527686e+01   1.907415e+01
  -1.394455e+01   1.713304e+01
   2.576071e+00  -3.738706e+00
   4.367714e+01  -5.726534e-01
   6.185120e+01   4.435875e+01
   2.023894e+01   9.923206e+01
  -7.365866e+01   1.056760e+02
  -1.511802e+02   2.929690e+01
  -1.372520e+02  -8.919798e+01
  -3.334239e+01  -1.528143e+02
   6.773884e+01  -1.137951e+02
   8.607830e+01  -1.998567e+01
   4.358428e+01   3.527273e+01
   1.784225e+01   2.184028e+01
   3.518538e+01  -1.002856e+01
   5.174447e+01  -7.363452e+00
   2.642670e+01   2.867670e+01
  -2.338810e+01   5.480181e+01
  -5.968828e+01   3.824045e+01
  -5.098832e+01  -1.581584e+01
   3.387340e+00  -6.653788e+01
   8.170787e+01  -5.756714e+01
   1.250543e+02   2.514959e+01
   7.142503e+01   1.246910e+02
  -6.038589e+01   1.487699e+02
  -1.682542e+02   6.776635e+01
  -1.690185e+02  -5.067426e+01
  -7.366405e+01  -1.127992e+02
   2.409966e+01  -9.638840e+01
   6.045500e+01  -5.498090e+01
   4.959996e+01  -4.431920e+01
   4.050714e+01  -5.832011e+01
   5.703937e+01  -4.946307e+01
   8.218356e+01   1.031858e+01
   7.922141e+01   9.583097e+01
   2.490652e+01   1.451656e+02
  -5.972238e+01   1.145251e+02
  -1.144330e+02   1.906028e+01
  -9.355722e+01  -7.395893e+01
  -1.865863e+01  -1.032274e+02
   3.988829e+01  -6.508175e+01
   3.913905e+01  -6.867429e+00
   6.782644e+00   2.524257e+01
  -2.496386e+00   2.399674e+01
   2.566932e+01   1.261625e+01
   5.130069e+01   1.228529e+01
   2.967420e+01   2.325552e+01
  -3.835082e+01   2.822540e+01
  -9.973586e+01   1.017377e+01
  -9.505905e+01  -2.798297e+01
  -1.679005e+01  -5.864881e+01
   7.187122e+01  -5.274135e+01
   9.274657e+01  -1.233411e+01
   3.386346e+01   2.470950e+01
  -3.655432e+01   2.302846e+01
  -4.861725e+01  -1.246947e+01
  -5.696397e+00  -4.274176e+01
   3.478054e+01  -3.597646e+01
   3.971042e+01   2.752788e-01
   2.794515e+01   2.924493e+01
   2.863495e+01   2.405119e+01
   4.088009e+01  -3.375389e-01
   4.328421e+01  -1.751250e+00
   2.395497e+01   4.096749e+01
  -1.633016e+01   9.361030e+01
  -6.804178e+01   9.408916e+01
  -1.012200e+02   2.725822e+01
  -8.067768e+01  -5.358388e+01
  -9.727432e+00  -7.967540e+01
   5.076221e+01  -4.041618e+01
   3.757540e+01   8.812275e+00
  -3.763441e+01   1.319558e+01
  -8.937966e+01  -2.662553e+01
  -5.120972e+01  -6.951816e+01
   5.008664e+01  -7.616609e+01
   1.237636e+02  -4.000966e+01
   1.084791e+02   1.680129e+01
   2.930003e+01   5.704760e+01
  -3.545929e+01   5.108426e+01
  -3.124228e+01   9.875129e+00
   2.195192e+01  -1.634580e+01
   5.492842e+01   1.219222e+01
   2.135079e+01   7.424262e+01
  -5.491961e+01   9.907111e+01
  -1.041651e+02   4.173910e+01
  -8.240641e+01  -6.267032e+01
  -1.140624e+01  -1.263740e+02
   5.197204e+01  -9.419772e+01
   6.953068e+01   1.756060e+00
   4.427443e+01   7.483783e+01
   2.337822e+00   7.068014e+01
  -3.002343e+01   1.639066e+01
  -3.572453e+01  -1.860535e+01
  -1.724423e+01  -6.152395e+00
  -1.826172e+00   1.363412e+01
  -1.385540e+01  -6.597072e+00
  -3.902937e+01  -5.318448e+01
  -3.119689e+01  -6.944709e+01
   2.755543e+01  -3.214999e+01
   8.874010e+01   2.024855e+01
   8.477851e+01   4.116348e+01
   1.300200e+01   3.004498e+01
  -5.476827e+01   1.537048e+01
  -5.510050e+01   7.572549e+00
  -5.911285e+00  -2.943734e+00
   2.495599e+01  -1.509168e+01
   8.915332e+00  -1.296795e+01
  -1.356668e+01   1.712950e+00
   4.103732e+00   8.239441e+00
   4.718647e+01   3.093310e+00
   5.693606e+01   1.265511e+01
   4.610917e+00   4.832700e+01
  -7.354171e+01   7.341335e+01
  -1.138865e+02   4.147599e+01
  -8.790609e+01  -3.899092e+01
  -1.925543e+01  -1.017772e+02
   4.406178e+01  -9.616502e+01
   6.821570e+01  -3.869962e+01
   5.072868e+01   1.193753e+01
   1.700149e+01   2.008366e+01
  -1.132658e+00   2.922310e+00
   7.309909e+00   9.068763e-01
   2.358583e+01   2.873962e+01
   1.798057e+01   5.751461e+01
  -1.644085e+01   4.584599e+01
  -5.182154e+01  -1.091679e+01
  -5.019824e+01  -6.666586e+01
  -4.076516e+00  -6.837139e+01
   5.092417e+01  -1.377660e+01
   6.438778e+01   4.594096e+01
   2.079253e+01   6.200215e+01
  -4.025278e+01   3.342200e+01
  -6.053465e+01  -5.772224e+00
  -2.523489e+01  -2.903976e+01
   1.885460e+01  -3.186913e+01
   1.849349e+01  -1.906007e+01
  -2.185100e+01  -1.583785e-01
  -4.377367e+01   5.719464e+00
  -1.029284e+01  -1.502381e+01
   4.837428e+01  -4.445536e+01
   7.130181e+01  -4.188012e+01
   4.025312e+01   4.186596e+00
  -7.391669e+00   5.193972e+01
  -2.890013e+01   5.098129e+01
  -1.947320e+01   4.462055e+00
  -9.538212e-02  -3.364203e+01
   1.418263e+01  -2.464742e+01
   2.108452e+01   1.283666e+01
   1.651921e+01   3.297887e+01
  -9.944997e-01   1.863153e+01
  -2.031920e+01  -5.403168e+00
  -2.551206e+01  -1.090251e+01
  -1.373239e+01   7.445241e-01
   5.961137e-01   7.230826e+00
   5.046000e+00  -4.550205e+00
   5.359419e+00  -2.353447e+01
   1.104845e+01  -2.597439e+01
   1.958680e+01  -2.566991e+00
   1.753043e+01   2.847088e+01
  -2.493647e+00   3.710874e+01
  -2.828510e+01   1.206165e+01
  -3.527199e+01  -2.493851e+01
  -8.973114e+00  -4.051284e+01
   3.466137e+01  -2.309248e+01
   5.642256e+01   8.182846e+00
   3.205189e+01   2.762248e+01
  -1.666703e+01   2.672713e+01
  -3.925137e+01   1.451687e+01
  -1.382485e+01   3.492773e+00
   2.428067e+01   2.091531e+00
   2.323712e+01   1.143514e+01
  -2.083834e+01   2.171942e+01
  -5.863336e+01   1.387047e+01
