
 $NMID
 id='ANONYMOUS ', fmtdat='(2E16.6)'
 volume=1.0
 tramp=1.0
 $END
  -4.416837e+03   8.426087e+01
  -2.693801e+03  -2.681471e+03
   9.378790e+02  -3.018868e+03
   2.162121e+03  -1.008169e+03
   1.045581e+03   8.058965e+02
  -9.172860e+02   6.490412e+02
  -9.525263e+02  -5.073906e+02
   6.223414e+01  -1.046827e+03
   9.433317e+02  -8.973444e+02
   1.015017e+03   1.805859e+02
   3.734488e+02   9.969115e+02
  -3.864408e+02   9.779003e+02
  -6.965675e+02   6.918628e+01
  -3.667356e+02  -7.854043e+02
   3.750621e+02  -8.091577e+02
   7.181859e+02   8.015184e+01
   3.025081e+02   7.871778e+02
  -4.134829e+02   6.926268e+02
  -6.217379e+02   1.072304e+02
  -4.174280e+02  -4.121267e+02
  -2.168887e+00  -4.768889e+02
   2.802604e+02  -2.598254e+02
   1.968241e+02   9.073675e+00
  -1.428718e+02   1.619140e+02
  -4.338475e+02  -6.987875e+01
  -2.372012e+02  -4.698842e+02
   4.712515e+02  -4.461232e+02
   9.232673e+02   9.150161e+01
   4.590309e+02   6.060371e+02
  -4.378752e+02   5.476356e+02
  -8.057154e+02  -5.012421e+01
  -3.869840e+02  -5.543558e+02
   2.871309e+02  -5.505411e+02
   6.256850e+02  -1.975953e+02
   4.615856e+02   2.654056e+02
   6.455187e+01   5.454350e+02
  -2.292412e+02   3.007846e+02
  -2.168002e+02  -2.466357e+02
   1.663898e+02  -4.820780e+02
   4.886042e+02   6.819981e+00
   2.560358e+02   7.423831e+02
  -3.681020e+02   7.637888e+02
  -6.708559e+02  -1.189335e+01
  -2.879282e+02  -6.177502e+02
   3.223114e+02  -3.612358e+02
   4.343829e+02   3.372661e+02
  -6.468229e+01   5.949609e+02
  -5.809105e+02   1.546493e+02
  -6.262295e+02  -4.263920e+02
  -1.719262e+02  -6.247334e+02
   4.097045e+02  -3.773194e+02
   6.752873e+02   8.364549e+01
   3.984783e+02   4.288985e+02
  -1.746880e+02   4.068708e+02
  -4.884713e+02   5.470915e+01
  -2.628218e+02  -2.322596e+02
   1.367824e+02  -1.337464e+02
   1.689908e+02   1.648885e+02
  -1.703116e+02   2.127191e+02
  -3.736257e+02  -6.987896e+01
  -1.540424e+02  -3.161616e+02
   2.131141e+02  -2.714263e+02
   3.400547e+02  -7.362806e+01
   1.947224e+02   8.437940e+01
  -2.653525e+01   2.217630e+02
  -2.200107e+02   3.358057e+02
  -3.501701e+02   2.328405e+02
  -3.161358e+02  -1.454839e+02
  -8.900926e+01  -4.701049e+02
   1.358539e+02  -4.111373e+02
   1.495810e+02  -1.097769e+02
   3.369232e+01   2.704095e+01
   3.629378e+01  -8.359591e+01
   1.951533e+02  -1.352402e+02
   2.914416e+02   5.793804e+01
   1.684073e+02   2.896167e+02
  -7.612755e+01   2.734895e+02
  -2.433072e+02   1.271985e+01
  -2.129519e+02  -2.528198e+02
   7.433411e+00  -3.096035e+02
   2.808531e+02  -1.241139e+02
   3.810803e+02   1.776756e+02
   1.945022e+02   3.751914e+02
  -1.178587e+02   3.231144e+02
  -2.489433e+02   1.175618e+02
  -1.543668e+02  -6.897662e+00
  -9.547009e+01   3.406205e+01
  -2.386098e+02   7.179668e+01
  -4.163704e+02  -6.221850e+01
  -3.431173e+02  -3.040432e+02
   1.256064e+01  -4.607596e+02
   3.832671e+02  -4.228078e+02
   5.095238e+02  -2.015879e+02
   3.543992e+02   1.010198e+02
   6.069468e+01   3.110648e+02
  -1.415665e+02   2.741154e+02
  -9.702235e+01   3.730572e+01
   1.085130e+02  -1.196480e+02
   2.107073e+02  -9.648225e-01
   6.111152e+01   2.103318e+02
  -1.752655e+02   1.898125e+02
  -2.002316e+02  -6.035838e+01
   1.290606e+01  -2.095264e+02
   2.053349e+02  -4.293758e+01
   1.716042e+02   2.552541e+02
  -3.641415e+01   3.598464e+02
  -2.375043e+02   1.936396e+02
  -3.252771e+02  -6.629361e+01
  -2.754504e+02  -2.380309e+02
  -9.789881e+01  -2.617678e+02
   1.097980e+02  -1.608540e+02
   1.781867e+02  -2.312693e+01
   5.878476e+01   3.142219e+01
  -7.481397e+01  -4.116234e+01
  -3.368642e+01  -1.315270e+02
   1.284052e+02  -1.047664e+02
   1.883886e+02   1.396032e+01
   6.360905e+01   7.528538e+01
  -8.017946e+01   1.454880e+01
  -5.529281e+01  -7.683261e+01
   1.262500e+02  -8.531636e+01
   2.858058e+02   5.942582e+00
   2.682167e+02   1.452896e+02
   6.465260e+01   2.604790e+02
  -1.861304e+02   2.682505e+02
  -2.939055e+02   1.314794e+02
  -1.796274e+02  -5.420919e+01
   2.621223e+01  -1.161814e+02
   9.873775e+01  -7.783456e+00
  -3.224091e+01   1.097676e+02
  -2.058116e+02   6.507225e+01
  -2.232919e+02  -1.070680e+02
  -6.990244e+01  -2.179567e+02
   1.000982e+02  -1.640949e+02
   1.496032e+02  -2.955141e+01
   7.413862e+01   4.355115e+01
  -2.539792e+01   5.953175e+00
  -3.749354e+01  -7.913569e+01
   6.911445e+01  -1.102360e+02
   1.971930e+02  -2.904208e+01
   1.935900e+02   1.240545e+02
   2.114838e+01   2.225011e+02
  -1.715534e+02   1.680098e+02
  -2.018868e+02   3.373507e+00
  -6.615831e+01  -1.225878e+02
   7.158416e+01  -1.171154e+02
   8.842836e+01  -3.117176e+01
   2.152149e+01   2.614672e+01
  -1.722121e+01   1.851008e+01
   1.422064e+01  -4.456937e+00
   7.044559e+01   1.616356e+01
   8.425565e+01   8.835730e+01
   1.237059e+01   1.594036e+02
  -1.279299e+02   1.508711e+02
  -2.369095e+02   2.549276e+01
  -2.062007e+02  -1.512839e+02
  -4.369032e+01  -2.419946e+02
   1.125007e+02  -1.751208e+02
   1.403063e+02  -2.970596e+01
   7.194236e+01   5.618196e+01
   3.122906e+01   3.816546e+01
   5.852777e+01  -9.824047e+00
   8.214065e+01  -2.581239e+00
   3.859912e+01   5.258918e+01
  -4.778644e+01   8.527021e+01
  -1.024397e+02   5.288943e+01
  -8.140886e+01  -3.368804e+01
   1.369533e+01  -1.063839e+02
   1.373189e+02  -8.413535e+01
   1.942593e+02   4.779328e+01
   1.019731e+02   1.975268e+02
  -1.025664e+02   2.288602e+02
  -2.660716e+02   9.804104e+01
  -2.602275e+02  -8.632963e+01
  -1.114194e+02  -1.788933e+02
   3.919225e+01  -1.494567e+02
   9.790082e+01  -8.485443e+01
   8.464994e+01  -6.973394e+01
   7.179584e+01  -9.106480e+01
   9.504679e+01  -7.309856e+01
   1.276415e+02   2.537995e+01
   1.159012e+02   1.599519e+02
   2.757189e+01   2.331115e+02
  -1.025036e+02   1.771766e+02
  -1.816519e+02   2.075547e+01
  -1.420311e+02  -1.264782e+02
  -2.176232e+01  -1.658518e+02
   6.692507e+01  -9.751051e+01
   6.004504e+01  -5.167506e+00
   6.141349e+00   3.907196e+01
  -5.900465e+00   3.384219e+01
   4.188953e+01   2.151486e+01
   8.275260e+01   2.729204e+01
   4.478458e+01   3.976274e+01
  -6.482790e+01   3.576289e+01
  -1.594756e+02   2.788031e+00
  -1.466556e+02  -4.865136e+01
  -1.962704e+01  -8.606729e+01
   1.191040e+02  -7.473187e+01
   1.473285e+02  -1.708825e+01
   5.060755e+01   3.689682e+01
  -6.044214e+01   3.489896e+01
  -7.590916e+01  -2.004548e+01
  -4.674293e+00  -6.818380e+01
   5.898596e+01  -5.688452e+01
   6.286944e+01   3.307220e+00
   4.152519e+01   5.083211e+01
   4.386096e+01   4.174433e+01
   6.634486e+01   2.078260e+00
   7.053111e+01   1.387932e+00
   3.391429e+01   6.988906e+01
  -3.790143e+01   1.486439e+02
  -1.203517e+02   1.425571e+02
  -1.649324e+02   3.145819e+01
  -1.221871e+02  -9.383734e+01
  -5.460712e+00  -1.269688e+02
   8.628200e+01  -6.004443e+01
   5.940348e+01   1.540066e+01
  -6.098042e+01   1.703361e+01
  -1.396205e+02  -4.796357e+01
  -7.545549e+01  -1.102307e+02
   8.521733e+01  -1.128206e+02
   1.980166e+02  -5.048537e+01
   1.677648e+02   3.674864e+01
   3.673345e+01   9.082174e+01
  -6.599589e+01   7.375240e+01
  -5.326588e+01   7.952210e+00
   3.898561e+01  -2.841797e+01
   9.316203e+01   2.269537e+01
   3.217404e+01   1.214916e+02
  -9.741798e+01   1.565634e+02
  -1.739189e+02   5.996180e+01
  -1.280353e+02  -1.069299e+02
  -6.558991e+00  -2.040151e+02
   8.994469e+01  -1.470387e+02
   1.067997e+02   7.866110e+00
   6.199697e+01   1.209455e+02
  -1.165439e-01   1.085792e+02
  -4.546458e+01   1.979830e+01
  -5.420610e+01  -3.281265e+01
  -2.777492e+01  -8.569498e+00
  -2.387940e+00   2.288355e+01
  -1.761586e+01  -1.354677e+01
  -5.639311e+01  -9.045600e+01
  -4.625437e+01  -1.130767e+02
   4.469125e+01  -4.664775e+01
   1.417462e+02   4.105539e+01
   1.350877e+02   7.255798e+01
   1.827057e+01   4.904080e+01
  -9.131057e+01   2.071675e+01
  -9.002818e+01   7.646250e+00
  -8.194745e+00  -6.370276e+00
   4.165748e+01  -2.217343e+01
   1.382028e+01  -1.888186e+01
  -2.344913e+01   1.754111e+00
   6.322581e+00   1.066311e+01
   7.777380e+01   6.458323e+00
   9.302674e+01   2.663715e+01
   4.849270e+00   8.301948e+01
  -1.249849e+02   1.153949e+02
  -1.901198e+02   5.636125e+01
  -1.425891e+02  -7.217994e+01
  -2.491993e+01  -1.661834e+02
   8.031614e+01  -1.510262e+02
   1.158965e+02  -5.768478e+01
   8.235896e+01   2.218744e+01
   2.566294e+01   3.476068e+01
  -3.634383e+00   7.318956e+00
   9.400571e+00   3.056069e+00
   3.329884e+01   4.631072e+01
   2.268254e+01   9.212582e+01
  -3.065322e+01   7.315183e+01
  -8.300739e+01  -2.062783e+01
  -7.670141e+01  -1.137992e+02
  -9.590199e-01  -1.166263e+02
   8.614245e+01  -2.279537e+01
   1.043160e+02   8.020589e+01
   3.074877e+01   1.066691e+02
  -6.797844e+01   5.477118e+01
  -9.728645e+01  -1.385147e+01
  -3.689890e+01  -5.026530e+01
   3.422167e+01  -4.931111e+01
   2.982964e+01  -2.658455e+01
  -3.751116e+01   3.092944e-01
  -7.168898e+01   6.186424e+00
  -1.447388e+01  -2.537798e+01
   8.121376e+01  -6.663499e+01
   1.163903e+02  -5.969933e+01
   6.259544e+01   1.205709e+01
  -1.757661e+01   8.440308e+01
  -5.347061e+01   7.985391e+01
  -3.654051e+01   4.004375e+00
  -1.562435e+00  -5.829249e+01
   2.547224e+01  -4.320827e+01
   3.660554e+01   1.971292e+01
   2.709697e+01   5.428932e+01
  -2.364781e+00   3.124972e+01
  -3.250377e+01  -1.014876e+01
  -3.922330e+01  -2.049800e+01
  -2.072201e+01   5.403735e-01
  -2.118438e-01   1.414628e+01
   6.714115e+00  -5.322534e+00
   9.483283e+00  -3.860027e+01
   2.091643e+01  -4.377297e+01
   3.395769e+01  -3.759942e+00
   2.702269e+01   4.912847e+01
  -7.187830e+00   6.236687e+01
  -4.689273e+01   1.807227e+01
  -5.441297e+01  -4.318594e+01
  -1.118868e+01  -6.493520e+01
   5.630204e+01  -3.202332e+01
   8.809303e+01   1.959146e+01
   4.728658e+01   4.649571e+01
  -3.102186e+01   3.972550e+01
  -6.642912e+01   1.834632e+01
  -2.354277e+01   3.184928e+00
   4.013376e+01   3.691440e+00
   3.929399e+01   1.877093e+01
  -3.378182e+01   3.302033e+01
  -9.680408e+01   1.858040e+01
