
 $NMID
 id='ANONYMOUS ', fmtdat='(2E16.6)'
 volume=1.0
 tramp=1.0
 $END
   3.866315e+03  -1.381288e+02
   2.475697e+03   2.287254e+03
  -4.843176e+02   2.483094e+03
  -1.905090e+03   9.386776e+02
  -8.795323e+02  -2.812112e+02
   4.981742e+02  -4.552181e+02
   7.158996e+02   3.439497e+02
  -8.802778e+00   9.185588e+02
  -7.829994e+02   6.941514e+02
  -7.010755e+02  -3.165841e+01
  -3.724159e+02  -7.535074e+02
   1.984680e+02  -8.430042e+02
   4.966066e+02  -5.265289e+01
   3.020736e+02   6.643376e+02
  -2.318906e+02   6.612593e+02
  -5.821018e+02   2.416268e+00
  -3.305023e+02  -6.305710e+02
   2.141516e+02  -6.140628e+02
   5.413225e+02  -1.823202e+02
   3.731252e+02   2.776214e+02
   1.687740e+00   3.976137e+02
  -2.270243e+02   2.462700e+02
  -1.783341e+02   5.138637e+01
   1.252424e+02  -6.394424e+01
   3.732760e+02   1.815524e+02
   1.311773e+02   4.157188e+02
  -4.479717e+02   3.261726e+02
  -7.641035e+02  -1.359134e+02
  -3.459424e+02  -5.085797e+02
   3.793208e+02  -4.042825e+02
   6.796710e+02   8.082993e+01
   3.097790e+02   4.731661e+02
  -2.604373e+02   4.516495e+02
  -5.370384e+02   1.737338e+02
  -3.899967e+02  -2.037455e+02
  -4.712329e+01  -4.522311e+02
   1.750366e+02  -2.602786e+02
   1.360668e+02   2.043275e+02
  -1.681774e+02   3.865162e+02
  -3.950785e+02  -5.433906e+01
  -1.865715e+02  -6.300109e+02
   2.915263e+02  -6.412807e+02
   5.214080e+02   1.616744e+01
   2.052660e+02   5.085763e+02
  -2.748973e+02   2.677422e+02
  -3.336548e+02  -3.193778e+02
   7.263195e+01  -5.195752e+02
   5.273120e+02  -1.300813e+02
   5.720535e+02   3.888019e+02
   1.729218e+02   5.696109e+02
  -3.651216e+02   3.445600e+02
  -6.137802e+02  -6.586680e+01
  -3.710807e+02  -3.641841e+02
   1.293924e+02  -3.467343e+02
   4.105339e+02  -6.493536e+01
   2.396623e+02   1.641836e+02
  -8.486481e+01   9.084154e+01
  -1.196909e+02  -1.306537e+02
   1.469202e+02  -1.582952e+02
   3.148283e+02   6.847206e+01
   1.350454e+02   2.762522e+02
  -1.942730e+02   2.559513e+02
  -3.390144e+02   8.274785e+01
  -2.164442e+02  -1.002505e+02
   2.841090e+01  -2.600771e+02
   2.493743e+02  -3.433506e+02
   3.538558e+02  -2.058595e+02
   2.787277e+02   1.466407e+02
   7.137974e+01   4.239337e+02
  -8.948713e+01   3.726453e+02
  -8.770428e+01   1.282218e+02
  -2.823173e+01   1.916677e+01
  -8.118494e+01   1.003578e+02
  -2.253283e+02   1.164499e+02
  -2.778903e+02  -7.508279e+01
  -1.415255e+02  -2.811870e+02
   8.065784e+01  -2.509726e+02
   2.226378e+02  -7.781229e-01
   1.872217e+02   2.386777e+02
  -1.592246e+01   2.782226e+02
  -2.599004e+02   9.870248e+01
  -3.464191e+02  -1.658914e+02
  -1.803906e+02  -3.336390e+02
   8.690834e+01  -2.907810e+02
   2.068022e+02  -1.271733e+02
   1.447030e+02  -2.856225e+01
   1.121264e+02  -4.919322e+01
   2.474557e+02  -6.265578e+01
   4.096699e+02   6.846833e+01
   3.305356e+02   2.929648e+02
  -9.136740e+00   4.438008e+02
  -3.680332e+02   4.087124e+02
  -4.877389e+02   1.922050e+02
  -3.259341e+02  -9.494493e+01
  -4.498851e+01  -2.809834e+02
   1.225933e+02  -2.370863e+02
   5.864642e+01  -3.509075e+01
  -1.179634e+02   8.486393e+01
  -1.793298e+02  -1.997562e+01
  -3.439395e+01  -1.855598e+02
   1.574079e+02  -1.526310e+02
   1.636211e+02   6.068734e+01
  -2.225304e+01   1.790078e+02
  -1.871618e+02   2.799145e+01
  -1.558481e+02  -2.401128e+02
   3.155070e+01  -3.426231e+02
   2.317805e+02  -1.934042e+02
   3.262037e+02   6.659628e+01
   2.670914e+02   2.482982e+02
   7.878592e+01   2.645974e+02
  -1.178175e+02   1.480941e+02
  -1.661923e+02   9.291820e+00
  -4.787492e+01  -2.903641e+01
   6.675400e+01   4.796511e+01
   1.969022e+01   1.243498e+02
  -1.259935e+02   8.916111e+01
  -1.707293e+02  -1.952112e+01
  -4.931493e+01  -6.741052e+01
   8.354141e+01  -5.109829e+00
   5.289713e+01   8.115623e+01
  -1.307999e+02   8.687956e+01
  -2.897557e+02  -7.687161e+00
  -2.635796e+02  -1.492655e+02
  -5.038844e+01  -2.573204e+02
   1.938204e+02  -2.529297e+02
   2.813158e+02  -1.155199e+02
   1.593470e+02   5.359330e+01
  -3.042279e+01   1.023402e+02
  -8.593272e+01   1.542962e+00
   4.001989e+01  -1.003074e+02
   1.955184e+02  -5.373388e+01
   2.062245e+02   1.054599e+02
   6.260364e+01   2.051389e+02
  -9.539779e+01   1.516274e+02
  -1.381958e+02   2.316326e+01
  -6.140935e+01  -4.255007e+01
   3.263535e+01   2.766461e+00
   3.248039e+01   9.013364e+01
  -8.011318e+01   1.131402e+02
  -1.994454e+02   2.255561e+01
  -1.842052e+02  -1.280290e+02
  -1.447564e+01  -2.152563e+02
   1.634954e+02  -1.575869e+02
   1.882411e+02  -3.413099e+00
   6.199138e+01   1.121314e+02
  -6.583123e+01   1.076194e+02
  -8.018305e+01   2.823602e+01
  -1.520782e+01  -2.514039e+01
   2.390638e+01  -1.343143e+01
  -1.183824e+01   1.525702e+01
  -7.766035e+01  -5.787392e+00
  -9.376282e+01  -8.752485e+01
  -1.219433e+01  -1.650877e+02
   1.323116e+02  -1.520047e+02
   2.344916e+02  -1.964841e+01
   1.954255e+02   1.527431e+02
   3.754260e+01   2.324989e+02
  -1.061535e+02   1.640218e+02
  -1.293852e+02   2.673120e+01
  -6.636318e+01  -5.193473e+01
  -3.004706e+01  -3.313278e+01
  -5.702314e+01   1.443890e+01
  -8.313072e+01   8.059157e+00
  -4.482624e+01  -5.169493e+01
   4.359250e+01  -9.289634e+01
   1.080502e+02  -5.962372e+01
   8.904584e+01   3.667308e+01
  -1.732320e+01   1.145750e+02
  -1.463738e+02   8.487268e+01
  -1.957420e+02  -5.622588e+01
  -9.057462e+01  -2.029109e+02
   1.146869e+02  -2.219615e+02
   2.659613e+02  -8.635466e+01
   2.498995e+02   8.875067e+01
   1.032339e+02   1.733143e+02
  -4.033494e+01   1.424991e+02
  -9.288359e+01   8.269099e+01
  -7.713667e+01   7.026533e+01
  -6.512745e+01   9.178863e+01
  -9.202190e+01   7.368792e+01
  -1.279924e+02  -2.374680e+01
  -1.164159e+02  -1.555223e+02
  -2.725919e+01  -2.254079e+02
   9.963065e+01  -1.689817e+02
   1.729792e+02  -1.674810e+01
   1.318727e+02   1.226365e+02
   1.621274e+01   1.566570e+02
  -6.738454e+01   8.766367e+01
  -5.712763e+01  -2.779522e+00
  -4.306910e-01  -4.325391e+01
   1.312160e+01  -3.261512e+01
  -3.841469e+01  -1.505899e+01
  -8.465619e+01  -2.109284e+01
  -4.777984e+01  -3.973091e+01
   6.625201e+01  -4.028374e+01
   1.623940e+02  -5.432837e+00
   1.436962e+02   5.100679e+01
   1.244728e+01   8.878151e+01
  -1.215189e+02   7.329082e+01
  -1.415466e+02   1.234696e+01
  -4.414537e+01  -4.081650e+01
   6.134507e+01  -3.574177e+01
   7.522525e+01   2.189788e+01
   8.586504e+00   7.145408e+01
  -5.421182e+01   6.005647e+01
  -6.498954e+01  -1.149809e+00
  -4.825245e+01  -4.961958e+01
  -4.594583e+01  -4.054682e+01
  -6.158121e+01  -2.780871e-01
  -6.731064e+01  -8.022712e-02
  -3.900676e+01  -6.981566e+01
   2.971634e+01  -1.490095e+02
   1.170813e+02  -1.433893e+02
   1.670294e+02  -3.389523e+01
   1.244533e+02   9.078482e+01
   6.010370e+00   1.257975e+02
  -8.621486e+01   6.116775e+01
  -5.896564e+01  -1.409529e+01
   5.952809e+01  -1.793569e+01
   1.357607e+02   4.515877e+01
   7.300279e+01   1.070924e+02
  -8.295399e+01   1.098313e+02
  -1.913941e+02   4.813606e+01
  -1.616968e+02  -3.675990e+01
  -3.546956e+01  -8.699046e+01
   6.252585e+01  -6.923825e+01
   5.021212e+01  -6.907251e+00
  -3.722417e+01   2.722980e+01
  -8.888861e+01  -2.139519e+01
  -3.317605e+01  -1.165837e+02
   8.790869e+01  -1.526068e+02
   1.627420e+02  -6.236367e+01
   1.244799e+02   9.916934e+01
   1.129633e+01   1.953584e+02
  -8.421203e+01   1.409649e+02
  -1.045340e+02  -1.002233e+01
  -6.009100e+01  -1.189873e+02
   4.394870e+00  -1.050649e+02
   4.821615e+01  -1.832389e+01
   5.097964e+01   3.098027e+01
   2.282969e+01   7.594851e+00
   2.879594e+00  -2.011682e+01
   2.262056e+01   1.629328e+01
   5.753718e+01   8.759847e+01
   4.120866e+01   1.062512e+02
  -4.824270e+01   4.313122e+01
  -1.370294e+02  -3.817157e+01
  -1.270731e+02  -6.819513e+01
  -1.692181e+01  -4.823269e+01
   8.599066e+01  -2.211219e+01
   8.642875e+01  -7.403565e+00
   1.060761e+01   7.839965e+00
  -3.883340e+01   2.149214e+01
  -1.584806e+01   1.585655e+01
   2.006651e+01  -3.084589e+00
  -4.635484e+00  -8.203158e+00
  -7.210522e+01  -1.769199e+00
  -9.172755e+01  -2.272269e+01
  -1.180116e+01  -8.133055e+01
   1.151951e+02  -1.170525e+02
   1.855467e+02  -6.197668e+01
   1.443227e+02   6.482032e+01
   2.889927e+01   1.615862e+02
  -7.670333e+01   1.512960e+02
  -1.129554e+02   6.065358e+01
  -8.049098e+01  -1.979328e+01
  -2.647635e+01  -3.464276e+01
   8.133781e-01  -9.012514e+00
  -1.129184e+01  -5.311170e+00
  -3.279496e+01  -4.692574e+01
  -2.243061e+01  -9.006337e+01
   2.828851e+01  -7.118860e+01
   8.026164e+01   1.738913e+01
   7.874073e+01   1.050158e+02
   8.185333e+00   1.101701e+02
  -7.936694e+01   2.594057e+01
  -1.033425e+02  -7.093307e+01
  -3.456251e+01  -1.014105e+02
   6.457825e+01  -5.705308e+01
   9.812755e+01   1.043802e+01
   4.023486e+01   5.175226e+01
  -3.280406e+01   5.363542e+01
  -3.291238e+01   2.785485e+01
   3.202776e+01  -2.470188e+00
   6.824285e+01  -7.985554e+00
   1.537588e+01   2.563932e+01
  -7.778123e+01   6.598143e+01
  -1.143695e+02   5.749740e+01
  -6.419849e+01  -1.280352e+01
   1.449854e+01  -8.278768e+01
   5.240327e+01  -7.961189e+01
   3.810890e+01  -7.283963e+00
   3.854030e+00   5.425020e+01
  -2.349924e+01   4.327848e+01
  -3.538873e+01  -1.592228e+01
  -2.694592e+01  -5.183052e+01
   1.786864e+00  -3.197905e+01
   3.196858e+01   9.199570e+00
   3.882634e+01   2.144220e+01
   1.968263e+01   5.319406e-01
  -1.657318e+00  -1.605702e+01
  -6.622004e+00   9.524268e-01
  -3.988554e+00   3.655306e+01
  -1.321822e+01   4.664440e+01
  -3.140625e+01   1.023187e+01
  -3.299386e+01  -4.338608e+01
  -9.138207e-01  -6.041029e+01
   4.424736e+01  -2.097604e+01
   5.801331e+01   3.854296e+01
   1.468427e+01   6.285107e+01
  -5.667482e+01   3.436152e+01
  -9.024194e+01  -1.485219e+01
  -4.862974e+01  -4.426442e+01
   2.962722e+01  -4.228616e+01
   6.490108e+01  -2.285777e+01
   2.439317e+01  -4.729924e+00
  -3.585228e+01  -3.411221e-01
  -3.653084e+01  -1.352505e+01
   2.939826e+01  -3.042877e+01
   8.820257e+01  -2.061677e+01
