
 $NMID
 id='ANONYMOUS ', fmtdat='(2E16.6)'
 volume=1.0
 tramp=1.0
 $END
   4.147024e+03   8.629765e+01
   2.228336e+03   2.321913e+03
  -4.727174e+02   2.564284e+03
  -1.705072e+03   8.792209e+02
  -8.092694e+02  -4.145335e+02
   4.531508e+02  -4.611484e+02
   8.498177e+02   2.549881e+02
   1.426203e+02   8.778321e+02
  -7.704384e+02   7.735020e+02
  -8.527059e+02  -4.875385e+01
  -3.805193e+02  -7.772886e+02
   2.360657e+02  -8.214398e+02
   5.775511e+02  -9.686639e+01
   2.815460e+02   5.828714e+02
  -2.207418e+02   6.581908e+02
  -5.322831e+02   3.156985e+01
  -2.818289e+02  -6.866234e+02
   2.401907e+02  -6.744523e+02
   5.600773e+02  -2.054560e+02
   4.416454e+02   2.779909e+02
   8.425611e+01   4.366794e+02
  -2.197954e+02   2.624937e+02
  -1.637580e+02   2.323640e+00
   1.187234e+02   4.810718e-01
   3.725353e+02   1.604007e+02
   1.602348e+02   4.438599e+02
  -4.725019e+02   3.188356e+02
  -7.854644e+02  -1.239675e+02
  -3.993363e+02  -5.228909e+02
   3.886462e+02  -4.045363e+02
   7.019120e+02   7.325333e+01
   3.155493e+02   4.530769e+02
  -2.770525e+02   4.696844e+02
  -5.432743e+02   1.690008e+02
  -3.951429e+02  -2.317293e+02
  -7.656668e+01  -4.329203e+02
   1.815454e+02  -2.535517e+02
   1.175502e+02   1.969981e+02
  -1.645174e+02   3.523497e+02
  -3.658535e+02  -4.857039e+01
  -1.558529e+02  -6.389534e+02
   3.142004e+02  -6.175585e+02
   5.085998e+02   1.027316e+01
   1.958624e+02   4.998517e+02
  -2.572208e+02   2.645750e+02
  -3.099334e+02  -3.340373e+02
   8.621171e+01  -5.198716e+02
   5.180146e+02  -9.620584e+01
   5.481165e+02   4.202711e+02
   1.537443e+02   5.641592e+02
  -3.670306e+02   3.030832e+02
  -6.022767e+02  -1.063898e+02
  -3.564947e+02  -3.645778e+02
   1.394637e+02  -3.250149e+02
   4.103166e+02  -5.624593e+01
   2.363064e+02   1.514705e+02
  -7.929923e+01   8.072534e+01
  -1.107347e+02  -1.234943e+02
   1.486939e+02  -1.428165e+02
   3.068435e+02   7.716863e+01
   1.256290e+02   2.754676e+02
  -2.001345e+02   2.534726e+02
  -3.431820e+02   7.997024e+01
  -2.218311e+02  -1.074762e+02
   2.639870e+01  -2.690165e+02
   2.544686e+02  -3.424149e+02
   3.603990e+02  -1.945578e+02
   2.784686e+02   1.533450e+02
   6.422122e+01   4.177285e+02
  -9.672513e+01   3.652879e+02
  -9.243945e+01   1.294182e+02
  -3.247366e+01   2.199855e+01
  -8.468327e+01   9.139339e+01
  -2.188124e+02   1.002968e+02
  -2.584942e+02  -8.083687e+01
  -1.213027e+02  -2.721957e+02
   8.991592e+01  -2.360326e+02
   2.171240e+02   1.340985e+01
   1.771271e+02   2.562509e+02
  -2.625886e+01   2.943375e+02
  -2.714636e+02   9.989476e+01
  -3.566729e+02  -1.797750e+02
  -1.842867e+02  -3.487029e+02
   9.256488e+01  -2.988586e+02
   2.173114e+02  -1.275508e+02
   1.485187e+02  -2.638214e+01
   1.104371e+02  -5.218581e+01
   2.506558e+02  -5.626838e+01
   4.095036e+02   7.464313e+01
   3.335711e+02   2.991651e+02
  -1.716017e+01   4.468870e+02
  -3.797832e+02   4.038301e+02
  -4.996585e+02   1.819747e+02
  -3.235624e+02  -1.117384e+02
  -3.412247e+01  -2.935679e+02
   1.339299e+02  -2.375146e+02
   7.008520e+01  -2.412040e+01
  -1.123837e+02   9.579870e+01
  -1.817131e+02  -1.391649e+01
  -3.773754e+01  -1.833794e+02
   1.492357e+02  -1.556615e+02
   1.572016e+02   5.911352e+01
  -2.593921e+01   1.758117e+02
  -1.855327e+02   2.075307e+01
  -1.561496e+02  -2.492695e+02
   3.447678e+01  -3.529744e+02
   2.386155e+02  -2.005301e+02
   3.395019e+02   6.304302e+01
   2.813724e+02   2.506060e+02
   8.476161e+01   2.732842e+02
  -1.209904e+02   1.572704e+02
  -1.714576e+02   1.454015e+01
  -5.040361e+01  -2.851303e+01
   6.611348e+01   4.816540e+01
   1.727681e+01   1.259024e+02
  -1.283423e+02   9.046056e+01
  -1.713982e+02  -2.066333e+01
  -4.951446e+01  -7.158583e+01
   8.079999e+01  -8.284092e+00
   4.822321e+01   8.133465e+01
  -1.330089e+02   8.766730e+01
  -2.879720e+02  -1.045940e+01
  -2.599940e+02  -1.554823e+02
  -4.760136e+01  -2.626071e+02
   1.963649e+02  -2.543555e+02
   2.840611e+02  -1.153731e+02
   1.626355e+02   5.287368e+01
  -2.683321e+01   1.018392e+02
  -8.264044e+01   4.186050e+00
   4.189124e+01  -9.450047e+01
   1.955366e+02  -4.930595e+01
   2.057730e+02   1.063767e+02
   6.225655e+01   2.054094e+02
  -9.701217e+01   1.529976e+02
  -1.423160e+02   2.329065e+01
  -6.425291e+01  -4.444992e+01
   3.509304e+01   1.729166e+00
   3.817073e+01   9.315162e+01
  -7.875226e+01   1.183200e+02
  -2.057230e+02   2.506711e+01
  -1.927797e+02  -1.302546e+02
  -1.846263e+01  -2.193063e+02
   1.650849e+02  -1.609227e+02
   1.907845e+02  -6.085186e+00
   6.231299e+01   1.092204e+02
  -6.657978e+01   1.064617e+02
  -8.153581e+01   2.874501e+01
  -1.588694e+01  -2.638259e+01
   2.519470e+01  -1.836304e+01
  -8.210339e+00   9.516842e+00
  -7.297336e+01  -7.996652e+00
  -9.111743e+01  -8.410646e+01
  -1.348262e+01  -1.626939e+02
   1.323978e+02  -1.519036e+02
   2.375368e+02  -1.986830e+01
   2.014375e+02   1.556425e+02
   3.868972e+01   2.376676e+02
  -1.108722e+02   1.678483e+02
  -1.384519e+02   2.746450e+01
  -7.327879e+01  -5.373934e+01
  -2.897460e+01  -3.590653e+01
  -5.174229e+01   1.065880e+01
  -8.133155e+01   5.515084e+00
  -4.645779e+01  -5.115769e+01
   4.160650e+01  -9.371891e+01
   1.092362e+02  -5.915694e+01
   9.230549e+01   3.839127e+01
  -1.342099e+01   1.176901e+02
  -1.492875e+02   8.864934e+01
  -2.016282e+02  -5.650293e+01
  -9.862111e+01  -2.072285e+02
   1.104121e+02  -2.288038e+02
   2.683807e+02  -9.300237e+01
   2.559977e+02   8.759616e+01
   1.087210e+02   1.760509e+02
  -3.855907e+01   1.459150e+02
  -9.497613e+01   8.360717e+01
  -7.992503e+01   6.875872e+01
  -6.656900e+01   9.055262e+01
  -9.252010e+01   7.470184e+01
  -1.288474e+02  -2.231910e+01
  -1.176137e+02  -1.565331e+02
  -2.738231e+01  -2.290172e+02
   1.024499e+02  -1.721104e+02
   1.776436e+02  -1.648546e+01
   1.353359e+02   1.271564e+02
   1.548949e+01   1.627389e+02
  -7.297842e+01   9.124148e+01
  -6.428455e+01  -3.808344e+00
  -4.143700e+00  -4.768530e+01
   1.522447e+01  -3.704924e+01
  -3.280693e+01  -1.737402e+01
  -8.031609e+01  -2.087512e+01
  -4.637812e+01  -3.805710e+01
   6.574759e+01  -3.800835e+01
   1.612241e+02  -2.102869e+00
   1.432749e+02   5.474434e+01
   1.170295e+01   9.202291e+01
  -1.237252e+02   7.472678e+01
  -1.467578e+02   1.165490e+01
  -5.086908e+01  -4.432620e+01
   5.678815e+01  -4.156732e+01
   7.660415e+01   1.491072e+01
   1.412187e+01   6.620978e+01
  -4.941527e+01   5.883796e+01
  -6.273930e+01   6.691183e-01
  -4.714597e+01  -4.808277e+01
  -4.394175e+01  -4.150540e+01
  -5.888002e+01  -2.907392e+00
  -6.568087e+01  -1.794878e+00
  -3.761858e+01  -6.868521e+01
   3.250845e+01  -1.457761e+02
   1.211778e+02  -1.400455e+02
   1.702856e+02  -3.106858e+01
   1.248024e+02   9.365518e+01
   3.408252e+00   1.285665e+02
  -8.969154e+01   6.427002e+01
  -6.183360e+01  -1.282697e+01
   5.790075e+01  -1.857199e+01
   1.348417e+02   4.353003e+01
   7.272803e+01   1.056937e+02
  -8.255402e+01   1.081632e+02
  -1.899979e+02   4.629769e+01
  -1.587941e+02  -3.734033e+01
  -3.238573e+01  -8.524996e+01
   6.450331e+01  -6.484047e+01
   4.978710e+01  -2.313793e+00
  -4.005341e+01   2.886361e+01
  -9.295669e+01  -2.191375e+01
  -3.588688e+01  -1.178284e+02
   8.870614e+01  -1.536320e+02
   1.659227e+02  -6.299376e+01
   1.265699e+02   9.928456e+01
   9.838318e+00   1.960812e+02
  -8.704007e+01   1.423021e+02
  -1.050060e+02  -9.016742e+00
  -5.782102e+01  -1.190466e+02
   6.111324e+00  -1.051943e+02
   4.719001e+01  -1.804951e+01
   4.912265e+01   3.219594e+01
   2.286802e+01   8.912165e+00
   4.787884e+00  -1.990049e+01
   2.341997e+01   1.593284e+01
   5.528916e+01   8.864706e+01
   3.772165e+01   1.091141e+02
  -5.020903e+01   4.584303e+01
  -1.375057e+02  -3.866826e+01
  -1.277954e+02  -7.269695e+01
  -1.843419e+01  -5.349379e+01
   8.553515e+01  -2.454416e+01
   8.908092e+01  -6.367704e+00
   1.493937e+01   9.773795e+00
  -3.652377e+01   2.243138e+01
  -1.726062e+01   1.666530e+01
   1.777610e+01  -1.616283e+00
  -4.035060e+00  -7.335169e+00
  -6.938518e+01  -2.281694e+00
  -9.142985e+01  -2.381567e+01
  -1.552848e+01  -8.039099e+01
   1.111981e+02  -1.144154e+02
   1.853387e+02  -6.074812e+01
   1.472133e+02   6.243775e+01
   3.050753e+01   1.579857e+02
  -7.799163e+01   1.501244e+02
  -1.148688e+02   6.234816e+01
  -8.082027e+01  -1.812687e+01
  -2.613324e+01  -3.534319e+01
   4.060335e-01  -1.111694e+01
  -1.155646e+01  -6.530428e+00
  -3.114250e+01  -4.680419e+01
  -1.939425e+01  -8.996550e+01
   3.014658e+01  -7.164467e+01
   7.982983e+01   1.720355e+01
   7.698001e+01   1.067630e+02
   6.771840e+00   1.128519e+02
  -7.981181e+01   2.742908e+01
  -1.036974e+02  -7.237242e+01
  -3.484312e+01  -1.043473e+02
   6.499703e+01  -5.927683e+01
   9.975264e+01   1.041603e+01
   4.222721e+01   5.322704e+01
  -3.234338e+01   5.551088e+01
  -3.435070e+01   2.937637e+01
   2.993106e+01  -1.007562e+00
   6.761410e+01  -6.848116e+00
   1.586818e+01   2.518154e+01
  -7.862680e+01   6.429104e+01
  -1.177583e+02   5.554014e+01
  -6.742705e+01  -1.371360e+01
   1.488691e+01  -8.326468e+01
   5.607850e+01  -8.098840e+01
   4.147109e+01  -9.126977e+00
   4.109610e+00   5.400317e+01
  -2.543862e+01   4.568945e+01
  -3.731630e+01  -1.407764e+01
  -2.701321e+01  -5.346757e+01
   2.750131e+00  -3.630495e+01
   3.387540e+01   6.275410e+00
   4.067890e+01   2.309395e+01
   2.086897e+01   4.108293e+00
  -1.819006e+00  -1.489177e+01
  -7.430991e+00  -1.307507e+00
  -3.993819e+00   3.391008e+01
  -1.144362e+01   4.674473e+01
  -2.948845e+01   1.285217e+01
  -3.287407e+01  -4.077671e+01
  -3.098786e+00  -6.010626e+01
   4.189545e+01  -2.266564e+01
   5.744342e+01   3.586986e+01
   1.672108e+01   6.096475e+01
  -5.348363e+01   3.407392e+01
  -8.808215e+01  -1.388283e+01
  -4.879021e+01  -4.280220e+01
   2.842310e+01  -4.088513e+01
   6.482315e+01  -2.228315e+01
   2.636385e+01  -5.044931e+00
  -3.388093e+01  -4.147609e-01
  -3.700381e+01  -1.233660e+01
   2.651344e+01  -2.822674e+01
   8.598329e+01  -1.920157e+01
