
 $NMID
 id='ANONYMOUS ', fmtdat='(2E16.6)'
 volume=1.0
 tramp=1.0
 $END
  -4.431526e+03   2.143762e+02
  -2.430158e+03  -2.197832e+03
   7.104053e+02  -2.783572e+03
   1.878135e+03  -9.684258e+02
   1.046085e+03   3.061058e+02
  -4.600519e+02   2.846768e+02
  -7.574622e+02  -2.773464e+02
  -7.792543e+01  -9.319333e+02
   7.295408e+02  -7.518352e+02
   8.578227e+02  -3.816069e+01
   4.440022e+02   7.418283e+02
  -2.159338e+02   9.242993e+02
  -5.606240e+02   1.210441e+02
  -2.825065e+02  -5.857368e+02
   1.835387e+02  -7.248770e+02
   5.283086e+02  -6.522566e+01
   3.457716e+02   5.884172e+02
  -2.408603e+02   7.602222e+02
  -5.859094e+02   2.259711e+02
  -4.694552e+02  -3.110252e+02
  -9.261847e+01  -4.355581e+02
   2.157450e+02  -2.898513e+02
   1.706592e+02  -3.831026e+01
  -1.454956e+02   3.710643e+01
  -4.116193e+02  -1.983279e+02
  -1.295343e+02  -4.175892e+02
   4.858382e+02  -3.211318e+02
   8.279922e+02   1.414112e+02
   3.711674e+02   5.190852e+02
  -3.761136e+02   4.174425e+02
  -6.733718e+02  -4.891755e+01
  -3.107903e+02  -4.517501e+02
   2.759027e+02  -4.548749e+02
   5.454276e+02  -1.844061e+02
   3.865374e+02   2.049645e+02
   6.512063e+01   4.306018e+02
  -1.628562e+02   2.732857e+02
  -1.219825e+02  -1.828737e+02
   1.731087e+02  -3.831334e+02
   3.710208e+02   3.341882e+01
   1.639113e+02   6.149217e+02
  -3.121977e+02   6.268760e+02
  -5.164577e+02  -4.947585e+00
  -1.960395e+02  -5.031443e+02
   2.668427e+02  -2.688752e+02
   3.235388e+02   3.343861e+02
  -9.608011e+01   5.218021e+02
  -5.323781e+02   1.122677e+02
  -5.746807e+02  -4.194155e+02
  -1.633903e+02  -5.806052e+02
   3.731857e+02  -3.346244e+02
   6.174298e+02   8.017165e+01
   3.753638e+02   3.538627e+02
  -1.181817e+02   3.368451e+02
  -3.974935e+02   8.256417e+01
  -2.364055e+02  -1.339805e+02
   7.929852e+01  -8.081902e+01
   1.162187e+02   1.164509e+02
  -1.452669e+02   1.456735e+02
  -3.144929e+02  -6.502019e+01
  -1.340038e+02  -2.701713e+02
   2.076247e+02  -2.618419e+02
   3.683838e+02  -8.931296e+01
   2.449166e+02   1.121241e+02
  -2.350898e+01   2.895178e+02
  -2.675923e+02   3.687628e+02
  -3.758007e+02   2.116844e+02
  -2.906535e+02  -1.530326e+02
  -7.132399e+01  -4.293570e+02
   9.538078e+01  -3.798199e+02
   9.494743e+01  -1.402524e+02
   3.722103e+01  -2.587588e+01
   9.209158e+01  -8.877493e+01
   2.325182e+02  -9.217157e+01
   2.717345e+02   9.512122e+01
   1.212796e+02   2.888512e+02
  -1.028467e+02   2.462366e+02
  -2.295867e+02  -1.227045e+01
  -1.800725e+02  -2.604540e+02
   2.847147e+01  -2.936691e+02
   2.702844e+02  -9.920129e+01
   3.505438e+02   1.848080e+02
   1.795518e+02   3.482126e+02
  -9.084836e+01   2.977816e+02
  -2.123246e+02   1.329906e+02
  -1.520136e+02   3.222400e+01
  -1.227964e+02   5.248870e+01
  -2.659909e+02   5.428518e+01
  -4.292669e+02  -8.515395e+01
  -3.367328e+02  -3.139553e+02
   2.565235e+01  -4.604721e+02
   4.012098e+02  -4.184540e+02
   5.158653e+02  -1.896294e+02
   3.340482e+02   1.064689e+02
   4.017057e+01   2.959641e+02
  -1.290503e+02   2.494708e+02
  -6.306872e+01   3.800518e+01
   1.145413e+02  -8.669943e+01
   1.783050e+02   1.734594e+01
   3.405476e+01   1.815718e+02
  -1.524985e+02   1.498231e+02
  -1.589428e+02  -6.189016e+01
   2.629361e+01  -1.755186e+02
   1.915245e+02  -1.664495e+01
   1.596197e+02   2.563805e+02
  -3.752709e+01   3.600452e+02
  -2.480517e+02   2.028030e+02
  -3.471420e+02  -6.997206e+01
  -2.809643e+02  -2.620934e+02
  -7.914607e+01  -2.795472e+02
   1.261020e+02  -1.538953e+02
   1.747948e+02  -8.799676e+00
   5.080230e+01   2.999989e+01
  -6.592976e+01  -5.035581e+01
  -1.626634e+01  -1.260150e+02
   1.327393e+02  -8.564502e+01
   1.748633e+02   2.621533e+01
   4.747487e+01   7.125105e+01
  -8.797673e+01   2.994120e+00
  -5.208867e+01  -8.628243e+01
   1.395527e+02  -8.684949e+01
   3.012665e+02   1.738544e+01
   2.677774e+02   1.645197e+02
   4.251980e+01   2.685494e+02
  -2.087660e+02   2.546387e+02
  -2.925149e+02   1.123469e+02
  -1.619241e+02  -5.523756e+01
   3.202453e+01  -1.012045e+02
   8.420534e+01  -1.038226e+00
  -4.662297e+01   9.758732e+01
  -2.026920e+02   4.799495e+01
  -2.096063e+02  -1.118630e+02
  -6.138344e+01  -2.109277e+02
   9.981574e+01  -1.546861e+02
   1.432063e+02  -2.336898e+01
   6.369863e+01   4.209099e+01
  -3.409810e+01  -6.599484e+00
  -3.431606e+01  -9.584163e+01
   8.425058e+01  -1.159169e+02
   2.101709e+02  -1.918739e+01
   1.935163e+02   1.346994e+02
   1.439204e+01   2.211309e+02
  -1.720576e+02   1.598170e+02
  -1.954103e+02   3.454015e+00
  -6.067484e+01  -1.122593e+02
   7.175727e+01  -1.060666e+02
   8.326282e+01  -2.666573e+01
   1.198620e+01   2.607678e+01
  -2.843716e+01   1.482780e+01
   1.060512e+01  -1.323982e+01
   7.956036e+01   9.694328e+00
   9.396051e+01   9.218880e+01
   7.811776e+00   1.698596e+02
  -1.408262e+02   1.534437e+02
  -2.426076e+02   1.542572e+01
  -1.995597e+02  -1.619884e+02
  -3.572539e+01  -2.417584e+02
   1.132814e+02  -1.693714e+02
   1.378731e+02  -2.749507e+01
   7.187107e+01   5.407433e+01
   3.158713e+01   3.566163e+01
   5.769615e+01  -1.182797e+01
   8.602944e+01  -4.265325e+00
   4.641620e+01   5.539837e+01
  -4.546066e+01   9.727382e+01
  -1.149431e+02   6.032653e+01
  -9.663397e+01  -4.189423e+01
   1.592871e+01  -1.211065e+02
   1.536219e+02  -8.705109e+01
   2.049900e+02   6.262160e+01
   9.460998e+01   2.133941e+02
  -1.196357e+02   2.286717e+02
  -2.769286e+02   8.703644e+01
  -2.602889e+02  -9.452530e+01
  -1.079523e+02  -1.800147e+02
   4.194564e+01  -1.480202e+02
   9.837754e+01  -8.487721e+01
   8.288564e+01  -7.160682e+01
   6.951561e+01  -9.397844e+01
   9.642129e+01  -7.597364e+01
   1.320340e+02   2.538558e+01
   1.182311e+02   1.633485e+02
   2.472297e+01   2.356333e+02
  -1.075671e+02   1.744526e+02
  -1.824995e+02   1.319654e+01
  -1.369278e+02  -1.326539e+02
  -1.327399e+01  -1.661276e+02
   7.525453e+01  -9.178325e+01
   6.361402e+01   3.973047e+00
   9.745870e-01   4.626885e+01
  -1.660339e+01   3.530772e+01
   3.580273e+01   1.763305e+01
   8.537900e+01   2.394873e+01
   4.821324e+01   4.118459e+01
  -7.029317e+01   3.809847e+01
  -1.692738e+02  -1.480153e+00
  -1.474925e+02  -5.932389e+01
  -9.401534e+00  -9.440804e+01
   1.291397e+02  -7.389018e+01
   1.493010e+02  -9.511890e+00
   4.875080e+01   4.428204e+01
  -6.017872e+01   3.819523e+01
  -7.636173e+01  -2.016277e+01
  -9.754707e+00  -7.028350e+01
   5.422565e+01  -5.929646e+01
   6.555794e+01   2.102803e+00
   4.823086e+01   5.197328e+01
   4.573814e+01   4.399092e+01
   6.255115e+01   3.895927e+00
   6.929747e+01   3.386314e+00
   3.791543e+01   7.379079e+01
  -3.708789e+01   1.529115e+02
  -1.287057e+02   1.444181e+02
  -1.772047e+02   3.000559e+01
  -1.278479e+02  -9.859592e+01
  -2.407500e+00  -1.331514e+02
   9.172385e+01  -6.480482e+01
   6.138141e+01   1.376801e+01
  -6.084446e+01   1.646035e+01
  -1.374737e+02  -5.050394e+01
  -7.052706e+01  -1.132500e+02
   9.002570e+01  -1.109424e+02
   1.995431e+02  -4.190638e+01
   1.650250e+02   4.550274e+01
   3.246041e+01   9.192905e+01
  -6.866569e+01   6.847348e+01
  -5.342925e+01   3.259029e+00
   3.904678e+01  -2.898727e+01
   9.310375e+01   2.286922e+01
   3.432206e+01   1.207210e+02
  -9.269654e+01   1.570745e+02
  -1.705604e+02   6.355571e+01
  -1.288509e+02  -1.032825e+02
  -8.600521e+00  -2.026061e+02
   9.062126e+01  -1.458754e+02
   1.082539e+02   1.120376e+01
   5.833581e+01   1.242629e+02
  -8.597827e+00   1.085595e+02
  -5.021275e+01   1.741596e+01
  -5.062693e+01  -3.401654e+01
  -2.280362e+01  -8.790553e+00
  -4.772335e+00   2.060777e+01
  -2.406073e+01  -1.771768e+01
  -5.642411e+01  -9.291718e+01
  -3.788419e+01  -1.124804e+02
   5.188153e+01  -4.497131e+01
   1.406265e+02   4.271501e+01
   1.307135e+02   7.542159e+01
   1.881208e+01   5.318904e+01
  -8.788889e+01   2.316515e+01
  -9.147701e+01   6.335410e+00
  -1.501060e+01  -8.762340e+00
   3.821015e+01  -2.199012e+01
   1.781256e+01  -1.707236e+01
  -1.904565e+01   2.063411e+00
   3.493891e+00   8.762498e+00
   7.138146e+01   4.192474e+00
   9.362693e+01   2.483922e+01
   1.379877e+01   8.118113e+01
  -1.175182e+02   1.154094e+02
  -1.917299e+02   6.023445e+01
  -1.490720e+02  -6.607404e+01
  -2.714212e+01  -1.632384e+02
   8.327121e+01  -1.535213e+02
   1.183281e+02  -6.189402e+01
   8.193295e+01   2.082976e+01
   2.577707e+01   3.681937e+01
  -3.141430e-01   1.091857e+01
   1.233776e+01   6.867029e+00
   3.170157e+01   4.937265e+01
   1.893499e+01   9.363275e+01
  -3.204071e+01   7.367531e+01
  -8.208568e+01  -1.875071e+01
  -7.863034e+01  -1.103495e+02
  -7.256790e+00  -1.157850e+02
   8.091709e+01  -2.756966e+01
   1.050333e+02   7.416330e+01
   3.494869e+01   1.060358e+02
  -6.688846e+01   5.905791e+01
  -1.016481e+02  -1.231776e+01
  -4.154048e+01  -5.539143e+01
   3.517433e+01  -5.617552e+01
   3.626309e+01  -2.855722e+01
  -3.182701e+01   1.793663e+00
  -7.125164e+01   6.463303e+00
  -1.665226e+01  -2.653227e+01
   8.202339e+01  -6.562247e+01
   1.220088e+02  -5.609532e+01
   6.871196e+01   1.440950e+01
  -1.619314e+01   8.487637e+01
  -5.744878e+01   8.275418e+01
  -4.122526e+01   1.008893e+01
  -3.461156e+00  -5.431030e+01
   2.492707e+01  -4.572557e+01
   3.570621e+01   1.483550e+01
   2.635979e+01   5.433655e+01
  -1.991450e+00   3.572062e+01
  -3.279106e+01  -8.371635e+00
  -4.085734e+01  -2.466268e+01
  -2.193013e+01  -3.196799e+00
   1.404676e+00   1.678225e+01
   7.852157e+00   1.319983e+00
   5.119344e+00  -3.639818e+01
   1.328286e+01  -4.913525e+01
   3.155209e+01  -1.205854e+01
   3.406776e+01   4.458727e+01
   2.605289e+00   6.301181e+01
  -4.383604e+01   2.238043e+01
  -5.899896e+01  -3.855825e+01
  -1.600854e+01  -6.269481e+01
   5.649831e+01  -3.311050e+01
   9.088770e+01   1.649685e+01
   4.903700e+01   4.490113e+01
  -3.066353e+01   4.163039e+01
  -6.715763e+01   2.253868e+01
  -2.683796e+01   5.188633e+00
   3.478497e+01   6.493976e-01
   3.718511e+01   1.211212e+01
  -2.823960e+01   2.789305e+01
  -8.829075e+01   1.875285e+01
