
 $NMID
 id='ANONYMOUS ', fmtdat='(2E16.6)'
 volume=1.0
 tramp=1.0
 $END
  -3.811067e+03  -5.495310e+01
  -2.313796e+03  -2.016046e+03
   1.509775e+02  -2.503571e+03
   1.441649e+03  -1.218808e+03
   1.098914e+03   3.045777e+01
  -1.860464e+02   3.452825e+02
  -5.081409e+02  -1.935112e+02
  -5.091940e+01  -6.661271e+02
   6.464685e+02  -5.858108e+02
   8.234877e+02  -1.302523e+02
   4.424990e+02   6.338278e+02
  -8.159945e+01   6.988789e+02
  -4.487869e+02   1.233635e+02
  -2.398127e+02  -5.420233e+02
   1.162476e+02  -6.186491e+02
   5.000556e+02  -7.788423e+01
   2.899521e+02   5.293791e+02
  -9.454154e+01   6.629135e+02
  -5.389384e+02   2.853536e+02
  -4.694703e+02  -2.167843e+02
  -1.456952e+02  -4.047260e+02
   1.524479e+02  -2.856199e+02
   1.458973e+02  -9.075838e+01
  -1.620635e+02  -6.027582e+01
  -3.068727e+02  -2.725898e+02
  -2.300460e+01  -3.593332e+02
   5.007132e+02  -2.044205e+02
   6.915728e+02   1.511002e+02
   2.779892e+02   4.213275e+02
  -3.519396e+02   2.708632e+02
  -5.785774e+02  -1.129361e+02
  -2.214100e+02  -4.051425e+02
   2.780189e+02  -3.950305e+02
   5.159388e+02  -1.478197e+02
   3.679226e+02   1.927439e+02
   8.570451e+01   3.516470e+02
  -5.961479e+01   2.186026e+02
   1.283736e+01  -9.775852e+01
   1.712747e+02  -2.073831e+02
   2.238590e+02   1.266155e+02
   4.772195e+01   5.180628e+02
  -2.409380e+02   4.944137e+02
  -3.819902e+02   8.721033e+00
  -1.680786e+02  -3.603144e+02
   1.668657e+02  -2.010814e+02
   2.170874e+02   2.544650e+02
  -6.612942e+01   4.211564e+02
  -4.588769e+02   1.023317e+02
  -5.339991e+02  -3.610090e+02
  -1.990601e+02  -5.144370e+02
   3.001267e+02  -3.035673e+02
   5.505328e+02   4.348468e+01
   3.702306e+02   2.613127e+02
  -4.967313e+01   2.543541e+02
  -3.140625e+02   9.491510e+01
  -2.369082e+02  -4.518107e+01
   1.479854e-01  -4.138813e+01
   6.788596e+01   5.023642e+01
  -9.842168e+01   6.975413e+01
  -2.414841e+02  -5.204632e+01
  -1.262579e+02  -2.096168e+02
   1.680212e+02  -2.520081e+02
   3.580596e+02  -1.281993e+02
   2.692737e+02   1.015303e+02
  -1.827598e+01   3.194611e+02
  -2.895279e+02   3.778055e+02
  -3.747360e+02   1.868174e+02
  -2.578928e+02  -1.525788e+02
  -6.593458e+01  -3.820991e+02
   4.641141e+01  -3.484967e+02
   4.058580e+01  -1.720949e+02
   2.863568e+01  -8.420087e+01
   1.156710e+02  -1.117923e+02
   2.460492e+02  -8.071557e+01
   2.644407e+02   9.929137e+01
   1.181060e+02   2.687808e+02
  -9.104282e+01   2.205380e+02
  -2.058489e+02  -2.810581e+01
  -1.539855e+02  -2.532917e+02
   4.497647e+01  -2.641390e+02
   2.548528e+02  -6.625030e+01
   3.204010e+02   1.810974e+02
   1.681657e+02   3.141870e+02
  -6.260478e+01   2.752402e+02
  -1.823659e+02   1.531606e+02
  -1.563347e+02   6.791400e+01
  -1.486253e+02   5.439493e+01
  -2.758760e+02   2.993332e+01
  -4.106499e+02  -1.013906e+02
  -3.157704e+02  -2.996893e+02
   2.859214e+01  -4.372123e+02
   3.857997e+02  -3.969365e+02
   4.883977e+02  -1.768039e+02
   2.955476e+02   9.790608e+01
   1.919993e+01   2.597128e+02
  -1.046481e+02   2.116887e+02
  -2.328029e+01   4.082269e+01
   1.178669e+02  -5.478153e+01
   1.418845e+02   2.476536e+01
   1.349848e+01   1.490807e+02
  -1.244752e+02   1.218266e+02
  -1.206856e+02  -4.839879e+01
   2.568569e+01  -1.405418e+02
   1.642318e+02  -6.075385e+00
   1.458835e+02   2.398238e+02
  -3.240168e+01   3.470923e+02
  -2.521780e+02   2.043685e+02
  -3.616104e+02  -7.484011e+01
  -2.825036e+02  -2.769377e+02
  -6.237761e+01  -2.846567e+02
   1.356806e+02  -1.480973e+02
   1.649684e+02  -7.505855e+00
   4.329184e+01   1.791844e+01
  -5.394996e+01  -5.745481e+01
  -2.212255e+00  -1.160906e+02
   1.273889e+02  -7.248051e+01
   1.567594e+02   2.462423e+01
   3.760683e+01   5.910896e+01
  -8.374922e+01  -7.825451e+00
  -4.164716e+01  -9.092364e+01
   1.515315e+02  -8.771181e+01
   3.096465e+02   2.558198e+01
   2.625539e+02   1.773899e+02
   2.481767e+01   2.717580e+02
  -2.186741e+02   2.416378e+02
  -2.833422e+02   9.930696e+01
  -1.481145e+02  -5.128640e+01
   2.923505e+01  -8.704888e+01
   7.031732e+01  -2.259968e-01
  -4.916544e+01   8.174011e+01
  -1.889046e+02   3.556457e+01
  -1.968251e+02  -1.075301e+02
  -6.129378e+01  -1.963184e+02
   9.207731e+01  -1.437124e+02
   1.343955e+02  -2.128197e+01
   5.561181e+01   3.653458e+01
  -3.721902e+01  -1.896275e+01
  -2.471509e+01  -1.072944e+02
   1.006621e+02  -1.153912e+02
   2.160800e+02  -7.420221e+00
   1.841374e+02   1.434318e+02
   5.005284e+00   2.183929e+02
  -1.681093e+02   1.545647e+02
  -1.850174e+02   6.574411e+00
  -5.806866e+01  -1.048882e+02
   6.669241e+01  -1.032020e+02
   7.756499e+01  -2.621813e+01
   6.702095e+00   2.823120e+01
  -3.571307e+01   1.387584e+01
   6.707538e+00  -2.215646e+01
   8.553678e+01  -6.932805e-01
   1.040748e+02   9.275087e+01
   1.060082e+01   1.773941e+02
  -1.450340e+02   1.557106e+02
  -2.444067e+02   9.188764e+00
  -1.968983e+02  -1.652499e+02
  -3.428170e+01  -2.363142e+02
   1.081250e+02  -1.634846e+02
   1.333794e+02  -2.818560e+01
   7.353404e+01   4.955490e+01
   3.275128e+01   3.154247e+01
   5.681749e+01  -1.676889e+01
   8.966343e+01  -8.416450e+00
   5.503166e+01   5.914264e+01
  -4.286492e+01   1.075012e+02
  -1.237069e+02   6.428915e+01
  -1.041760e+02  -4.999005e+01
   2.409112e+01  -1.305350e+02
   1.696386e+02  -8.435953e+01
   2.083763e+02   7.485856e+01
   8.103407e+01   2.223052e+02
  -1.344267e+02   2.256551e+02
  -2.792694e+02   7.788391e+01
  -2.521982e+02  -9.840175e+01
  -1.000689e+02  -1.795309e+02
   4.494165e+01  -1.438854e+02
   9.464896e+01  -8.090384e+01
   7.556899e+01  -6.913085e+01
   6.298094e+01  -9.551761e+01
   9.451688e+01  -7.982941e+01
   1.341150e+02   2.254370e+01
   1.184608e+02   1.617076e+02
   2.169175e+01   2.311088e+02
  -1.061224e+02   1.661856e+02
  -1.728728e+02   6.795960e+00
  -1.247199e+02  -1.316857e+02
  -5.715636e+00  -1.577630e+02
   7.694773e+01  -8.031809e+01
   6.106727e+01   1.560375e+01
  -6.861688e+00   5.435333e+01
  -2.846796e+01   3.491390e+01
   2.817441e+01   9.178528e+00
   8.753705e+01   1.481801e+01
   5.341600e+01   3.925885e+01
  -7.147381e+01   4.097727e+01
  -1.743511e+02  -8.109360e-01
  -1.459104e+02  -6.375405e+01
   1.099520e+00  -9.880347e+01
   1.371703e+02  -7.272729e+01
   1.473956e+02  -2.480733e+00
   4.226743e+01   5.284431e+01
  -6.447024e+01   4.271161e+01
  -7.954522e+01  -2.275980e+01
  -1.512070e+01  -7.852145e+01
   5.178992e+01  -6.733154e+01
   7.114399e+01   3.359199e-01
   5.772421e+01   5.494604e+01
   4.879993e+01   4.574834e+01
   5.863154e+01   2.869495e+00
   6.702250e+01   3.197838e+00
   4.283433e+01   7.670622e+01
  -3.196140e+01   1.570855e+02
  -1.309514e+02   1.470973e+02
  -1.842863e+02   3.037134e+01
  -1.317915e+02  -9.962552e+01
   1.952359e-01  -1.362064e+02
   9.655221e+01  -6.836103e+01
   6.423983e+01   1.413923e+01
  -6.073126e+01   2.362059e+01
  -1.386988e+02  -4.188922e+01
  -7.300722e+01  -1.106487e+02
   8.596900e+01  -1.136217e+02
   1.934757e+02  -4.543431e+01
   1.593693e+02   4.308019e+01
   3.105748e+01   8.827294e+01
  -6.401222e+01   6.296928e+01
  -4.741311e+01  -6.059935e-02
   4.167993e+01  -2.901122e+01
   9.213507e+01   2.304956e+01
   3.600765e+01   1.189436e+02
  -8.520330e+01   1.565490e+02
  -1.630693e+02   6.762181e+01
  -1.280824e+02  -9.647272e+01
  -1.347918e+01  -1.971528e+02
   8.733617e+01  -1.426926e+02
   1.081702e+02   1.270176e+01
   5.627958e+01   1.235716e+02
  -1.398501e+01   1.057688e+02
  -5.342141e+01   1.579896e+01
  -4.721308e+01  -3.256946e+01
  -1.802849e+01  -7.422333e+00
  -5.842459e+00   1.797740e+01
  -2.974047e+01  -2.156256e+01
  -5.758178e+01  -9.242049e+01
  -3.205850e+01  -1.076371e+02
   5.698416e+01  -4.267252e+01
   1.377886e+02   3.967662e+01
   1.237755e+02   7.303246e+01
   1.672599e+01   5.506313e+01
  -8.363010e+01   2.529017e+01
  -8.831221e+01   3.682502e+00
  -1.666998e+01  -1.366131e+01
   3.610290e+01  -2.299816e+01
   2.052025e+01  -1.345712e+01
  -1.446505e+01   4.298313e+00
   3.673862e+00   6.919004e+00
   6.783979e+01   9.061015e-01
   9.391924e+01   2.371833e+01
   2.151967e+01   8.275115e+01
  -1.093686e+02   1.188918e+02
  -1.914353e+02   6.559620e+01
  -1.559579e+02  -6.034398e+01
  -3.291280e+01  -1.609634e+02
   8.240539e+01  -1.552936e+02
   1.193381e+02  -6.502404e+01
   8.139424e+01   1.951837e+01
   2.533356e+01   3.757448e+01
   1.138219e+00   1.222149e+01
   1.377238e+01   8.053294e+00
   3.058819e+01   4.990652e+01
   1.731657e+01   9.253980e+01
  -3.060410e+01   7.222422e+01
  -7.933763e+01  -1.647064e+01
  -7.934115e+01  -1.041880e+02
  -1.193866e+01  -1.117174e+02
   7.703932e+01  -3.051236e+01
   1.057002e+02   6.801169e+01
   3.750168e+01   1.051510e+02
  -6.759385e+01   6.372608e+01
  -1.056790e+02  -9.786070e+00
  -4.439890e+01  -5.996212e+01
   3.702052e+01  -6.292222e+01
   4.155629e+01  -2.973546e+01
  -2.709497e+01   5.711502e+00
  -6.981801e+01   9.230389e+00
  -1.844043e+01  -2.719873e+01
   7.996027e+01  -6.600548e+01
   1.227917e+02  -5.324221e+01
   7.156656e+01   1.778605e+01
  -1.459741e+01   8.586795e+01
  -5.934951e+01   8.203996e+01
  -4.529504e+01   1.045356e+01
  -5.750659e+00  -5.360030e+01
   2.583679e+01  -4.683900e+01
   3.779025e+01   1.341916e+01
   2.731337e+01   5.554575e+01
  -2.951169e+00   3.901272e+01
  -3.447668e+01  -7.226687e+00
  -4.137970e+01  -2.663244e+01
  -2.019462e+01  -4.915328e+00
   3.241143e+00   1.986355e+01
   5.776360e+00   7.853090e+00
  -3.318986e+00  -3.386133e+01
   3.753987e+00  -5.432674e+01
   2.985532e+01  -2.183938e+01
   4.269295e+01   3.690103e+01
   1.286385e+01   6.222612e+01
  -4.147523e+01   2.691674e+01
  -6.434767e+01  -3.360036e+01
  -2.046730e+01  -6.131965e+01
   5.767068e+01  -3.635817e+01
   9.516834e+01   1.214549e+01
   5.208783e+01   4.454885e+01
  -2.983103e+01   4.642492e+01
  -6.782933e+01   2.810228e+01
  -2.997054e+01   5.930081e+00
   2.967422e+01  -4.388826e+00
   3.485941e+01   6.576545e+00
  -2.337353e+01   2.670138e+01
  -7.992110e+01   2.199393e+01
