
 $NMID
 id='ANONYMOUS ', fmtdat='(2E16.6)'
 volume=1.0
 tramp=1.0
 $END
  -6.084575e+02  -2.152585e+01
   1.582068e+02   1.565220e+02
  -5.035685e+01   6.349987e+01
   1.891627e+02  -9.998543e+01
  -9.135089e+01   5.464145e+00
   3.510473e+01   1.628939e+00
  -6.280382e+00   4.180191e+01
   3.879565e+00  -9.675857e+01
  -2.764550e+01  -1.585887e+01
  -3.356301e+01  -3.668353e+01
  -2.692057e+01   8.090302e+01
   1.697740e+01   7.848481e+01
   6.780613e+01  -2.948428e-01
   1.777024e+00  -5.156626e+01
   8.032350e+00  -3.568137e+01
  -6.651914e+00  -7.967782e+00
   6.049331e+00   3.885624e+01
   4.698660e+00   1.021681e+01
  -1.896778e+01   2.160649e+01
  -1.844584e+01   9.758555e+00
   2.997847e+01   1.844630e+01
   4.877241e+00   1.057535e-01
   2.804506e+01  -1.535586e+01
   2.027351e+00  -4.323263e-01
   1.342201e+00  -5.654310e+00
   1.064924e+00  -9.722957e-01
  -2.778413e+01  -5.347047e-01
  -1.058912e+01   2.564648e+01
  -1.589509e+01   6.083905e+00
   1.598822e+01  -1.225150e+01
   1.309251e+00  -5.186903e+00
   6.749905e+00  -3.372197e+00
  -1.481735e+00   2.368807e+01
  -7.896630e+00  -8.128801e+00
  -1.029287e+01  -1.303104e+01
  -1.361666e+01  -1.030556e+01
   3.312074e+00   2.298752e-02
  -3.893054e-01   2.554387e+01
   1.206929e+01   1.081842e+01
  -3.732897e+00  -3.362058e+00
  -1.214037e+01  -4.525329e+00
  -9.724366e-01   3.805763e-01
  -5.586345e+00  -9.364985e+00
   4.555883e+00  -1.263076e+01
  -1.635641e+00  -1.143971e+00
  -4.610521e+00   6.607715e+00
  -3.853898e+00   6.077989e+00
  -2.423878e+00  -7.560279e+00
   2.022996e+00  -8.915051e+00
   4.078207e+00  -2.835391e+00
   4.615382e-01   3.844999e+00
  -3.838604e+00  -2.239878e+00
  -4.604164e+00  -5.215901e+00
   5.444614e-01  -1.348587e+00
   4.633549e+00   5.166119e+00
   1.641566e+00   5.314929e+00
   1.985537e-01  -2.582790e-01
  -4.202561e-01  -4.994484e+00
  -1.165236e+00  -2.388948e+00
  -2.894604e+00   3.373103e+00
  -7.946482e-01   4.784084e+00
   3.350715e+00   4.702143e-01
   3.498434e+00  -3.860457e+00
  -6.899994e-01  -2.342536e+00
  -2.730546e+00   3.935640e-01
   7.635650e-01  -6.465593e-01
   4.167273e+00  -2.146978e+00
   3.533381e+00   6.031965e-01
   1.026265e+00   4.948128e+00
  -2.272169e-01   2.329203e+00
   8.187217e-02  -4.356266e+00
   1.994667e+00  -4.930111e+00
   2.733755e+00   2.275516e+00
   1.264136e+00   9.715385e+00
  -3.885081e+00   8.546685e+00
  -6.240495e+00  -2.173917e-01
  -3.918929e+00  -6.020586e+00
  -1.265243e+00  -5.191345e+00
   6.408082e-01   6.711369e-02
  -2.050188e+00   2.560352e+00
  -4.478189e+00   1.380383e+00
  -5.133352e+00  -2.967496e+00
  -2.990322e+00  -5.353465e+00
   2.074395e+00  -5.905368e+00
   6.845904e+00  -2.831720e+00
   1.784701e+00   1.102936e+00
  -2.136872e+00  -2.022271e+00
  -1.970188e+00  -4.839381e+00
   4.730787e+00  -6.677597e+00
   1.074717e+01  -9.174618e-01
   7.412887e+00   8.442340e+00
   2.253269e+00   1.183511e+01
  -6.324337e+00   8.387702e+00
  -6.992611e+00  -9.767852e-01
  -2.665998e+00  -3.070052e+00
   1.309146e+00  -2.137679e+00
   4.067572e+00   3.875834e+00
  -3.562050e+00   6.636190e+00
  -8.488055e+00   2.841940e+00
  -8.619116e+00  -3.666743e+00
  -1.915071e+00  -8.475078e+00
   6.230756e+00  -3.924027e+00
   4.679910e+00   1.666983e+00
  -2.661407e+00   4.244161e+00
  -7.326591e+00  -3.599201e-01
  -4.852760e+00  -8.229527e+00
   2.460802e+00  -9.555226e+00
   9.216485e+00  -4.290524e+00
   9.812119e+00   5.119503e+00
   3.558695e+00   9.055022e+00
  -3.931578e+00   5.436871e+00
  -5.449170e+00  -1.902379e+00
  -1.271949e-01  -3.990112e+00
   4.666114e+00   3.266683e-01
   3.484453e+00   6.586576e+00
  -2.377447e+00   7.495175e+00
  -6.361280e+00   2.455167e+00
  -4.190329e+00  -2.946810e+00
   5.438053e-01  -3.565352e+00
   2.838003e+00   9.644280e-01
  -2.472688e-01   6.191634e+00
  -6.842904e+00   6.010489e+00
  -1.015342e+01  -3.428950e-01
  -6.945617e+00  -8.802230e+00
   1.440168e+00  -1.232713e+01
   8.270642e+00  -6.964653e+00
   7.195181e+00   1.593657e+00
   1.139547e+00   5.492399e+00
  -3.021597e+00   2.267642e+00
  -1.135099e+00  -3.522057e+00
   4.988541e+00  -4.813226e+00
   7.947409e+00   3.725870e-01
   4.735187e+00   6.223672e+00
  -1.602470e+00   7.296356e+00
  -5.247715e+00   2.660785e+00
  -2.311079e+00  -2.281118e+00
   3.059753e+00  -1.456600e+00
   4.844913e+00   4.056199e+00
  -2.146078e-02   8.924452e+00
  -7.969355e+00   6.941594e+00
  -1.104340e+01  -1.490109e+00
  -6.582191e+00  -8.803754e+00
   1.715170e+00  -9.437644e+00
   6.787368e+00  -3.710616e+00
   5.062227e+00   2.637053e+00
  -3.260772e-01   3.962245e+00
  -3.048674e+00   7.311043e-01
  -9.212168e-01  -2.646436e+00
   3.777482e+00  -2.314539e+00
   3.968570e+00   1.409845e+00
   1.926472e-01   3.483248e+00
  -4.609402e+00   1.369794e+00
  -4.671135e+00  -3.885443e+00
   1.677717e+00  -7.309840e+00
   8.851461e+00  -3.590145e+00
   1.079845e+01   4.507392e+00
   4.263304e+00   1.059485e+01
  -4.530110e+00   8.393600e+00
  -8.746066e+00   2.104598e+00
  -5.694003e+00  -3.924749e+00
   5.761566e-01  -3.566867e+00
   1.988134e+00  -2.629946e-01
  -2.296097e-01   3.228043e+00
  -3.708501e+00   1.777326e+00
  -2.763739e+00  -3.090712e+00
   1.872596e+00  -4.159405e+00
   4.900392e+00  -1.672810e+00
   2.394361e+00   4.436535e+00
  -3.895802e+00   6.450924e+00
  -8.552396e+00   7.251399e-01
  -7.888007e+00  -6.940011e+00
   4.854382e-01  -1.203899e+01
   9.691630e+00  -8.364980e+00
   1.240319e+01   2.640132e-01
   7.508327e+00   6.627444e+00
   4.978405e-02   7.837502e+00
  -3.000265e+00   4.822805e+00
  -1.589998e+00   2.306748e+00
   2.357365e-01   2.781778e+00
  -1.998623e+00   4.432191e+00
  -6.001598e+00   3.348953e+00
  -7.747148e+00  -2.300807e+00
  -4.307269e+00  -8.264632e+00
   2.363576e+00  -8.603847e+00
   6.831333e+00  -2.885789e+00
   5.851610e+00   4.426949e+00
   7.479928e-01   7.061678e+00
  -4.194021e+00   3.350800e+00
  -4.696011e+00  -2.783907e+00
  -1.712686e+00  -5.703705e+00
   1.765522e+00  -3.859712e+00
   2.601687e+00   1.848366e-02
   6.781683e-01   1.421505e+00
  -8.442627e-01  -3.332275e-01
   9.478111e-01  -2.305764e+00
   4.526263e+00  -1.489585e+00
   5.509758e+00   2.071981e+00
   1.070986e+00   5.447638e+00
  -4.992850e+00   4.962152e+00
  -7.084058e+00   2.774284e-01
  -3.100411e+00  -4.624824e+00
   3.005858e+00  -5.387518e+00
   5.947262e+00  -1.241295e+00
   3.721647e+00   4.095863e+00
  -8.397915e-01   5.422187e+00
  -3.676749e+00   2.357285e+00
  -3.371875e+00  -1.611557e+00
  -1.050596e+00  -2.461629e+00
   1.350746e-01   2.302979e-01
  -1.076326e+00   2.320668e+00
  -2.845820e+00   1.819679e-01
  -2.563718e+00  -4.157526e+00
   4.146770e-01  -6.640076e+00
   4.787979e+00  -4.095429e+00
   5.536483e+00   1.578907e+00
   2.365765e+00   4.962118e+00
  -2.622811e+00   3.898874e+00
  -4.324809e+00  -4.386716e-01
  -5.602689e-01  -3.714525e+00
   4.332213e+00  -3.027815e+00
   5.965868e+00   1.021695e+00
   2.250621e+00   4.502312e+00
  -2.606193e+00   4.661793e+00
  -4.546146e+00   2.059159e+00
  -2.498605e+00  -7.682865e-01
   1.319813e-01  -8.729303e-01
  -7.088711e-02   9.819650e-01
  -2.665067e+00   1.312624e+00
  -4.492186e+00  -1.338336e+00
  -2.898317e+00  -5.707789e+00
   1.702370e+00  -7.262250e+00
   6.067168e+00  -3.621524e+00
   6.431313e+00   2.859642e+00
   2.493411e+00   6.762745e+00
  -2.208672e+00   5.140757e+00
  -4.475600e+00   3.673672e-01
  -2.950103e+00  -3.245100e+00
  -9.796875e-03  -3.217293e+00
   1.653398e+00  -9.842403e-01
   1.133527e+00   2.271741e-01
   1.267656e-01  -3.546912e-01
   6.616249e-01  -1.276267e+00
   3.026616e+00  -1.676616e-01
   4.008866e+00   2.637425e+00
   1.335109e+00   4.842924e+00
  -3.692105e+00   4.168369e+00
  -7.033677e+00   4.832193e-01
  -5.356254e+00  -3.587460e+00
  -1.705856e-02  -5.058756e+00
   4.054961e+00  -3.237392e+00
   4.193219e+00   1.265094e-01
   1.349350e+00   2.179097e+00
  -7.876460e-01   1.725345e+00
  -7.103456e-01   9.704374e-02
   2.821850e-01  -3.407907e-01
  -1.276584e-01   1.227873e+00
  -2.323137e+00   2.184728e+00
  -4.054142e+00   3.155035e-01
  -2.896426e+00  -4.139777e+00
   1.474468e+00  -7.122596e+00
   6.153040e+00  -4.876269e+00
   7.317875e+00   1.061243e+00
   4.222738e+00   6.262456e+00
  -1.170789e+00   6.882934e+00
  -4.188297e+00   3.444623e+00
  -3.796484e+00  -2.880875e-01
  -1.035873e+00  -1.459139e+00
   5.581407e-01  -5.032546e-01
  -5.615985e-01   4.212377e-01
  -2.624186e+00  -5.884651e-01
  -2.508039e+00  -2.911005e+00
   7.415358e-01  -3.634102e+00
   4.311673e+00  -1.382783e+00
   4.380312e+00   2.841894e+00
   4.209371e-01   4.946334e+00
  -4.168369e+00   2.636645e+00
  -5.162587e+00  -2.151071e+00
  -1.944376e+00  -5.188520e+00
   2.647892e+00  -4.277884e+00
   4.544184e+00  -3.582660e-01
   2.577811e+00   2.815377e+00
  -4.880721e-01   2.838343e+00
  -1.467572e+00   3.475029e-01
   5.435315e-01  -1.486716e+00
   2.438831e+00  -8.182589e-01
   1.519092e+00   1.937352e+00
  -1.525932e+00   3.717661e+00
  -4.124406e+00   2.125692e+00
  -3.214205e+00  -1.506123e+00
   1.571525e-01  -4.147076e+00
   3.151884e+00  -2.465904e+00
   3.193121e+00   1.401661e+00
   9.140562e-02   3.835003e+00
  -3.022804e+00   2.507961e+00
  -3.819243e+00  -1.206948e+00
  -1.600407e+00  -3.794486e+00
   1.621185e+00  -2.724154e+00
   3.115545e+00   2.216980e-01
   1.637958e+00   2.083075e+00
  -1.129560e+00   9.923291e-01
  -1.529014e+00  -1.440075e+00
   2.283765e-01  -1.973099e+00
   2.159549e+00  -3.358964e-01
   1.828123e+00   2.569934e+00
  -6.657773e-01   2.990996e+00
  -2.493265e+00   4.666132e-01
  -1.868833e+00  -2.373673e+00
   1.098750e+00  -2.871106e+00
   3.438056e+00  -4.329481e-01
   2.665120e+00   2.624694e+00
  -5.025044e-01   3.926435e+00
  -3.858318e+00   2.226882e+00
  -3.775279e+00  -8.713282e-01
  -7.800156e-01  -2.687964e+00
   1.784132e+00  -2.214018e+00
   1.890120e+00  -1.886123e-01
  -4.735862e-01   1.005715e+00
  -1.967271e+00   2.199118e-02
  -7.162858e-01  -1.710793e+00
   1.962488e+00  -1.995659e+00
