
 $NMID
 id='ANONYMOUS ', fmtdat='(2E16.6)'
 volume=1.0
 tramp=1.0
 $END
   3.851416e+03   7.026351e+01
   2.237185e+03   2.003074e+03
  -5.966499e+02   2.160464e+03
  -1.664382e+03   8.394401e+02
  -8.892790e+02  -4.379838e+02
   3.826334e+02  -4.681641e+02
   7.340363e+02   3.016653e+02
   2.357745e+01   8.682451e+02
  -7.127071e+02   7.912575e+02
  -9.409838e+02  -3.028306e+01
  -4.559935e+02  -6.838530e+02
   1.243894e+02  -8.530206e+02
   5.587244e+02  -1.350097e+02
   3.514552e+02   6.515116e+02
  -2.562462e+02   6.618517e+02
  -5.362156e+02   4.812858e+01
  -2.689144e+02  -6.931371e+02
   2.961654e+02  -6.129821e+02
   5.367154e+02  -1.135158e+02
   3.981339e+02   2.425006e+02
   2.573951e+00   3.555023e+02
  -2.310765e+02   1.954228e+02
  -1.394326e+02  -2.723192e+01
   1.470688e+02   3.560766e+00
   3.776289e+02   1.918424e+02
   1.251432e+02   4.086426e+02
  -4.441788e+02   2.996479e+02
  -7.093173e+02  -1.370303e+02
  -3.220798e+02  -4.466610e+02
   3.634570e+02  -3.280721e+02
   6.092982e+02   9.139114e+01
   2.754900e+02   4.144694e+02
  -2.727502e+02   4.152407e+02
  -5.138231e+02   1.485790e+02
  -3.625591e+02  -1.848632e+02
  -6.492586e+01  -3.892749e+02
   1.338337e+02  -2.398931e+02
   6.717071e+01   1.411948e+02
  -1.760298e+02   2.920959e+02
  -3.285107e+02  -9.145264e+01
  -1.195624e+02  -5.879465e+02
   2.938882e+02  -5.469633e+02
   4.576952e+02   1.706892e+00
   1.961527e+02   4.211056e+02
  -1.949760e+02   2.258225e+02
  -2.519630e+02  -2.889239e+02
   9.676740e+01  -4.409103e+02
   4.695964e+02  -8.129442e+01
   5.043370e+02   3.668554e+02
   1.507730e+02   5.175478e+02
  -3.183752e+02   2.923732e+02
  -5.400619e+02  -6.970386e+01
  -3.362860e+02  -3.141072e+02
   1.026750e+02  -2.886790e+02
   3.585180e+02  -5.000480e+01
   2.226269e+02   1.276386e+02
  -5.703552e+01   6.648756e+01
  -9.642841e+01  -1.082826e+02
   1.307076e+02  -1.210394e+02
   2.816715e+02   7.444516e+01
   1.256636e+02   2.515063e+02
  -1.758781e+02   2.342314e+02
  -3.177461e+02   8.138790e+01
  -2.062780e+02  -8.713328e+01
   3.089671e+01  -2.345365e+02
   2.383815e+02  -3.063387e+02
   3.206987e+02  -1.786636e+02
   2.396662e+02   1.330181e+02
   5.709465e+01   3.764081e+02
  -7.379882e+01   3.351393e+02
  -6.918293e+01   1.271412e+02
  -2.355091e+01   3.127665e+01
  -7.697561e+01   9.401119e+01
  -2.047052e+02   9.942454e+01
  -2.459044e+02  -6.776775e+01
  -1.218291e+02  -2.456820e+02
   7.639516e+01  -2.150546e+02
   1.970210e+02   1.125811e+01
   1.572331e+02   2.282338e+02
  -2.634572e+01   2.617318e+02
  -2.447567e+02   8.474361e+01
  -3.209551e+02  -1.642007e+02
  -1.708154e+02  -3.132182e+02
   7.737608e+01  -2.784533e+02
   1.959105e+02  -1.298605e+02
   1.445236e+02  -3.643639e+01
   1.109270e+02  -4.957617e+01
   2.381382e+02  -4.798334e+01
   3.844599e+02   7.051775e+01
   3.098559e+02   2.759436e+02
  -1.221285e+01   4.161401e+02
  -3.484864e+02   3.795690e+02
  -4.546236e+02   1.742099e+02
  -2.960391e+02  -9.530116e+01
  -3.690215e+01  -2.605630e+02
   1.111570e+02  -2.162670e+02
   5.274861e+01  -2.809835e+01
  -1.063715e+02   7.889267e+01
  -1.611742e+02  -1.460925e+01
  -3.561305e+01  -1.624253e+02
   1.303685e+02  -1.392887e+02
   1.389809e+02   4.881931e+01
  -1.923142e+01   1.531281e+02
  -1.664909e+02   1.699739e+01
  -1.459309e+02  -2.267853e+02
   2.658562e+01  -3.241019e+02
   2.209719e+02  -1.869926e+02
   3.217648e+02   5.569491e+01
   2.672919e+02   2.317921e+02
   7.928766e+01   2.537007e+02
  -1.113029e+02   1.467827e+02
  -1.563326e+02   1.946389e+01
  -4.842684e+01  -1.843767e+01
   5.470572e+01   4.687435e+01
   1.219624e+01   1.128031e+02
  -1.158388e+02   8.037301e+01
  -1.535723e+02  -1.711945e+01
  -4.559617e+01  -6.060508e+01
   7.065448e+01  -3.614461e+00
   4.004348e+01   7.558426e+01
  -1.268909e+02   7.886094e+01
  -2.704514e+02  -1.303019e+01
  -2.431473e+02  -1.480789e+02
  -4.199264e+01  -2.462653e+02
   1.867598e+02  -2.355950e+02
   2.665469e+02  -1.056143e+02
   1.507648e+02   4.803514e+01
  -2.536014e+01   9.227178e+01
  -7.668663e+01   5.071786e+00
   3.818689e+01  -8.391609e+01
   1.796864e+02  -4.384618e+01
   1.895362e+02   9.617621e+01
   5.897087e+01   1.856371e+02
  -8.551684e+01   1.389303e+02
  -1.258856e+02   2.301722e+01
  -5.641306e+01  -3.648344e+01
   3.098646e+01   7.267026e+00
   3.083093e+01   9.014413e+01
  -7.694324e+01   1.106832e+02
  -1.921016e+02   2.249723e+01
  -1.782710e+02  -1.206570e+02
  -1.756542e+01  -2.029026e+02
   1.514574e+02  -1.515099e+02
   1.765258e+02  -9.839312e+00
   5.968704e+01   9.986063e+01
  -5.879725e+01   1.011362e+02
  -7.251405e+01   3.044029e+01
  -1.197916e+01  -2.234950e+01
   2.348580e+01  -1.454972e+01
  -1.062928e+01   1.181596e+01
  -7.224529e+01  -6.586762e+00
  -8.711867e+01  -8.059085e+01
  -1.172412e+01  -1.539135e+02
   1.243554e+02  -1.422875e+02
   2.208200e+02  -1.741140e+01
   1.866629e+02   1.441384e+02
   3.916079e+01   2.202247e+02
  -9.943496e+01   1.564683e+02
  -1.279268e+02   2.723880e+01
  -6.990280e+01  -4.988491e+01
  -2.890410e+01  -3.298619e+01
  -4.971009e+01   1.199188e+01
  -7.690225e+01   6.803653e+00
  -4.588536e+01  -5.075409e+01
   3.809730e+01  -9.229674e+01
   1.060196e+02  -5.801612e+01
   9.205560e+01   3.879837e+01
  -1.399524e+01   1.155168e+02
  -1.458910e+02   8.531232e+01
  -1.930048e+02  -5.353546e+01
  -9.162396e+01  -1.960797e+02
   1.059964e+02  -2.162672e+02
   2.518095e+02  -8.920135e+01
   2.377157e+02   7.986136e+01
   1.008236e+02   1.627527e+02
  -3.539237e+01   1.360628e+02
  -8.687377e+01   7.802643e+01
  -7.133487e+01   6.479812e+01
  -5.959147e+01   8.622732e+01
  -8.509887e+01   7.255279e+01
  -1.217770e+02  -1.743431e+01
  -1.126155e+02  -1.433701e+02
  -2.837039e+01  -2.129417e+02
   9.290289e+01  -1.613582e+02
   1.640291e+02  -1.698599e+01
   1.255996e+02   1.166612e+02
   1.444731e+01   1.502702e+02
  -6.778809e+01   8.367687e+01
  -5.926307e+01  -5.586250e+00
  -2.376071e+00  -4.680685e+01
   1.625210e+01  -3.528629e+01
  -2.857388e+01  -1.507797e+01
  -7.373304e+01  -1.771023e+01
  -4.281670e+01  -3.487977e+01
   6.234800e+01  -3.542199e+01
   1.521744e+02  -1.086760e+00
   1.340926e+02   5.299239e+01
   9.407834e+00   8.760145e+01
  -1.176855e+02   7.060015e+01
  -1.381176e+02   9.933899e+00
  -4.725671e+01  -4.354756e+01
   5.472696e+01  -4.069694e+01
   7.469018e+01   1.467161e+01
   1.632000e+01   6.573994e+01
  -4.599494e+01   5.925739e+01
  -6.240883e+01   2.448561e+00
  -4.921735e+01  -4.590232e+01
  -4.319212e+01  -4.057177e+01
  -5.408166e+01  -2.795565e+00
  -6.112911e+01  -6.352206e-01
  -3.756226e+01  -6.433660e+01
   2.696601e+01  -1.387942e+02
   1.125877e+02  -1.352055e+02
   1.615845e+02  -3.268275e+01
   1.197783e+02   8.680269e+01
   5.018314e+00   1.223991e+02
  -8.385314e+01   6.265182e+01
  -5.831393e+01  -1.135924e+01
   5.393614e+01  -1.981894e+01
   1.269775e+02   3.832830e+01
   6.966540e+01   9.909197e+01
  -7.534778e+01   1.040728e+02
  -1.767936e+02   4.613058e+01
  -1.495872e+02  -3.349297e+01
  -3.233457e+01  -7.920483e+01
   5.814434e+01  -6.041716e+01
   4.502983e+01  -2.153015e+00
  -3.861348e+01   2.718181e+01
  -8.819981e+01  -2.077659e+01
  -3.562476e+01  -1.116265e+02
   8.070708e+01  -1.472057e+02
   1.547939e+02  -6.317150e+01
   1.212044e+02   9.014375e+01
   1.323715e+01   1.837300e+02
  -7.941069e+01   1.352572e+02
  -9.918180e+01  -7.117891e+00
  -5.530633e+01  -1.117803e+02
   6.552501e+00  -9.961093e+01
   4.582006e+01  -1.763228e+01
   4.605718e+01   3.011684e+01
   2.040121e+01   8.767328e+00
   4.456882e+00  -1.741652e+01
   2.350866e+01   1.611317e+01
   5.319495e+01   8.268062e+01
   3.516639e+01   1.007452e+02
  -4.796126e+01   4.232290e+01
  -1.287519e+02  -3.492831e+01
  -1.191213e+02  -6.572232e+01
  -1.733613e+01  -4.910904e+01
   7.886313e+01  -2.306856e+01
   8.186693e+01  -6.249023e+00
   1.353098e+01   9.063747e+00
  -3.395406e+01   2.064003e+01
  -1.584177e+01   1.494698e+01
   1.616180e+01  -1.766841e+00
  -5.258496e+00  -6.453599e+00
  -6.711385e+01  -1.375206e+00
  -8.697938e+01  -2.244138e+01
  -1.446441e+01  -7.740691e+01
   1.054394e+02  -1.106842e+02
   1.752278e+02  -5.990921e+01
   1.392234e+02   5.833825e+01
   2.961484e+01   1.504461e+02
  -7.253692e+01   1.432190e+02
  -1.078278e+02   5.879280e+01
  -7.598961e+01  -1.841168e+01
  -2.396159e+01  -3.376038e+01
   1.357964e+00  -9.424573e+00
  -1.064587e+01  -4.639838e+00
  -3.069713e+01  -4.323822e+01
  -2.092998e+01  -8.431408e+01
   2.644737e+01  -6.770383e+01
   7.520336e+01   1.481791e+01
   7.430551e+01   9.829313e+01
   8.044867e+00   1.050140e+02
  -7.546834e+01   2.678919e+01
  -9.912830e+01  -6.632140e+01
  -3.412304e+01  -9.844675e+01
   6.152965e+01  -5.831689e+01
   9.521572e+01   7.666579e+00
   4.082041e+01   5.055261e+01
  -3.009973e+01   5.385140e+01
  -3.243233e+01   2.766601e+01
   2.840912e+01  -2.860385e+00
   6.449812e+01  -7.644539e+00
   1.584307e+01   2.472992e+01
  -7.384232e+01   6.255979e+01
  -1.116061e+02   5.299588e+01
  -6.438067e+01  -1.419921e+01
   1.372489e+01  -8.040162e+01
   5.368349e+01  -7.729134e+01
   4.067419e+01  -7.901771e+00
   4.976205e+00   5.269688e+01
  -2.413780e+01   4.414133e+01
  -3.622943e+01  -1.334395e+01
  -2.667428e+01  -5.140406e+01
   2.481313e+00  -3.483894e+01
   3.278404e+01   6.352773e+00
   3.884532e+01   2.310284e+01
   1.846642e+01   4.051028e+00
  -3.495658e+00  -1.559944e+01
  -7.005252e+00  -3.583735e+00
  -1.084367e+00   3.035398e+01
  -7.678468e+00   4.484206e+01
  -2.737956e+01   1.473151e+01
  -3.342784e+01  -3.586271e+01
  -5.378450e+00  -5.581932e+01
   3.942035e+01  -2.276990e+01
   5.604083e+01   3.211514e+01
   1.683486e+01   5.728247e+01
  -5.134048e+01   3.392305e+01
  -8.492461e+01  -1.089295e+01
  -4.756445e+01  -4.015022e+01
   2.623934e+01  -4.066364e+01
   6.130284e+01  -2.315047e+01
   2.549940e+01  -4.699121e+00
  -3.120026e+01   1.345209e+00
  -3.485946e+01  -1.058084e+01
   2.394296e+01  -2.754106e+01
   7.957613e+01  -1.955450e+01
