
 $NMID
 id='ANONYMOUS ', fmtdat='(2E16.6)'
 volume=1.0
 tramp=1.0
 $END
  -4.893062e+03   2.152195e+02
  -2.554565e+03  -2.650535e+03
   8.355869e+02  -2.692584e+03
   2.263231e+03  -8.048271e+02
   9.529141e+02   9.349090e+02
  -7.752557e+02   7.093963e+02
  -1.104487e+03  -4.671725e+02
  -9.519528e+01  -1.266476e+03
   9.123534e+02  -9.229775e+02
   1.086359e+03   1.029491e+02
   5.459497e+02   9.521514e+02
  -2.072753e+02   1.103208e+03
  -6.996974e+02   1.132805e+02
  -4.374950e+02  -8.800440e+02
   3.271256e+02  -9.793755e+02
   7.371931e+02   3.749449e+01
   3.488892e+02   8.066572e+02
  -4.304396e+02   7.340762e+02
  -7.265400e+02   5.609656e+01
  -4.060934e+02  -4.305497e+02
   4.919783e+01  -5.005693e+02
   3.108258e+02  -2.663095e+02
   2.388924e+02   3.951942e+01
  -1.086870e+02   1.285329e+02
  -4.368070e+02  -9.237142e+01
  -2.398142e+02  -4.629575e+02
   4.951537e+02  -4.659386e+02
   9.135659e+02   1.125451e+02
   4.656899e+02   5.944401e+02
  -4.232496e+02   5.226022e+02
  -8.041412e+02  -4.416446e+01
  -3.652537e+02  -5.125990e+02
   3.058193e+02  -5.421848e+02
   5.868619e+02  -1.901043e+02
   4.369371e+02   2.531505e+02
   4.903270e+01   5.389334e+02
  -2.370939e+02   2.945970e+02
  -1.967625e+02  -2.355381e+02
   1.648992e+02  -4.754872e+02
   4.994028e+02   6.447339e+00
   2.702005e+02   7.163350e+02
  -3.408823e+02   7.380091e+02
  -6.470869e+02  -1.763685e+01
  -2.529387e+02  -6.061148e+02
   3.379531e+02  -3.423539e+02
   4.057671e+02   3.666730e+02
  -9.203746e+01   5.968080e+02
  -5.839106e+02   1.417826e+02
  -6.079921e+02  -4.430060e+02
  -1.494950e+02  -6.173823e+02
   4.080487e+02  -3.488192e+02
   6.519571e+02   1.072773e+02
   3.751040e+02   4.324699e+02
  -1.814457e+02   3.954799e+02
  -4.812855e+02   4.149627e+01
  -2.546694e+02  -2.311255e+02
   1.362705e+02  -1.196999e+02
   1.567935e+02   1.758993e+02
  -1.829152e+02   2.077606e+02
  -3.749658e+02  -8.943260e+01
  -1.381873e+02  -3.330221e+02
   2.374426e+02  -2.633855e+02
   3.515116e+02  -3.897589e+01
   1.794133e+02   1.173053e+02
  -5.733846e+01   2.196208e+02
  -2.379376e+02   3.009696e+02
  -3.413846e+02   2.050440e+02
  -2.965637e+02  -1.394681e+02
  -8.147568e+01  -4.502276e+02
   1.282028e+02  -4.093380e+02
   1.467455e+02  -1.247368e+02
   4.674727e+01   2.413606e+01
   5.140026e+01  -6.461107e+01
   1.915381e+02  -1.152587e+02
   2.699945e+02   6.006639e+01
   1.496325e+02   2.805667e+02
  -7.925859e+01   2.661289e+02
  -2.349209e+02   1.135753e+01
  -2.063412e+02  -2.534209e+02
   5.684861e+00  -3.091976e+02
   2.734242e+02  -1.240823e+02
   3.736384e+02   1.786633e+02
   1.878340e+02   3.743433e+02
  -1.171531e+02   3.208434e+02
  -2.529819e+02   1.114904e+02
  -1.633172e+02  -1.604098e+01
  -9.373315e+01   2.294786e+01
  -2.254333e+02   5.986072e+01
  -3.975895e+02  -6.572954e+01
  -3.296829e+02  -2.999474e+02
   1.265484e+01  -4.543337e+02
   3.794374e+02  -4.084674e+02
   5.043761e+02  -1.896367e+02
   3.488463e+02   1.042745e+02
   5.661896e+01   3.075870e+02
  -1.416392e+02   2.666646e+02
  -9.834186e+01   3.383485e+01
   1.076915e+02  -1.152694e+02
   2.078371e+02  -1.934644e+00
   6.099304e+01   2.043126e+02
  -1.696567e+02   1.842116e+02
  -1.888640e+02  -6.239065e+01
   2.146637e+01  -2.022195e+02
   2.068392e+02  -3.362200e+01
   1.651124e+02   2.616455e+02
  -4.439699e+01   3.583952e+02
  -2.443411e+02   1.855922e+02
  -3.274621e+02  -7.639825e+01
  -2.710214e+02  -2.444139e+02
  -8.704797e+01  -2.608537e+02
   1.185851e+02  -1.576225e+02
   1.817675e+02  -2.067804e+01
   5.999563e+01   3.387816e+01
  -7.192482e+01  -3.731901e+01
  -3.109870e+01  -1.252849e+02
   1.260871e+02  -9.942509e+01
   1.825805e+02   1.572344e+01
   6.160446e+01   7.434185e+01
  -7.645077e+01   1.497443e+01
  -5.101603e+01  -7.215313e+01
   1.234330e+02  -7.857092e+01
   2.762687e+02   1.038817e+01
   2.572930e+02   1.439698e+02
   5.836251e+01   2.545334e+02
  -1.863518e+02   2.614691e+02
  -2.902550e+02   1.270487e+02
  -1.769344e+02  -5.590132e+01
   2.490046e+01  -1.165046e+02
   9.541500e+01  -1.035550e+01
  -3.259438e+01   1.048385e+02
  -2.002427e+02   6.029347e+01
  -2.150553e+02  -1.068199e+02
  -6.530230e+01  -2.131353e+02
   9.896994e+01  -1.596846e+02
   1.455167e+02  -2.868969e+01
   7.232466e+01   4.259224e+01
  -2.279646e+01   6.214412e+00
  -3.338915e+01  -7.715934e+01
   6.946675e+01  -1.082278e+02
   1.931912e+02  -2.680321e+01
   1.886216e+02   1.258734e+02
   1.884249e+01   2.223745e+02
  -1.704502e+02   1.648088e+02
  -2.006653e+02   6.461063e-01
  -6.670763e+01  -1.223614e+02
   6.955180e+01  -1.147148e+02
   8.618779e+01  -3.145449e+01
   2.282475e+01   2.394922e+01
  -1.344568e+01   1.759138e+01
   1.691621e+01  -1.723759e+00
   6.905653e+01   2.060336e+01
   7.783778e+01   8.946876e+01
   5.083784e+00   1.565121e+02
  -1.302440e+02   1.461654e+02
  -2.335457e+02   1.960868e+01
  -2.002915e+02  -1.542214e+02
  -3.889350e+01  -2.415870e+02
   1.145019e+02  -1.708825e+02
   1.399544e+02  -2.446038e+01
   7.102260e+01   5.934956e+01
   2.814300e+01   3.874956e+01
   5.407465e+01  -7.471977e+00
   7.771956e+01  -1.542366e+00
   3.614777e+01   5.142536e+01
  -4.902742e+01   8.186550e+01
  -1.017724e+02   4.697826e+01
  -7.955700e+01  -3.714344e+01
   1.698977e+01  -1.069314e+02
   1.395351e+02  -8.176205e+01
   1.937282e+02   5.088003e+01
   9.938186e+01   1.995742e+02
  -1.059580e+02   2.266490e+02
  -2.676307e+02   9.446497e+01
  -2.580569e+02  -8.771376e+01
  -1.097435e+02  -1.784069e+02
   3.983684e+01  -1.488493e+02
   9.756784e+01  -8.510687e+01
   8.521075e+01  -6.991230e+01
   7.351324e+01  -8.867436e+01
   9.573911e+01  -6.896235e+01
   1.260129e+02   2.804404e+01
   1.122133e+02   1.583267e+02
   2.411369e+01   2.278446e+02
  -1.027609e+02   1.714340e+02
  -1.781460e+02   1.808348e+01
  -1.369554e+02  -1.245787e+02
  -1.812824e+01  -1.613286e+02
   6.827771e+01  -9.366293e+01
   6.029808e+01  -3.809312e+00
   6.357116e+00   3.845250e+01
  -6.597916e+00   3.379212e+01
   3.934622e+01   2.329114e+01
   7.768401e+01   2.933863e+01
   4.106478e+01   3.954600e+01
  -6.374294e+01   3.230687e+01
  -1.533357e+02  -1.967301e+00
  -1.396900e+02  -5.078727e+01
  -1.640442e+01  -8.349025e+01
   1.173339e+02  -6.911331e+01
   1.437465e+02  -1.237758e+01
   4.858339e+01   3.883505e+01
  -5.995228e+01   3.484052e+01
  -7.466014e+01  -1.956473e+01
  -4.863276e+00  -6.658114e+01
   5.733207e+01  -5.520436e+01
   6.061749e+01   3.856296e+00
   3.899751e+01   5.060624e+01
   4.136735e+01   4.169778e+01
   6.332814e+01   2.989605e+00
   6.776316e+01   1.851513e+00
   3.184079e+01   6.812985e+01
  -3.920050e+01   1.436974e+02
  -1.195514e+02   1.365287e+02
  -1.615062e+02   2.739303e+01
  -1.183569e+02  -9.458605e+01
  -3.958346e+00  -1.247140e+02
   8.521567e+01  -5.716835e+01
   5.847052e+01   1.674055e+01
  -5.871279e+01   1.678235e+01
  -1.346527e+02  -4.901910e+01
  -7.207676e+01  -1.092091e+02
   8.363228e+01  -1.092161e+02
   1.920278e+02  -4.644053e+01
   1.617224e+02   3.852649e+01
   3.491881e+01   8.919251e+01
  -6.363768e+01   7.038392e+01
  -5.074427e+01   6.085252e+00
   3.901111e+01  -2.756978e+01
   9.062910e+01   2.411132e+01
   2.892896e+01   1.208700e+02
  -9.890848e+01   1.526772e+02
  -1.726491e+02   5.635551e+01
  -1.243890e+02  -1.068941e+02
  -2.561024e+00  -1.999781e+02
   9.104402e+01  -1.425254e+02
   1.036498e+02   8.982820e+00
   5.683634e+01   1.184761e+02
  -3.030407e+00   1.056077e+02
  -4.466291e+01   1.857176e+01
  -5.172741e+01  -3.313173e+01
  -2.691508e+01  -9.875760e+00
  -2.930941e+00   2.068648e+01
  -1.636138e+01  -1.443432e+01
  -5.155114e+01  -8.949026e+01
  -4.127665e+01  -1.112877e+02
   4.550857e+01  -4.455767e+01
   1.379626e+02   4.385506e+01
   1.309477e+02   7.577112e+01
   1.716443e+01   5.093178e+01
  -9.036038e+01   2.004676e+01
  -9.009330e+01   5.809853e+00
  -1.012436e+01  -7.503433e+00
   3.997560e+01  -2.216051e+01
   1.375449e+01  -1.909083e+01
  -2.275042e+01   3.649247e-01
   6.063239e+00   9.841305e+00
   7.634514e+01   6.905807e+00
   9.188768e+01   2.721829e+01
   4.503561e+00   8.101270e+01
  -1.239712e+02   1.101985e+02
  -1.873154e+02   5.080888e+01
  -1.377379e+02  -7.373553e+01
  -1.911650e+01  -1.624872e+02
   8.380762e+01  -1.450414e+02
   1.157898e+02  -5.314784e+01
   8.010079e+01   2.415616e+01
   2.374179e+01   3.616335e+01
  -4.421137e+00   9.291732e+00
   8.346453e+00   4.519643e+00
   3.070113e+01   4.541341e+01
   1.966134e+01   8.914575e+01
  -3.185576e+01   7.013380e+01
  -8.082320e+01  -2.167803e+01
  -7.252037e+01  -1.131345e+02
   2.113981e+00  -1.147433e+02
   8.594059e+01  -2.067662e+01
   1.014664e+02   8.172588e+01
   2.782238e+01   1.064958e+02
  -6.877889e+01   5.264674e+01
  -9.637880e+01  -1.605370e+01
  -3.595090e+01  -5.014691e+01
   3.458760e+01  -4.763720e+01
   3.063262e+01  -2.594133e+01
  -3.564570e+01  -1.545462e+00
  -7.005625e+01   3.849620e+00
  -1.371317e+01  -2.472784e+01
   8.128224e+01  -6.251813e+01
   1.164318e+02  -5.482400e+01
   6.192337e+01   1.409451e+01
  -1.966961e+01   8.302740e+01
  -5.655799e+01   7.741520e+01
  -3.787943e+01   2.800183e+00
  -1.139337e-02  -5.786831e+01
   2.783471e+01  -4.276825e+01
   3.686072e+01   1.985354e+01
   2.478627e+01   5.486785e+01
  -4.661664e+00   3.214275e+01
  -3.337379e+01  -1.031087e+01
  -3.899390e+01  -2.258547e+01
  -2.078436e+01  -2.709484e+00
  -3.470711e-01   1.208882e+01
   7.891556e+00  -4.698019e+00
   1.154282e+01  -3.694338e+01
   2.223482e+01  -4.276560e+01
   3.381929e+01  -3.677374e+00
   2.622592e+01   4.916999e+01
  -7.381417e+00   6.262454e+01
  -4.613237e+01   1.863615e+01
  -5.393010e+01  -4.264034e+01
  -1.170342e+01  -6.420814e+01
   5.469155e+01  -3.073727e+01
   8.633689e+01   2.024840e+01
   4.613114e+01   4.546837e+01
  -3.120771e+01   3.697248e+01
  -6.592045e+01   1.632022e+01
  -2.300280e+01   2.972944e+00
   4.020438e+01   4.764762e+00
   3.907004e+01   1.918756e+01
  -3.321863e+01   3.158920e+01
  -9.564409e+01   1.624891e+01
