
 $NMID
 id='ANONYMOUS ', fmtdat='(2E16.6)'
 volume=1.0
 tramp=1.0
 $END
   4.865362e+03  -2.958802e+02
   2.595689e+03   2.740063e+03
  -7.636842e+02   2.956114e+03
  -2.399071e+03   1.028687e+03
  -1.076996e+03  -7.768078e+02
   7.910241e+02  -6.388511e+02
   1.120459e+03   4.547240e+02
  -1.522476e+01   1.148909e+03
  -9.176225e+02   9.429622e+02
  -9.829594e+02   1.149472e+01
  -4.409743e+02  -9.563006e+02
   2.615531e+02  -1.121721e+03
   7.580570e+02  -1.414111e+02
   4.141819e+02   8.401981e+02
  -3.464545e+02   9.286418e+02
  -7.185566e+02   1.564046e+01
  -2.782346e+02  -8.274292e+02
   4.192527e+02  -7.278961e+02
   7.029565e+02  -1.018704e+02
   4.260560e+02   4.427544e+02
   1.456808e+01   4.779757e+02
  -2.985022e+02   2.727059e+02
  -2.250848e+02  -1.380611e+01
   1.290307e+02  -9.969798e+01
   4.579119e+02   1.252803e+02
   2.453128e+02   5.316582e+02
  -4.943469e+02   4.702972e+02
  -9.242037e+02  -9.305982e+01
  -4.778856e+02  -6.038400e+02
   4.176914e+02  -5.685098e+02
   8.112921e+02   5.688463e+01
   3.819633e+02   5.350693e+02
  -3.103858e+02   5.617324e+02
  -6.040414e+02   2.056460e+02
  -4.508731e+02  -2.281552e+02
  -6.239624e+01  -5.354100e+02
   2.362371e+02  -3.220279e+02
   1.901635e+02   2.318507e+02
  -1.917165e+02   4.803276e+02
  -5.004865e+02  -1.330717e+01
  -2.712807e+02  -7.695113e+02
   3.727909e+02  -7.810011e+02
   6.696916e+02   1.916428e+01
   2.697630e+02   6.317365e+02
  -3.443333e+02   3.408752e+02
  -4.228280e+02  -3.861446e+02
   9.566976e+01  -6.209898e+02
   6.225627e+02  -1.411040e+02
   6.406395e+02   4.562789e+02
   1.596432e+02   6.369648e+02
  -4.290119e+02   3.663496e+02
  -6.875970e+02  -9.733516e+01
  -3.971546e+02  -4.371689e+02
   1.893505e+02  -4.144585e+02
   5.013857e+02  -5.747530e+01
   2.633598e+02   2.348766e+02
  -1.437212e+02   1.250983e+02
  -1.651588e+02  -1.885966e+02
   1.889298e+02  -2.293199e+02
   3.932980e+02   7.861067e+01
   1.599676e+02   3.410691e+02
  -2.207367e+02   2.874254e+02
  -3.523317e+02   7.151620e+01
  -2.041918e+02  -9.415323e+01
   2.493370e+01  -2.279922e+02
   2.247123e+02  -3.368759e+02
   3.518455e+02  -2.335459e+02
   3.079911e+02   1.394327e+02
   8.327982e+01   4.623459e+02
  -1.218833e+02   4.101752e+02
  -1.263270e+02   1.234421e+02
  -3.056167e+01  -4.937577e+00
  -6.217730e+01   9.911460e+01
  -2.261731e+02   1.356132e+02
  -3.036946e+02  -6.963252e+01
  -1.652752e+02  -3.036647e+02
   8.236635e+01  -2.824438e+02
   2.476612e+02  -1.699043e+01
   2.209534e+02   2.540620e+02
   1.151912e+00   3.171501e+02
  -2.816702e+02   1.311801e+02
  -3.928750e+02  -1.723775e+02
  -2.036375e+02  -3.768646e+02
   1.137312e+02  -3.281272e+02
   2.497251e+02  -1.252044e+02
   1.548261e+02   3.222900e+00
   9.270363e+01  -3.982748e+01
   2.429584e+02  -8.023455e+01
   4.302307e+02   5.160726e+01
   3.619355e+02   3.068929e+02
  -3.818167e+00   4.799225e+02
  -3.895853e+02   4.405564e+02
  -5.238087e+02   2.062230e+02
  -3.632694e+02  -1.107037e+02
  -5.516683e+01  -3.210920e+02
   1.447409e+02  -2.716443e+02
   9.315481e+01  -2.877657e+01
  -1.175991e+02   1.153606e+02
  -2.108825e+02  -9.529698e+00
  -5.490332e+01  -2.162835e+02
   1.764403e+02  -1.856359e+02
   1.930087e+02   7.048518e+01
  -2.185956e+01   2.106132e+02
  -2.075121e+02   3.113944e+01
  -1.697223e+02  -2.697217e+02
   3.902191e+01  -3.691951e+02
   2.428781e+02  -1.936112e+02
   3.352010e+02   7.379899e+01
   2.844815e+02   2.496346e+02
   9.699949e+01   2.704794e+02
  -1.207586e+02   1.631415e+02
  -1.889069e+02   1.797688e+01
  -6.129680e+01  -3.654414e+01
   7.770306e+01   4.044687e+01
   3.221724e+01   1.331587e+02
  -1.349052e+02   1.047935e+02
  -1.924896e+02  -1.759828e+01
  -6.074772e+01  -8.093788e+01
   8.813546e+01  -1.932738e+01
   6.118931e+01   7.557062e+01
  -1.272448e+02   8.852664e+01
  -2.921948e+02  -7.943519e-01
  -2.736285e+02  -1.422024e+02
  -6.317783e+01  -2.634866e+02
   1.926411e+02  -2.746648e+02
   2.989288e+02  -1.338652e+02
   1.792748e+02   5.894888e+01
  -3.005639e+01   1.219159e+02
  -1.023105e+02   7.961133e+00
   3.262015e+01  -1.142966e+02
   2.095498e+02  -6.748766e+01
   2.267421e+02   1.102681e+02
   6.996189e+01   2.234967e+02
  -1.039828e+02   1.666889e+02
  -1.538513e+02   2.727672e+01
  -7.506751e+01  -4.703983e+01
   2.857403e+01  -6.617002e+00
   4.038805e+01   8.252530e+01
  -7.079600e+01   1.143765e+02
  -2.036485e+02   2.967683e+01
  -1.994184e+02  -1.284227e+02
  -2.117610e+01  -2.290432e+02
   1.770049e+02  -1.710954e+02
   2.084621e+02  -2.310434e+00
   6.942732e+01   1.252849e+02
  -7.240202e+01   1.189163e+02
  -8.910697e+01   3.227239e+01
  -2.053493e+01  -2.474532e+01
   1.836416e+01  -1.627958e+01
  -1.631264e+01   8.219503e+00
  -7.637464e+01  -1.371648e+01
  -8.898092e+01  -8.934895e+01
  -1.159865e+01  -1.655593e+02
   1.334637e+02  -1.571056e+02
   2.426771e+02  -2.643253e+01
   2.091409e+02   1.564992e+02
   4.265546e+01   2.486299e+02
  -1.156641e+02   1.762330e+02
  -1.411201e+02   2.647593e+01
  -7.096533e+01  -5.870905e+01
  -2.815098e+01  -3.613809e+01
  -5.571623e+01   1.198268e+01
  -8.105333e+01   5.030317e+00
  -4.081168e+01  -5.177762e+01
   4.523381e+01  -8.712183e+01
   1.018587e+02  -5.301161e+01
   8.309290e+01   3.523247e+01
  -1.334040e+01   1.093882e+02
  -1.419269e+02   8.765684e+01
  -2.008078e+02  -4.950300e+01
  -1.061710e+02  -2.044964e+02
   1.053759e+02  -2.365191e+02
   2.740494e+02  -1.011037e+02
   2.669904e+02   8.809291e+01
   1.141164e+02   1.820745e+02
  -4.022221e+01   1.510723e+02
  -9.870054e+01   8.729696e+01
  -8.389453e+01   7.384602e+01
  -7.186887e+01   9.485501e+01
  -9.737609e+01   7.487792e+01
  -1.329520e+02  -2.649027e+01
  -1.223383e+02  -1.631099e+02
  -3.211436e+01  -2.373841e+02
   1.030865e+02  -1.815289e+02
   1.868276e+02  -2.319705e+01
   1.473420e+02   1.267662e+02
   2.317124e+01   1.682320e+02
  -6.966643e+01   9.917741e+01
  -6.363620e+01   4.577920e+00
  -7.150434e+00  -4.053058e+01
   7.219116e+00  -3.435101e+01
  -4.154403e+01  -2.041643e+01
  -8.421663e+01  -2.628245e+01
  -4.639392e+01  -4.049815e+01
   6.545344e+01  -3.782444e+01
   1.610665e+02  -3.967055e+00
   1.465404e+02   4.963229e+01
   1.708066e+01   8.709008e+01
  -1.213910e+02   7.425455e+01
  -1.474540e+02   1.544926e+01
  -4.903081e+01  -3.859290e+01
   6.156944e+01  -3.587799e+01
   7.638867e+01   1.933665e+01
   5.561033e+00   6.805056e+01
  -5.810558e+01   5.701766e+01
  -6.316508e+01  -3.158359e+00
  -4.243729e+01  -5.129955e+01
  -4.405078e+01  -4.252161e+01
  -6.474136e+01  -1.246358e+00
  -6.896133e+01   6.937509e-01
  -3.510817e+01  -6.891769e+01
   3.521512e+01  -1.507967e+02
   1.194457e+02  -1.462150e+02
   1.674440e+02  -3.342866e+01
   1.257792e+02   9.559206e+01
   6.580333e+00   1.299454e+02
  -8.795037e+01   6.125341e+01
  -6.084411e+01  -1.668798e+01
   6.203090e+01  -1.807565e+01
   1.422220e+02   4.918033e+01
   7.706417e+01   1.129423e+02
  -8.637818e+01   1.152873e+02
  -2.013969e+02   5.170734e+01
  -1.713596e+02  -3.644303e+01
  -3.922373e+01  -9.179833e+01
   6.495763e+01  -7.599083e+01
   5.389706e+01  -1.020865e+01
  -3.806839e+01   2.794009e+01
  -9.341360e+01  -2.213146e+01
  -3.352318e+01  -1.226664e+02
   9.684068e+01  -1.604184e+02
   1.752998e+02  -6.365760e+01
   1.309847e+02   1.069091e+02
   8.362738e+00   2.072787e+02
  -9.037922e+01   1.495384e+02
  -1.083159e+02  -8.755206e+00
  -6.236241e+01  -1.240985e+02
   1.701869e+00  -1.109950e+02
   4.749435e+01  -2.029243e+01
   5.489692e+01   3.335072e+01
   2.756496e+01   9.412962e+00
   2.695025e+00  -2.202440e+01
   1.902337e+01   1.427781e+01
   5.773336e+01   9.094303e+01
   4.633092e+01   1.130193e+02
  -4.613482e+01   4.633559e+01
  -1.439411e+02  -4.163840e+01
  -1.365892e+02  -7.360700e+01
  -1.803566e+01  -5.057510e+01
   9.354887e+01  -2.226434e+01
   9.327963e+01  -8.330577e+00
   1.048369e+01   6.654956e+00
  -4.118108e+01   2.292352e+01
  -1.409280e+01   1.958874e+01
   2.351823e+01  -1.022037e+00
  -5.833623e+00  -9.430078e+00
  -7.839674e+01  -4.755676e+00
  -9.485517e+01  -2.568270e+01
  -6.264989e+00  -8.359913e+01
   1.254628e+02  -1.173800e+02
   1.919362e+02  -5.857671e+01
   1.438822e+02   7.124475e+01
   2.492061e+01   1.671546e+02
  -8.033921e+01   1.533277e+02
  -1.153415e+02   5.935029e+01
  -8.202522e+01  -2.158162e+01
  -2.642042e+01  -3.472132e+01
   2.098815e+00  -7.380601e+00
  -1.069900e+01  -3.603849e+00
  -3.417467e+01  -4.775613e+01
  -2.374036e+01  -9.438558e+01
   3.028468e+01  -7.481822e+01
   8.489915e+01   2.004094e+01
   8.056789e+01   1.142056e+02
   4.083552e+00   1.172954e+02
  -8.616024e+01   2.376832e+01
  -1.067955e+02  -7.916518e+01
  -3.267299e+01  -1.056548e+02
   6.807783e+01  -5.440355e+01
   9.889556e+01   1.373097e+01
   3.809053e+01   5.008906e+01
  -3.442111e+01   5.028379e+01
  -3.125861e+01   2.800255e+01
   3.628386e+01   5.945824e-01
   7.135100e+01  -6.076639e+00
   1.395754e+01   2.524951e+01
  -8.220610e+01   6.692095e+01
  -1.182720e+02   6.002098e+01
  -6.453852e+01  -1.220543e+01
   1.653209e+01  -8.605131e+01
   5.391119e+01  -8.242661e+01
   3.751407e+01  -5.782480e+00
   2.051185e+00   5.766920e+01
  -2.548150e+01   4.372335e+01
  -3.676584e+01  -1.953041e+01
  -2.689100e+01  -5.517908e+01
   3.279694e+00  -3.205424e+01
   3.418126e+01   9.796196e+00
   4.062557e+01   2.148039e+01
   2.098241e+01   7.680948e-01
  -6.567805e-01  -1.336781e+01
  -7.694403e+00   5.603957e+00
  -9.676660e+00   3.898141e+01
  -2.063920e+01   4.431080e+01
  -3.472938e+01   3.785481e+00
  -2.895580e+01  -5.004009e+01
   5.995381e+00  -6.386655e+01
   4.788730e+01  -1.929342e+01
   5.707049e+01   4.329809e+01
   1.280387e+01   6.634296e+01
  -5.754208e+01   3.380780e+01
  -9.134678e+01  -1.878174e+01
  -4.974551e+01  -4.727881e+01
   3.092697e+01  -4.152690e+01
   6.788639e+01  -2.026713e+01
   2.454494e+01  -3.922119e+00
  -4.038759e+01  -3.165018e+00
  -4.015934e+01  -1.810697e+01
   3.325722e+01  -3.357116e+01
   9.758814e+01  -2.007042e+01
