
 $NMID
 id='ANONYMOUS ', fmtdat='(2E16.6)'
 volume=1.0
 tramp=1.0
 $END
  -4.466394e+03  -4.223028e+02
  -2.472432e+03  -2.123622e+03
   4.575708e+02  -2.728801e+03
   1.721474e+03  -1.039117e+03
   1.091303e+03   4.058910e+02
  -4.217950e+02   3.991630e+02
  -9.007797e+02  -4.050485e+02
   9.002201e+01  -1.025915e+03
   7.906923e+02  -7.875533e+02
   9.050403e+02   5.227676e+01
   4.143205e+02   8.305872e+02
  -2.001960e+02   8.847486e+02
  -5.337493e+02   7.049180e+01
  -2.030700e+02  -6.300680e+02
   2.249565e+02  -7.182642e+02
   5.313359e+02  -5.982807e+00
   2.660796e+02   6.594447e+02
  -2.446413e+02   6.414723e+02
  -6.402972e+02   1.207483e+02
  -3.867870e+02  -3.442350e+02
  -2.336805e+01  -4.302519e+02
   2.642410e+02  -2.764047e+02
   1.850364e+02  -7.595246e+01
  -1.545738e+02   1.654563e+01
  -4.038040e+02  -1.812160e+02
  -1.738835e+02  -3.862938e+02
   4.696665e+02  -3.620640e+02
   8.525874e+02   9.897449e+01
   3.981273e+02   4.921076e+02
  -3.705983e+02   4.285158e+02
  -6.940171e+02  -7.536657e+01
  -3.152057e+02  -4.489860e+02
   2.801074e+02  -5.040999e+02
   5.600689e+02  -1.767320e+02
   4.143262e+02   2.269026e+02
   4.481833e+01   4.780490e+02
  -1.698711e+02   2.779883e+02
  -1.281408e+02  -1.911774e+02
   1.860192e+02  -3.979313e+02
   4.013091e+02   6.440702e+01
   1.774721e+02   6.613066e+02
  -3.367590e+02   6.534909e+02
  -5.472885e+02  -3.022370e+01
  -2.089142e+02  -5.254043e+02
   2.915288e+02  -2.625201e+02
   3.391576e+02   3.498550e+02
  -7.744393e+01   5.235572e+02
  -5.336665e+02   1.143587e+02
  -5.696466e+02  -4.015802e+02
  -1.707321e+02  -5.564404e+02
   3.556607e+02  -3.248563e+02
   6.018372e+02   7.689763e+01
   3.726341e+02   3.562148e+02
  -1.298950e+02   3.396723e+02
  -4.209862e+02   6.719675e+01
  -2.499992e+02  -1.571916e+02
   8.793799e+01  -9.227574e+01
   1.275007e+02   1.237659e+02
  -1.493117e+02   1.533348e+02
  -3.260227e+02  -6.791761e+01
  -1.425459e+02  -2.742887e+02
   1.953806e+02  -2.630915e+02
   3.467675e+02  -1.042004e+02
   2.317281e+02   7.449917e+01
  -6.989919e+00   2.492681e+02
  -2.307525e+02   3.550684e+02
  -3.471715e+02   2.276222e+02
  -2.820652e+02  -1.299292e+02
  -7.342681e+01  -4.163144e+02
   9.304491e+01  -3.733714e+02
   8.858874e+01  -1.358424e+02
   2.076128e+01  -2.736205e+01
   7.188049e+01  -1.019705e+02
   2.270886e+02  -1.121542e+02
   2.891989e+02   7.866569e+01
   1.507646e+02   2.835678e+02
  -8.226039e+01   2.569809e+02
  -2.291879e+02   7.849060e+00
  -1.971424e+02  -2.478334e+02
   1.114973e+01  -3.001414e+02
   2.670749e+02  -1.156162e+02
   3.653376e+02   1.682710e+02
   1.929118e+02   3.476406e+02
  -8.360435e+01   3.007015e+02
  -2.115563e+02   1.312058e+02
  -1.437716e+02   2.797375e+01
  -1.072423e+02   5.419764e+01
  -2.515913e+02   7.111494e+01
  -4.249566e+02  -5.863705e+01
  -3.502249e+02  -2.839237e+02
  -5.090978e+00  -4.496336e+02
   3.677703e+02  -4.313759e+02
   4.945777e+02  -2.157440e+02
   3.365695e+02   8.703706e+01
   5.239513e+01   2.928080e+02
  -1.184594e+02   2.539217e+02
  -6.837210e+01   3.682665e+01
   1.107899e+02  -9.401264e+01
   1.793445e+02   1.368772e+01
   3.876646e+01   1.905589e+02
  -1.557431e+02   1.561430e+02
  -1.666099e+02  -6.671897e+01
   1.946262e+01  -1.882539e+02
   1.927153e+02  -2.797468e+01
   1.671674e+02   2.495014e+02
  -2.476384e+01   3.549726e+02
  -2.358813e+02   2.011648e+02
  -3.405651e+02  -6.113475e+01
  -2.861131e+02  -2.489145e+02
  -8.971322e+01  -2.744044e+02
   1.210007e+02  -1.639969e+02
   1.794959e+02  -1.984257e+01
   5.699272e+01   2.987502e+01
  -6.755375e+01  -4.363042e+01
  -2.228290e+01  -1.258734e+02
   1.313164e+02  -9.513654e+01
   1.802370e+02   1.762591e+01
   5.406529e+01   7.395612e+01
  -8.625326e+01   1.387321e+01
  -5.633532e+01  -7.790630e+01
   1.307816e+02  -9.004977e+01
   2.931411e+02   2.865951e+00
   2.684941e+02   1.479020e+02
   5.530428e+01   2.626868e+02
  -1.928498e+02   2.629917e+02
  -2.875598e+02   1.248772e+02
  -1.688932e+02  -5.164253e+01
   2.485345e+01  -1.075805e+02
   8.772528e+01  -6.765864e+00
  -3.736005e+01   1.009993e+02
  -1.988299e+02   5.700852e+01
  -2.149943e+02  -1.062001e+02
  -6.941186e+01  -2.120374e+02
   9.647434e+01  -1.596426e+02
   1.459356e+02  -2.726224e+01
   6.829656e+01   4.317175e+01
  -3.251849e+01  -9.024393e-02
  -3.758494e+01  -8.892435e+01
   7.772389e+01  -1.161620e+02
   2.047188e+02  -2.774624e+01
   1.929622e+02   1.259863e+02
   1.882483e+01   2.206430e+02
  -1.674755e+02   1.662513e+02
  -1.950309e+02   7.231611e+00
  -6.445191e+01  -1.154481e+02
   6.851169e+01  -1.129150e+02
   8.377159e+01  -2.979243e+01
   1.644193e+01   2.737864e+01
  -2.553711e+01   1.711947e+01
   9.066312e+00  -1.208337e+01
   7.561721e+01   7.749382e+00
   9.363332e+01   8.690863e+01
   1.368947e+01   1.646978e+02
  -1.332862e+02   1.550640e+02
  -2.406063e+02   2.315776e+01
  -2.042749e+02  -1.536420e+02
  -4.399750e+01  -2.400903e+02
   1.071694e+02  -1.735145e+02
   1.359024e+02  -3.222648e+01
   7.441414e+01   5.279791e+01
   3.154955e+01   3.501302e+01
   5.500255e+01  -1.262210e+01
   8.134808e+01  -8.030739e+00
   4.573786e+01   5.261718e+01
  -4.049139e+01   9.314756e+01
  -1.071291e+02   5.986748e+01
  -9.319302e+01  -3.815657e+01
   1.328257e+01  -1.166078e+02
   1.490052e+02  -8.805720e+01
   2.040729e+02   5.620969e+01
   9.776292e+01   2.078325e+02
  -1.149424e+02   2.303131e+02
  -2.732336e+02   9.261374e+01
  -2.578827e+02  -8.856215e+01
  -1.072352e+02  -1.781113e+02
   4.101813e+01  -1.468650e+02
   9.460797e+01  -8.498967e+01
   7.794068e+01  -7.137433e+01
   6.476566e+01  -9.329792e+01
   9.315506e+01  -7.575183e+01
   1.316621e+02   2.257728e+01
   1.213942e+02   1.571180e+02
   3.067373e+01   2.300162e+02
  -1.012008e+02   1.745585e+02
  -1.795089e+02   1.941914e+01
  -1.388270e+02  -1.249733e+02
  -1.846980e+01  -1.621671e+02
   7.040057e+01  -9.225497e+01
   6.211691e+01   1.796426e+00
   2.856608e+00   4.527282e+01
  -1.479386e+01   3.459312e+01
   3.476684e+01   1.593379e+01
   8.280233e+01   2.099787e+01
   4.817276e+01   3.905003e+01
  -6.573730e+01   3.854412e+01
  -1.635223e+02   2.859598e+00
  -1.456104e+02  -5.332631e+01
  -1.221136e+01  -8.989871e+01
   1.244655e+02  -7.339296e+01
   1.452944e+02  -1.230483e+01
   4.664155e+01   4.138904e+01
  -6.071570e+01   3.751466e+01
  -7.613973e+01  -1.960090e+01
  -9.608721e+00  -6.982669e+01
   5.410467e+01  -5.963153e+01
   6.472019e+01   1.337148e+00
   4.793963e+01   5.078527e+01
   4.538711e+01   4.193667e+01
   6.087629e+01   6.325251e-01
   6.729906e+01  -7.735769e-01
   3.977470e+01   7.012818e+01
  -3.022476e+01   1.518530e+02
  -1.198680e+02   1.475605e+02
  -1.717592e+02   3.551760e+01
  -1.284593e+02  -9.346704e+01
  -6.601645e+00  -1.311167e+02
   8.875235e+01  -6.506346e+01
   6.186247e+01   1.454770e+01
  -5.975079e+01   2.177467e+01
  -1.399593e+02  -4.276113e+01
  -7.707027e+01  -1.093171e+02
   8.275047e+01  -1.153396e+02
   1.951675e+02  -5.233003e+01
   1.655664e+02   3.594200e+01
   3.681781e+01   8.948352e+01
  -6.366803e+01   7.137418e+01
  -5.072527e+01   6.858546e+00
   3.893064e+01  -2.860289e+01
   9.133849e+01   2.079963e+01
   3.410919e+01   1.186702e+02
  -8.979580e+01   1.564698e+02
  -1.667338e+02   6.481052e+01
  -1.281044e+02  -1.005081e+02
  -1.261241e+01  -2.002961e+02
   8.575660e+01  -1.462573e+02
   1.076162e+02   7.698389e+00
   6.279501e+01   1.206131e+02
  -3.442505e+00   1.079446e+02
  -4.890870e+01   1.995394e+01
  -5.234149e+01  -3.184887e+01
  -2.361461e+01  -8.844088e+00
  -2.890071e+00   2.002154e+01
  -2.228636e+01  -1.573043e+01
  -5.743583e+01  -8.846333e+01
  -4.152676e+01  -1.087819e+02
   4.875855e+01  -4.541433e+01
   1.393263e+02   3.824512e+01
   1.303426e+02   7.025728e+01
   1.875718e+01   5.047547e+01
  -8.666292e+01   2.410729e+01
  -8.847732e+01   8.987018e+00
  -1.220837e+01  -7.077293e+00
   3.769619e+01  -2.258514e+01
   1.446844e+01  -1.868148e+01
  -2.127101e+01   1.175647e+00
   5.033299e+00   9.411019e+00
   7.437908e+01   3.880776e+00
   9.379179e+01   2.247029e+01
   1.192801e+01   7.823255e+01
  -1.163740e+02   1.144015e+02
  -1.857826e+02   6.279891e+01
  -1.428309e+02  -6.162931e+01
  -2.674388e+01  -1.591175e+02
   7.753862e+01  -1.512069e+02
   1.121238e+02  -6.134118e+01
   7.902488e+01   1.995794e+01
   2.535800e+01   3.492570e+01
  -8.706886e-01   8.206461e+00
   1.193318e+01   4.176303e+00
   3.337906e+01   4.748738e+01
   2.251040e+01   9.243208e+01
  -2.896025e+01   7.282550e+01
  -8.074319e+01  -1.825979e+01
  -7.861386e+01  -1.075302e+02
  -7.607901e+00  -1.112839e+02
   7.947914e+01  -2.470633e+01
   1.028781e+02   7.286448e+01
   3.406182e+01   1.018238e+02
  -6.514213e+01   5.667351e+01
  -9.887803e+01  -1.035050e+01
  -4.091935e+01  -5.121206e+01
   3.275968e+01  -5.427312e+01
   3.288407e+01  -3.022380e+01
  -3.288603e+01   2.267555e-01
  -7.015904e+01   7.362695e+00
  -1.544762e+01  -2.485050e+01
   8.080663e+01  -6.636090e+01
   1.189989e+02  -5.902191e+01
   6.615206e+01   1.160384e+01
  -1.588257e+01   8.360378e+01
  -5.395247e+01   8.168225e+01
  -3.725745e+01   8.920861e+00
  -1.959740e+00  -5.435640e+01
   2.448527e+01  -4.353959e+01
   3.507550e+01   1.705906e+01
   2.694291e+01   5.420065e+01
  -1.759238e+00   3.379828e+01
  -3.325012e+01  -8.435237e+00
  -4.155950e+01  -2.190325e+01
  -2.185454e+01  -1.295161e+00
   1.639710e+00   1.523745e+01
   7.757651e+00  -1.863355e+00
   4.531317e+00  -3.718624e+01
   1.312822e+01  -4.705112e+01
   3.140648e+01  -1.060150e+01
   3.344648e+01   4.272511e+01
   1.916624e+00   6.028625e+01
  -4.339240e+01   2.136727e+01
  -5.746614e+01  -3.779797e+01
  -1.468507e+01  -6.213703e+01
   5.670034e+01  -3.393908e+01
   9.076690e+01   1.533336e+01
   4.941121e+01   4.467864e+01
  -2.956426e+01   4.240503e+01
  -6.546935e+01   2.329171e+01
  -2.540909e+01   6.289002e+00
   3.529186e+01   1.913111e+00
   3.608609e+01   1.361289e+01
  -3.046120e+01   2.881473e+01
  -8.934736e+01   1.894666e+01
