
 $NMID
 id='ANONYMOUS ', fmtdat='(2E16.6)'
 volume=1.0
 tramp=1.0
 $END
  -3.235533e+03  -1.733777e+02
  -1.874715e+03  -1.678080e+03
   3.395031e+01  -2.054429e+03
   1.392370e+03  -1.081689e+03
   9.597615e+02   1.192159e+02
  -2.218981e+02   1.282134e+02
  -4.788622e+02  -2.948535e+02
  -2.933633e+00  -7.351516e+02
   5.261834e+02  -5.794641e+02
   6.867788e+02   4.124608e+01
   3.969527e+02   5.834840e+02
  -1.290385e+02   5.996679e+02
  -3.854237e+02   1.467656e+02
  -2.528690e+02  -4.645860e+02
   8.949360e+01  -5.212159e+02
   3.854919e+02  -3.177910e+01
   2.448605e+02   4.558372e+02
  -1.507604e+02   4.935370e+02
  -4.429958e+02   1.298286e+02
  -3.029719e+02  -1.949143e+02
  -3.485996e+01  -3.169830e+02
   2.044697e+02  -2.157705e+02
   1.690842e+02  -1.772949e+01
  -1.405625e+02   4.608249e+01
  -3.193000e+02  -1.305341e+02
  -9.426284e+01  -2.965293e+02
   3.856316e+02  -2.296563e+02
   6.250307e+02   9.035860e+01
   2.787468e+02   3.678971e+02
  -3.153476e+02   2.720268e+02
  -5.116844e+02  -7.146337e+01
  -2.171396e+02  -3.242048e+02
   2.242950e+02  -3.536251e+02
   4.122010e+02  -1.200591e+02
   2.639283e+02   1.734343e+02
   5.227425e+01   3.108307e+02
  -8.950557e+01   1.941032e+02
  -4.545912e+01  -1.349675e+02
   1.395142e+02  -2.488681e+02
   2.642852e+02   6.058606e+01
   1.049372e+02   4.675305e+02
  -2.246722e+02   4.567376e+02
  -3.671562e+02   6.572996e+00
  -1.369279e+02  -3.554314e+02
   2.006560e+02  -1.942209e+02
   2.342263e+02   2.351121e+02
  -6.281319e+01   3.670422e+02
  -3.927131e+02   8.973213e+01
  -4.277840e+02  -2.799662e+02
  -1.345571e+02  -4.061694e+02
   2.593955e+02  -2.517119e+02
   4.405654e+02   3.002186e+01
   2.723281e+02   2.393043e+02
  -8.082572e+01   2.304888e+02
  -2.782000e+02   4.768737e+01
  -1.642097e+02  -9.532914e+01
   5.035956e+01  -4.572232e+01
   6.678307e+01   9.022771e+01
  -1.095365e+02   9.574119e+01
  -2.137973e+02  -5.732981e+01
  -9.145429e+01  -1.927132e+02
   1.262330e+02  -1.920142e+02
   2.332329e+02  -9.542854e+01
   1.752590e+02   3.967540e+01
   1.958298e+01   1.949333e+02
  -1.526029e+02   2.847340e+02
  -2.549498e+02   1.761772e+02
  -2.133800e+02  -9.798013e+01
  -6.168319e+01  -2.959310e+02
   4.995616e+01  -2.547933e+02
   3.507055e+01  -9.879904e+01
  -1.155203e+01  -4.611644e+01
   4.611241e+01  -1.044043e+02
   1.785239e+02  -9.475095e+01
   2.312920e+02   5.472052e+01
   1.269611e+02   2.009977e+02
  -4.971975e+01   1.833307e+02
  -1.649239e+02   6.913869e+00
  -1.451854e+02  -1.710296e+02
   6.824773e+00  -2.073500e+02
   1.916477e+02  -7.760811e+01
   2.602539e+02   1.242588e+02
   1.411061e+02   2.470856e+02
  -4.944897e+01   2.140675e+02
  -1.400941e+02   9.583341e+01
  -1.005692e+02   2.704471e+01
  -8.332347e+01   4.925825e+01
  -1.913778e+02   6.458712e+01
  -3.145939e+02  -3.080889e+01
  -2.628669e+02  -2.036552e+02
  -1.447170e+01  -3.373007e+02
   2.581106e+02  -3.337674e+02
   3.632159e+02  -1.738710e+02
   2.508024e+02   5.993393e+01
   4.413566e+01   2.124005e+02
  -8.092334e+01   1.798133e+02
  -4.168164e+01   2.146239e+01
   8.948071e+01  -6.588162e+01
   1.365073e+02   1.894071e+01
   2.838900e+01   1.378786e+02
  -1.091646e+02   1.094110e+02
  -1.187547e+02  -4.985239e+01
   1.341484e+01  -1.343552e+02
   1.388310e+02  -2.185621e+01
   1.298372e+02   1.773643e+02
  -2.328871e+00   2.626394e+02
  -1.621359e+02   1.621481e+02
  -2.567315e+02  -3.067320e+01
  -2.257475e+02  -1.807031e+02
  -7.607311e+01  -2.079083e+02
   8.781947e+01  -1.234419e+02
   1.336664e+02  -1.227379e+01
   4.159481e+01   2.336252e+01
  -5.225854e+01  -3.382657e+01
  -2.088026e+01  -9.637587e+01
   9.246516e+01  -7.414072e+01
   1.328877e+02   7.661865e+00
   4.275141e+01   5.201884e+01
  -6.441977e+01   1.269008e+01
  -4.820982e+01  -5.705425e+01
   9.203944e+01  -7.622703e+01
   2.221140e+02  -1.398026e+01
   2.102178e+02   9.966790e+01
   5.001535e+01   1.968187e+02
  -1.380696e+02   2.017632e+02
  -2.084660e+02   9.644016e+01
  -1.199110e+02  -3.658008e+01
   2.011359e+01  -7.659252e+01
   6.385897e+01  -2.355364e+00
  -2.688785e+01   7.588683e+01
  -1.445014e+02   4.570441e+01
  -1.596296e+02  -7.132107e+01
  -5.799724e+01  -1.512346e+02
   6.489220e+01  -1.184057e+02
   1.065463e+02  -2.318677e+01
   5.097252e+01   3.180543e+01
  -2.724338e+01   7.385177e-01
  -3.416257e+01  -6.914359e+01
   5.353259e+01  -9.315817e+01
   1.528045e+02  -2.718895e+01
   1.481117e+02   8.981385e+01
   2.109626e+01   1.620015e+02
  -1.168248e+02   1.245134e+02
  -1.402749e+02   1.042155e+01
  -4.890339e+01  -8.022080e+01
   4.675987e+01  -8.167004e+01
   5.933851e+01  -2.193324e+01
   9.569141e+00   2.229698e+01
  -2.478702e+01   1.400621e+01
   9.848483e-01  -1.464249e+01
   5.794766e+01  -7.101828e+00
   8.091019e+01   5.460512e+01
   2.421760e+01   1.230061e+02
  -9.009077e+01   1.254418e+02
  -1.774881e+02   3.032142e+01
  -1.563182e+02  -1.053578e+02
  -3.910421e+01  -1.749904e+02
   7.238518e+01  -1.295106e+02
   9.658908e+01  -2.602969e+01
   5.377463e+01   3.789563e+01
   2.204868e+01   2.367916e+01
   3.888348e+01  -1.548968e+01
   6.117498e+01  -1.287600e+01
   3.977316e+01   3.364373e+01
  -2.192654e+01   7.375894e+01
  -7.702974e+01   5.390976e+01
  -7.264700e+01  -2.170578e+01
   3.545911e+00  -9.044586e+01
   1.076493e+02  -7.569103e+01
   1.549096e+02   3.267749e+01
   8.261075e+01   1.532981e+02
  -7.609559e+01   1.779066e+02
  -1.992011e+02   7.959150e+01
  -1.941828e+02  -5.677465e+01
  -8.528870e+01  -1.282149e+02
   2.557182e+01  -1.095881e+02
   6.664935e+01  -6.420556e+01
   5.230870e+01  -5.250981e+01
   3.998329e+01  -6.956687e+01
   6.226818e+01  -6.096612e+01
   9.783489e+01   7.304640e+00
   9.718468e+01   1.069762e+02
   3.344318e+01   1.668769e+02
  -6.614960e+01   1.337560e+02
  -1.298973e+02   2.337280e+01
  -1.060921e+02  -8.550166e+01
  -1.974539e+01  -1.185779e+02
   4.808968e+01  -7.008324e+01
   4.633539e+01   1.249881e+00
   3.790281e+00   3.648971e+01
  -1.137917e+01   2.794504e+01
   2.411089e+01   9.023289e+00
   6.177713e+01   9.153520e+00
   3.855802e+01   2.575772e+01
  -4.661793e+01   3.375643e+01
  -1.221871e+02   1.169750e+01
  -1.113618e+02  -3.391412e+01
  -1.259195e+01  -6.960804e+01
   9.032931e+01  -6.209992e+01
   1.085760e+02  -1.441670e+01
   3.833587e+01   3.072773e+01
  -4.158137e+01   3.154409e+01
  -5.752614e+01  -1.034177e+01
  -1.283896e+01  -4.974681e+01
   3.511333e+01  -4.550867e+01
   4.891199e+01  -2.559706e+00
   3.984009e+01   3.390914e+01
   3.550776e+01   2.880350e+01
   4.331064e+01  -1.319750e+00
   4.900449e+01  -3.046663e+00
   3.424502e+01   4.905624e+01
  -1.349778e+01   1.128931e+02
  -8.179950e+01   1.153107e+02
  -1.268822e+02   3.616162e+01
  -9.993120e+01  -6.229713e+01
  -1.039018e+01  -9.736880e+01
   6.284465e+01  -5.357358e+01
   4.603305e+01   7.308586e+00
  -4.327090e+01   1.905741e+01
  -1.048383e+02  -2.493588e+01
  -6.162656e+01  -7.706442e+01
   5.594870e+01  -8.844951e+01
   1.418266e+02  -4.709389e+01
   1.241350e+02   1.908203e+01
   3.121084e+01   6.420720e+01
  -4.419958e+01   5.569818e+01
  -3.801664e+01   7.913229e+00
   2.585728e+01  -2.224675e+01
   6.701751e+01   1.007626e+01
   3.113498e+01   8.309527e+01
  -5.584905e+01   1.169073e+02
  -1.160745e+02   5.557483e+01
  -9.761334e+01  -6.536390e+01
  -1.944939e+01  -1.437103e+02
   5.520210e+01  -1.100620e+02
   7.900910e+01   9.458815e-01
   5.121367e+01   8.608595e+01
   1.020325e+00   7.977173e+01
  -3.612987e+01   1.677392e+01
  -3.970272e+01  -2.161676e+01
  -1.725581e+01  -6.125279e+00
  -2.283703e+00   1.452797e+01
  -1.870882e+01  -1.095491e+01
  -4.586222e+01  -6.270991e+01
  -3.283152e+01  -7.849104e+01
   3.555345e+01  -3.549297e+01
   1.032602e+02   2.231975e+01
   9.698530e+01   4.609708e+01
   1.560877e+01   3.616051e+01
  -6.171221e+01   2.063591e+01
  -6.412941e+01   9.628304e+00
  -9.568334e+00  -4.928851e+00
   2.730879e+01  -1.773947e+01
   1.201418e+01  -1.376093e+01
  -1.374785e+01   1.912457e+00
   3.656983e+00   6.586508e+00
   5.293207e+01  -5.945797e-02
   6.908324e+01   1.298980e+01
   1.352755e+01   5.747604e+01
  -7.835698e+01   8.981933e+01
  -1.328786e+02   5.523836e+01
  -1.085637e+02  -3.829660e+01
  -2.870332e+01  -1.161496e+02
   4.895520e+01  -1.156501e+02
   7.933015e+01  -5.056924e+01
   5.986721e+01   1.119332e+01
   2.161532e+01   2.426071e+01
   1.236580e+00   5.327099e+00
   1.004884e+01   2.621258e+00
   2.734275e+01   3.436558e+01
   2.104147e+01   6.751154e+01
  -1.768444e+01   5.463598e+01
  -5.998496e+01  -9.233558e+00
  -6.255613e+01  -7.312434e+01
  -1.082356e+01  -7.915150e+01
   5.693277e+01  -2.191631e+01
   7.872865e+01   4.656169e+01
   2.970348e+01   7.215665e+01
  -4.547487e+01   4.572182e+01
  -7.359683e+01  -1.678509e+00
  -3.306211e+01  -3.623100e+01
   2.186404e+01  -4.308056e+01
   2.423935e+01  -2.427106e+01
  -2.231045e+01   2.515823e+00
  -5.011224e+01   9.288702e+00
  -1.299551e+01  -1.741607e+01
   5.548291e+01  -5.252959e+01
   8.481460e+01  -4.858228e+01
   5.044251e+01   5.904974e+00
  -5.977612e+00   6.275525e+01
  -3.492207e+01   6.378416e+01
  -2.748055e+01   9.544880e+00
  -4.737763e+00  -3.932588e+01
   1.521222e+01  -3.355129e+01
   2.643658e+01   1.073585e+01
   2.237535e+01   3.887107e+01
   3.921517e-01   2.501544e+01
  -2.499293e+01  -5.372577e+00
  -3.095024e+01  -1.492366e+01
  -1.445996e+01   1.755306e-01
   4.190061e+00   1.248979e+01
   6.443642e+00   3.783480e-01
  -3.275444e-01  -2.509764e+01
   4.054469e+00  -3.339406e+01
   2.065713e+01  -9.417124e+00
   2.704551e+01   2.787843e+01
   5.432093e+00   4.247590e+01
  -3.137880e+01   1.826969e+01
  -4.578070e+01  -2.310033e+01
  -1.487131e+01  -4.467034e+01
   3.993184e+01  -2.994380e+01
   6.788508e+01   4.001076e+00
   3.925948e+01   2.977963e+01
  -1.842237e+01   3.422324e+01
  -4.604659e+01   2.223356e+01
  -1.882028e+01   5.972887e+00
   2.447448e+01  -1.490756e+00
   2.658261e+01   7.066513e+00
  -1.947358e+01   2.246841e+01
  -6.274825e+01   1.910122e+01
