
 $NMID
 id='ANONYMOUS ', fmtdat='(2E16.6)'
 volume=1.0
 tramp=1.0
 $END
  -4.885081e+03  -2.205409e+02
  -2.692322e+03  -2.927975e+03
   7.431083e+02  -3.079849e+03
   2.379099e+03  -9.507899e+02
   9.872955e+02   1.014269e+03
  -7.156830e+02   6.051094e+02
  -1.043876e+03  -6.590224e+02
   1.400701e+02  -1.228861e+03
   9.978974e+02  -8.364733e+02
   1.135399e+03   2.125759e+02
   4.741278e+02   8.576702e+02
  -2.367631e+02   9.307017e+02
  -6.760306e+02   7.478998e+01
  -3.778442e+02  -7.057221e+02
   2.664233e+02  -7.234610e+02
   6.597901e+02   4.601830e+01
   2.962101e+02   6.885695e+02
  -3.347243e+02   6.548379e+02
  -6.004844e+02  -1.027626e+01
  -3.670412e+02  -3.429991e+02
   4.554992e+00  -3.750355e+02
   2.660219e+02  -2.819482e+02
   2.557189e+02  -4.193248e+01
  -1.095070e+02   8.582478e+01
  -4.531860e+02  -9.249664e+01
  -2.622523e+02  -4.556200e+02
   4.593438e+02  -4.794421e+02
   9.331825e+02   3.268619e+01
   4.989636e+02   6.023998e+02
  -3.885364e+02   5.296289e+02
  -7.880288e+02  -1.638801e+01
  -3.543137e+02  -5.111870e+02
   3.118479e+02  -5.590397e+02
   5.950336e+02  -2.181822e+02
   4.283807e+02   2.751726e+02
   5.584169e+01   5.076224e+02
  -2.228978e+02   3.040120e+02
  -1.946518e+02  -2.499427e+02
   1.770424e+02  -4.942175e+02
   4.846748e+02   1.177408e+01
   2.763864e+02   7.433180e+02
  -3.318559e+02   7.623150e+02
  -6.635796e+02   1.577237e+00
  -2.869215e+02  -6.264890e+02
   3.127439e+02  -3.668792e+02
   4.303776e+02   3.547387e+02
  -5.360684e+01   5.807639e+02
  -5.816785e+02   1.590382e+02
  -6.364063e+02  -4.112927e+02
  -1.856674e+02  -6.041118e+02
   3.995001e+02  -3.644795e+02
   6.559588e+02   7.270515e+01
   3.778699e+02   4.022391e+02
  -1.797341e+02   3.852060e+02
  -4.715645e+02   4.570091e+01
  -2.409601e+02  -2.232602e+02
   1.399557e+02  -1.136791e+02
   1.542640e+02   1.807133e+02
  -1.771284e+02   2.150398e+02
  -3.617480e+02  -7.235591e+01
  -1.441464e+02  -3.119020e+02
   1.984626e+02  -2.621119e+02
   3.124667e+02  -7.275809e+01
   1.855248e+02   7.417421e+01
  -9.018317e+00   2.125938e+02
  -1.958358e+02   3.378738e+02
  -3.378156e+02   2.417555e+02
  -3.118050e+02  -1.349481e+02
  -8.381922e+01  -4.542956e+02
   1.329807e+02  -3.856890e+02
   1.246776e+02  -8.594778e+01
  -8.258204e+00   2.937324e+01
   2.873590e+00  -1.097578e+02
   1.927792e+02  -1.743554e+02
   3.159192e+02   2.741913e+01
   1.971031e+02   2.812962e+02
  -6.438561e+01   2.821189e+02
  -2.471632e+02   2.745348e+01
  -2.238055e+02  -2.420682e+02
   1.040322e+00  -3.077740e+02
   2.782045e+02  -1.293131e+02
   3.806565e+02   1.678924e+02
   1.896234e+02   3.571536e+02
  -1.123914e+02   3.121573e+02
  -2.398300e+02   1.143027e+02
  -1.473148e+02  -1.044673e+01
  -7.832973e+01   2.991448e+01
  -2.154825e+02   7.688996e+01
  -3.986025e+02  -3.669184e+01
  -3.478172e+02  -2.695245e+02
  -2.053153e+01  -4.441185e+02
   3.461701e+02  -4.334447e+02
   4.984148e+02  -2.242455e+02
   3.589537e+02   8.628375e+01
   6.884142e+01   3.125303e+02
  -1.398470e+02   2.708863e+02
  -9.874105e+01   2.302404e+01
   1.131801e+02  -1.302553e+02
   2.212782e+02  -5.256546e-01
   6.214186e+01   2.178684e+02
  -1.747111e+02   1.939898e+02
  -2.003240e+02  -6.539462e+01
   1.241900e+01  -2.159873e+02
   2.069509e+02  -4.369952e+01
   1.762147e+02   2.567171e+02
  -2.635319e+01   3.614373e+02
  -2.288895e+02   1.981394e+02
  -3.320690e+02  -6.057129e+01
  -2.938574e+02  -2.357312e+02
  -1.110796e+02  -2.680469e+02
   1.123374e+02  -1.736659e+02
   1.942847e+02  -3.034538e+01
   7.187744e+01   3.741692e+01
  -7.509723e+01  -2.938182e+01
  -4.246238e+01  -1.283511e+02
   1.233699e+02  -1.143705e+02
   1.921291e+02   3.942602e+00
   7.063009e+01   8.072909e+01
  -8.118772e+01   3.334153e+01
  -6.634123e+01  -6.463710e+01
   1.140834e+02  -9.513417e+01
   2.834242e+02  -1.849244e+01
   2.766086e+02   1.273482e+02
   7.573163e+01   2.614161e+02
  -1.800482e+02   2.813055e+02
  -2.949455e+02   1.410525e+02
  -1.838651e+02  -5.639494e+01
   2.399735e+01  -1.259032e+02
   1.035394e+02  -1.635776e+01
  -2.162411e+01   1.093678e+02
  -1.974391e+02   7.197236e+01
  -2.241756e+02  -9.869174e+01
  -7.746899e+01  -2.149385e+02
   9.674462e+01  -1.677889e+02
   1.551498e+02  -3.264946e+01
   8.106170e+01   4.775012e+01
  -2.723307e+01   1.487754e+01
  -4.747339e+01  -7.507843e+01
   5.986764e+01  -1.164295e+02
   1.962061e+02  -4.023129e+01
   2.000493e+02   1.167568e+02
   2.912487e+01   2.234270e+02
  -1.670890e+02   1.743326e+02
  -2.034647e+02   9.787676e+00
  -7.095745e+01  -1.211903e+02
   6.947582e+01  -1.209397e+02
   9.059072e+01  -3.579799e+01
   2.429851e+01   2.851168e+01
  -2.136062e+01   2.644844e+01
   4.368950e+00  -2.819878e+00
   6.530620e+01   4.851722e+00
   9.052118e+01   7.096629e+01
   2.609475e+01   1.522936e+02
  -1.164452e+02   1.604094e+02
  -2.356237e+02   4.042221e+01
  -2.132173e+02  -1.437188e+02
  -4.946309e+01  -2.435004e+02
   1.112935e+02  -1.790639e+02
   1.421721e+02  -2.770647e+01
   7.203830e+01   6.107573e+01
   2.385635e+01   3.863409e+01
   4.690744e+01  -1.514267e+01
   7.636537e+01  -1.206671e+01
   4.143057e+01   4.367073e+01
  -3.622515e+01   8.412686e+01
  -9.406253e+01   5.635641e+01
  -8.210492e+01  -3.094712e+01
   8.480877e+00  -1.077853e+02
   1.361069e+02  -9.017028e+01
   2.009842e+02   4.304509e+01
   1.130243e+02   2.008672e+02
  -9.937816e+01   2.380381e+02
  -2.713486e+02   1.096348e+02
  -2.669776e+02  -7.930418e+01
  -1.173814e+02  -1.792168e+02
   3.737476e+01  -1.537371e+02
   9.586318e+01  -8.849353e+01
   7.985039e+01  -6.972528e+01
   6.483068e+01  -8.904152e+01
   8.898543e+01  -7.297980e+01
   1.269672e+02   1.975096e+01
   1.220430e+02   1.490776e+02
   3.825744e+01   2.237569e+02
  -9.269314e+01   1.767211e+02
  -1.772273e+02   2.927188e+01
  -1.440229e+02  -1.154794e+02
  -2.697299e+01  -1.605386e+02
   6.376448e+01  -9.841088e+01
   6.121673e+01  -5.917271e+00
   8.945129e+00   4.182628e+01
  -6.906556e+00   3.644939e+01
   3.615065e+01   1.775973e+01
   7.638298e+01   1.808927e+01
   4.432522e+01   3.333222e+01
  -5.857180e+01   3.732500e+01
  -1.513541e+02   9.650294e+00
  -1.422527e+02  -4.431747e+01
  -2.039981e+01  -8.711441e+01
   1.157717e+02  -7.750256e+01
   1.449471e+02  -1.756024e+01
   5.064261e+01   3.947693e+01
  -5.905772e+01   3.822084e+01
  -7.579955e+01  -1.681971e+01
  -7.289893e+00  -6.516988e+01
   5.556667e+01  -5.518613e+01
   6.116821e+01   2.120925e+00
   4.097060e+01   4.786394e+01
   4.126373e+01   3.942066e+01
   5.970098e+01   1.106580e+00
   6.393435e+01  -2.342933e+00
   3.464190e+01   6.224860e+01
  -2.806477e+01   1.401671e+02
  -1.070414e+02   1.407333e+02
  -1.570692e+02   3.863028e+01
  -1.228426e+02  -8.484094e+01
  -1.034411e+01  -1.236035e+02
   8.345125e+01  -6.245287e+01
   6.049825e+01   1.463305e+01
  -5.910923e+01   2.321694e+01
  -1.409964e+02  -3.837906e+01
  -8.142948e+01  -1.056453e+02
   7.673987e+01  -1.172837e+02
   1.907209e+02  -6.200449e+01
   1.657253e+02   2.585762e+01
   4.220751e+01   8.593841e+01
  -5.627549e+01   7.561041e+01
  -4.702111e+01   1.325564e+01
   3.746456e+01  -2.392848e+01
   8.741923e+01   2.187284e+01
   3.130561e+01   1.164460e+02
  -9.047587e+01   1.524156e+02
  -1.661346e+02   6.274591e+01
  -1.279787e+02  -9.841766e+01
  -1.409357e+01  -1.964588e+02
   8.290693e+01  -1.470970e+02
   1.066189e+02   1.248665e+00
   6.637091e+01   1.154496e+02
   2.945411e+00   1.090736e+02
  -4.507636e+01   2.474014e+01
  -5.447485e+01  -2.986058e+01
  -2.758207e+01  -1.013232e+01
  -3.068480e+00   2.020489e+01
  -1.916547e+01  -1.251138e+01
  -5.610558e+01  -8.578530e+01
  -4.405381e+01  -1.091583e+02
   4.561326e+01  -4.699303e+01
   1.388690e+02   3.776335e+01
   1.305650e+02   6.968703e+01
   1.708043e+01   4.928333e+01
  -8.846947e+01   2.334627e+01
  -8.782628e+01   1.019672e+01
  -1.007410e+01  -5.984626e+00
   3.768397e+01  -2.414275e+01
   1.224925e+01  -2.133713e+01
  -2.193459e+01   3.508777e-01
   7.034554e+00   1.065589e+01
   7.502963e+01   5.346477e+00
   8.970285e+01   2.290341e+01
   6.367531e+00   7.714817e+01
  -1.166914e+02   1.111934e+02
  -1.794290e+02   5.758842e+01
  -1.361031e+02  -6.500188e+01
  -2.544220e+01  -1.572978e+02
   7.497674e+01  -1.450753e+02
   1.099275e+02  -5.636795e+01
   7.841740e+01   2.036554e+01
   2.356178e+01   3.290131e+01
  -4.143442e+00   6.572913e+00
   1.009657e+01   2.557337e+00
   3.470733e+01   4.422819e+01
   2.477004e+01   8.847195e+01
  -2.827358e+01   7.046908e+01
  -8.050992e+01  -1.895116e+01
  -7.508995e+01  -1.071816e+02
  -1.986785e+00  -1.093172e+02
   8.214265e+01  -2.077732e+01
   9.990503e+01   7.595335e+01
   2.908700e+01   1.008371e+02
  -6.624787e+01   5.259502e+01
  -9.515756e+01  -1.189007e+01
  -3.747739e+01  -4.808636e+01
   3.162083e+01  -5.011624e+01
   2.864894e+01  -2.911642e+01
  -3.514952e+01  -9.895612e-01
  -6.831788e+01   6.705849e+00
  -1.367714e+01  -2.441271e+01
   7.888809e+01  -6.642866e+01
   1.134958e+02  -6.008888e+01
   6.194261e+01   1.060610e+01
  -1.529600e+01   8.200626e+01
  -5.026472e+01   7.806983e+01
  -3.438289e+01   4.430315e+00
  -2.111199e-01  -5.516386e+01
   2.559371e+01  -4.031359e+01
   3.587262e+01   2.022699e+01
   2.601934e+01   5.331274e+01
  -3.033188e+00   3.116168e+01
  -3.380588e+01  -8.624796e+00
  -4.021933e+01  -1.948568e+01
  -2.096390e+01  -6.882836e-01
   6.780863e-01   1.203172e+01
   7.772732e+00  -5.988861e+00
   8.384938e+00  -3.702947e+01
   1.843289e+01  -4.242692e+01
   3.255157e+01  -5.094114e+00
   2.833142e+01   4.567817e+01
  -3.944744e+00   6.028577e+01
  -4.462484e+01   2.042561e+01
  -5.535256e+01  -3.844113e+01
  -1.465983e+01  -6.257915e+01
   5.280342e+01  -3.465654e+01
   8.671015e+01   1.419416e+01
   4.890646e+01   4.323879e+01
  -2.743783e+01   3.999220e+01
  -6.322419e+01   2.072870e+01
  -2.335007e+01   4.692269e+00
   3.761174e+01   2.946809e+00
   3.769406e+01   1.705113e+01
  -3.133533e+01   3.216635e+01
  -9.197624e+01   1.997785e+01
