
 $NMID
 id='ANONYMOUS ', fmtdat='(2E16.6)'
 volume=1.0
 tramp=1.0
 $END
   4.599261e+03   3.208721e+00
   2.635027e+03   2.664941e+03
  -8.682937e+02   2.809381e+03
  -2.386440e+03   8.249832e+02
  -8.438635e+02  -8.587893e+02
   7.046074e+02  -5.027269e+02
   9.951131e+02   4.976153e+02
  -9.764184e-01   1.162092e+03
  -9.669302e+02   8.052692e+02
  -1.087146e+03  -2.553184e+02
  -3.809754e+02  -9.132840e+02
   2.443598e+02  -9.545732e+02
   5.948703e+02  -1.385092e+02
   4.828454e+02   7.268125e+02
  -3.449776e+02   8.059058e+02
  -6.634712e+02  -4.746522e+01
  -2.188363e+02  -7.398969e+02
   4.239254e+02  -6.270330e+02
   6.666036e+02  -6.106593e+01
   4.193959e+02   4.318796e+02
   1.409096e+01   4.416908e+02
  -2.787964e+02   2.696922e+02
  -1.894641e+02   1.132861e+01
   1.098982e+02  -1.424033e+02
   4.365651e+02   7.933863e+01
   2.238190e+02   4.061106e+02
  -4.993751e+02   4.431381e+02
  -9.051863e+02  -5.355332e+01
  -4.672795e+02  -5.835381e+02
   4.174976e+02  -5.408814e+02
   8.220850e+02   1.913915e+01
   3.839450e+02   4.942654e+02
  -3.084018e+02   5.504336e+02
  -6.106943e+02   2.146922e+02
  -4.379502e+02  -2.476365e+02
  -5.408121e+01  -5.116079e+02
   2.296891e+02  -2.988932e+02
   1.928163e+02   2.364098e+02
  -1.730569e+02   4.915020e+02
  -4.766456e+02  -2.852029e+00
  -2.723537e+02  -7.213425e+02
   3.530388e+02  -7.648542e+02
   6.501378e+02  -1.660472e+00
   2.980204e+02   6.141135e+02
  -3.127937e+02   3.497038e+02
  -4.293006e+02  -3.457163e+02
   5.637904e+01  -5.949957e+02
   5.926164e+02  -1.595973e+02
   6.383286e+02   4.292410e+02
   1.692040e+02   6.219472e+02
  -4.053311e+02   3.611982e+02
  -6.633718e+02  -8.463530e+01
  -3.818551e+02  -4.208209e+02
   1.813302e+02  -3.991192e+02
   4.790539e+02  -4.976274e+01
   2.444838e+02   2.264793e+02
  -1.509243e+02   1.192859e+02
  -1.675345e+02  -1.787545e+02
   1.875563e+02  -2.157106e+02
   3.937206e+02   7.869726e+01
   1.587373e+02   3.259039e+02
  -2.258987e+02   2.700609e+02
  -3.549063e+02   6.466924e+01
  -2.002119e+02  -8.680464e+01
   2.541523e+01  -2.121264e+02
   2.115008e+02  -3.236117e+02
   3.370051e+02  -2.331180e+02
   3.103363e+02   1.287727e+02
   9.222176e+01   4.497511e+02
  -1.334782e+02   3.984826e+02
  -1.522450e+02   1.045232e+02
  -3.103321e+01  -3.187276e+01
  -1.806637e+01   8.051569e+01
  -1.704223e+02   1.416581e+02
  -2.778875e+02  -4.088552e+01
  -1.744599e+02  -2.774861e+02
   6.418373e+01  -2.730232e+02
   2.421643e+02  -1.592975e+01
   2.172977e+02   2.560915e+02
  -2.275489e+00   3.206917e+02
  -2.800347e+02   1.368990e+02
  -3.872346e+02  -1.673509e+02
  -2.023834e+02  -3.728907e+02
   1.080382e+02  -3.295817e+02
   2.439830e+02  -1.310776e+02
   1.586666e+02   1.738143e-01
   1.007928e+02  -3.278471e+01
   2.350509e+02  -6.525409e+01
   4.110388e+02   6.271040e+01
   3.379861e+02   2.960766e+02
  -4.570739e+00   4.545102e+02
  -3.673130e+02   4.199368e+02
  -5.024612e+02   2.081841e+02
  -3.565505e+02  -9.099076e+01
  -6.792927e+01  -3.096091e+02
   1.344601e+02  -2.753388e+02
   1.008116e+02  -3.496570e+01
  -1.012212e+02   1.221445e+02
  -2.077876e+02   2.831911e+00
  -6.101137e+01  -2.098091e+02
   1.719109e+02  -1.890930e+02
   1.988572e+02   6.530275e+01
  -1.074053e+01   2.130141e+02
  -2.051324e+02   4.340946e+01
  -1.718655e+02  -2.526071e+02
   3.259834e+01  -3.564695e+02
   2.333696e+02  -1.911005e+02
   3.234938e+02   6.184143e+01
   2.776437e+02   2.325151e+02
   1.036770e+02   2.616401e+02
  -1.059494e+02   1.678678e+02
  -1.806621e+02   2.923672e+01
  -6.377552e+01  -3.100097e+01
   7.201306e+01   3.766937e+01
   3.492642e+01   1.288947e+02
  -1.254124e+02   1.072587e+02
  -1.877907e+02  -8.602296e+00
  -6.693063e+01  -7.225762e+01
   7.596760e+01  -1.705268e+01
   5.291395e+01   7.076047e+01
  -1.246554e+02   8.214358e+01
  -2.833015e+02  -3.565928e+00
  -2.687210e+02  -1.407374e+02
  -6.835884e+01  -2.605714e+02
   1.827064e+02  -2.754104e+02
   2.950666e+02  -1.402800e+02
   1.862926e+02   5.043258e+01
  -1.791208e+01   1.191388e+02
  -9.486412e+01   1.415294e+01
   3.011892e+01  -1.053500e+02
   2.012037e+02  -6.436366e+01
   2.218566e+02   1.045372e+02
   7.311296e+01   2.158567e+02
  -9.632928e+01   1.657670e+02
  -1.491164e+02   3.370191e+01
  -7.754110e+01  -4.009580e+01
   2.177012e+01  -5.738575e+00
   3.611063e+01   7.709479e+01
  -6.854829e+01   1.095904e+02
  -1.976040e+02   3.034483e+01
  -1.964405e+02  -1.227072e+02
  -2.368106e+01  -2.238829e+02
   1.703823e+02  -1.713462e+02
   2.034456e+02  -7.120179e+00
   6.956859e+01   1.203654e+02
  -6.836660e+01   1.181523e+02
  -8.574590e+01   3.492188e+01
  -2.092150e+01  -2.239258e+01
   1.587783e+01  -1.713198e+01
  -1.678431e+01   3.525818e+00
  -7.188495e+01  -1.687524e+01
  -8.413381e+01  -8.714485e+01
  -1.066657e+01  -1.587444e+02
   1.278055e+02  -1.526695e+02
   2.360021e+02  -2.689429e+01
   2.074946e+02   1.513321e+02
   4.599392e+01   2.442960e+02
  -1.101558e+02   1.787381e+02
  -1.393469e+02   3.172675e+01
  -7.523155e+01  -5.546572e+01
  -3.437153e+01  -3.749328e+01
  -5.960357e+01   8.971512e+00
  -8.230076e+01   2.228837e+00
  -3.832012e+01  -5.228502e+01
   4.745833e+01  -8.682208e+01
   1.036652e+02  -5.426380e+01
   8.551570e+01   3.317112e+01
  -1.103145e+01   1.071322e+02
  -1.378119e+02   8.782337e+01
  -1.968655e+02  -4.621100e+01
  -1.031495e+02  -1.979348e+02
   1.048176e+02  -2.307754e+02
   2.681011e+02  -9.838323e+01
   2.606550e+02   8.706061e+01
   1.120602e+02   1.801687e+02
  -3.869521e+01   1.494952e+02
  -9.643243e+01   8.525714e+01
  -8.327482e+01   7.210474e+01
  -7.252222e+01   9.295012e+01
  -9.656468e+01   7.400195e+01
  -1.305748e+02  -2.486712e+01
  -1.184549e+02  -1.585779e+02
  -2.837764e+01  -2.319746e+02
   1.019536e+02  -1.770848e+02
   1.793562e+02  -2.213888e+01
   1.391685e+02   1.237946e+02
   2.106363e+01   1.629983e+02
  -6.523918e+01   9.529780e+01
  -5.868518e+01   3.882772e+00
  -6.796339e+00  -3.959868e+01
   6.174112e+00  -3.430398e+01
  -3.854506e+01  -2.183412e+01
  -7.693895e+01  -2.648900e+01
  -4.155473e+01  -3.804255e+01
   6.355423e+01  -3.332220e+01
   1.558878e+02  -2.825061e-01
   1.438661e+02   5.120615e+01
   1.825956e+01   8.719554e+01
  -1.195898e+02   7.361042e+01
  -1.473478e+02   1.416214e+01
  -4.990588e+01  -3.905778e+01
   6.110609e+01  -3.476399e+01
   7.532688e+01   2.172594e+01
   2.840896e+00   6.910385e+01
  -6.127619e+01   5.617164e+01
  -6.449222e+01  -5.314500e+00
  -4.162622e+01  -5.320716e+01
  -4.261656e+01  -4.475237e+01
  -6.382992e+01  -4.919056e+00
  -6.741830e+01  -2.913056e+00
  -3.166080e+01  -6.918681e+01
   3.916808e+01  -1.463738e+02
   1.207728e+02  -1.400794e+02
   1.648940e+02  -3.007323e+01
   1.219517e+02   9.497758e+01
   5.353080e+00   1.282337e+02
  -8.658722e+01   6.082706e+01
  -6.020379e+01  -1.552322e+01
   5.888447e+01  -1.878052e+01
   1.375011e+02   4.634257e+01
   7.611195e+01   1.095860e+02
  -8.129522e+01   1.132596e+02
  -1.936921e+02   5.216969e+01
  -1.665432e+02  -3.406849e+01
  -3.978535e+01  -8.798155e+01
   6.110287e+01  -7.164531e+01
   4.947790e+01  -7.669205e+00
  -4.079005e+01   2.683824e+01
  -9.381844e+01  -2.443517e+01
  -3.272310e+01  -1.226253e+02
   9.679785e+01  -1.578677e+02
   1.732876e+02  -6.281095e+01
   1.276099e+02   1.030530e+02
   6.971846e+00   2.016126e+02
  -8.762571e+01   1.474529e+02
  -1.036529e+02  -5.800383e+00
  -6.002512e+01  -1.195433e+02
  -1.114078e-01  -1.093670e+02
   4.404008e+01  -2.121764e+01
   5.349495e+01   3.265637e+01
   2.891798e+01   1.010487e+01
   4.395593e+00  -2.118406e+01
   1.846214e+01   1.405547e+01
   5.529841e+01   9.027598e+01
   4.485886e+01   1.134707e+02
  -4.491551e+01   4.750680e+01
  -1.408724e+02  -4.050798e+01
  -1.351033e+02  -7.280000e+01
  -2.014770e+01  -4.917724e+01
   8.933382e+01  -2.050296e+01
   8.994380e+01  -7.973347e+00
   1.008022e+01   5.001242e+00
  -3.969439e+01   2.115032e+01
  -1.295043e+01   1.928757e+01
   2.348804e+01   8.738115e-02
  -6.275326e+00  -9.372089e+00
  -7.748959e+01  -6.109965e+00
  -9.238235e+01  -2.650810e+01
  -3.283535e+00  -8.114315e+01
   1.267347e+02  -1.116139e+02
   1.899226e+02  -5.262903e+01
   1.388426e+02   7.422477e+01
   1.850343e+01   1.662679e+02
  -8.534717e+01   1.499208e+02
  -1.173100e+02   5.537475e+01
  -8.088279e+01  -2.516494e+01
  -2.344661e+01  -3.750892e+01
   5.004278e+00  -8.624944e+00
  -9.114734e+00  -2.836093e+00
  -3.355170e+01  -4.526566e+01
  -2.307955e+01  -9.124077e+01
   3.042704e+01  -7.282055e+01
   8.276693e+01   2.060910e+01
   7.620728e+01   1.135057e+02
   6.058064e-01   1.155288e+02
  -8.597103e+01   2.123709e+01
  -1.033815e+02  -8.160477e+01
  -2.982328e+01  -1.067218e+02
   6.844014e+01  -5.386951e+01
   9.778385e+01   1.464136e+01
   3.798063e+01   5.025219e+01
  -3.306231e+01   4.917429e+01
  -2.975239e+01   2.744188e+01
   3.655772e+01   1.551457e+00
   7.100912e+01  -4.619317e+00
   1.442543e+01   2.550208e+01
  -8.169827e+01   6.599844e+01
  -1.180251e+02   5.934375e+01
  -6.426710e+01  -1.121798e+01
   1.738456e+01  -8.339454e+01
   5.419392e+01  -8.017866e+01
   3.627574e+01  -5.451085e+00
  -8.529289e-01   5.703181e+01
  -2.753610e+01   4.276121e+01
  -3.661637e+01  -2.023139e+01
  -2.597828e+01  -5.636193e+01
   3.149712e+00  -3.359507e+01
   3.314303e+01   8.353403e+00
   4.062878e+01   2.044271e+01
   2.330455e+01   1.310431e-01
   2.222679e+00  -1.345767e+01
  -6.412950e+00   5.879248e+00
  -9.965030e+00   3.949499e+01
  -2.105005e+01   4.483279e+01
  -3.355670e+01   4.753197e+00
  -2.716291e+01  -4.823367e+01
   5.898053e+00  -6.168337e+01
   4.555169e+01  -1.800610e+01
   5.422092e+01   4.271816e+01
   1.157247e+01   6.434477e+01
  -5.631920e+01   3.155125e+01
  -8.885842e+01  -1.943061e+01
  -4.816582e+01  -4.597428e+01
   3.080747e+01  -3.903051e+01
   6.659224e+01  -1.859517e+01
   2.361282e+01  -4.742096e+00
  -4.002909e+01  -5.397238e+00
  -3.897970e+01  -1.892606e+01
   3.408001e+01  -3.133479e+01
   9.644014e+01  -1.682768e+01
