
 $NMID
 id='ANONYMOUS ', fmtdat='(2E16.6)'
 volume=1.0
 tramp=1.0
 $END
  -3.289511e+03  -8.246705e+00
  -2.295993e+03  -1.836586e+03
  -1.099289e+02  -2.091046e+03
   1.205428e+03  -1.170560e+03
   8.396944e+02  -9.153279e+01
  -6.135702e+01   4.356384e+02
  -5.643502e+02  -1.660491e+02
   3.434339e+01  -6.277582e+02
   5.927210e+02  -6.576356e+02
   6.368638e+02  -5.229589e+01
   4.920071e+02   6.435572e+02
   2.368882e+01   6.517866e+02
  -3.369044e+02   2.171244e+02
  -2.376974e+02  -4.253023e+02
   1.300993e+02  -5.760248e+02
   4.472008e+02  -5.370945e+01
   2.842816e+02   5.456269e+02
  -1.732216e+02   6.405802e+02
  -5.120642e+02   2.990190e+02
  -4.415651e+02  -2.183999e+02
  -1.152732e+02  -3.793252e+02
   1.228893e+02  -2.802684e+02
   7.418401e+01  -6.480817e+01
  -1.409711e+02  -9.403115e+01
  -2.843594e+02  -2.396177e+02
  -3.009870e+01  -3.417754e+02
   4.496244e+02  -2.153068e+02
   6.139279e+02   1.382201e+02
   3.061593e+02   3.596179e+02
  -2.981296e+02   2.560116e+02
  -5.286046e+02  -7.101256e+01
  -2.251883e+02  -3.715968e+02
   2.633062e+02  -3.919067e+02
   4.822058e+02  -1.653552e+02
   3.414047e+02   1.717745e+02
   9.197424e+01   3.728977e+02
  -7.302039e+01   2.112378e+02
  -2.827318e+00  -1.178781e+02
   1.527429e+02  -2.172976e+02
   2.333077e+02   1.105875e+02
   6.684129e+01   5.246036e+02
  -2.544130e+02   4.751715e+02
  -3.577554e+02  -6.413395e+00
  -1.357054e+02  -3.587129e+02
   1.746345e+02  -1.658949e+02
   2.143992e+02   2.862871e+02
  -9.912191e+01   4.413176e+02
  -4.606729e+02   1.043378e+02
  -5.056143e+02  -3.602811e+02
  -1.648094e+02  -5.154428e+02
   3.094713e+02  -2.997701e+02
   5.425904e+02   5.794278e+01
   3.602973e+02   2.903549e+02
  -6.452939e+01   2.767182e+02
  -3.326228e+02   9.746072e+01
  -2.434791e+02  -6.090076e+01
   4.892303e+00  -5.313785e+01
   7.667013e+01   6.285424e+01
  -9.636769e+01   9.629061e+01
  -2.504723e+02  -3.436902e+01
  -1.443104e+02  -2.121071e+02
   1.503389e+02  -2.663756e+02
   3.464417e+02  -1.388188e+02
   2.641874e+02   1.036377e+02
  -1.804618e+01   3.254200e+02
  -2.803859e+02   3.721058e+02
  -3.581522e+02   1.684807e+02
  -2.437763e+02  -1.648060e+02
  -6.413940e+01  -3.754566e+02
   4.054019e+01  -3.313504e+02
   4.824861e+01  -1.652758e+02
   5.532754e+01  -8.456783e+01
   1.364716e+02  -1.016444e+02
   2.343780e+02  -5.673958e+01
   2.323368e+02   1.153529e+02
   9.453743e+01   2.601538e+02
  -9.063800e+01   2.050782e+02
  -1.958691e+02  -3.099022e+01
  -1.477250e+02  -2.484669e+02
   4.296117e+01  -2.672186e+02
   2.574769e+02  -7.610048e+01
   3.258815e+02   1.776792e+02
   1.793250e+02   3.231332e+02
  -5.698936e+01   2.835773e+02
  -1.772241e+02   1.549307e+02
  -1.512887e+02   7.262960e+01
  -1.435337e+02   7.411507e+01
  -2.788643e+02   5.072205e+01
  -4.205982e+02  -8.374855e+01
  -3.314067e+02  -2.995644e+02
   1.617137e+01  -4.506688e+02
   3.778508e+02  -4.083563e+02
   4.829739e+02  -1.865426e+02
   2.991678e+02   9.805111e+01
   3.403523e+01   2.601271e+02
  -9.302842e+01   2.097988e+02
  -2.270139e+01   3.819459e+01
   1.110789e+02  -5.325529e+01
   1.392188e+02   2.874914e+01
   2.065465e+01   1.480335e+02
  -1.216861e+02   1.200337e+02
  -1.251092e+02  -5.164246e+01
   2.211284e+01  -1.456127e+02
   1.728913e+02  -1.427400e+01
   1.691653e+02   2.347102e+02
  -1.129640e+01   3.526113e+02
  -2.430736e+02   2.169879e+02
  -3.624267e+02  -5.590760e+01
  -2.840083e+02  -2.569345e+02
  -6.589383e+01  -2.714575e+02
   1.259336e+02  -1.421890e+02
   1.510347e+02  -1.069804e+01
   3.437079e+01   1.227769e+01
  -5.527870e+01  -6.004237e+01
  -1.834912e+00  -1.149641e+02
   1.225508e+02  -7.259711e+01
   1.500709e+02   2.004330e+01
   3.459602e+01   5.258359e+01
  -8.163984e+01  -1.111869e+01
  -3.963739e+01  -9.245946e+01
   1.483214e+02  -9.242143e+01
   3.046456e+02   1.291630e+01
   2.648258e+02   1.635519e+02
   3.797712e+01   2.655059e+02
  -2.012713e+02   2.449480e+02
  -2.703886e+02   1.071575e+02
  -1.437625e+02  -4.297649e+01
   2.708482e+01  -8.179218e+01
   6.604141e+01   2.682607e+00
  -5.268349e+01   8.306418e+01
  -1.885569e+02   3.745679e+01
  -1.930893e+02  -1.028340e+02
  -5.916788e+01  -1.904491e+02
   8.732814e+01  -1.399664e+02
   1.254923e+02  -2.070097e+01
   4.767893e+01   3.499440e+01
  -4.172003e+01  -2.016270e+01
  -2.965813e+01  -1.099073e+02
   9.417908e+01  -1.223141e+02
   2.130879e+02  -1.890029e+01
   1.899853e+02   1.316578e+02
   1.832466e+01   2.117611e+02
  -1.552001e+02   1.568532e+02
  -1.795680e+02   1.588252e+01
  -6.022797e+01  -9.368165e+01
   5.980213e+01  -9.702706e+01
   6.952390e+01  -2.770920e+01
   8.577022e-01   2.100767e+01
  -3.572961e+01   6.067104e+00
   1.244292e+01  -2.632048e+01
   9.216197e+01  -4.519896e-01
   1.066919e+02   9.339297e+01
   1.116603e+01   1.788167e+02
  -1.424141e+02   1.578649e+02
  -2.399602e+02   1.382856e+01
  -1.978241e+02  -1.572670e+02
  -4.403323e+01  -2.308987e+02
   9.700407e+01  -1.638358e+02
   1.305303e+02  -3.587825e+01
   7.704929e+01   4.023107e+01
   3.593314e+01   2.753739e+01
   5.567687e+01  -1.349518e+01
   8.724716e+01  -5.243993e+00
   5.746625e+01   5.770021e+01
  -4.008994e+01   1.063157e+02
  -1.242707e+02   6.770649e+01
  -1.105982e+02  -4.462604e+01
   1.414241e+01  -1.332523e+02
   1.644155e+02  -9.733546e+01
   2.119122e+02   6.090115e+01
   9.483584e+01   2.137537e+02
  -1.173504e+02   2.283937e+02
  -2.663454e+02   9.055902e+01
  -2.496727e+02  -8.366515e+01
  -1.063086e+02  -1.662617e+02
   3.433452e+01  -1.393230e+02
   8.596623e+01  -8.434818e+01
   7.009289e+01  -7.516764e+01
   5.989829e+01  -9.880837e+01
   9.287549e+01  -8.262134e+01
   1.354592e+02   1.677983e+01
   1.241072e+02   1.556954e+02
   3.103872e+01   2.311126e+02
  -9.914697e+01   1.735822e+02
  -1.732276e+02   1.604281e+01
  -1.318923e+02  -1.271824e+02
  -1.425828e+01  -1.593360e+02
   7.354260e+01  -8.382928e+01
   6.440193e+01   1.227021e+01
  -5.928592e-01   5.239976e+01
  -2.418476e+01   3.621752e+01
   2.796452e+01   1.399174e+01
   8.406765e+01   2.014822e+01
   4.962534e+01   4.047908e+01
  -7.332590e+01   3.854447e+01
  -1.750447e+02  -2.127611e+00
  -1.474118e+02  -6.170773e+01
  -2.474963e+00  -9.719499e+01
   1.342732e+02  -7.629338e+01
   1.481057e+02  -9.896712e+00
   4.697164e+01   4.851596e+01
  -5.929773e+01   4.570374e+01
  -7.882646e+01  -1.617567e+01
  -1.942371e+01  -7.442601e+01
   4.641697e+01  -6.758895e+01
   6.887300e+01  -2.583308e+00
   5.796486e+01   5.195235e+01
   4.912365e+01   4.268570e+01
   5.766442e+01  -1.209015e+00
   6.776759e+01  -1.122436e+00
   4.713342e+01   7.440858e+01
  -2.527903e+01   1.581160e+02
  -1.259325e+02   1.508791e+02
  -1.830838e+02   3.589695e+01
  -1.341843e+02  -9.510677e+01
  -4.457546e+00  -1.346469e+02
   9.311849e+01  -7.144541e+01
   6.381750e+01   9.039639e+00
  -5.795991e+01   2.084339e+01
  -1.354137e+02  -3.960496e+01
  -7.330118e+01  -1.044530e+02
   8.224655e+01  -1.098868e+02
   1.897609e+02  -4.704017e+01
   1.584534e+02   3.842563e+01
   3.148311e+01   8.479701e+01
  -6.521790e+01   6.157089e+01
  -4.956576e+01  -2.269899e+00
   4.207311e+01  -3.380005e+01
   9.805440e+01   1.843635e+01
   4.491297e+01   1.192786e+02
  -7.805276e+01   1.628419e+02
  -1.607725e+02   7.614403e+01
  -1.317390e+02  -9.026644e+01
  -2.103624e+01  -1.950165e+02
   7.903842e+01  -1.439527e+02
   1.035615e+02   8.813697e+00
   5.745873e+01   1.186364e+02
  -9.372930e+00   1.021774e+02
  -4.979932e+01   1.539477e+01
  -4.621193e+01  -3.088175e+01
  -1.766578e+01  -6.328979e+00
  -5.120953e+00   1.784708e+01
  -2.980743e+01  -2.131690e+01
  -6.024130e+01  -8.967017e+01
  -3.617523e+01  -1.048025e+02
   5.468840e+01  -4.349467e+01
   1.392816e+02   3.428652e+01
   1.277217e+02   6.705898e+01
   2.022087e+01   5.339640e+01
  -8.218534e+01   2.864777e+01
  -8.813052e+01   8.599407e+00
  -1.737262e+01  -1.038104e+01
   3.480637e+01  -2.176100e+01
   1.812786e+01  -1.341040e+01
  -1.684733e+01   3.227820e+00
   2.816518e+00   4.038142e+00
   6.953888e+01  -3.542943e+00
   9.677666e+01   2.042289e+01
   2.325893e+01   8.361555e+01
  -1.086678e+02   1.240080e+02
  -1.916411e+02   7.174204e+01
  -1.568780e+02  -5.743376e+01
  -3.559285e+01  -1.626949e+02
   7.884651e+01  -1.606984e+02
   1.171283e+02  -7.010054e+01
   8.229917e+01   1.742860e+01
   2.808468e+01   3.827080e+01
   2.900111e+00   1.369196e+01
   1.451318e+01   8.186469e+00
   3.258244e+01   4.892300e+01
   2.134439e+01   9.269562e+01
  -2.781810e+01   7.479392e+01
  -8.176823e+01  -1.262855e+01
  -8.636091e+01  -1.024699e+02
  -1.810030e+01  -1.138670e+02
   7.708634e+01  -3.545748e+01
   1.119500e+02   6.398334e+01
   4.480297e+01   1.048418e+02
  -6.378345e+01   6.756950e+01
  -1.068244e+02  -5.068532e+00
  -4.850181e+01  -5.731099e+01
   3.289221e+01  -6.280758e+01
   3.945848e+01  -3.054047e+01
  -2.654804e+01   6.612878e+00
  -6.855093e+01   1.053497e+01
  -1.888671e+01  -2.688957e+01
   7.787874e+01  -6.817372e+01
   1.206138e+02  -5.645421e+01
   7.190494e+01   1.604438e+01
  -1.233687e+01   8.722999e+01
  -5.788542e+01   8.601451e+01
  -4.683183e+01   1.330362e+01
  -9.562656e+00  -5.418797e+01
   2.329315e+01  -5.089846e+01
   3.895701e+01   8.684124e+00
   3.118710e+01   5.349250e+01
   2.730449e-01   4.039559e+01
  -3.413973e+01  -3.576041e+00
  -4.310798e+01  -2.407830e+01
  -2.112702e+01  -3.921548e+00
   4.134243e+00   2.035463e+01
   6.440582e+00   8.007431e+00
  -4.461009e+00  -3.309747e+01
   9.569884e-01  -5.410060e+01
   2.723112e+01  -2.243270e+01
   4.169523e+01   3.554765e+01
   1.347052e+01   6.109519e+01
  -4.055174e+01   2.670874e+01
  -6.420165e+01  -3.288564e+01
  -2.116323e+01  -6.116218e+01
   5.699759e+01  -3.799375e+01
   9.510963e+01   9.239435e+00
   5.303699e+01   4.246992e+01
  -2.771005e+01   4.686220e+01
  -6.582716e+01   3.019988e+01
  -2.913657e+01   7.941755e+00
   2.940243e+01  -3.782446e+00
   3.492900e+01   6.429945e+00
  -2.332132e+01   2.721708e+01
  -8.056277e+01   2.355835e+01
