
 $NMID
 id='ANONYMOUS ', fmtdat='(2E16.6)'
 volume=1.0
 tramp=1.0
 $END
  -4.715364e+03  -2.843364e+02
  -2.799068e+03  -3.007208e+03
   7.142562e+02  -3.069449e+03
   2.382569e+03  -1.023560e+03
   1.068169e+03   7.866356e+02
  -9.006337e+02   6.540770e+02
  -1.063229e+03  -6.128652e+02
   5.967339e+01  -1.323337e+03
   1.018606e+03  -7.931335e+02
   9.656760e+02   1.214594e+02
   5.218135e+02   9.873150e+02
  -3.840485e+02   9.002482e+02
  -6.680722e+02   8.897274e+01
  -4.241676e+02  -7.904707e+02
   3.456308e+02  -7.705964e+02
   6.564115e+02   1.077677e+01
   2.943153e+02   7.592517e+02
  -3.805845e+02   6.122697e+02
  -6.067384e+02   3.168613e+01
  -4.047394e+02  -4.593916e+02
   2.759944e+01  -4.915453e+02
   3.055934e+02  -2.980725e+02
   2.758881e+02  -2.076063e+01
  -9.183387e+01   1.081358e+02
  -4.564056e+02  -8.420421e+01
  -2.404762e+02  -4.789512e+02
   4.809132e+02  -4.593368e+02
   9.616473e+02   6.315692e+01
   5.175003e+02   6.381562e+02
  -4.312277e+02   5.637231e+02
  -8.235578e+02  -1.116490e+01
  -3.851151e+02  -5.087464e+02
   3.263729e+02  -5.864458e+02
   6.252900e+02  -2.357036e+02
   4.490546e+02   2.704409e+02
   6.516096e+01   5.455220e+02
  -2.468410e+02   3.537802e+02
  -2.344467e+02  -2.533255e+02
   1.630891e+02  -5.275678e+02
   5.267783e+02  -2.580881e+01
   3.114893e+02   7.742367e+02
  -3.587954e+02   8.335683e+02
  -7.177865e+02   2.424547e+01
  -3.239973e+02  -6.558414e+02
   3.510927e+02  -3.985083e+02
   4.789186e+02   3.468234e+02
  -5.082018e+01   6.216632e+02
  -6.104741e+02   1.643784e+02
  -6.577810e+02  -4.347238e+02
  -1.874193e+02  -6.435414e+02
   4.051496e+02  -3.891437e+02
   6.827233e+02   6.458998e+01
   4.160311e+02   4.274628e+02
  -1.655689e+02   4.176523e+02
  -4.941580e+02   6.307338e+01
  -2.627102e+02  -2.417552e+02
   1.554297e+02  -1.314058e+02
   1.753857e+02   1.936475e+02
  -1.977072e+02   2.347831e+02
  -4.065820e+02  -8.490265e+01
  -1.521549e+02  -3.439660e+02
   2.403827e+02  -2.704727e+02
   3.483950e+02  -5.346121e+01
   1.746886e+02   8.263602e+01
  -4.023654e+01   1.948896e+02
  -2.102382e+02   3.233462e+02
  -3.392824e+02   2.526219e+02
  -3.221889e+02  -1.261576e+02
  -9.598162e+01  -4.826239e+02
   1.436760e+02  -4.348492e+02
   1.579839e+02  -1.091145e+02
   2.265393e+01   4.649420e+01
   1.013739e+01  -8.185552e+01
   1.819619e+02  -1.648267e+02
   3.077497e+02   2.795291e+01
   2.001328e+02   2.841548e+02
  -5.394195e+01   2.943474e+02
  -2.471703e+02   3.733883e+01
  -2.336005e+02  -2.409756e+02
  -1.587648e+01  -3.216473e+02
   2.719832e+02  -1.506349e+02
   3.900792e+02   1.541828e+02
   2.106467e+02   3.728130e+02
  -1.053156e+02   3.364372e+02
  -2.471498e+02   1.242007e+02
  -1.590723e+02  -2.006728e+01
  -8.916445e+01   1.451329e+01
  -2.232517e+02   7.013164e+01
  -4.050841e+02  -3.650426e+01
  -3.515974e+02  -2.750797e+02
  -1.661150e+01  -4.507052e+02
   3.535430e+02  -4.411678e+02
   5.081420e+02  -2.348634e+02
   3.714583e+02   7.988867e+01
   7.951943e+01   3.141454e+02
  -1.385733e+02   2.866611e+02
  -1.101014e+02   3.554498e+01
   1.063417e+02  -1.320466e+02
   2.279015e+02  -9.295282e+00
   7.299674e+01   2.165924e+02
  -1.761049e+02   2.024841e+02
  -2.138511e+02  -6.056409e+01
   7.192242e+00  -2.209735e+02
   2.123903e+02  -4.918079e+01
   1.840870e+02   2.589606e+02
  -2.492700e+01   3.670982e+02
  -2.323064e+02   1.999716e+02
  -3.332730e+02  -5.957727e+01
  -2.968035e+02  -2.362559e+02
  -1.182088e+02  -2.720660e+02
   1.103821e+02  -1.792109e+02
   1.987097e+02  -3.141663e+01
   7.604705e+01   4.195206e+01
  -8.013367e+01  -2.727134e+01
  -4.995340e+01  -1.342243e+02
   1.236219e+02  -1.230388e+02
   2.007347e+02   1.566869e+00
   7.682001e+01   8.437269e+01
  -8.127733e+01   3.721698e+01
  -6.825826e+01  -6.181420e+01
   1.133396e+02  -9.073102e+01
   2.814257e+02  -1.447177e+01
   2.730005e+02   1.273720e+02
   7.475907e+01   2.584122e+02
  -1.784943e+02   2.822754e+02
  -2.961059e+02   1.467367e+02
  -1.893561e+02  -5.265964e+01
   1.994907e+01  -1.269110e+02
   1.046242e+02  -1.704636e+01
  -2.084213e+01   1.134754e+02
  -2.033669e+02   7.661634e+01
  -2.342156e+02  -1.002620e+02
  -8.348119e+01  -2.219213e+02
   9.767002e+01  -1.745953e+02
   1.589817e+02  -3.650934e+01
   8.459323e+01   4.592938e+01
  -2.425562e+01   1.505401e+01
  -4.560028e+01  -7.314165e+01
   6.118513e+01  -1.149945e+02
   1.974566e+02  -4.037214e+01
   2.020316e+02   1.180691e+02
   2.964082e+01   2.283247e+02
  -1.698423e+02   1.785977e+02
  -2.077931e+02   7.835510e+00
  -7.334510e+01  -1.255730e+02
   6.969577e+01  -1.224514e+02
   9.226501e+01  -3.320649e+01
   2.541365e+01   2.915532e+01
  -1.889587e+01   2.402723e+01
   5.568646e+00  -2.585410e+00
   6.276308e+01   9.041006e+00
   8.509857e+01   7.451519e+01
   2.192452e+01   1.516656e+02
  -1.174969e+02   1.571507e+02
  -2.363306e+02   3.945891e+01
  -2.143691e+02  -1.451066e+02
  -4.922366e+01  -2.480756e+02
   1.127725e+02  -1.839788e+02
   1.433644e+02  -2.980021e+01
   7.259391e+01   6.299624e+01
   2.665730e+01   4.033713e+01
   5.239265e+01  -1.312947e+01
   7.916440e+01  -8.890309e+00
   3.844282e+01   4.646671e+01
  -4.212543e+01   8.348232e+01
  -9.648413e+01   5.334911e+01
  -7.980425e+01  -3.055143e+01
   9.516539e+00  -1.041071e+02
   1.338306e+02  -8.722239e+01
   1.979284e+02   4.323316e+01
   1.104065e+02   1.995945e+02
  -1.003539e+02   2.381377e+02
  -2.739008e+02   1.058438e+02
  -2.718224e+02  -8.746969e+01
  -1.182275e+02  -1.871302e+02
   3.975557e+01  -1.567642e+02
   9.999159e+01  -8.792737e+01
   8.349243e+01  -7.070605e+01
   6.902725e+01  -9.221631e+01
   9.334893e+01  -7.504529e+01
   1.305105e+02   2.179681e+01
   1.223666e+02   1.541178e+02
   3.580662e+01   2.284498e+02
  -9.644862e+01   1.787513e+02
  -1.798963e+02   2.890584e+01
  -1.450705e+02  -1.171112e+02
  -2.705515e+01  -1.620177e+02
   6.310451e+01  -9.963417e+01
   5.986873e+01  -7.887883e+00
   8.261125e+00   3.875623e+01
  -5.367593e+00   3.443472e+01
   3.866663e+01   2.001010e+01
   7.768212e+01   2.343100e+01
   4.341744e+01   3.717152e+01
  -6.094203e+01   3.652128e+01
  -1.546016e+02   5.556302e+00
  -1.452993e+02  -4.749203e+01
  -2.144904e+01  -8.772611e+01
   1.173736e+02  -7.719323e+01
   1.475153e+02  -1.777014e+01
   5.155684e+01   3.799275e+01
  -5.993947e+01   3.612140e+01
  -7.516880e+01  -1.913120e+01
  -3.717679e+00  -6.668701e+01
   5.978795e+01  -5.477742e+01
   6.278526e+01   4.820762e+00
   4.036465e+01   5.119134e+01
   4.174088e+01   4.202185e+01
   6.232212e+01   2.677050e+00
   6.562618e+01   2.869477e-01
   3.232675e+01   6.569276e+01
  -3.322118e+01   1.438894e+02
  -1.119696e+02   1.414309e+02
  -1.593352e+02   3.568061e+01
  -1.230003e+02  -8.853788e+01
  -9.612083e+00  -1.246096e+02
   8.457388e+01  -6.030307e+01
   6.108264e+01   1.701868e+01
  -5.944925e+01   2.238768e+01
  -1.422914e+02  -4.190259e+01
  -8.197812e+01  -1.082759e+02
   7.864042e+01  -1.166538e+02
   1.941777e+02  -5.842701e+01
   1.682882e+02   2.909370e+01
   4.214275e+01   8.781266e+01
  -5.849319e+01   7.612677e+01
  -4.873959e+01   1.319957e+01
   3.805089e+01  -2.409217e+01
   8.935772e+01   2.345982e+01
   3.090741e+01   1.202988e+02
  -9.523230e+01   1.560911e+02
  -1.716418e+02   6.234478e+01
  -1.295993e+02  -1.032405e+02
  -1.109658e+01  -2.022638e+02
   8.629728e+01  -1.491998e+02
   1.074602e+02   3.744543e+00
   6.563803e+01   1.190595e+02
   3.115617e+00   1.107265e+02
  -4.496444e+01   2.327096e+01
  -5.598586e+01  -3.100991e+01
  -3.013823e+01  -9.267756e+00
  -3.617895e+00   2.176345e+01
  -1.763020e+01  -1.331141e+01
  -5.569584e+01  -8.938351e+01
  -4.583137e+01  -1.125728e+02
   4.474869e+01  -4.690919e+01
   1.415781e+02   4.036902e+01
   1.347363e+02   7.196414e+01
   1.787547e+01   4.922039e+01
  -9.128528e+01   2.232572e+01
  -9.010244e+01   1.024513e+01
  -9.124111e+00  -5.297362e+00
   3.946235e+01  -2.393973e+01
   1.132941e+01  -2.161184e+01
  -2.460265e+01   7.216009e-01
   6.644022e+00   1.124552e+01
   7.780093e+01   5.343663e+00
   9.162164e+01   2.235899e+01
   3.790215e+00   7.815301e+01
  -1.229478e+02   1.131395e+02
  -1.847206e+02   5.702480e+01
  -1.368953e+02  -7.068148e+01
  -2.218884e+01  -1.648698e+02
   7.944757e+01  -1.492955e+02
   1.136592e+02  -5.505818e+01
   8.079337e+01   2.407538e+01
   2.451052e+01   3.465670e+01
  -4.455880e+00   5.809277e+00
   9.603767e+00   1.921665e+00
   3.488961e+01   4.597759e+01
   2.490891e+01   9.202823e+01
  -2.974342e+01   7.251795e+01
  -8.345110e+01  -2.077652e+01
  -7.703563e+01  -1.122746e+02
  -6.677801e-01  -1.131036e+02
   8.592858e+01  -1.991306e+01
   1.027588e+02   7.996494e+01
   2.855153e+01   1.038191e+02
  -6.893457e+01   5.221119e+01
  -9.645942e+01  -1.349314e+01
  -3.633756e+01  -4.791882e+01
   3.307233e+01  -4.840575e+01
   2.762819e+01  -2.829718e+01
  -3.865582e+01  -2.166658e+00
  -7.120759e+01   4.934699e+00
  -1.283259e+01  -2.580401e+01
   8.246111e+01  -6.794381e+01
   1.165038e+02  -6.123520e+01
   6.163247e+01   1.084303e+01
  -1.753217e+01   8.324431e+01
  -5.118755e+01   7.849832e+01
  -3.228005e+01   3.064117e+00
   3.053411e+00  -5.679352e+01
   2.739741e+01  -3.958630e+01
   3.544378e+01   2.272913e+01
   2.477442e+01   5.519559e+01
  -3.633697e+00   3.081395e+01
  -3.262512e+01  -9.683558e+00
  -3.889578e+01  -1.911181e+01
  -2.115064e+01   1.285978e+00
  -1.016923e+00   1.270968e+01
   6.518711e+00  -7.200758e+00
   9.842837e+00  -3.936616e+01
   2.155734e+01  -4.299821e+01
   3.434617e+01  -2.656610e+00
   2.743739e+01   4.969500e+01
  -6.525367e+00   6.233950e+01
  -4.645135e+01   1.863262e+01
  -5.530703e+01  -4.236617e+01
  -1.292864e+01  -6.477893e+01
   5.537216e+01  -3.316546e+01
   8.869255e+01   1.757107e+01
   4.886351e+01   4.501221e+01
  -2.935886e+01   3.945987e+01
  -6.508531e+01   1.933092e+01
  -2.188380e+01   4.415098e+00
   4.140972e+01   4.507831e+00
   3.919881e+01   1.935815e+01
  -3.464761e+01   3.371976e+01
  -9.672233e+01   1.932939e+01
