
 $NMID
 id='ANONYMOUS ', fmtdat='(2E16.6)'
 volume=1.0
 tramp=1.0
 $END
  -3.655528e+03   1.579261e+02
  -2.414700e+03  -2.223524e+03
   1.561628e+02  -2.545984e+03
   1.403500e+03  -1.226279e+03
   1.096135e+03   1.618378e+02
  -1.416543e+02   3.161634e+02
  -4.721239e+02  -1.491706e+02
  -9.537311e+01  -5.935102e+02
   5.440983e+02  -6.387955e+02
   8.954104e+02   8.727099e+01
   4.869895e+02   6.797735e+02
  -7.844388e+01   7.795865e+02
  -5.135067e+02   2.074087e+02
  -3.680153e+02  -4.781686e+02
   1.597182e+02  -6.363577e+02
   5.484736e+02  -4.828601e+01
   3.280593e+02   5.942744e+02
  -2.163432e+02   6.630975e+02
  -5.568250e+02   1.780060e+02
  -4.476622e+02  -2.899401e+02
  -1.219172e+02  -4.052673e+02
   1.673851e+02  -2.861417e+02
   9.924651e+01  -9.463802e+01
  -1.533269e+02  -1.879448e+01
  -3.370331e+02  -2.038019e+02
  -7.875743e+01  -4.106980e+02
   5.217575e+02  -3.056020e+02
   7.352399e+02   1.160284e+02
   3.419976e+02   4.540203e+02
  -3.419558e+02   3.539535e+02
  -6.176497e+02  -8.376484e+01
  -2.869324e+02  -4.268359e+02
   2.520248e+02  -4.419816e+02
   5.164846e+02  -1.686953e+02
   4.078522e+02   1.994373e+02
   1.116721e+02   4.041455e+02
  -1.196581e+02   2.246241e+02
  -6.593464e+01  -1.563227e+02
   1.714626e+02  -2.866507e+02
   3.117411e+02   1.036239e+02
   1.349696e+02   6.060058e+02
  -2.963196e+02   6.082811e+02
  -4.835242e+02   2.776437e+01
  -2.175583e+02  -4.475634e+02
   2.187966e+02  -2.452238e+02
   2.937631e+02   2.977486e+02
  -8.098617e+01   4.874450e+02
  -5.180100e+02   1.077319e+02
  -5.719884e+02  -4.052167e+02
  -1.788220e+02  -5.687178e+02
   3.590412e+02  -3.266987e+02
   6.141603e+02   7.049589e+01
   3.907859e+02   3.315283e+02
  -9.855312e+01   3.174466e+02
  -3.899518e+02   8.354994e+01
  -2.527289e+02  -1.124098e+02
   5.053881e+01  -7.754609e+01
   1.069646e+02   9.738426e+01
  -1.282248e+02   1.395139e+02
  -3.030125e+02  -4.270613e+01
  -1.538896e+02  -2.526605e+02
   1.763120e+02  -2.811940e+02
   3.593342e+02  -1.268230e+02
   2.531055e+02   9.685655e+01
  -2.556255e+01   2.968435e+02
  -2.784438e+02   3.674630e+02
  -3.677508e+02   1.964607e+02
  -2.650913e+02  -1.549011e+02
  -6.838312e+01  -4.083891e+02
   6.071624e+01  -3.653538e+02
   6.230044e+01  -1.584203e+02
   4.355404e+01  -6.155088e+01
   1.187222e+02  -1.065435e+02
   2.387590e+02  -8.539460e+01
   2.560670e+02   9.968312e+01
   1.181974e+02   2.754608e+02
  -8.101499e+01   2.298957e+02
  -2.066639e+02  -1.621554e+01
  -1.747943e+02  -2.510827e+02
   2.109002e+01  -2.862239e+02
   2.673941e+02  -1.026029e+02
   3.642010e+02   1.669847e+02
   2.033247e+02   3.366871e+02
  -6.955383e+01   3.082802e+02
  -2.049964e+02   1.589433e+02
  -1.550088e+02   5.253198e+01
  -1.293341e+02   6.010364e+01
  -2.691363e+02   6.173232e+01
  -4.344786e+02  -7.027752e+01
  -3.541169e+02  -3.018542e+02
   9.661848e+00  -4.674483e+02
   3.880329e+02  -4.252340e+02
   5.035343e+02  -1.953862e+02
   3.178681e+02   9.708127e+01
   3.386931e+01   2.734080e+02
  -1.113426e+02   2.290405e+02
  -4.101087e+01   4.232877e+01
   1.186302e+02  -6.675690e+01
   1.655499e+02   2.145700e+01
   3.102671e+01   1.667507e+02
  -1.410189e+02   1.425701e+02
  -1.491426e+02  -5.167285e+01
   1.879811e+01  -1.623656e+02
   1.807377e+02  -1.771533e+01
   1.630068e+02   2.467589e+02
  -2.506099e+01   3.621208e+02
  -2.473557e+02   2.136740e+02
  -3.593330e+02  -6.498538e+01
  -2.892911e+02  -2.683189e+02
  -7.821993e+01  -2.854888e+02
   1.265481e+02  -1.549564e+02
   1.677306e+02  -9.212328e+00
   4.553059e+01   2.512335e+01
  -6.309572e+01  -5.472588e+01
  -1.087156e+01  -1.266162e+02
   1.319796e+02  -8.641554e+01
   1.695203e+02   2.161809e+01
   4.347153e+01   6.647689e+01
  -8.935818e+01   2.002182e-01
  -5.102073e+01  -8.822003e+01
   1.423679e+02  -9.012888e+01
   3.036345e+02   1.284597e+01
   2.685799e+02   1.585910e+02
   4.429609e+01   2.613987e+02
  -2.002008e+02   2.498628e+02
  -2.797630e+02   1.151601e+02
  -1.537760e+02  -4.578105e+01
   2.986165e+01  -9.281431e+01
   7.887150e+01   6.026351e-01
  -4.626067e+01   9.597228e+01
  -1.973892e+02   4.962052e+01
  -2.067962e+02  -1.066504e+02
  -6.313914e+01  -2.055467e+02
   9.526764e+01  -1.507381e+02
   1.372347e+02  -2.040206e+01
   5.600213e+01   4.233745e+01
  -4.006997e+01  -1.096905e+01
  -3.364834e+01  -1.028855e+02
   9.011259e+01  -1.214434e+02
   2.145739e+02  -2.225099e+01
   1.939593e+02   1.329277e+02
   1.539520e+01   2.206497e+02
  -1.665210e+02   1.635578e+02
  -1.890757e+02   9.484032e+00
  -5.898189e+01  -1.076745e+02
   6.849635e+01  -1.049880e+02
   7.736693e+01  -2.568436e+01
   4.974738e+00   2.707599e+01
  -3.462439e+01   1.070241e+01
   1.082207e+01  -2.306552e+01
   8.760400e+01   1.059681e+00
   1.052667e+02   9.230427e+01
   1.469833e+01   1.776445e+02
  -1.409768e+02   1.611986e+02
  -2.464112e+02   1.886396e+01
  -2.063353e+02  -1.596436e+02
  -4.304041e+01  -2.412771e+02
   1.075333e+02  -1.717814e+02
   1.367163e+02  -3.239469e+01
   7.446654e+01   4.989943e+01
   3.217446e+01   3.242011e+01
   5.807675e+01  -1.506679e+01
   9.055250e+01  -8.556740e+00
   5.466221e+01   5.568032e+01
  -4.354735e+01   1.045796e+02
  -1.206016e+02   6.769212e+01
  -1.032586e+02  -4.013160e+01
   1.492552e+01  -1.254852e+02
   1.588201e+02  -9.387254e+01
   2.097495e+02   5.962833e+01
   9.567779e+01   2.137760e+02
  -1.210402e+02   2.320365e+02
  -2.765035e+02   9.046136e+01
  -2.583178e+02  -9.120308e+01
  -1.066939e+02  -1.772890e+02
   4.066943e+01  -1.456836e+02
   9.325338e+01  -8.441704e+01
   7.502080e+01  -7.435867e+01
   6.174061e+01  -1.006632e+02
   9.334729e+01  -8.554978e+01
   1.367509e+02   1.696850e+01
   1.290861e+02   1.596885e+02
   3.629901e+01   2.376948e+02
  -9.963392e+01   1.794202e+02
  -1.803107e+02   1.902361e+01
  -1.392905e+02  -1.279669e+02
  -1.641114e+01  -1.630304e+02
   7.372733e+01  -8.884397e+01
   6.301319e+01   7.831346e+00
  -8.853553e-01   5.032615e+01
  -1.935784e+01   3.605529e+01
   3.516888e+01   1.496379e+01
   8.789680e+01   2.137661e+01
   4.932409e+01   4.242762e+01
  -7.431599e+01   4.207536e+01
  -1.760039e+02   1.531765e+00
  -1.503955e+02  -5.977347e+01
  -6.356073e+00  -9.734259e+01
   1.333620e+02  -7.709449e+01
   1.500787e+02  -1.023663e+01
   4.666800e+01   4.697241e+01
  -6.325552e+01   4.174980e+01
  -8.116342e+01  -1.999812e+01
  -1.588543e+01  -7.555194e+01
   5.264039e+01  -6.597356e+01
   7.171467e+01  -4.460378e-01
   5.724129e+01   5.347423e+01
   4.825269e+01   4.457942e+01
   5.770364e+01   3.007952e-01
   6.647487e+01  -1.205714e+00
   4.415958e+01   7.317893e+01
  -2.642627e+01   1.585865e+02
  -1.241296e+02   1.538643e+02
  -1.822873e+02   3.845411e+01
  -1.361312e+02  -9.546017e+01
  -7.108225e+00  -1.366620e+02
   9.247279e+01  -7.148498e+01
   6.381050e+01   1.137462e+01
  -6.133614e+01   2.225856e+01
  -1.415818e+02  -4.153437e+01
  -7.704959e+01  -1.097567e+02
   8.470562e+01  -1.164703e+02
   1.978617e+02  -5.251727e+01
   1.667592e+02   3.705754e+01
   3.550101e+01   8.978914e+01
  -6.653509e+01   6.975590e+01
  -5.318861e+01   3.246049e+00
   3.981656e+01  -3.317832e+01
   9.739016e+01   1.744446e+01
   4.268135e+01   1.204067e+02
  -8.400962e+01   1.644208e+02
  -1.674446e+02   7.358297e+01
  -1.340044e+02  -9.782025e+01
  -1.756357e+01  -2.038420e+02
   8.517862e+01  -1.484341e+02
   1.087229e+02   1.109301e+01
   6.080895e+01   1.250848e+02
  -8.003077e+00   1.074963e+02
  -5.121659e+01   1.588132e+01
  -5.004801e+01  -3.326567e+01
  -2.112477e+01  -6.965912e+00
  -5.148439e+00   2.045759e+01
  -2.815879e+01  -1.919103e+01
  -6.098348e+01  -9.240616e+01
  -3.888477e+01  -1.102973e+02
   5.434974e+01  -4.594799e+01
   1.434296e+02   3.698683e+01
   1.318696e+02   7.009767e+01
   1.928564e+01   5.360167e+01
  -8.669747e+01   2.711924e+01
  -9.034815e+01   8.203639e+00
  -1.468505e+01  -1.038644e+01
   3.834266e+01  -2.288689e+01
   1.860993e+01  -1.470880e+01
  -1.837171e+01   4.335601e+00
   3.469793e+00   7.200714e+00
   7.202913e+01  -1.111227e+00
   9.728311e+01   2.167661e+01
   1.934082e+01   8.556451e+01
  -1.147690e+02   1.260273e+02
  -1.952720e+02   7.065338e+01
  -1.573865e+02  -6.290638e+01
  -3.461435e+01  -1.685437e+02
   8.046446e+01  -1.619821e+02
   1.196166e+02  -6.746749e+01
   8.459416e+01   2.002315e+01
   2.785440e+01   3.832986e+01
   4.471779e-01   1.183654e+01
   1.248080e+01   6.477531e+00
   3.319180e+01   4.836247e+01
   2.289763e+01   9.324921e+01
  -2.792702e+01   7.517626e+01
  -8.260071e+01  -1.443781e+01
  -8.464707e+01  -1.058892e+02
  -1.378144e+01  -1.153578e+02
   8.015786e+01  -3.197950e+01
   1.109337e+02   6.963151e+01
   4.120623e+01   1.067744e+02
  -6.627098e+01   6.475052e+01
  -1.060355e+02  -7.869907e+00
  -4.599680e+01  -5.592193e+01
   3.444334e+01  -5.949265e+01
   3.767748e+01  -2.993245e+01
  -3.097643e+01   4.623904e+00
  -7.223491e+01   9.234398e+00
  -1.857399e+01  -2.734292e+01
   8.121872e+01  -6.965402e+01
   1.231842e+02  -5.963715e+01
   7.112208e+01   1.439833e+01
  -1.406547e+01   8.842598e+01
  -5.707526e+01   8.655751e+01
  -4.303895e+01   1.140853e+01
  -6.011558e+00  -5.589811e+01
   2.418514e+01  -4.853424e+01
   3.787733e+01   1.335519e+01
   2.963666e+01   5.608902e+01
  -9.121047e-01   3.866689e+01
  -3.423265e+01  -6.199021e+00
  -4.255376e+01  -2.386005e+01
  -2.110405e+01  -2.283474e+00
   2.858415e+00   1.949235e+01
   6.123346e+00   4.563441e+00
  -1.492974e+00  -3.547607e+01
   6.044417e+00  -5.256498e+01
   3.006820e+01  -1.741433e+01
   3.913943e+01   4.113726e+01
   8.097839e+00   6.375544e+01
  -4.412597e+01   2.526364e+01
  -6.462357e+01  -3.702135e+01
  -2.029802e+01  -6.467137e+01
   5.756223e+01  -3.788198e+01
   9.608908e+01   1.189983e+01
   5.374895e+01   4.421310e+01
  -2.865803e+01   4.600384e+01
  -6.741928e+01   2.805482e+01
  -2.814067e+01   7.038268e+00
   3.339405e+01  -2.043213e+00
   3.724497e+01   9.499209e+00
  -2.667299e+01   2.933832e+01
  -8.661518e+01   2.329184e+01
