
 $NMID
 id='ANONYMOUS ', fmtdat='(2E16.6)'
 volume=1.0
 tramp=1.0
 $END
   4.231274e+03  -3.724349e+02
   2.665576e+03   2.907417e+03
  -6.918925e+02   2.810798e+03
  -2.300535e+03   1.146479e+03
  -8.378061e+02  -6.291512e+02
   8.479932e+02  -6.209507e+02
   7.616193e+02   4.884331e+02
  -2.057505e+01   1.031309e+03
  -8.143697e+02   6.847629e+02
  -1.002588e+03  -1.532718e+01
  -4.685677e+02  -8.000399e+02
   2.225889e+02  -8.622900e+02
   6.381394e+02  -2.075948e+02
   4.213056e+02   7.011813e+02
  -2.499172e+02   7.144225e+02
  -6.389182e+02  -6.374434e+01
  -2.996571e+02  -6.140360e+02
   3.021823e+02  -5.647393e+02
   5.607958e+02  -3.782416e+01
   3.457982e+02   3.722558e+02
   4.645993e+01   4.326915e+02
  -2.351988e+02   2.331408e+02
  -2.573801e+02  -2.110497e+01
   1.234188e+02  -1.337992e+02
   4.304447e+02   1.062079e+02
   2.048612e+02   4.926196e+02
  -4.786817e+02   4.573235e+02
  -8.888156e+02  -9.239137e+01
  -4.463929e+02  -6.060198e+02
   4.242121e+02  -5.267604e+02
   8.022512e+02   2.986864e+01
   3.558703e+02   5.097589e+02
  -3.054216e+02   5.389889e+02
  -5.879238e+02   2.202107e+02
  -4.220924e+02  -2.476696e+02
  -5.914270e+01  -4.913175e+02
   2.147408e+02  -2.815088e+02
   1.851607e+02   2.545993e+02
  -1.935755e+02   4.694064e+02
  -5.093590e+02  -2.474746e+01
  -2.688115e+02  -7.363398e+02
   3.455364e+02  -7.577007e+02
   6.720546e+02   1.893614e+01
   2.795783e+02   6.217161e+02
  -3.482652e+02   3.531935e+02
  -4.384433e+02  -3.472365e+02
   6.304527e+01  -5.837188e+02
   5.776287e+02  -1.427826e+02
   6.123117e+02   4.297980e+02
   1.617019e+02   6.025581e+02
  -4.104534e+02   3.484063e+02
  -6.542648e+02  -8.149669e+01
  -3.742896e+02  -4.017035e+02
   1.826036e+02  -3.769934e+02
   4.660848e+02  -4.207938e+01
   2.350245e+02   2.224848e+02
  -1.426886e+02   1.129660e+02
  -1.513264e+02  -1.754136e+02
   1.798812e+02  -2.042835e+02
   3.577771e+02   8.399025e+01
   1.388347e+02   3.137623e+02
  -1.963199e+02   2.545245e+02
  -3.023001e+02   6.781061e+01
  -1.757768e+02  -6.525554e+01
   9.821082e+00  -1.918439e+02
   1.884234e+02  -3.159591e+02
   3.272665e+02  -2.273612e+02
   3.024897e+02   1.409116e+02
   7.840118e+01   4.528924e+02
  -1.352999e+02   3.805023e+02
  -1.308258e+02   8.006540e+01
  -4.375514e+00  -3.522606e+01
  -1.436960e+01   1.001430e+02
  -1.912819e+02   1.624716e+02
  -2.977186e+02  -3.549091e+01
  -1.778599e+02  -2.757429e+02
   6.558348e+01  -2.716547e+02
   2.301564e+02  -2.352590e+01
   2.046782e+02   2.294407e+02
  -1.853365e+00   2.908264e+02
  -2.609086e+02   1.265637e+02
  -3.655038e+02  -1.581466e+02
  -1.930033e+02  -3.529510e+02
   1.005723e+02  -3.099316e+02
   2.344828e+02  -1.144909e+02
   1.443974e+02   7.613555e+00
   7.841007e+01  -3.244477e+01
   2.163491e+02  -8.563598e+01
   3.963475e+02   3.060804e+01
   3.412990e+02   2.713180e+02
   1.373189e+01   4.431304e+02
  -3.438667e+02   4.218021e+02
  -4.822558e+02   2.091965e+02
  -3.446067e+02  -9.298353e+01
  -6.289654e+01  -3.029346e+02
   1.371179e+02  -2.545858e+02
   9.250150e+01  -1.747899e+01
  -1.152715e+02   1.230328e+02
  -2.179745e+02  -5.568004e+00
  -5.854528e+01  -2.123915e+02
   1.747782e+02  -1.838544e+02
   1.927982e+02   6.538691e+01
  -2.100701e+01   2.065892e+02
  -2.022717e+02   4.078501e+01
  -1.635907e+02  -2.450316e+02
   2.809731e+01  -3.435927e+02
   2.144456e+02  -1.919356e+02
   3.089948e+02   5.090405e+01
   2.794523e+02   2.228337e+02
   1.108170e+02   2.593845e+02
  -1.068153e+02   1.681579e+02
  -1.854635e+02   2.485871e+01
  -6.416768e+01  -4.090120e+01
   7.746717e+01   2.962679e+01
   4.022677e+01   1.295617e+02
  -1.228877e+02   1.125108e+02
  -1.864654e+02  -6.656113e+00
  -6.535139e+01  -7.887651e+01
   7.903137e+01  -2.754209e+01
   6.090411e+01   6.566956e+01
  -1.119231e+02   8.858082e+01
  -2.706321e+02   1.184741e+01
  -2.628694e+02  -1.238420e+02
  -7.255563e+01  -2.475347e+02
   1.706633e+02  -2.676746e+02
   2.808747e+02  -1.372167e+02
   1.758637e+02   5.024109e+01
  -2.327575e+01   1.174323e+02
  -9.791999e+01   1.280497e+01
   2.492289e+01  -1.067328e+02
   1.947241e+02  -6.868594e+01
   2.180514e+02   9.708558e+01
   7.347378e+01   2.083721e+02
  -9.524910e+01   1.607493e+02
  -1.494087e+02   2.907758e+01
  -7.615846e+01  -4.722852e+01
   2.876395e+01  -1.356801e+01
   4.852477e+01   7.448933e+01
  -5.565127e+01   1.145923e+02
  -1.882030e+02   4.082615e+01
  -1.936307e+02  -1.117658e+02
  -2.950135e+01  -2.153435e+02
   1.594445e+02  -1.676955e+02
   1.942866e+02  -7.211330e+00
   6.698928e+01   1.199724e+02
  -6.719008e+01   1.174254e+02
  -8.620166e+01   3.114996e+01
  -2.267096e+01  -3.108800e+01
   2.019398e+01  -2.564056e+01
  -5.534638e+00   4.819996e+00
  -6.415518e+01  -2.672292e+00
  -8.726548e+01  -6.972086e+01
  -2.464491e+01  -1.487783e+02
   1.124093e+02  -1.553824e+02
   2.274424e+02  -3.954207e+01
   2.058461e+02   1.380388e+02
   4.885732e+01   2.351864e+02
  -1.060122e+02   1.731505e+02
  -1.358735e+02   2.763980e+01
  -7.010139e+01  -5.827333e+01
  -2.605163e+01  -3.766625e+01
  -4.775258e+01   1.414680e+01
  -7.301416e+01   1.154145e+01
  -3.907122e+01  -4.160626e+01
   3.473335e+01  -8.057795e+01
   8.819556e+01  -5.592161e+01
   7.743169e+01   2.615780e+01
  -5.322411e+00   1.020292e+02
  -1.263118e+02   8.829275e+01
  -1.921423e+02  -3.679755e+01
  -1.105857e+02  -1.901674e+02
   9.129511e+01  -2.295153e+02
   2.591883e+02  -1.059709e+02
   2.589026e+02   7.618500e+01
   1.137426e+02   1.732465e+02
  -3.588223e+01   1.492503e+02
  -9.263516e+01   8.533278e+01
  -7.735998e+01   6.668655e+01
  -6.347679e+01   8.700071e+01
  -8.663468e+01   7.375906e+01
  -1.229719e+02  -1.600051e+01
  -1.183350e+02  -1.451763e+02
  -3.700389e+01  -2.207023e+02
   9.004568e+01  -1.743923e+02
   1.728370e+02  -2.818678e+01
   1.410695e+02   1.145081e+02
   2.651776e+01   1.579451e+02
  -6.222691e+01   9.626944e+01
  -5.993574e+01   6.324079e+00
  -9.113670e+00  -4.006032e+01
   4.980675e+00  -3.614320e+01
  -3.848461e+01  -2.037020e+01
  -7.750159e+01  -2.179015e+01
  -4.319625e+01  -3.589654e+01
   6.135229e+01  -3.827273e+01
   1.536613e+02  -9.992284e+00
   1.429876e+02   4.349316e+01
   2.041918e+01   8.631237e+01
  -1.145235e+02   7.783680e+01
  -1.426675e+02   1.892910e+01
  -4.987891e+01  -3.751977e+01
   5.769485e+01  -3.731646e+01
   7.394653e+01   1.592774e+01
   7.344590e+00   6.350732e+01
  -5.345790e+01   5.444506e+01
  -5.936230e+01  -1.131653e+00
  -4.104524e+01  -4.611144e+01
  -4.182708e+01  -3.852154e+01
  -5.919170e+01  -6.019476e-01
  -6.289241e+01   3.141894e+00
  -3.449870e+01  -5.974864e+01
   2.622898e+01  -1.384072e+02
   1.036639e+02  -1.413329e+02
   1.539549e+02  -4.106655e+01
   1.221015e+02   8.170021e+01
   1.285694e+01   1.220453e+02
  -7.893273e+01   6.309585e+01
  -5.741421e+01  -1.262494e+01
   5.691480e+01  -2.156795e+01
   1.353633e+02   3.799247e+01
   7.813915e+01   1.024081e+02
  -7.405892e+01   1.132583e+02
  -1.844389e+02   5.936524e+01
  -1.610571e+02  -2.560007e+01
  -4.124130e+01  -8.383497e+01
   5.606942e+01  -7.353477e+01
   4.865627e+01  -1.170099e+01
  -3.416265e+01   2.650259e+01
  -8.550649e+01  -1.824437e+01
  -3.293178e+01  -1.120000e+02
   8.530000e+01  -1.491284e+02
   1.595139e+02  -6.179156e+01
   1.236392e+02   9.623012e+01
   1.387372e+01   1.920507e+02
  -8.025486e+01   1.423367e+02
  -1.033730e+02  -3.357356e+00
  -6.484986e+01  -1.138974e+02
  -3.304806e+00  -1.059604e+02
   4.432604e+01  -2.308119e+01
   5.366518e+01   2.898153e+01
   2.748291e+01   8.704557e+00
   3.805050e+00  -2.041646e+01
   2.003974e+01   1.270231e+01
   5.645023e+01   8.475748e+01
   4.418712e+01   1.075359e+02
  -4.457094e+01   4.667386e+01
  -1.362946e+02  -3.566027e+01
  -1.287827e+02  -6.698545e+01
  -1.757731e+01  -4.757416e+01
   8.625296e+01  -2.255311e+01
   8.581564e+01  -9.636205e+00
   8.893957e+00   5.974827e+00
  -3.848402e+01   2.260867e+01
  -1.270726e+01   1.889304e+01
   2.243191e+01  -1.818840e+00
  -6.061692e+00  -9.897386e+00
  -7.386205e+01  -3.033463e+00
  -8.926211e+01  -2.099536e+01
  -6.515518e+00  -7.708981e+01
   1.155989e+02  -1.129400e+02
   1.775839e+02  -5.954456e+01
   1.346651e+02   6.448518e+01
   2.589211e+01   1.581226e+02
  -7.231114e+01   1.463209e+02
  -1.075047e+02   5.686783e+01
  -7.851689e+01  -2.052822e+01
  -2.540837e+01  -3.281519e+01
   2.939023e+00  -6.204650e+00
  -9.759985e+00  -2.094791e+00
  -3.462031e+01  -4.321087e+01
  -2.604049e+01  -8.682663e+01
   2.630935e+01  -6.962935e+01
   7.950508e+01   1.715437e+01
   7.571323e+01   1.033031e+02
   3.535260e+00   1.068500e+02
  -8.095308e+01   2.182613e+01
  -9.969916e+01  -7.246247e+01
  -3.080506e+01  -9.827596e+01
   6.311706e+01  -5.282005e+01
   9.240899e+01   9.485164e+00
   3.696060e+01   4.529385e+01
  -2.962822e+01   4.776960e+01
  -2.663492e+01   2.725471e+01
   3.553357e+01  -9.408463e-02
   6.737728e+01  -6.968173e+00
   1.364446e+01   2.437373e+01
  -7.627849e+01   6.655332e+01
  -1.095811e+02   6.099099e+01
  -5.987314e+01  -9.138826e+00
   1.409355e+01  -8.081170e+01
   4.704419e+01  -7.767367e+01
   3.198274e+01  -4.647568e+00
   4.332274e-01   5.490643e+01
  -2.418583e+01   4.032643e+01
  -3.491954e+01  -2.001368e+01
  -2.599525e+01  -5.276808e+01
   2.953676e+00  -3.049044e+01
   3.288376e+01   9.016063e+00
   3.858083e+01   1.885116e+01
   1.882761e+01  -4.135670e-02
  -2.013162e+00  -1.212447e+01
  -7.757300e+00   5.240244e+00
  -7.692556e+00   3.488258e+01
  -1.715707e+01   3.907059e+01
  -3.043334e+01   3.169805e+00
  -2.629201e+01  -4.459989e+01
   5.314805e+00  -5.736486e+01
   4.459268e+01  -1.868288e+01
   5.439081e+01   3.787931e+01
   1.406230e+01   6.167993e+01
  -5.233680e+01   3.516573e+01
  -8.573804e+01  -1.222222e+01
  -4.846010e+01  -4.134562e+01
   2.639720e+01  -4.027670e+01
   6.118816e+01  -2.196806e+01
   2.164347e+01  -5.381768e+00
  -3.790997e+01  -2.960855e+00
  -3.664707e+01  -1.723304e+01
   3.227492e+01  -3.291915e+01
   9.144261e+01  -2.048476e+01
