
 $NMID
 id='ANONYMOUS ', fmtdat='(2E16.6)'
 volume=1.0
 tramp=1.0
 $END
  -2.503848e+03  -2.865803e+01
  -1.994904e+03  -1.311997e+03
  -3.625210e+01  -1.934022e+03
   1.029622e+03  -1.079509e+03
   9.491017e+02  -3.716998e+02
   2.906322e+02   1.937927e+02
  -1.808449e+02   6.243692e+01
  -2.959433e+01  -3.592638e+02
   3.432936e+02  -5.003717e+02
   4.830791e+02  -5.232976e+01
   4.773812e+02   4.064856e+02
   8.153038e+01   5.351563e+02
  -2.558290e+02   1.884370e+02
  -2.008565e+02  -2.997191e+02
   1.145845e+02  -4.174488e+02
   3.123059e+02  -5.712103e+01
   2.986485e+02   3.905237e+02
  -3.978419e+01   5.321237e+02
  -3.506086e+02   3.139684e+02
  -4.358729e+02  -8.829624e+01
  -1.634636e+02  -3.227385e+02
   4.799250e+01  -2.583173e+02
   6.728216e+00  -1.149499e+02
  -1.879095e+02  -1.475445e+02
  -1.731731e+02  -2.912905e+02
   1.007112e+02  -2.843995e+02
   4.629296e+02  -9.154439e+01
   5.029692e+02   1.778528e+02
   1.283391e+02   3.168566e+02
  -2.838235e+02   1.344495e+02
  -3.879864e+02  -1.232555e+02
  -1.233716e+02  -2.996906e+02
   2.317054e+02  -3.020204e+02
   3.831325e+02  -1.291649e+02
   2.807892e+02   1.279404e+02
   1.005396e+02   2.425948e+02
   2.055061e+01   1.507703e+02
   8.203295e+01  -5.406129e+01
   1.567064e+02  -1.019076e+02
   1.224297e+02   1.405961e+02
  -4.101497e+01   3.898294e+02
  -2.058452e+02   3.259267e+02
  -2.183508e+02   1.524445e+01
  -5.925322e+01  -1.968748e+02
   9.919896e+01  -6.375202e+01
   9.760874e+01   2.378597e+02
  -1.350975e+02   3.198175e+02
  -4.004988e+02   2.664216e+01
  -4.384556e+02  -3.537501e+02
  -1.433066e+02  -4.603513e+02
   2.628517e+02  -2.350486e+02
   4.598481e+02   6.830618e+01
   3.103419e+02   2.083946e+02
  -1.933075e+01   1.675961e+02
  -2.335946e+02   6.848490e+01
  -1.936043e+02   5.554621e+00
  -3.606168e+01   8.663303e-02
   2.211696e+01   2.401351e+01
  -7.851156e+01   2.725141e+01
  -1.840429e+02  -3.550331e+01
  -1.099427e+02  -1.547543e+02
   1.358097e+02  -2.304373e+02
   3.329566e+02  -1.436982e+02
   2.696826e+02   1.040617e+02
  -2.978107e+01   3.411998e+02
  -3.175247e+02   3.613656e+02
  -3.728344e+02   1.303556e+02
  -2.125924e+02  -1.713626e+02
  -3.493503e+01  -3.257118e+02
   1.871761e+01  -2.846739e+02
  -1.487416e+00  -1.773879e+02
   3.480004e+01  -1.295486e+02
   1.519516e+02  -1.173903e+02
   2.434182e+02  -3.338402e+01
   2.103938e+02   1.306570e+02
   6.224183e+01   2.387917e+02
  -9.998915e+01   1.606878e+02
  -1.695177e+02  -6.068957e+01
  -1.014494e+02  -2.387483e+02
   6.780673e+01  -2.226572e+02
   2.345348e+02  -3.580583e+01
   2.700965e+02   1.704890e+02
   1.464720e+02   2.661245e+02
  -3.894106e+01   2.362063e+02
  -1.402087e+02   1.558014e+02
  -1.437243e+02   1.038219e+02
  -1.640152e+02   7.705271e+01
  -2.825836e+02   1.575101e+01
  -3.877981e+02  -1.231263e+02
  -2.881627e+02  -2.972940e+02
   4.015875e+01  -4.106547e+02
   3.741592e+02  -3.583578e+02
   4.567012e+02  -1.408342e+02
   2.539971e+02   1.036098e+02
  -1.670101e+00   2.220924e+02
  -8.799499e+01   1.641438e+02
   5.384968e+00   3.459912e+01
   1.144466e+02  -1.733081e+01
   1.054777e+02   4.336435e+01
  -6.183022e+00   1.104393e+02
  -9.631489e+01   7.154580e+01
  -7.707629e+01  -4.724779e+01
   3.578772e+01  -9.674412e+01
   1.445772e+02   2.052854e+01
   1.349944e+02   2.258975e+02
  -2.636601e+01   3.247193e+02
  -2.431400e+02   2.000964e+02
  -3.536146e+02  -6.497023e+01
  -2.627285e+02  -2.644656e+02
  -4.208392e+01  -2.686588e+02
   1.287125e+02  -1.253850e+02
   1.317153e+02   1.122393e+00
   2.405104e+01   5.678922e+00
  -3.868122e+01  -6.955201e+01
   2.044942e+01  -1.047279e+02
   1.199035e+02  -4.743617e+01
   1.255222e+02   3.548905e+01
   1.662924e+01   4.636936e+01
  -8.021066e+01  -2.684393e+01
  -2.867278e+01  -1.009612e+02
   1.548755e+02  -8.458019e+01
   2.984767e+02   3.398807e+01
   2.439787e+02   1.806466e+02
   1.188817e+01   2.569237e+02
  -2.108974e+02   2.120596e+02
  -2.530714e+02   7.903221e+01
  -1.192118e+02  -4.127270e+01
   2.975313e+01  -6.064601e+01
   4.746066e+01   1.054546e+01
  -6.384697e+01   6.546985e+01
  -1.739536e+02   1.520749e+01
  -1.653219e+02  -1.058792e+02
  -4.155653e+01  -1.734326e+02
   8.710791e+01  -1.178190e+02
   1.128641e+02  -6.510310e+00
   3.337123e+01   3.563000e+01
  -4.706016e+01  -3.031658e+01
  -2.173138e+01  -1.171654e+02
   1.039430e+02  -1.134047e+02
   2.064233e+02  -1.966546e-03
   1.670954e+02   1.380121e+02
   1.978382e+00   1.943420e+02
  -1.474342e+02   1.322162e+02
  -1.583244e+02   7.875888e+00
  -4.753244e+01  -8.201866e+01
   5.772538e+01  -8.097106e+01
   6.192900e+01  -1.904989e+01
  -6.318882e+00   2.306427e+01
  -4.264005e+01   3.278607e+00
   7.494971e+00  -3.171077e+01
   9.145809e+01  -4.383523e+00
   1.059048e+02   9.419714e+01
   5.289240e+00   1.757931e+02
  -1.475771e+02   1.440719e+02
  -2.313943e+02  -3.504475e+00
  -1.762745e+02  -1.608748e+02
  -2.762583e+01  -2.142315e+02
   9.708188e+01  -1.454222e+02
   1.207923e+02  -2.970290e+01
   7.054296e+01   3.627909e+01
   3.431516e+01   2.422663e+01
   5.553687e+01  -1.262188e+01
   8.961042e+01  -3.096200e+00
   5.918425e+01   6.026516e+01
  -4.199662e+01   1.079990e+02
  -1.313270e+02   6.639751e+01
  -1.136210e+02  -5.045385e+01
   2.274816e+01  -1.336904e+02
   1.721410e+02  -8.526102e+01
   2.015157e+02   7.460194e+01
   7.006898e+01   2.122202e+02
  -1.333834e+02   2.073201e+02
  -2.591001e+02   6.638129e+01
  -2.267430e+02  -9.450621e+01
  -8.662904e+01  -1.616270e+02
   4.078061e+01  -1.282799e+02
   8.308756e+01  -7.304686e+01
   6.526025e+01  -6.663894e+01
   5.746714e+01  -9.283738e+01
   9.132686e+01  -7.811275e+01
   1.293247e+02   1.972902e+01
   1.109979e+02   1.536796e+02
   1.700443e+01   2.200393e+02
  -1.025645e+02   1.556156e+02
  -1.615697e+02   1.773720e+00
  -1.132519e+02  -1.287486e+02
   2.908881e-02  -1.491237e+02
   7.837234e+01  -7.095547e+01
   6.148892e+01   2.184005e+01
  -8.477778e+00   5.723233e+01
  -3.375959e+01   3.607634e+01
   2.130987e+01   1.039776e+01
   8.216459e+01   1.689303e+01
   4.887701e+01   4.044024e+01
  -7.629246e+01   3.833057e+01
  -1.750926e+02  -8.430744e+00
  -1.390029e+02  -7.134321e+01
   9.840556e+00  -1.008229e+02
   1.381332e+02  -6.924627e+01
   1.412946e+02   1.735363e+00
   3.980097e+01   5.495239e+01
  -5.897964e+01   4.448995e+01
  -7.564030e+01  -1.983310e+01
  -2.028859e+01  -7.597021e+01
   4.333916e+01  -6.751020e+01
   6.949554e+01  -2.541624e+00
   6.081237e+01   5.162930e+01
   4.763848e+01   4.485293e+01
   5.136595e+01   3.631941e+00
   6.266409e+01   3.513239e+00
   4.477250e+01   7.356431e+01
  -2.790856e+01   1.501644e+02
  -1.294563e+02   1.402574e+02
  -1.822242e+02   2.856288e+01
  -1.273780e+02  -9.623803e+01
   2.073910e+00  -1.323102e+02
   9.298679e+01  -6.927383e+01
   6.093067e+01   9.015500e+00
  -5.491638e+01   1.873975e+01
  -1.248029e+02  -4.207769e+01
  -6.201179e+01  -1.038951e+02
   8.445445e+01  -1.009955e+02
   1.808910e+02  -3.278738e+01
   1.450508e+02   4.714494e+01
   2.303996e+01   8.072897e+01
  -6.435467e+01   5.043193e+01
  -4.434953e+01  -8.054618e+00
   4.242326e+01  -3.040792e+01
   9.125193e+01   2.113954e+01
   3.915910e+01   1.121257e+02
  -7.409930e+01   1.496764e+02
  -1.485289e+02   6.896956e+01
  -1.194710e+02  -8.500640e+01
  -1.474938e+01  -1.815896e+02
   7.910815e+01  -1.313710e+02
   9.808008e+01   1.484160e+01
   4.709815e+01   1.168105e+02
  -1.923383e+01   9.626620e+01
  -5.088902e+01   1.083649e+01
  -3.888755e+01  -3.154140e+01
  -1.235068e+01  -5.813252e+00
  -8.505970e+00   1.599516e+01
  -3.457992e+01  -2.373860e+01
  -5.513445e+01  -8.897209e+01
  -2.383146e+01  -1.006640e+02
   5.902592e+01  -3.924036e+01
   1.283228e+02   3.691737e+01
   1.134208e+02   6.814412e+01
   1.786718e+01   5.280229e+01
  -7.318032e+01   2.470571e+01
  -8.150358e+01   3.012769e+00
  -1.977132e+01  -1.253419e+01
   3.104281e+01  -1.858412e+01
   2.134479e+01  -9.050241e+00
  -1.087171e+01   4.464958e+00
   1.455098e+00   3.717049e+00
   5.968503e+01  -1.806990e+00
   8.877587e+01   2.167054e+01
   2.519351e+01   7.855028e+01
  -1.002967e+02   1.133813e+02
  -1.837232e+02   6.466957e+01
  -1.522093e+02  -5.455977e+01
  -3.206108e+01  -1.536187e+02
   8.131572e+01  -1.525336e+02
   1.159786e+02  -6.672529e+01
   7.853226e+01   1.850466e+01
   2.610228e+01   3.961458e+01
   4.885770e+00   1.615762e+01
   1.512215e+01   1.041045e+01
   2.755338e+01   4.871117e+01
   1.395862e+01   8.824770e+01
  -2.888348e+01   6.946690e+01
  -7.381639e+01  -1.267583e+01
  -7.750116e+01  -9.527307e+01
  -1.777527e+01  -1.060020e+02
   6.839815e+01  -3.458787e+01
   1.028130e+02   5.861976e+01
   4.279875e+01   1.002992e+02
  -5.991148e+01   6.676066e+01
  -1.031873e+02  -5.687901e+00
  -4.809090e+01  -5.988150e+01
   3.302277e+01  -6.385966e+01
   4.303532e+01  -2.813462e+01
  -2.078092e+01   8.440865e+00
  -6.508001e+01   9.521139e+00
  -1.990196e+01  -2.698512e+01
   7.441632e+01  -6.174795e+01
   1.184500e+02  -4.764011e+01
   7.105320e+01   1.849034e+01
  -1.327407e+01   8.141259e+01
  -5.917922e+01   8.020881e+01
  -4.700910e+01   1.493516e+01
  -8.616151e+00  -4.883877e+01
   2.257159e+01  -4.935769e+01
   3.571658e+01   5.729002e+00
   2.854373e+01   5.196278e+01
   7.246387e-01   4.267876e+01
  -3.213651e+01  -2.215870e+00
  -4.221009e+01  -2.642392e+01
  -2.148578e+01  -7.175343e+00
   4.111245e+00   2.128193e+01
   6.436534e+00   1.326023e+01
  -7.863036e+00  -2.881266e+01
  -5.548935e+00  -5.496539e+01
   2.319286e+01  -2.825194e+01
   4.383374e+01   2.865112e+01
   1.941346e+01   5.688050e+01
  -3.613005e+01   2.707991e+01
  -6.274094e+01  -2.916948e+01
  -2.114967e+01  -5.685648e+01
   5.559629e+01  -3.528275e+01
   9.159724e+01   9.564885e+00
   4.981023e+01   4.137650e+01
  -2.715902e+01   4.579798e+01
  -6.280546e+01   2.983775e+01
  -3.020700e+01   7.807335e+00
   2.251426e+01  -5.347643e+00
   2.951401e+01   1.903510e+00
  -1.867194e+01   2.086364e+01
  -6.832894e+01   1.995622e+01
