
 $NMID
 id='ANONYMOUS ', fmtdat='(2E16.6)'
 volume=1.0
 tramp=1.0
 $END
  -3.525754e+03   4.427622e+01
  -2.258707e+03  -1.741760e+03
   2.708037e+02  -2.180838e+03
   1.529283e+03  -1.297172e+03
   9.116903e+02  -9.855751e-01
  -1.582244e+02   2.485872e+02
  -4.673119e+02  -2.301983e+02
   2.980228e+01  -5.460935e+02
   6.133277e+02  -5.905385e+02
   6.047074e+02  -1.121522e+02
   4.311367e+02   6.674628e+02
  -3.635640e+01   7.548065e+02
  -4.463593e+02   7.986086e+01
  -2.461844e+02  -5.029598e+02
   1.229933e+02  -5.449882e+02
   4.046947e+02  -8.082231e+01
   3.051173e+02   5.425935e+02
  -1.451514e+02   5.767382e+02
  -4.822295e+02   2.157015e+02
  -4.800063e+02  -2.137903e+02
  -1.519775e+02  -3.554532e+02
   1.288465e+02  -2.664586e+02
   9.073416e+01  -1.037126e+02
  -1.239193e+02  -5.605059e+01
  -2.785118e+02  -2.194658e+02
  -3.858746e+01  -3.388557e+02
   4.518727e+02  -2.305107e+02
   6.167764e+02   1.518717e+02
   2.477147e+02   3.819614e+02
  -3.255969e+02   2.452301e+02
  -5.485824e+02  -7.562060e+01
  -2.379212e+02  -3.691351e+02
   2.485419e+02  -4.007414e+02
   4.739961e+02  -1.573145e+02
   3.361983e+02   1.877936e+02
   8.008746e+01   3.480483e+02
  -6.763967e+01   1.837434e+02
  -1.366405e+00  -1.143951e+02
   1.648788e+02  -2.136584e+02
   2.205500e+02   1.279187e+02
   5.093903e+01   5.166025e+02
  -2.557198e+02   4.820623e+02
  -3.687846e+02  -7.713942e+00
  -1.548769e+02  -3.627231e+02
   1.672698e+02  -1.857469e+02
   2.276051e+02   2.597372e+02
  -7.297823e+01   4.180690e+02
  -4.346714e+02   9.478519e+01
  -5.006173e+02  -3.416918e+02
  -1.732369e+02  -5.050996e+02
   2.980075e+02  -2.999778e+02
   5.295898e+02   4.929324e+01
   3.541660e+02   2.679623e+02
  -4.788026e+01   2.587453e+02
  -3.000102e+02   8.926463e+01
  -2.127578e+02  -6.033507e+01
   2.043996e+01  -4.265805e+01
   7.179478e+01   7.341906e+01
  -1.120820e+02   9.599033e+01
  -2.552685e+02  -4.331151e+01
  -1.295375e+02  -2.122768e+02
   1.654025e+02  -2.502606e+02
   3.428607e+02  -1.270881e+02
   2.544419e+02   8.769132e+01
  -9.015214e+00   2.956244e+02
  -2.552920e+02   3.658691e+02
  -3.430186e+02   1.984978e+02
  -2.525662e+02  -1.259357e+02
  -8.215809e+01  -3.558770e+02
   2.931391e+01  -3.310258e+02
   3.792198e+01  -1.694055e+02
   3.625474e+01  -8.625798e+01
   1.140962e+02  -1.060841e+02
   2.248292e+02  -7.016319e+01
   2.407674e+02   9.722758e+01
   1.124540e+02   2.477511e+02
  -7.388188e+01   2.028531e+02
  -1.872792e+02  -2.001990e+01
  -1.509487e+02  -2.322413e+02
   2.750384e+01  -2.587555e+02
   2.401474e+02  -7.807874e+01
   3.151706e+02   1.645992e+02
   1.795007e+02   3.033593e+02
  -4.903682e+01   2.699836e+02
  -1.678608e+02   1.487270e+02
  -1.465823e+02   6.919119e+01
  -1.437030e+02   6.821731e+01
  -2.669882e+02   4.810024e+01
  -4.026304e+02  -7.935646e+01
  -3.228086e+02  -2.799547e+02
   2.496642e+00  -4.279200e+02
   3.536880e+02  -3.994768e+02
   4.644293e+02  -1.937966e+02
   2.965987e+02   7.917908e+01
   4.126618e+01   2.503484e+02
  -9.023705e+01   2.115644e+02
  -2.871737e+01   4.482623e+01
   1.047431e+02  -4.833594e+01
   1.377481e+02   2.868706e+01
   1.972460e+01   1.437955e+02
  -1.215214e+02   1.107377e+02
  -1.251044e+02  -5.610633e+01
   1.668217e+01  -1.436654e+02
   1.653122e+02  -1.157812e+01
   1.637473e+02   2.275933e+02
  -5.313575e+00   3.386504e+02
  -2.283887e+02   2.109062e+02
  -3.489950e+02  -4.933884e+01
  -2.818441e+02  -2.479156e+02
  -7.436577e+01  -2.677821e+02
   1.159216e+02  -1.433494e+02
   1.475168e+02  -1.105438e+01
   3.798821e+01   1.437519e+01
  -5.110848e+01  -5.980127e+01
  -4.407008e-01  -1.180650e+02
   1.218857e+02  -7.534039e+01
   1.495005e+02   2.146601e+01
   3.526296e+01   5.868430e+01
  -8.189337e+01  -3.035572e+00
  -4.467510e+01  -8.604437e+01
   1.383335e+02  -9.142269e+01
   2.934154e+02   7.146762e+00
   2.573583e+02   1.537861e+02
   3.823296e+01   2.554550e+02
  -1.941379e+02   2.385025e+02
  -2.619974e+02   1.043778e+02
  -1.388117e+02  -4.349500e+01
   2.770791e+01  -8.025326e+01
   6.714573e+01   4.759517e+00
  -4.805996e+01   8.521739e+01
  -1.826361e+02   3.963350e+01
  -1.906461e+02  -9.905397e+01
  -6.199561e+01  -1.855978e+02
   8.307340e+01  -1.370694e+02
   1.235541e+02  -2.079104e+01
   4.938435e+01   3.483703e+01
  -3.843089e+01  -1.614020e+01
  -2.903495e+01  -1.022609e+02
   8.883543e+01  -1.164028e+02
   2.018753e+02  -1.910896e+01
   1.784089e+02   1.255232e+02
   1.389301e+01   2.038097e+02
  -1.503202e+02   1.504848e+02
  -1.705627e+02   1.103694e+01
  -5.434272e+01  -9.617501e+01
   6.071064e+01  -9.720070e+01
   7.073209e+01  -2.485888e+01
   4.191291e+00   2.709884e+01
  -3.439709e+01   1.249253e+01
   7.372108e+00  -2.342738e+01
   8.340682e+01  -4.192189e+00
   1.039088e+02   8.512075e+01
   1.680859e+01   1.705300e+02
  -1.330329e+02   1.546775e+02
  -2.329272e+02   1.763853e+01
  -1.939658e+02  -1.491325e+02
  -4.310506e+01  -2.233279e+02
   9.535202e+01  -1.602855e+02
   1.261548e+02  -3.345275e+01
   7.274107e+01   4.241188e+01
   3.349747e+01   2.835001e+01
   5.474960e+01  -1.520887e+01
   8.547992e+01  -8.355113e+00
   5.490983e+01   5.313501e+01
  -3.711012e+01   1.018443e+02
  -1.151112e+02   6.745028e+01
  -1.027654e+02  -3.915944e+01
   1.395046e+01  -1.224943e+02
   1.559487e+02  -8.970564e+01
   2.023432e+02   5.886541e+01
   8.870400e+01   2.048479e+02
  -1.166913e+02   2.208434e+02
  -2.615657e+02   8.772869e+01
  -2.434581e+02  -8.343310e+01
  -1.008792e+02  -1.657050e+02
   3.676669e+01  -1.371254e+02
   8.591778e+01  -7.872102e+01
   6.574207e+01  -6.811406e+01
   5.329401e+01  -9.541337e+01
   8.642637e+01  -8.365309e+01
   1.303374e+02   1.244730e+01
   1.222248e+02   1.479389e+02
   3.283814e+01   2.213391e+02
  -9.399148e+01   1.663872e+02
  -1.664923e+02   1.607437e+01
  -1.268266e+02  -1.202634e+02
  -1.313107e+01  -1.515487e+02
   7.055951e+01  -8.104127e+01
   6.040100e+01   1.000238e+01
  -2.318734e+00   4.959309e+01
  -2.339635e+01   3.483267e+01
   2.927514e+01   1.280587e+01
   8.479103e+01   1.827098e+01
   5.139489e+01   3.994738e+01
  -7.035806e+01   4.189822e+01
  -1.721742e+02   2.789151e+00
  -1.469131e+02  -5.826356e+01
  -4.869139e+00  -9.593144e+01
   1.297331e+02  -7.602434e+01
   1.434743e+02  -9.841432e+00
   4.468749e+01   4.675489e+01
  -5.847909e+01   4.247577e+01
  -7.651115e+01  -1.748567e+01
  -1.803596e+01  -7.250024e+01
   4.582400e+01  -6.507425e+01
   6.756127e+01  -2.613769e+00
   5.722159e+01   4.967310e+01
   4.800080e+01   4.233274e+01
   5.446430e+01   5.790999e-01
   6.350309e+01  -4.657030e-01
   4.443124e+01   7.018871e+01
  -2.321877e+01   1.507799e+02
  -1.197126e+02   1.460207e+02
  -1.760465e+02   3.697875e+01
  -1.305797e+02  -8.976158e+01
  -5.972813e+00  -1.300768e+02
   8.857460e+01  -6.980621e+01
   6.105440e+01   8.732888e+00
  -5.647698e+01   2.076543e+01
  -1.319322e+02  -3.847645e+01
  -7.141311e+01  -1.026693e+02
   7.949729e+01  -1.080718e+02
   1.841074e+02  -4.654430e+01
   1.542985e+02   3.709347e+01
   3.161851e+01   8.272941e+01
  -6.271682e+01   6.087398e+01
  -4.885934e+01  -7.953448e-01
   3.849674e+01  -3.139853e+01
   9.194389e+01   1.706374e+01
   4.169486e+01   1.122838e+02
  -7.465204e+01   1.540126e+02
  -1.528536e+02   7.182014e+01
  -1.246902e+02  -8.678967e+01
  -1.944480e+01  -1.875804e+02
   7.612954e+01  -1.387080e+02
   9.992980e+01   9.402336e+00
   5.612688e+01   1.166209e+02
  -8.605264e+00   1.005691e+02
  -4.868349e+01   1.472811e+01
  -4.602300e+01  -3.114655e+01
  -1.840021e+01  -6.345369e+00
  -5.232307e+00   1.903776e+01
  -2.898055e+01  -1.859782e+01
  -5.899855e+01  -8.685819e+01
  -3.622545e+01  -1.031688e+02
   5.165439e+01  -4.317671e+01
   1.339642e+02   3.358664e+01
   1.229367e+02   6.467644e+01
   1.905229e+01   4.993208e+01
  -7.922207e+01   2.582847e+01
  -8.421314e+01   8.321453e+00
  -1.551107e+01  -9.015132e+00
   3.389404e+01  -2.105232e+01
   1.731691e+01  -1.373785e+01
  -1.622134e+01   3.659274e+00
   2.966212e+00   6.422746e+00
   6.630213e+01  -1.447760e+00
   9.131070e+01   1.894322e+01
   2.054606e+01   7.834582e+01
  -1.051744e+02   1.183174e+02
  -1.834330e+02   6.980890e+01
  -1.500809e+02  -5.499014e+01
  -3.479999e+01  -1.577405e+02
   7.451419e+01  -1.560554e+02
   1.123015e+02  -6.758073e+01
   8.014729e+01   1.730095e+01
   2.837962e+01   3.673145e+01
   3.622283e+00   1.240945e+01
   1.388174e+01   7.720882e+00
   3.094729e+01   4.757235e+01
   2.003258e+01   8.910864e+01
  -2.648968e+01   7.075739e+01
  -7.711232e+01  -1.319034e+01
  -8.079263e+01  -9.766942e+01
  -1.597285e+01  -1.069040e+02
   7.312026e+01  -3.189814e+01
   1.049847e+02   6.156396e+01
   4.106853e+01   9.883269e+01
  -6.121738e+01   6.295917e+01
  -1.010995e+02  -4.791826e+00
  -4.525481e+01  -5.325062e+01
   3.179020e+01  -5.887786e+01
   3.693249e+01  -2.986759e+01
  -2.713658e+01   4.537942e+00
  -6.700387e+01   9.730648e+00
  -1.794863e+01  -2.527658e+01
   7.607607e+01  -6.531457e+01
   1.166452e+02  -5.579705e+01
   6.863506e+01   1.345220e+01
  -1.217982e+01   8.305164e+01
  -5.393681e+01   8.261492e+01
  -4.170421e+01   1.279464e+01
  -6.598329e+00  -5.167659e+01
   2.215404e+01  -4.703667e+01
   3.550685e+01   1.059858e+01
   2.909186e+01   5.208398e+01
   1.262908e+00   3.723626e+01
  -3.115272e+01  -5.041559e+00
  -4.096982e+01  -2.201306e+01
  -2.101157e+01  -1.284841e+00
   3.036508e+00   2.019729e+01
   5.967898e+00   6.043536e+00
  -3.693656e+00  -3.321358e+01
   1.592560e+00  -5.123598e+01
   2.688320e+01  -1.964824e+01
   3.987525e+01   3.536783e+01
   1.209202e+01   5.831444e+01
  -4.000086e+01   2.491054e+01
  -6.219010e+01  -3.194616e+01
  -2.007603e+01  -5.904702e+01
   5.539020e+01  -3.657687e+01
   9.193970e+01   9.163282e+00
   5.083465e+01   4.072469e+01
  -2.706397e+01   4.452255e+01
  -6.313876e+01   2.879648e+01
  -2.701547e+01   7.939458e+00
   2.963487e+01  -2.846305e+00
   3.383355e+01   6.424875e+00
  -2.320945e+01   2.573675e+01
  -7.802081e+01   2.246960e+01
