
 $NMID
 id='ANONYMOUS ', fmtdat='(2E16.6)'
 volume=1.0
 tramp=1.0
 $END
  -4.127276e+03   1.616278e+02
  -2.810917e+03  -2.798295e+03
   7.931404e+02  -2.966133e+03
   2.239881e+03  -9.791674e+02
   8.934483e+02   4.352763e+02
  -5.470871e+02   5.874550e+02
  -8.024969e+02  -4.088079e+02
   1.680535e+01  -1.131451e+03
   8.388348e+02  -7.428853e+02
   8.634873e+02   9.522189e+01
   5.801617e+02   9.579386e+02
  -3.167107e+02   9.122373e+02
  -6.431203e+02   1.716925e+02
  -4.206448e+02  -6.875184e+02
   3.216992e+02  -7.227860e+02
   6.205323e+02  -2.045613e+01
   2.592423e+02   6.858332e+02
  -3.358347e+02   6.495500e+02
  -5.558424e+02   3.279911e+01
  -3.281296e+02  -3.931976e+02
   1.590415e+01  -4.309763e+02
   2.529830e+02  -2.740223e+02
   2.394067e+02  -1.909189e+00
  -1.162180e+02   1.285153e+02
  -3.991965e+02  -1.206659e+02
  -2.201481e+02  -4.578231e+02
   4.381621e+02  -4.316097e+02
   8.841309e+02   8.891051e+01
   4.385414e+02   5.820501e+02
  -4.135938e+02   4.888236e+02
  -7.642898e+02  -4.272603e+01
  -3.544024e+02  -5.197483e+02
   3.010670e+02  -5.455330e+02
   6.009229e+02  -2.124502e+02
   4.234652e+02   2.481856e+02
   6.569861e+01   4.949093e+02
  -1.984925e+02   3.158318e+02
  -2.137011e+02  -2.085820e+02
   1.393172e+02  -4.556393e+02
   4.782783e+02  -1.218471e+01
   2.803848e+02   6.878869e+02
  -3.072473e+02   7.333767e+02
  -6.438147e+02   3.147741e+01
  -2.861018e+02  -5.788934e+02
   3.152640e+02  -3.429750e+02
   4.253340e+02   3.231460e+02
  -6.229485e+01   5.542680e+02
  -5.754364e+02   1.501847e+02
  -6.132935e+02  -3.997898e+02
  -1.698968e+02  -5.977197e+02
   3.858158e+02  -3.655091e+02
   6.380609e+02   6.598505e+01
   3.758785e+02   4.044406e+02
  -1.675540e+02   3.819550e+02
  -4.631160e+02   4.337346e+01
  -2.410624e+02  -2.348001e+02
   1.445783e+02  -1.217005e+02
   1.612112e+02   1.837847e+02
  -1.802751e+02   2.251218e+02
  -3.749127e+02  -7.072608e+01
  -1.462166e+02  -3.200136e+02
   2.163106e+02  -2.637315e+02
   3.263272e+02  -5.806001e+01
   1.678437e+02   8.618562e+01
  -4.658760e+01   1.990419e+02
  -2.153602e+02   3.049443e+02
  -3.222501e+02   2.193063e+02
  -2.864114e+02  -1.329419e+02
  -7.720845e+01  -4.476014e+02
   1.270907e+02  -3.942766e+02
   1.329774e+02  -1.015706e+02
   1.719714e+01   3.174737e+01
   1.760380e+01  -8.499872e+01
   1.764248e+02  -1.508171e+02
   2.855144e+02   3.063299e+01
   1.821955e+02   2.610179e+02
  -5.185895e+01   2.622896e+02
  -2.246890e+02   2.327672e+01
  -2.063284e+02  -2.269991e+02
  -2.975915e+00  -2.924348e+02
   2.596320e+02  -1.245214e+02
   3.644297e+02   1.610869e+02
   1.910613e+02   3.518691e+02
  -1.036983e+02   3.112722e+02
  -2.388924e+02   1.168186e+02
  -1.603635e+02  -1.325882e+01
  -9.472327e+01   1.619039e+01
  -2.154301e+02   6.185616e+01
  -3.772969e+02  -4.960256e+01
  -3.173972e+02  -2.657739e+02
  -4.864813e+00  -4.192847e+02
   3.338452e+02  -4.025745e+02
   4.621930e+02  -2.072913e+02
   3.311320e+02   7.786790e+01
   6.721607e+01   2.869952e+02
  -1.266804e+02   2.563715e+02
  -9.048671e+01   2.935339e+01
   1.085225e+02  -1.184128e+02
   2.131561e+02   2.701426e+00
   6.439578e+01   2.093095e+02
  -1.660934e+02   1.879388e+02
  -1.977061e+02  -5.337166e+01
   5.533576e+00  -1.963007e+02
   1.920486e+02  -3.809858e+01
   1.627183e+02   2.422433e+02
  -3.161659e+01   3.364152e+02
  -2.205705e+02   1.803688e+02
  -3.109770e+02  -6.098999e+01
  -2.710654e+02  -2.234233e+02
  -1.029874e+02  -2.518748e+02
   1.020496e+02  -1.628911e+02
   1.773637e+02  -2.945437e+01
   6.530395e+01   3.074709e+01
  -6.869497e+01  -3.413706e+01
  -3.549883e+01  -1.243728e+02
   1.191809e+02  -1.075558e+02
   1.805821e+02   3.936562e+00
   6.543311e+01   7.056437e+01
  -7.186999e+01   2.191284e+01
  -5.269049e+01  -6.515827e+01
   1.164392e+02  -8.169368e+01
   2.695877e+02  -2.553776e+00
   2.576436e+02   1.290010e+02
   6.686854e+01   2.451051e+02
  -1.726363e+02   2.604997e+02
  -2.795660e+02   1.330716e+02
  -1.749640e+02  -4.747798e+01
   2.141964e+01  -1.126556e+02
   9.508421e+01  -1.316602e+01
  -2.626245e+01   1.023242e+02
  -1.940164e+02   6.577530e+01
  -2.177510e+02  -9.631244e+01
  -7.579686e+01  -2.068884e+02
   9.120312e+01  -1.636080e+02
   1.470875e+02  -3.772918e+01
   7.921394e+01   3.776607e+01
  -1.947121e+01   1.008823e+01
  -3.723788e+01  -7.004636e+01
   6.141519e+01  -1.049042e+02
   1.854041e+02  -3.238946e+01
   1.865999e+02   1.147326e+02
   2.419679e+01   2.138137e+02
  -1.598846e+02   1.644204e+02
  -1.935876e+02   5.084316e+00
  -6.849190e+01  -1.194220e+02
   6.450193e+01  -1.162971e+02
   8.546351e+01  -3.235817e+01
   2.595907e+01   2.756225e+01
  -1.420966e+01   2.327608e+01
   9.284257e+00  -2.334968e+00
   6.073608e+01   1.059866e+01
   7.766275e+01   7.506469e+01
   1.542438e+01   1.450673e+02
  -1.149495e+02   1.454379e+02
  -2.216753e+02   3.174396e+01
  -1.978744e+02  -1.387132e+02
  -4.531498e+01  -2.307794e+02
   1.045478e+02  -1.708016e+02
   1.342937e+02  -2.969037e+01
   6.985047e+01   5.580807e+01
   2.850655e+01   3.822967e+01
   5.231187e+01  -1.006756e+01
   7.545932e+01  -5.229791e+00
   3.635989e+01   4.614908e+01
  -4.066395e+01   7.896450e+01
  -9.274223e+01   5.082590e+01
  -7.572634e+01  -2.903667e+01
   1.165253e+01  -9.890302e+01
   1.290143e+02  -8.040298e+01
   1.856929e+02   4.177862e+01
   1.014652e+02   1.875450e+02
  -9.688073e+01   2.220561e+02
  -2.565590e+02   9.954244e+01
  -2.530791e+02  -8.005678e+01
  -1.115441e+02  -1.739340e+02
   3.578801e+01  -1.481221e+02
   9.361743e+01  -8.422635e+01
   8.052892e+01  -6.659547e+01
   6.770858e+01  -8.576140e+01
   8.988354e+01  -6.962291e+01
   1.226520e+02   2.202943e+01
   1.119554e+02   1.487599e+02
   2.917129e+01   2.185528e+02
  -9.395852e+01   1.684655e+02
  -1.693591e+02   2.374811e+01
  -1.335069e+02  -1.142852e+02
  -2.197542e+01  -1.538052e+02
   6.077460e+01  -9.190838e+01
   5.545483e+01  -4.749388e+00
   5.891755e+00   3.819277e+01
  -5.649204e+00   3.326384e+01
   3.789890e+01   1.993505e+01
   7.550886e+01   2.389507e+01
   4.155764e+01   3.701341e+01
  -6.004473e+01   3.541155e+01
  -1.501880e+02   4.644102e+00
  -1.399803e+02  -4.602526e+01
  -2.030159e+01  -8.351159e+01
   1.120366e+02  -7.322239e+01
   1.397124e+02  -1.721972e+01
   4.781278e+01   3.565500e+01
  -5.820776e+01   3.391731e+01
  -7.220273e+01  -1.958417e+01
  -3.311950e+00  -6.581943e+01
   5.778457e+01  -5.502925e+01
   6.124468e+01   2.481223e+00
   4.028707e+01   4.820474e+01
   4.185588e+01   4.160091e+01
   6.142012e+01   4.558305e+00
   6.412360e+01   2.179609e+00
   3.031489e+01   6.414410e+01
  -3.468590e+01   1.371953e+02
  -1.098119e+02   1.334170e+02
  -1.521661e+02   3.199642e+01
  -1.149699e+02  -8.567888e+01
  -7.265739e+00  -1.185301e+02
   8.001052e+01  -5.682759e+01
   5.677522e+01   1.546007e+01
  -5.614706e+01   1.966402e+01
  -1.325521e+02  -4.077909e+01
  -7.525028e+01  -1.022075e+02
   7.519312e+01  -1.092927e+02
   1.833460e+02  -5.404783e+01
   1.591344e+02   2.922207e+01
   3.944676e+01   8.426154e+01
  -5.646622e+01   7.151107e+01
  -4.652722e+01   1.005091e+01
   3.718196e+01  -2.478905e+01
   8.631911e+01   2.282152e+01
   2.924105e+01   1.159319e+02
  -9.159740e+01   1.484687e+02
  -1.633285e+02   5.773947e+01
  -1.210076e+02  -9.928215e+01
  -7.694471e+00  -1.910524e+02
   8.284429e+01  -1.393195e+02
   9.992806e+01   5.333827e+00
   5.949285e+01   1.133001e+02
   1.776177e+00   1.044643e+02
  -4.185970e+01   2.195456e+01
  -5.198789e+01  -2.912468e+01
  -2.857166e+01  -8.033801e+00
  -4.857047e+00   2.125893e+01
  -1.870922e+01  -1.285852e+01
  -5.385573e+01  -8.611281e+01
  -4.324080e+01  -1.082205e+02
   4.316801e+01  -4.477705e+01
   1.349382e+02   3.936046e+01
   1.281396e+02   6.952412e+01
   1.716817e+01   4.645069e+01
  -8.654674e+01   1.956774e+01
  -8.513280e+01   8.269902e+00
  -8.188787e+00  -4.472954e+00
   3.837954e+01  -2.013302e+01
   1.143550e+01  -1.786222e+01
  -2.341264e+01   9.948385e-01
   6.374217e+00   9.399801e+00
   7.454295e+01   5.102108e+00
   8.735187e+01   2.446289e+01
   1.613105e+00   7.864971e+01
  -1.212924e+02   1.089487e+02
  -1.803946e+02   5.165436e+01
  -1.323974e+02  -7.135106e+01
  -2.007104e+01  -1.601146e+02
   7.839633e+01  -1.438962e+02
   1.106511e+02  -5.328158e+01
   7.808917e+01   2.313088e+01
   2.349259e+01   3.442045e+01
  -4.447282e+00   7.195737e+00
   8.988831e+00   2.314872e+00
   3.325763e+01   4.306011e+01
   2.373854e+01   8.660350e+01
  -2.816653e+01   6.910943e+01
  -7.933913e+01  -1.913085e+01
  -7.294728e+01  -1.064712e+02
   1.772732e-01  -1.082145e+02
   8.284172e+01  -1.946369e+01
   9.810106e+01   7.703770e+01
   2.666067e+01   1.008864e+02
  -6.648087e+01   5.153046e+01
  -9.295400e+01  -1.304016e+01
  -3.536138e+01  -4.769002e+01
   3.135977e+01  -4.773634e+01
   2.692467e+01  -2.656263e+01
  -3.613311e+01  -5.933276e-01
  -6.771063e+01   5.482255e+00
  -1.350360e+01  -2.511394e+01
   7.675578e+01  -6.527727e+01
   1.096299e+02  -5.855307e+01
   5.906797e+01   1.029224e+01
  -1.587895e+01   7.920978e+01
  -4.917535e+01   7.431191e+01
  -3.286849e+01   2.044195e+00
   8.469420e-01  -5.581159e+01
   2.615659e+01  -3.965523e+01
   3.578913e+01   2.091022e+01
   2.541101e+01   5.323382e+01
  -3.385282e+00   3.028540e+01
  -3.219750e+01  -1.001454e+01
  -3.747155e+01  -2.002178e+01
  -1.980439e+01  -1.076367e-01
  -3.018097e-01   1.266726e+01
   6.202575e+00  -5.345672e+00
   9.003633e+00  -3.609918e+01
   2.047679e+01  -4.114287e+01
   3.274541e+01  -4.092348e+00
   2.604114e+01   4.531244e+01
  -6.311970e+00   5.863948e+01
  -4.409977e+01   1.860241e+01
  -5.212448e+01  -3.905425e+01
  -1.182542e+01  -6.118261e+01
   5.292196e+01  -3.196084e+01
   8.435230e+01   1.633750e+01
   4.630723e+01   4.307564e+01
  -2.851200e+01   3.805797e+01
  -6.252613e+01   1.819671e+01
  -2.152007e+01   3.358393e+00
   3.880579e+01   3.583718e+00
   3.733971e+01   1.822295e+01
  -3.203918e+01   3.215279e+01
  -9.127833e+01   1.814227e+01
