
 $NMID
 id='ANONYMOUS ', fmtdat='(2E16.6)'
 volume=1.0
 tramp=1.0
 $END
   1.621202e+03  -1.646540e+01
   1.169436e+03   8.555670e+02
  -1.177532e+02   1.286516e+03
  -7.087813e+02   6.091633e+02
  -4.106668e+02   1.610851e+02
  -1.394539e+02   6.643196e+01
   1.793472e+02   9.745052e+01
   5.327611e+01   2.538075e+02
  -1.430915e+02   3.418284e+02
  -4.223850e+02   1.491637e+02
  -2.851052e+02  -2.010276e+02
   1.073080e+01  -3.807091e+02
   1.440904e+02  -1.041594e+02
   8.587937e+01   1.892933e+02
  -9.781736e+01   3.024530e+02
  -2.447957e+02   4.044778e+01
  -2.225889e+02  -2.910421e+02
   4.583341e+00  -4.031693e+02
   2.256832e+02  -2.107813e+02
   2.631923e+02   8.474951e+01
   1.241199e+02   1.954022e+02
  -1.623117e+01   1.217695e+02
  -1.458833e+00   5.530030e+01
   1.038503e+02   9.748320e+01
   1.606922e+02   2.294847e+02
  -4.921174e+01   2.067460e+02
  -3.033973e+02   7.027327e+01
  -3.095243e+02  -1.190089e+02
  -9.044232e+01  -1.951823e+02
   1.906099e+02  -6.155727e+01
   2.528719e+02   1.261864e+02
   7.159039e+01   2.224767e+02
  -1.693819e+02   1.647925e+02
  -2.797555e+02   4.231492e+01
  -1.732315e+02  -7.915909e+01
  -4.118366e+01  -1.376606e+02
   6.071592e+00  -8.519320e+01
  -6.211310e+01   3.237674e+01
  -1.155560e+02   5.162330e+01
  -7.496980e+01  -1.181130e+02
   3.215544e+01  -2.733572e+02
   1.375863e+02  -2.167557e+02
   1.395728e+02   1.676780e+01
   3.640149e+01   1.543129e+02
  -7.433690e+01   4.194727e+01
  -6.713503e+01  -1.703791e+02
   8.343433e+01  -2.128849e+02
   2.595583e+02  -1.518660e+01
   2.861309e+02   2.276725e+02
   9.382770e+01   2.889441e+02
  -1.761989e+02   1.482897e+02
  -3.039530e+02  -3.624212e+01
  -1.993178e+02  -1.210228e+02
   1.315424e+01  -1.052112e+02
   1.497396e+02  -5.548604e+01
   1.277225e+02  -2.049391e+01
   2.507268e+01  -4.594151e+00
  -1.763300e+01  -4.384649e+00
   4.193508e+01  -2.811618e+00
   1.091031e+02   2.713884e+01
   6.534522e+01   9.229343e+01
  -8.884163e+01   1.398867e+02
  -2.188553e+02   8.996969e+01
  -1.848320e+02  -6.820244e+01
   7.009024e+00  -2.262091e+02
   1.997030e+02  -2.437284e+02
   2.445375e+02  -9.412288e+01
   1.453653e+02   1.018067e+02
   2.930864e+01   2.012915e+02
  -7.319248e+00   1.800511e+02
   6.713300e+00   1.224807e+02
  -1.916002e+01   9.815564e+01
  -1.025811e+02   8.235389e+01
  -1.699329e+02   1.597438e+01
  -1.452494e+02  -9.371058e+01
  -3.869298e+01  -1.599496e+02
   7.277847e+01  -1.068278e+02
   1.162914e+02   3.568689e+01
   6.715125e+01   1.542950e+02
  -4.576804e+01   1.476993e+02
  -1.510394e+02   2.698762e+01
  -1.730082e+02  -1.110225e+02
  -9.215982e+01  -1.736628e+02
   2.331524e+01  -1.504583e+02
   8.519518e+01  -9.853462e+01
   8.651267e+01  -6.808643e+01
   1.065723e+02  -5.520967e+01
   1.897916e+02  -1.705297e+01
   2.660041e+02   7.421377e+01
   1.971107e+02   1.976128e+02
  -2.339747e+01   2.788731e+02
  -2.487392e+02   2.433733e+02
  -3.065063e+02   9.849421e+01
  -1.707118e+02  -7.010687e+01
   2.627151e+00  -1.504047e+02
   5.885992e+01  -1.095030e+02
  -8.227296e+00  -2.213303e+01
  -8.031885e+01   1.157875e+01
  -6.542206e+01  -3.633000e+01
   1.199159e+01  -8.068206e+01
   6.745941e+01  -4.754310e+01
   4.973629e+01   3.862256e+01
  -2.558141e+01   7.259790e+01
  -9.585259e+01  -9.042066e+00
  -9.144436e+01  -1.479893e+02
   1.091064e+01  -2.180162e+02
   1.567877e+02  -1.380755e+02
   2.360110e+02   3.914961e+01
   1.768754e+02   1.780448e+02
   2.531515e+01   1.827281e+02
  -9.043857e+01   8.386890e+01
  -8.755118e+01  -5.254440e+00
  -1.107379e+01  -7.740564e+00
   2.862412e+01   4.654080e+01
  -1.671251e+01   7.220949e+01
  -8.477835e+01   3.230147e+01
  -8.448696e+01  -2.562532e+01
  -7.645533e+00  -3.341405e+01
   5.700150e+01   1.749093e+01
   1.918159e+01   6.870689e+01
  -1.065223e+02   5.784310e+01
  -2.031346e+02  -2.406161e+01
  -1.622392e+02  -1.258521e+02
  -1.343979e+00  -1.762255e+02
   1.493298e+02  -1.393073e+02
   1.723245e+02  -4.366307e+01
   7.624172e+01   3.643608e+01
  -2.586039e+01   4.290110e+01
  -3.468665e+01  -9.529533e+00
   4.261595e+01  -4.610132e+01
   1.166865e+02  -9.099505e+00
   1.097033e+02   7.384623e+01
   2.569584e+01   1.184699e+02
  -6.049152e+01   7.855724e+01
  -7.670729e+01   1.571823e+00
  -2.189253e+01  -2.658910e+01
   3.345215e+01   2.002431e+01
   1.586286e+01   8.086431e+01
  -7.148923e+01   7.888841e+01
  -1.414690e+02   1.023990e+00
  -1.125255e+02  -9.321021e+01
   1.639341e+00  -1.317751e+02
   1.016697e+02  -8.902088e+01
   1.039932e+02  -4.232701e+00
   2.648147e+01   5.693736e+01
  -4.229659e+01   5.495970e+01
  -3.990044e+01   1.117913e+01
   8.642223e+00  -1.868142e+01
   3.193954e+01  -3.742085e+00
  -5.082323e+00   2.419697e+01
  -6.475739e+01   7.747052e+00
  -7.596752e+01  -6.139817e+01
  -5.849135e+00  -1.211391e+02
   9.933575e+01  -1.006759e+02
   1.574959e+02   1.429549e+00
   1.203425e+02   1.080460e+02
   1.827299e+01   1.428373e+02
  -6.541456e+01   9.498910e+01
  -7.966136e+01   1.856353e+01
  -4.502553e+01  -2.366252e+01
  -2.176659e+01  -1.466399e+01
  -3.706980e+01   1.182466e+01
  -5.939339e+01   5.632752e+00
  -4.146550e+01  -3.969816e+01
   2.427401e+01  -7.719262e+01
   8.527199e+01  -5.112599e+01
   7.721703e+01   3.043773e+01
  -1.196566e+01   9.069901e+01
  -1.130203e+02   6.033866e+01
  -1.344361e+02  -4.882621e+01
  -4.467534e+01  -1.432762e+02
   9.212451e+01  -1.395181e+02
   1.733331e+02  -4.250853e+01
   1.479863e+02   6.508419e+01
   5.333325e+01   1.087481e+02
  -2.958720e+01   8.365472e+01
  -5.406097e+01   4.536704e+01
  -3.954486e+01   4.071615e+01
  -3.327547e+01   6.037071e+01
  -5.648497e+01   5.342005e+01
  -8.395266e+01  -9.929186e+00
  -7.492966e+01  -9.825755e+01
  -1.490566e+01  -1.436091e+02
   6.465766e+01  -1.029821e+02
   1.071509e+02  -1.969122e+00
   7.737955e+01   8.493402e+01
   1.330475e+00   9.946984e+01
  -5.331147e+01   4.722070e+01
  -4.272308e+01  -1.545611e+01
   5.880860e+00  -3.922085e+01
   2.418229e+01  -2.352266e+01
  -1.390591e+01  -4.406898e+00
  -5.666821e+01  -9.048492e+00
  -3.449455e+01  -2.733460e+01
   5.093351e+01  -2.826257e+01
   1.180598e+02   3.030120e+00
   9.304493e+01   4.728216e+01
  -7.218109e+00   6.838189e+01
  -9.285899e+01   4.697084e+01
  -9.462905e+01  -1.355745e+00
  -2.720851e+01  -3.770984e+01
   3.878447e+01  -3.135163e+01
   5.184668e+01   1.090123e+01
   1.722381e+01   4.885609e+01
  -2.556307e+01   4.542327e+01
  -4.640338e+01   3.928000e+00
  -4.302569e+01  -3.245586e+01
  -3.313820e+01  -2.919371e+01
  -3.272980e+01  -2.201552e+00
  -3.958027e+01  -1.269904e+00
  -3.082207e+01  -4.793652e+01
   1.477736e+01  -1.008058e+02
   8.303404e+01  -9.603721e+01
   1.214010e+02  -2.198455e+01
   8.659938e+01   6.250955e+01
  -2.288122e-02   8.783046e+01
  -6.158000e+01   4.577930e+01
  -3.937300e+01  -7.220295e+00
   3.880095e+01  -1.383948e+01
   8.524414e+01   2.762672e+01
   4.246299e+01   6.954930e+01
  -5.624206e+01   6.833815e+01
  -1.208968e+02   2.313008e+01
  -9.708979e+01  -3.073746e+01
  -1.531682e+01  -5.410138e+01
   4.389043e+01  -3.521450e+01
   3.188070e+01   4.243634e+00
  -2.601030e+01   2.122178e+01
  -6.033037e+01  -1.093574e+01
  -2.828724e+01  -7.185077e+01
   4.635522e+01  -9.925296e+01
   9.794316e+01  -4.756993e+01
   8.109642e+01   5.510567e+01
   1.150120e+01   1.208353e+02
  -5.313027e+01   8.818118e+01
  -6.711331e+01  -9.887329e+00
  -3.185779e+01  -7.900128e+01
   1.473669e+01  -6.504982e+01
   3.600006e+01  -6.511769e+00
   2.568048e+01   2.283992e+01
   6.388121e+00   5.011192e+00
   4.500640e+00  -1.133898e+01
   2.382776e+01   1.385698e+01
   3.795626e+01   5.781406e+01
   1.654827e+01   6.674907e+01
  -3.889421e+01   2.659070e+01
  -8.469053e+01  -2.371799e+01
  -7.463998e+01  -4.450051e+01
  -1.160842e+01  -3.482439e+01
   4.903395e+01  -1.666983e+01
   5.508461e+01  -2.486574e+00
   1.364878e+01   8.977229e+00
  -2.119401e+01   1.424322e+01
  -1.531343e+01   7.438087e+00
   6.970195e+00  -3.385063e+00
   1.398635e-01  -3.678667e+00
  -3.882229e+01   1.604366e+00
  -5.965226e+01  -1.190577e+01
  -1.900496e+01  -4.995091e+01
   6.400830e+01  -7.655857e+01
   1.208641e+02  -4.692955e+01
   1.021799e+02   3.318633e+01
   2.420617e+01   1.021263e+02
  -5.123969e+01   1.037053e+02
  -7.611009e+01   4.607229e+01
  -5.314083e+01  -1.180216e+01
  -1.933898e+01  -2.633222e+01
  -4.061594e+00  -1.078653e+01
  -9.630887e+00  -7.273607e+00
  -1.716634e+01  -3.257478e+01
  -9.002921e+00  -5.806962e+01
   1.838339e+01  -4.518096e+01
   4.806813e+01   8.367611e+00
   5.156683e+01   6.123619e+01
   1.320479e+01   6.834749e+01
  -4.376801e+01   2.348781e+01
  -6.798021e+01  -3.589972e+01
  -2.964233e+01  -6.391575e+01
   3.853856e+01  -4.402864e+01
   6.852576e+01   2.042366e+00
   3.299062e+01   3.836696e+01
  -2.157479e+01   4.294392e+01
  -2.950725e+01   2.031247e+01
   1.275252e+01  -4.432999e+00
   4.307207e+01  -6.147017e+00
   1.336251e+01   1.824226e+01
  -4.993239e+01   4.190803e+01
  -8.010629e+01   3.236057e+01
  -4.918922e+01  -1.256909e+01
   7.259658e+00  -5.569568e+01
   3.832125e+01  -5.540996e+01
   3.073971e+01  -1.148145e+01
   6.235169e+00   3.169107e+01
  -1.348746e+01   3.248521e+01
  -2.249403e+01  -3.948613e+00
  -1.888740e+01  -3.442257e+01
  -1.240333e+00  -2.826533e+01
   2.087959e+01   1.202379e+00
   2.822994e+01   1.716604e+01
   1.422025e+01   4.779004e+00
  -3.647596e+00  -1.362180e+01
  -4.979771e+00  -9.162699e+00
   6.152035e+00   1.734289e+01
   5.431644e+00   3.442722e+01
  -1.420606e+01   1.825477e+01
  -2.932553e+01  -1.772031e+01
  -1.341707e+01  -3.616481e+01
   2.416442e+01  -1.772587e+01
   4.257974e+01   1.861817e+01
   1.510365e+01   3.749595e+01
  -3.665272e+01   2.416987e+01
  -6.131636e+01  -5.357375e+00
  -3.381557e+01  -2.691550e+01
   1.742928e+01  -3.025860e+01
   4.146226e+01  -2.011257e+01
   1.996539e+01  -5.514567e+00
  -1.491600e+01   3.233500e+00
  -1.950856e+01  -1.218559e+00
   1.262305e+01  -1.382026e+01
   4.561034e+01  -1.377773e+01
