
 $NMID
 id='ANONYMOUS ', fmtdat='(2E16.6)'
 volume=1.0
 tramp=1.0
 $END
  -3.557008e+03   9.994998e+01
  -2.330437e+03  -1.875208e+03
  -1.334343e+01  -2.049393e+03
   1.335896e+03  -1.158813e+03
   8.968758e+02  -7.631654e+01
   4.730478e+01   3.661932e+02
  -4.225648e+02  -1.840478e+02
  -5.566130e+01  -5.879213e+02
   4.854960e+02  -5.346827e+02
   6.403537e+02  -8.328041e+00
   3.642765e+02   5.839803e+02
  -4.964043e+00   7.175214e+02
  -3.050084e+02   2.095979e+02
  -2.023502e+02  -4.978941e+02
   1.330981e+02  -5.849461e+02
   4.048274e+02  -1.044988e+02
   2.398656e+02   4.972311e+02
  -1.572052e+02   6.251212e+02
  -4.938281e+02   3.104764e+02
  -4.445770e+02  -1.447691e+02
  -1.166537e+02  -3.405083e+02
   1.535482e+02  -2.441315e+02
   8.193072e+01  -5.878039e+01
  -2.394348e+02  -7.417600e+01
  -3.105944e+02  -3.126459e+02
   2.381382e+01  -3.957124e+02
   5.073722e+02  -1.406035e+02
   6.190127e+02   2.309095e+02
   2.147817e+02   3.926789e+02
  -3.540322e+02   2.123283e+02
  -5.302918e+02  -1.491428e+02
  -1.994333e+02  -3.883957e+02
   2.855717e+02  -3.657356e+02
   4.592184e+02  -1.253726e+02
   3.232877e+02   1.730581e+02
   7.005921e+01   3.184651e+02
  -3.921092e+01   1.657720e+02
   6.584733e+01  -1.035492e+02
   2.113057e+02  -1.378808e+02
   1.885082e+02   1.830033e+02
  -2.753399e+01   4.932037e+02
  -2.809765e+02   4.167497e+02
  -3.009624e+02  -3.134463e+01
  -7.916263e+01  -3.133822e+02
   1.572654e+02  -1.129435e+02
   1.540605e+02   3.014127e+02
  -1.397297e+02   4.133080e+02
  -4.718346e+02   6.194320e+01
  -4.974996e+02  -3.881457e+02
  -1.541358e+02  -5.232076e+02
   3.145708e+02  -2.802949e+02
   5.243360e+02   7.556397e+01
   3.282654e+02   2.694454e+02
  -6.381854e+01   2.286629e+02
  -2.894980e+02   7.079472e+01
  -2.039446e+02  -3.231852e+01
  -2.976605e+00  -1.198744e+01
   3.614464e+01   5.836575e+01
  -1.168458e+02   5.731017e+01
  -2.340000e+02  -5.404729e+01
  -1.215528e+02  -1.988258e+02
   1.579888e+02  -2.517131e+02
   3.522907e+02  -1.372589e+02
   2.742787e+02   1.122078e+02
  -3.056562e+01   3.493326e+02
  -3.302881e+02   3.860810e+02
  -4.079283e+02   1.528240e+02
  -2.493035e+02  -1.950682e+02
  -3.666849e+01  -3.946967e+02
   5.249802e+01  -3.387411e+02
   2.763677e+01  -1.745532e+02
   3.428022e+01  -9.959874e+01
   1.450115e+02  -1.099655e+02
   2.618081e+02  -5.094640e+01
   2.458864e+02   1.254147e+02
   8.389531e+01   2.631529e+02
  -1.078785e+02   1.906789e+02
  -1.982762e+02  -5.722137e+01
  -1.298864e+02  -2.625167e+02
   6.620619e+01  -2.531197e+02
   2.650303e+02  -4.443638e+01
   3.127234e+02   1.948322e+02
   1.580052e+02   3.088083e+02
  -6.664908e+01   2.632352e+02
  -1.757044e+02   1.520686e+02
  -1.512551e+02   8.249708e+01
  -1.545378e+02   6.902127e+01
  -2.913776e+02   2.814486e+01
  -4.228272e+02  -1.194183e+02
  -3.166294e+02  -3.216404e+02
   4.841159e+01  -4.487072e+02
   4.123412e+02  -3.921118e+02
   4.996562e+02  -1.603757e+02
   2.861268e+02   1.149847e+02
   2.549447e+00   2.552322e+02
  -1.050611e+02   1.907171e+02
  -4.170324e+00   3.112121e+01
   1.341278e+02  -3.226853e+01
   1.355192e+02   4.927086e+01
  -1.790850e+00   1.424514e+02
  -1.282056e+02   9.319837e+01
  -1.059886e+02  -6.230746e+01
   4.418350e+01  -1.266121e+02
   1.740408e+02   1.637332e+01
   1.474033e+02   2.496767e+02
  -3.812487e+01   3.484215e+02
  -2.642496e+02   2.027768e+02
  -3.693349e+02  -7.718774e+01
  -2.729646e+02  -2.825486e+02
  -4.340993e+01  -2.868954e+02
   1.424130e+02  -1.360439e+02
   1.519829e+02   5.414413e+00
   3.020547e+01   1.583489e+01
  -5.108947e+01  -6.978929e+01
   1.116364e+01  -1.184029e+02
   1.316299e+02  -5.886259e+01
   1.475040e+02   3.713357e+01
   2.527107e+01   5.478078e+01
  -8.857246e+01  -2.368718e+01
  -3.671802e+01  -1.041067e+02
   1.624147e+02  -8.859410e+01
   3.199297e+02   3.348205e+01
   2.648458e+02   1.877509e+02
   1.739751e+01   2.760880e+02
  -2.269439e+02   2.357161e+02
  -2.796599e+02   8.914084e+01
  -1.346110e+02  -5.204617e+01
   3.757620e+01  -7.609195e+01
   6.326268e+01   1.143418e+01
  -6.475787e+01   8.121603e+01
  -1.956014e+02   2.380395e+01
  -1.874114e+02  -1.169894e+02
  -4.592046e+01  -1.948185e+02
   9.899796e+01  -1.328535e+02
   1.276857e+02  -9.126354e+00
   4.096550e+01   4.014853e+01
  -4.783075e+01  -2.655674e+01
  -2.424949e+01  -1.200441e+02
   1.090835e+02  -1.217810e+02
   2.224583e+02  -2.984587e+00
   1.836592e+02   1.502141e+02
   2.153485e+00   2.168057e+02
  -1.663471e+02   1.473990e+02
  -1.798299e+02   4.410697e+00
  -5.471178e+01  -9.700498e+01
   6.459904e+01  -9.328523e+01
   7.134698e+01  -2.328473e+01
  -6.853885e-01   2.242257e+01
  -3.976603e+01   3.810795e+00
   1.114250e+01  -2.968133e+01
   9.730791e+01   5.713578e-01
   1.119415e+02   1.025898e+02
   5.761556e+00   1.877835e+02
  -1.589782e+02   1.563675e+02
  -2.518090e+02  -1.146625e-01
  -1.927407e+02  -1.741854e+02
  -2.798195e+01  -2.381967e+02
   1.100694e+02  -1.600644e+02
   1.323636e+02  -2.822421e+01
   7.455508e+01   4.558575e+01
   3.597814e+01   2.916757e+01
   6.001832e+01  -1.236050e+01
   9.342339e+01  -3.602036e+00
   5.923278e+01   6.240638e+01
  -4.559271e+01   1.118612e+02
  -1.351699e+02   6.886482e+01
  -1.154962e+02  -5.040626e+01
   2.181656e+01  -1.381782e+02
   1.774501e+02  -9.290506e+01
   2.168202e+02   7.414182e+01
   8.187587e+01   2.248139e+02
  -1.382874e+02   2.277170e+02
  -2.807668e+02   7.776838e+01
  -2.497903e+02  -1.003468e+02
  -9.651362e+01  -1.777825e+02
   4.517960e+01  -1.416654e+02
   9.302342e+01  -8.086166e+01
   7.350510e+01  -7.158464e+01
   6.369249e+01  -9.851639e+01
   9.827193e+01  -8.137339e+01
   1.393433e+02   2.360973e+01
   1.203905e+02   1.667252e+02
   1.884377e+01   2.377949e+02
  -1.118147e+02   1.693188e+02
  -1.772086e+02   3.235597e+00
  -1.247739e+02  -1.384721e+02
  -1.346614e+00  -1.618370e+02
   8.299932e+01  -7.847586e+01
   6.497734e+01   1.977428e+01
  -7.019342e+00   5.760600e+01
  -3.067939e+01   3.738221e+01
   2.774732e+01   1.305013e+01
   8.908379e+01   2.128170e+01
   5.195950e+01   4.491961e+01
  -7.938258e+01   4.220169e+01
  -1.853667e+02  -6.004889e+00
  -1.516980e+02  -7.217779e+01
   3.844734e+00  -1.048807e+02
   1.443172e+02  -7.427490e+01
   1.526076e+02  -9.738459e-01
   4.407064e+01   5.541469e+01
  -6.471068e+01   4.546189e+01
  -8.215646e+01  -2.156090e+01
  -1.966634e+01  -8.052517e+01
   4.873608e+01  -7.127582e+01
   7.275771e+01  -2.720872e+00
   6.194459e+01   5.460962e+01
   5.161653e+01   4.702906e+01
   5.967571e+01   2.621973e+00
   6.971123e+01   2.339927e+00
   4.654413e+01   7.829671e+01
  -3.133817e+01   1.622224e+02
  -1.367991e+02   1.518771e+02
  -1.917945e+02   3.105000e+01
  -1.348297e+02  -1.032090e+02
   1.525828e+00  -1.406121e+02
   9.872420e+01  -7.093853e+01
   6.445123e+01   1.249582e+01
  -6.074547e+01   2.051229e+01
  -1.372397e+02  -4.638517e+01
  -7.012526e+01  -1.129129e+02
   8.950952e+01  -1.114775e+02
   1.968509e+02  -3.942102e+01
   1.608953e+02   4.859726e+01
   2.941829e+01   8.958344e+01
  -6.815312e+01   5.970025e+01
  -5.062567e+01  -4.765439e+00
   4.224069e+01  -3.196498e+01
   9.603878e+01   2.330677e+01
   3.975341e+01   1.224455e+02
  -8.388892e+01   1.615483e+02
  -1.642259e+02   7.078371e+01
  -1.301531e+02  -9.739653e+01
  -1.468432e+01  -2.005290e+02
   8.733192e+01  -1.444864e+02
   1.080406e+02   1.487414e+01
   5.469502e+01   1.267419e+02
  -1.642790e+01   1.061549e+02
  -5.406790e+01   1.365081e+01
  -4.537635e+01  -3.417870e+01
  -1.639731e+01  -7.252443e+00
  -7.677142e+00   1.785004e+01
  -3.353650e+01  -2.372415e+01
  -5.942690e+01  -9.517224e+01
  -2.963071e+01  -1.094328e+02
   6.097981e+01  -4.299016e+01
   1.403821e+02   4.070388e+01
   1.250476e+02   7.461995e+01
   1.748975e+01   5.642610e+01
  -8.355555e+01   2.557900e+01
  -8.983393e+01   2.689396e+00
  -1.826709e+01  -1.408155e+01
   3.659684e+01  -2.105827e+01
   2.228004e+01  -1.053033e+01
  -1.396254e+01   5.174245e+00
   2.176203e+00   4.826917e+00
   6.767817e+01  -1.636320e+00
   9.632626e+01   2.428077e+01
   2.293728e+01   8.703063e+01
  -1.128014e+02   1.241306e+02
  -1.990544e+02   6.762210e+01
  -1.618379e+02  -6.399774e+01
  -3.359600e+01  -1.685512e+02
   8.646511e+01  -1.635066e+02
   1.243900e+02  -6.905567e+01
   8.577276e+01   2.065040e+01
   2.891160e+01   4.140959e+01
   3.739911e+00   1.562624e+01
   1.448840e+01   1.040039e+01
   2.979857e+01   5.202099e+01
   1.628817e+01   9.514799e+01
  -3.163990e+01   7.487789e+01
  -8.168585e+01  -1.546717e+01
  -8.349254e+01  -1.058103e+02
  -1.566758e+01  -1.160468e+02
   7.736867e+01  -3.518626e+01
   1.107213e+02   6.673288e+01
   4.283331e+01   1.083830e+02
  -6.650360e+01   6.871913e+01
  -1.093078e+02  -8.142447e+00
  -4.863211e+01  -6.291565e+01
   3.608298e+01  -6.639173e+01
   4.359193e+01  -3.012499e+01
  -2.538811e+01   8.061173e+00
  -7.058895e+01   1.022434e+01
  -1.984696e+01  -2.871683e+01
   8.030461e+01  -6.812679e+01
   1.254058e+02  -5.417691e+01
   7.431006e+01   1.851649e+01
  -1.405307e+01   8.809721e+01
  -6.135916e+01   8.525940e+01
  -4.829891e+01   1.269016e+01
  -8.202533e+00  -5.462705e+01
   2.549240e+01  -5.124135e+01
   3.986177e+01   9.399302e+00
   3.079944e+01   5.581449e+01
  -6.287322e-01   4.235958e+01
  -3.464338e+01  -4.647245e+00
  -4.347932e+01  -2.701394e+01
  -2.101977e+01  -5.136560e+00
   4.830154e+00   2.230429e+01
   6.873234e+00   1.096618e+01
  -5.700252e+00  -3.246125e+01
  -1.052837e+00  -5.585138e+01
   2.671735e+01  -2.445160e+01
   4.303680e+01   3.512410e+01
   1.437682e+01   6.162230e+01
  -4.189074e+01   2.670414e+01
  -6.590692e+01  -3.446368e+01
  -2.051987e+01  -6.323882e+01
   6.028126e+01  -3.861239e+01
   9.832358e+01   1.098554e+01
   5.349888e+01   4.540377e+01
  -2.969827e+01   4.901447e+01
  -6.795152e+01   3.042557e+01
  -3.051886e+01   6.842063e+00
   2.865307e+01  -4.714218e+00
   3.438122e+01   6.010681e+00
  -2.329758e+01   2.641819e+01
  -8.015468e+01   2.194727e+01
