
 $NMID
 id='ANONYMOUS ', fmtdat='(2E16.6)'
 volume=1.0
 tramp=1.0
 $END
  -3.528759e+03   3.407028e+02
  -2.364379e+03  -2.093686e+03
   5.291963e+02  -2.476169e+03
   1.720194e+03  -1.059050e+03
   9.083882e+02   3.149682e+02
  -1.808905e+02   3.654896e+02
  -5.319662e+02  -2.214602e+02
   1.300714e+01  -7.665519e+02
   5.000362e+02  -6.194256e+02
   7.191354e+02  -6.460429e+01
   4.363599e+02   6.569603e+02
  -3.895697e+01   8.163082e+02
  -5.418585e+02   2.362611e+02
  -3.041079e+02  -5.747788e+02
   2.053467e+02  -6.294211e+02
   4.568788e+02  -6.534033e+01
   3.782678e+02   5.416501e+02
  -1.127378e+02   6.515732e+02
  -5.229960e+02   2.421002e+02
  -4.349030e+02  -2.609895e+02
  -8.611211e+01  -4.203433e+02
   1.579042e+02  -3.087976e+02
   1.330167e+02  -3.840424e+01
  -1.538502e+02  -1.991798e+01
  -3.566987e+02  -2.344809e+02
  -3.038319e+01  -4.395069e+02
   4.665830e+02  -2.933078e+02
   6.977504e+02   1.582036e+02
   3.218434e+02   4.637030e+02
  -3.618489e+02   3.105645e+02
  -6.200787e+02  -1.154701e+02
  -2.510665e+02  -4.529819e+02
   2.794473e+02  -4.223811e+02
   5.172396e+02  -1.476496e+02
   3.626246e+02   2.073227e+02
   8.432840e+01   3.612007e+02
  -1.130180e+02   2.083073e+02
  -6.102734e+01  -1.435514e+02
   1.976524e+02  -2.659539e+02
   3.015708e+02   9.748003e+01
   1.230582e+02   5.806895e+02
  -2.811186e+02   5.521858e+02
  -4.419722e+02   1.173641e+01
  -1.659024e+02  -4.225154e+02
   2.198216e+02  -2.101606e+02
   2.661909e+02   3.069744e+02
  -9.831519e+01   4.718213e+02
  -5.136934e+02   8.479493e+01
  -5.614813e+02  -4.109218e+02
  -1.667033e+02  -5.640455e+02
   3.605565e+02  -3.198125e+02
   5.983427e+02   6.312692e+01
   3.774513e+02   3.060006e+02
  -8.962097e+01   2.936827e+02
  -3.625233e+02   9.008979e+01
  -2.395049e+02  -8.587172e+01
   3.898805e+01  -6.352838e+01
   9.438056e+01   7.997653e+01
  -1.144999e+02   1.151409e+02
  -2.761516e+02  -3.969365e+01
  -1.491927e+02  -2.270773e+02
   1.557490e+02  -2.666091e+02
   3.451287e+02  -1.332080e+02
   2.615539e+02   9.345225e+01
  -1.658315e+01   3.111039e+02
  -2.928657e+02   3.821429e+02
  -3.935068e+02   1.889853e+02
  -2.747539e+02  -1.772895e+02
  -5.912106e+01  -4.223192e+02
   6.749765e+01  -3.659524e+02
   5.513572e+01  -1.584260e+02
   3.300449e+01  -6.912141e+01
   1.205045e+02  -1.155223e+02
   2.543500e+02  -8.776562e+01
   2.681977e+02   1.041987e+02
   1.135754e+02   2.782123e+02
  -9.867511e+01   2.249552e+02
  -2.110274e+02  -2.656437e+01
  -1.569030e+02  -2.492936e+02
   3.760701e+01  -2.670189e+02
   2.608738e+02  -7.948580e+01
   3.328687e+02   1.745149e+02
   1.774803e+02   3.233427e+02
  -6.725394e+01   2.884980e+02
  -1.876616e+02   1.554035e+02
  -1.589183e+02   6.636734e+01
  -1.497330e+02   6.744273e+01
  -2.894470e+02   4.802883e+01
  -4.343941e+02  -8.965763e+01
  -3.390592e+02  -3.150969e+02
   1.546289e+01  -4.610200e+02
   3.878527e+02  -4.189007e+02
   5.013533e+02  -1.921824e+02
   3.128726e+02   1.028073e+02
   2.678221e+01   2.770394e+02
  -1.184110e+02   2.211352e+02
  -3.766157e+01   3.174344e+01
   1.230652e+02  -6.808904e+01
   1.600070e+02   2.914411e+01
   1.507453e+01   1.657698e+02
  -1.439669e+02   1.298715e+02
  -1.352271e+02  -6.244317e+01
   3.428190e+01  -1.646094e+02
   1.830910e+02  -1.235472e+01
   1.584548e+02   2.498784e+02
  -2.830498e+01   3.633222e+02
  -2.465108e+02   2.161255e+02
  -3.594006e+02  -6.474238e+01
  -2.889205e+02  -2.707643e+02
  -7.466640e+01  -2.871886e+02
   1.289926e+02  -1.516676e+02
   1.636954e+02  -3.849585e+00
   3.977026e+01   2.619193e+01
  -6.262077e+01  -5.835704e+01
  -6.078241e+00  -1.278556e+02
   1.322577e+02  -8.189178e+01
   1.642899e+02   2.696881e+01
   3.892247e+01   6.551162e+01
  -8.970621e+01  -6.151515e+00
  -4.966821e+01  -9.582574e+01
   1.461909e+02  -9.402956e+01
   3.122869e+02   1.658520e+01
   2.757483e+02   1.692565e+02
   4.152982e+01   2.712272e+02
  -2.105647e+02   2.503136e+02
  -2.859794e+02   1.079805e+02
  -1.511496e+02  -5.029816e+01
   3.445168e+01  -8.907004e+01
   7.843877e+01   6.372621e+00
  -5.039601e+01   9.625188e+01
  -1.996612e+02   4.522842e+01
  -2.071419e+02  -1.099950e+02
  -6.302446e+01  -2.057500e+02
   9.601777e+01  -1.494879e+02
   1.385086e+02  -1.846484e+01
   5.540485e+01   4.335219e+01
  -4.312796e+01  -1.370197e+01
  -3.448240e+01  -1.093008e+02
   9.390203e+01  -1.248546e+02
   2.191308e+02  -1.830948e+01
   1.947586e+02   1.388096e+02
   1.475878e+01   2.210406e+02
  -1.655031e+02   1.601267e+02
  -1.880357e+02   9.225982e+00
  -5.968625e+01  -1.041710e+02
   6.751741e+01  -1.023328e+02
   7.886849e+01  -2.506710e+01
   6.236725e+00   2.844188e+01
  -3.746987e+01   1.255403e+01
   4.994370e+00  -2.465555e+01
   8.730141e+01  -3.412457e+00
   1.100695e+02   9.006205e+01
   1.780060e+01   1.801764e+02
  -1.425228e+02   1.622180e+02
  -2.495655e+02   1.595497e+01
  -2.037682e+02  -1.629279e+02
  -3.761745e+01  -2.395186e+02
   1.088606e+02  -1.656519e+02
   1.348193e+02  -2.823295e+01
   7.213259e+01   4.828670e+01
   3.130258e+01   2.918503e+01
   5.683182e+01  -1.741895e+01
   9.109516e+01  -8.583795e+00
   5.725812e+01   5.668112e+01
  -3.954309e+01   1.074813e+02
  -1.209728e+02   7.114954e+01
  -1.065249e+02  -4.218582e+01
   1.406923e+01  -1.301422e+02
   1.637106e+02  -9.511521e+01
   2.134409e+02   6.428962e+01
   9.533363e+01   2.210732e+02
  -1.259451e+02   2.342258e+02
  -2.820970e+02   8.878257e+01
  -2.618531e+02  -9.405747e+01
  -1.063193e+02  -1.799708e+02
   4.266952e+01  -1.470713e+02
   9.496488e+01  -8.420092e+01
   7.343593e+01  -7.264962e+01
   5.910996e+01  -9.886681e+01
   9.125735e+01  -8.404219e+01
   1.358393e+02   1.675524e+01
   1.271439e+02   1.576809e+02
   3.301095e+01   2.340249e+02
  -1.015034e+02   1.753684e+02
  -1.790540e+02   1.541514e+01
  -1.358531e+02  -1.300671e+02
  -1.278688e+01  -1.638371e+02
   7.717730e+01  -8.794113e+01
   6.578015e+01   1.051648e+01
  -9.732562e-01   5.349099e+01
  -2.306449e+01   3.721449e+01
   3.176524e+01   1.328894e+01
   8.843284e+01   1.976440e+01
   5.231075e+01   4.335550e+01
  -7.342000e+01   4.447964e+01
  -1.786217e+02   2.218821e+00
  -1.530468e+02  -6.226472e+01
  -6.463397e+00  -1.007734e+02
   1.353617e+02  -7.880911e+01
   1.522404e+02  -9.467279e+00
   4.916144e+01   4.950983e+01
  -6.150002e+01   4.496648e+01
  -8.181118e+01  -1.787983e+01
  -1.942014e+01  -7.512998e+01
   4.891432e+01  -6.729076e+01
   7.069724e+01  -2.489989e+00
   5.886994e+01   5.152843e+01
   5.037685e+01   4.388957e+01
   5.869265e+01   7.621664e-01
   6.697903e+01   1.957675e-01
   4.530001e+01   7.455880e+01
  -2.613751e+01   1.590165e+02
  -1.258815e+02   1.531368e+02
  -1.842908e+02   3.755994e+01
  -1.369478e+02  -9.598498e+01
  -5.630835e+00  -1.363182e+02
   9.463191e+01  -7.058519e+01
   6.448355e+01   1.188541e+01
  -6.171365e+01   2.186952e+01
  -1.419612e+02  -4.285095e+01
  -7.623484e+01  -1.103349e+02
   8.582117e+01  -1.150122e+02
   1.972221e+02  -4.926259e+01
   1.644956e+02   3.970398e+01
   3.375049e+01   8.868564e+01
  -6.638652e+01   6.600935e+01
  -5.244408e+01   5.131314e-01
   3.929999e+01  -3.295706e+01
   9.614181e+01   1.813104e+01
   4.373613e+01   1.188815e+02
  -8.015516e+01   1.619747e+02
  -1.637431e+02   7.373384e+01
  -1.329786e+02  -9.458916e+01
  -1.836201e+01  -2.002442e+02
   8.489564e+01  -1.476218e+02
   1.089350e+02   1.044764e+01
   5.994957e+01   1.253660e+02
  -9.746346e+00   1.090473e+02
  -5.167667e+01   1.696787e+01
  -4.882492e+01  -3.383096e+01
  -2.001980e+01  -7.893352e+00
  -6.076804e+00   2.019922e+01
  -2.974880e+01  -1.865005e+01
  -6.063280e+01  -9.211393e+01
  -3.728312e+01  -1.101387e+02
   5.505990e+01  -4.544935e+01
   1.421868e+02   3.780177e+01
   1.299395e+02   7.109467e+01
   1.856790e+01   5.386427e+01
  -8.643335e+01   2.634303e+01
  -9.041534e+01   6.857177e+00
  -1.533299e+01  -1.142674e+01
   3.816290e+01  -2.307475e+01
   1.952262e+01  -1.414366e+01
  -1.710683e+01   4.714514e+00
   3.523079e+00   6.806135e+00
   7.109892e+01  -1.801310e+00
   9.697155e+01   2.104986e+01
   2.129335e+01   8.522496e+01
  -1.118022e+02   1.269049e+02
  -1.942857e+02   7.304677e+01
  -1.596784e+02  -6.035768e+01
  -3.841890e+01  -1.680289e+02
   7.861546e+01  -1.641908e+02
   1.206208e+02  -7.019175e+01
   8.695904e+01   1.888757e+01
   2.967802e+01   3.903445e+01
   1.155875e+00   1.303213e+01
   1.247982e+01   7.662047e+00
   3.285558e+01   4.939823e+01
   2.246887e+01   9.383665e+01
  -2.815325e+01   7.511433e+01
  -8.249880e+01  -1.437276e+01
  -8.512091e+01  -1.050365e+02
  -1.512048e+01  -1.147665e+02
   7.916222e+01  -3.342991e+01
   1.112615e+02   6.716078e+01
   4.260956e+01   1.060871e+02
  -6.530459e+01   6.647633e+01
  -1.068327e+02  -5.678469e+00
  -4.741476e+01  -5.633106e+01
   3.356862e+01  -6.215634e+01
   3.837583e+01  -3.171407e+01
  -2.954260e+01   4.672699e+00
  -7.120751e+01   9.984349e+00
  -1.840544e+01  -2.721186e+01
   8.076412e+01  -6.992082e+01
   1.231734e+02  -5.979853e+01
   7.237742e+01   1.446593e+01
  -1.228853e+01   8.839614e+01
  -5.636715e+01   8.712388e+01
  -4.408920e+01   1.240750e+01
  -7.889199e+00  -5.522893e+01
   2.307593e+01  -4.945119e+01
   3.817969e+01   1.144129e+01
   3.135071e+01   5.452046e+01
   1.212410e+00   3.845168e+01
  -3.332805e+01  -5.628865e+00
  -4.259166e+01  -2.342916e+01
  -2.132970e+01  -2.254444e+00
   3.723951e+00   1.999287e+01
   7.089865e+00   5.890072e+00
  -2.163044e+00  -3.386582e+01
   4.237124e+00  -5.162505e+01
   2.883110e+01  -1.824014e+01
   3.986816e+01   3.871613e+01
   9.343440e+00   6.181044e+01
  -4.403707e+01   2.588136e+01
  -6.544124e+01  -3.474333e+01
  -2.085608e+01  -6.340268e+01
   5.780899e+01  -3.935636e+01
   9.643728e+01   9.460921e+00
   5.385537e+01   4.337939e+01
  -2.830565e+01   4.704037e+01
  -6.676154e+01   2.917099e+01
  -2.825817e+01   6.564157e+00
   3.241010e+01  -3.578853e+00
   3.663108e+01   8.696726e+00
  -2.544232e+01   3.013768e+01
  -8.476862e+01   2.466853e+01
