
 $NMID
 id='ANONYMOUS ', fmtdat='(2E16.6)'
 volume=1.0
 tramp=1.0
 $END
   3.796557e+03  -1.796404e+02
   2.612125e+03   2.471529e+03
  -7.772866e+02   2.511389e+03
  -1.760330e+03   1.095081e+03
  -9.381193e+02  -5.025608e+02
   5.521054e+02  -5.902861e+02
   8.218087e+02   3.755796e+02
   1.088268e+02   9.128411e+02
  -6.367133e+02   7.081516e+02
  -7.773559e+02  -4.704381e+01
  -4.286037e+02  -7.866819e+02
   2.216384e+02  -9.005246e+02
   5.651453e+02  -2.151694e+02
   3.873562e+02   6.432505e+02
  -2.321314e+02   7.032446e+02
  -6.315933e+02   4.872570e+01
  -3.372580e+02  -6.397715e+02
   2.655334e+02  -6.681062e+02
   5.848204e+02  -1.616776e+02
   4.057483e+02   3.139436e+02
   4.851839e+01   4.512961e+02
  -2.313369e+02   2.714975e+02
  -1.938053e+02  -1.374436e+00
   1.576406e+02  -4.799327e+01
   3.800181e+02   1.664710e+02
   1.160195e+02   4.356682e+02
  -4.489505e+02   3.681323e+02
  -8.064854e+02  -1.508797e+02
  -3.911244e+02  -5.339201e+02
   4.053704e+02  -4.205098e+02
   7.078170e+02   9.987095e+01
   2.955116e+02   4.938717e+02
  -3.121068e+02   4.814251e+02
  -5.664115e+02   1.600067e+02
  -3.913633e+02  -2.472852e+02
  -7.499804e+01  -4.565669e+02
   1.712912e+02  -2.474250e+02
   1.499503e+02   1.908737e+02
  -1.833492e+02   3.704366e+02
  -4.011594e+02  -4.442736e+01
  -1.861267e+02  -6.548023e+02
   3.188911e+02  -6.609706e+02
   5.575876e+02  -1.714371e+01
   2.322359e+02   5.117155e+02
  -2.715990e+02   2.947854e+02
  -3.481838e+02  -3.224638e+02
   8.325737e+01  -5.372136e+02
   5.555776e+02  -1.221070e+02
   5.955605e+02   4.323056e+02
   1.708501e+02   6.008507e+02
  -3.837287e+02   3.303743e+02
  -6.292863e+02  -9.190781e+01
  -3.737797e+02  -3.697857e+02
   1.379884e+02  -3.314246e+02
   4.222236e+02  -5.554043e+01
   2.508031e+02   1.590242e+02
  -7.868482e+01   8.944100e+01
  -1.218595e+02  -1.213525e+02
   1.381636e+02  -1.506023e+02
   3.055552e+02   6.802471e+01
   1.290752e+02   2.738078e+02
  -1.991583e+02   2.584090e+02
  -3.464203e+02   8.723903e+01
  -2.205927e+02  -1.001219e+02
   3.644282e+01  -2.674441e+02
   2.669582e+02  -3.507839e+02
   3.683003e+02  -2.023314e+02
   2.794912e+02   1.632974e+02
   5.981487e+01   4.418099e+02
  -1.032332e+02   3.830130e+02
  -9.337081e+01   1.324646e+02
  -2.504846e+01   2.371634e+01
  -7.711246e+01   1.036303e+02
  -2.283880e+02   1.148119e+02
  -2.841094e+02  -7.861534e+01
  -1.430863e+02  -2.827861e+02
   8.170903e+01  -2.492405e+02
   2.203162e+02   5.589161e+00
   1.792862e+02   2.476714e+02
  -2.486767e+01   2.872436e+02
  -2.661858e+02   1.005160e+02
  -3.524610e+02  -1.791674e+02
  -1.852731e+02  -3.537998e+02
   9.001229e+01  -3.086336e+02
   2.217965e+02  -1.316641e+02
   1.584760e+02  -1.838664e+01
   1.151277e+02  -4.121694e+01
   2.519808e+02  -6.122391e+01
   4.150570e+02   6.756170e+01
   3.414951e+02   2.994725e+02
  -3.149509e+00   4.541941e+02
  -3.821517e+02   4.204555e+02
  -5.078755e+02   1.989221e+02
  -3.362119e+02  -1.015671e+02
  -4.221128e+01  -2.933203e+02
   1.290362e+02  -2.457746e+02
   6.530149e+01  -3.412398e+01
  -1.166323e+02   8.729366e+01
  -1.823933e+02  -2.314066e+01
  -3.517840e+01  -1.917299e+02
   1.613019e+02  -1.585861e+02
   1.700283e+02   6.298085e+01
  -1.708072e+01   1.892632e+02
  -1.866837e+02   3.014679e+01
  -1.640343e+02  -2.513471e+02
   2.846079e+01  -3.603480e+02
   2.394321e+02  -2.042107e+02
   3.451423e+02   6.873031e+01
   2.863832e+02   2.622843e+02
   8.482520e+01   2.828501e+02
  -1.265502e+02   1.591229e+02
  -1.794123e+02   1.037013e+01
  -5.456477e+01  -3.486604e+01
   6.781668e+01   4.474721e+01
   2.186532e+01   1.279013e+02
  -1.294906e+02   9.474142e+01
  -1.779745e+02  -1.833937e+01
  -5.240403e+01  -7.179857e+01
   8.798493e+01  -1.002347e+01
   5.710706e+01   8.005593e+01
  -1.345399e+02   8.787151e+01
  -3.000663e+02  -9.109400e+00
  -2.707731e+02  -1.538452e+02
  -4.805002e+01  -2.633378e+02
   2.037826e+02  -2.573979e+02
   2.926718e+02  -1.180143e+02
   1.656627e+02   5.435567e+01
  -3.077796e+01   1.059726e+02
  -9.116547e+01   5.758498e+00
   3.702834e+01  -9.906350e+01
   2.000598e+02  -5.399319e+01
   2.159700e+02   1.088920e+02
   6.711838e+01   2.142399e+02
  -1.016405e+02   1.596870e+02
  -1.505483e+02   2.256136e+01
  -6.924428e+01  -4.863524e+01
   3.367075e+01  -1.779687e-01
   3.665461e+01   9.423955e+01
  -8.167810e+01   1.184806e+02
  -2.076891e+02   2.161559e+01
  -1.925027e+02  -1.356129e+02
  -1.541158e+01  -2.244901e+02
   1.704075e+02  -1.638576e+02
   1.957733e+02  -4.310529e+00
   6.351633e+01   1.160591e+02
  -7.071610e+01   1.114812e+02
  -8.567656e+01   2.774388e+01
  -1.397616e+01  -3.129380e+01
   3.196901e+01  -1.948734e+01
  -4.381613e+00   1.529054e+01
  -7.842721e+01  -3.907249e-01
  -1.015902e+02  -8.307599e+01
  -2.028970e+01  -1.683216e+02
   1.339009e+02  -1.605813e+02
   2.463121e+02  -2.570878e+01
   2.068697e+02   1.552167e+02
   4.032279e+01   2.421461e+02
  -1.121872e+02   1.717342e+02
  -1.376124e+02   2.807236e+01
  -7.053351e+01  -5.492009e+01
  -2.797386e+01  -3.439859e+01
  -5.391105e+01   1.617522e+01
  -8.502777e+01   1.002205e+01
  -5.022850e+01  -5.077305e+01
   3.969558e+01  -9.648621e+01
   1.088138e+02  -6.438354e+01
   9.303753e+01   3.765162e+01
  -1.296385e+01   1.195089e+02
  -1.500552e+02   8.997363e+01
  -2.056335e+02  -5.719530e+01
  -1.010560e+02  -2.119211e+02
   1.143899e+02  -2.341694e+02
   2.775149e+02  -9.470955e+01
   2.635642e+02   9.035940e+01
   1.088630e+02   1.813314e+02
  -4.347279e+01   1.501206e+02
  -9.719206e+01   8.480729e+01
  -7.727696e+01   6.887114e+01
  -6.296470e+01   9.234363e+01
  -9.203356e+01   7.790978e+01
  -1.330103e+02  -1.964783e+01
  -1.227533e+02  -1.562427e+02
  -3.049765e+01  -2.308520e+02
   1.021910e+02  -1.747903e+02
   1.796255e+02  -1.841297e+01
   1.370396e+02   1.266939e+02
   1.510584e+01   1.635022e+02
  -7.407887e+01   9.226383e+01
  -6.409812e+01  -3.101851e+00
  -2.403559e+00  -4.720043e+01
   1.601629e+01  -3.665042e+01
  -3.561810e+01  -1.771707e+01
  -8.508006e+01  -2.333330e+01
  -4.891933e+01  -4.224197e+01
   6.973420e+01  -4.116265e+01
   1.704842e+02  -2.387210e+00
   1.505090e+02   5.752459e+01
   1.173665e+01   9.578296e+01
  -1.291579e+02   7.743607e+01
  -1.508862e+02   1.183801e+01
  -5.002313e+01  -4.499888e+01
   6.130822e+01  -4.106002e+01
   7.950029e+01   1.782555e+01
   1.307106e+01   7.022102e+01
  -5.301682e+01   6.167384e+01
  -6.696686e+01   1.057542e+00
  -5.079839e+01  -4.915951e+01
  -4.632389e+01  -4.274401e+01
  -6.038703e+01  -3.000280e+00
  -6.686880e+01  -1.534628e+00
  -3.986018e+01  -7.006989e+01
   2.982858e+01  -1.503865e+02
   1.204317e+02  -1.461494e+02
   1.726417e+02  -3.545766e+01
   1.289393e+02   9.330845e+01
   5.971524e+00   1.307120e+02
  -8.939931e+01   6.517732e+01
  -6.206908e+01  -1.396437e+01
   5.923099e+01  -2.066170e+01
   1.390633e+02   4.407173e+01
   7.591594e+01   1.093106e+02
  -8.374957e+01   1.134999e+02
  -1.955557e+02   5.000678e+01
  -1.655860e+02  -3.747718e+01
  -3.613393e+01  -8.961809e+01
   6.479164e+01  -7.096042e+01
   5.216054e+01  -6.223130e+00
  -3.809971e+01   2.898288e+01
  -9.249987e+01  -2.020352e+01
  -3.609636e+01  -1.181331e+02
   8.861875e+01  -1.567164e+02
   1.668745e+02  -6.596941e+01
   1.285197e+02   9.971211e+01
   1.185833e+01   1.996316e+02
  -8.702008e+01   1.451219e+02
  -1.075512e+02  -9.817478e+00
  -6.057287e+01  -1.225076e+02
   5.956328e+00  -1.079257e+02
   4.980346e+01  -1.821155e+01
   5.165826e+01   3.291759e+01
   2.346926e+01   7.855088e+00
   4.128336e+00  -2.138277e+01
   2.419736e+01   1.667431e+01
   5.808887e+01   9.164566e+01
   3.985929e+01   1.117539e+02
  -5.157952e+01   4.564711e+01
  -1.412467e+02  -4.040357e+01
  -1.302797e+02  -7.279848e+01
  -1.704025e+01  -5.211072e+01
   8.825573e+01  -2.360970e+01
   8.930353e+01  -7.110248e+00
   1.207705e+01   9.340617e+00
  -3.892390e+01   2.321733e+01
  -1.640795e+01   1.728097e+01
   1.965690e+01  -2.683111e+00
  -5.092326e+00  -8.731630e+00
  -7.347099e+01  -2.412718e+00
  -9.408505e+01  -2.355053e+01
  -1.363558e+01  -8.335355e+01
   1.162565e+02  -1.201158e+02
   1.904803e+02  -6.413342e+01
   1.506795e+02   6.615595e+01
   3.239675e+01   1.661796e+02
  -7.870625e+01   1.567454e+02
  -1.181249e+02   6.354975e+01
  -8.478895e+01  -1.973976e+01
  -2.777646e+01  -3.561108e+01
   6.579866e-01  -9.545898e+00
  -1.212589e+01  -5.626845e+00
  -3.422613e+01  -4.818314e+01
  -2.278350e+01  -9.249070e+01
   2.989180e+01  -7.326199e+01
   8.298592e+01   1.740004e+01
   7.991492e+01   1.079363e+02
   6.745684e+00   1.139193e+02
  -8.291166e+01   2.736884e+01
  -1.064879e+02  -7.283143e+01
  -3.498851e+01  -1.045406e+02
   6.725429e+01  -5.944375e+01
   1.011819e+02   9.808882e+00
   4.075251e+01   5.284028e+01
  -3.481856e+01   5.548005e+01
  -3.443224e+01   2.914950e+01
   3.337826e+01  -1.867440e+00
   7.144044e+01  -7.604037e+00
   1.641068e+01   2.700018e+01
  -8.144010e+01   6.904053e+01
  -1.203909e+02   5.993636e+01
  -6.841184e+01  -1.393531e+01
   1.397936e+01  -8.716767e+01
   5.391563e+01  -8.343048e+01
   3.928692e+01  -7.379174e+00
   3.532054e+00   5.673575e+01
  -2.528661e+01   4.488407e+01
  -3.768655e+01  -1.752615e+01
  -2.857742e+01  -5.594769e+01
   1.393520e+00  -3.558386e+01
   3.344267e+01   7.586233e+00
   4.057830e+01   2.171918e+01
   2.054658e+01   6.450593e-01
  -1.536967e+00  -1.712766e+01
  -5.936637e+00  -9.918947e-01
  -2.378841e+00   3.528539e+01
  -1.171448e+01   4.713276e+01
  -3.137066e+01   1.154932e+01
  -3.426596e+01  -4.320931e+01
  -1.932943e+00  -6.212530e+01
   4.548759e+01  -2.310801e+01
   6.111328e+01   3.775426e+01
   1.771408e+01   6.388504e+01
  -5.580527e+01   3.689869e+01
  -9.208144e+01  -1.282381e+01
  -5.130510e+01  -4.382644e+01
   2.848065e+01  -4.296578e+01
   6.551187e+01  -2.356624e+01
   2.541539e+01  -4.808337e+00
  -3.629078e+01  -8.597106e-02
  -3.817911e+01  -1.406144e+01
   2.863865e+01  -3.216152e+01
   8.955743e+01  -2.228461e+01
