
 $NMID
 id='ANONYMOUS ', fmtdat='(2E16.6)'
 volume=1.0
 tramp=1.0
 $END
   3.052028e+03   9.084232e+01
   2.223570e+03   1.945416e+03
  -3.354973e+02   2.235735e+03
  -1.502457e+03   1.098752e+03
  -7.956629e+02  -3.524965e+02
   2.643648e+02  -2.916442e+02
   5.654115e+02   2.314008e+02
   9.362994e+01   7.493073e+02
  -5.737524e+02   5.055457e+02
  -6.643778e+02  -9.627678e+00
  -4.429503e+02  -5.055011e+02
   1.425823e+02  -6.811180e+02
   4.347416e+02  -6.242575e+01
   2.649913e+02   4.848065e+02
  -1.824333e+02   5.993728e+02
  -4.563642e+02   1.008351e+02
  -2.524133e+02  -4.947156e+02
   1.354669e+02  -5.132063e+02
   3.603089e+02  -1.373566e+02
   3.213307e+02   1.728130e+02
   2.985782e+01   3.209226e+02
  -1.570766e+02   1.949433e+02
  -1.122390e+02   3.103289e+00
   1.490599e+02  -6.894642e+00
   3.369558e+02   1.811327e+02
   7.178434e+01   3.820852e+02
  -4.086595e+02   2.492906e+02
  -6.315096e+02  -1.568872e+02
  -2.636879e+02  -4.467394e+02
   3.176857e+02  -3.067862e+02
   5.313190e+02   9.981250e+01
   2.108478e+02   3.727366e+02
  -2.569022e+02   3.707459e+02
  -4.617278e+02   1.207586e+02
  -3.277249e+02  -1.695749e+02
  -4.670605e+01  -3.143705e+02
   1.213887e+02  -1.853823e+02
   7.476978e+01   1.406971e+02
  -1.615666e+02   2.520475e+02
  -2.789559e+02  -6.215035e+01
  -1.222363e+02  -5.098645e+02
   2.363520e+02  -4.878880e+02
   3.937721e+02   6.108366e-02
   1.549953e+02   3.774552e+02
  -1.936742e+02   2.055943e+02
  -2.565250e+02  -2.652361e+02
   6.797181e+01  -4.106290e+02
   4.361899e+02  -9.093956e+01
   4.722234e+02   3.210478e+02
   1.394048e+02   4.594096e+02
  -3.017017e+02   2.712618e+02
  -5.028531e+02  -5.329277e+01
  -3.016089e+02  -2.750749e+02
   9.206577e+01  -2.645532e+02
   3.156745e+02  -6.824224e+01
   1.951958e+02   9.481247e+01
  -4.526959e+01   5.495771e+01
  -7.810145e+01  -8.770143e+01
   1.086904e+02  -1.050279e+02
   2.318894e+02   5.080018e+01
   1.031833e+02   2.015471e+02
  -1.470212e+02   2.001173e+02
  -2.741572e+02   7.518038e+01
  -1.882738e+02  -8.569046e+01
   2.106860e+01  -2.347431e+02
   2.217173e+02  -2.929325e+02
   3.066338e+02  -1.561899e+02
   2.271212e+02   1.319479e+02
   4.962435e+01   3.353326e+02
  -7.092447e+01   2.869613e+02
  -5.887554e+01   1.062913e+02
  -1.501697e+01   3.042833e+01
  -6.628678e+01   8.435860e+01
  -1.828761e+02   8.471757e+01
  -2.171345e+02  -6.304467e+01
  -1.008770e+02  -2.162335e+02
   7.353285e+01  -1.871342e+02
   1.750886e+02   1.204498e+01
   1.345142e+02   2.058598e+02
  -3.213155e+01   2.311536e+02
  -2.237966e+02   7.254829e+01
  -2.871084e+02  -1.467001e+02
  -1.490818e+02  -2.745455e+02
   7.067227e+01  -2.436918e+02
   1.735270e+02  -1.137034e+02
   1.287667e+02  -3.256807e+01
   9.892169e+01  -4.010845e+01
   2.054579e+02  -4.018422e+01
   3.330528e+02   6.144314e+01
   2.710818e+02   2.408479e+02
  -9.925344e+00   3.617191e+02
  -3.096641e+02   3.336437e+02
  -4.057666e+02   1.528929e+02
  -2.592259e+02  -8.214916e+01
  -2.439385e+01  -2.278824e+02
   9.844593e+01  -1.844936e+02
   3.848152e+01  -2.141160e+01
  -1.033078e+02   6.598310e+01
  -1.425599e+02  -2.054641e+01
  -2.178606e+01  -1.483089e+02
   1.235535e+02  -1.186488e+02
   1.262634e+02   4.853913e+01
  -1.808014e+01   1.393883e+02
  -1.481165e+02   1.487773e+01
  -1.322640e+02  -1.976431e+02
   1.942822e+01  -2.837453e+02
   1.930257e+02  -1.656631e+02
   2.829470e+02   4.902411e+01
   2.320006e+02   2.072018e+02
   6.246062e+01   2.281606e+02
  -1.045889e+02   1.282369e+02
  -1.386927e+02   7.900837e+00
  -3.774062e+01  -2.509244e+01
   5.280600e+01   3.996156e+01
   1.084003e+01   1.025978e+02
  -1.051554e+02   7.185692e+01
  -1.364390e+02  -1.812749e+01
  -3.710188e+01  -5.581495e+01
   6.850553e+01  -1.952655e+00
   4.068663e+01   7.087081e+01
  -1.116572e+02   7.419565e+01
  -2.432788e+02  -8.703611e+00
  -2.188735e+02  -1.294419e+02
  -3.757808e+01  -2.170742e+02
   1.663481e+02  -2.070150e+02
   2.341670e+02  -9.141285e+01
   1.282424e+02   4.437620e+01
  -2.738511e+01   8.153421e+01
  -6.887005e+01   1.538885e+00
   3.629119e+01  -7.833292e+01
   1.622330e+02  -4.075580e+01
   1.696785e+02   8.608358e+01
   5.119760e+01   1.670549e+02
  -7.938800e+01   1.248761e+02
  -1.152412e+02   1.950506e+01
  -4.979086e+01  -3.505360e+01
   3.092539e+01   3.921710e+00
   3.071271e+01   7.941283e+01
  -6.733118e+01   9.865421e+01
  -1.701142e+02   2.025310e+01
  -1.576286e+02  -1.072130e+02
  -1.504837e+01  -1.795602e+02
   1.335841e+02  -1.315026e+02
   1.540211e+02  -4.999823e+00
   4.969915e+01   8.981697e+01
  -5.559194e+01   8.631699e+01
  -6.579016e+01   2.002987e+01
  -7.899318e+00  -2.657221e+01
   2.670840e+01  -1.475629e+01
  -4.758551e+00   1.523814e+01
  -6.478647e+01   2.243763e+00
  -8.166725e+01  -6.813524e+01
  -1.355257e+01  -1.399690e+02
   1.100135e+02  -1.315455e+02
   1.972899e+02  -1.880318e+01
   1.664822e+02   1.272866e+02
   3.452913e+01   1.940813e+02
  -8.796365e+01   1.380636e+02
  -1.115795e+02   2.460654e+01
  -6.059060e+01  -4.261032e+01
  -2.434184e+01  -2.855177e+01
  -4.246535e+01   1.095877e+01
  -6.673899e+01   8.209021e+00
  -3.963733e+01  -4.141985e+01
   3.192476e+01  -8.015367e+01
   9.133180e+01  -5.409829e+01
   8.032673e+01   3.087497e+01
  -8.756952e+00   9.938928e+01
  -1.241542e+02   7.570430e+01
  -1.671896e+02  -4.640558e+01
  -7.812603e+01  -1.720130e+02
   9.633390e+01  -1.872076e+02
   2.241513e+02  -7.400794e+01
   2.098253e+02   7.543017e+01
   8.697284e+01   1.470478e+02
  -3.397939e+01   1.205869e+02
  -7.878029e+01   6.922918e+01
  -6.540856e+01   5.725174e+01
  -5.361144e+01   7.615133e+01
  -7.543382e+01   6.326899e+01
  -1.066253e+02  -1.769450e+01
  -9.838657e+01  -1.289675e+02
  -2.480156e+01  -1.886926e+02
   8.144425e+01  -1.406191e+02
   1.435883e+02  -1.262041e+01
   1.100892e+02   1.034452e+02
   1.260282e+01   1.305488e+02
  -5.965034e+01   7.164484e+01
  -5.234133e+01  -5.353222e+00
  -1.333943e+00  -4.002736e+01
   1.539726e+01  -2.999257e+01
  -2.679261e+01  -1.273320e+01
  -6.910626e+01  -1.617841e+01
  -4.055151e+01  -3.301130e+01
   5.756546e+01  -3.448651e+01
   1.400828e+02  -2.737606e+00
   1.215025e+02   4.819881e+01
   6.423812e+00   8.042095e+01
  -1.073504e+02   6.375106e+01
  -1.227094e+02   8.131520e+00
  -3.983042e+01  -3.870706e+01
   4.976580e+01  -3.432121e+01
   6.472534e+01   1.455762e+01
   1.222361e+01   5.802014e+01
  -4.184134e+01   5.154347e+01
  -5.578496e+01   1.964824e+00
  -4.400359e+01  -4.006926e+01
  -3.940255e+01  -3.569016e+01
  -4.904465e+01  -3.438045e+00
  -5.408584e+01  -2.207970e+00
  -3.227767e+01  -5.821811e+01
   2.525156e+01  -1.238148e+02
   1.008979e+02  -1.208185e+02
   1.432311e+02  -2.961949e+01
   1.058792e+02   7.728704e+01
   4.746258e+00   1.098200e+02
  -7.317627e+01   5.640584e+01
  -5.060324e+01  -1.064607e+01
   4.822180e+01  -1.834734e+01
   1.124301e+02   3.404129e+01
   6.144570e+01   8.896316e+01
  -6.718994e+01   9.353356e+01
  -1.572312e+02   4.187036e+01
  -1.328283e+02  -2.969609e+01
  -2.906470e+01  -7.148976e+01
   5.103055e+01  -5.547336e+01
   4.030798e+01  -3.778742e+00
  -3.190759e+01   2.343948e+01
  -7.435668e+01  -1.708259e+01
  -2.987254e+01  -9.610448e+01
   6.903425e+01  -1.272071e+02
   1.326351e+02  -5.447175e+01
   1.049634e+02   7.894487e+01
   1.264106e+01   1.606289e+02
  -6.871418e+01   1.177760e+02
  -8.797217e+01  -7.115849e+00
  -4.980790e+01  -9.891838e+01
   6.262503e+00  -8.798427e+01
   4.182852e+01  -1.528151e+01
   4.101627e+01   2.678715e+01
   1.733422e+01   7.513284e+00
   3.984186e+00  -1.637737e+01
   2.224139e+01   1.352569e+01
   4.814638e+01   7.377946e+01
   3.056424e+01   9.066395e+01
  -4.361434e+01   3.842586e+01
  -1.143084e+02  -3.150607e+01
  -1.049871e+02  -5.948862e+01
  -1.516401e+01  -4.369091e+01
   6.966465e+01  -1.988811e+01
   7.271611e+01  -4.921259e+00
   1.228802e+01   8.220316e+00
  -3.056918e+01   1.801592e+01
  -1.534115e+01   1.253599e+01
   1.396776e+01  -2.648085e+00
  -3.047648e+00  -6.469687e+00
  -5.719751e+01  -9.536225e-01
  -7.615598e+01  -1.839987e+01
  -1.345813e+01  -6.736395e+01
   9.259017e+01  -9.799835e+01
   1.555470e+02  -5.351538e+01
   1.244459e+02   5.210224e+01
   2.667588e+01   1.348981e+02
  -6.524808e+01   1.288739e+02
  -9.703465e+01   5.304084e+01
  -6.845943e+01  -1.665805e+01
  -2.188339e+01  -3.079602e+01
   6.843226e-01  -9.129375e+00
  -9.972156e+00  -4.663461e+00
  -2.738167e+01  -3.850797e+01
  -1.839793e+01  -7.467767e+01
   2.324962e+01  -6.008973e+01
   6.605617e+01   1.230566e+01
   6.551106e+01   8.526697e+01
   8.372701e+00   9.152964e+01
  -6.429735e+01   2.393287e+01
  -8.627140e+01  -5.683854e+01
  -3.064136e+01  -8.527280e+01
   5.334391e+01  -5.101292e+01
   8.391096e+01   6.669878e+00
   3.644149e+01   4.489301e+01
  -2.667714e+01   4.828154e+01
  -2.958357e+01   2.455409e+01
   2.447681e+01  -3.092201e+00
   5.733393e+01  -7.082201e+00
   1.497026e+01   2.269492e+01
  -6.435326e+01   5.693450e+01
  -9.846319e+01   4.853067e+01
  -5.787727e+01  -1.127995e+01
   9.815381e+00  -6.998200e+01
   4.448630e+01  -6.841023e+01
   3.400952e+01  -8.591777e+00
   4.619157e+00   4.426709e+01
  -1.976157e+01   3.755382e+01
  -3.069508e+01  -1.152753e+01
  -2.386072e+01  -4.451636e+01
   6.806769e-01  -3.042809e+01
   2.803309e+01   5.073052e+00
   3.478756e+01   1.908080e+01
   1.738305e+01   2.985188e+00
  -2.774320e+00  -1.345933e+01
  -6.671970e+00  -2.264347e+00
  -1.365801e+00   2.726124e+01
  -6.272755e+00   3.909200e+01
  -2.365291e+01   1.220192e+01
  -2.960324e+01  -3.187275e+01
  -5.141761e+00  -4.921141e+01
   3.496471e+01  -1.991169e+01
   5.016034e+01   2.836186e+01
   1.549062e+01   5.087143e+01
  -4.530933e+01   3.087449e+01
  -7.541152e+01  -8.451982e+00
  -4.253992e+01  -3.494688e+01
   2.207915e+01  -3.630810e+01
   5.245833e+01  -2.146763e+01
   2.177899e+01  -4.806160e+00
  -2.641053e+01   1.369683e+00
  -2.917417e+01  -8.641030e+00
   2.106603e+01  -2.382557e+01
   6.834239e+01  -1.767130e+01
