
 $NMID
 id='ANONYMOUS ', fmtdat='(2E16.6)'
 volume=1.0
 tramp=1.0
 $END
  -2.752359e+03   6.638839e+01
  -2.087284e+03  -1.756043e+03
   2.581248e+02  -2.182570e+03
   1.423197e+03  -1.026510e+03
   8.312075e+02   2.223044e+02
  -6.651056e+01   2.857630e+02
  -3.948475e+02  -1.181054e+02
  -2.316672e+02  -6.300942e+02
   4.518446e+02  -5.331236e+02
   6.399614e+02  -2.331307e+01
   4.195080e+02   4.452808e+02
  -4.557227e+01   5.532823e+02
  -3.421308e+02   1.205726e+02
  -2.026546e+02  -4.090181e+02
   2.082620e+02  -5.719895e+02
   4.204850e+02  -3.494893e+01
   2.111309e+02   4.635565e+02
  -1.880089e+02   5.143537e+02
  -4.068283e+02   2.259317e+02
  -3.714048e+02  -1.927066e+02
  -8.589880e+01  -3.129651e+02
   1.225171e+02  -2.057699e+02
   6.530513e+01  -3.129094e+01
  -1.615308e+02   1.467197e+00
  -2.828635e+02  -2.144800e+02
  -1.075301e+01  -3.455688e+02
   4.492713e+02  -1.875876e+02
   5.870857e+02   1.559957e+02
   2.329801e+02   3.910412e+02
  -3.303975e+02   2.417916e+02
  -4.924109e+02  -1.351662e+02
  -1.829951e+02  -3.595745e+02
   2.526386e+02  -3.342458e+02
   4.489099e+02  -1.023464e+02
   2.972894e+02   1.647837e+02
   5.980182e+01   3.047034e+02
  -7.952632e+01   1.874493e+02
  -4.326467e+00  -1.215533e+02
   1.757278e+02  -2.150786e+02
   2.410500e+02   9.183234e+01
   6.649920e+01   4.765209e+02
  -2.353591e+02   4.600784e+02
  -3.447994e+02   1.230058e+01
  -1.401435e+02  -3.258596e+02
   1.551226e+02  -1.571294e+02
   2.026659e+02   2.568302e+02
  -9.209256e+01   3.977405e+02
  -4.327361e+02   7.955919e+01
  -4.714072e+02  -3.384624e+02
  -1.442227e+02  -4.669484e+02
   2.878361e+02  -2.672055e+02
   4.924145e+02   5.505374e+01
   3.151744e+02   2.574387e+02
  -6.281277e+01   2.429309e+02
  -2.899566e+02   7.979938e+01
  -1.980927e+02  -5.543022e+01
   2.059155e+01  -3.816452e+01
   6.749568e+01   6.608546e+01
  -9.710793e+01   9.173577e+01
  -2.294229e+02  -2.924601e+01
  -1.258627e+02  -1.835332e+02
   1.334683e+02  -2.232559e+02
   3.031739e+02  -1.094554e+02
   2.348677e+02   9.552237e+01
  -1.428533e+01   2.859215e+02
  -2.634163e+02   3.334625e+02
  -3.489898e+02   1.566320e+02
  -2.386335e+02  -1.495388e+02
  -5.054903e+01  -3.455940e+02
   5.626827e+01  -2.999036e+02
   4.561921e+01  -1.387802e+02
   2.818320e+01  -6.867095e+01
   1.003933e+02  -9.577271e+01
   2.086177e+02  -5.939847e+01
   2.207431e+02   1.003812e+02
   9.205150e+01   2.362787e+02
  -8.685372e+01   1.818640e+02
  -1.859648e+02  -3.324177e+01
  -1.369760e+02  -2.279699e+02
   3.898598e+01  -2.380680e+02
   2.322477e+02  -6.916875e+01
   2.912300e+02   1.529254e+02
   1.577104e+02   2.787047e+02
  -5.754892e+01   2.455521e+02
  -1.596683e+02   1.320493e+02
  -1.300064e+02   5.819991e+01
  -1.200404e+02   5.825290e+01
  -2.346783e+02   4.193308e+01
  -3.633988e+02  -7.728888e+01
  -2.873273e+02  -2.644832e+02
   1.770388e+01  -3.918270e+02
   3.368445e+02  -3.549801e+02
   4.346593e+02  -1.562994e+02
   2.684958e+02   9.543427e+01
   1.776255e+01   2.344542e+02
  -9.879598e+01   1.833825e+02
  -2.704830e+01   2.584627e+01
   1.082237e+02  -5.224651e+01
   1.337020e+02   3.070316e+01
   1.464480e+01   1.388668e+02
  -1.154552e+02   1.031180e+02
  -1.124074e+02  -5.439293e+01
   2.602706e+01  -1.301014e+02
   1.548410e+02  -1.600762e+00
   1.412735e+02   2.158662e+02
  -1.787834e+01   3.061871e+02
  -2.155770e+02   1.811633e+02
  -3.178328e+02  -5.411739e+01
  -2.507377e+02  -2.278325e+02
  -5.729704e+01  -2.434172e+02
   1.180736e+02  -1.295834e+02
   1.410589e+02  -7.109857e+00
   3.315955e+01   1.645369e+01
  -5.037039e+01  -5.172417e+01
  -1.896721e-02  -1.041796e+02
   1.136144e+02  -6.379498e+01
   1.361196e+02   2.446723e+01
   3.016269e+01   5.338708e+01
  -7.347857e+01  -6.846257e+00
  -3.442843e+01  -8.093960e+01
   1.314785e+02  -7.772991e+01
   2.666123e+02   1.844998e+01
   2.278659e+02   1.505492e+02
   2.572739e+01   2.368459e+02
  -1.861899e+02   2.140438e+02
  -2.451890e+02   8.822137e+01
  -1.284613e+02  -4.714561e+01
   2.799836e+01  -7.889935e+01
   6.327459e+01   1.224411e+00
  -4.552983e+01   7.533114e+01
  -1.684721e+02   3.244396e+01
  -1.714792e+02  -9.513717e+01
  -4.816526e+01  -1.727336e+02
   8.487090e+01  -1.244191e+02
   1.175626e+02  -1.496159e+01
   4.433263e+01   3.559098e+01
  -3.836862e+01  -1.405886e+01
  -2.690957e+01  -9.484951e+01
   8.470169e+01  -1.056927e+02
   1.889884e+02  -1.265605e+01
   1.634633e+02   1.217218e+02
   7.811100e+00   1.903843e+02
  -1.433247e+02   1.360354e+02
  -1.592502e+02   6.465405e+00
  -4.963080e+01  -9.024493e+01
   5.698239e+01  -8.782588e+01
   6.520873e+01  -2.130065e+01
   2.484830e+00   2.434511e+01
  -3.359958e+01   1.030738e+01
   5.622513e+00  -2.156226e+01
   7.709790e+01  -1.662236e+00
   9.488443e+01   8.059427e+01
   1.241870e+01   1.556822e+02
  -1.272585e+02   1.373340e+02
  -2.161718e+02   9.850029e+00
  -1.744970e+02  -1.414019e+02
  -3.112765e+01  -2.042751e+02
   9.378851e+01  -1.421690e+02
   1.157200e+02  -2.780564e+01
   6.393669e+01   3.971034e+01
   2.842486e+01   2.636364e+01
   4.921449e+01  -1.280243e+01
   7.675959e+01  -6.656494e+00
   4.860625e+01   4.859196e+01
  -3.395429e+01   9.277790e+01
  -1.058307e+02   6.045129e+01
  -9.393878e+01  -3.684903e+01
   1.266923e+01  -1.123449e+02
   1.421801e+02  -8.034752e+01
   1.830862e+02   5.657180e+01
   7.671296e+01   1.888056e+02
  -1.118561e+02   1.987863e+02
  -2.406452e+02   7.397151e+01
  -2.194033e+02  -8.239264e+01
  -8.717992e+01  -1.541459e+02
   3.756087e+01  -1.249293e+02
   8.093596e+01  -7.122539e+01
   6.408152e+01  -6.154707e+01
   5.280675e+01  -8.357125e+01
   8.045246e+01  -7.059440e+01
   1.175003e+02   1.649168e+01
   1.075677e+02   1.375007e+02
   2.514824e+01   2.015320e+02
  -8.938055e+01   1.491087e+02
  -1.529614e+02   1.141308e+01
  -1.139725e+02  -1.119130e+02
  -8.462525e+00  -1.392767e+02
   6.721650e+01  -7.417328e+01
   5.612025e+01   1.003538e+01
  -1.944918e+00   4.725413e+01
  -2.184464e+01   3.334719e+01
   2.540863e+01   1.133967e+01
   7.560714e+01   1.515135e+01
   4.559350e+01   3.568789e+01
  -6.328913e+01   3.772223e+01
  -1.543080e+02   1.023887e+00
  -1.310327e+02  -5.577337e+01
  -2.081574e+00  -8.882257e+01
   1.200415e+02  -6.691462e+01
   1.319838e+02  -4.573790e+00
   4.063363e+01   4.555115e+01
  -5.440726e+01   3.880290e+01
  -7.051583e+01  -1.665407e+01
  -1.590515e+01  -6.558956e+01
   4.279234e+01  -5.852473e+01
   6.145340e+01  -2.667385e+00
   5.090729e+01   4.520675e+01
   4.343732e+01   4.013269e+01
   5.103061e+01   3.820620e+00
   5.800110e+01   1.579429e+00
   3.747636e+01   6.354395e+01
  -2.533887e+01   1.359555e+02
  -1.109184e+02   1.310832e+02
  -1.588352e+02   3.109383e+01
  -1.161388e+02  -8.447827e+01
  -3.685625e+00  -1.188786e+02
   8.094255e+01  -6.087871e+01
   5.509922e+01   1.071085e+01
  -5.210658e+01   1.866066e+01
  -1.205217e+02  -3.776981e+01
  -6.463481e+01  -9.561948e+01
   7.412478e+01  -9.831445e+01
   1.691896e+02  -4.088685e+01
   1.402302e+02   3.449291e+01
   2.774198e+01   7.544302e+01
  -5.648934e+01   5.597064e+01
  -4.213731e+01   5.143584e-01
   3.623412e+01  -2.721313e+01
   8.208282e+01   1.687808e+01
   3.449337e+01   1.029914e+02
  -7.122137e+01   1.391000e+02
  -1.406190e+02   6.279535e+01
  -1.132731e+02  -8.211864e+01
  -1.482948e+01  -1.723395e+02
   7.376857e+01  -1.260908e+02
   9.452505e+01   9.869468e+00
   5.081114e+01   1.078866e+02
  -1.093128e+01   9.291447e+01
  -4.629945e+01   1.345667e+01
  -4.104348e+01  -2.960892e+01
  -1.488004e+01  -6.663948e+00
  -4.907290e+00   1.761964e+01
  -2.727161e+01  -1.632134e+01
  -5.270612e+01  -8.006750e+01
  -2.994887e+01  -9.614496e+01
   4.934156e+01  -4.033224e+01
   1.217875e+02   3.277448e+01
   1.105151e+02   6.288992e+01
   1.679345e+01   4.772101e+01
  -7.230349e+01   2.260788e+01
  -7.743342e+01   5.011972e+00
  -1.514745e+01  -1.037321e+01
   3.176161e+01  -1.989834e+01
   1.817013e+01  -1.239138e+01
  -1.324245e+01   3.446595e+00
   2.174004e+00   5.934657e+00
   5.938682e+01  -4.918226e-01
   8.351949e+01   1.863511e+01
   2.043694e+01   7.191835e+01
  -9.500527e+01   1.065136e+02
  -1.678411e+02   6.098779e+01
  -1.373646e+02  -5.200294e+01
  -3.031940e+01  -1.433522e+02
   7.111455e+01  -1.395650e+02
   1.046894e+02  -5.861524e+01
   7.274455e+01   1.778277e+01
   2.371544e+01   3.430703e+01
   1.348688e+00   1.103076e+01
   1.165388e+01   6.196570e+00
   2.715127e+01   4.248484e+01
   1.687196e+01   8.090385e+01
  -2.505957e+01   6.433121e+01
  -6.942495e+01  -1.284997e+01
  -7.130734e+01  -9.040856e+01
  -1.279651e+01  -9.838070e+01
   6.643187e+01  -2.844940e+01
   9.415101e+01   5.766614e+01
   3.597734e+01   9.103434e+01
  -5.656748e+01   5.655031e+01
  -9.197578e+01  -6.770545e+00
  -4.020841e+01  -5.086997e+01
   3.104545e+01  -5.442631e+01
   3.589147e+01  -2.614510e+01
  -2.378445e+01   5.611170e+00
  -6.186969e+01   8.905538e+00
  -1.742178e+01  -2.396235e+01
   6.906014e+01  -5.980692e+01
   1.076244e+02  -4.968059e+01
   6.399744e+01   1.369373e+01
  -1.077720e+01   7.583253e+01
  -5.015614e+01   7.452344e+01
  -3.910994e+01   1.115107e+01
  -6.315612e+00  -4.653210e+01
   2.091488e+01  -4.221560e+01
   3.310356e+01   9.784823e+00
   2.640106e+01   4.775608e+01
  -2.103174e-01   3.515950e+01
  -3.031167e+01  -3.978839e+00
  -3.850467e+01  -2.176420e+01
  -1.945266e+01  -4.615894e+00
   3.791290e+00   1.591775e+01
   7.630119e+00   6.005999e+00
  -1.086544e+00  -2.805590e+01
   2.574136e+00  -4.475864e+01
   2.341626e+01  -1.765224e+01
   3.456554e+01   3.169097e+01
   1.024785e+01   5.309791e+01
  -3.561753e+01   2.297608e+01
  -5.544273e+01  -2.921256e+01
  -1.827692e+01  -5.390160e+01
   4.917364e+01  -3.276305e+01
   8.244366e+01   9.240595e+00
   4.601793e+01   3.768747e+01
  -2.462827e+01   3.976279e+01
  -5.774215e+01   2.450895e+01
  -2.542096e+01   6.035461e+00
   2.624746e+01  -2.221377e+00
   3.056180e+01   6.920949e+00
  -2.088718e+01   2.325744e+01
  -7.112597e+01   1.856679e+01
