
 $NMID
 id='ANONYMOUS ', fmtdat='(2E16.6)'
 volume=1.0
 tramp=1.0
 $END
   2.469728e+03  -3.929000e+01
   2.099098e+03   1.582697e+03
   2.756219e+02   2.077066e+03
  -1.125231e+03   1.441648e+03
  -9.991700e+02   3.440124e+02
  -2.094018e+02  -4.923311e+01
   3.264614e+02   2.700309e+01
   1.520343e+02   4.906292e+02
  -3.466535e+02   5.064915e+02
  -5.083451e+02   1.912225e+02
  -3.693173e+02  -3.285724e+02
  -9.877104e+01  -5.060572e+02
   1.530002e+02  -2.588380e+02
   3.032083e+02   2.690592e+02
  -1.142826e+02   4.987868e+02
  -4.132133e+02   9.271915e+01
  -2.798439e+02  -3.816620e+02
   7.815398e+01  -6.135953e+02
   3.962581e+02  -3.066970e+02
   4.465600e+02   8.146203e+01
   1.901771e+02   3.380738e+02
  -5.448263e+01   2.373291e+02
  -8.070758e+01   8.673048e+01
   2.061476e+02   1.388688e+02
   2.290741e+02   3.384880e+02
  -5.625378e+01   3.795050e+02
  -4.855357e+02   1.130737e+02
  -5.649485e+02  -2.595163e+02
  -1.623702e+02  -3.335760e+02
   3.191804e+02  -1.334276e+02
   4.583915e+02   1.832220e+02
   1.320048e+02   3.556668e+02
  -2.775432e+02   2.958736e+02
  -4.337733e+02   9.925820e+01
  -3.119600e+02  -1.480824e+02
  -7.679018e+01  -2.654940e+02
  -3.467377e+00  -1.369041e+02
  -8.951104e+01   6.199417e+01
  -2.025812e+02   7.790349e+01
  -1.878481e+02  -1.959969e+02
   3.508019e+01  -4.740265e+02
   2.406290e+02  -3.962356e+02
   2.858143e+02  -6.814530e+00
   1.053957e+02   2.577156e+02
  -1.105366e+02   1.130845e+02
  -1.212340e+02  -2.570044e+02
   1.308174e+02  -3.455960e+02
   4.262172e+02  -3.333802e+01
   4.586586e+02   3.929865e+02
   1.423047e+02   5.043604e+02
  -2.916086e+02   2.579703e+02
  -5.118678e+02  -7.663714e+01
  -3.405786e+02  -2.488140e+02
   3.275381e+01  -2.101312e+02
   2.724945e+02  -8.654900e+01
   2.270200e+02  -1.385848e-01
   4.390656e+01   1.002542e+01
  -2.650914e+01  -1.661967e+01
   8.313167e+01  -1.824501e+01
   2.002424e+02   5.347394e+01
   1.187659e+02   1.762311e+02
  -1.473827e+02   2.422728e+02
  -3.565623e+02   1.393191e+02
  -2.844874e+02  -1.173917e+02
   3.614628e+01  -3.523453e+02
   3.380603e+02  -3.634657e+02
   3.897548e+02  -1.232411e+02
   2.146995e+02   1.843435e+02
   2.709171e+01   3.402282e+02
  -2.434550e+01   2.976885e+02
   2.971321e+00   1.890120e+02
  -3.694187e+01   1.388078e+02
  -1.705305e+02   1.213103e+02
  -2.751211e+02   2.981239e+01
  -2.312636e+02  -1.462583e+02
  -5.812829e+01  -2.636568e+02
   1.203993e+02  -1.807851e+02
   1.916324e+02   6.582951e+01
   1.063483e+02   2.670168e+02
  -8.395058e+01   2.468981e+02
  -2.579674e+02   3.222793e+01
  -2.923417e+02  -2.031886e+02
  -1.474196e+02  -3.002959e+02
   5.830183e+01  -2.543458e+02
   1.675839e+02  -1.547837e+02
   1.565491e+02  -9.518001e+01
   1.635267e+02  -6.825016e+01
   2.908695e+02  -1.375708e+01
   4.094335e+02   1.320128e+02
   3.075717e+02   3.211336e+02
  -5.129528e+01   4.408770e+02
  -4.177704e+02   3.785759e+02
  -4.979750e+02   1.415314e+02
  -2.766085e+02  -1.257512e+02
   6.086355e+00  -2.507053e+02
   1.009131e+02  -1.795787e+02
  -3.597387e+00  -3.734965e+01
  -1.234221e+02   1.479141e+01
  -1.109996e+02  -5.452276e+01
   1.234185e+01  -1.290423e+02
   1.125773e+02  -7.885174e+01
   8.719955e+01   5.601417e+01
  -3.963501e+01   1.105998e+02
  -1.540777e+02  -1.820958e+01
  -1.386884e+02  -2.426604e+02
   3.468686e+01  -3.429904e+02
   2.626195e+02  -2.031222e+02
   3.741415e+02   8.256415e+01
   2.730415e+02   2.925030e+02
   3.385195e+01   2.887179e+02
  -1.496064e+02   1.304600e+02
  -1.512320e+02  -6.818488e+00
  -2.895640e+01  -1.181607e+01
   4.398100e+01   6.949227e+01
  -1.862921e+01   1.095135e+02
  -1.296437e+02   5.014436e+01
  -1.396124e+02  -4.015095e+01
  -2.194353e+01  -5.417008e+01
   8.455863e+01   2.474541e+01
   3.000589e+01   1.040309e+02
  -1.661923e+02   8.392652e+01
  -3.163914e+02  -4.545532e+01
  -2.522468e+02  -2.014379e+02
  -1.038572e+00  -2.778274e+02
   2.361245e+02  -2.216154e+02
   2.771393e+02  -7.338438e+01
   1.285041e+02   5.573094e+01
  -3.691294e+01   7.115498e+01
  -5.770950e+01  -1.112987e+01
   6.498310e+01  -7.239527e+01
   1.875710e+02  -1.568414e+01
   1.785193e+02   1.182870e+02
   4.118316e+01   1.903510e+02
  -9.998179e+01   1.264463e+02
  -1.261250e+02   3.696252e+00
  -3.736488e+01  -4.124008e+01
   4.928702e+01   3.088056e+01
   1.902247e+01   1.242155e+02
  -1.175927e+02   1.179186e+02
  -2.236036e+02  -6.887457e+00
  -1.743957e+02  -1.559358e+02
   8.725723e+00  -2.133588e+02
   1.682878e+02  -1.412978e+02
   1.731756e+02  -2.767224e+00
   4.771883e+01   9.577894e+01
  -6.741382e+01   9.205447e+01
  -6.998218e+01   2.127216e+01
   5.092422e+00  -2.737337e+01
   4.480607e+01  -7.228161e+00
  -9.387592e+00   3.081737e+01
  -9.888492e+01   1.820159e+00
  -1.115037e+02  -1.034519e+02
  -1.106458e+00  -1.893080e+02
   1.638649e+02  -1.519371e+02
   2.516786e+02   9.025541e+00
   1.871355e+02   1.784339e+02
   2.304955e+01   2.347955e+02
  -1.131187e+02   1.550641e+02
  -1.342480e+02   2.616657e+01
  -7.544999e+01  -4.513697e+01
  -3.415995e+01  -3.037274e+01
  -5.681475e+01   1.182757e+01
  -9.283817e+01   3.721232e+00
  -6.090223e+01  -6.403178e+01
   4.555084e+01  -1.128829e+02
   1.375378e+02  -6.665036e+01
   1.151197e+02   5.712928e+01
  -2.968549e+01   1.425441e+02
  -1.870951e+02   8.375663e+01
  -2.157046e+02  -8.817925e+01
  -6.934085e+01  -2.319477e+02
   1.514404e+02  -2.193730e+02
   2.841060e+02  -6.247599e+01
   2.412463e+02   1.087542e+02
   8.568812e+01   1.764808e+02
  -5.181960e+01   1.362076e+02
  -9.357747e+01   7.573474e+01
  -7.205929e+01   6.654740e+01
  -6.212950e+01   9.190696e+01
  -9.581015e+01   7.643641e+01
  -1.338845e+02  -2.635782e+01
  -1.120498e+02  -1.658818e+02
  -1.090279e+01  -2.334477e+02
   1.149318e+02  -1.620899e+02
   1.744435e+02   3.319290e+00
   1.192969e+02   1.413408e+02
  -3.665750e+00   1.607382e+02
  -8.664977e+01   7.477737e+01
  -6.608756e+01  -2.380468e+01
   1.014045e+01  -6.012549e+01
   3.654333e+01  -3.780642e+01
  -2.371672e+01  -1.280275e+01
  -8.884016e+01  -2.148312e+01
  -5.166310e+01  -4.507205e+01
   8.301515e+01  -3.889457e+01
   1.875788e+02   1.335612e+01
   1.466626e+02   7.890665e+01
  -1.327638e+01   1.056281e+02
  -1.495437e+02   6.817319e+01
  -1.505267e+02  -6.984739e+00
  -4.010225e+01  -5.965240e+01
   6.572395e+01  -4.548209e+01
   8.186994e+01   2.238482e+01
   2.123108e+01   7.978980e+01
  -4.603498e+01   7.014573e+01
  -7.245699e+01   2.021287e+00
  -6.200771e+01  -5.431105e+01
  -4.881955e+01  -4.696235e+01
  -5.503695e+01  -4.267613e+00
  -6.681851e+01  -4.490218e+00
  -4.580120e+01  -7.879937e+01
   3.333024e+01  -1.585116e+02
   1.407615e+02  -1.453426e+02
   1.945141e+02  -2.455186e+01
   1.335073e+02   1.068619e+02
  -6.424764e+00   1.409741e+02
  -1.018796e+02   7.048186e+01
  -6.556987e+01  -1.181258e+01
   5.908029e+01  -1.780069e+01
   1.326198e+02   4.970945e+01
   6.317841e+01   1.126970e+02
  -9.429007e+01   1.053313e+02
  -1.961444e+02   3.036683e+01
  -1.550239e+02  -5.442400e+01
  -2.297838e+01  -8.884589e+01
   7.059396e+01  -5.587511e+01
   4.885554e+01   6.588303e+00
  -4.362602e+01   3.101334e+01
  -9.403781e+01  -2.309287e+01
  -3.653552e+01  -1.185686e+02
   8.440613e+01  -1.560975e+02
   1.607556e+02  -6.823942e+01
   1.246997e+02   9.599870e+01
   9.581097e+00   1.958716e+02
  -9.002091e+01   1.383896e+02
  -1.065319e+02  -1.966033e+01
  -4.788557e+01  -1.279274e+02
   2.478185e+01  -1.031949e+02
   5.775317e+01  -9.623195e+00
   4.268591e+01   3.608448e+01
   1.274608e+01   8.032404e+00
   7.283789e+00  -1.622566e+01
   3.419501e+01   2.656819e+01
   5.573789e+01   9.653773e+01
   2.286752e+01   1.076143e+02
  -6.395980e+01   3.933401e+01
  -1.363565e+02  -4.404610e+01
  -1.187527e+02  -7.663330e+01
  -1.585047e+01  -5.736579e+01
   8.064577e+01  -2.476781e+01
   8.758328e+01  -7.760692e-01
   1.955836e+01   1.520720e+01
  -3.412906e+01   2.047217e+01
  -2.217319e+01   9.829475e+00
   1.288737e+01  -4.876360e+00
  -1.540373e+00  -4.741351e+00
  -6.485294e+01   3.149454e-01
  -9.425566e+01  -2.519331e+01
  -2.358153e+01  -8.396839e+01
   1.102318e+02  -1.175695e+02
   1.961686e+02  -6.265200e+01
   1.586466e+02   6.353905e+01
   2.923694e+01   1.636941e+02
  -9.007527e+01   1.577260e+02
  -1.247916e+02   6.489362e+01
  -8.275019e+01  -2.255732e+01
  -2.603480e+01  -4.163994e+01
  -3.371404e+00  -1.561307e+01
  -1.499352e+01  -1.147552e+01
  -2.767878e+01  -5.368956e+01
  -1.198429e+01  -9.500375e+01
   3.376548e+01  -7.199743e+01
   7.921140e+01   1.794627e+01
   7.891646e+01   1.049844e+02
   1.339973e+01   1.125108e+02
  -7.582418e+01   3.278417e+01
  -1.072853e+02  -6.685667e+01
  -3.974655e+01  -1.073129e+02
   6.851027e+01  -6.734433e+01
   1.097976e+02   1.030232e+01
   4.699330e+01   6.481344e+01
  -3.928391e+01   6.628957e+01
  -4.626956e+01   2.861928e+01
   2.444834e+01  -7.803600e+00
   7.054413e+01  -7.483450e+00
   1.857006e+01   3.026393e+01
  -8.382809e+01   6.416030e+01
  -1.287143e+02   4.635951e+01
  -7.441277e+01  -2.402741e+01
   1.782164e+01  -8.845822e+01
   6.566958e+01  -8.345917e+01
   4.982690e+01  -1.250628e+01
   6.830038e+00   5.343042e+01
  -2.652886e+01   4.987983e+01
  -3.811258e+01  -1.050835e+01
  -2.726809e+01  -5.744206e+01
   3.448814e+00  -4.402172e+01
   3.573478e+01   5.654962e+00
   4.341698e+01   3.065127e+01
   2.078517e+01   8.474253e+00
  -4.850008e+00  -2.255735e+01
  -6.337408e+00  -1.390075e+01
   7.159862e+00   3.060092e+01
   2.626759e+00   5.765708e+01
  -2.677323e+01   2.803357e+01
  -4.527162e+01  -3.335385e+01
  -1.697879e+01  -6.234351e+01
   4.114923e+01  -2.796889e+01
   6.618067e+01   3.394111e+01
   2.014294e+01   6.225891e+01
  -6.122765e+01   3.600695e+01
  -9.778919e+01  -1.413535e+01
  -5.128925e+01  -4.644254e+01
   3.171015e+01  -4.767653e+01
   6.898457e+01  -2.891151e+01
   3.171846e+01  -6.684755e+00
  -2.633947e+01   4.646361e+00
  -3.282481e+01  -4.394456e+00
   2.170398e+01  -2.331562e+01
   7.614765e+01  -1.965889e+01
