
 $NMID
 id='ANONYMOUS ', fmtdat='(2E16.6)'
 volume=1.0
 tramp=1.0
 $END
   3.172609e+03  -2.664400e+01
   2.495031e+03   1.853900e+03
   1.472091e+01   2.328909e+03
  -1.316965e+03   1.220383e+03
  -9.998629e+02   2.687754e+02
  -1.249803e+01  -2.466603e+02
   3.443570e+02   1.267086e+02
  -9.083879e+00   5.385691e+02
  -3.837017e+02   4.590133e+02
  -6.703091e+02   1.052447e+02
  -3.123981e+02  -5.674507e+02
  -3.445850e+01  -7.498081e+02
   3.933401e+02  -2.049823e+02
   2.810057e+02   4.904016e+02
  -5.583275e+01   6.118080e+02
  -4.131710e+02   7.158647e+01
  -3.343166e+02  -5.373581e+02
   1.081217e+02  -6.883304e+02
   5.142714e+02  -3.047870e+02
   4.414000e+02   1.557989e+02
   9.405846e+01   3.810807e+02
  -1.505623e+02   2.430582e+02
  -4.987487e+01   4.184192e+01
   2.312338e+02   1.010476e+02
   2.562863e+02   3.014784e+02
  -7.086063e+01   3.974480e+02
  -5.021985e+02   1.715681e+02
  -6.199538e+02  -2.436723e+02
  -2.000303e+02  -3.861132e+02
   3.590338e+02  -2.483361e+02
   5.312397e+02   1.264416e+02
   1.981917e+02   3.778481e+02
  -2.743775e+02   3.591084e+02
  -4.548225e+02   1.197097e+02
  -3.231162e+02  -1.667365e+02
  -6.812243e+01  -3.118745e+02
   3.930284e+01  -1.360335e+02
  -4.189079e+01   1.051529e+02
  -2.127046e+02   1.324246e+02
  -2.348134e+02  -1.812676e+02
  -5.331802e+00  -4.966494e+02
   2.633613e+02  -4.093271e+02
   3.105653e+02   2.181236e+01
   1.001366e+02   2.978247e+02
  -1.577858e+02   1.209854e+02
  -1.668572e+02  -2.827578e+02
   1.191824e+02  -3.841049e+02
   4.510460e+02  -4.523469e+01
   4.921011e+02   3.781790e+02
   1.552463e+02   4.975312e+02
  -3.112095e+02   2.698798e+02
  -5.203730e+02  -7.000052e+01
  -3.262329e+02  -2.554099e+02
   6.606769e+01  -2.236982e+02
   2.911113e+02  -6.422859e+01
   2.102167e+02   4.483378e+01
   3.077055e+00   2.648284e+01
  -4.620923e+01  -4.758848e+01
   1.013154e+02  -4.750400e+01
   2.206528e+02   6.493159e+01
   1.109537e+02   2.009012e+02
  -1.636149e+02   2.410037e+02
  -3.467489e+02   1.257478e+02
  -2.593170e+02  -1.068308e+02
   3.714987e+01  -3.230875e+02
   3.136762e+02  -3.550651e+02
   3.775098e+02  -1.403345e+02
   2.283468e+02   1.778055e+02
   3.478915e+01   3.619142e+02
  -4.276539e+01   3.170138e+02
  -1.782635e+01   1.765259e+02
  -2.873779e+01   1.102549e+02
  -1.427439e+02   1.131261e+02
  -2.607551e+02   4.861439e+01
  -2.381614e+02  -1.236083e+02
  -7.395878e+01  -2.570098e+02
   1.114306e+02  -1.865812e+02
   1.879210e+02   5.474211e+01
   1.182226e+02   2.568884e+02
  -6.596335e+01   2.456214e+02
  -2.517393e+02   4.047723e+01
  -2.981595e+02  -1.928707e+02
  -1.518957e+02  -2.974510e+02
   6.086258e+01  -2.499065e+02
   1.686775e+02  -1.434233e+02
   1.483088e+02  -8.439547e+01
   1.536188e+02  -7.351596e+01
   2.870127e+02  -2.251473e+01
   4.090709e+02   1.281124e+02
   3.038169e+02   3.255159e+02
  -5.169951e+01   4.408522e+02
  -4.110462e+02   3.775913e+02
  -4.894034e+02   1.473014e+02
  -2.803588e+02  -1.208822e+02
  -2.108395e+00  -2.556859e+02
   1.025040e+02  -1.895471e+02
   7.818680e+00  -2.998221e+01
  -1.240393e+02   3.609997e+01
  -1.288126e+02  -4.499349e+01
  -4.031518e+00  -1.428302e+02
   1.192507e+02  -9.807470e+01
   1.046382e+02   5.577854e+01
  -3.183193e+01   1.258015e+02
  -1.583989e+02  -9.874679e+00
  -1.438121e+02  -2.407297e+02
   2.934852e+01  -3.371488e+02
   2.494391e+02  -1.948872e+02
   3.577391e+02   7.460914e+01
   2.700069e+02   2.703180e+02
   4.671266e+01   2.729832e+02
  -1.350826e+02   1.317750e+02
  -1.468165e+02  -1.374494e+00
  -3.081105e+01  -1.289108e+01
   4.720825e+01   6.665929e+01
  -1.077235e+01   1.140202e+02
  -1.253721e+02   5.779995e+01
  -1.420125e+02  -3.577658e+01
  -2.816702e+01  -5.504912e+01
   7.985401e+01   1.960237e+01
   3.254465e+01   9.640912e+01
  -1.544727e+02   8.090527e+01
  -3.039036e+02  -3.598303e+01
  -2.511963e+02  -1.830659e+02
  -1.351504e+01  -2.660992e+02
   2.229173e+02  -2.260730e+02
   2.738058e+02  -8.454800e+01
   1.308011e+02   5.263283e+01
  -3.886839e+01   7.672543e+01
  -6.461388e+01  -8.241069e+00
   6.098697e+01  -7.774271e+01
   1.901065e+02  -2.443548e+01
   1.829904e+02   1.118159e+02
   4.440662e+01   1.889808e+02
  -9.667168e+01   1.303654e+02
  -1.250296e+02   1.056215e+01
  -4.267388e+01  -3.757712e+01
   4.183958e+01   2.613897e+01
   1.990967e+01   1.151893e+02
  -1.060970e+02   1.146876e+02
  -2.144307e+02  -1.323366e+00
  -1.764614e+02  -1.491569e+02
  -5.530828e-01  -2.120002e+02
   1.644141e+02  -1.418345e+02
   1.763480e+02  -6.585502e-01
   5.160419e+01   9.851878e+01
  -6.758489e+01   9.223031e+01
  -7.365736e+01   2.008347e+01
  -1.170940e+00  -2.698759e+01
   3.863210e+01  -8.358067e+00
  -1.012469e+01   2.571715e+01
  -9.193264e+01  -2.285186e+00
  -1.038752e+02  -9.921393e+01
  -2.104929e+00  -1.806195e+02
   1.538827e+02  -1.493761e+02
   2.419389e+02   1.574248e+00
   1.841125e+02   1.692768e+02
   2.739755e+01   2.304312e+02
  -1.065723e+02   1.535034e+02
  -1.291576e+02   2.544978e+01
  -7.316717e+01  -4.594514e+01
  -3.450427e+01  -2.931743e+01
  -5.608164e+01   1.204035e+01
  -8.790972e+01   4.111949e+00
  -5.584673e+01  -5.996015e+01
   4.380542e+01  -1.057215e+02
   1.269523e+02  -6.463796e+01
   1.065931e+02   5.144464e+01
  -2.556674e+01   1.342362e+02
  -1.740919e+02   8.456526e+01
  -2.085075e+02  -7.984480e+01
  -7.592862e+01  -2.243753e+02
   1.393162e+02  -2.213395e+02
   2.785932e+02  -7.005490e+01
   2.453476e+02   1.035112e+02
   9.283629e+01   1.770415e+02
  -4.706517e+01   1.390880e+02
  -9.409225e+01   7.834224e+01
  -7.406746e+01   6.794931e+01
  -6.259014e+01   9.281303e+01
  -9.486971e+01   7.589968e+01
  -1.326102e+02  -2.493065e+01
  -1.137935e+02  -1.613628e+02
  -1.537022e+01  -2.288290e+02
   1.096292e+02  -1.623378e+02
   1.714902e+02  -1.344800e+00
   1.199553e+02   1.357844e+02
   2.935055e-01   1.573564e+02
  -8.175800e+01   7.530818e+01
  -6.370130e+01  -2.015502e+01
   7.350211e+00  -5.576006e+01
   3.140762e+01  -3.583586e+01
  -2.552608e+01  -1.353740e+01
  -8.607388e+01  -2.215918e+01
  -5.050469e+01  -4.365142e+01
   7.742034e+01  -3.855146e+01
   1.799078e+02   8.712730e+00
   1.460513e+02   7.119880e+01
  -5.356962e+00   1.007136e+02
  -1.416479e+02   6.977221e+01
  -1.484909e+02  -8.701247e-01
  -4.157256e+01  -5.372485e+01
   6.460022e+01  -4.247354e+01
   7.998830e+01   2.213213e+01
   1.695919e+01   7.775947e+01
  -4.968033e+01   6.788884e+01
  -7.081339e+01   1.701200e+00
  -5.813904e+01  -5.270784e+01
  -4.867991e+01  -4.497738e+01
  -5.841953e+01  -3.161429e+00
  -6.869548e+01  -4.174526e+00
  -4.465432e+01  -7.792253e+01
   3.356841e+01  -1.567506e+02
   1.361088e+02  -1.447031e+02
   1.877439e+02  -2.667849e+01
   1.299702e+02   1.025995e+02
  -4.105164e+00   1.362599e+02
  -9.757769e+01   6.765033e+01
  -6.312968e+01  -1.241202e+01
   5.987832e+01  -1.801972e+01
   1.334961e+02   4.809811e+01
   6.592192e+01   1.106196e+02
  -9.014253e+01   1.059512e+02
  -1.930007e+02   3.441937e+01
  -1.553391e+02  -4.963854e+01
  -2.550573e+01  -8.678377e+01
   6.873433e+01  -5.658785e+01
   4.934134e+01   5.328715e+00
  -4.193368e+01   3.054173e+01
  -9.297577e+01  -2.355334e+01
  -3.635325e+01  -1.180546e+02
   8.435442e+01  -1.537769e+02
   1.599274e+02  -6.448652e+01
   1.232349e+02   9.740256e+01
   9.140201e+00   1.941855e+02
  -8.835620e+01   1.369971e+02
  -1.051401e+02  -1.770471e+01
  -5.098243e+01  -1.244548e+02
   1.811377e+01  -1.027421e+02
   5.402227e+01  -1.235069e+01
   4.474835e+01   3.363838e+01
   1.594962e+01   7.334666e+00
   6.026558e+00  -1.721893e+01
   3.057174e+01   2.333794e+01
   5.621108e+01   9.304135e+01
   2.845417e+01   1.063214e+02
  -5.925309e+01   4.032837e+01
  -1.367408e+02  -4.227744e+01
  -1.210847e+02  -7.463228e+01
  -1.527667e+01  -5.531058e+01
   8.294168e+01  -2.345954e+01
   8.706702e+01  -1.117636e+00
   1.607308e+01   1.395713e+01
  -3.640662e+01   1.963540e+01
  -2.062726e+01   9.282517e+00
   1.497337e+01  -5.466917e+00
  -2.198984e+00  -5.004870e+00
  -6.640181e+01   5.783042e-01
  -9.297418e+01  -2.507085e+01
  -2.018236e+01  -8.514225e+01
   1.116464e+02  -1.190612e+02
   1.933743e+02  -6.277022e+01
   1.558059e+02   6.444757e+01
   3.095121e+01   1.634691e+02
  -8.509688e+01   1.561820e+02
  -1.210215e+02   6.425679e+01
  -8.220493e+01  -2.136243e+01
  -2.619973e+01  -3.957428e+01
  -1.884097e+00  -1.386978e+01
  -1.355351e+01  -9.243925e+00
  -2.859595e+01  -5.046921e+01
  -1.448973e+01  -9.248080e+01
   3.229491e+01  -7.171296e+01
   7.894356e+01   1.703711e+01
   7.799734e+01   1.047263e+02
   1.127324e+01   1.126687e+02
  -7.692943e+01   3.200073e+01
  -1.060446e+02  -6.748941e+01
  -3.836973e+01  -1.064114e+02
   6.691204e+01  -6.555304e+01
   1.060008e+02   9.814969e+00
   4.492064e+01   6.178270e+01
  -3.705144e+01   6.358449e+01
  -4.266013e+01   2.849785e+01
   2.592274e+01  -7.300957e+00
   6.935391e+01  -8.982411e+00
   1.849296e+01   2.781966e+01
  -7.979894e+01   6.467245e+01
  -1.225787e+02   5.050944e+01
  -7.112466e+01  -1.913604e+01
   1.535601e+01  -8.524824e+01
   6.030652e+01  -8.120098e+01
   4.639715e+01  -1.074335e+01
   7.172809e+00   5.384177e+01
  -2.509321e+01   4.893438e+01
  -3.886741e+01  -1.074965e+01
  -2.971132e+01  -5.506042e+01
   1.010199e+00  -4.039688e+01
   3.396086e+01   6.135141e+00
   4.183107e+01   2.757367e+01
   1.963657e+01   5.572282e+00
  -4.946090e+00  -2.158069e+01
  -6.667431e+00  -1.073502e+01
   4.694021e+00   3.128251e+01
  -8.384319e-01   5.356803e+01
  -2.774646e+01   2.289444e+01
  -4.215234e+01  -3.496285e+01
  -1.266470e+01  -6.033706e+01
   4.169214e+01  -2.575867e+01
   6.354084e+01   3.407625e+01
   1.828222e+01   6.152631e+01
  -5.969682e+01   3.579370e+01
  -9.537832e+01  -1.347867e+01
  -5.072472e+01  -4.587660e+01
   3.043776e+01  -4.679554e+01
   6.712534e+01  -2.748744e+01
   2.982570e+01  -5.750016e+00
  -2.809788e+01   3.703056e+00
  -3.339818e+01  -7.130170e+00
   2.343377e+01  -2.592158e+01
   7.851648e+01  -2.019832e+01
