
 $NMID
 id='ANONYMOUS ', fmtdat='(2E16.6)'
 volume=1.0
 tramp=1.0
 $END
   2.750136e+03   3.083969e+01
   2.098640e+03   1.291224e+03
   3.034874e+02   1.894618e+03
  -8.676435e+02   1.248949e+03
  -1.173354e+03   5.332186e+02
  -2.559935e+02  -1.792856e+02
   1.616410e+02  -1.481901e+02
   7.295526e+01   3.665149e+02
  -2.460608e+02   4.981643e+02
  -4.829073e+02   9.974490e+01
  -3.751969e+02  -3.756543e+02
  -7.306685e+01  -5.378834e+02
   2.662865e+02  -1.578271e+02
   1.595877e+02   3.534886e+02
  -8.009868e-01   5.244443e+02
  -3.256799e+02   1.597341e+02
  -3.868545e+02  -4.437007e+02
   3.388905e+01  -6.716634e+02
   4.023145e+02  -4.015771e+02
   4.949728e+02   7.604858e+01
   2.083560e+02   3.258789e+02
  -4.118333e+01   2.221938e+02
  -1.909262e+00   1.272785e+02
   1.880166e+02   1.716414e+02
   2.136721e+02   3.439741e+02
  -1.139319e+02   3.062694e+02
  -4.536982e+02   6.665456e+01
  -4.879173e+02  -2.119010e+02
  -1.523432e+02  -3.107813e+02
   2.639971e+02  -1.241706e+02
   3.781650e+02   1.382614e+02
   1.089441e+02   3.156710e+02
  -2.297667e+02   2.737117e+02
  -3.663430e+02   1.213207e+02
  -2.600016e+02  -8.735579e+01
  -1.011997e+02  -2.333362e+02
  -4.605403e+01  -1.591975e+02
  -1.121605e+02   2.798711e+01
  -1.790129e+02   6.749335e+01
  -1.106869e+02  -1.699224e+02
   4.107754e+01  -4.028036e+02
   2.042976e+02  -3.458047e+02
   2.331568e+02  -1.160052e+01
   9.362133e+01   2.116410e+02
  -7.861942e+01   7.410930e+01
  -9.658560e+01  -2.411212e+02
   1.314109e+02  -3.280693e+02
   4.052468e+02  -3.236161e+01
   4.545634e+02   3.416505e+02
   1.682372e+02   4.509746e+02
  -2.558937e+02   2.477900e+02
  -4.690008e+02  -4.370632e+01
  -3.373453e+02  -1.872225e+02
  -1.140730e+01  -1.771120e+02
   2.235161e+02  -1.062949e+02
   2.165852e+02  -4.339162e+01
   6.701329e+01  -5.961617e+00
  -1.541676e+01  -6.984846e+00
   5.896181e+01  -2.263510e+01
   1.697445e+02   1.900477e+01
   1.205850e+02   1.423592e+02
  -1.194721e+02   2.453067e+02
  -3.387112e+02   1.693630e+02
  -2.929205e+02  -1.044223e+02
   1.590098e+01  -3.763993e+02
   3.228252e+02  -4.023575e+02
   3.812786e+02  -1.472704e+02
   2.137623e+02   1.769561e+02
   4.311004e+01   3.333676e+02
   8.362380e+00   2.870876e+02
   3.042404e+01   1.855691e+02
  -3.457703e+01   1.487013e+02
  -1.843570e+02   1.336269e+02
  -2.801946e+02   3.060565e+01
  -2.220930e+02  -1.503021e+02
  -5.018400e+01  -2.570370e+02
   1.168432e+02  -1.647404e+02
   1.778982e+02   6.796851e+01
   1.098061e+02   2.489987e+02
  -6.354364e+01   2.331432e+02
  -2.420044e+02   4.346364e+01
  -2.912239e+02  -1.708487e+02
  -1.702125e+02  -2.759233e+02
   2.789374e+01  -2.521180e+02
   1.428514e+02  -1.722000e+02
   1.467669e+02  -1.175759e+02
   1.708176e+02  -9.224128e+01
   3.005425e+02  -3.726979e+01
   4.244286e+02   1.067374e+02
   3.188564e+02   3.111939e+02
  -3.598708e+01   4.479707e+02
  -3.953962e+02   3.953323e+02
  -4.789987e+02   1.583181e+02
  -2.620801e+02  -1.093668e+02
   1.048257e+00  -2.334702e+02
   7.864096e+01  -1.679269e+02
  -2.550219e+01  -3.648811e+01
  -1.235834e+02   1.120861e+01
  -9.708645e+01  -5.257339e+01
   1.397558e+01  -1.166005e+02
   9.641647e+01  -7.306604e+01
   7.485173e+01   4.916950e+01
  -3.490176e+01   1.022830e+02
  -1.459575e+02  -1.657407e+01
  -1.440998e+02  -2.282932e+02
   1.438928e+01  -3.370333e+02
   2.463757e+02  -2.138451e+02
   3.740402e+02   6.275468e+01
   2.819295e+02   2.755108e+02
   4.229061e+01   2.800861e+02
  -1.424792e+02   1.280868e+02
  -1.416686e+02  -3.979428e+00
  -2.228423e+01  -5.802104e+00
   4.500199e+01   7.347606e+01
  -1.964474e+01   1.087651e+02
  -1.263466e+02   4.756565e+01
  -1.303001e+02  -3.741883e+01
  -1.433016e+01  -4.734560e+01
   8.577414e+01   3.011985e+01
   2.842183e+01   1.080138e+02
  -1.654817e+02   9.230851e+01
  -3.149212e+02  -3.161285e+01
  -2.561430e+02  -1.879704e+02
  -1.260365e+01  -2.710472e+02
   2.188113e+02  -2.236260e+02
   2.606221e+02  -8.215684e+01
   1.202145e+02   4.528873e+01
  -3.371580e+01   6.474054e+01
  -4.994967e+01  -1.218235e+01
   6.647852e+01  -7.299183e+01
   1.814626e+02  -2.193586e+01
   1.734760e+02   1.063050e+02
   4.587652e+01   1.805463e+02
  -8.748803e+01   1.251926e+02
  -1.143267e+02   9.217519e+00
  -3.110369e+01  -3.519063e+01
   5.234184e+01   3.481018e+01
   2.299573e+01   1.274920e+02
  -1.123204e+02   1.239418e+02
  -2.220276e+02   3.623780e+00
  -1.807108e+02  -1.430212e+02
  -6.020588e+00  -2.043751e+02
   1.527850e+02  -1.421306e+02
   1.658775e+02  -1.295614e+01
   5.121575e+01   8.246663e+01
  -5.764567e+01   8.355059e+01
  -6.192984e+01   2.090490e+01
   9.205448e+00  -2.198707e+01
   4.695700e+01  -2.886858e-01
  -8.680356e+00   3.833871e+01
  -1.013678e+02   9.951286e+00
  -1.193847e+02  -9.831595e+01
  -1.158179e+01  -1.907348e+02
   1.534217e+02  -1.601648e+02
   2.465840e+02  -3.363886e+00
   1.913051e+02   1.664825e+02
   3.427267e+01   2.258188e+02
  -9.915051e+01   1.534193e+02
  -1.266106e+02   3.180535e+01
  -7.413635e+01  -3.603706e+01
  -3.519369e+01  -2.283050e+01
  -5.665461e+01   1.681196e+01
  -9.280198e+01   6.248129e+00
  -6.597356e+01  -6.397176e+01
   3.933083e+01  -1.186473e+02
   1.365507e+02  -7.547802e+01
   1.210514e+02   5.216206e+01
  -2.126804e+01   1.440900e+02
  -1.791152e+02   9.520952e+01
  -2.135340e+02  -7.607217e+01
  -7.650955e+01  -2.247260e+02
   1.366959e+02  -2.213911e+02
   2.697931e+02  -7.441298e+01
   2.381901e+02   9.295500e+01
   9.291947e+01   1.637673e+02
  -4.020329e+01   1.323611e+02
  -8.443442e+01   7.882202e+01
  -6.398637e+01   7.195016e+01
  -5.334980e+01   9.811013e+01
  -9.068396e+01   8.343217e+01
  -1.364149e+02  -1.584419e+01
  -1.232031e+02  -1.543482e+02
  -2.606530e+01  -2.277692e+02
   1.025736e+02  -1.659570e+02
   1.697620e+02  -6.568914e+00
   1.221217e+02   1.327322e+02
   2.369927e+00   1.576166e+02
  -8.213144e+01   7.578754e+01
  -6.494187e+01  -2.382286e+01
   9.170356e+00  -6.169182e+01
   3.544768e+01  -3.664047e+01
  -2.509023e+01  -5.985182e+00
  -9.147861e+01  -1.238690e+01
  -5.595436e+01  -4.148675e+01
   7.834890e+01  -4.541753e+01
   1.838110e+02  -1.927295e-01
   1.460404e+02   6.764277e+01
  -9.638246e+00   1.038839e+02
  -1.428783e+02   7.548017e+01
  -1.458111e+02   1.312215e+00
  -4.183986e+01  -5.819032e+01
   6.006646e+01  -5.093082e+01
   8.090637e+01   1.630629e+01
   2.858724e+01   7.802958e+01
  -3.765271e+01   7.189612e+01
  -7.130832e+01   5.395143e+00
  -6.783590e+01  -5.113385e+01
  -5.243089e+01  -4.240470e+01
  -5.176208e+01   1.488719e+00
  -6.390548e+01   3.036443e-01
  -5.138080e+01  -7.659142e+01
   2.058801e+01  -1.605021e+02
   1.298264e+02  -1.521920e+02
   1.918376e+02  -3.564270e+01
   1.378766e+02   9.685945e+01
   1.080869e+00   1.383917e+02
  -9.690787e+01   7.507938e+01
  -6.392706e+01  -8.066192e+00
   5.847097e+01  -2.186908e+01
   1.333273e+02   3.930562e+01
   6.928600e+01   1.055857e+02
  -8.432744e+01   1.080287e+02
  -1.881695e+02   4.066773e+01
  -1.541903e+02  -4.390124e+01
  -2.738975e+01  -8.340395e+01
   6.689187e+01  -5.586243e+01
   4.967244e+01   5.763423e+00
  -4.057748e+01   3.375462e+01
  -9.575461e+01  -1.724528e+01
  -4.647001e+01  -1.145750e+02
   7.102750e+01  -1.590203e+02
   1.532597e+02  -7.682918e+01
   1.294731e+02   8.647520e+01
   2.223040e+01   1.909522e+02
  -7.994086e+01   1.392704e+02
  -1.054685e+02  -1.429619e+01
  -5.388646e+01  -1.216127e+02
   1.873132e+01  -9.995995e+01
   5.489247e+01  -1.141067e+01
   4.120653e+01   3.183432e+01
   1.066110e+01   5.571046e+00
   6.362734e+00  -1.625259e+01
   3.687101e+01   2.419218e+01
   6.058266e+01   8.959702e+01
   2.678084e+01   1.011162e+02
  -6.208279e+01   4.096561e+01
  -1.351577e+02  -3.398660e+01
  -1.183409e+02  -6.748936e+01
  -1.804938e+01  -5.654816e+01
   7.702942e+01  -3.054196e+01
   8.607637e+01  -5.237714e+00
   2.181084e+01   1.546118e+01
  -3.207057e+01   2.239617e+01
  -2.349332e+01   9.834533e+00
   1.024283e+01  -5.963359e+00
  -6.065896e-01  -3.216390e+00
  -6.116459e+01   6.024572e+00
  -9.526053e+01  -1.832921e+01
  -3.400846e+01  -8.192565e+01
   9.560175e+01  -1.245018e+02
   1.885450e+02  -7.767503e+01
   1.634927e+02   4.774879e+01
   4.296238e+01   1.558486e+02
  -7.631382e+01   1.604841e+02
  -1.166960e+02   7.416836e+01
  -8.155053e+01  -1.431150e+01
  -2.872375e+01  -3.854705e+01
  -6.204304e+00  -1.639258e+01
  -1.628801e+01  -1.174466e+01
  -2.936941e+01  -5.089189e+01
  -1.623092e+01  -9.134446e+01
   2.807082e+01  -7.289085e+01
   7.762391e+01   1.019306e+01
   8.515226e+01   9.509626e+01
   2.428488e+01   1.093653e+02
  -6.861873e+01   4.022535e+01
  -1.091853e+02  -5.493346e+01
  -4.881909e+01  -1.015189e+02
   5.996245e+01  -7.140662e+01
   1.082754e+02   2.498363e+00
   5.208221e+01   6.147329e+01
  -3.352720e+01   6.830050e+01
  -4.591945e+01   3.043306e+01
   1.968990e+01  -1.006488e+01
   6.686984e+01  -1.218536e+01
   2.184510e+01   2.777769e+01
  -7.540857e+01   6.614280e+01
  -1.225523e+02   5.124962e+01
  -7.633960e+01  -1.955244e+01
   1.040955e+01  -8.719254e+01
   6.075638e+01  -8.676467e+01
   5.216746e+01  -1.779167e+01
   1.397989e+01   5.072275e+01
  -2.074116e+01   5.344388e+01
  -3.825459e+01  -2.742740e+00
  -3.233108e+01  -5.201881e+01
  -1.610977e+00  -4.411581e+01
   3.452281e+01   1.398691e+00
   4.478184e+01   2.730014e+01
   2.087171e+01   8.022329e+00
  -7.450518e+00  -2.236450e+01
  -7.771954e+00  -1.521941e+01
   1.044102e+01   2.829424e+01
   9.535093e+00   5.754552e+01
  -2.325155e+01   3.172190e+01
  -4.892225e+01  -2.765293e+01
  -2.428487e+01  -5.940255e+01
   3.615320e+01  -3.109136e+01
   6.748582e+01   2.710220e+01
   2.535058e+01   5.849810e+01
  -5.634592e+01   3.961634e+01
  -9.636366e+01  -5.877607e+00
  -5.382174e+01  -4.170244e+01
   2.653733e+01  -4.992985e+01
   6.482415e+01  -3.439996e+01
   3.216254e+01  -8.422119e+00
  -2.223724e+01   8.778376e+00
  -3.130697e+01   1.161911e+00
   1.701069e+01  -2.263529e+01
   6.910437e+01  -2.510855e+01
