
 $NMID
 id='ANONYMOUS ', fmtdat='(2E16.6)'
 volume=1.0
 tramp=1.0
 $END
   6.255259e+02  -2.354613e+01
   4.104175e+02   2.171279e+02
   5.657523e+01   3.988327e+02
  -3.106857e+02   3.973550e+02
  -2.170848e+02   1.229647e+02
   2.658212e+01  -1.233395e+02
   4.619520e+01  -3.331239e+01
  -1.158912e+01   1.203525e+02
  -6.448759e+01   1.842713e+02
  -1.095421e+02   7.532701e+01
  -1.090799e+02  -1.499134e+01
  -6.195873e+01  -1.663250e+02
   5.891408e+01  -7.410358e+00
   5.479596e+01   3.320531e+01
  -4.738943e+00   1.390889e+02
  -9.548185e+01   3.470933e+01
  -5.196781e+01  -1.443297e+02
   3.055001e+01  -1.393986e+02
   1.060892e+02  -9.854901e+01
   9.971155e+01   1.613800e+01
   2.112313e+01   4.064438e+01
  -2.586830e+01   1.770950e+01
  -6.665233e+00  -2.754362e+01
   4.732915e+01   7.815494e+00
   6.831325e+01   8.919517e+01
  -1.825466e+00   1.156557e+02
  -7.949119e+01   1.955898e+01
  -1.239419e+02  -7.385040e+01
  -1.574562e+01  -1.209169e+02
   8.202272e+01  -4.594018e+01
   1.118102e+02   3.164344e+01
   4.523158e+01   9.404089e+01
  -4.773291e+01   6.497708e+01
  -1.055397e+02   3.290547e+01
  -5.278890e+01  -2.693497e+01
   1.516275e+01  -4.569979e+01
   1.255650e+01  -3.603628e+01
  -1.277608e+01   2.357823e+01
  -4.705971e+01   2.851944e+01
  -3.571339e+01  -2.747389e+01
   6.179159e+00  -9.413746e+01
   4.595032e+01  -8.048499e+01
   5.350267e+01  -6.386099e+00
   2.194531e+01   5.614674e+01
  -7.382720e+00   2.180095e+01
  -1.328255e+01  -4.585222e+01
   2.536462e+01  -6.504373e+01
   8.565290e+01   8.916138e+00
   9.179840e+01   8.450744e+01
   2.600557e+01   9.636804e+01
  -7.226862e+01   4.739801e+01
  -1.187277e+02  -2.469530e+01
  -7.080037e+01  -5.638438e+01
   1.370056e+01  -4.998016e+01
   6.196969e+01  -1.962236e+01
   4.534967e+01   7.916567e-01
   6.377292e+00  -3.405142e-01
  -5.898723e+00  -1.110347e+01
   1.831215e+01  -1.066194e+01
   4.399368e+01   1.027628e+01
   3.057554e+01   3.842154e+01
  -2.182528e+01   5.198620e+01
  -6.825553e+01   3.086189e+01
  -6.125127e+01  -2.366304e+01
   1.477947e+00  -7.627003e+01
   7.072382e+01  -8.071439e+01
   9.368403e+01  -2.542639e+01
   5.947411e+01   4.726852e+01
   8.340463e+00   8.211876e+01
  -1.555741e+01   6.631527e+01
  -9.852488e+00   3.551976e+01
  -7.455240e+00   2.512595e+01
  -2.876835e+01   2.868761e+01
  -5.471931e+01   1.382207e+01
  -5.397554e+01  -2.770520e+01
  -2.013291e+01  -6.145213e+01
   2.244799e+01  -4.616630e+01
   4.393675e+01   7.257930e+00
   3.198183e+01   5.672430e+01
  -7.885764e+00   5.663539e+01
  -4.996833e+01   1.166638e+01
  -6.523413e+01  -3.694177e+01
  -3.895050e+01  -6.347925e+01
   8.409907e+00  -5.744666e+01
   3.653007e+01  -3.775205e+01
   3.552150e+01  -2.051156e+01
   3.239037e+01  -1.334374e+01
   5.632831e+01  -5.438795e+00
   8.787584e+01   1.871595e+01
   7.474631e+01   6.094755e+01
   1.049711e-01   9.384799e+01
  -8.135895e+01   9.093455e+01
  -1.059091e+02   3.705731e+01
  -6.130383e+01  -2.395975e+01
  -3.393588e+00  -5.309788e+01
   1.834633e+01  -3.655582e+01
  -4.305647e+00  -5.147459e+00
  -2.707006e+01   6.792467e+00
  -2.464893e+01  -1.301070e+01
   4.065862e-01  -3.194720e+01
   2.041677e+01  -2.008447e+01
   2.001439e+01   9.099798e+00
  -2.945635e+00   2.325969e+01
  -2.905026e+01  -9.930175e-01
  -3.414486e+01  -4.587281e+01
  -3.444885e+00  -6.957603e+01
   4.646189e+01  -4.688520e+01
   7.903489e+01   6.787979e+00
   6.450820e+01   4.990687e+01
   1.594612e+01   5.598587e+01
  -2.609637e+01   2.987839e+01
  -2.996633e+01   3.117450e+00
  -6.363201e+00  -1.241493e-01
   1.009599e+01   1.394535e+01
  -9.136177e-01   2.359435e+01
  -2.436347e+01   1.410794e+01
  -2.920895e+01  -4.499478e+00
  -7.128041e+00  -1.108837e+01
   1.569951e+01   2.136628e+00
   7.438013e+00   2.039230e+01
  -3.197948e+01   2.157967e+01
  -6.557730e+01  -2.170842e+00
  -5.585097e+01  -3.745943e+01
  -5.024959e+00  -5.892727e+01
   4.559392e+01  -5.120339e+01
   5.615627e+01  -1.933873e+01
   2.673584e+01   1.075041e+01
  -7.518468e+00   1.596542e+01
  -1.291283e+01  -2.451600e+00
   1.168691e+01  -1.822880e+01
   3.965931e+01  -8.439998e+00
   4.228684e+01   2.019935e+01
   1.579632e+01   3.929592e+01
  -1.680262e+01   3.062679e+01
  -2.789008e+01   6.206587e+00
  -1.200012e+01  -6.273489e+00
   9.065369e+00   4.993473e+00
   7.579079e+00   2.448170e+01
  -1.931845e+01   2.649670e+01
  -4.510092e+01   3.160896e+00
  -4.038499e+01  -2.861004e+01
  -5.208044e+00  -4.447098e+01
   3.025169e+01  -3.216841e+01
   3.685514e+01  -3.548073e+00
   1.518169e+01   1.910466e+01
  -9.370026e+00   2.088490e+01
  -1.426473e+01   6.527400e+00
  -2.223941e+00  -4.862210e+00
   6.122887e+00  -2.398412e+00
  -2.491142e+00   6.401944e+00
  -1.996999e+01   2.470072e+00
  -2.489459e+01  -1.854959e+01
  -4.401641e+00  -3.980054e+01
   3.054552e+01  -3.741591e+01
   5.270440e+01  -6.477710e+00
   4.392007e+01   3.249810e+01
   1.177049e+01   4.918886e+01
  -1.802121e+01   3.719433e+01
  -2.749357e+01   1.069064e+01
  -1.865674e+01  -6.407886e+00
  -1.086121e+01  -6.233821e+00
  -1.259959e+01   2.269427e+00
  -1.769243e+01   3.947733e-02
  -1.128987e+01  -1.415770e+01
   8.054035e+00  -2.404910e+01
   2.803037e+01  -1.504616e+01
   2.559018e+01   1.133920e+01
  -2.717379e+00   3.095229e+01
  -3.804513e+01   2.231307e+01
  -4.786933e+01  -1.255076e+01
  -2.091365e+01  -4.631539e+01
   2.628597e+01  -4.985183e+01
   5.693743e+01  -2.143496e+01
   5.267942e+01   1.635101e+01
   2.244875e+01   3.589184e+01
  -5.998561e+00   3.081215e+01
  -1.729209e+01   1.821868e+01
  -1.516745e+01   1.502715e+01
  -1.318099e+01   2.094424e+01
  -2.068625e+01   1.872422e+01
  -2.980011e+01  -2.911108e+00
  -2.730661e+01  -3.384350e+01
  -6.208973e+00  -5.060978e+01
   2.234541e+01  -3.789213e+01
   3.801476e+01  -3.661348e+00
   2.857569e+01   2.717688e+01
   3.236384e+00   3.466761e+01
  -1.535910e+01   1.916197e+01
  -1.332009e+01  -1.862049e+00
   6.949550e-01  -1.148191e+01
   5.539587e+00  -8.322071e+00
  -6.777636e+00  -2.096409e+00
  -1.981861e+01  -1.990822e+00
  -1.215344e+01  -7.798676e+00
   1.573371e+01  -1.016112e+01
   3.815853e+01  -2.396477e+00
   3.146962e+01   1.229573e+01
  -3.113925e-01   2.204333e+01
  -2.890906e+01   1.752356e+01
  -3.117203e+01   1.744130e+00
  -1.021924e+01  -1.170720e+01
   1.163324e+01  -1.092211e+01
   1.681995e+01   2.916993e+00
   5.671870e+00   1.556507e+01
  -8.410711e+00   1.435297e+01
  -1.489941e+01   8.068676e-01
  -1.338347e+01  -1.091426e+01
  -1.047599e+01  -8.913412e+00
  -1.159686e+01  -5.943176e-02
  -1.406467e+01  -5.124204e-01
  -1.053755e+01  -1.656080e+01
   5.341381e+00  -3.404546e+01
   2.830085e+01  -3.223342e+01
   4.125746e+01  -7.625841e+00
   2.992961e+01   2.085451e+01
   1.157876e+00   3.005460e+01
  -2.055127e+01   1.681774e+01
  -1.435101e+01  -1.351716e+00
   1.227504e+01  -4.795545e+00
   2.982030e+01   8.050835e+00
   1.614874e+01   2.317696e+01
  -1.833136e+01   2.504383e+01
  -4.228784e+01   1.102331e+01
  -3.514143e+01  -8.515736e+00
  -6.457841e+00  -1.894964e+01
   1.453083e+01  -1.412557e+01
   1.070375e+01  -1.029698e-01
  -9.353606e+00   7.121797e+00
  -2.092326e+01  -3.688046e+00
  -9.533649e+00  -2.498300e+01
   1.635529e+01  -3.476075e+01
   3.429648e+01  -1.679024e+01
   2.899784e+01   1.900217e+01
   5.541394e+00   4.191839e+01
  -1.744004e+01   3.127229e+01
  -2.399561e+01  -1.995159e+00
  -1.310858e+01  -2.592473e+01
   3.326429e+00  -2.253119e+01
   1.239886e+01  -3.672314e+00
   9.928577e+00   6.615600e+00
   2.876581e+00   1.939718e+00
   1.412176e+00  -3.333294e+00
   7.644650e+00   4.386532e+00
   1.331960e+01   1.872851e+01
   6.438383e+00   2.249022e+01
  -1.286786e+01   1.056323e+01
  -2.924908e+01  -6.016030e+00
  -2.602652e+01  -1.436146e+01
  -4.594202e+00  -1.257422e+01
   1.595033e+01  -6.705095e+00
   1.799990e+01  -1.330300e+00
   4.248413e+00   2.769996e+00
  -6.833448e+00   4.524849e+00
  -4.727907e+00   2.632591e+00
   2.077531e+00  -6.022357e-01
  -1.041489e+00  -6.152028e-01
  -1.425607e+01   5.031798e-01
  -2.072953e+01  -5.066666e+00
  -6.543475e+00  -1.832534e+01
   2.135552e+01  -2.688460e+01
   4.053218e+01  -1.657369e+01
   3.472177e+01   1.046239e+01
   9.113937e+00   3.371151e+01
  -1.597051e+01   3.465617e+01
  -2.462088e+01   1.565382e+01
  -1.724354e+01  -3.844319e+00
  -5.834863e+00  -8.690025e+00
  -6.549170e-01  -3.150646e+00
  -3.162336e+00  -1.503470e+00
  -6.563482e+00  -1.008641e+01
  -4.094366e+00  -1.937516e+01
   6.217150e+00  -1.566115e+01
   1.728058e+01   2.530102e+00
   1.835948e+01   2.112653e+01
   4.128352e+00   2.362486e+01
  -1.627694e+01   8.251126e+00
  -2.427319e+01  -1.214759e+01
  -1.026995e+01  -2.184369e+01
   1.329493e+01  -1.554768e+01
   2.320876e+01  -4.101022e-01
   1.117696e+01   1.209246e+01
  -7.010690e+00   1.409482e+01
  -9.366134e+00   6.672509e+00
   4.824069e+00  -2.142782e+00
   1.500266e+01  -2.876154e+00
   5.378607e+00   6.001494e+00
  -1.573337e+01   1.516570e+01
  -2.640802e+01   1.224074e+01
  -1.707343e+01  -3.713879e+00
   1.687357e+00  -1.911803e+01
   1.301787e+01  -1.905285e+01
   1.127967e+01  -3.832953e+00
   2.817176e+00   1.120573e+01
  -4.959681e+00   1.140651e+01
  -8.499437e+00  -1.028989e+00
  -6.800954e+00  -1.130472e+01
  -2.238491e-01  -9.060622e+00
   7.255977e+00   4.459203e-01
   9.296669e+00   5.150751e+00
   4.567372e+00   8.777469e-01
  -1.305872e+00  -5.024650e+00
  -1.544884e+00  -2.645652e+00
   2.116650e+00   6.571145e+00
   1.910993e+00   1.182629e+01
  -4.834091e+00   5.948177e+00
  -1.016967e+01  -6.489828e+00
  -4.766811e+00  -1.255289e+01
   8.236852e+00  -6.184836e+00
   1.455705e+01   6.259196e+00
   5.107258e+00   1.293257e+01
  -1.254371e+01   8.517164e+00
  -2.103989e+01  -1.769644e+00
  -1.127691e+01  -9.831932e+00
   6.574744e+00  -1.109607e+01
   1.475021e+01  -6.861401e+00
   6.831589e+00  -9.185280e-01
  -5.812629e+00   2.352503e+00
  -7.636675e+00  -1.385028e-01
   3.900899e+00  -5.723211e+00
   1.591491e+01  -5.960051e+00
