
 $NMID
 id='ANONYMOUS ', fmtdat='(2E16.6)'
 volume=1.0
 tramp=1.0
 $END
  -2.745080e+03  -1.977451e+02
  -1.853523e+03  -1.246692e+03
  -3.426002e+02  -1.780646e+03
   9.343092e+02  -1.402796e+03
   8.663810e+02  -5.306168e+02
   3.162797e+02   9.633518e+01
  -1.734267e+02   1.008617e+02
  -7.556094e+00  -4.375311e+02
   2.384578e+02  -5.208739e+02
   4.647171e+02  -9.431786e+01
   2.846527e+02   2.468800e+02
   1.402812e+02   4.238776e+02
  -1.461359e+02   2.732981e+02
  -1.301289e+02  -2.685858e+02
   1.819175e+00  -4.663768e+02
   3.398557e+02  -1.182742e+02
   3.097722e+02   3.762072e+02
  -2.600336e+01   6.233473e+02
  -3.617434e+02   3.860811e+02
  -4.345660e+02  -2.354488e+01
  -2.038851e+02  -3.129514e+02
   5.219776e+01  -2.137388e+02
   1.764508e+01  -9.714870e+01
  -1.852638e+02  -1.708028e+02
  -2.129276e+02  -2.905699e+02
   1.019980e+02  -3.118858e+02
   4.144694e+02  -5.396485e+01
   4.625609e+02   2.176780e+02
   1.324063e+02   2.675650e+02
  -2.503965e+02   1.119300e+02
  -3.666390e+02  -1.536452e+02
  -1.177263e+02  -3.024747e+02
   2.172652e+02  -2.699178e+02
   3.547895e+02  -1.045126e+02
   2.520477e+02   1.036217e+02
   8.516430e+01   2.460036e+02
   4.110437e+01   1.579646e+02
   1.121425e+02  -3.428140e+01
   1.717259e+02  -4.145871e+01
   9.780849e+01   1.520190e+02
  -6.468165e+01   3.767967e+02
  -1.978563e+02   2.940531e+02
  -1.955779e+02  -7.879892e+00
  -5.284346e+01  -1.944895e+02
   1.053176e+02  -6.092347e+01
   8.774708e+01   2.398499e+02
  -1.366540e+02   2.989782e+02
  -3.683523e+02   1.558221e+01
  -3.789455e+02  -3.342687e+02
  -1.176284e+02  -4.035345e+02
   2.462408e+02  -1.949122e+02
   4.144166e+02   6.307126e+01
   2.867607e+02   1.772723e+02
  -6.369898e+00   1.544342e+02
  -2.061984e+02   8.918629e+01
  -1.884471e+02   4.237962e+01
  -5.113537e+01   1.118523e+01
   1.345009e+01   3.613442e+00
  -6.598822e+01   5.204586e+00
  -1.681728e+02  -3.484895e+01
  -1.076000e+02  -1.387651e+02
   1.311196e+02  -2.187375e+02
   3.349743e+02  -1.400212e+02
   2.741461e+02   1.067566e+02
  -3.357052e+01   3.398884e+02
  -3.183504e+02   3.503611e+02
  -3.501737e+02   1.195503e+02
  -1.717757e+02  -1.613722e+02
  -1.380544e+01  -2.914493e+02
   9.660824e-02  -2.530083e+02
  -3.232796e+01  -1.724678e+02
   3.388333e+01  -1.423967e+02
   1.812638e+02  -1.169019e+02
   2.649213e+02  -7.376478e+00
   1.959085e+02   1.579851e+02
   3.141575e+01   2.419953e+02
  -1.139962e+02   1.453663e+02
  -1.579712e+02  -7.162787e+01
  -8.719321e+01  -2.294516e+02
   7.186756e+01  -2.024148e+02
   2.222012e+02  -2.435028e+01
   2.530675e+02   1.712917e+02
   1.309952e+02   2.588049e+02
  -4.571431e+01   2.252891e+02
  -1.378956e+02   1.416862e+02
  -1.252083e+02   9.133843e+01
  -1.426163e+02   7.455210e+01
  -2.709017e+02   2.580836e+01
  -3.838552e+02  -1.060474e+02
  -2.841883e+02  -2.939093e+02
   5.117716e+01  -4.049002e+02
   3.816784e+02  -3.437672e+02
   4.425141e+02  -1.214091e+02
   2.328461e+02   1.162031e+02
  -1.630896e+01   2.173076e+02
  -8.289010e+01   1.497540e+02
   1.880523e+01   2.940339e+01
   1.152459e+02  -1.040340e+01
   9.023452e+01   4.987525e+01
  -1.420549e+01   1.078789e+02
  -9.082606e+01   6.529500e+01
  -6.719964e+01  -4.602874e+01
   3.919369e+01  -9.247306e+01
   1.349849e+02   1.875496e+01
   1.267385e+02   2.119378e+02
  -2.474359e+01   3.075237e+02
  -2.331324e+02   1.909989e+02
  -3.403494e+02  -6.341654e+01
  -2.486740e+02  -2.582115e+02
  -2.873730e+01  -2.574486e+02
   1.335505e+02  -1.127492e+02
   1.262315e+02   9.386420e+00
   1.518672e+01   6.959593e+00
  -4.138677e+01  -7.011059e+01
   2.257854e+01  -1.014168e+02
   1.197621e+02  -4.014191e+01
   1.205789e+02   4.074690e+01
   1.197621e+01   4.700851e+01
  -7.913891e+01  -2.881060e+01
  -2.540637e+01  -9.942236e+01
   1.529037e+02  -7.759811e+01
   2.873618e+02   4.215669e+01
   2.273694e+02   1.833285e+02
  -1.673715e+00   2.493444e+02
  -2.149292e+02   1.954727e+02
  -2.474066e+02   6.217891e+01
  -1.102296e+02  -4.940052e+01
   3.576440e+01  -6.013933e+01
   4.933606e+01   1.264433e+01
  -6.097321e+01   6.404470e+01
  -1.666466e+02   1.255424e+01
  -1.559136e+02  -1.036177e+02
  -3.672659e+01  -1.648170e+02
   8.375142e+01  -1.079256e+02
   1.042131e+02  -1.774713e+00
   2.622301e+01   3.397876e+01
  -4.867054e+01  -3.475472e+01
  -1.862632e+01  -1.197707e+02
   1.065763e+02  -1.126005e+02
   2.042184e+02   2.279344e+00
   1.611322e+02   1.375512e+02
  -2.020041e+00   1.895135e+02
  -1.459629e+02   1.265648e+02
  -1.522643e+02   5.586971e+00
  -4.319118e+01  -7.992478e+01
   5.684909e+01  -7.733239e+01
   5.878035e+01  -1.787181e+01
  -7.798337e+00   2.116227e+01
  -4.166373e+01   3.422760e-01
   9.231615e+00  -3.301668e+01
   9.196801e+01  -3.203378e+00
   1.037376e+02   9.512955e+01
   2.640864e+00   1.737791e+02
  -1.469413e+02   1.368282e+02
  -2.252503e+02  -9.309835e+00
  -1.662352e+02  -1.610491e+02
  -2.027616e+01  -2.085499e+02
   9.926016e+01  -1.360518e+02
   1.178123e+02  -2.307152e+01
   6.676892e+01   3.855539e+01
   3.131438e+01   2.446656e+01
   5.221141e+01  -1.239735e+01
   8.441015e+01  -3.637043e+00
   5.735239e+01   5.882559e+01
  -3.920016e+01   1.051659e+02
  -1.257394e+02   6.355234e+01
  -1.064255e+02  -5.097425e+01
   2.378081e+01  -1.307482e+02
   1.671586e+02  -8.020754e+01
   1.935890e+02   7.649594e+01
   6.451161e+01   2.076187e+02
  -1.307306e+02   1.979928e+02
  -2.499697e+02   5.826086e+01
  -2.147681e+02  -9.324298e+01
  -7.912287e+01  -1.521609e+02
   4.255175e+01  -1.185704e+02
   8.086382e+01  -6.794293e+01
   6.179955e+01  -6.167448e+01
   5.216150e+01  -8.558448e+01
   8.380007e+01  -7.083920e+01
   1.207976e+02   2.020398e+01
   1.041301e+02   1.450801e+02
   1.376878e+01   2.076128e+02
  -1.000946e+02   1.456607e+02
  -1.551045e+02  -2.013678e+00
  -1.059297e+02  -1.264609e+02
   4.563789e+00  -1.438199e+02
   7.928743e+01  -6.578492e+01
   6.023434e+01   2.395865e+01
  -9.708808e+00   5.626765e+01
  -3.444876e+01   3.407687e+01
   2.058123e+01   9.595335e+00
   8.089632e+01   1.690358e+01
   4.870291e+01   3.940071e+01
  -7.248082e+01   3.592468e+01
  -1.672144e+02  -9.245666e+00
  -1.309543e+02  -6.766991e+01
   1.180513e+01  -9.305144e+01
   1.327485e+02  -6.178530e+01
   1.336002e+02   4.597564e+00
   3.648817e+01   5.348035e+01
  -5.699564e+01   4.318224e+01
  -7.413411e+01  -1.734591e+01
  -2.360558e+01  -7.124715e+01
   3.734793e+01  -6.491758e+01
   6.464425e+01  -4.580800e+00
   5.837801e+01   4.692378e+01
   4.500045e+01   4.075879e+01
   4.805591e+01   2.121379e+00
   6.021012e+01   1.912792e+00
   4.528633e+01   6.901725e+01
  -2.439612e+01   1.422390e+02
  -1.233341e+02   1.331789e+02
  -1.749996e+02   2.682453e+01
  -1.209680e+02  -9.170816e+01
   4.521184e+00  -1.251718e+02
   9.077179e+01  -6.464402e+01
   5.802548e+01   9.894317e+00
  -5.349741e+01   1.753566e+01
  -1.194331e+02  -4.113439e+01
  -5.864184e+01  -9.904209e+01
   8.093426e+01  -9.520751e+01
   1.730603e+02  -2.946584e+01
   1.391795e+02   4.664502e+01
   2.243257e+01   7.837061e+01
  -6.251404e+01   4.942033e+01
  -4.526518e+01  -6.611443e+00
   3.752035e+01  -2.960836e+01
   8.550271e+01   1.832382e+01
   3.757290e+01   1.051710e+02
  -6.999922e+01   1.419651e+02
  -1.416032e+02   6.546149e+01
  -1.144166e+02  -8.189757e+01
  -1.340614e+01  -1.736878e+02
   7.767231e+01  -1.242960e+02
   9.541860e+01   1.603407e+01
   4.406487e+01   1.127620e+02
  -2.190811e+01   9.182069e+01
  -5.170852e+01   9.623556e+00
  -3.720394e+01  -3.066959e+01
  -9.534589e+00  -6.627625e+00
  -6.255502e+00   1.344751e+01
  -3.259456e+01  -2.395253e+01
  -5.214527e+01  -8.380471e+01
  -2.118492e+01  -9.285504e+01
   5.739273e+01  -3.490168e+01
   1.213232e+02   3.589063e+01
   1.054317e+02   6.525334e+01
   1.491582e+01   5.139555e+01
  -7.089500e+01   2.426491e+01
  -7.865167e+01   1.563440e+00
  -1.975524e+01  -1.464319e+01
   2.986969e+01  -1.945258e+01
   2.204088e+01  -8.682283e+00
  -8.959881e+00   4.510965e+00
   6.579905e-01   2.826579e+00
   5.569127e+01  -2.921028e+00
   8.590961e+01   2.005871e+01
   2.837851e+01   7.551480e+01
  -9.097199e+01   1.097516e+02
  -1.739013e+02   6.422409e+01
  -1.470301e+02  -4.869921e+01
  -3.397652e+01  -1.428164e+02
   7.422943e+01  -1.429923e+02
   1.081697e+02  -6.346842e+01
   7.319309e+01   1.546837e+01
   2.485826e+01   3.524551e+01
   5.249326e+00   1.441685e+01
   1.433581e+01   1.077698e+01
   2.466081e+01   4.717887e+01
   1.190890e+01   8.346593e+01
  -2.755723e+01   6.478526e+01
  -6.963073e+01  -1.243559e+01
  -7.381256e+01  -8.938617e+01
  -1.825548e+01  -1.002608e+02
   6.366947e+01  -3.458450e+01
   9.747391e+01   5.312168e+01
   4.123008e+01   9.413637e+01
  -5.650790e+01   6.370415e+01
  -9.791128e+01  -5.439701e+00
  -4.533857e+01  -5.816343e+01
   3.227954e+01  -6.202938e+01
   4.225880e+01  -2.624247e+01
  -1.845496e+01   9.316290e+00
  -6.112807e+01   9.612525e+00
  -1.889432e+01  -2.627225e+01
   7.043883e+01  -5.868391e+01
   1.127633e+02  -4.348590e+01
   6.843216e+01   1.984877e+01
  -1.229415e+01   7.855027e+01
  -5.753090e+01   7.640150e+01
  -4.698451e+01   1.430869e+01
  -1.023489e+01  -4.620743e+01
   2.097235e+01  -4.716797e+01
   3.463270e+01   4.359842e+00
   2.725037e+01   4.826405e+01
  -4.511325e-01   3.951087e+01
  -3.184023e+01  -3.564038e+00
  -3.986594e+01  -2.724546e+01
  -1.786725e+01  -8.349982e+00
   7.037252e+00   2.068219e+01
   7.545516e+00   1.450942e+01
  -8.219686e+00  -2.553531e+01
  -6.793646e+00  -5.235205e+01
   2.166904e+01  -2.812020e+01
   4.317042e+01   2.659195e+01
   1.955647e+01   5.497331e+01
  -3.493879e+01   2.745162e+01
  -6.130448e+01  -2.667812e+01
  -2.064899e+01  -5.461689e+01
   5.354724e+01  -3.522936e+01
   8.828334e+01   7.444779e+00
   4.773598e+01   3.932901e+01
  -2.615249e+01   4.494592e+01
  -6.045429e+01   2.982183e+01
  -2.940341e+01   7.158049e+00
   2.143258e+01  -6.651092e+00
   2.909125e+01   4.382627e-01
  -1.622546e+01   2.015922e+01
  -6.450956e+01   1.998548e+01
