
 $NMID
 id='ANONYMOUS ', fmtdat='(2E16.6)'
 volume=1.0
 tramp=1.0
 $END
   1.797686e+03   1.507224e+02
   8.692135e+02   7.216231e+02
  -6.227488e+01   8.438190e+02
  -6.840121e+02   4.503161e+02
  -4.092014e+02   1.269830e+02
   1.515958e+02  -1.056737e+02
   8.760270e+01   2.773807e+01
  -1.469069e+02   3.269366e+02
  -2.412292e+02   3.537264e+02
  -2.579135e+02   5.909995e+01
  -2.068369e+02  -3.131861e+02
   3.479688e+00  -2.540470e+02
   1.814260e+02  -8.760946e+00
   9.395387e+01   2.526254e+02
  -4.124307e+01   3.108456e+02
  -1.741044e+02  -1.809013e+01
  -1.583244e+02  -2.555550e+02
   7.696286e+01  -3.100437e+02
   2.516022e+02  -8.554219e+01
   2.424873e+02   5.645201e+01
   5.876839e+01   1.676326e+02
  -7.045217e+01   9.830565e+01
  -6.444369e+01   4.734567e+01
   2.349320e+01   1.506307e+01
   1.245528e+02   2.022530e+01
   4.911752e+01   1.101061e+02
  -1.460545e+02   7.021093e+01
  -2.893638e+02  -5.185026e+01
  -1.365604e+02  -1.719638e+02
   1.348451e+02  -1.383651e+02
   2.540433e+02   2.173302e+00
   1.418139e+02   1.467020e+02
  -8.007594e+01   1.702746e+02
  -1.832730e+02   8.335577e+01
  -1.408303e+02  -7.701126e+01
  -2.769868e+01  -1.667748e+02
   4.956774e+01  -1.210852e+02
   4.443699e+01   6.287632e+01
  -4.527089e+01   1.342208e+02
  -1.201404e+02   2.182185e+00
  -5.674905e+01  -2.148740e+02
   1.087297e+02  -2.209719e+02
   1.956246e+02   6.940185e+00
   9.593408e+01   1.649916e+02
  -7.022753e+01   1.041632e+02
  -1.204654e+02  -1.055809e+02
   1.600389e+01  -1.767150e+02
   1.819084e+02  -5.287334e+01
   2.210404e+02   1.320865e+02
   7.803836e+01   2.079234e+02
  -1.211763e+02   1.431975e+02
  -2.191378e+02  -8.944292e+00
  -1.454963e+02  -1.255911e+02
   2.904169e+01  -1.240259e+02
   1.330641e+02  -2.761748e+01
   8.552392e+01   5.764729e+01
  -2.300748e+01   4.278957e+01
  -4.479805e+01  -3.419966e+01
   3.768886e+01  -5.747944e+01
   1.022245e+02   9.102081e+00
   5.247808e+01   8.582587e+01
  -6.337287e+01   9.383898e+01
  -1.257177e+02   3.794752e+01
  -8.487194e+01  -3.753410e+01
   1.301001e+01  -1.029818e+02
   1.001389e+02  -1.266993e+02
   1.323344e+02  -6.962910e+01
   9.772877e+01   5.273941e+01
   2.539279e+01   1.443563e+02
  -2.524713e+01   1.313800e+02
  -2.413824e+01   5.672891e+01
  -1.017982e+01   1.874107e+01
  -3.626166e+01   3.611008e+01
  -8.682075e+01   3.315699e+01
  -9.934666e+01  -3.155320e+01
  -4.678468e+01  -9.615963e+01
   3.102486e+01  -8.454683e+01
   7.678691e+01   4.372308e-01
   6.456947e+01   8.557018e+01
  -6.962499e+00   9.780159e+01
  -9.766372e+01   3.457406e+01
  -1.312481e+02  -6.218378e+01
  -6.959263e+01  -1.218888e+02
   3.222498e+01  -1.155670e+02
   8.291935e+01  -5.896775e+01
   6.189128e+01  -2.321600e+01
   5.036202e+01  -2.058202e+01
   9.717357e+01  -1.284949e+01
   1.514116e+02   3.525437e+01
   1.213373e+02   1.150062e+02
  -8.942142e+00   1.661209e+02
  -1.434366e+02   1.551684e+02
  -1.856856e+02   7.266252e+01
  -1.225385e+02  -3.815860e+01
  -2.153934e+01  -1.108229e+02
   4.014150e+01  -9.567304e+01
   2.336029e+01  -1.627921e+01
  -3.409609e+01   3.208660e+01
  -6.059936e+01  -2.083381e+00
  -1.728570e+01  -6.296603e+01
   4.632091e+01  -5.701016e+01
   5.795377e+01   1.390328e+01
  -8.916146e-01   5.728092e+01
  -6.117450e+01   8.983147e+00
  -5.929154e+01  -8.391659e+01
   8.305639e+00  -1.255352e+02
   8.961950e+01  -7.725973e+01
   1.287580e+02   1.809976e+01
   1.065713e+02   9.122475e+01
   3.237368e+01   1.044741e+02
  -4.214225e+01   6.198332e+01
  -6.244828e+01   8.971468e+00
  -2.131204e+01  -8.816496e+00
   2.074495e+01   1.855349e+01
   7.497528e+00   4.620393e+01
  -4.423419e+01   3.416251e+01
  -6.262246e+01  -5.267211e+00
  -2.136805e+01  -2.393519e+01
   2.648914e+01  -2.004425e+00
   1.661493e+01   3.040339e+01
  -4.962051e+01   3.312483e+01
  -1.078906e+02  -3.467813e+00
  -9.801319e+01  -5.782352e+01
  -2.021458e+01  -9.876195e+01
   6.900621e+01  -9.707746e+01
   1.033391e+02  -4.674508e+01
   6.249409e+01   1.596344e+01
  -5.157485e+00   3.650160e+01
  -2.762315e+01   2.790914e+00
   1.533653e+01  -3.409160e+01
   7.263247e+01  -1.968450e+01
   7.970108e+01   3.725019e+01
   2.761066e+01   7.604973e+01
  -3.373425e+01   6.013698e+01
  -5.255060e+01   1.471500e+01
  -2.521393e+01  -9.600347e+00
   9.707696e+00   5.479838e+00
   9.377125e+00   3.475817e+01
  -3.386335e+01   4.031416e+01
  -7.917981e+01   5.413977e+00
  -7.323608e+01  -5.005502e+01
  -8.591685e+00  -8.305516e+01
   6.169273e+01  -6.299952e+01
   7.519876e+01  -6.037311e+00
   2.912660e+01   4.026434e+01
  -2.122122e+01   4.281566e+01
  -3.010733e+01   1.496996e+01
  -7.774606e+00  -7.169782e+00
   5.928228e+00  -5.476967e+00
  -7.388031e+00   2.502786e+00
  -2.996628e+01  -6.353869e+00
  -3.252214e+01  -3.579226e+01
   1.302412e-01  -6.321317e+01
   5.397886e+01  -5.604885e+01
   8.965256e+01  -6.570739e+00
   7.454824e+01   5.886239e+01
   1.604651e+01   8.999634e+01
  -3.936317e+01   6.567724e+01
  -5.232355e+01   1.342584e+01
  -3.042662e+01  -1.961864e+01
  -1.338252e+01  -1.464342e+01
  -1.913966e+01   2.434584e+00
  -2.898023e+01  -9.357062e-04
  -1.595162e+01  -2.151025e+01
   1.622696e+01  -3.482300e+01
   4.258059e+01  -1.930313e+01
   3.483580e+01   1.826952e+01
  -7.296406e+00   4.564540e+01
  -5.844397e+01   3.172953e+01
  -7.564233e+01  -2.413189e+01
  -3.426066e+01  -8.037315e+01
   4.235933e+01  -8.733072e+01
   1.009952e+02  -3.546447e+01
   9.719497e+01   3.361259e+01
   4.380325e+01   6.668629e+01
  -1.217541e+01   5.626669e+01
  -3.517064e+01   3.338315e+01
  -3.106830e+01   2.927081e+01
  -2.696840e+01   3.695053e+01
  -3.846917e+01   2.863161e+01
  -5.222186e+01  -1.002214e+01
  -4.491896e+01  -6.155420e+01
  -7.856472e+00  -8.789620e+01
   4.100191e+01  -6.477544e+01
   6.673935e+01  -5.032945e+00
   4.904982e+01   4.853006e+01
   4.513900e+00   6.007390e+01
  -2.671864e+01   3.161137e+01
  -2.253340e+01  -3.462359e+00
  -1.760920e-04  -1.718748e+01
   6.843436e+00  -1.154123e+01
  -1.164942e+01  -5.644749e+00
  -2.996889e+01  -9.544192e+00
  -1.768640e+01  -1.598527e+01
   2.481969e+01  -1.318039e+01
   6.080153e+01   1.846743e+00
   5.348998e+01   2.155569e+01
   3.547653e+00   3.350942e+01
  -4.726665e+01   2.657470e+01
  -5.435080e+01   3.377835e+00
  -1.698010e+01  -1.728000e+01
   2.310930e+01  -1.550995e+01
   2.862453e+01   7.785880e+00
   3.497715e+00   2.842354e+01
  -2.038018e+01   2.387065e+01
  -2.415269e+01  -1.404531e+00
  -1.794543e+01  -2.091103e+01
  -1.774588e+01  -1.639691e+01
  -2.396396e+01   1.206174e-02
  -2.592009e+01  -1.021137e+00
  -1.372426e+01  -2.915694e+01
   1.397542e+01  -5.810575e+01
   4.792000e+01  -5.312169e+01
   6.575504e+01  -9.378561e+00
   4.743729e+01   3.778313e+01
   4.321268e-01   4.975381e+01
  -3.560303e+01   2.414741e+01
  -2.482815e+01  -6.437959e+00
   2.140022e+01  -9.033040e+00
   5.187465e+01   1.537680e+01
   2.895499e+01   4.084023e+01
  -3.008289e+01   4.234351e+01
  -7.130848e+01   1.770551e+01
  -6.029799e+01  -1.489258e+01
  -1.309989e+01  -3.216300e+01
   2.293294e+01  -2.340300e+01
   1.694775e+01   3.547227e-02
  -1.691525e+01   9.703379e+00
  -3.555898e+01  -1.123220e+01
  -1.210838e+01  -4.765893e+01
   3.589952e+01  -5.997897e+01
   6.471397e+01  -2.408846e+01
   4.857693e+01   3.856335e+01
   3.908586e+00   7.590363e+01
  -3.281809e+01   5.509518e+01
  -3.974791e+01  -2.987230e+00
  -2.275738e+01  -4.514685e+01
   1.154962e+00  -4.006655e+01
   1.747262e+01  -7.815772e+00
   1.926205e+01   1.064209e+01
   9.699403e+00   1.678699e+00
   2.397012e+00  -7.752816e+00
   9.051764e+00   7.402800e+00
   2.171588e+01   3.519720e+01
   1.523491e+01   4.187270e+01
  -1.871959e+01   1.657497e+01
  -5.269510e+01  -1.559330e+01
  -4.930958e+01  -2.793202e+01
  -6.972660e+00  -2.015838e+01
   3.312407e+01  -8.862353e+00
   3.421499e+01  -2.095282e+00
   5.736295e+00   3.390342e+00
  -1.344627e+01   8.024839e+00
  -5.531380e+00   6.346485e+00
   7.363959e+00   3.388187e-02
  -2.691715e+00  -2.382446e+00
  -2.833700e+01  -1.575508e+00
  -3.543842e+01  -1.020734e+01
  -4.065959e+00  -3.095353e+01
   4.534123e+01  -4.264691e+01
   7.200747e+01  -2.173559e+01
   5.502606e+01   2.468731e+01
   9.260952e+00   6.048542e+01
  -3.149463e+01   5.746122e+01
  -4.422221e+01   2.368383e+01
  -3.044505e+01  -7.802984e+00
  -9.663045e+00  -1.449868e+01
   2.424507e-01  -4.878352e+00
  -4.252856e+00  -2.664254e+00
  -1.167790e+01  -1.823241e+01
  -7.022584e+00  -3.512342e+01
   1.220990e+01  -2.792792e+01
   3.121517e+01   7.195209e+00
   2.994890e+01   4.219471e+01
   2.265575e+00   4.401653e+01
  -3.148097e+01   9.953839e+00
  -3.976818e+01  -2.894025e+01
  -1.234295e+01  -4.075230e+01
   2.622268e+01  -2.229643e+01
   3.845151e+01   5.001738e+00
   1.515537e+01   2.159539e+01
  -1.332773e+01   2.201204e+01
  -1.362884e+01   1.128802e+01
   1.117790e+01  -1.035671e+00
   2.526608e+01  -3.552500e+00
   5.398820e+00   8.781665e+00
  -3.017443e+01   2.388870e+01
  -4.452189e+01   2.054185e+01
  -2.517548e+01  -6.107514e+00
   6.238367e+00  -3.244943e+01
   2.245935e+01  -3.068037e+01
   1.703217e+01  -2.497939e+00
   1.607986e+00   2.172646e+01
  -1.078026e+01   1.735209e+01
  -1.511753e+01  -6.669757e+00
  -9.930213e+00  -2.153696e+01
   2.143912e+00  -1.349493e+01
   1.361761e+01   3.477098e+00
   1.559871e+01   9.130510e+00
   8.079721e+00   6.473278e-01
   2.324648e-01  -6.904798e+00
  -1.431222e+00   1.366465e-01
  -7.829793e-01   1.529725e+01
  -5.170018e+00   2.029748e+01
  -1.290990e+01   5.529354e+00
  -1.398468e+01  -1.655269e+01
  -1.591420e+00  -2.401257e+01
   1.631686e+01  -8.721020e+00
   2.232069e+01   1.443980e+01
   6.122678e+00   2.371870e+01
  -2.159715e+01   1.291317e+01
  -3.507013e+01  -5.983915e+00
  -1.926485e+01  -1.738933e+01
   1.153670e+01  -1.704373e+01
   2.602403e+01  -9.775626e+00
   1.117708e+01  -2.073306e+00
  -1.252583e+01   6.856159e-01
  -1.404692e+01  -3.930163e+00
   1.050328e+01  -1.083772e+01
   3.334732e+01  -7.801786e+00
