
 $NMID
 id='ANONYMOUS ', fmtdat='(2E16.6)'
 volume=1.0
 tramp=1.0
 $END
  -5.937165e+02  -2.090046e+01
   6.577761e+01   1.098766e+02
  -1.155033e+02   2.722753e+00
   1.074165e+02   1.848155e+02
   1.251455e+02  -1.068127e+02
  -1.083311e+02  -1.912971e+01
   3.612898e+01  -2.692561e+00
   6.595186e+01  -4.898430e+01
  -8.598198e+01  -4.408949e+01
  -3.374977e+01  -1.359696e+00
  -3.234994e+00   5.253642e+01
   4.806090e+01  -7.190606e-01
   6.791611e+01  -4.515610e+01
  -4.475648e+01  -8.909153e+01
  -6.054244e+01   2.339837e+01
  -7.254747e+00  -2.564963e+01
  -2.370175e+01  -7.875574e+00
  -2.572657e+01   1.128181e+01
  -2.403603e+01   3.247224e+01
  -1.514338e+01   8.504943e+00
   2.838555e+01   1.272609e+01
   2.862915e+01  -1.541560e+01
  -9.452566e+00  -8.948351e+00
  -4.345250e+01   3.190178e-02
   3.452877e+00  -3.779117e+00
  -2.155830e+01   4.273108e-02
   8.637914e+00   2.745729e+01
   2.708271e+00  -2.375544e+01
  -1.755955e+01  -1.971865e+01
  -5.217200e+00  -8.102252e+00
  -2.886135e-01   6.314178e+00
  -9.216800e+00   9.864244e+00
  -7.784505e+00  -6.224199e+00
  -7.801588e+00  -4.631355e+00
  -1.137024e+01  -3.542720e+00
  -2.003446e+01   1.134801e+01
   5.035368e+00   1.867536e+01
   1.287630e+01   1.775335e+00
  -1.512824e+00   2.079284e+00
   3.850281e+00  -1.457462e-01
  -1.106000e+01  -3.779606e+00
  -4.040688e+00   2.435758e-01
  -9.307104e+00   6.060983e+00
  -9.351313e+00  -3.155008e+00
  -7.873214e+00  -1.800070e+00
   2.874555e+00  -2.174275e+00
   1.534129e+00   2.030936e-01
  -8.667921e+00   9.938976e-01
  -5.396380e+00  -4.820055e+00
  -4.800288e+00  -6.649431e+00
   5.396675e+00   5.080946e+00
   5.298013e+00   2.271535e+00
  -1.505322e+00  -2.665256e+00
  -4.015842e+00  -9.381007e+00
   8.844200e-01  -8.378784e+00
   4.670020e+00  -8.019662e-01
   3.398506e+00   2.645465e+00
  -7.966132e-01   1.537089e+00
   1.262632e+00  -3.827257e+00
   7.539320e+00  -5.552148e+00
   8.479718e+00  -1.964663e-01
   5.254368e-01   4.568849e+00
  -7.496841e+00   1.927694e+00
  -4.877403e+00  -3.986642e+00
   5.243479e+00  -3.518630e+00
   1.029982e+01   3.738521e+00
   4.904911e+00   8.190236e+00
  -3.336717e+00   3.416209e+00
  -5.286674e+00  -3.208051e+00
  -1.740101e+00  -2.344094e+00
   4.404312e-01   4.611204e+00
  -3.318737e+00   8.664231e+00
  -8.299863e+00   4.160940e+00
  -6.650088e+00  -3.478327e+00
  -1.474821e+00  -7.218626e+00
   2.348327e+00  -6.126810e+00
   7.232314e-01  -2.825047e+00
  -3.965221e+00  -5.459860e-01
  -5.246244e+00   3.376919e+00
  -2.212765e+00  -1.221574e-01
  -1.348306e+00  -2.223044e+00
  -2.027061e+00  -4.461839e+00
   2.420840e-01  -4.251299e+00
   1.569648e+00  -2.719955e+00
   3.163659e+00  -6.494667e-01
   6.724534e-02  -3.347265e-01
  -5.422914e-01   1.434239e-01
   3.064484e+00   1.575604e+00
   6.589061e+00   5.321751e-01
   1.549214e+00   6.989811e+00
  -2.759681e+00   6.600202e+00
  -1.033082e+01   4.519245e-01
  -7.087662e+00  -2.793301e+00
   5.225611e-01  -3.945396e+00
   5.056245e+00   2.652150e-01
   3.233862e+00   3.896520e+00
  -2.123926e+00   2.173475e+00
  -4.060749e+00  -7.461864e-01
  -2.556766e+00  -1.352048e+00
   1.643710e+00   1.624593e+00
   3.318713e+00   1.185309e+00
   6.922825e-01   5.615506e-01
  -2.117990e+00   6.759125e-01
  -3.025848e+00  -3.220297e+00
  -1.341965e+00  -4.892562e+00
   3.054876e+00  -5.902114e+00
   7.636808e+00  -1.734846e-01
   6.307973e+00   7.117041e+00
   1.044821e+00   9.693193e+00
  -4.937133e+00   4.810205e+00
  -5.075853e+00  -3.058677e+00
   2.976118e-03  -4.796325e+00
   2.821217e+00  -9.082136e-01
   5.129403e-01   4.900772e+00
  -3.983396e+00   4.859850e+00
  -4.966802e+00  -1.018785e+00
  -8.980594e-01  -5.244956e+00
   3.766448e+00  -4.232737e+00
   4.179347e+00   1.126012e+00
  -5.485695e-01   4.361103e+00
  -5.041055e+00   2.531412e+00
  -5.828038e+00  -2.235241e+00
  -1.632728e+00  -5.787899e+00
   4.359460e+00  -4.924766e+00
   7.216161e+00  -1.321459e+00
   4.810844e+00   2.623282e+00
  -4.522622e-01   3.364798e+00
  -2.709237e+00   9.293952e-01
  -5.668030e-01  -1.553396e+00
   3.996720e+00  -6.641279e-01
   4.871292e+00   3.643668e+00
   1.130441e+00   6.317073e+00
  -4.006491e+00   4.354553e+00
  -5.531470e+00  -1.131770e+00
  -2.195549e+00  -4.639347e+00
   2.231710e+00  -2.487720e+00
   3.411652e+00   2.216096e+00
   4.982517e-01   5.518984e+00
  -3.770475e+00   3.281240e+00
  -5.393219e+00  -2.127717e+00
  -2.687322e+00  -6.052065e+00
   1.868395e+00  -5.266766e+00
   4.412800e+00  -3.799909e-01
   2.882502e+00   3.209624e+00
  -1.025249e+00   3.164808e+00
  -3.196041e+00  -7.081419e-01
  -5.820760e-01  -3.754791e+00
   3.365311e+00  -2.682309e+00
   4.499031e+00   1.058783e+00
   1.261014e+00   3.924648e+00
  -2.875073e+00   2.466091e+00
  -2.975004e+00  -1.131627e+00
   1.223414e+00  -3.457900e+00
   4.437043e+00  -8.395329e-01
   4.657986e+00   3.984659e+00
  -4.551836e-01   5.809764e+00
  -5.466899e+00   4.702833e+00
  -6.371470e+00   2.619483e-01
  -3.462842e+00  -3.380186e+00
  -7.578872e-02  -3.495149e+00
   9.739169e-01  -1.976354e+00
   2.306450e-02   3.319559e-01
  -1.666685e+00   2.715220e-01
  -1.096803e+00  -9.363129e-01
   2.110949e+00  -2.919264e+00
   3.908595e+00  -1.807365e+00
   3.164704e+00   2.459064e+00
  -8.399468e-01   3.173060e+00
  -4.740101e+00   1.088964e+00
  -4.224564e+00  -4.245413e+00
   2.143620e+00  -5.728734e+00
   6.997999e+00  -2.179296e+00
   7.426912e+00   3.795019e+00
   2.201233e+00   6.600059e+00
  -2.915855e+00   4.887978e+00
  -4.020063e+00   1.327309e+00
  -2.371435e+00  -9.895243e-01
  -5.314527e-01   5.645062e-01
  -3.963960e-01   1.443585e+00
  -2.954049e+00   7.068111e-01
  -3.834657e+00  -2.064655e+00
  -1.816084e+00  -4.403696e+00
   1.869911e+00  -4.410504e+00
   4.260925e+00  -1.499251e+00
   3.421455e+00   2.371326e+00
  -1.627834e-01   4.164172e+00
  -3.441083e+00   2.228245e+00
  -4.227447e+00  -1.821798e+00
  -1.411281e+00  -4.470774e+00
   2.154065e+00  -3.208618e+00
   3.118469e+00  -1.094484e-01
   1.089663e+00   1.132210e+00
  -1.011302e+00  -6.272827e-01
   2.284156e-01  -2.525277e+00
   3.655520e+00  -1.216063e+00
   4.906710e+00   2.945179e+00
   1.323347e+00   5.634393e+00
  -3.868653e+00   4.374510e+00
  -5.920778e+00  -5.472761e-02
  -3.124791e+00  -3.789469e+00
   1.343023e+00  -3.881092e+00
   3.497617e+00  -8.885045e-01
   2.325409e+00   2.359543e+00
  -7.642337e-01   3.279953e+00
  -2.922156e+00   1.223926e+00
  -2.510371e+00  -1.228273e+00
  -3.903168e-01  -2.652259e+00
   1.058934e+00  -1.513706e+00
   9.379082e-01   5.429049e-01
  -8.756908e-01   8.877805e-01
  -1.629740e+00  -1.269983e+00
   3.497432e-01  -3.295265e+00
   3.547920e+00  -2.714270e+00
   4.702907e+00   8.079787e-01
   2.249651e+00   4.175093e+00
  -1.836338e+00   3.692264e+00
  -3.537940e+00   3.046182e-01
  -1.289241e+00  -2.458286e+00
   2.020877e+00  -2.220959e+00
   3.204727e+00   1.410846e+00
   9.585333e-01   3.492353e+00
  -2.506922e+00   2.731473e+00
  -3.650071e+00  -2.167441e-01
  -1.965537e+00  -2.300626e+00
   5.237439e-01  -2.079059e+00
   1.385473e+00  -2.627328e-01
  -8.381538e-02   9.225799e-01
  -1.817596e+00   2.402182e-01
  -1.943777e+00  -1.982373e+00
   3.845996e-01  -3.574004e+00
   3.430745e+00  -2.469842e+00
   4.138784e+00   1.285966e+00
   1.527035e+00   4.216734e+00
  -2.559301e+00   3.830382e+00
  -4.248844e+00  -5.047014e-02
  -1.898086e+00  -3.585037e+00
   1.822313e+00  -3.558729e+00
   3.417588e+00  -5.264604e-01
   1.871781e+00   2.064911e+00
  -6.141181e-01   1.811100e+00
  -1.035422e+00  -1.270303e-01
   6.764377e-01  -8.812310e-01
   2.178624e+00   7.871886e-01
   1.107300e+00   3.177955e+00
  -2.009041e+00   3.589081e+00
  -4.324674e+00   9.452771e-01
  -3.925461e+00  -2.526264e+00
  -8.981811e-01  -4.318866e+00
   2.204231e+00  -3.206069e+00
   3.329647e+00  -1.308281e-01
   1.624987e+00   2.226571e+00
  -7.781602e-01   2.132906e+00
  -1.900165e+00   3.905461e-01
  -9.071485e-01  -1.462558e+00
   8.216536e-01  -1.273078e+00
   1.095638e+00   4.099399e-01
  -9.803734e-01   1.439162e+00
  -2.382356e+00  -3.701199e-01
  -1.111017e+00  -3.297342e+00
   2.484793e+00  -3.779763e+00
   5.188923e+00  -7.400392e-01
   4.233275e+00   3.833045e+00
   3.476145e-02   5.586413e+00
  -3.796502e+00   3.426206e+00
  -4.278329e+00  -3.769521e-01
  -1.911213e+00  -2.419245e+00
   4.017296e-01  -1.592443e+00
   8.562779e-01  -3.136996e-02
  -2.695366e-01   4.888077e-01
  -1.005634e+00  -7.113638e-01
  -3.585056e-01  -1.889248e+00
   1.081152e+00  -1.715014e+00
   2.270407e+00   1.221800e-01
   1.490763e+00   2.449037e+00
  -9.235958e-01   2.943698e+00
  -3.109164e+00   7.790094e-01
  -2.781035e+00  -2.440163e+00
   9.449744e-02  -3.776496e+00
   3.083512e+00  -1.811816e+00
   2.990284e+00   1.557566e+00
   2.493702e-01   2.966691e+00
  -2.261769e+00   1.326621e+00
  -1.760314e+00  -1.183549e+00
   7.834930e-01  -1.697537e+00
   2.175432e+00   3.702439e-01
   6.628106e-01   2.338949e+00
  -2.082393e+00   1.965090e+00
  -3.234585e+00  -3.438748e-01
  -1.588013e+00  -2.436680e+00
   1.109077e+00  -2.345107e+00
   2.409105e+00  -3.965414e-01
   1.597691e+00   1.771878e+00
  -7.822214e-01   2.156934e+00
  -2.312984e+00   5.655654e-01
  -1.865542e+00  -1.628190e+00
   3.225936e-01  -2.535462e+00
   2.080577e+00  -9.983390e-01
   1.764115e+00   1.457969e+00
  -2.163820e-01   2.200391e+00
  -1.881354e+00   4.779792e-01
  -1.137800e+00  -1.872474e+00
   9.461059e-01  -2.112666e+00
   2.087715e+00   9.948107e-02
   1.018792e+00   2.246935e+00
  -1.196249e+00   1.855948e+00
  -2.175136e+00  -5.411853e-01
  -6.217277e-01  -2.431272e+00
   1.770775e+00  -1.597678e+00
   2.326453e+00   9.973296e-01
   4.088496e-01   2.613280e+00
  -2.147268e+00   1.874536e+00
  -2.975938e+00  -4.783237e-01
  -1.391322e+00  -2.331022e+00
   9.461005e-01  -2.177711e+00
   1.917403e+00  -4.571494e-01
   8.833513e-01   1.003389e+00
  -9.861904e-01   8.227640e-01
  -1.378953e+00  -7.332271e-01
   5.486207e-02  -1.639412e+00
   1.778845e+00  -8.102563e-01
