
 $NMID
 id='ANONYMOUS ', fmtdat='(2E16.6)'
 volume=1.0
 tramp=1.0
 $END
  -3.533934e+02   2.706601e+01
   1.189218e+02   7.296767e+01
  -1.143771e+02  -4.820319e+01
   1.293184e+02   6.563440e+01
   1.562137e+01  -1.496759e+02
  -1.126990e+02   8.021267e+01
   1.122574e+01   1.452168e+01
  -5.550693e+00   6.920474e+01
   5.152821e+01  -7.137582e+01
   1.649385e+01   1.531463e+00
  -8.516156e+00  -2.682695e+01
  -1.671298e+00   4.619498e+01
   7.397455e+00   3.470528e+01
  -1.894094e+01  -7.213915e+01
  -1.462738e+01  -1.011908e+01
   5.549425e+00  -1.813176e+01
   1.517388e+00   5.101322e+01
  -2.840770e+01   1.844938e+01
  -2.071508e+01  -3.970464e+01
  -3.095346e+01   1.226334e+01
   1.666953e+01  -1.957934e+00
   2.589117e+01   2.423421e+01
   1.132646e+01   2.229765e+01
  -5.993072e+00  -8.493430e+00
  -2.293257e+01  -1.590046e+01
   2.393616e+01   1.651830e+00
   1.533259e+01   2.028018e+00
   3.025073e+01   1.686231e+01
  -8.079501e+00  -2.470899e+00
  -1.180942e+01   3.068036e+00
  -6.899511e+00  -1.560768e+01
   1.020867e+01  -1.304177e+00
   1.221534e+01   1.552817e+01
   1.055629e+00   1.318491e+01
   1.523505e-01  -5.323041e+00
  -9.249162e+00   9.656016e+00
   1.034960e+01   4.658630e+00
   4.005913e+00   4.724050e+00
   1.732898e+01  -5.181168e+00
  -5.161867e+00   5.591311e+00
  -1.606089e+00   1.223787e+01
  -5.772415e+00   3.845015e+00
  -1.182025e+00  -5.712862e+00
   2.609187e+00  -5.616266e+00
  -1.420907e+00  -1.558509e+00
  -3.942075e-01   1.412254e+01
  -1.106325e+01   5.372800e+00
  -8.414491e+00  -4.754370e+00
   1.333631e+00  -1.111808e+00
   3.344405e+00   3.259314e+00
   1.507978e+00   1.010722e+01
  -6.621483e+00   4.709352e+00
  -4.912122e+00  -1.315598e+00
   1.391636e+00  -1.586662e+00
   7.868107e-01   2.709315e+00
  -3.847961e+00   7.845322e+00
  -9.343870e+00   4.352306e+00
  -4.446080e+00  -3.822330e+00
   1.811203e+00  -4.502884e+00
   3.015240e+00   2.489212e+00
  -2.626202e+00   5.469043e+00
  -6.338445e+00   3.051787e-01
  -3.216695e+00  -5.547474e+00
   2.893743e+00  -1.999883e+00
   3.850471e+00   6.200270e+00
  -2.545025e+00   6.673501e+00
  -5.243839e+00  -6.967456e-01
  -8.448858e-01  -5.199103e+00
   4.645827e+00  -8.741772e-01
   2.403856e+00   5.527786e+00
  -4.898705e+00   5.864761e+00
  -6.555920e+00   8.886578e-04
  -3.554157e-02  -2.118849e+00
   4.297133e+00   1.478676e+00
  -7.357500e-02   3.482863e+00
  -6.135244e+00   1.306457e+00
  -4.880228e+00  -3.086269e+00
   1.782871e+00  -5.072966e+00
   4.613364e+00   6.352744e-01
   5.541453e-01   2.989629e+00
  -2.713569e+00   2.363646e+00
  -1.734279e+00  -4.739405e-01
   1.222116e+00  -2.138314e+00
   1.279247e+00   3.214870e+00
  -3.753384e-01   2.157093e+00
  -1.642520e-03   7.218097e-01
   2.185455e+00  -2.586050e-01
   8.843404e-01   4.739951e-01
  -3.227196e+00   3.521996e+00
  -9.247730e-01   2.751285e-02
  -1.475036e-01  -2.193207e+00
   3.984753e+00  -4.132952e+00
   8.159678e-01  -1.326496e-01
  -3.263067e-01   2.477177e+00
  -2.269736e+00   8.518091e-01
   6.882528e-01  -1.126317e+00
   3.067078e+00   1.490746e-01
   8.427501e-01   2.290437e+00
  -1.542208e+00   1.559928e+00
  -9.080223e-02   2.619648e-02
   1.182600e-01  -1.844949e+00
   4.645614e-02   1.250608e-01
  -2.321920e+00  -9.094850e-02
  -7.749409e-01  -2.948804e-01
   1.274694e+00  -2.065381e+00
   1.244426e+00  -5.525735e-01
  -4.690420e-01   4.653602e-01
  -1.130970e+00   8.399466e-01
  -6.094166e-01  -1.646097e-01
   1.791518e+00  -1.131342e+00
   1.481582e+00   6.687007e-01
  -9.626456e-01   1.120576e+00
  -1.243798e+00   3.591859e-02
  -9.955598e-01  -1.007125e+00
   4.554639e-01  -2.053456e-01
   4.924533e-01   4.098479e-01
   1.303956e-01   4.525018e-01
  -3.931200e-01  -1.536199e+00
  -5.546720e-01  -1.870982e+00
   3.736289e-01  -6.410189e-01
   5.406602e-01   8.474756e-01
   1.251856e+00   1.157493e+00
   3.930857e-01   3.884891e-01
  -2.136892e-01   1.135673e-01
  -2.435923e-01  -6.526322e-01
  -2.755736e-01  -7.770834e-01
  -4.343907e-02  -8.605061e-01
  -1.527954e-02   1.364699e-01
   2.267084e-01   7.862462e-01
   2.999969e-01  -5.707693e-03
   8.188029e-01  -4.754765e-01
   4.360108e-01  -1.923110e-01
  -3.643262e-01   5.248946e-01
  -2.699446e-01   9.386398e-02
  -2.702737e-01  -6.109954e-01
   3.777521e-01  -6.262681e-01
   3.315640e-01   3.479009e-01
   9.888238e-02   9.383173e-01
  -7.173614e-01  -2.142322e-01
  -5.011171e-01  -9.698614e-01
   5.875298e-01  -7.553958e-01
   9.546296e-01  -2.179975e-01
   7.146347e-01  -3.278545e-02
   9.371463e-02  -5.306947e-01
   3.262852e-01  -1.735351e-01
   4.310296e-01   6.970876e-01
   2.748424e-01   1.063834e+00
  -4.262821e-01   9.652115e-01
  -3.225555e-01  -4.359921e-02
   1.844771e-01  -5.308595e-01
   1.953640e-01  -1.209422e-01
  -8.237010e-01   4.000290e-01
  -1.569248e+00  -5.400165e-03
  -8.239475e-02  -6.239950e-01
   1.218567e+00  -8.845362e-01
   2.089124e+00  -7.089837e-01
   3.160183e-01  -1.354942e-01
  -7.741471e-01   4.433128e-01
  -6.563787e-01   2.912531e-02
   5.977449e-01   2.229346e-03
   1.138399e+00   3.701379e-01
   4.096804e-01   1.043109e-01
  -2.542400e-01  -4.578868e-02
   1.334112e-02   5.588466e-01
   2.707064e-01   1.490663e-02
   3.590384e-02   3.635138e-01
  -3.942100e-01  -6.956383e-01
   2.247699e-01  -6.646998e-02
   5.442998e-01  -4.628288e-01
   1.363757e-01  -2.304992e-01
  -3.413347e-01  -1.624285e-03
   3.616828e-01   1.513727e-01
   3.065191e-01   5.720473e-01
   6.823793e-01   2.430397e-01
  -3.348396e-01   1.823505e-01
  -6.182449e-01   9.133424e-02
   2.787565e-01  -4.209902e-01
   5.186850e-01  -1.781559e-01
   6.848720e-01  -7.724002e-02
   4.995279e-01  -7.733169e-03
   8.486863e-01  -4.705216e-03
   8.275940e-01  -7.192172e-02
   4.633888e-01   2.723853e-01
   1.583230e-01   3.090370e-01
   1.895174e-01   1.455166e-01
   2.493792e-01   2.097149e-01
   3.164041e-01   4.848329e-01
   5.379559e-02   6.112116e-01
  -8.215985e-02  -9.944438e-02
  -1.027011e-01  -4.742632e-01
  -1.278353e-01  -3.841828e-01
   1.904622e-01  -2.373871e-01
   2.886648e-01  -2.063214e-01
   5.984036e-01  -1.964386e-01
   4.077139e-01  -2.291700e-01
   1.608992e-01  -2.664443e-01
   1.414588e-01  -3.142184e-01
   3.955654e-01  -1.330467e-01
   6.406302e-01   3.480640e-01
   6.193601e-01   7.522249e-01
  -2.251619e-02   4.259852e-01
  -2.570533e-01  -2.214290e-01
  -1.501942e-01  -1.476266e-01
   1.400061e-01  -2.748424e-02
   2.967323e-01   3.073855e-01
   3.181423e-02   3.872769e-02
   2.263051e-01  -2.497096e-01
   2.955748e-01  -1.536373e-01
   3.479920e-01   2.512357e-01
   3.197304e-02   4.376542e-01
  -4.104504e-01  -7.986342e-03
  -1.190511e-01  -4.597212e-01
   1.489834e-02  -2.567757e-01
   6.342868e-02   7.594505e-02
   7.049303e-03   3.470141e-03
  -6.096053e-03  -4.311926e-01
   3.011141e-01  -5.774592e-01
   1.975395e-01  -3.753838e-01
   2.471813e-01   2.605040e-02
   2.283286e-01   2.474138e-01
   4.578242e-01   3.286089e-01
   4.708980e-01   1.053769e-01
   2.025847e-01   3.824126e-01
  -2.658849e-01   3.379193e-01
  -6.439365e-01   1.551723e-01
  -3.550130e-01   8.442305e-02
  -5.419676e-02   3.592717e-01
  -5.026322e-02  -5.671802e-02
  -2.700441e-01  -3.470587e-01
  -4.361607e-01  -3.239177e-01
  -8.121468e-02  -1.841502e-01
   5.996254e-02  -4.951148e-02
   5.804243e-02  -2.022276e-01
   2.195693e-01  -4.475040e-01
   4.769853e-01  -3.275791e-01
   3.110982e-01   9.386875e-02
   6.362463e-03   5.690985e-01
  -4.567670e-01   4.348732e-01
  -4.028774e-01  -8.716617e-02
  -2.209866e-01  -5.135237e-01
   6.203173e-02  -5.645708e-01
   5.351985e-02  -1.649879e-01
  -1.629465e-02   9.074079e-02
   1.872133e-01  -5.599326e-02
   2.483504e-01  -1.959978e-01
   1.174109e-01  -1.665711e-01
  -3.956087e-02   3.037017e-01
   3.167839e-02   4.700404e-01
  -1.521114e-02   3.745210e-01
  -2.945304e-01  -1.323678e-02
  -3.454657e-01  -2.115980e-01
  -4.425559e-01  -1.561237e-01
  -1.944365e-01  -8.791388e-02
   7.521000e-04  -1.038130e-01
   1.652586e-01  -2.460132e-01
   1.588506e-01  -3.815142e-01
   3.008471e-01  -3.368580e-01
   4.330507e-01  -2.545061e-01
   2.041960e-01   5.424185e-02
   6.461693e-02   2.039380e-01
   1.398864e-01   1.426857e-01
   4.141177e-01   4.928255e-02
   2.769157e-01   2.579181e-02
   1.044418e-01   4.007176e-01
  -1.292274e-01   3.378230e-01
  -1.512372e-01   2.120596e-01
  -2.414046e-01   4.907038e-02
  -1.873022e-01  -2.347331e-01
  -2.004979e-01  -3.588298e-01
  -1.262987e-02  -1.212591e-01
   1.629745e-01  -4.577401e-02
   9.612249e-02   1.800165e-02
   3.929380e-03   6.029875e-02
   1.538467e-01   1.011211e-01
   1.407720e-01   2.479066e-01
   1.432301e-01   9.521264e-02
  -1.590598e-01  -9.821706e-02
  -1.191570e-01  -1.350902e-01
   6.365618e-02  -2.477772e-01
   1.747921e-01   1.007233e-01
   1.238618e-01   4.037825e-01
   2.022487e-02   1.391956e-01
   6.597023e-02  -2.076879e-01
   3.485145e-01  -4.517234e-01
   2.926387e-01   8.353796e-02
  -1.311534e-01   5.888950e-01
  -2.590373e-01   4.810657e-01
  -7.786015e-02   1.255478e-01
   1.494905e-01  -2.149374e-01
   2.313763e-01  -1.085598e-01
  -2.185762e-01   1.701374e-01
  -2.771407e-01   3.551029e-01
  -4.312604e-01  -3.175393e-02
  -7.901055e-02  -3.700272e-01
   1.466803e-01  -2.733024e-01
   5.334023e-02  -1.657356e-01
   2.013378e-02   1.423069e-02
   1.411417e-01   5.300248e-02
   1.629007e-02  -1.157664e-01
   2.044399e-01  -1.854097e-01
   2.509479e-01   1.256226e-01
   3.091803e-01   2.466744e-01
  -4.307524e-02   5.630810e-01
  -3.453236e-01   4.452754e-01
  -4.097447e-01   2.789307e-02
  -1.596496e-01  -3.411398e-01
   2.192919e-01  -4.830426e-01
   3.448340e-01   1.404911e-01
  -9.296064e-03   4.015951e-01
  -2.839229e-01   7.566982e-02
  -2.882877e-01  -2.767027e-01
   1.575267e-01  -4.428723e-01
   3.458674e-01   4.213664e-02
   3.584954e-01   2.623037e-01
  -1.775774e-01   1.351588e-01
  -1.435450e-01  -4.078801e-02
  -5.374890e-02  -1.960789e-01
   5.447626e-02  -9.227208e-02
  -2.675675e-03   2.767703e-02
   8.308409e-02  -1.111585e-01
