
 $NMID
 id='ANONYMOUS ', fmtdat='(2E16.6)'
 volume=1.0
 tramp=1.0
 $END
   6.310655e+02  -2.682278e+01
   1.526908e+02   1.993968e+02
   3.454689e+01   3.226069e+02
  -1.543602e+02   3.213593e+02
  -1.382176e+02   6.992575e+01
  -1.206748e+02  -2.011069e+01
   8.961247e+01  -1.431442e+01
   7.162902e+01   5.999744e+01
  -1.110427e+02   1.236343e+02
  -7.806400e+01   9.486271e+01
  -6.630051e+01  -1.426296e+01
  -2.376386e+01  -1.333139e+02
   4.703374e+01  -7.750629e+01
   7.253288e+01   6.289903e+01
  -4.442270e+01   1.753310e+02
  -5.807774e+01   3.928869e+01
  -5.377454e+01  -8.584232e+01
  -3.239853e+01  -1.297971e+02
   9.080640e+01  -1.578298e+01
   6.342900e+01   1.957147e+01
   3.231696e+01   5.860562e+01
  -3.438101e+00   4.201598e+01
  -2.145551e+01   2.777079e+01
  -4.333661e+01   2.864876e+01
  -1.533375e+00   4.631798e+01
  -1.142035e+01   3.495575e+01
  -4.975234e+01   1.568730e+01
  -4.336229e+01  -1.835833e+01
  -4.552841e+01  -2.353021e+01
   2.076472e+01   5.725787e+00
   5.348543e+01   3.528097e+01
   1.239028e+00   2.586042e+01
  -3.965484e+01   1.858926e+01
  -3.117555e+01   8.160304e+00
  -2.447605e+01  -1.219479e+00
  -3.144955e+01  -1.972749e+01
  -1.038710e+01  -2.346396e+01
  -2.298328e+01  -1.581965e+01
  -2.465901e+01  -2.829983e+00
  -6.071458e+00  -1.282143e+01
  -4.820984e+00  -4.319239e+01
   1.143394e+01  -4.231493e+01
   9.929743e+00  -1.135372e+01
   1.984418e+00   1.880781e+01
  -8.158215e+00   1.142389e+01
   3.133182e+00  -3.278923e+01
   1.255968e+01  -2.963995e+01
   3.517813e+01   2.611766e-01
   3.985558e+01   3.011731e+01
   1.163264e+01   2.952065e+01
  -1.760496e+01   1.013649e+01
  -3.834444e+01  -2.644363e+00
  -3.079785e+01  -6.992650e+00
  -7.485112e+00  -1.327743e+01
   1.309392e+01  -2.036156e+01
   2.107789e+01  -1.700615e+01
   1.841503e+01  -6.176420e+00
   1.215951e+01   1.322005e+00
   1.113821e+01  -3.385000e-01
   1.354659e+01   2.468618e+00
   8.402128e+00   1.728750e+01
  -1.144583e+01   2.879981e+01
  -3.157229e+01   1.663230e+01
  -2.786882e+01  -1.386344e+01
   2.806781e+00  -3.509341e+01
   3.165362e+01  -2.947022e+01
   3.104646e+01  -6.651465e+00
   1.093106e+01   1.228722e+01
   1.632666e+00   1.944592e+01
   9.521534e+00   2.133337e+01
   1.160827e+01   2.400051e+01
  -8.787906e+00   2.441725e+01
  -3.233305e+01   1.459857e+01
  -3.099612e+01  -4.399798e+00
  -9.346343e+00  -2.077513e+01
   7.650843e+00  -2.344727e+01
   8.733783e+00  -9.605049e+00
   5.387679e+00   9.898848e+00
   2.559915e+00   2.290007e+01
  -3.364677e+00   1.785685e+01
  -1.974379e+01   2.082996e+00
  -3.149842e+01  -1.614015e+01
  -1.600953e+01  -2.646135e+01
   4.368016e+00  -2.724026e+01
   1.749065e+01  -1.943005e+01
   1.489786e+01  -1.266631e+01
   1.529044e+01  -8.754186e+00
   2.883621e+01   2.957771e-01
   4.370885e+01   1.596825e+01
   3.049034e+01   3.582496e+01
  -7.604080e+00   4.471019e+01
  -4.116203e+01   3.077822e+01
  -4.488582e+01   9.630496e+00
  -2.020227e+01  -1.173601e+01
   2.387100e+00  -1.973948e+01
   3.709559e+00  -1.353432e+01
  -5.049013e+00  -5.994541e+00
  -8.681816e+00  -4.331799e+00
  -2.902012e+00  -5.894558e+00
   4.739063e+00  -7.395860e+00
   7.017008e+00  -7.411310e+00
   2.922298e+00   1.994400e+00
  -4.950040e+00   7.811712e+00
  -1.096989e+01  -2.371672e+00
  -8.409577e+00  -2.168628e+01
   8.610351e+00  -3.267174e+01
   3.001471e+01  -1.705234e+01
   3.842554e+01   1.466841e+01
   2.371774e+01   3.526112e+01
  -4.145726e+00   2.865690e+01
  -1.886128e+01   8.477891e+00
  -1.316234e+01  -3.784956e+00
   7.053094e-01   6.639547e-01
   3.958921e+00   1.139410e+01
  -5.746289e+00   1.090644e+01
  -1.460319e+01   6.931085e-01
  -1.107745e+01  -7.340888e+00
   1.799779e+00  -4.515095e+00
   8.851978e+00   6.283296e+00
  -9.100293e-01   1.302210e+01
  -2.084573e+01   6.931723e+00
  -3.212187e+01  -8.328202e+00
  -2.141665e+01  -2.342557e+01
   5.156357e+00  -2.802980e+01
   2.632219e+01  -1.913087e+01
   2.667392e+01  -3.498755e+00
   1.001886e+01   7.530061e+00
  -4.556858e+00   6.422475e+00
  -3.730495e+00  -2.048172e+00
   8.319715e+00  -5.364760e+00
   1.732078e+01   2.702820e+00
   1.323867e+01   1.420305e+01
  -3.170369e-01   1.699175e+01
  -1.028404e+01   8.044292e+00
  -8.711400e+00  -2.727840e+00
   4.776371e-01  -2.612456e+00
   5.272683e+00   7.514903e+00
  -2.175641e+00   1.601186e+01
  -1.716464e+01   1.243320e+01
  -2.515204e+01  -3.407998e+00
  -1.679197e+01  -1.928408e+01
   2.439001e+00  -2.365699e+01
   1.695582e+01  -1.425260e+01
   1.594545e+01  -1.654969e-01
   3.522989e+00   7.774195e+00
  -5.986319e+00   5.451924e+00
  -3.345838e+00  -2.788597e-01
   5.092031e+00  -1.492244e+00
   6.997681e+00   3.253007e+00
  -1.731434e+00   6.536056e+00
  -1.272609e+01   3.756491e-02
  -1.306640e+01  -1.221523e+01
   1.862861e+00  -1.957238e+01
   1.895851e+01  -1.258159e+01
   2.520150e+01   5.355771e+00
   1.572469e+01   2.051313e+01
  -1.868078e+00   2.308204e+01
  -1.275426e+01   1.238521e+01
  -1.244021e+01  -6.255459e-01
  -6.684860e+00  -4.842121e+00
  -3.099683e+00  -1.209912e+00
  -6.049433e+00   2.386610e+00
  -1.017886e+01   1.302719e-02
  -7.037885e+00  -8.363222e+00
   5.402628e+00  -1.426763e+01
   1.538720e+01  -6.709515e+00
   1.197346e+01   8.862542e+00
  -5.033691e+00   1.712521e+01
  -2.251060e+01   8.456642e+00
  -2.266275e+01  -1.288883e+01
  -4.600548e+00  -2.697039e+01
   1.955641e+01  -2.167061e+01
   3.109993e+01  -2.548802e+00
   2.275532e+01   1.340336e+01
   6.108551e+00   1.757181e+01
  -6.723104e+00   1.215955e+01
  -9.282697e+00   7.111612e+00
  -6.365417e+00   7.924532e+00
  -6.197172e+00   9.906787e+00
  -1.030996e+01   7.266059e+00
  -1.432342e+01  -3.897109e+00
  -1.165092e+01  -1.759246e+01
  -6.766322e-01  -2.357234e+01
   1.266016e+01  -1.564588e+01
   1.804493e+01   1.755608e+00
   1.115777e+01   1.589057e+01
  -2.489824e+00   1.624789e+01
  -1.045684e+01   5.345234e+00
  -6.637956e+00  -5.459554e+00
   2.658637e+00  -7.268521e+00
   5.582444e+00  -2.200238e+00
  -1.623041e+00   9.488887e-01
  -8.804298e+00  -1.561831e+00
  -4.727427e+00  -4.866740e+00
   9.002054e+00  -3.087913e+00
   1.798348e+01   3.875686e+00
   1.116149e+01   9.927997e+00
  -5.325895e+00   1.003349e+01
  -1.660190e+01   3.766056e+00
  -1.415442e+01  -3.970811e+00
  -2.448860e+00  -7.718217e+00
   7.103225e+00  -4.970315e+00
   8.555908e+00   2.044066e+00
   3.296317e+00   7.433685e+00
  -3.390353e+00   6.407545e+00
  -7.074702e+00  -9.606020e-02
  -6.353576e+00  -5.117895e+00
  -4.052156e+00  -4.130848e+00
  -3.594145e+00   3.751358e-01
  -5.597840e+00   3.633058e-01
  -5.939493e+00  -7.488571e+00
   1.396161e+00  -1.578600e+01
   1.417775e+01  -1.497646e+01
   2.100487e+01  -2.899807e+00
   1.438001e+01   1.095463e+01
  -1.017651e+00   1.504979e+01
  -1.099595e+01   7.837172e+00
  -6.479090e+00  -1.021060e+00
   5.956430e+00  -2.179577e+00
   1.206821e+01   4.732146e+00
   4.848020e+00   1.087493e+01
  -9.517535e+00   9.887075e+00
  -1.806419e+01   2.355995e+00
  -1.402161e+01  -5.323908e+00
  -2.786546e+00  -7.971279e+00
   5.104476e+00  -4.709796e+00
   3.740243e+00   7.667419e-01
  -4.177692e+00   2.593049e+00
  -9.487955e+00  -2.875725e+00
  -4.813961e+00  -1.259847e+01
   7.299136e+00  -1.665145e+01
   1.660041e+01  -8.278258e+00
   1.478960e+01   8.280846e+00
   3.192241e+00   1.882697e+01
  -8.191347e+00   1.381782e+01
  -1.051377e+01  -9.999150e-01
  -4.012196e+00  -1.091281e+01
   3.711202e+00  -8.457072e+00
   5.732265e+00  -2.318110e-01
   2.741492e+00   3.154316e+00
  -2.400906e-01   8.022396e-01
   5.226930e-01  -5.499732e-01
   3.423546e+00   3.401400e+00
   4.569811e+00   8.819620e+00
   6.336780e-01   9.117898e+00
  -6.970688e+00   3.071541e+00
  -1.244069e+01  -3.980743e+00
  -1.040699e+01  -7.530802e+00
  -1.698991e+00  -6.930709e+00
   7.169494e+00  -3.566882e+00
   8.726333e+00   1.997423e-01
   3.345745e+00   2.647082e+00
  -2.415677e+00   2.384713e+00
  -2.624084e+00   2.844366e-01
   5.365838e-01  -6.317348e-01
   2.716694e-01   7.414670e-01
  -5.397498e+00   1.321489e+00
  -9.749321e+00  -2.193150e+00
  -4.534615e+00  -8.817518e+00
   8.842662e+00  -1.212579e+01
   1.886376e+01  -6.531484e+00
   1.639684e+01   5.184969e+00
   3.390736e+00   1.422903e+01
  -8.566070e+00   1.392062e+01
  -1.149705e+01   6.169186e+00
  -6.815065e+00  -1.283863e+00
  -1.929745e+00  -3.465863e+00
  -2.937212e-01  -2.066977e+00
  -1.364257e+00  -2.149614e+00
  -1.787374e+00  -5.313821e+00
  -3.196209e-02  -8.272957e+00
   3.552149e+00  -6.008991e+00
   7.303024e+00   1.772977e+00
   7.705136e+00   9.901949e+00
   1.904126e+00   1.144999e+01
  -7.211598e+00   4.623601e+00
  -1.116757e+01  -5.745261e+00
  -4.639419e+00  -1.092397e+01
   6.645171e+00  -7.475704e+00
   1.110606e+01   1.459177e+00
   4.635356e+00   8.040844e+00
  -4.711863e+00   7.384655e+00
  -5.868534e+00   2.156882e+00
   1.208888e+00  -1.929151e+00
   6.307820e+00  -8.620370e-01
   1.888855e+00   3.373752e+00
  -8.112103e+00   5.600475e+00
  -1.289575e+01   2.917848e+00
  -8.163818e+00  -3.469634e+00
   9.192110e-01  -9.092608e+00
   7.019919e+00  -8.946640e+00
   6.822595e+00  -2.758060e+00
   2.904024e+00   4.007466e+00
  -1.568506e+00   5.664262e+00
  -4.249291e+00   7.499757e-01
  -3.205097e+00  -5.124066e+00
   7.407738e-01  -5.445082e+00
   4.706375e+00  -4.388165e-01
   5.189280e+00   3.821283e+00
   2.114578e+00   2.300785e+00
  -7.702900e-01  -2.026105e+00
  -3.282801e-01  -2.293982e+00
   1.874498e+00   2.731711e+00
   1.306033e+00   7.331418e+00
  -3.112481e+00   4.976414e+00
  -6.168885e+00  -2.475829e+00
  -3.280171e+00  -6.885268e+00
   3.646665e+00  -3.806611e+00
   7.148358e+00   2.868870e+00
   2.554838e+00   6.268645e+00
  -5.949109e+00   3.795800e+00
  -9.923711e+00  -1.279303e+00
  -5.357793e+00  -4.608996e+00
   3.221806e+00  -5.066335e+00
   7.503521e+00  -3.104179e+00
   4.235684e+00  -2.559598e-01
  -2.325434e+00   1.824072e+00
  -4.218975e+00   8.488702e-01
   2.940591e-01  -2.284439e+00
   6.626113e+00  -3.301301e+00
