
 $NMID
 id='ANONYMOUS ', fmtdat='(2E16.6)'
 volume=1.0
 tramp=1.0
 $END
  -9.500659e+02   1.563259e+01
  -4.522772e+02  -3.068955e+02
  -1.626662e+02  -6.857848e+02
   4.026276e+02  -4.675582e+02
   3.702981e+02  -2.156415e+02
   5.309366e+01   1.227697e+02
  -2.004922e+02   9.425939e+01
  -1.388872e+02  -6.940845e+01
   1.476471e+02  -2.246970e+02
   1.676910e+02  -2.240561e+02
   1.101275e+02   9.955890e+01
   3.601945e+01   2.540111e+02
  -2.242954e+01   1.746405e+02
  -9.973760e+01  -3.190948e+01
   2.233725e+01  -2.806465e+02
   1.035070e+02  -1.188369e+02
   1.258928e+02   1.674145e+02
  -1.054984e+01   2.570998e+02
  -1.279885e+02   1.279157e+02
  -1.900135e+02  -6.415584e+01
  -8.616390e+01  -1.392894e+02
   1.460080e+01  -4.727701e+01
   5.598221e+01  -4.858530e+00
  -2.865777e+01  -7.598497e+01
  -3.570858e+01  -1.410587e+02
   6.367345e+01  -1.349506e+02
   1.471422e+02  -2.217105e+01
   1.667891e+02   9.897838e+01
   5.666109e+01   1.089977e+02
  -8.619610e+01   2.758807e+01
  -1.160350e+02  -8.630893e+01
  -1.566264e+01  -1.002128e+02
   9.786310e+01  -7.070222e+01
   1.257787e+02  -7.764751e+00
   7.371267e+01   2.830880e+01
   2.463265e+01   6.197507e+01
   2.021184e+01   3.103170e+01
   6.271364e+01  -6.479077e+00
   1.036219e+02  -3.997057e+00
   5.678685e+01   6.450681e+01
  -3.202511e+01   1.470153e+02
  -7.646681e+01   1.121745e+02
  -7.944403e+01  -6.596075e+00
  -1.651461e+01  -7.307130e+01
   3.267650e+01  -2.022711e+01
   2.201042e+01   8.490596e+01
  -5.732450e+01   9.993051e+01
  -1.257077e+02  -1.493309e+01
  -1.175085e+02  -1.315143e+02
  -1.748532e+01  -1.411928e+02
   9.499650e+01  -5.201210e+01
   1.480674e+02   4.335684e+01
   9.313458e+01   7.119009e+01
  -9.562211e+00   4.915779e+01
  -7.231023e+01   2.791459e+01
  -6.253689e+01   1.990099e+01
  -1.968098e+01   1.628019e+01
  -4.447365e+00   7.144658e+00
  -3.370503e+01  -4.425283e+00
  -6.206119e+01  -2.509553e+01
  -3.547908e+01  -5.686975e+01
   4.614387e+01  -7.426018e+01
   1.134184e+02  -4.048458e+01
   9.149975e+01   4.025152e+01
  -1.306356e+01   1.094306e+02
  -1.083779e+02   1.058399e+02
  -1.152848e+02   2.953717e+01
  -5.105837e+01  -5.831435e+01
   1.348635e+00  -9.411592e+01
   5.688286e-01  -7.563883e+01
  -1.415534e+01  -4.925740e+01
   9.280002e+00  -4.381269e+01
   6.041591e+01  -3.784214e+01
   8.611071e+01  -2.049436e+00
   5.777551e+01   5.385879e+01
   1.054645e-02   7.944328e+01
  -4.530773e+01   4.426441e+01
  -5.590798e+01  -2.756267e+01
  -2.735736e+01  -8.230475e+01
   2.351178e+01  -7.230803e+01
   7.376968e+01  -9.636185e+00
   8.471259e+01   5.709501e+01
   4.477145e+01   8.553439e+01
  -1.750747e+01   7.189998e+01
  -4.825385e+01   4.108207e+01
  -3.936472e+01   2.560691e+01
  -3.873192e+01   2.158089e+01
  -8.439361e+01   9.596524e+00
  -1.275156e+02  -3.483565e+01
  -9.649234e+01  -9.986187e+01
   1.806478e+01  -1.362834e+02
   1.338300e+02  -1.121584e+02
   1.528144e+02  -3.426826e+01
   7.442025e+01   4.510440e+01
  -1.535186e+01   7.090397e+01
  -3.352106e+01   4.292016e+01
   5.866823e+00   6.067869e+00
   4.086889e+01   2.420493e-02
   2.948535e+01   2.205101e+01
  -6.817663e+00   3.418171e+01
  -3.108789e+01   1.367851e+01
  -1.948057e+01  -2.147580e+01
   1.550167e+01  -2.995319e+01
   4.368440e+01   1.313385e+01
   3.900745e+01   7.675673e+01
  -1.274179e+01   1.028078e+02
  -8.189115e+01   6.082027e+01
  -1.168110e+02  -2.652120e+01
  -8.579959e+01  -9.232544e+01
  -9.291663e+00  -9.199357e+01
   5.016668e+01  -3.984223e+01
   4.878059e+01   4.472052e+00
   8.151903e+00   4.188461e+00
  -1.379928e+01  -2.343937e+01
   8.826671e+00  -3.340675e+01
   4.352552e+01  -1.071214e+01
   4.108925e+01   1.873495e+01
  -8.303508e-01   2.005010e+01
  -3.295572e+01  -8.744820e+00
  -1.012620e+01  -3.493742e+01
   5.370602e+01  -2.732231e+01
   9.637584e+01   1.456825e+01
   7.183154e+01   6.171168e+01
  -6.119628e+00   8.187381e+01
  -7.481766e+01   6.176547e+01
  -8.231383e+01   1.661184e+01
  -3.501332e+01  -1.934090e+01
   1.394797e+01  -2.156109e+01
   1.782894e+01   3.251494e+00
  -2.007112e+01   1.921290e+01
  -5.555860e+01   8.429682e-01
  -4.989409e+01  -3.838025e+01
  -7.454118e+00  -5.658524e+01
   3.309408e+01  -3.348275e+01
   3.765645e+01   4.321924e+00
   8.268095e+00   1.503078e+01
  -1.796192e+01  -1.096897e+01
  -6.193026e+00  -4.091221e+01
   3.766846e+01  -3.631378e+01
   6.935129e+01   4.787189e+00
   5.145715e+01   4.998027e+01
  -5.965604e+00   6.434507e+01
  -5.276614e+01   3.935179e+01
  -5.084818e+01  -2.621031e+00
  -1.127348e+01  -2.921186e+01
   2.178351e+01  -2.501503e+01
   2.004930e+01  -2.676207e+00
  -3.929361e+00   1.038520e+01
  -1.600274e+01   1.168413e+00
   4.004834e-01  -1.236621e+01
   2.840201e+01  -4.002998e+00
   3.296958e+01   2.917244e+01
   7.649311e-01   5.579209e+01
  -4.820843e+01   4.281629e+01
  -7.408091e+01  -6.570552e+00
  -5.202198e+01  -5.615708e+01
  -4.700446e-01  -6.938486e+01
   3.867033e+01  -4.192763e+01
   3.979024e+01  -3.363157e+00
   1.858909e+01   1.608608e+01
   5.650569e+00   1.013241e+01
   1.523115e+01  -3.142243e+00
   2.781072e+01  -2.049472e+00
   1.914409e+01   1.784386e+01
  -1.420193e+01   3.351283e+01
  -4.234915e+01   1.979678e+01
  -3.549090e+01  -1.913944e+01
   8.539723e+00  -4.457216e+01
   5.694835e+01  -2.566867e+01
   6.389388e+01   2.700084e+01
   1.820267e+01   7.032780e+01
  -4.811288e+01   6.357323e+01
  -8.431978e+01   1.460002e+01
  -6.786364e+01  -3.613398e+01
  -2.023239e+01  -5.335886e+01
   1.777475e+01  -3.905186e+01
   2.754182e+01  -2.040703e+01
   2.069977e+01  -1.804689e+01
   1.885667e+01  -2.515144e+01
   2.961735e+01  -2.136051e+01
   3.974823e+01   8.704234e+00
   3.180362e+01   4.992382e+01
   1.197608e+00   6.935110e+01
  -3.606830e+01   4.703854e+01
  -5.299777e+01  -3.020028e+00
  -3.524126e+01  -4.380484e+01
   3.187715e+00  -4.806879e+01
   2.866162e+01  -2.125688e+01
   2.125779e+01   8.802883e+00
  -3.863399e+00   1.936321e+01
  -1.320672e+01   1.163943e+01
   5.272343e+00   2.615222e+00
   2.598779e+01   4.858829e+00
   1.571437e+01   1.235331e+01
  -2.422424e+01   1.087640e+01
  -5.409064e+01  -4.505063e+00
  -4.020529e+01  -2.358040e+01
   7.428470e+00  -2.993440e+01
   4.529455e+01  -1.739245e+01
   4.257642e+01   4.674883e+00
   9.566238e+00   1.878330e+01
  -1.988633e+01   1.378341e+01
  -2.355038e+01  -5.760456e+00
  -6.954296e+00  -2.165242e+01
   1.185122e+01  -1.893628e+01
   1.980462e+01  -6.316183e-01
   1.716845e+01   1.490989e+01
   1.287696e+01   1.273868e+01
   1.369283e+01   4.524835e-01
   1.800158e+01   6.348499e-01
   1.377438e+01   2.217643e+01
  -8.429778e+00   4.526286e+01
  -4.086821e+01   4.084038e+01
  -5.729466e+01   5.031360e+00
  -3.796347e+01  -3.286944e+01
   4.535213e+00  -4.075167e+01
   3.160844e+01  -1.880805e+01
   1.852500e+01   4.964906e+00
  -1.899592e+01   5.160059e+00
  -3.890243e+01  -1.586447e+01
  -1.656757e+01  -3.348034e+01
   3.012764e+01  -2.983881e+01
   5.850011e+01  -6.922239e+00
   4.438149e+01   1.746575e+01
   5.206924e+00   2.685437e+01
  -2.162959e+01   1.683000e+01
  -1.508631e+01  -1.129269e+00
   1.157693e+01  -8.493616e+00
   2.639528e+01   6.353763e+00
   1.026462e+01   3.316224e+01
  -2.444829e+01   4.344038e+01
  -4.627078e+01   1.797490e+01
  -3.556571e+01  -2.816838e+01
  -1.643221e+00  -5.548526e+01
   2.779100e+01  -3.769265e+01
   3.141440e+01   7.534781e+00
   1.201089e+01   3.725445e+01
  -1.002078e+01   2.902545e+01
  -1.800035e+01   2.042303e+00
  -1.148462e+01  -1.087924e+01
  -2.702471e+00  -2.697697e+00
  -2.757896e+00   3.536867e+00
  -1.084447e+01  -8.529853e+00
  -1.485708e+01  -2.782173e+01
  -3.530504e+00  -3.003887e+01
   2.002609e+01  -1.033994e+01
   3.765258e+01   1.342126e+01
   3.149176e+01   2.286919e+01
   3.870153e+00   1.745883e+01
  -2.275945e+01   7.326729e+00
  -2.558445e+01  -7.603591e-01
  -7.141445e+00  -5.711923e+00
   9.416036e+00  -6.483441e+00
   7.783232e+00  -2.883561e+00
  -2.214986e+00   9.495973e-01
   2.451316e-01   5.656682e-01
   1.759788e+01  -5.627504e-01
   2.750663e+01   7.594222e+00
   9.101838e+00   2.448597e+01
  -2.938086e+01   3.343648e+01
  -5.526346e+01   1.752670e+01
  -4.498532e+01  -1.735221e+01
  -7.360567e+00  -4.408435e+01
   2.634673e+01  -4.169559e+01
   3.435472e+01  -1.627713e+01
   2.083183e+01   6.912658e+00
   5.084078e+00   1.125711e+01
   6.263056e-01   3.575968e+00
   4.995374e+00   2.920782e+00
   8.036969e+00   1.528476e+01
   2.535679e+00   2.709012e+01
  -1.060436e+01   2.074973e+01
  -2.252860e+01  -4.539705e+00
  -2.213531e+01  -2.952014e+01
  -4.448596e+00  -3.246969e+01
   2.016617e+01  -1.012911e+01
   2.957571e+01   1.831826e+01
   1.187756e+01   3.041155e+01
  -1.822512e+01   1.901445e+01
  -3.107959e+01  -3.643463e+00
  -1.424160e+01  -1.941429e+01
   1.079693e+01  -1.900132e+01
   1.441475e+01  -7.763470e+00
  -5.093407e+00   1.937432e+00
  -1.922172e+01   9.685597e-01
  -5.175973e+00  -8.831178e+00
   2.405647e+01  -1.678265e+01
   3.781654e+01  -1.090462e+01
   2.235482e+01   8.076508e+00
  -4.975510e+00   2.508656e+01
  -1.971420e+01   2.418291e+01
  -1.505888e+01   5.343726e+00
  -2.313605e+00  -1.320105e+01
   6.919964e+00  -1.381657e+01
   9.566555e+00   2.079779e+00
   6.222768e+00   1.610934e+01
  -1.968224e+00   1.341197e+01
  -1.097465e+01  -1.001326e+00
  -1.316029e+01  -9.565901e+00
  -6.661412e+00  -4.269082e+00
   1.215054e+00   5.391560e+00
   2.143043e+00   4.375172e+00
  -2.016609e+00  -8.143347e+00
  -1.563944e+00  -1.673804e+01
   6.817171e+00  -9.230216e+00
   1.299601e+01   8.225804e+00
   5.946622e+00   1.723032e+01
  -1.034489e+01   7.963540e+00
  -1.810461e+01  -9.404205e+00
  -5.813469e+00  -1.759982e+01
   1.696452e+01  -9.819203e+00
   2.799809e+01   4.749317e+00
   1.502494e+01   1.389242e+01
  -8.719685e+00   1.411728e+01
  -2.027092e+01   8.718489e+00
  -1.039645e+01   2.138436e+00
   6.188351e+00  -1.548863e+00
   9.184698e+00   4.492744e-01
  -5.145774e+00   5.627651e+00
  -2.090113e+01   5.461966e+00
