
 $NMID
 id='ANONYMOUS ', fmtdat='(2E16.6)'
 volume=1.0
 tramp=1.0
 $END
  -4.047769e+07   6.912392e+05
  -2.577990e+07  -2.251607e+07
   2.974526e+06  -2.689893e+07
   1.885484e+07  -1.321274e+07
   1.300376e+07   2.434435e+06
  -1.078644e+06   6.982910e+06
  -7.527260e+06   8.802558e+05
  -3.648461e+06  -6.825361e+06
   3.440089e+06  -8.427081e+06
   7.177111e+06  -2.848453e+06
   5.675621e+06   4.671102e+06
   7.779834e+05   7.031972e+06
  -3.226490e+06   1.951176e+06
  -2.410696e+06  -5.033913e+06
   2.520118e+06  -6.076880e+06
   6.112054e+06   2.320671e+05
   4.008642e+06   7.531972e+06
  -2.254733e+06   9.141889e+06
  -7.381021e+06   4.587244e+06
  -7.849599e+06  -1.659191e+06
  -4.347511e+06  -5.415170e+06
  -2.173867e+05  -5.578778e+06
   1.321835e+06  -3.696545e+06
  -2.562492e+05  -2.381052e+06
  -1.861891e+06  -3.097575e+06
   2.329127e+05  -4.429191e+06
   5.422033e+06  -3.489598e+06
   8.420858e+06   2.283765e+05
   5.468415e+06   3.698377e+06
  -6.526227e+05   3.936827e+06
  -3.861955e+06   1.422473e+06
  -1.957573e+06  -1.056393e+06
   1.752266e+06  -1.608449e+06
   3.317094e+06  -1.542344e+05
   2.091992e+06   2.337383e+06
  -1.874481e+05   3.967949e+06
  -1.807462e+06   2.730485e+06
  -1.851101e+06  -7.757848e+05
  -4.926204e+05  -2.701170e+06
   6.090949e+05  -4.824918e+05
  -2.554160e+05   2.904683e+06
  -2.219506e+06   2.301442e+06
  -2.207260e+06  -2.194515e+06
   9.729171e+05  -4.631016e+06
   4.281164e+06  -1.144467e+06
   3.701924e+06   4.604006e+06
  -8.850662e+05   6.093793e+06
  -5.431076e+06   1.935032e+06
  -5.965368e+06  -3.300171e+06
  -2.180505e+06  -4.999373e+06
   2.732556e+06  -2.766649e+06
   4.864146e+06   7.095599e+05
   2.688879e+06   2.675283e+06
  -1.514119e+06   1.999606e+06
  -3.595889e+06  -3.320633e+05
  -1.808476e+06  -1.893006e+06
   1.212277e+06  -1.134183e+06
   1.701467e+06   7.323709e+05
  -5.222151e+05   1.163083e+06
  -2.053927e+06  -4.324244e+05
  -4.907553e+05  -2.044937e+06
   2.628273e+06  -1.753908e+06
   3.962812e+06   2.777416e+05
   2.109395e+06   2.685198e+06
  -1.537370e+06   4.266503e+06
  -4.567497e+06   3.973403e+06
  -5.284712e+06   1.190259e+06
  -3.489281e+06  -2.854460e+06
  -6.273161e+05  -5.221176e+06
   1.190193e+06  -4.252970e+06
   1.153910e+06  -1.705816e+06
   5.381630e+05  -5.270425e+05
   9.565173e+05  -1.082689e+06
   2.241665e+06  -1.145888e+06
   2.776800e+06   5.566964e+05
   1.618680e+06   2.465729e+06
  -4.809001e+05   2.336781e+06
  -1.982109e+06   6.562814e+04
  -1.790001e+06  -2.339671e+06
   1.565103e+05  -2.904855e+06
   2.661754e+06  -1.256945e+06
   3.762502e+06   1.380475e+06
   2.418778e+06   3.203942e+06
  -1.440936e+05   3.206069e+06
  -1.653061e+06   1.989294e+06
  -1.529363e+06   1.016183e+06
  -1.442930e+06   8.830616e+05
  -2.702669e+06   7.203419e+05
  -4.114729e+06  -4.956763e+05
  -3.395703e+06  -2.508619e+06
  -2.183761e+05  -3.986960e+06
   3.142314e+06  -3.804349e+06
   4.175498e+06  -1.894151e+06
   2.510353e+06   6.871204e+05
  -4.537242e+04   2.263270e+06
  -1.302762e+06   1.738228e+06
  -5.128735e+05  -1.407651e+05
   1.141475e+06  -1.227703e+06
   1.772516e+06  -3.662907e+05
   7.561899e+05   1.107583e+06
  -5.987631e+05   1.099182e+06
  -6.154681e+05  -3.435892e+05
   7.332343e+05  -1.000152e+06
   1.827482e+06   5.338569e+05
   1.283758e+06   2.916020e+06
  -6.928750e+05   3.655031e+06
  -2.761186e+06   1.911279e+06
  -3.625384e+06  -8.983481e+05
  -2.743095e+06  -2.774758e+06
  -6.164910e+05  -2.796228e+06
   1.296343e+06  -1.479478e+06
   1.611051e+06  -1.677601e+05
   4.860905e+05   4.148586e+04
  -3.682540e+05  -7.276049e+05
   3.147593e+05  -1.242911e+06
   1.716124e+06  -5.825879e+05
   1.938351e+06   7.099636e+05
   4.686256e+05   1.281031e+06
  -1.106758e+06   6.202011e+05
  -9.935990e+05  -4.224267e+05
   7.486629e+05  -7.124366e+05
   2.313584e+06   5.704828e+04
   2.024856e+06   1.313551e+06
  -7.581220e+04   2.142343e+06
  -2.287100e+06   1.812319e+06
  -2.762938e+06   3.498072e+05
  -1.199676e+06  -1.162675e+06
   8.330939e+05  -1.378472e+06
   1.401302e+06  -1.795530e+05
   1.415817e+05   9.883074e+05
  -1.455607e+06   7.172509e+05
  -1.713847e+06  -6.856136e+05
  -4.710348e+05  -1.610833e+06
   9.669052e+05  -1.098036e+06
   1.281503e+06   1.455826e+05
   3.618583e+05   7.203136e+05
  -7.127411e+05   8.876333e+04
  -7.066605e+05  -1.006993e+06
   5.818834e+05  -1.385364e+06
   1.981152e+06  -5.125279e+05
   1.992334e+06   1.033313e+06
   4.000574e+05   2.018861e+06
  -1.353770e+06   1.633907e+06
  -1.680241e+06   2.750771e+05
  -5.555423e+05  -8.251613e+05
   6.130256e+05  -8.329545e+05
   6.921852e+05  -7.547237e+04
  -5.674987e+04   4.803817e+05
  -5.828888e+05   3.368898e+05
  -3.201491e+05  -1.003017e+05
   3.439797e+05  -1.039858e+05
   5.820083e+05   5.178340e+05
  -8.838973e+04   1.151302e+06
  -1.315888e+06   9.292772e+05
  -2.058592e+06  -3.636852e+05
  -1.462257e+06  -1.892875e+06
   1.891271e+05  -2.422696e+06
   1.599556e+06  -1.507604e+06
   1.767947e+06   3.554227e+04
   9.975107e+05   9.657738e+05
   3.616386e+05   8.531827e+05
   3.621621e+05   3.397326e+05
   4.926837e+05   2.509084e+05
   8.174753e+04   6.675681e+05
  -8.133928e+05   9.271558e+05
  -1.456993e+06   4.106304e+05
  -1.145920e+06  -7.283621e+05
   1.675761e+05  -1.561087e+06
   1.706251e+06  -1.163734e+06
   2.278864e+06   4.297346e+05
   1.214554e+06   2.045786e+06
  -8.694619e+05   2.349536e+06
  -2.430194e+06   1.127233e+06
  -2.390651e+06  -5.149708e+05
  -1.117831e+06  -1.312818e+06
   1.117266e+05  -1.072966e+06
   4.752392e+05  -6.299702e+05
   2.387261e+05  -7.284881e+05
   1.695415e+05  -1.189039e+06
   6.191242e+05  -1.205171e+06
   1.223573e+06  -3.049006e+05
   1.311314e+06   1.066720e+06
   5.576238e+05   1.878548e+06
  -6.169356e+05   1.431102e+06
  -1.286119e+06   3.325688e+04
  -8.502586e+05  -1.213591e+06
   2.897908e+05  -1.381233e+06
   1.055069e+06  -5.138881e+05
   8.030866e+05   5.325202e+05
  -5.157612e+03   9.858408e+05
  -3.930000e+05   8.018286e+05
  -2.785542e+04   4.672731e+05
   4.080030e+05   3.565104e+05
   4.718840e+04   3.908811e+05
  -1.091050e+06   2.386555e+05
  -1.985159e+06  -2.785100e+05
  -1.613940e+06  -9.650111e+05
  -5.917866e+04  -1.363467e+06
   1.467891e+06  -1.122569e+06
   1.779700e+06  -3.543276e+05
   8.638523e+05   3.746554e+05
  -2.089785e+05   5.177847e+05
  -4.791302e+05   8.325593e+04
  -3.576628e+03  -3.525226e+05
   4.704741e+05  -2.406558e+05
   4.680623e+05   3.363879e+05
   1.794936e+05   7.351414e+05
   2.639410e+04   4.778758e+05
   1.455332e+05  -1.489588e+05
   3.358909e+05  -3.581618e+05
   2.907708e+05   2.192601e+05
  -1.695480e+05   1.005741e+06
  -8.773998e+05   1.052012e+06
  -1.257447e+06   1.381724e+05
  -7.636915e+05  -8.998113e+05
   3.992554e+05  -1.062448e+06
   1.191042e+06  -2.739861e+05
   7.211513e+05   5.864840e+05
  -6.716478e+05   6.669731e+05
  -1.614559e+06  -3.762581e+04
  -1.110879e+06  -8.307821e+05
   3.984554e+05  -1.053948e+06
   1.509863e+06  -5.980215e+05
   1.299561e+06   1.234606e+05
   1.774984e+05   5.297176e+05
  -6.360418e+05   3.109933e+05
  -3.619068e+05  -2.646663e+05
   6.112961e+05  -4.883248e+05
   1.170037e+06   1.246878e+05
   6.115525e+05   1.196872e+06
  -6.504780e+05   1.671545e+06
  -1.508334e+06   8.448651e+05
  -1.255400e+06  -7.739688e+05
  -2.057087e+05  -1.806073e+06
   7.334230e+05  -1.339099e+06
   9.426779e+05   1.250445e+05
   4.885837e+05   1.185561e+06
  -1.542117e+05   1.008340e+06
  -5.455714e+05   1.147348e+05
  -5.125835e+05  -3.861069e+05
  -2.117458e+05  -1.535061e+05
  -3.036419e+04   1.113734e+05
  -2.162245e+05  -2.583619e+05
  -4.935648e+05  -9.489489e+05
  -2.564236e+05  -1.092043e+06
   6.483038e+05  -4.145897e+05
   1.491336e+06   4.562826e+05
   1.342896e+06   8.304043e+05
   1.979802e+05   6.875418e+05
  -8.972672e+05   4.197594e+05
  -1.002717e+06   2.071779e+05
  -3.247165e+05  -2.160377e+04
   1.616185e+05  -2.216380e+05
  -1.763039e+04  -2.344626e+05
  -3.208157e+05  -1.253859e+05
  -2.964401e+04  -1.355553e+05
   7.196602e+05  -2.165725e+05
   1.039814e+06   2.224467e+04
   3.563316e+05   6.778701e+05
  -8.866563e+05   1.147503e+06
  -1.658093e+06   7.265003e+05
  -1.345468e+06  -4.525905e+05
  -2.602651e+05  -1.413752e+06
   7.456805e+05  -1.362308e+06
   1.044642e+06  -5.071916e+05
   6.631320e+05   2.590735e+05
   1.128306e+05   3.560059e+05
  -1.141660e+05   3.399394e+04
   6.567400e+04  -5.325424e+04
   3.272007e+05   3.516633e+05
   2.718857e+05   8.078462e+05
  -1.860884e+05   6.687243e+05
  -6.903746e+05  -1.522245e+05
  -7.123337e+05  -9.799057e+05
  -6.640692e+04  -1.023161e+06
   7.790992e+05  -2.035399e+05
   1.020677e+06   7.581723e+05
   3.222587e+05   1.083790e+06
  -7.160391e+05   6.452763e+05
  -1.094634e+06  -8.219087e+04
  -5.086313e+05  -5.764983e+05
   2.787632e+05  -6.366077e+05
   3.386178e+05  -3.610312e+05
  -2.887851e+05  -2.611161e+04
  -6.600181e+05   3.493907e+04
  -1.337378e+05  -2.984805e+05
   8.225022e+05  -6.882788e+05
   1.221987e+06  -5.789124e+05
   7.224464e+05   1.391416e+05
  -9.542500e+04   8.526580e+05
  -5.108778e+05   8.428120e+05
  -3.819716e+05   1.354271e+05
  -3.317944e+04  -4.949184e+05
   2.440047e+05  -4.135486e+05
   3.534102e+05   1.822899e+05
   2.507217e+05   5.771581e+05
  -5.925114e+04   3.932805e+05
  -3.887499e+05  -5.893299e+04
  -4.649045e+05  -2.521884e+05
  -2.434305e+05  -7.231632e+04
   1.769749e+04   1.202985e+05
   8.488365e+04  -1.668722e+04
   3.839913e+04  -3.746676e+05
   1.177951e+05  -5.067650e+05
   3.380100e+05  -1.521534e+05
   4.093393e+05   4.183705e+05
   9.467371e+04   6.496812e+05
  -4.243938e+05   2.974029e+05
  -6.400259e+05  -2.994823e+05
  -2.370168e+05  -5.859429e+05
   4.945690e+05  -3.627060e+05
   8.603942e+05   8.695078e+04
   4.697079e+05   3.758500e+05
  -2.907209e+05   3.743258e+05
  -6.266294e+05   1.980390e+05
  -2.218411e+05   1.491027e+04
   3.838319e+05  -3.920285e+04
   4.213776e+05   1.026139e+05
  -1.999530e+05   3.143019e+05
  -7.944279e+05   2.708327e+05
