
 $NMID
 id='ANONYMOUS ', fmtdat='(2E16.6)'
 volume=1.0
 tramp=1.0
 $END
  -4.685768e+07   2.805718e+06
  -3.095576e+07  -2.605676e+07
   2.904707e+06  -3.201090e+07
   2.207678e+07  -1.528958e+07
   1.519617e+07   3.561063e+06
  -1.505479e+06   8.291412e+06
  -8.801463e+06   5.226385e+05
  -3.869972e+06  -8.121130e+06
   4.336822e+06  -9.336475e+06
   8.318146e+06  -2.983896e+06
   6.479221e+06   5.101499e+06
   1.040592e+06   7.717946e+06
  -3.434255e+06   2.387005e+06
  -2.585666e+06  -5.237830e+06
   2.945707e+06  -6.544981e+06
   7.016759e+06   3.646778e+05
   4.630013e+06   8.558236e+06
  -2.453540e+06   1.048090e+07
  -8.292158e+06   5.536657e+06
  -9.092476e+06  -1.396037e+06
  -5.529776e+06  -5.901081e+06
  -8.527943e+05  -6.680183e+06
   1.537577e+06  -4.839595e+06
   4.332066e+05  -2.883863e+06
  -1.466299e+06  -2.966345e+06
   1.315790e+05  -4.345991e+06
   5.387654e+06  -3.841829e+06
   8.894313e+06  -1.854506e+05
   6.179894e+06   3.681730e+06
  -1.751163e+05   4.254156e+06
  -3.699473e+06   1.816726e+06
  -1.997844e+06  -6.247849e+05
   1.501957e+06  -1.217631e+06
   2.973076e+06  -9.390264e+04
   2.020744e+06   2.070294e+06
   9.328034e+04   3.903879e+06
  -1.678227e+06   3.172044e+06
  -2.262182e+06  -3.440842e+05
  -1.066129e+06  -2.884565e+06
   4.492786e+05  -1.013305e+06
  -1.379216e+05   2.711566e+06
  -2.358905e+06   2.377080e+06
  -2.489075e+06  -2.552661e+06
   1.269538e+06  -5.466324e+06
   5.307596e+06  -1.529641e+06
   4.611061e+06   5.280955e+06
  -8.959927e+05   7.206852e+06
  -6.155959e+06   2.431040e+06
  -6.589954e+06  -3.631216e+06
  -2.251676e+06  -5.519412e+06
   3.062662e+06  -2.914023e+06
   5.228112e+06   9.601281e+05
   2.779843e+06   3.064920e+06
  -1.823188e+06   2.252762e+06
  -4.082604e+06  -4.014076e+05
  -2.027223e+06  -2.198757e+06
   1.371323e+06  -1.316962e+06
   1.797073e+06   8.465200e+05
  -8.445233e+05   1.230285e+06
  -2.450295e+06  -8.297772e+05
  -3.415894e+05  -2.739168e+06
   3.347832e+06  -2.147148e+06
   4.675881e+06   4.566160e+05
   2.418888e+06   3.160930e+06
  -1.525668e+06   4.735090e+06
  -4.700179e+06   4.404655e+06
  -5.627148e+06   1.525513e+06
  -3.973996e+06  -2.861880e+06
  -8.798148e+05  -5.612726e+06
   1.380930e+06  -4.627788e+06
   1.476535e+06  -1.674097e+06
   5.560269e+05  -2.104403e+05
   6.642201e+05  -9.048266e+05
   1.970248e+06  -1.275760e+06
   2.716200e+06   3.000892e+05
   1.700753e+06   2.273210e+06
  -3.517635e+05   2.239123e+06
  -1.853721e+06   4.343524e+04
  -1.742521e+06  -2.321318e+06
   1.072181e+05  -2.953179e+06
   2.695817e+06  -1.430373e+06
   4.053911e+06   1.245656e+06
   2.825310e+06   3.347667e+06
   3.991916e+04   3.611907e+06
  -1.797770e+06   2.377353e+06
  -1.793005e+06   1.186288e+06
  -1.646854e+06   8.893323e+05
  -2.887662e+06   6.790258e+05
  -4.329036e+06  -5.803666e+05
  -3.535557e+06  -2.656012e+06
  -1.991317e+05  -4.141919e+06
   3.237408e+06  -3.922093e+06
   4.242681e+06  -2.000963e+06
   2.574367e+06   5.935872e+05
   5.419289e+04   2.252908e+06
  -1.235112e+06   1.812572e+06
  -5.253066e+05  -9.686671e+04
   1.137678e+06  -1.272145e+06
   1.855086e+06  -4.055017e+05
   8.461465e+05   1.140926e+06
  -5.810242e+05   1.117138e+06
  -5.688861e+05  -3.962405e+05
   9.172561e+05  -9.667181e+05
   1.997245e+06   8.125645e+05
   1.170567e+06   3.292865e+06
  -1.077585e+06   3.799211e+06
  -3.097238e+06   1.726291e+06
  -3.686916e+06  -1.179342e+06
  -2.631098e+06  -2.924317e+06
  -5.317337e+05  -2.826684e+06
   1.317238e+06  -1.495923e+06
   1.630154e+06  -1.828165e+05
   5.019832e+05   4.444279e+04
  -3.748931e+05  -7.556142e+05
   3.444947e+05  -1.321973e+06
   1.827036e+06  -6.218193e+05
   2.046485e+06   7.787735e+05
   4.708896e+05   1.373487e+06
  -1.163325e+06   6.243062e+05
  -9.809860e+05  -4.629146e+05
   8.384363e+05  -6.699653e+05
   2.363905e+06   1.879473e+05
   1.972726e+06   1.416677e+06
  -1.782506e+05   2.160216e+06
  -2.384276e+06   1.793636e+06
  -2.849417e+06   3.230728e+05
  -1.250545e+06  -1.229180e+06
   8.670249e+05  -1.469751e+06
   1.492252e+06  -2.118832e+05
   1.805577e+05   1.034994e+06
  -1.511250e+06   7.476644e+05
  -1.771609e+06  -7.416979e+05
  -4.365244e+05  -1.689531e+06
   1.059281e+06  -1.099171e+06
   1.331156e+06   2.168353e+05
   3.371646e+05   7.788132e+05
  -7.639857e+05   8.837559e+04
  -7.360954e+05  -1.045512e+06
   5.938087e+05  -1.428180e+06
   2.036211e+06  -5.317527e+05
   2.056327e+06   1.065273e+06
   4.066711e+05   2.093940e+06
  -1.423364e+06   1.688908e+06
  -1.752252e+06   2.618376e+05
  -5.564469e+05  -8.713112e+05
   6.506643e+05  -8.484070e+05
   6.859108e+05  -6.756016e+04
  -1.034348e+05   4.546189e+05
  -5.846866e+05   2.771736e+05
  -2.455645e+05  -1.245871e+05
   4.241099e+05  -5.304338e+04
   5.958791e+05   6.041249e+05
  -1.355252e+05   1.213748e+06
  -1.384499e+06   9.447391e+05
  -2.125683e+06  -3.969299e+05
  -1.500785e+06  -1.964865e+06
   2.133023e+05  -2.487298e+06
   1.666953e+06  -1.507362e+06
   1.798993e+06   8.976713e+04
   9.565925e+05   9.920115e+05
   3.184406e+05   8.093335e+05
   3.931150e+05   2.865996e+05
   5.641876e+05   2.615198e+05
   9.915147e+04   7.209542e+05
  -8.681047e+05   9.479332e+05
  -1.508285e+06   3.788595e+05
  -1.134065e+06  -7.681513e+05
   2.283743e+05  -1.575992e+06
   1.776501e+06  -1.152763e+06
   2.331443e+06   4.762741e+05
   1.214775e+06   2.135387e+06
  -9.505110e+05   2.433492e+06
  -2.553207e+06   1.128545e+06
  -2.457610e+06  -5.974316e+05
  -1.084571e+06  -1.386167e+06
   1.751041e+05  -1.067016e+06
   4.771504e+05  -5.845886e+05
   1.828521e+05  -7.287059e+05
   1.333567e+05  -1.252014e+06
   6.442761e+05  -1.273364e+06
   1.279360e+06  -3.251007e+05
   1.352514e+06   1.098583e+06
   5.674286e+05   1.933280e+06
  -6.377062e+05   1.467652e+06
  -1.323389e+06   1.619661e+04
  -8.638711e+05  -1.279396e+06
   3.377308e+05  -1.436755e+06
   1.141646e+06  -4.992947e+05
   8.509638e+05   6.102131e+05
  -3.924864e+04   1.063745e+06
  -4.634297e+05   8.359582e+05
  -5.992782e+04   4.687293e+05
   4.235301e+05   3.556682e+05
   5.018916e+04   3.966330e+05
  -1.146715e+06   2.387217e+05
  -2.072702e+06  -3.015234e+05
  -1.663506e+06  -1.022023e+06
  -3.006621e+04  -1.440183e+06
   1.551896e+06  -1.171789e+06
   1.857611e+06  -3.364848e+05
   8.919327e+05   4.373988e+05
  -2.278753e+05   5.582925e+05
  -5.123001e+05   6.973111e+04
  -2.397479e+04  -3.844286e+05
   4.702258e+05  -2.484683e+05
   4.857178e+05   3.464591e+05
   2.089206e+05   7.378959e+05
   5.332962e+04   4.791331e+05
   1.560297e+05  -1.295774e+05
   3.344167e+05  -3.299647e+05
   2.925635e+05   2.347944e+05
  -1.705389e+05   1.018387e+06
  -9.096243e+05   1.083649e+06
  -1.324177e+06   1.687268e+05
  -8.171733e+05  -9.158596e+05
   4.059951e+05  -1.120874e+06
   1.237796e+06  -3.139233e+05
   7.406566e+05   5.957473e+05
  -7.060685e+05   6.797601e+05
  -1.654881e+06  -7.144120e+04
  -1.099482e+06  -8.865792e+05
   4.579031e+05  -1.067949e+06
   1.565922e+06  -5.578953e+05
   1.316242e+06   1.697238e+05
   1.599415e+05   5.446151e+05
  -6.653200e+05   3.020563e+05
  -3.842886e+05  -2.801814e+05
   6.105066e+05  -5.083751e+05
   1.196333e+06   1.092517e+05
   6.472451e+05   1.210250e+06
  -6.375231e+05   1.714897e+06
  -1.529480e+06   8.774372e+05
  -1.283551e+06  -7.878231e+05
  -2.045650e+05  -1.846508e+06
   7.653955e+05  -1.353742e+06
   9.681709e+05   1.556839e+05
   4.745931e+05   1.229744e+06
  -1.962930e+05   1.027841e+06
  -5.724122e+05   1.056864e+05
  -5.021436e+05  -4.015346e+05
  -1.919132e+05  -1.592922e+05
  -4.237373e+04   1.104835e+05
  -2.568967e+05  -2.697986e+05
  -5.154357e+05  -9.781267e+05
  -2.293366e+05  -1.126033e+06
   6.990452e+05  -4.279099e+05
   1.522726e+06   4.764891e+05
   1.348286e+06   8.679453e+05
   1.982139e+05   7.129426e+05
  -8.999426e+05   4.209517e+05
  -1.024440e+06   1.961620e+05
  -3.561846e+05  -3.027354e+04
   1.571586e+05  -2.260545e+05
   1.331462e+04  -2.373001e+05
  -2.953764e+05  -1.251633e+05
  -3.962751e+04  -1.334130e+05
   7.055403e+05  -2.195126e+05
   1.066737e+06   1.583103e+04
   4.059649e+05   6.859302e+05
  -8.795161e+05   1.182313e+06
  -1.713401e+06   7.692636e+05
  -1.407800e+06  -4.385635e+05
  -2.737180e+05  -1.441964e+06
   7.713482e+05  -1.407957e+06
   1.066118e+06  -5.371788e+05
   6.699294e+05   2.530677e+05
   1.268906e+05   3.612973e+05
  -8.764825e+04   4.197482e+04
   8.308703e+04  -3.923622e+04
   3.252549e+05   3.741504e+05
   2.666896e+05   8.329304e+05
  -1.837225e+05   6.891722e+05
  -6.955381e+05  -1.403658e+05
  -7.392748e+05  -9.813732e+05
  -9.836434e+04  -1.041311e+06
   7.735970e+05  -2.281717e+05
   1.046462e+06   7.508168e+05
   3.480466e+05   1.106701e+06
  -7.231553e+05   6.794369e+05
  -1.132705e+06  -7.228943e+04
  -5.427121e+05  -6.036536e+05
   2.792291e+05  -6.769175e+05
   3.664463e+05  -3.833754e+05
  -2.696808e+05  -2.632067e+04
  -6.694063e+05   3.714127e+04
  -1.469449e+05  -3.078067e+05
   8.448961e+05  -7.024938e+05
   1.280064e+06  -5.832132e+05
   7.713183e+05   1.526279e+05
  -9.221039e+04   8.831205e+05
  -5.410286e+05   8.816965e+05
  -4.090111e+05   1.646114e+05
  -4.303159e+04  -4.933006e+05
   2.410231e+05  -4.353333e+05
   3.534495e+05   1.663701e+05
   2.603902e+05   5.897367e+05
  -4.771235e+04   4.205345e+05
  -3.961315e+05  -5.052041e+04
  -4.897932e+05  -2.703188e+05
  -2.548737e+05  -8.719947e+04
   3.503859e+04   1.359280e+05
   1.001541e+05   1.709095e+04
   1.470174e+04  -3.595858e+05
   6.983761e+04  -5.275291e+05
   3.186289e+05  -1.901724e+05
   4.390057e+05   3.927369e+05
   1.342473e+05   6.486689e+05
  -4.200923e+05   3.119175e+05
  -6.655419e+05  -2.868861e+05
  -2.513756e+05  -5.878110e+05
   5.119566e+05  -3.779693e+05
   8.913347e+05   7.374851e+04
   4.882304e+05   3.818007e+05
  -2.914838e+05   4.002400e+05
  -6.405608e+05   2.258976e+05
  -2.430720e+05   2.541167e+04
   3.632862e+05  -4.932085e+04
   4.139229e+05   8.387495e+04
  -1.904668e+05   3.009309e+05
  -7.819444e+05   2.679845e+05
