
 $NMID
 id='ANONYMOUS ', fmtdat='(2E16.6)'
 volume=1.0
 tramp=1.0
 $END
  -3.822165e+07  -2.226848e+05
  -2.399287e+07  -2.148805e+07
   3.104790e+06  -2.523362e+07
   1.795902e+07  -1.241368e+07
   1.237743e+07   2.217276e+06
  -9.910576e+05   6.600956e+06
  -7.187434e+06   9.143956e+05
  -3.525153e+06  -6.493748e+06
   3.290808e+06  -8.123376e+06
   6.873196e+06  -2.727869e+06
   5.342865e+06   4.575671e+06
   5.969664e+05   6.783176e+06
  -3.146626e+06   1.762431e+06
  -2.236953e+06  -4.975744e+06
   2.491397e+06  -5.879586e+06
   5.828315e+06   2.557268e+05
   3.724617e+06   7.232595e+06
  -2.277447e+06   8.672073e+06
  -7.094943e+06   4.203008e+06
  -7.382583e+06  -1.784099e+06
  -3.910740e+06  -5.224473e+06
  -2.441632e+04  -5.177255e+06
   1.225242e+06  -3.355310e+06
  -4.242675e+05  -2.312490e+06
  -1.849481e+06  -3.195647e+06
   3.828939e+05  -4.391071e+06
   5.431657e+06  -3.219060e+06
   8.167090e+06   5.006816e+05
   5.136164e+06   3.731330e+06
  -8.349431e+05   3.748945e+06
  -3.859887e+06   1.190878e+06
  -1.854009e+06  -1.203432e+06
   1.885442e+06  -1.621517e+06
   3.386697e+06  -4.322583e+04
   2.000905e+06   2.450424e+06
  -3.706495e+05   3.915148e+06
  -1.849487e+06   2.530055e+06
  -1.661421e+06  -8.844899e+05
  -2.896062e+05  -2.578535e+06
   5.987712e+05  -3.063095e+05
  -3.812189e+05   2.908009e+06
  -2.215271e+06   2.216920e+06
  -2.096671e+06  -2.107774e+06
   9.144660e+05  -4.377267e+06
   3.960573e+06  -1.034873e+06
   3.384359e+06   4.379808e+06
  -9.105074e+05   5.723102e+06
  -5.186531e+06   1.724714e+06
  -5.695878e+06  -3.270131e+06
  -2.067622e+06  -4.866504e+06
   2.677013e+06  -2.668284e+06
   4.733579e+06   7.242775e+05
   2.615103e+06   2.610615e+06
  -1.442188e+06   1.912408e+06
  -3.435446e+06  -3.492921e+05
  -1.721637e+06  -1.819267e+06
   1.167579e+06  -1.063394e+06
   1.655378e+06   7.292665e+05
  -4.547851e+05   1.157792e+06
  -1.964679e+06  -3.334427e+05
  -5.502103e+05  -1.873794e+06
   2.417908e+06  -1.645696e+06
   3.753130e+06   2.540654e+05
   1.991092e+06   2.557973e+06
  -1.588218e+06   4.062915e+06
  -4.549249e+06   3.717728e+06
  -5.141342e+06   9.896321e+05
  -3.256243e+06  -2.865051e+06
  -4.616794e+05  -5.060354e+06
   1.200354e+06  -4.107155e+06
   1.109380e+06  -1.704567e+06
   5.796257e+05  -5.918078e+05
   1.072501e+06  -1.059692e+06
   2.305981e+06  -1.011289e+06
   2.722520e+06   6.976739e+05
   1.496553e+06   2.525528e+06
  -5.809727e+05   2.313746e+06
  -2.000817e+06   5.798851e+03
  -1.722978e+06  -2.373996e+06
   2.379426e+05  -2.855906e+06
   2.641804e+06  -1.134589e+06
   3.600797e+06   1.469482e+06
   2.222183e+06   3.156234e+06
  -2.307113e+05   3.047124e+06
  -1.610511e+06   1.842104e+06
  -1.455366e+06   9.506775e+05
  -1.399228e+06   8.571281e+05
  -2.652428e+06   6.730546e+05
  -4.016210e+06  -5.543863e+05
  -3.277417e+06  -2.521209e+06
  -1.333902e+05  -3.916925e+06
   3.175361e+06  -3.665282e+06
   4.157212e+06  -1.746141e+06
   2.442243e+06   7.634138e+05
  -1.310029e+05   2.232520e+06
  -1.345500e+06   1.661943e+06
  -4.968311e+05  -1.618658e+05
   1.158253e+06  -1.174462e+06
   1.739497e+06  -3.164382e+05
   7.011671e+05   1.098007e+06
  -6.235365e+05   1.067639e+06
  -6.185852e+05  -3.464989e+05
   7.071866e+05  -1.000149e+06
   1.781584e+06   4.850236e+05
   1.265795e+06   2.836442e+06
  -6.660679e+05   3.607603e+06
  -2.718407e+06   1.905951e+06
  -3.583209e+06  -9.059016e+05
  -2.690488e+06  -2.794915e+06
  -5.625140e+05  -2.787852e+06
   1.316352e+06  -1.429571e+06
   1.594308e+06  -1.221329e+05
   4.769851e+05   5.141005e+04
  -3.471587e+05  -7.219843e+05
   3.273903e+05  -1.205325e+06
   1.681521e+06  -5.344897e+05
   1.881128e+06   7.233089e+05
   4.413603e+05   1.256297e+06
  -1.096091e+06   5.909179e+05
  -9.803940e+05  -4.341026e+05
   7.410552e+05  -7.058105e+05
   2.290673e+06   7.811908e+04
   1.995703e+06   1.333052e+06
  -1.027085e+05   2.126459e+06
  -2.289862e+06   1.750696e+06
  -2.726877e+06   2.906317e+05
  -1.152553e+06  -1.160285e+06
   8.421547e+05  -1.324009e+06
   1.365763e+06  -1.432973e+05
   1.098998e+05   9.659733e+05
  -1.442420e+06   6.707601e+05
  -1.670964e+06  -7.026981e+05
  -4.426282e+05  -1.591216e+06
   9.617731e+05  -1.072724e+06
   1.260484e+06   1.528593e+05
   3.532314e+05   7.096855e+05
  -6.937732e+05   7.483471e+04
  -6.691624e+05  -1.002088e+06
   6.051396e+05  -1.346146e+06
   1.959084e+06  -4.559993e+05
   1.932909e+06   1.060708e+06
   3.497816e+05   1.990060e+06
  -1.359754e+06   1.576561e+06
  -1.654800e+06   2.402418e+05
  -5.343868e+05  -8.195706e+05
   6.168169e+05  -8.094624e+05
   6.899806e+05  -5.885366e+04
  -5.897926e+04   4.852678e+05
  -5.915207e+05   3.337993e+05
  -3.360287e+05  -1.091696e+05
   3.281281e+05  -1.151563e+05
   5.681263e+05   5.047902e+05
  -9.944118e+04   1.126840e+06
  -1.308668e+06   8.888010e+05
  -2.015585e+06  -3.988848e+05
  -1.396188e+06  -1.890813e+06
   2.378790e+05  -2.381052e+06
   1.606761e+06  -1.459182e+06
   1.748651e+06   6.406166e+04
   9.769674e+05   9.809697e+05
   3.428283e+05   8.715671e+05
   3.359753e+05   3.572838e+05
   4.634193e+05   2.515222e+05
   6.383699e+04   6.478817e+05
  -8.143981e+05   8.972456e+05
  -1.444502e+06   3.813997e+05
  -1.123092e+06  -7.434123e+05
   1.902250e+05  -1.544785e+06
   1.704071e+06  -1.117780e+06
   2.237368e+06   4.682902e+05
   1.158748e+06   2.034968e+06
  -8.928092e+05   2.291042e+06
  -2.404565e+06   1.065600e+06
  -2.346159e+06  -5.439607e+05
  -1.089838e+06  -1.314100e+06
   1.226180e+05  -1.068461e+06
   4.917855e+05  -6.239678e+05
   2.705788e+05  -7.096349e+05
   2.022337e+05  -1.153261e+06
   6.312570e+05  -1.162480e+06
   1.203413e+06  -2.704668e+05
   1.263652e+06   1.078586e+06
   5.063304e+05   1.860343e+06
  -6.393983e+05   1.394245e+06
  -1.266926e+06   7.746988e+03
  -8.137774e+05  -1.205720e+06
   3.047995e+05  -1.351143e+06
   1.037220e+06  -4.943850e+05
   7.769246e+05   5.230334e+05
  -1.386435e+04   9.593494e+05
  -3.880151e+05   7.822329e+05
  -3.099546e+04   4.652783e+05
   3.906612e+05   3.629243e+05
   3.605126e+04   3.869067e+05
  -1.072668e+06   2.132923e+05
  -1.938661e+06  -3.133545e+05
  -1.566366e+06  -9.783092e+05
  -3.852197e+04  -1.334774e+06
   1.456356e+06  -1.069104e+06
   1.753746e+06  -3.173286e+05
   8.450760e+05   3.740351e+05
  -2.115411e+05   4.986404e+05
  -4.694989e+05   7.686374e+04
   8.146295e+03  -3.390377e+05
   4.721865e+05  -2.241575e+05
   4.514732e+05   3.413313e+05
   1.508779e+05   7.298041e+05
   6.487216e+03   4.713118e+05
   1.474463e+05  -1.500185e+05
   3.455324e+05  -3.532971e+05
   2.830771e+05   2.208697e+05
  -1.934040e+05   9.888839e+05
  -8.854080e+05   1.013797e+06
  -1.228481e+06   1.019904e+05
  -7.201527e+05  -9.021540e+05
   4.159831e+05  -1.027219e+06
   1.171006e+06  -2.340369e+05
   6.950131e+05   5.958310e+05
  -6.726749e+05   6.434660e+05
  -1.591840e+06  -6.654166e+04
  -1.087872e+06  -8.387639e+05
   4.052443e+05  -1.036373e+06
   1.501078e+06  -5.694869e+05
   1.284838e+06   1.423460e+05
   1.682588e+05   5.273745e+05
  -6.313783e+05   2.969144e+05
  -3.471413e+05  -2.652046e+05
   6.167794e+05  -4.622763e+05
   1.147526e+06   1.558281e+05
   5.663217e+05   1.195011e+06
  -6.877345e+05   1.626591e+06
  -1.508195e+06   7.911177e+05
  -1.217799e+06  -7.935173e+05
  -1.608408e+05  -1.784696e+06
   7.519703e+05  -1.307211e+06
   9.271410e+05   1.378560e+05
   4.612597e+05   1.177209e+06
  -1.659164e+05   9.940758e+05
  -5.372241e+05   1.044220e+05
  -5.021693e+05  -3.929308e+05
  -2.117661e+05  -1.579959e+05
  -2.979820e+04   1.110818e+05
  -1.975581e+05  -2.545503e+05
  -4.612809e+05  -9.433059e+05
  -2.363588e+05  -1.082490e+06
   6.382525e+05  -3.953485e+05
   1.459663e+06   4.827113e+05
   1.311502e+06   8.475443e+05
   1.805791e+05   6.797530e+05
  -8.995645e+05   3.924531e+05
  -9.944645e+05   1.841664e+05
  -3.135701e+05  -2.449437e+04
   1.667400e+05  -2.138708e+05
  -2.002054e+04  -2.352375e+05
  -3.214735e+05  -1.352931e+05
  -2.277929e+04  -1.346437e+05
   7.225104e+05  -1.934887e+05
   1.021970e+06   4.841238e+04
   3.226498e+05   6.740822e+05
  -9.073725e+05   1.103915e+06
  -1.643176e+06   6.704196e+05
  -1.303345e+06  -4.815737e+05
  -2.199680e+05  -1.399087e+06
   7.633753e+05  -1.320721e+06
   1.039858e+06  -4.691283e+05
   6.478993e+05   2.751657e+05
   9.910546e+04   3.528984e+05
  -1.204679e+05   2.584690e+04
   6.313821e+04  -5.658017e+04
   3.177768e+05   3.511797e+05
   2.521681e+05   8.013929e+05
  -2.005074e+05   6.520373e+05
  -6.775857e+05  -1.716491e+05
  -6.731405e+05  -9.867484e+05
  -3.214149e+04  -1.007729e+06
   7.765987e+05  -1.741026e+05
   9.840514e+05   7.776780e+05
   2.862181e+05   1.073892e+06
  -7.213502e+05   6.121676e+05
  -1.071413e+06  -1.091598e+05
  -4.823159e+05  -5.739542e+05
   2.889139e+05  -6.126224e+05
   3.352162e+05  -3.455332e+05
  -2.908699e+05  -3.529642e+04
  -6.523382e+05   1.758904e+04
  -1.220255e+05  -2.955364e+05
   8.257650e+05  -6.589718e+05
   1.210089e+06  -5.463249e+05
   7.004331e+05   1.483529e+05
  -1.147853e+05   8.340155e+05
  -5.164156e+05   8.143450e+05
  -3.719211e+05   1.188917e+05
  -1.705270e+04  -4.909172e+05
   2.513971e+05  -3.972539e+05
   3.439477e+05   1.943126e+05
   2.319652e+05   5.742608e+05
  -6.951232e+04   3.796831e+05
  -3.809302e+05  -7.015614e+04
  -4.491926e+05  -2.547342e+05
  -2.377462e+05  -7.288081e+04
   1.118777e+04   1.137063e+05
   8.373011e+04  -2.503937e+04
   5.582322e+04  -3.721312e+05
   1.410743e+05  -4.888297e+05
   3.405749e+05  -1.296864e+05
   3.841584e+05   4.294878e+05
   6.590090e+04   6.428249e+05
  -4.282073e+05   2.792564e+05
  -6.183105e+05  -3.145728e+05
  -2.157940e+05  -5.850628e+05
   4.934759e+05  -3.440564e+05
   8.407576e+05   1.093102e+05
   4.512353e+05   3.813879e+05
  -2.951853e+05   3.564117e+05
  -6.197439e+05   1.736716e+05
  -2.134920e+05   8.202277e+03
   3.860398e+05  -2.405343e+04
   4.151713e+05   1.185515e+05
  -2.102875e+05   3.090000e+05
  -7.981822e+05   2.471953e+05
