
 $NMID
 id='ANONYMOUS ', fmtdat='(2E16.6)'
 volume=1.0
 tramp=1.0
 $END
   4.344313e+07   1.576610e+06
   2.577430e+07   2.617107e+07
  -5.404483e+06   2.862402e+07
  -2.093725e+07   1.224930e+07
  -1.317042e+07  -3.981917e+06
   1.902880e+06  -7.206149e+06
   7.781183e+06  -5.036184e+04
   3.018308e+06   7.392202e+06
  -4.255835e+06   8.212336e+06
  -7.616934e+06   2.267223e+06
  -5.673724e+06  -5.169175e+06
  -5.090322e+05  -7.302735e+06
   3.456906e+06  -1.976812e+06
   2.295511e+06   5.116461e+06
  -2.921623e+06   5.941221e+06
  -6.325036e+06  -7.445021e+05
  -3.680389e+06  -8.141170e+06
   2.964890e+06  -9.439136e+06
   8.088452e+06  -4.451106e+06
   8.342639e+06   2.119978e+06
   4.525968e+06   6.079601e+06
  -3.980124e+04   6.240532e+06
  -1.933142e+06   4.021352e+06
  -3.013669e+05   2.244168e+06
   1.682482e+06   2.807396e+06
  -1.793809e+05   4.341736e+06
  -5.478339e+06   3.544888e+06
  -8.635788e+06  -3.215761e+05
  -5.641544e+06  -3.977301e+06
   6.054807e+05  -4.199686e+06
   3.896232e+06  -1.603419e+06
   2.117209e+06   8.768714e+05
  -1.439145e+06   1.495653e+06
  -3.062839e+06   2.536857e+05
  -2.116575e+06  -2.144117e+06
   5.531382e+04  -3.970917e+06
   1.924800e+06  -2.912390e+06
   2.180090e+06   7.619267e+05
   6.338467e+05   2.985891e+06
  -7.680347e+05   7.787438e+05
   1.323857e+05  -2.805632e+06
   2.285240e+06  -2.206402e+06
   2.104193e+06   2.452104e+06
  -1.503362e+06   4.765316e+06
  -4.836534e+06   7.941257e+05
  -3.688885e+06  -5.253824e+06
   1.424510e+06  -6.455955e+06
   5.882671e+06  -1.746866e+06
   5.943828e+06   3.709492e+06
   1.890826e+06   5.175304e+06
  -2.910889e+06   2.599437e+06
  -4.801912e+06  -1.011903e+06
  -2.470067e+06  -2.851378e+06
   1.753176e+06  -1.911057e+06
   3.700088e+06   6.089629e+05
   1.708515e+06   2.100789e+06
  -1.351670e+06   1.106026e+06
  -1.646959e+06  -8.252397e+05
   6.990610e+05  -1.014574e+06
   2.002823e+06   8.011504e+05
   7.736298e+04   2.250477e+06
  -3.090120e+06   1.546339e+06
  -4.114591e+06  -7.054972e+05
  -1.967420e+06  -2.997194e+06
   1.740127e+06  -4.379854e+06
   4.750101e+06  -3.989340e+06
   5.484190e+06  -1.122652e+06
   3.607411e+06   3.040081e+06
   5.107430e+05   5.400851e+06
  -1.450991e+06   4.230857e+06
  -1.268729e+06   1.498202e+06
  -3.907915e+05   3.629388e+05
  -7.312335e+05   1.107776e+06
  -2.141281e+06   1.286693e+06
  -2.803014e+06  -4.243418e+05
  -1.686929e+06  -2.376289e+06
   3.887516e+05  -2.295107e+06
   1.871482e+06  -9.374037e+04
   1.717213e+06   2.274388e+06
  -1.772571e+05   2.883272e+06
  -2.707265e+06   1.270084e+06
  -3.861508e+06  -1.450251e+06
  -2.459988e+06  -3.399768e+06
   2.646487e+05  -3.400489e+06
   1.871157e+06  -2.043911e+06
   1.698316e+06  -9.417527e+05
   1.513056e+06  -7.647913e+05
   2.715551e+06  -5.825338e+05
   4.081750e+06   6.506774e+05
   3.300188e+06   2.609477e+06
   1.040784e+05   3.964094e+06
  -3.200043e+06   3.709015e+06
  -4.177777e+06   1.838698e+06
  -2.520397e+06  -6.794389e+05
   1.356358e+04  -2.253976e+06
   1.290829e+06  -1.752098e+06
   5.242343e+05   1.295893e+05
  -1.146453e+06   1.212823e+06
  -1.791644e+06   3.219774e+05
  -7.544118e+05  -1.145651e+06
   5.962552e+05  -1.083630e+06
   5.536969e+05   3.469001e+05
  -7.961180e+05   8.744327e+05
  -1.736813e+06  -7.413191e+05
  -1.012058e+06  -2.982952e+06
   9.460971e+05  -3.461095e+06
   2.784672e+06  -1.612828e+06
   3.439962e+06   1.060429e+06
   2.543247e+06   2.751403e+06
   5.295524e+05   2.715509e+06
  -1.295558e+06   1.435534e+06
  -1.591546e+06   1.498079e+05
  -4.803456e+05  -5.256600e+04
   3.443624e+05   7.312794e+05
  -3.684217e+05   1.236160e+06
  -1.752401e+06   5.227376e+05
  -1.907459e+06  -7.920107e+05
  -4.046365e+05  -1.300543e+06
   1.117808e+06  -5.725092e+05
   9.450728e+05   4.368592e+05
  -7.615088e+05   6.336155e+05
  -2.229104e+06  -1.555838e+05
  -1.901581e+06  -1.325015e+06
   1.457432e+05  -2.058018e+06
   2.287667e+06  -1.702836e+06
   2.732172e+06  -2.690437e+05
   1.156139e+06   1.199752e+06
  -8.831797e+05   1.366859e+06
  -1.427368e+06   1.368616e+05
  -1.257258e+05  -1.007041e+06
   1.469580e+06  -6.779482e+05
   1.671594e+06   7.368120e+05
   3.954221e+05   1.599600e+06
  -9.981144e+05   1.023853e+06
  -1.242414e+06  -2.093696e+05
  -3.084530e+05  -7.241939e+05
   7.238889e+05  -5.733794e+04
   6.809985e+05   1.023678e+06
  -6.052893e+05   1.367190e+06
  -1.977340e+06   4.709205e+05
  -1.956549e+06  -1.069971e+06
  -3.445876e+05  -2.015399e+06
   1.393594e+06  -1.580790e+06
   1.671405e+06  -2.165264e+05
   5.144516e+05   8.330717e+05
  -6.319061e+05   7.988777e+05
  -6.712295e+05   6.556793e+04
   7.053934e+04  -4.385405e+05
   5.488316e+05  -2.974423e+05
   2.686751e+05   7.936481e+04
  -3.513457e+05   4.170045e+04
  -5.344743e+05  -5.557833e+05
   1.435190e+05  -1.133667e+06
   1.332527e+06  -8.765082e+05
   2.027503e+06   4.163002e+05
   1.401858e+06   1.913047e+06
  -2.434447e+05   2.386707e+06
  -1.606673e+06   1.431312e+06
  -1.718134e+06  -8.712763e+04
  -9.367910e+05  -9.448579e+05
  -3.465624e+05  -7.963044e+05
  -3.900259e+05  -3.234288e+05
  -5.092732e+05  -2.853859e+05
  -6.069113e+04  -6.858016e+05
   8.357085e+05  -8.868415e+05
   1.437591e+06  -3.551000e+05
   1.093432e+06   7.326846e+05
  -2.090160e+05   1.505787e+06
  -1.705005e+06   1.090345e+06
  -2.229797e+06  -4.819500e+05
  -1.132680e+06  -2.052291e+06
   9.438099e+05  -2.294658e+06
   2.443438e+06  -1.029450e+06
   2.328114e+06   5.905545e+05
   1.034373e+06   1.311863e+06
  -1.445985e+05   1.017336e+06
  -4.501342e+05   5.903807e+05
  -2.129094e+05   7.354234e+05
  -1.859692e+05   1.206631e+06
  -6.567101e+05   1.194143e+06
  -1.233860e+06   2.733108e+05
  -1.279146e+06  -1.086448e+06
  -5.109284e+05  -1.871291e+06
   6.405322e+05  -1.402412e+06
   1.268002e+06   2.334311e+03
   7.992948e+05   1.230485e+06
  -3.412594e+05   1.353224e+06
  -1.070090e+06   4.490704e+05
  -7.695604e+05  -5.846853e+05
   6.308721e+04  -9.856937e+05
   4.390052e+05  -7.661449e+05
   4.688895e+04  -4.429417e+05
  -4.041127e+05  -3.574890e+05
  -4.262372e+04  -3.863029e+05
   1.094649e+06  -2.010791e+05
   1.970350e+06   3.361989e+05
   1.569161e+06   1.004690e+06
  -4.027292e+02   1.357591e+06
  -1.505537e+06   1.072762e+06
  -1.771698e+06   2.895504e+05
  -8.272286e+05  -4.154462e+05
   2.349165e+05  -5.155965e+05
   4.787915e+05  -5.690405e+04
  -2.925706e+03   3.683307e+05
  -4.641793e+05   2.353661e+05
  -4.586590e+05  -3.444300e+05
  -1.829391e+05  -7.335877e+05
  -3.449094e+04  -4.794818e+05
  -1.395723e+05   1.308923e+05
  -3.181695e+05   3.353066e+05
  -2.776776e+05  -2.243269e+05
   1.783544e+05  -9.878338e+05
   8.948689e+05  -1.023661e+06
   1.276153e+06  -1.116046e+05
   7.587261e+05   9.163847e+05
  -4.269664e+05   1.060770e+06
  -1.205976e+06   2.577433e+05
  -7.056277e+05  -5.913856e+05
   6.833347e+05  -6.377193e+05
   1.581871e+06   8.268223e+04
   1.049553e+06   8.418057e+05
  -4.316890e+05   1.007622e+06
  -1.489320e+06   5.293655e+05
  -1.257021e+06  -1.599467e+05
  -1.544803e+05  -5.185540e+05
   6.343956e+05  -2.818483e+05
   3.557451e+05   2.790473e+05
  -6.098055e+05   4.828118e+05
  -1.162213e+06  -1.349433e+05
  -5.999154e+05  -1.196511e+06
   6.610979e+05  -1.655028e+06
   1.504627e+06  -8.205190e+05
   1.228227e+06   7.846968e+05
   1.691316e+05   1.785242e+06
  -7.485842e+05   1.296093e+06
  -9.192636e+05  -1.551973e+05
  -4.425432e+05  -1.177649e+06
   1.873349e+05  -9.756054e+05
   5.433734e+05  -9.205010e+04
   4.863921e+05   3.842856e+05
   1.936610e+05   1.460249e+05
   3.599590e+04  -1.027901e+05
   2.240904e+05   2.774889e+05
   4.728177e+05   9.548396e+05
   2.140594e+05   1.073761e+06
  -6.671369e+05   3.844419e+05
  -1.460094e+06  -4.807462e+05
  -1.292125e+06  -8.421563e+05
  -1.774444e+05  -6.857071e+05
   8.816212e+05  -4.027790e+05
   9.871166e+05  -1.800722e+05
   3.286308e+05   4.138972e+04
  -1.594111e+05   2.192307e+05
  -7.110705e+02   2.169510e+05
   3.005667e+05   1.138174e+05
   3.390236e+04   1.362448e+05
  -6.993948e+05   2.138937e+05
  -1.031933e+06  -3.830851e+04
  -3.636228e+05  -6.906787e+05
   8.869005e+05  -1.134460e+06
   1.671173e+06  -6.938993e+05
   1.347587e+06   4.727149e+05
   2.378933e+05   1.402919e+06
  -7.712384e+05   1.336680e+06
  -1.048239e+06   4.931038e+05
  -6.521972e+05  -2.582730e+05
  -1.121798e+05  -3.576480e+05
   1.024898e+05  -4.786106e+04
  -6.692984e+04   3.721264e+04
  -3.064315e+05  -3.562659e+05
  -2.460491e+05  -8.016319e+05
   1.949441e+05  -6.630934e+05
   6.812982e+05   1.506940e+05
   7.009326e+05   9.756021e+05
   6.453316e+04   1.022981e+06
  -7.708770e+05   2.071679e+05
  -1.007177e+06  -7.562751e+05
  -3.091983e+05  -1.083748e+06
   7.228337e+05  -6.386033e+05
   1.091862e+06   1.003212e+05
   4.975279e+05   5.952928e+05
  -2.950010e+05   6.395336e+05
  -3.570868e+05   3.490687e+05
   2.724188e+05   1.942812e+04
   6.507089e+05  -2.622837e+04
   1.308309e+05   3.028857e+05
  -8.260058e+05   6.633982e+05
  -1.228562e+06   5.331444e+05
  -7.226991e+05  -1.692630e+05
   1.114733e+05  -8.485599e+05
   5.371439e+05  -8.254085e+05
   4.000476e+05  -1.319245e+05
   3.417227e+04   4.872778e+05
  -2.495147e+05   4.141433e+05
  -3.508408e+05  -1.730239e+05
  -2.398407e+05  -5.761592e+05
   6.710427e+04  -4.020894e+05
   3.866292e+05   5.970523e+04
   4.565271e+05   2.696235e+05
   2.363716e+05   8.469731e+04
  -1.801948e+04  -1.328618e+05
  -7.582329e+04  -7.411475e+03
  -2.233445e+04   3.687522e+05
  -1.046733e+05   5.251464e+05
  -3.384719e+05   1.729573e+05
  -4.222867e+05  -4.123090e+05
  -1.072507e+05  -6.521849e+05
   4.211246e+05  -2.963101e+05
   6.410007e+05   3.024105e+05
   2.333595e+05   5.814948e+05
  -5.010911e+05   3.505612e+05
  -8.608541e+05  -9.853075e+04
  -4.625041e+05  -3.817945e+05
   2.985921e+05  -3.757701e+05
   6.326423e+05  -1.961281e+05
   2.316516e+05  -8.757719e+03
  -3.698052e+05   4.909548e+04
  -4.153913e+05  -9.123378e+04
   1.874529e+05  -3.031635e+05
   7.710170e+05  -2.625125e+05
