
 $NMID
 id='ANONYMOUS ', fmtdat='(2E16.6)'
 volume=1.0
 tramp=1.0
 $END
   4.643833e+07  -7.040867e+05
   2.880464e+07   2.695706e+07
  -4.552171e+06   3.101410e+07
  -2.189743e+07   1.378794e+07
  -1.413998e+07  -4.031176e+06
   1.869282e+06  -7.794818e+06
   8.264369e+06  -1.585713e+05
   3.340888e+06   7.798579e+06
  -4.308748e+06   8.710901e+06
  -7.992018e+06   2.582288e+06
  -6.224533e+06  -5.166024e+06
  -9.046396e+05  -7.608364e+06
   3.507856e+06  -2.308391e+06
   2.616992e+06   5.120211e+06
  -2.846817e+06   6.246332e+06
  -6.722941e+06  -5.835170e+05
  -4.229227e+06  -8.457299e+06
   2.732570e+06  -1.012175e+07
   8.361224e+06  -5.139086e+06
   8.999021e+06   1.750658e+06
   5.256190e+06   6.205680e+06
   3.918559e+05   6.775015e+06
  -1.961428e+06   4.554499e+06
  -5.203148e+05   2.374901e+06
   1.696631e+06   2.626060e+06
   9.792379e+04   4.346519e+06
  -5.343640e+06   3.987023e+06
  -8.923029e+06   2.305637e+05
  -6.152164e+06  -3.783259e+06
   2.423725e+05  -4.435737e+06
   3.816393e+06  -1.990589e+06
   2.243908e+06   6.060970e+05
  -1.218683e+06   1.456745e+06
  -2.918807e+06   4.343577e+05
  -2.239930e+06  -1.929848e+06
  -2.655606e+05  -3.999389e+06
   1.787946e+06  -3.210125e+06
   2.443350e+06   5.376417e+05
   9.921679e+05   3.109746e+06
  -7.352552e+05   1.049230e+06
  -8.416069e+04  -2.762261e+06
   2.241928e+06  -2.344638e+06
   2.304643e+06   2.528004e+06
  -1.480674e+06   5.150517e+06
  -5.261622e+06   1.070656e+06
  -4.246958e+06  -5.458508e+06
   1.235602e+06  -6.986034e+06
   6.157151e+06  -2.162862e+06
   6.360889e+06   3.619278e+06
   2.129918e+06   5.306724e+06
  -2.934021e+06   2.777331e+06
  -4.983399e+06  -9.088271e+05
  -2.613477e+06  -2.898847e+06
   1.814800e+06  -2.072055e+06
   3.928929e+06   5.068194e+05
   1.871713e+06   2.169251e+06
  -1.385165e+06   1.233942e+06
  -1.719969e+06  -7.999688e+05
   7.833794e+05  -1.042339e+06
   2.157953e+06   9.046463e+05
   5.046704e+04   2.508372e+06
  -3.350579e+06   1.776543e+06
  -4.421541e+06  -6.539024e+05
  -2.190823e+06  -3.130056e+06
   1.573067e+06  -4.668686e+06
   4.664999e+06  -4.400419e+06
   5.620321e+06  -1.499022e+06
   3.966049e+06   2.927250e+06
   8.420389e+05   5.578589e+06
  -1.359118e+06   4.443729e+06
  -1.318620e+06   1.514908e+06
  -3.402374e+05   2.563050e+05
  -5.378557e+05   1.116313e+06
  -1.990743e+06   1.489054e+06
  -2.844081e+06  -1.704041e+05
  -1.874489e+06  -2.232241e+06
   2.073711e+05  -2.303386e+06
   1.821654e+06  -2.003272e+05
   1.827233e+06   2.180256e+06
  -1.421230e+04   2.929076e+06
  -2.686651e+06   1.479694e+06
  -4.081865e+06  -1.238712e+06
  -2.785656e+06  -3.391590e+06
   6.877807e+04  -3.607667e+06
   1.877033e+06  -2.280631e+06
   1.779231e+06  -1.065395e+06
   1.558251e+06  -8.225305e+05
   2.760850e+06  -6.869841e+05
   4.201972e+06   4.996774e+05
   3.483324e+06   2.521321e+06
   2.845834e+05   4.030413e+06
  -3.069003e+06   3.922826e+06
  -4.136328e+06   2.096323e+06
  -2.602462e+06  -5.221105e+05
  -1.445501e+05  -2.271841e+06
   1.188016e+06  -1.863917e+06
   5.446756e+05   8.730791e+04
  -1.091281e+06   1.295899e+06
  -1.819638e+06   4.222403e+05
  -8.486245e+05  -1.135534e+06
   5.379085e+05  -1.129525e+06
   5.505318e+05   3.332593e+05
  -8.198958e+05   8.839654e+05
  -1.812684e+06  -7.817739e+05
  -1.079906e+06  -3.072701e+06
   9.368184e+05  -3.530628e+06
   2.817682e+06  -1.649417e+06
   3.495460e+06   1.002407e+06
   2.632954e+06   2.672983e+06
   6.362193e+05   2.698567e+06
  -1.235575e+06   1.511574e+06
  -1.599067e+06   2.363900e+05
  -4.906862e+05  -3.121189e+04
   3.833713e+05   7.276141e+05
  -3.261482e+05   1.287399e+06
  -1.779788e+06   6.182293e+05
  -1.990297e+06  -7.354683e+05
  -4.643888e+05  -1.321357e+06
   1.114416e+06  -6.290565e+05
   9.624487e+05   4.021553e+05
  -7.591698e+05   6.479675e+05
  -2.247356e+06  -9.604238e+04
  -1.944339e+06  -1.263174e+06
   8.037119e+04  -2.066845e+06
   2.242139e+06  -1.809042e+06
   2.758478e+06  -3.912736e+05
   1.234666e+06   1.176570e+06
  -8.399369e+05   1.449782e+06
  -1.465581e+06   2.131057e+05
  -1.886478e+05  -1.027744e+06
   1.465028e+06  -7.626513e+05
   1.732077e+06   6.811153e+05
   4.574752e+05   1.611573e+06
  -9.845668e+05   1.069370e+06
  -1.269130e+06  -1.787677e+05
  -3.315802e+05  -7.308720e+05
   7.428057e+05  -9.008435e+04
   7.439771e+05   1.009162e+06
  -5.449397e+05   1.418355e+06
  -1.982734e+06   5.767480e+05
  -2.040077e+06  -9.916503e+05
  -4.443206e+05  -2.034613e+06
   1.350220e+06  -1.672032e+06
   1.693110e+06  -2.901542e+05
   5.550012e+05   8.280720e+05
  -6.090511e+05   8.370114e+05
  -6.676470e+05   9.914135e+04
   6.155792e+04  -4.280698e+05
   5.276738e+05  -3.045006e+05
   2.419754e+05   6.480217e+04
  -3.741623e+05   2.999302e+04
  -5.590872e+05  -5.646270e+05
   1.110391e+05  -1.162635e+06
   1.319492e+06  -9.460738e+05
   2.077708e+06   3.331045e+05
   1.512292e+06   1.879077e+06
  -1.374779e+05   2.429838e+06
  -1.564129e+06   1.511741e+06
  -1.734222e+06  -2.300866e+04
  -9.701048e+05  -9.051001e+05
  -3.776279e+05  -7.593381e+05
  -4.263038e+05  -2.877647e+05
  -5.516025e+05  -2.725897e+05
  -9.616509e+04  -7.071598e+05
   8.160797e+05  -9.338293e+05
   1.439115e+06  -4.120236e+05
   1.124955e+06   6.919877e+05
  -1.567759e+05   1.519443e+06
  -1.679334e+06   1.169556e+06
  -2.276787e+06  -3.918409e+05
  -1.232763e+06  -2.034774e+06
   8.687720e+05  -2.374248e+06
   2.445897e+06  -1.145912e+06
   2.383014e+06   5.113250e+05
   1.084836e+06   1.286964e+06
  -1.156783e+05   1.018588e+06
  -4.162327e+05   5.982897e+05
  -1.541322e+05   7.560757e+05
  -1.178790e+05   1.249277e+06
  -6.150624e+05   1.255710e+06
  -1.247970e+06   3.394072e+05
  -1.352212e+06  -1.041069e+06
  -6.072905e+05  -1.873678e+06
   5.822718e+05  -1.452429e+06
   1.284996e+06  -5.277729e+04
   8.635204e+05   1.220047e+06
  -2.971029e+05   1.391286e+06
  -1.081809e+06   4.903891e+05
  -8.114995e+05  -5.820783e+05
   3.444583e+04  -1.017997e+06
   4.315338e+05  -7.962524e+05
   3.641202e+04  -4.438474e+05
  -4.298367e+05  -3.394584e+05
  -6.301520e+04  -3.878831e+05
   1.109163e+06  -2.516940e+05
   2.025053e+06   2.544821e+05
   1.638940e+06   9.543531e+05
   5.011448e+04   1.388081e+06
  -1.492964e+06   1.163492e+06
  -1.790738e+06   3.665820e+05
  -8.551215e+05  -4.011007e+05
   2.210600e+05  -5.426639e+05
   4.884585e+05  -7.277796e+04
   1.969122e+04   3.842486e+05
  -4.548344e+05   2.629786e+05
  -4.835587e+05  -3.281130e+05
  -2.321157e+05  -7.314663e+05
  -6.938076e+04  -4.832447e+05
  -1.349251e+05   1.298431e+05
  -2.977344e+05   3.425097e+05
  -2.886808e+05  -2.165076e+05
   1.298056e+05  -1.004854e+06
   8.606448e+05  -1.081622e+06
   1.303414e+06  -1.817746e+05
   8.271026e+05   8.927052e+05
  -3.830223e+05   1.107885e+06
  -1.219388e+06   3.304948e+05
  -7.450342e+05  -5.629581e+05
   6.674607e+05  -6.761272e+05
   1.603230e+06   1.880201e+04
   1.085986e+06   8.103168e+05
  -4.053055e+05   1.031810e+06
  -1.483785e+06   5.865852e+05
  -1.270719e+06  -1.148165e+05
  -1.735580e+05  -5.160121e+05
   6.321154e+05  -3.090672e+05
   3.782300e+05   2.700220e+05
  -5.890168e+05   5.238803e+05
  -1.185256e+06  -7.245521e+04
  -6.759815e+05  -1.179181e+06
   5.782580e+05  -1.713335e+06
   1.479762e+06  -9.111429e+05
   1.282396e+06   7.327835e+05
   2.568097e+05   1.798336e+06
  -6.981272e+05   1.341400e+06
  -9.366504e+05  -1.227096e+05
  -4.947109e+05  -1.174014e+06
   1.554513e+05  -9.912828e+05
   5.494931e+05  -1.140467e+05
   5.024047e+05   3.649885e+05
   1.939439e+05   1.363011e+05
   3.524843e+04  -1.033561e+05
   2.531921e+05   2.759709e+05
   5.288418e+05   9.475274e+05
   2.563704e+05   1.076397e+06
  -6.703477e+05   4.194801e+05
  -1.499941e+06  -4.183426e+05
  -1.338195e+06  -7.932344e+05
  -2.106131e+05  -6.886111e+05
   8.653279e+05  -4.499696e+05
   9.883667e+05  -2.251180e+05
   3.427191e+05   3.151775e+04
  -1.476047e+05   2.305579e+05
  -1.493443e+03   2.152511e+05
   2.980590e+05   9.550573e+04
   4.510971e+04   1.352353e+05
  -6.859733e+05   2.536317e+05
  -1.048629e+06   1.423542e+04
  -4.183444e+05  -6.833307e+05
   8.330487e+05  -1.198553e+06
   1.667379e+06  -7.924513e+05
   1.402079e+06   4.069652e+05
   3.130139e+05   1.408069e+06
  -7.199561e+05   1.395602e+06
  -1.038146e+06   5.578548e+05
  -6.712213e+05  -2.239641e+05
  -1.357946e+05  -3.567280e+05
   9.138075e+04  -5.944423e+04
  -7.009161e+04   3.351734e+04
  -3.226551e+05  -3.498770e+05
  -2.836731e+05  -8.006638e+05
   1.627950e+05  -6.836982e+05
   6.950433e+05   1.120784e+05
   7.640733e+05   9.467695e+05
   1.275256e+05   1.034164e+06
  -7.640096e+05   2.577034e+05
  -1.060664e+06  -7.074075e+05
  -3.733299e+05  -1.083499e+06
   6.992462e+05  -6.903009e+05
   1.116541e+06   4.500822e+04
   5.397296e+05   5.858840e+05
  -2.678733e+05   6.721608e+05
  -3.532992e+05   3.739963e+05
   2.673325e+05   3.349842e+03
   6.555505e+05  -5.965938e+04
   1.507827e+05   3.023017e+05
  -8.049019e+05   7.113375e+05
  -1.227884e+06   5.935194e+05
  -7.508793e+05  -1.433336e+05
   7.041410e+04  -8.693548e+05
   5.123511e+05  -8.673023e+05
   4.082540e+05  -1.607860e+05
   6.332778e+04   4.879357e+05
  -2.305116e+05   4.370658e+05
  -3.629966e+05  -1.496444e+05
  -2.726648e+05  -5.717884e+05
   4.547617e+04  -4.186106e+05
   3.949601e+05   3.766938e+04
   4.793939e+05   2.567422e+05
   2.441741e+05   7.971592e+04
  -2.960795e+04  -1.402891e+05
  -7.822762e+04  -1.790294e+04
   7.258927e+03   3.684953e+05
  -6.249730e+04   5.459640e+05
  -3.280975e+05   2.075628e+05
  -4.592985e+05  -3.860122e+05
  -1.562335e+05  -6.534164e+05
   4.075195e+05  -3.251151e+05
   6.700555e+05   2.687314e+05
   2.694400e+05   5.740114e+05
  -4.931400e+05   3.814422e+05
  -8.823204e+05  -5.309805e+04
  -4.902378e+05  -3.637348e+05
   2.836400e+05  -4.022508e+05
   6.334402e+05  -2.383556e+05
   2.412689e+05  -2.214623e+04
  -3.622490e+05   7.464843e+04
  -4.211863e+05  -6.224417e+04
   1.673767e+05  -3.101987e+05
   7.554477e+05  -3.038224e+05
