
 $NMID
 id='ANONYMOUS ', fmtdat='(2E16.6)'
 volume=1.0
 tramp=1.0
 $END
  -1.260309e+07  -5.653707e+05
  -8.141155e+06  -6.129552e+06
   2.705778e+05  -7.877185e+06
   5.543779e+06  -5.186851e+06
   4.587745e+06  -5.296969e+05
   2.783413e+05   2.258915e+06
  -2.582557e+06   1.167117e+06
  -1.954516e+06  -2.040400e+06
   6.142289e+05  -3.548607e+06
   2.410152e+06  -1.565410e+06
   2.043695e+06   1.731450e+06
   1.883375e+05   2.737547e+06
  -1.288914e+06   5.136470e+05
  -9.744731e+05  -2.320321e+06
   7.903107e+05  -2.666323e+06
   2.148864e+06  -2.196095e+05
   1.541232e+06   2.554983e+06
  -6.590549e+05   3.175285e+06
  -2.498228e+06   1.426161e+06
  -2.455538e+06  -8.669402e+05
  -9.342250e+05  -1.859912e+06
   3.066718e+05  -1.359275e+06
   7.185374e+04  -6.669179e+05
  -1.021553e+06  -9.548825e+05
  -1.222911e+06  -1.940755e+06
   4.031772e+05  -2.284767e+06
   2.743124e+06  -1.197949e+06
   3.566386e+06   6.273528e+05
   1.876987e+06   1.757829e+06
  -8.312365e+05   1.430667e+06
  -2.008757e+06   1.123213e+05
  -7.372372e+05  -1.047320e+06
   1.374876e+06  -1.089249e+06
   2.094406e+06   1.020653e+05
   9.594895e+05   1.585452e+06
  -5.568697e+05   1.974308e+06
  -9.683612e+05   7.939123e+05
  -2.902346e+05  -7.573212e+05
   3.850321e+05  -9.452143e+05
   2.774513e+05   4.276220e+05
  -4.300847e+05   1.629422e+06
  -1.013904e+06   1.071766e+06
  -8.956639e+05  -6.675830e+05
  -4.693147e+04  -1.517682e+06
   9.065401e+05  -4.530649e+05
   1.011905e+06   1.313437e+06
  -1.576533e+05   1.828872e+06
  -1.800706e+06   5.658218e+05
  -2.366994e+06  -1.228111e+06
  -1.089785e+06  -1.997369e+06
   1.042664e+06  -1.298405e+06
   2.149617e+06   7.683720e+04
   1.352649e+06   9.753107e+05
  -3.740403e+05   8.283283e+05
  -1.307485e+06   1.001188e+04
  -7.564144e+05  -5.866533e+05
   3.910600e+05  -4.084742e+05
   7.875060e+05   2.549142e+05
   9.105335e+04   6.387167e+05
  -7.582654e+05   3.292876e+05
  -6.499379e+05  -3.437514e+05
   4.223056e+05  -6.745863e+05
   1.289447e+06  -2.322710e+05
   8.434533e+05   7.733597e+05
  -7.359824e+05   1.593251e+06
  -2.121387e+06   1.449081e+06
  -2.202045e+06   2.078980e+05
  -1.148214e+06  -1.349029e+06
  -4.081847e+04  -2.134055e+06
   3.695827e+05  -1.792322e+06
   3.018544e+05  -1.004301e+06
   4.112744e+05  -6.065376e+05
   9.196599e+05  -5.871548e+05
   1.414028e+06  -2.496323e+05
   1.346338e+06   6.766581e+05
   5.748752e+05   1.476410e+06
  -4.950452e+05   1.225282e+06
  -1.157054e+06  -5.227620e+04
  -8.835481e+05  -1.278741e+06
   1.999124e+05  -1.395633e+06
   1.278329e+06  -3.803370e+05
   1.488790e+06   8.443796e+05
   7.387781e+05   1.374805e+06
  -2.085606e+05   1.098911e+06
  -5.822161e+05   5.887329e+05
  -4.484639e+05   3.877281e+05
  -5.325152e+05   4.790574e+05
  -1.204623e+06   4.018591e+05
  -1.867798e+06  -1.992807e+05
  -1.549709e+06  -1.158526e+06
  -7.217146e+04  -1.864486e+06
   1.558112e+06  -1.738725e+06
   2.058534e+06  -7.406178e+05
   1.143565e+06   5.007914e+05
  -2.056935e+05   1.115867e+06
  -7.575409e+05   7.347675e+05
  -2.255996e+05  -1.261425e+05
   5.990179e+05  -5.373234e+05
   8.014376e+05  -1.269168e+05
   2.671061e+05   5.086364e+05
  -3.451288e+05   5.158574e+05
  -3.746869e+05  -1.486757e+05
   2.083416e+05  -5.967101e+05
   8.336293e+05  -5.399331e+04
   8.419526e+05   1.147497e+06
   2.250065e+04   1.833744e+06
  -1.164764e+06   1.228423e+06
  -1.861781e+06  -2.337599e+05
  -1.493034e+06  -1.375964e+06
  -3.319715e+05  -1.439657e+06
   6.753432e+05  -7.007247e+05
   7.970399e+05  -2.695502e+04
   2.302713e+05   2.637438e+04
  -1.689486e+05  -3.448026e+05
   1.297945e+05  -5.439625e+05
   7.466575e+05  -2.468502e+05
   8.705462e+05   2.943987e+05
   2.386515e+05   5.578559e+05
  -5.104961e+05   3.008486e+05
  -5.192937e+05  -2.003032e+05
   3.178602e+05  -4.175990e+05
   1.166334e+06  -6.335082e+04
   1.084450e+06   6.354270e+05
   1.612110e+04   1.105249e+06
  -1.115510e+06   9.089641e+05
  -1.328222e+06   1.583766e+05
  -5.461490e+05  -5.314714e+05
   3.876397e+05  -5.878118e+05
   6.024194e+05  -5.241363e+04
   1.994482e+04   4.361924e+05
  -6.838746e+05   3.091890e+05
  -8.074955e+05  -3.123826e+05
  -2.626607e+05  -7.578441e+05
   4.186149e+05  -5.660516e+05
   6.195701e+05   9.973259e+03
   2.160263e+05   3.184683e+05
  -3.024363e+05   4.408907e+04
  -3.066141e+05  -4.747697e+05
   3.076058e+05  -6.377349e+05
   9.496690e+05  -1.972948e+05
   9.190520e+05   5.241046e+05
   1.642360e+05   9.498903e+05
  -6.368004e+05   7.555787e+05
  -7.878126e+05   1.342458e+05
  -2.778723e+05  -3.827281e+05
   2.851668e+05  -4.030737e+05
   3.626359e+05  -2.653707e+04
  -7.468177e+02   2.858992e+05
  -3.255668e+05   2.180366e+05
  -2.495278e+05  -6.314654e+04
   1.099630e+05  -1.282657e+05
   2.970094e+05   1.814980e+05
  -5.401359e+03   5.306755e+05
  -6.148604e+05   4.391922e+05
  -9.710022e+05  -1.856849e+05
  -6.682684e+05  -9.104939e+05
   1.182940e+05  -1.162110e+06
   7.837361e+05  -7.443807e+05
   8.849609e+05  -4.810214e+02
   5.347434e+05   5.100103e+05
   1.888797e+05   5.130851e+05
   1.170291e+05   2.325097e+05
   1.650920e+05   1.036267e+05
   2.006385e+04   2.758290e+05
  -3.752287e+05   4.431014e+05
  -7.091427e+05   2.156626e+05
  -5.867365e+05  -3.690793e+05
   6.250741e+04  -7.950977e+05
   8.295146e+05  -5.755961e+05
   1.102541e+06   2.175325e+05
   5.877620e+05   9.750816e+05
  -3.895117e+05   1.102724e+06
  -1.129507e+06   5.445266e+05
  -1.155856e+06  -2.154226e+05
  -5.945005e+05  -6.316431e+05
   2.063050e+04  -5.734387e+05
   2.770523e+05  -3.571838e+05
   2.069575e+05  -3.403612e+05
   1.387192e+05  -5.138419e+05
   2.963279e+05  -5.265093e+05
   5.600079e+05  -1.164269e+05
   5.991950e+05   5.300834e+05
   2.358792e+05   9.055893e+05
  -3.192374e+05   6.748351e+05
  -6.183556e+05   1.162602e+04
  -4.046521e+05  -5.625031e+05
   1.136928e+05  -6.486275e+05
   4.591961e+05  -2.789192e+05
   3.672747e+05   1.887160e+05
   3.576237e+04   4.255148e+05
  -1.309743e+05   3.835422e+05
   8.941553e+03   2.476596e+05
   1.783551e+05   1.899613e+05
   9.854075e+03   1.932057e+05
  -4.994338e+05   1.081324e+05
  -9.096995e+05  -1.444460e+05
  -7.556952e+05  -4.566011e+05
  -5.068269e+04  -6.177894e+05
   6.658656e+05  -5.011812e+05
   8.336862e+05  -1.762112e+05
   4.197863e+05   1.341758e+05
  -8.543398e+04   2.178859e+05
  -2.138019e+05   5.537487e+04
   2.081207e+04  -1.362711e+05
   2.453740e+05  -9.953155e+04
   2.121575e+05   1.679934e+05
   3.594985e+04   3.662185e+05
  -3.151382e+04   2.326014e+05
   7.471937e+04  -9.715469e+04
   1.943556e+05  -2.023405e+05
   1.434130e+05   1.033829e+05
  -1.133684e+05   4.921175e+05
  -4.305936e+05   4.823973e+05
  -5.552716e+05   2.023507e+04
  -3.047542e+05  -4.430570e+05
   2.065263e+05  -4.634624e+05
   5.461919e+05  -7.413909e+04
   3.302484e+05   3.031433e+05
  -3.185052e+05   3.173899e+05
  -7.877948e+05  -1.517071e+04
  -5.739491e+05  -3.981056e+05
   1.625084e+05  -5.308979e+05
   7.381971e+05  -3.247424e+05
   6.557961e+05   4.383346e+04
   9.975005e+04   2.645552e+05
  -3.025746e+05   1.600634e+05
  -1.558502e+05  -1.190219e+05
   3.191616e+05  -2.058469e+05
   5.551109e+05   1.072790e+05
   2.383474e+05   5.990051e+05
  -3.810917e+05   7.763245e+05
  -7.576008e+05   3.544766e+05
  -5.885796e+05  -4.063127e+05
  -6.567784e+04  -8.801838e+05
   3.725547e+05  -6.544103e+05
   4.581346e+05   4.808766e+04
   2.445400e+05   5.728443e+05
  -5.382853e+04   5.012359e+05
  -2.533092e+05   6.160779e+04
  -2.664069e+05  -1.983076e+05
  -1.278721e+05  -8.499464e+04
  -5.222104e+03   6.148690e+04
  -5.941565e+04  -1.097025e+05
  -2.079620e+05  -4.562741e+05
  -1.412745e+05  -5.346267e+05
   2.792151e+05  -1.948172e+05
   7.168296e+05   2.430155e+05
   6.660857e+05   4.188795e+05
   8.860095e+04   3.269857e+05
  -4.665174e+05   1.858265e+05
  -4.960292e+05   9.535048e+04
  -1.316648e+05   5.368756e+02
   9.242789e+04  -1.014481e+05
  -3.844940e+04  -1.285226e+05
  -1.882530e+05  -8.349926e+04
   1.836764e+03  -6.837660e+04
   3.882059e+05  -7.918311e+04
   4.950013e+05   4.069711e+04
   1.063132e+05   3.282828e+05
  -4.818573e+05   5.143388e+05
  -7.869488e+05   2.903086e+05
  -5.942441e+05  -2.649661e+05
  -8.393172e+04  -6.904773e+05
   3.752801e+05  -6.273764e+05
   5.115228e+05  -1.990654e+05
   3.191504e+05   1.567997e+05
   3.194227e+04   1.730995e+05
  -8.672665e+04  -5.444023e+03
   2.023086e+04  -4.762641e+04
   1.661497e+05   1.638375e+05
   1.288313e+05   3.922410e+05
  -1.100562e+05   3.099943e+05
  -3.360652e+05  -1.102482e+05
  -3.021259e+05  -5.087098e+05
   2.742205e+04  -4.901701e+05
   4.001144e+05  -4.950440e+04
   4.641582e+05   4.162426e+05
   1.095847e+05   5.258900e+05
  -3.636895e+05   2.697931e+05
  -5.071875e+05  -7.296248e+04
  -2.116985e+05  -2.651766e+05
   1.461492e+05  -2.688945e+05
   1.428263e+05  -1.576429e+05
  -1.687309e+05  -2.902144e+04
  -3.255871e+05  -1.754197e+03
  -4.707922e+04  -1.405870e+05
   4.088241e+05  -3.171819e+05
   5.713601e+05  -2.738830e+05
   3.122945e+05   5.936696e+04
  -6.708057e+04   3.950080e+05
  -2.368824e+05   3.798309e+05
  -1.567922e+05   3.346089e+04
   1.027726e+04  -2.513960e+05
   1.324817e+05  -1.768522e+05
   1.685326e+05   1.221239e+05
   1.034288e+05   2.835575e+05
  -4.552257e+04   1.627570e+05
  -1.845398e+05  -4.884358e+04
  -2.070273e+05  -1.124949e+05
  -1.141074e+05  -2.292122e+04
  -8.951501e+03   3.728322e+04
   3.857325e+04  -5.053071e+04
   6.390834e+04  -1.982692e+05
   1.231701e+05  -2.128615e+05
   1.851927e+05  -1.618039e+04
   1.520216e+05   2.442594e+05
  -1.776539e+04   3.203924e+05
  -2.249229e+05   1.200699e+05
  -2.826239e+05  -1.773719e+05
  -8.672528e+04  -2.982190e+05
   2.373281e+05  -1.582398e+05
   3.948428e+05   7.452904e+04
   2.084827e+05   1.920546e+05
  -1.489890e+05   1.521203e+05
  -2.988157e+05   5.479111e+04
  -8.523217e+04  -3.427256e+03
   2.164775e+05   1.089062e+04
   2.131843e+05   8.934307e+04
  -1.271602e+05   1.658579e+05
  -4.282402e+05   1.123852e+05
