
 $NMID
 id='ANONYMOUS ', fmtdat='(2E16.6)'
 volume=1.0
 tramp=1.0
 $END
   1.665043e+07  -4.556441e+05
   1.184472e+07   6.333761e+06
   1.302241e+06   1.018657e+07
  -6.514264e+06   8.475335e+06
  -6.567580e+06   2.216914e+06
  -1.120381e+06  -3.093974e+06
   3.554680e+06  -2.524886e+06
   3.482875e+06   2.479377e+06
  -1.113531e+05   5.523174e+06
  -3.192737e+06   2.881410e+06
  -3.108452e+06  -2.245698e+06
  -5.151368e+05  -3.987356e+06
   1.828005e+06  -7.480175e+05
   1.671900e+06   3.519714e+06
  -7.847704e+05   4.207308e+06
  -3.033862e+06   7.732866e+05
  -2.586007e+06  -3.357393e+06
   4.356557e+05  -4.540780e+06
   3.246972e+06  -2.210722e+06
   3.328406e+06   1.056916e+06
   1.165999e+06   2.395591e+06
  -4.354096e+05   1.510437e+06
   3.172047e+05   5.832217e+05
   2.149876e+06   1.406564e+06
   2.229436e+06   3.202300e+06
  -5.806705e+05   3.699992e+06
  -4.252595e+06   1.906289e+06
  -5.423782e+06  -8.700355e+05
  -2.772067e+06  -2.533119e+06
   1.392274e+06  -2.071908e+06
   3.190418e+06  -7.279344e+04
   1.115976e+06   1.829715e+06
  -2.358157e+06   1.951141e+06
  -3.544004e+06  -9.860137e+04
  -1.598262e+06  -2.633225e+06
   9.277983e+05  -3.160235e+06
   1.457232e+06  -1.087087e+06
   2.058448e+05   1.299659e+06
  -7.876732e+05   1.305531e+06
  -4.111655e+05  -9.634112e+05
   6.983592e+05  -2.700179e+06
   1.476668e+06  -1.777191e+06
   1.433216e+06   7.748047e+05
   5.209719e+05   2.106926e+06
  -8.372098e+05   8.579705e+05
  -1.438293e+06  -1.489228e+06
  -1.452155e+05  -2.410758e+06
   2.379606e+06  -9.611702e+05
   3.652741e+06   1.510645e+06
   1.963890e+06   2.870897e+06
  -1.399369e+06   2.158154e+06
  -3.341555e+06   2.172407e+05
  -2.283745e+06  -1.275725e+06
   3.376347e+05  -1.310871e+06
   1.882019e+06  -2.522582e+05
   1.223177e+06   6.948293e+05
  -4.793376e+05   6.329669e+05
  -1.262326e+06  -2.829290e+05
  -3.561561e+05  -1.070049e+06
   1.108859e+06  -8.649660e+05
   1.312534e+06   2.187855e+05
  -1.920991e+05   1.102215e+06
  -1.758660e+06   7.156098e+05
  -1.371144e+06  -8.841177e+05
   9.734062e+05  -2.370495e+06
   3.143700e+06  -2.275166e+06
   3.269537e+06  -3.894040e+05
   1.690613e+06   1.968744e+06
   1.703765e+05   3.168621e+06
  -3.007196e+05   2.766117e+06
  -2.802196e+05   1.725799e+06
  -6.973467e+05   1.151631e+06
  -1.624889e+06   1.004751e+06
  -2.347701e+06   3.520339e+05
  -2.161351e+06  -1.142745e+06
  -9.213565e+05  -2.403676e+06
   8.068063e+05  -2.008110e+06
   1.925213e+06   3.625997e+04
   1.511215e+06   2.018228e+06
  -2.484675e+05   2.214271e+06
  -1.966658e+06   6.118409e+05
  -2.263643e+06  -1.256101e+06
  -1.107983e+06  -1.989069e+06
   2.546635e+05  -1.533803e+06
   7.315171e+05  -8.293086e+05
   5.273708e+05  -6.332014e+05
   7.264520e+05  -8.478845e+05
   1.829186e+06  -7.819458e+05
   2.924761e+06   1.144852e+05
   2.523288e+06   1.659997e+06
   2.745738e+05   2.915499e+06
  -2.319666e+06   2.847104e+06
  -3.197378e+06   1.275089e+06
  -1.809134e+06  -7.632827e+05
   3.135350e+05  -1.780844e+06
   1.184578e+06  -1.170990e+06
   3.527688e+05   2.059195e+05
  -9.183909e+05   8.751313e+05
  -1.228056e+06   2.542954e+05
  -4.246950e+05  -7.606497e+05
   5.260350e+05  -8.355894e+05
   6.455480e+05   2.016361e+05
  -2.180954e+05   1.031847e+06
  -1.322163e+06   3.132019e+05
  -1.567652e+06  -1.638093e+06
  -3.655117e+05  -2.967764e+06
   1.681005e+06  -2.212348e+06
   3.041004e+06   1.151636e+05
   2.566893e+06   2.075223e+06
   6.655697e+05   2.295590e+06
  -1.027504e+06   1.160724e+06
  -1.263777e+06   8.799773e+04
  -3.641671e+05  -2.333206e+04
   2.954454e+05   5.273643e+05
  -1.409332e+05   8.494052e+05
  -1.119019e+06   4.499653e+05
  -1.379341e+06  -3.591497e+05
  -4.392585e+05  -8.351601e+05
   7.714807e+05  -5.257191e+05
   8.606342e+05   2.730021e+05
  -4.519305e+05   7.306263e+05
  -1.874416e+06   2.459320e+05
  -1.826995e+06  -9.180847e+05
  -1.449738e+05  -1.788174e+06
   1.692701e+06  -1.556942e+06
   2.085742e+06  -3.674729e+05
   9.001805e+05   7.750548e+05
  -5.469287e+05   9.307612e+05
  -9.112548e+05   1.278895e+05
  -5.164545e+04  -6.657653e+05
   1.043361e+06  -5.361722e+05
   1.299933e+06   4.110419e+05
   5.031221e+05   1.170593e+06
  -5.926680e+05   9.558689e+05
  -9.884620e+05   6.826647e+04
  -3.927914e+05  -4.755816e+05
   4.567351e+05  -1.020619e+05
   5.147829e+05   7.162111e+05
  -4.386247e+05   1.022255e+06
  -1.479019e+06   3.768865e+05
  -1.481606e+06  -7.542367e+05
  -3.355013e+05  -1.475476e+06
   9.289018e+05  -1.240658e+06
   1.224463e+06  -2.868593e+05
   4.802837e+05   5.747938e+05
  -4.107648e+05   6.657569e+05
  -5.848924e+05   6.700711e+04
  -3.219847e+04  -4.819416e+05
   5.225731e+05  -3.977747e+05
   4.452833e+05   9.327048e+04
  -1.430239e+05   2.561793e+05
  -5.015234e+05  -2.288420e+05
  -6.062099e+04  -8.328122e+05
   9.230419e+05  -7.499318e+05
   1.543673e+06   2.076057e+05
   1.124694e+06   1.375995e+06
  -9.311910e+04   1.845474e+06
  -1.180413e+06   1.257263e+06
  -1.417995e+06   8.697267e+04
  -9.141919e+05  -7.843265e+05
  -3.429955e+05  -8.440988e+05
  -1.729032e+05  -3.840366e+05
  -2.386531e+05  -1.334813e+05
  -5.291262e+04  -4.110237e+05
   5.444321e+05  -7.360063e+05
   1.107632e+06  -4.150875e+05
   9.777621e+05   5.415367e+05
  -2.080254e+04   1.286524e+06
  -1.265069e+06   9.943002e+05
  -1.766811e+06  -2.482703e+05
  -1.022401e+06  -1.485278e+06
   4.989721e+05  -1.770852e+06
   1.719099e+06  -9.702823e+05
   1.854689e+06   2.202795e+05
   1.025377e+06   9.506235e+05
   3.002069e+04   9.396151e+05
  -4.337108e+05   6.115525e+05
  -3.387786e+05   5.438778e+05
  -1.937613e+05   7.927221e+05
  -4.147597e+05   8.352474e+05
  -8.590664e+05   2.240844e+05
  -9.802723e+05  -7.888111e+05
  -4.408563e+05  -1.409248e+06
   4.526791e+05  -1.088599e+06
   9.770502e+05  -7.298351e+04
   6.920720e+05   8.426736e+05
  -1.067488e+05   1.031975e+06
  -6.814779e+05   5.032572e+05
  -5.962904e+05  -2.312042e+05
  -1.185525e+05  -6.509348e+05
   1.445203e+05  -6.238137e+05
  -4.501927e+04  -4.040530e+05
  -2.894050e+05  -2.908726e+05
  -2.696734e+04  -3.058132e+05
   7.675804e+05  -2.165739e+05
   1.430500e+06   1.451191e+05
   1.228945e+06   6.474905e+05
   1.512063e+05   9.575183e+05
  -9.849689e+05   8.400960e+05
  -1.293181e+06   3.601782e+05
  -6.832317e+05  -1.526841e+05
   1.048847e+05  -3.394633e+05
   3.268727e+05  -1.162296e+05
  -2.752551e+04   1.993269e+05
  -3.861650e+05   1.702984e+05
  -3.442127e+05  -2.477934e+05
  -6.553139e+04  -5.767878e+05
   4.963270e+04  -3.676908e+05
  -1.139395e+05   1.721982e+05
  -3.074388e+05   3.491575e+05
  -2.386989e+05  -1.494743e+05
   1.495310e+05  -7.898930e+05
   6.385414e+05  -7.913328e+05
   8.489643e+05  -6.668115e+04
   4.926525e+05   6.714867e+05
  -2.861104e+05   7.285912e+05
  -8.389575e+05   1.431813e+05
  -5.403990e+05  -4.574587e+05
   4.722489e+05  -5.302501e+05
   1.253356e+06  -4.863564e+04
   9.635283e+05   5.803945e+05
  -1.969548e+05   8.691347e+05
  -1.147560e+06   5.979425e+05
  -1.057794e+06  -4.879723e+03
  -1.879061e+05  -4.155319e+05
   4.636956e+05  -2.863150e+05
   2.499032e+05   1.684109e+05
  -4.950666e+05   3.389451e+05
  -8.799339e+05  -1.402510e+05
  -4.035578e+05  -9.312690e+05
   5.609945e+05  -1.243376e+06
   1.175941e+06  -6.027040e+05
   9.578659e+05   6.032829e+05
   1.679148e+05   1.388591e+06
  -5.397256e+05   1.072502e+06
  -7.328195e+05  -2.878974e+04
  -4.438499e+05  -8.862287e+05
   3.125397e+04  -8.079617e+05
   3.916636e+05  -1.248155e+05
   4.479086e+05   2.973353e+05
   2.212733e+05   1.307757e+05
  -9.341778e+02  -1.024103e+05
   8.468315e+04   1.567266e+05
   3.571179e+05   6.998542e+05
   2.799973e+05   8.393043e+05
  -4.081847e+05   3.350945e+05
  -1.153898e+06  -3.297720e+05
  -1.099894e+06  -6.128708e+05
  -1.675575e+05  -5.068002e+05
   7.358209e+05  -3.257080e+05
   7.821396e+05  -1.930112e+05
   1.978961e+05  -2.065132e+04
  -1.433495e+05   1.649983e+05
   8.510078e+04   2.102477e+05
   3.192156e+05   1.292222e+05
  -4.403445e+03   1.082679e+05
  -6.241987e+05   1.449400e+05
  -7.815796e+05  -3.249413e+04
  -1.675918e+05  -5.040402e+05
   7.374111e+05  -8.347119e+05
   1.207500e+06  -5.049386e+05
   9.348686e+05   3.813976e+05
   1.757839e+05   1.085500e+06
  -5.410725e+05   1.012457e+06
  -7.907668e+05   3.400660e+05
  -5.162864e+05  -2.339193e+05
  -5.583957e+04  -2.696155e+05
   1.504333e+05   1.413264e+04
  -2.457764e+04   8.875863e+04
  -2.826832e+05  -2.424269e+05
  -2.386074e+05  -6.104789e+05
   1.542204e+05  -4.931138e+05
   5.400546e+05   1.614549e+05
   5.018878e+05   7.906963e+05
  -2.613375e+04   7.710975e+05
  -6.355024e+05   8.965876e+04
  -7.547294e+05  -6.374954e+05
  -1.998818e+05  -8.195170e+05
   5.555352e+05  -4.392617e+05
   7.967453e+05   8.253232e+04
   3.452046e+05   3.910755e+05
  -2.083381e+05   4.202346e+05
  -2.005296e+05   2.572083e+05
   2.818716e+05   4.124938e+04
   5.172348e+05  -1.761511e+04
   7.963430e+04   2.149159e+05
  -6.225617e+05   5.315415e+05
  -8.707994e+05   4.853920e+05
  -4.838583e+05  -5.806594e+04
   7.828313e+04  -6.218963e+05
   3.331446e+05  -6.116962e+05
   2.290658e+05  -5.529230e+04
  -6.880592e+03   4.022574e+05
  -1.981677e+05   2.800847e+05
  -2.736126e+05  -1.937710e+05
  -1.810287e+05  -4.401973e+05
   6.232891e+04  -2.475497e+05
   2.932159e+05   6.973326e+04
   3.310416e+05   1.531589e+05
   1.824825e+05   1.990536e+04
   1.679379e+04  -4.835795e+04
  -5.976247e+04   1.036902e+05
  -1.061501e+05   3.233606e+05
  -2.033864e+05   3.266971e+05
  -2.962336e+05   1.346509e+04
  -2.374161e+05  -3.880853e+05
   2.923853e+04  -5.057198e+05
   3.522442e+05  -1.977021e+05
   4.482000e+05   2.677154e+05
   1.501314e+05   4.687849e+05
  -3.590539e+05   2.646537e+05
  -6.193257e+05  -9.504897e+04
  -3.381718e+05  -2.882510e+05
   2.232060e+05  -2.403169e+05
   4.623864e+05  -9.536539e+04
   1.239553e+05   3.570770e+02
  -3.554557e+05  -1.468115e+04
  -3.463014e+05  -1.417215e+05
   2.021089e+05  -2.777967e+05
   6.871399e+05  -2.039257e+05
