
 $NMID
 id='ANONYMOUS ', fmtdat='(2E16.6)'
 volume=1.0
 tramp=1.0
 $END
   4.689371e+07   7.606904e+05
   2.838552e+07   2.807168e+07
  -5.449289e+06   3.123135e+07
  -2.262262e+07   1.337732e+07
  -1.432185e+07  -4.453920e+06
   2.090620e+06  -7.871863e+06
   8.452396e+06   5.708994e+04
   3.199180e+06   8.051759e+06
  -4.675499e+06   8.774909e+06
  -8.228146e+06   2.396016e+06
  -6.123048e+06  -5.451723e+06
  -6.283278e+05  -7.743529e+06
   3.620581e+06  -2.188175e+06
   2.427993e+06   5.329652e+06
  -3.142586e+06   6.280647e+06
  -6.822772e+06  -7.954214e+05
  -4.022840e+06  -8.718704e+06
   3.090413e+06  -1.017917e+07
   8.617530e+06  -4.929404e+06
   9.012215e+06   2.062294e+06
   5.081156e+06   6.402457e+06
   2.010126e+05   6.796342e+06
  -2.047464e+06   4.539147e+06
  -5.434381e+05   2.488062e+06
   1.595625e+06   2.839985e+06
  -1.423615e+05   4.434739e+06
  -5.613071e+06   3.776738e+06
  -9.042590e+06  -1.699433e+05
  -6.053944e+06  -4.071144e+06
   4.495772e+05  -4.426116e+06
   3.945581e+06  -1.789044e+06
   2.188734e+06   7.483931e+05
  -1.393293e+06   1.400634e+06
  -3.027674e+06   2.415500e+05
  -2.150795e+06  -2.105789e+06
  -4.703778e+04  -4.054587e+06
   1.923860e+06  -3.149272e+06
   2.381174e+06   6.252303e+05
   8.578127e+05   3.128388e+06
  -7.282283e+05   9.870811e+05
   9.205303e+04  -2.815885e+06
   2.393766e+06  -2.299770e+06
   2.267704e+06   2.641655e+06
  -1.637140e+06   5.198109e+06
  -5.329857e+06   9.673328e+05
  -4.126171e+06  -5.627950e+06
   1.449575e+06  -7.032719e+06
   6.296964e+06  -1.985861e+06
   6.339761e+06   3.916359e+06
   1.981169e+06   5.500192e+06
  -3.104241e+06   2.730475e+06
  -5.068039e+06  -1.119159e+06
  -2.576694e+06  -3.063495e+06
   1.908470e+06  -2.056773e+06
   3.976395e+06   6.430811e+05
   1.836507e+06   2.263465e+06
  -1.444136e+06   1.203651e+06
  -1.728035e+06  -8.861669e+05
   8.317364e+05  -1.069764e+06
   2.202751e+06   9.586972e+05
   3.434669e+04   2.559987e+06
  -3.425386e+06   1.738722e+06
  -4.482924e+06  -7.761854e+05
  -2.139818e+06  -3.242734e+06
   1.772830e+06  -4.669803e+06
   4.918465e+06  -4.261627e+06
   5.753131e+06  -1.284031e+06
   3.883685e+06   3.117721e+06
   6.250795e+05   5.686252e+06
  -1.549210e+06   4.483629e+06
  -1.414390e+06   1.532250e+06
  -4.079169e+05   2.624743e+05
  -6.476707e+05   1.076447e+06
  -2.103660e+06   1.370899e+06
  -2.860047e+06  -3.421818e+05
  -1.765079e+06  -2.372814e+06
   3.526488e+05  -2.324837e+06
   1.879545e+06  -8.941192e+04
   1.751566e+06   2.330496e+06
  -1.609620e+05   2.981047e+06
  -2.792166e+06   1.370570e+06
  -4.073117e+06  -1.435305e+06
  -2.678026e+06  -3.537926e+06
   1.985314e+05  -3.636800e+06
   1.967312e+06  -2.241629e+06
   1.834877e+06  -1.033062e+06
   1.625566e+06  -7.929115e+05
   2.856397e+06  -5.907167e+05
   4.273708e+06   6.897965e+05
   3.447519e+06   2.727744e+06
   1.078977e+05   4.130084e+06
  -3.316341e+06   3.860884e+06
  -4.314783e+06   1.934961e+06
  -2.613761e+06  -6.617936e+05
  -2.405687e+04  -2.313057e+06
   1.300385e+06  -1.828051e+06
   5.429829e+05   1.179676e+05
  -1.175910e+06   1.264267e+06
  -1.870694e+06   3.472273e+05
  -8.086159e+05  -1.188287e+06
   6.061966e+05  -1.120485e+06
   5.542154e+05   3.759429e+05
  -8.830888e+05   8.905929e+05
  -1.849973e+06  -8.562574e+05
  -1.008765e+06  -3.198878e+06
   1.101720e+06  -3.613626e+06
   2.980132e+06  -1.600243e+06
   3.561689e+06   1.182770e+06
   2.580351e+06   2.877831e+06
   5.191484e+05   2.802201e+06
  -1.336511e+06   1.483705e+06
  -1.642166e+06   1.617058e+05
  -4.992239e+05  -5.424253e+04
   3.577425e+05   7.615103e+05
  -3.871195e+05   1.299969e+06
  -1.840162e+06   5.546088e+05
  -2.000996e+06  -8.356110e+05
  -4.187310e+05  -1.369858e+06
   1.169508e+06  -5.921892e+05
   9.689838e+05   4.630211e+05
  -8.140857e+05   6.396039e+05
  -2.311564e+06  -2.015015e+05
  -1.940175e+06  -1.396118e+06
   1.824677e+05  -2.123611e+06
   2.383788e+06  -1.748599e+06
   2.839046e+06  -2.719011e+05
   1.208439e+06   1.254873e+06
  -9.175518e+05   1.438802e+06
  -1.499037e+06   1.544499e+05
  -1.444554e+05  -1.051682e+06
   1.529687e+06  -7.103254e+05
   1.740572e+06   7.746728e+05
   3.969909e+05   1.672245e+06
  -1.057815e+06   1.055080e+06
  -1.296035e+06  -2.388161e+05
  -3.095523e+05  -7.657870e+05
   7.632672e+05  -6.076669e+04
   7.134167e+05   1.065114e+06
  -6.236574e+05   1.422620e+06
  -2.051655e+06   4.951643e+05
  -2.036324e+06  -1.107539e+06
  -3.603783e+05  -2.097947e+06
   1.454455e+06  -1.647138e+06
   1.743284e+06  -2.206053e+05
   5.302214e+05   8.724118e+05
  -6.623359e+05   8.279969e+05
  -6.882459e+05   6.488512e+04
   8.870727e+04  -4.432641e+05
   5.655816e+05  -2.861847e+05
   2.509411e+05   9.062629e+04
  -3.896288e+05   2.696995e+04
  -5.564355e+05  -6.001966e+05
   1.611259e+05  -1.188154e+06
   1.392227e+06  -9.097587e+05
   2.109162e+06   4.354429e+05
   1.458743e+06   1.989313e+06
  -2.543805e+05   2.476852e+06
  -1.673293e+06   1.474254e+06
  -1.777669e+06  -1.058653e+05
  -9.497782e+05  -9.793795e+05
  -3.413156e+05  -8.026321e+05
  -4.116989e+05  -3.123129e+05
  -5.496150e+05  -2.950519e+05
  -7.077309e+04  -7.231775e+05
   8.760994e+05  -9.210220e+05
   1.495308e+06  -3.573692e+05
   1.121620e+06   7.648802e+05
  -2.332278e+05   1.554089e+06
  -1.775575e+06   1.120961e+06
  -2.312180e+06  -5.073944e+05
  -1.168960e+06  -2.139789e+06
   9.943386e+05  -2.391367e+06
   2.553921e+06  -1.064065e+06
   2.418897e+06   6.320838e+05
   1.054264e+06   1.373563e+06
  -1.697655e+05   1.044722e+06
  -4.630579e+05   5.914317e+05
  -1.978607e+05   7.555413e+05
  -1.756671e+05   1.262366e+06
  -6.812892e+05   1.252946e+06
  -1.287451e+06   2.907145e+05
  -1.331572e+06  -1.125637e+06
  -5.322118e+05  -1.942150e+06
   6.633075e+05  -1.455826e+06
   1.317063e+06   6.130596e+03
   8.293188e+05   1.286958e+06
  -3.650494e+05   1.412000e+06
  -1.130415e+06   4.593126e+05
  -8.102203e+05  -6.267566e+05
   7.427597e+04  -1.041597e+06
   4.747260e+05  -8.015397e+05
   5.909185e+04  -4.563610e+05
  -4.213615e+05  -3.660365e+05
  -4.568994e+04  -3.987896e+05
   1.144478e+06  -2.093753e+05
   2.057267e+06   3.491077e+05
   1.633055e+06   1.049828e+06
  -7.491134e+03   1.423490e+06
  -1.575115e+06   1.123926e+06
  -1.848781e+06   2.949783e+05
  -8.619757e+05  -4.478933e+05
   2.466974e+05  -5.450643e+05
   5.040437e+05  -5.497386e+04
   5.468123e+03   3.893473e+05
  -4.762463e+05   2.451456e+05
  -4.781795e+05  -3.565165e+05
  -1.996118e+05  -7.539080e+05
  -4.575194e+04  -4.926288e+05
  -1.471966e+05   1.280027e+05
  -3.264397e+05   3.352035e+05
  -2.869097e+05  -2.353158e+05
   1.815661e+05  -1.019991e+06
   9.289675e+05  -1.065617e+06
   1.334822e+06  -1.290825e+05
   8.007108e+05   9.453664e+05
  -4.385072e+05   1.111930e+06
  -1.254954e+06   2.818719e+05
  -7.331222e+05  -6.096473e+05
   7.133942e+05  -6.614984e+05
   1.640745e+06   9.408670e+04
   1.076739e+06   8.837164e+05
  -4.631506e+05   1.042172e+06
  -1.550582e+06   5.328355e+05
  -1.298945e+06  -1.788087e+05
  -1.534842e+05  -5.383888e+05
   6.623602e+05  -2.879081e+05
   3.744253e+05   2.915270e+05
  -6.254043e+05   5.043601e+05
  -1.203861e+06  -1.309877e+05
  -6.313109e+05  -1.232969e+06
   6.716249e+05  -1.717057e+06
   1.552045e+06  -8.573535e+05
   1.273585e+06   8.091216e+05
   1.766415e+05   1.848861e+06
  -7.786524e+05   1.338857e+06
  -9.546892e+05  -1.686671e+05
  -4.523603e+05  -1.225792e+06
   2.058589e+05  -1.010852e+06
   5.681845e+05  -9.276101e+04
   4.970504e+05   4.000117e+05
   1.922765e+05   1.523540e+05
   4.123073e+04  -1.055681e+05
   2.455643e+05   2.881718e+05
   4.956496e+05   9.907212e+05
   2.123333e+05   1.116005e+06
  -7.030818e+05   4.018030e+05
  -1.512815e+06  -4.987060e+05
  -1.331707e+06  -8.770514e+05
  -1.839451e+05  -7.135048e+05
   9.063318e+05  -4.155917e+05
   1.022194e+06  -1.829138e+05
   3.492531e+05   4.451951e+04
  -1.618785e+05   2.269521e+05
  -1.151043e+04   2.245246e+05
   2.999861e+05   1.169494e+05
   3.869041e+04   1.390366e+05
  -7.133048e+05   2.216175e+05
  -1.070153e+06  -3.506568e+04
  -3.926648e+05  -7.111783e+05
   9.066296e+05  -1.179421e+06
   1.735457e+06  -7.318845e+05
   1.407600e+06   4.775844e+05
   2.518386e+05   1.451226e+06
  -7.989488e+05   1.391701e+06
  -1.083652e+06   5.195209e+05
  -6.730105e+05  -2.621718e+05
  -1.210268e+05  -3.690519e+05
   9.556053e+04  -5.169632e+04
  -7.526995e+04   3.367122e+04
  -3.152165e+05  -3.738290e+05
  -2.526477e+05  -8.326898e+05
   1.982179e+05  -6.890996e+05
   7.020671e+05   1.495822e+05
   7.313927e+05   1.001692e+06
   7.952662e+04   1.057083e+06
  -7.894494e+05   2.226513e+05
  -1.045155e+06  -7.726582e+05
  -3.289744e+05  -1.120979e+06
   7.437689e+05  -6.696893e+05
   1.135696e+06   9.720268e+04
   5.250036e+05   6.201264e+05
  -3.015659e+05   6.722108e+05
  -3.760796e+05   3.679158e+05
   2.730300e+05   2.007906e+04
   6.719719e+05  -2.887539e+04
   1.398177e+05   3.141277e+05
  -8.557110e+05   6.884421e+05
  -1.282628e+06   5.523145e+05
  -7.607621e+05  -1.767945e+05
   1.116340e+05  -8.830564e+05
   5.608974e+05  -8.635741e+05
   4.200143e+05  -1.472010e+05
   3.928983e+04   4.998872e+05
  -2.542860e+05   4.337044e+05
  -3.604330e+05  -1.715851e+05
  -2.510042e+05  -5.960740e+05
   6.367998e+04  -4.228553e+05
   3.998811e+05   5.766437e+04
   4.788474e+05   2.824743e+05
   2.474360e+05   9.182825e+04
  -2.527819e+04  -1.417840e+05
  -8.414009e+04  -1.934681e+04
  -1.425448e+04   3.730557e+05
  -8.917352e+04   5.462518e+05
  -3.398102e+05   1.914446e+05
  -4.446319e+05  -4.132864e+05
  -1.253161e+05  -6.688525e+05
   4.304933e+05  -3.102078e+05
   6.680473e+05   3.048035e+05
   2.458327e+05   5.976135e+05
  -5.203864e+05   3.668126e+05
  -8.956524e+05  -9.466855e+04
  -4.826036e+05  -3.934813e+05
   3.060864e+05  -3.959011e+05
   6.543005e+05  -2.126911e+05
   2.454248e+05  -1.351741e+04
  -3.724024e+05   5.413146e+04
  -4.239199e+05  -8.665694e+04
   1.891341e+05  -3.067978e+05
   7.875716e+05  -2.695011e+05
