
 $NMID
 id='ANONYMOUS ', fmtdat='(2E16.6)'
 volume=1.0
 tramp=1.0
 $END
  -3.076511e+03  -2.774323e+02
  -2.375073e+03  -1.840279e+03
   5.514073e+01  -2.270491e+03
   1.397426e+03  -1.209835e+03
   8.647850e+02   1.075847e+02
  -2.705502e+02   3.098981e+02
  -6.301508e+02  -2.261012e+02
  -1.245429e+02  -6.865780e+02
   5.688065e+02  -6.864703e+02
   6.876560e+02  -3.206351e+01
   5.082555e+02   6.488697e+02
  -9.502975e-02   7.639040e+02
  -4.134178e+02   2.205603e+02
  -3.019702e+02  -4.722524e+02
   1.563091e+02  -6.401309e+02
   4.298900e+02  -1.052062e+02
   3.597478e+02   5.349808e+02
  -8.079935e+01   6.463975e+02
  -5.386379e+02   2.106247e+02
  -4.579011e+02  -2.520884e+02
  -1.073700e+02  -4.165680e+02
   1.379175e+02  -3.247727e+02
   1.849357e+02  -5.199260e+01
  -9.680239e+01   2.328423e+01
  -3.045097e+02  -1.612335e+02
  -1.528494e+02  -3.324277e+02
   4.071322e+02  -2.505869e+02
   6.337701e+02   2.523331e+02
   3.240828e+02   3.711045e+02
  -3.413393e+02   2.995191e+02
  -5.815608e+02  -1.645784e+02
  -2.636268e+02  -4.202552e+02
   2.519079e+02  -4.556395e+02
   5.001043e+02  -1.616220e+02
   3.569740e+02   1.638164e+02
   8.815423e+01   3.902104e+02
  -1.077845e+02   1.983950e+02
  -1.920968e+01  -1.277060e+02
   1.774262e+02  -2.230155e+02
   2.972455e+02   2.650260e+01
   1.219906e+02   5.006779e+02
  -2.498954e+02   4.597000e+02
  -4.588298e+02   1.681676e+01
  -2.459037e+02  -3.422720e+02
   1.633413e+02  -2.223864e+02
   2.895877e+02   2.592362e+02
  -3.518911e+01   4.149201e+02
  -4.263834e+02   1.852109e+02
  -5.172627e+02  -3.760243e+02
  -2.251156e+02  -5.215674e+02
   2.982664e+02  -3.159961e+02
   5.110061e+02   6.516386e+00
   3.237438e+02   2.224421e+02
  -5.063794e+01   2.984023e+02
  -3.493668e+02   1.154977e+02
  -2.577134e+02  -6.542079e+01
   2.785936e+01  -6.926312e+01
   8.329264e+01   7.064182e+01
  -1.110105e+02   1.654713e+02
  -2.372775e+02  -3.399586e+01
  -1.372748e+02  -2.101771e+02
   1.478702e+02  -2.886476e+02
   3.391306e+02  -1.808686e+02
   2.203525e+02   8.914300e+01
   4.587440e+00   2.752245e+02
  -2.517087e+02   3.709517e+02
  -3.349012e+02   1.440122e+02
  -2.693269e+02  -1.571235e+02
  -7.570716e+01  -3.786970e+02
   9.080063e+01  -3.253830e+02
   9.869689e+01  -1.313483e+02
   5.334838e+01  -5.729542e+01
   9.587238e+01  -1.010976e+02
   2.315894e+02  -8.823590e+01
   2.360228e+02   6.807426e+01
   1.561347e+02   2.402225e+02
  -4.597358e+01   1.978981e+02
  -1.872211e+02  -3.782422e+01
  -1.670373e+02  -2.074127e+02
   5.643378e+01  -2.196933e+02
   2.296352e+02  -9.373733e+01
   3.117130e+02   1.503232e+02
   1.821765e+02   3.175174e+02
  -2.063324e+01   2.229020e+02
  -1.614551e+02   1.232536e+02
  -1.631990e+02   2.000146e+01
  -1.136375e+02   3.542743e+01
  -2.055509e+02   1.508650e+01
  -3.725149e+02  -6.748528e+01
  -3.213094e+02  -3.030460e+02
  -4.631545e+01  -3.993782e+02
   3.098406e+02  -4.131820e+02
   4.229334e+02  -1.442803e+02
   2.653445e+02   1.194891e+02
   7.756448e+00   2.853036e+02
  -7.133354e+01   2.279738e+02
  -6.159524e+01   6.286058e+01
   6.295052e+01  -2.889189e+01
   1.118610e+02   1.819395e+01
   3.738367e+01   1.482132e+02
  -1.345847e+02   1.479565e+02
  -1.382740e+02  -4.476261e+01
   1.325713e+01  -1.339570e+02
   1.917942e+02  -1.659299e+01
   1.636384e+02   2.087487e+02
  -5.115463e+01   3.180861e+02
  -2.293816e+02   1.389483e+02
  -2.566787e+02  -1.351058e+01
  -2.738562e+02  -2.241579e+02
  -1.237811e+02  -2.692725e+02
   1.305101e+02  -1.741678e+02
   1.590256e+02  -1.854780e+01
   5.373504e+01   4.067359e+01
  -6.599193e+01   1.493161e-01
   5.736676e+00  -1.181988e+02
   1.066835e+02  -5.929621e+01
   1.472379e+02   6.617655e+01
   3.868518e+01   6.763738e+01
  -8.785114e+01  -3.326444e+01
  -4.268041e+01  -9.745800e+01
   1.097017e+02  -6.700801e+01
   2.839213e+02  -3.092653e+00
   2.953099e+02   1.713280e+02
   7.820111e+01   2.651805e+02
  -2.473218e+02   2.308495e+02
  -3.055478e+02   1.217982e+02
  -1.576780e+02  -6.530773e+01
  -3.737127e+01  -8.118501e+01
   6.251828e+01   2.504483e+01
  -5.489120e+01   6.075102e+01
  -1.843423e+02   5.420500e+01
  -1.815787e+02  -6.740193e+01
  -2.347478e+01  -2.128863e+02
   1.262445e+02  -1.056908e+02
   1.715300e+02   2.520699e+01
   2.567980e+01   6.311503e+01
  -6.061589e+01  -7.048179e+00
  -6.000882e+01  -1.027953e+02
   8.255440e+01  -1.265932e+02
   2.389601e+02  -5.698528e+01
   1.935456e+02   1.283840e+02
   3.441651e+01   1.823167e+02
  -1.066725e+02   1.758336e+02
  -1.456713e+02   2.061484e+01
  -7.042889e+01  -1.170406e+02
   3.495592e+01  -9.140466e+01
   4.789598e+01  -5.952844e+01
  -4.192906e+01   1.764259e+01
  -3.126262e+01   1.012498e+01
   4.004182e+01  -8.644602e+00
   1.313384e+02   1.224637e+00
   1.304941e+02   8.792730e+01
   1.094932e+01   2.533650e+02
  -1.903346e+02   1.490544e+02
  -2.124919e+02   4.916301e+01
  -2.082685e+02  -1.783859e+02
  -4.678905e+01  -2.002568e+02
   8.203070e+01  -1.747435e+02
   1.591081e+02  -5.511092e+01
   7.583472e+01   5.070506e+01
   8.425237e+01   3.252653e+01
   4.175989e+01  -3.437391e+01
   5.554251e+01  -2.992677e+01
   3.734253e+01   4.908451e+01
  -4.911026e+01   9.938061e+01
  -1.070435e+02   4.693381e+01
  -6.093925e+01  -8.951590e+00
   1.718997e+01  -1.318222e+02
   1.656034e+02  -9.194823e+01
   1.810421e+02   3.522288e+01
   9.266993e+01   1.972639e+02
  -8.635152e+01   1.869533e+02
  -2.327352e+02   8.423913e+01
  -1.631854e+02  -7.744234e+01
  -4.120111e+01  -1.662267e+02
   1.129818e+01  -1.679343e+02
   6.281134e+01  -8.177387e+01
   4.973958e+01  -6.748817e+01
   7.620702e+01  -9.559760e+01
   8.379017e+01  -6.128321e+01
   6.620525e+01  -1.285047e+01
   9.030811e+01   1.356703e+02
   7.517232e+01   1.781564e+02
  -7.223024e+01   1.612533e+02
  -1.523745e+02   4.120254e+00
  -1.787625e+02  -7.579886e+01
  -1.821786e+01  -1.492021e+02
   4.769651e+01  -9.926840e+01
   1.111518e+02   5.545001e+01
  -1.599219e+01   7.037337e+01
  -3.795245e+01   5.592103e+01
  -7.583094e+00   1.093350e+01
   6.446465e+01   2.872402e+01
  -1.509278e+01   5.961007e+01
  -3.591124e+01  -6.095418e+00
  -1.360278e+02   1.880505e+01
  -1.257406e+02  -7.415747e+01
  -1.112735e+01  -1.058304e+02
   1.118199e+02  -9.343906e+01
   1.567328e+02  -2.253706e+01
   2.484209e+01   7.314644e+01
  -6.065986e+01   4.579477e+01
  -5.999371e+01  -1.513959e+01
  -5.437790e+01  -1.075349e+02
   5.209905e+01  -4.632028e+01
   9.489471e+01  -2.172623e+01
   4.675446e+01   1.560111e+01
   4.636862e+01   3.404413e+01
   7.675467e+01   2.548567e+01
   4.482521e+01   1.602314e+01
   4.424119e+01   6.066684e+01
  -5.131390e+00   1.304995e+02
  -9.992872e+01   1.586678e+02
  -1.888638e+02   3.486864e+01
  -1.747796e+02  -7.162569e+01
  -1.694571e+01  -1.273840e+02
   9.717707e+01  -9.558670e+01
   5.864093e+01  -3.234635e+01
  -2.843642e+01   7.469761e+01
  -1.197274e+02  -1.052408e+01
  -8.372744e+01  -1.017510e+02
   6.072734e+01  -1.005378e+02
   1.404142e+02  -2.765559e+01
   1.016096e+02   2.722928e+01
   1.456160e+01   4.925022e+01
  -6.840797e+01   4.202086e+01
  -3.553081e+01   9.078815e+00
   6.044042e+01  -5.768675e+01
   6.588012e+01   8.015229e+01
   4.704564e+01   1.379324e+02
  -6.908826e+01   1.405879e+02
  -1.164392e+02   5.604598e+01
  -1.089366e+02  -9.334712e+01
  -4.887500e+01  -1.388874e+02
   1.132514e+02  -1.577510e+02
   4.820778e+01  -2.589640e+01
   8.898722e+01   8.736820e+01
   1.168813e+01   1.190256e+02
  -6.511376e+01  -2.112468e+01
  -4.570785e+01  -2.195376e+01
   1.379930e+01   6.144044e+00
  -2.191879e+01   2.675873e+01
  -2.068149e+01  -1.892566e+00
  -3.726768e+01  -9.559780e+01
  -8.563912e+01  -6.922057e+01
   3.526005e+01  -1.004096e+01
   9.384173e+01   1.677559e+01
   1.367971e+02   8.083669e+01
   2.395617e+01   5.013205e+01
  -1.074084e+02   6.622302e+01
  -9.327016e+01  -1.756765e+01
   3.434435e+01  -4.340608e+00
   4.983973e+01  -5.674895e+01
  -4.055836e+00   8.690700e+00
  -3.546026e+00   1.447902e+01
   6.615024e+00   4.022296e+01
   5.239085e+01  -3.751421e+01
   9.738223e+01   4.091284e+01
   5.061856e+01   1.203357e+02
  -9.638509e+01   1.363962e+02
  -1.843881e+02   7.028483e+01
  -1.638669e+02  -4.477202e+01
  -5.200508e+01  -1.704631e+02
   6.934773e+01  -1.566766e+02
   1.342203e+02  -5.413259e+01
   5.020504e+01   2.931253e+01
  -2.193958e+01   1.438666e+01
  -4.479278e+01  -4.533307e+00
  -3.888039e+01   2.423099e+01
  -4.587808e+00   1.334325e+01
  -8.622045e+00   1.195173e+02
  -2.939125e+01   5.909879e+01
  -1.312850e+02   1.947016e+01
  -1.039118e+02  -1.074669e+02
  -1.893367e+01  -1.034973e+02
   8.646365e+01  -5.183621e+00
   1.242377e+02   3.326685e+01
   8.875603e+01   1.010785e+02
  -3.702288e+01   9.150888e+01
  -9.559109e+01   6.191832e+00
  -9.501617e+01  -7.035776e+01
   3.457566e+01  -3.355514e+01
  -8.810314e+00  -1.932756e+01
  -5.486767e+01   3.796283e+01
  -5.424018e+01   1.322123e+01
  -2.753795e+01  -8.093177e+00
   1.204827e+02  -6.011838e+01
   7.906527e+01  -7.006796e+01
   9.250928e+01   5.170667e+00
   3.122817e+01   1.049777e+02
  -3.852175e+01   1.098343e+02
  -7.166555e+01   9.169574e+00
  -6.737030e+01  -3.944325e+01
  -8.006618e-01  -8.719110e+01
   4.588408e+00  -4.822204e+00
   2.341759e+01   8.331787e+01
  -7.759443e+00   5.928259e+01
  -7.496885e+01  -2.416620e+00
  -2.141063e+01  -5.395497e+01
  -1.411179e+01  -4.891684e+00
  -4.413850e+00  -1.448368e+01
   3.190889e+00   6.358531e+01
  -1.253822e+01  -3.604763e+01
   2.299438e+01  -5.690434e+01
  -1.739804e+01  -7.902010e+00
   6.105060e+01   5.366803e+01
   4.398782e+01   8.002090e+01
  -5.651135e+00   4.924420e+01
  -6.036818e+01  -7.990465e+01
   1.873472e+01  -6.002427e+01
   7.338081e+01  -2.594215e+01
   6.057571e+01   2.892261e+01
   5.266746e+01   2.366235e+01
  -5.228280e+01   1.079005e+01
  -8.734633e+01   4.124503e+01
  -3.907868e+01   1.665251e+01
  -3.609726e+01  -2.474257e+01
   3.614480e+01   3.561297e+01
  -3.048298e+01   1.335506e+01
  -8.137539e+01   2.898163e+01
