
 $NMID
 id='ANONYMOUS ', fmtdat='(2E16.6)'
 volume=1.0
 tramp=1.0
 $END
   1.792211e+03  -3.199796e+01
   1.220658e+03   8.833602e+02
   1.130934e+02   1.009468e+03
  -6.495972e+02   7.744761e+02
  -6.720232e+02   3.653220e+02
  -1.288741e+02  -2.252196e+02
   1.339524e+02  -4.783861e+01
   1.132495e+01   1.222014e+02
  -1.534918e+02   2.805077e+02
  -2.941172e+02   8.188916e+01
  -2.642958e+02  -2.341448e+02
  -6.622336e+01  -4.069979e+02
   1.439624e+02  -2.764652e+02
   1.978726e+02   1.358312e+02
   5.587456e+01   2.429882e+02
  -2.056824e+02   1.522991e+02
  -2.615607e+02  -2.007779e+02
  -1.071675e+02  -3.896264e+02
   2.566750e+02  -2.204622e+02
   2.357375e+02   5.558243e+01
   1.136425e+02   1.901195e+02
  -6.395841e+01   1.900916e+02
  -4.442074e+01   8.708202e+01
   4.474565e+01   1.225180e+02
   1.734773e+02   1.185989e+02
   5.630400e+01   1.762508e+02
  -2.208521e+02   1.218163e+02
  -3.773145e+02  -3.196291e+01
  -2.217375e+02  -1.688442e+02
   5.283054e+01  -1.137005e+02
   2.830662e+02  -2.748719e+01
   1.467418e+02   1.637369e+02
  -1.279929e+02   2.213355e+02
  -2.239336e+02   1.118573e+02
  -2.312096e+02  -2.692589e+01
  -1.312065e+02  -1.682346e+02
  -5.178337e+01  -1.281806e+02
  -2.825491e+01   1.014455e+01
  -5.039514e+01   7.783125e+01
  -4.909105e+01  -2.754125e+01
  -5.893432e+01  -1.975210e+02
   7.785275e+01  -2.298256e+02
   1.551311e+02  -3.840169e+01
   7.845143e+01   1.587091e+02
  -1.305892e+01   7.110541e+00
  -8.531417e+01  -5.814698e+01
   5.431248e+01  -1.449998e+02
   2.459526e+02  -5.043952e+01
   2.304757e+02   1.822264e+02
   1.234896e+02   2.494496e+02
  -7.935480e+01   1.848399e+02
  -2.443957e+02   9.774028e+00
  -2.202349e+02  -5.593053e+01
  -4.548309e+01  -1.069395e+02
   1.674535e+02  -9.181150e+01
   1.378633e+02   5.659765e+01
   7.183552e+00   3.514380e+01
  -3.209273e+00  -3.923427e+01
   4.212353e+01  -6.410475e+01
   1.586169e+02  -3.950040e+01
   6.583607e+01   1.265536e+02
  -6.848044e+01   1.005262e+02
  -1.986839e+02   9.925972e+01
  -1.674749e+02  -4.878257e+01
   2.403493e+01  -1.456208e+02
   1.356678e+02  -1.878050e+02
   1.853058e+02  -9.325250e+01
   1.484356e+02   7.204764e+01
   7.699395e+01   1.866233e+02
   4.851215e+01   1.355046e+02
   2.746027e+01   1.717644e+02
  -8.940062e+00   8.098279e+01
  -7.489797e+01   6.129207e+01
  -1.298762e+02   6.813805e+00
  -1.599206e+02  -8.644702e+01
  -2.487696e+01  -1.366793e+02
   5.387327e+01  -7.456573e+01
   6.572258e+01   5.039405e+00
   9.828254e+01   1.284240e+02
  -1.223981e+01   1.488226e+02
  -1.123553e+02   4.172665e+01
  -1.540397e+02  -8.115605e+01
  -2.325214e+01  -1.783196e+02
   7.693063e+00  -1.259342e+02
   1.603055e+01  -1.319113e+02
   1.054283e+02  -5.748837e+01
   5.851144e+01  -3.656656e+01
   1.299219e+02  -3.260425e+01
   2.199002e+02   2.958177e+01
   1.579402e+02   1.335915e+02
  -1.269349e+00   2.320071e+02
  -2.694917e+02   2.602118e+02
  -2.470057e+02   1.269426e+02
  -1.907056e+02  -6.639819e+01
   1.883629e+01  -1.319963e+02
   6.532067e+01  -8.573294e+01
  -1.216511e+01  -4.848050e+01
  -5.740514e+01  -1.323243e+01
  -6.640560e+01   6.339742e-01
  -4.180430e+01  -5.218704e+01
   6.940247e+01  -5.467198e+01
   6.634752e+01   3.940630e+01
   1.576086e+01   1.063151e+02
  -1.052160e+02   2.765637e+01
  -7.690882e+01  -1.035688e+02
  -1.499930e+01  -1.241429e+02
   9.016573e+01  -1.526364e+02
   2.066118e+02   2.929003e+01
   1.811632e+02   1.642117e+02
   3.995752e+01   1.875748e+02
  -6.289978e+01   1.405005e+02
  -6.890925e+01   6.116925e+00
  -4.542477e+01   1.557802e+01
   1.569238e+01   3.825414e+01
  -2.304376e+00   3.889108e+01
  -6.541824e+01   2.921129e+01
  -7.405469e+01  -1.972863e+01
  -3.343969e+01   1.006452e+01
   3.291778e+01   1.037625e+01
   3.070887e+01   5.198462e+01
  -9.701143e+01   8.909689e+01
  -1.379824e+02   9.594841e+00
  -1.146247e+02  -1.000800e+02
  -3.368194e+01  -1.184780e+02
   7.200684e+01  -1.065435e+02
   1.367963e+02  -7.245618e+01
   7.094745e+01   8.920649e+00
  -1.685562e+01   7.442922e+00
  -2.729317e+01  -3.401799e+01
   2.711101e+01  -4.399585e+01
   1.148459e+02  -1.509150e+01
   1.368879e+02   3.988068e+01
   3.741362e+01   1.109431e+02
  -6.601772e+01   8.330655e+01
  -6.042665e+01   3.274104e+01
  -4.242771e+01  -1.243642e-01
   8.378036e+00  -9.334118e+00
   2.798492e+01   2.949262e+01
  -5.498848e+01   7.387152e+01
  -9.844451e+01   3.950523e+01
  -9.041054e+01  -6.910562e+01
   4.687236e+00  -8.665082e+01
   6.698233e+01  -8.875575e+01
   7.975859e+01  -6.356711e+01
   7.340215e+01   6.306928e+01
  -7.825103e+01   1.081915e+02
  -1.734445e+01   4.569008e+01
   1.084753e+01  -1.346954e+01
   2.827647e+01   2.019422e+01
   1.343428e+01   1.664277e+01
  -6.050956e+01  -3.556047e+01
  -5.591974e+01  -4.370982e+01
  -1.452820e-01  -1.040947e+02
   5.769700e+01  -1.051149e+02
   7.983311e+01  -2.884348e+00
   9.791519e+01   8.531712e+01
   3.001896e+01   8.059707e+01
  -5.793067e+01   7.206719e+01
  -4.851292e+01  -2.095530e+01
  -3.495940e+01  -3.144478e+01
  -4.459651e+01  -4.071472e+01
  -3.162839e+01   8.842571e+00
  -8.243559e+01  -2.340279e+01
  -6.127948e+01  -2.602726e+01
   3.642121e+01  -4.354022e+01
   5.420144e+01  -2.644708e+01
   4.855780e+01   3.782641e+01
   1.562822e+01   1.084438e+02
  -5.751661e+01   7.307394e+01
  -1.017208e+02  -6.870001e+01
  -8.726930e+01  -9.775452e+01
   6.229448e+01  -9.911937e+01
   1.381292e+02  -9.932593e+01
   1.690965e+02   2.385234e+01
   9.618763e+01   6.044214e+01
  -3.655778e+01   5.884112e+01
  -5.571326e+01   6.135872e+01
  -7.202797e+01   5.396241e+01
  -6.145483e+01   5.501484e+01
  -5.191770e+01   4.332620e+01
  -1.070666e+02   2.683639e+01
  -5.173460e+01  -1.109050e+02
  -2.485283e+01  -1.240655e+02
   5.639367e+01  -6.726923e+01
   7.896057e+01  -3.859592e+01
   8.887137e+01   8.993444e+01
   4.343799e+01   7.666265e+01
  -3.367997e+01   2.295559e+01
  -3.154080e+01   1.361434e+00
  -6.912272e+00  -4.231713e+01
   4.966674e+01  -2.652609e+01
   1.167727e+01  -1.363516e+01
  -6.356033e+01  -2.812413e+01
  -1.079560e+01   1.146455e-01
   2.359966e+01  -2.911961e+01
   9.988600e+01   8.418287e-01
   9.843575e+01   2.785466e+01
   6.275539e-02   5.590875e+01
  -1.166613e+02   6.739021e+01
  -1.095729e+02  -7.250874e+00
  -5.433875e+01   1.552184e+01
   2.348865e+01  -4.410172e+01
   8.048532e+01   7.731523e+00
   4.336298e+01   7.134416e+01
  -5.084990e+00   2.077066e+01
  -5.782902e+01   1.121284e+01
  -5.755871e+01  -2.932420e+00
  -4.069700e+01  -1.377413e+01
  -1.208150e+01   1.182675e+01
  -2.217501e+01   1.353877e-01
  -5.508287e+01  -1.411282e+01
  -1.961836e+01  -7.117657e+01
   8.185108e+01  -6.463367e+01
   1.104229e+02  -5.679664e+00
   7.826167e+01   5.951392e+01
   8.632997e-01   8.406149e+01
  -6.198435e+01   3.771863e+01
  -3.831571e+01   1.072299e+01
  -2.456669e-01  -5.414231e+00
   8.398440e+01   9.451527e+00
   4.337097e+01   5.962102e+01
  -4.149943e+01   5.255752e+01
  -1.095965e+02   6.714910e+01
  -7.698191e+01   1.121952e+01
  -1.129783e+01  -7.020240e+01
   5.630649e+01  -4.485909e+01
  -1.648438e+01   2.697220e+01
  -2.632498e+01   1.872512e+01
  -6.128688e+01  -2.172717e+01
  -8.282058e+00  -7.404430e+01
   4.495370e+01  -1.041545e+02
   1.246876e+02  -4.682309e+01
   4.980763e+01   7.408592e+00
  -1.498686e+01   1.155515e+02
  -5.143377e+01   8.711562e+01
  -4.200101e+01   8.289278e+00
   1.497966e+01  -1.074068e+02
   1.898064e+01  -7.608285e+01
   6.412352e-01   1.373940e+01
   1.049091e+01   2.791142e+01
   3.465083e+00  -2.021941e+01
  -2.990674e+00   1.979000e+01
   5.807287e+00   2.250949e+01
   5.963424e+00   1.495535e+01
   2.716386e+01   3.950777e+01
  -3.285052e+01   4.927661e+01
  -5.343779e+01   1.258210e+01
  -6.929740e+01  -4.306583e+01
  -2.256433e+01  -1.038450e+01
   1.466076e+01  -6.626142e+00
   3.437504e+01  -2.043698e+01
  -1.920610e+01   2.846617e+01
  -1.173652e+01   4.793899e+01
  -3.039960e+01  -1.113746e+01
   1.192532e+00  -1.018720e+01
  -6.882691e+00  -1.716707e+01
  -4.811380e+01   2.792530e+01
  -6.190264e+01  -2.460588e+01
  -2.892687e+01  -1.136342e+01
   9.106275e+01  -1.223017e+02
   1.318101e+02  -8.688173e+01
   1.105661e+02  -7.141000e-01
   1.815499e+01   6.379051e+01
  -2.336960e+01   9.788050e+01
  -8.584386e+01   4.657739e+01
  -5.600345e+01  -3.537319e+01
  -1.962256e+01   2.361504e+01
   6.304854e+01  -2.973514e+00
  -1.686143e+01  -9.260271e+00
   1.541023e+00  -2.025195e+01
  -2.012386e+01  -6.687372e+01
   3.858045e+01  -5.047720e+01
   6.251337e+01  -3.207781e+01
   8.865836e+01   7.273192e+01
   3.301830e+01   5.517810e+01
  -1.298195e+01   1.507482e+01
  -5.851887e+01   1.407646e+01
   2.441330e+01  -6.504387e+01
   6.829694e+01  -2.414227e+01
   1.119404e+02  -5.676551e+00
   2.594605e+01   5.629647e+01
  -2.456069e+00   4.694346e+01
  -4.856669e+01   1.237217e+01
  -2.002237e-01  -2.938110e+00
   8.149676e+01  -9.610896e+00
   4.573968e-01   1.324830e+01
  -3.503162e+01   3.207515e+01
  -3.876998e+01   7.090833e+01
  -2.541883e+01   3.323461e+01
  -1.518369e+01  -6.006043e+01
   4.018529e+01  -3.968110e+01
   3.624449e+01  -3.149869e+01
  -4.108732e+00   3.832963e+01
   2.288949e+01   4.978680e+01
  -1.770009e+01   2.283292e+01
  -2.916799e+01  -2.454935e+01
  -2.716422e+01  -2.458165e+01
  -2.868715e+01  -2.242938e+01
   3.447145e+01   1.983574e+01
   1.273541e+01   2.738715e+01
  -5.688373e+01  -3.824394e+01
   8.197554e-01  -3.131988e+01
   1.830389e+01   5.453240e+01
   1.679876e+00   2.497533e+01
  -1.635052e+01   6.978292e+00
  -3.594625e+01  -1.501979e+01
   1.442625e+01  -1.674345e+01
  -9.773473e+00  -3.171002e+01
   2.347417e+01  -9.043720e+00
   3.053764e+01   2.516586e+01
  -5.262578e+01   2.609232e+01
  -2.631108e+01  -2.665740e+01
  -3.655584e+01  -4.089249e+01
  -7.225238e+00  -1.905186e+01
   1.644134e+01  -3.488146e+01
   4.016074e+00   1.388954e+01
  -2.621407e+01   4.134101e+00
  -3.140329e+01   8.293329e+00
  -2.651865e+01   1.196111e+01
   7.313358e+01  -6.270946e+00
