
 $NMID
 id='ANONYMOUS ', fmtdat='(2E16.6)'
 volume=1.0
 tramp=1.0
 $END
   2.872361e+03   3.409204e+02
   1.776921e+03   1.081080e+03
   7.454025e+01   1.614450e+03
  -7.968852e+02   1.335099e+03
  -8.622011e+02   4.685357e+02
  -2.135210e+02   5.214825e+01
   1.594852e+02  -7.647299e+01
   1.669720e+02   3.069604e+02
  -2.044047e+02   4.963673e+02
  -4.734299e+02   1.946213e+02
  -4.081357e+02  -3.106294e+02
  -8.178256e+01  -5.235655e+02
   1.676788e+02  -2.130447e+02
   1.499786e+02   2.491820e+02
  -7.098478e+01   3.894238e+02
  -2.683593e+02   1.057208e+02
  -2.702961e+02  -3.535980e+02
   5.579603e+01  -5.771926e+02
   3.593603e+02  -3.903975e+02
   4.862065e+02   6.748030e+01
   1.952539e+02   3.026003e+02
  -9.756269e+01   2.489064e+02
  -5.015746e+01   1.176922e+02
   2.159614e+02   1.831484e+02
   2.295189e+02   2.788676e+02
  -4.218381e+01   3.684496e+02
  -4.188176e+02   8.643076e+01
  -4.439147e+02  -1.912014e+02
  -1.265378e+02  -2.725321e+02
   3.045127e+02  -7.370108e+01
   3.560969e+02   1.625212e+02
   1.351881e+02   2.898108e+02
  -2.035392e+02   2.779781e+02
  -4.127232e+02   6.577592e+01
  -2.537916e+02  -1.176107e+02
  -5.735369e+01  -2.463221e+02
  -5.973914e+01  -1.893077e+02
  -1.099013e+02   2.105343e+01
  -1.376677e+02   3.742953e+01
  -1.185524e+02  -1.213687e+02
   5.231209e+01  -4.181059e+02
   2.217050e+02  -3.484227e+02
   1.786154e+02   2.467679e+01
   1.014270e+02   1.712702e+02
  -7.415670e+01   1.481586e+01
  -7.018337e+01  -2.516925e+02
   1.203317e+02  -2.395646e+02
   3.559318e+02  -4.958914e+01
   4.474380e+02   3.413942e+02
   1.891731e+02   4.475184e+02
  -2.144628e+02   2.064997e+02
  -4.314655e+02  -8.085489e+01
  -3.407015e+02  -1.917655e+02
  -3.324927e+01  -1.725162e+02
   1.798909e+02  -5.939512e+01
   2.086860e+02  -1.417291e+01
  -1.066449e+01   1.399468e+01
  -5.515267e+00  -5.907768e+01
   2.859794e+01  -2.639767e+01
   2.036501e+02  -4.965855e+00
   8.473017e+01   1.417023e+02
  -1.045150e+02   2.157161e+02
  -3.040620e+02   1.805960e+02
  -2.844736e+02  -9.652619e+01
   2.014122e+01  -2.873148e+02
   3.274854e+02  -3.589361e+02
   3.395792e+02  -1.252389e+02
   2.118805e+02   1.231418e+02
   3.990444e+01   3.431144e+02
  -4.866994e+01   2.556510e+02
   6.384036e-01   1.916771e+02
  -1.214163e+01   1.413898e+02
  -1.542001e+02   8.683362e+01
  -2.579912e+02  -8.049192e+00
  -2.136684e+02  -9.971393e+01
  -3.987893e+01  -2.216758e+02
   1.051186e+02  -1.363532e+02
   1.771568e+02   3.825364e+01
   7.414309e+01   2.481950e+02
  -7.507697e+01   1.789514e+02
  -2.076640e+02   2.939577e+01
  -2.337189e+02  -1.406883e+02
  -1.519367e+02  -2.259775e+02
   1.173477e+01  -2.095161e+02
   1.237138e+02  -1.491395e+02
   1.105571e+02  -5.666694e+01
   1.424594e+02  -4.514537e+01
   2.237194e+02  -1.978640e+00
   3.587366e+02   1.359862e+02
   3.162258e+02   2.503566e+02
   2.467127e+01   3.779628e+02
  -4.022428e+02   3.706431e+02
  -4.304595e+02   1.902846e+02
  -2.726936e+02  -1.304725e+02
  -3.999058e+01  -2.470683e+02
   6.982656e+01  -1.718021e+02
  -1.365678e+01  -2.773984e+00
  -1.583104e+02   3.007073e+01
  -9.520674e+01  -9.300598e+01
   1.867920e+01  -1.162689e+02
   1.003479e+02  -5.783289e+01
   4.754073e+01   7.502732e+01
  -1.460103e+01   6.735250e+01
  -1.214458e+02   4.860461e-01
  -1.239650e+02  -2.061396e+02
  -1.587539e+01  -3.430946e+02
   1.849119e+02  -2.392912e+02
   3.486946e+02   4.236519e+01
   2.497791e+02   2.861007e+02
   2.261347e+01   2.811160e+02
  -1.253363e+02   1.066469e+02
  -1.521472e+02  -1.827059e+01
  -1.227535e+01  -3.917315e+01
   9.532713e-01   8.908370e+01
  -1.137723e+01   1.229713e+02
  -1.370847e+02   4.531927e+01
  -1.235500e+02  -2.092130e+01
  -3.348587e+01  -8.510765e+01
   7.352488e+01   3.226491e+01
   1.896583e+01   6.549210e+01
  -8.963634e+01   9.078578e+01
  -2.894928e+02   2.359678e+01
  -2.599224e+02  -2.116541e+02
  -3.408732e+01  -2.447093e+02
   2.474359e+02  -2.201198e+02
   2.950838e+02  -9.213370e+01
   1.441544e+02   6.975859e+01
  -2.669193e+01   5.667492e+01
  -6.949300e+01  -2.822190e+01
   6.452435e+01  -5.183412e+01
   1.649956e+02  -3.003598e+01
   1.797975e+02   9.169838e+01
   4.841597e+01   1.550229e+02
  -9.176776e+01   1.384791e+02
  -1.124972e+02   2.023354e+01
  -3.389064e+01  -5.170759e+01
   8.222564e+01   1.910979e+01
   5.949803e+01   7.509648e+01
  -5.140907e+01   1.380013e+02
  -1.892758e+02  -1.157515e+01
  -1.315712e+02  -1.079041e+02
  -3.165325e+01  -1.700108e+02
   5.339661e+01  -1.521532e+02
   1.441690e+02  -1.417414e+01
   7.034772e+01   8.359650e+01
  -4.783999e+01   7.421843e+01
  -5.415417e+01  -1.516566e+01
   5.819846e+00  -5.560139e+00
  -2.984867e+00  -3.041100e+01
  -1.313061e+01   4.934592e+01
  -7.654004e+01   4.860612e+01
  -1.255492e+02  -8.167351e+01
  -3.898458e+01  -1.536279e+02
   1.558464e+02  -1.410881e+02
   2.102288e+02  -4.974100e+01
   1.989109e+02   7.856914e+01
   3.921419e+01   2.292327e+02
  -8.976998e+01   9.641546e+01
  -1.237190e+02   2.832485e+01
  -9.496382e+01  -1.086103e+02
  -4.410536e+01  -1.886986e+01
  -1.508850e+01  -7.969673e+00
  -3.720532e+01   4.253309e+00
  -4.749593e+01  -6.802078e+01
   7.140126e+00  -1.229823e+02
   1.492463e+02  -5.637284e+01
   1.140641e+02   7.154984e+01
   1.008196e+01   1.700818e+02
  -1.398827e+02   1.261858e+02
  -1.729863e+02  -7.353823e+01
  -1.118785e+02  -2.215846e+02
   8.736800e+01  -1.765400e+02
   2.820200e+02  -1.023594e+02
   2.230068e+02   6.959553e+01
   4.314548e+01   1.495188e+02
  -6.440866e+01   1.379589e+02
  -1.121087e+02   6.937159e+01
  -8.795761e+01   2.697934e+01
  -9.942088e+01   1.116842e+02
  -7.528374e+01   9.321245e+01
  -1.124667e+02   2.762341e+01
  -8.793822e+01  -1.744260e+02
   1.243229e+00  -1.989449e+02
   9.524045e+01  -1.425153e+02
   1.533786e+02  -1.048203e+02
   8.908278e+01   1.228084e+02
   1.507314e+01   1.323110e+02
  -6.579303e+01   8.190493e+01
  -3.044974e+01  -8.222293e+01
   1.433646e+01  -6.652017e+01
   3.259833e+01  -4.830023e+01
  -2.014236e+01  -1.437896e+01
  -1.015982e+02  -1.497764e+01
  -6.103802e+01  -7.802907e+00
   4.748176e+01  -4.916856e+01
   1.690519e+02   2.239525e+01
   1.633933e+02   5.101343e+01
  -2.481547e+01   1.121697e+02
  -1.274849e+02   2.620070e+01
  -1.565025e+02  -9.234609e+00
  -3.993023e+01  -3.475286e+01
   7.115589e+01  -5.055782e+01
   6.969260e+01   4.337996e+01
  -1.354854e+01   9.911161e+01
  -6.660439e+01   5.961166e+01
  -7.182631e+01  -6.452896e+00
  -7.014419e+01  -2.625313e+01
  -6.626223e+01  -9.312554e+01
  -3.973620e+01  -6.132730e+01
  -6.874788e+01   4.443884e+00
  -2.683645e+01  -7.770784e+01
   1.695102e+01  -1.342971e+02
   9.093068e+01  -1.695838e+02
   1.421975e+02  -5.554819e+01
   1.037121e+02   1.015907e+02
   2.511993e+01   1.372333e+02
  -7.739577e+01   8.379722e+01
  -6.226314e+01   3.015136e+01
   8.949422e+01  -1.204530e+01
   1.048235e+02   5.127871e+01
   7.431237e+01   1.314424e+02
  -9.825159e+01   1.232535e+02
  -1.775481e+02   6.129474e+01
  -1.434461e+02  -1.692616e+01
  -2.733443e+01  -6.587431e+01
   5.703315e+01  -3.218950e+01
   8.789849e+01  -1.924287e+01
  -5.536497e+01   1.669754e+01
  -4.320975e+01  -6.269432e+01
  -5.467509e+01  -1.349031e+02
   1.098220e+02  -1.148706e+02
   1.738197e+02  -9.455963e+01
   1.303666e+02   6.774443e+01
   4.183490e+00   1.706197e+02
  -8.323753e+01   8.304896e+01
  -5.843857e+01  -1.941223e+01
  -7.975211e+00  -1.563554e+02
   4.339458e+01  -1.071002e+02
   5.676515e+01  -1.121430e+01
   5.171489e+01   3.004272e+01
   1.517602e+01   7.191263e+00
   9.675370e+00  -5.153586e+01
   1.678089e+01   2.632527e+01
   6.026142e+01   4.317852e+01
   2.467411e+00   9.203217e+01
  -5.436362e+01   3.276166e+01
  -1.334228e+02  -4.788945e+01
  -1.148027e+02  -6.169568e+01
   3.579213e-02  -4.272473e+01
   6.361652e+01  -1.341480e+01
   7.314232e+01   2.619355e+01
   3.283428e+01  -7.916771e+00
  -6.689665e+01   2.407816e+01
  -3.485658e+01   1.428318e+01
   1.930580e+01  -2.677653e+01
   3.508186e+01  -2.535667e+01
  -6.646972e+01  -1.726865e+01
  -7.008756e+01  -2.184039e+01
  -3.938918e+01  -8.455259e+01
   7.119548e+01  -1.230482e+02
   1.390476e+02  -9.132979e+01
   1.387444e+02   2.670277e+01
   3.141051e+01   1.548514e+02
  -9.052847e+01   1.384587e+02
  -9.653814e+01   9.562930e+01
  -6.135763e+01   1.297478e+01
  -5.453628e+01  -5.372522e+01
   1.772233e+00  -4.639235e+01
  -2.330106e+01  -3.439497e+01
  -9.739102e+00  -3.743882e+01
  -2.058299e+00  -6.031195e+01
   3.046485e+01  -3.990160e+01
   1.058397e+02  -2.914080e-01
   4.711324e+01   4.354655e+01
   8.087136e+01   9.291556e+01
  -8.824017e+01   6.683167e+01
  -9.214258e+01  -4.385985e+01
  -7.153779e+01  -8.128171e+01
   5.446607e+01  -5.812144e+01
   6.852980e+01   4.118663e+00
   6.214343e+01  -3.582735e+01
  -4.463238e+01   1.027678e+02
  -4.574252e+01   4.449123e+00
   2.400929e+01   1.398003e+01
   5.315281e+01  -2.698654e+01
   4.752127e+00   1.179093e+01
  -7.126401e+01   5.099074e+01
  -1.197939e+02   4.299069e+01
  -7.305409e+01  -2.183042e+01
  -8.458976e+00  -5.156547e+01
   4.329731e+00  -7.137219e+01
   1.175106e+01  -7.993503e+00
  -2.909971e+01   9.611641e+01
  -3.270808e+00   4.005852e+01
  -2.189987e+01   3.332849e+00
  -1.903931e+01  -5.514509e+01
   3.214326e+01  -2.820745e+01
  -1.752882e+01   8.888227e+00
   3.913630e+01   2.812725e+01
   2.620723e+01   1.191307e+01
  -8.590633e+00   1.327535e+01
  -8.479064e+00   1.938376e+01
   3.806692e+01   1.589403e+01
   8.691883e-01   5.099508e+01
  -3.037333e+01   1.556268e+01
  -5.198548e+01  -1.763155e+01
  -1.181640e+01  -4.136883e+01
   3.984631e+01  -1.885916e+01
   5.674832e+01   3.656482e+01
   8.678649e+00   4.589075e+01
  -4.978892e+01   2.142552e+01
  -7.253775e+01   4.306235e+00
  -3.107383e+01  -3.390541e+01
   2.218628e+01  -5.497236e+01
   9.672506e+01  -4.215215e+01
   2.608138e+01  -4.155360e+01
  -4.952671e+01   5.846628e+01
  -6.971136e+01  -1.160598e+01
   4.397312e+01   2.606900e+01
   8.188841e+01  -5.356055e+00
