
 $NMID
 id='ANONYMOUS ', fmtdat='(2E16.6)'
 volume=1.0
 tramp=1.0
 $END
  -4.130405e+03  -4.593632e+02
  -2.431675e+03  -2.742501e+03
   7.320837e+02  -2.581665e+03
   1.724852e+03  -9.820875e+02
   9.174748e+02   5.721706e+02
  -6.032318e+02   5.444756e+02
  -8.701623e+02  -4.356586e+02
  -5.914747e+01  -9.864953e+02
   7.081054e+02  -8.365358e+02
   9.662841e+02   1.507008e+00
   4.965241e+02   8.941724e+02
  -2.252178e+02   9.574356e+02
  -6.246511e+02   1.421209e+02
  -4.131566e+02  -6.312803e+02
   2.348307e+02  -7.584835e+02
   6.541958e+02  -5.057170e+01
   2.987030e+02   7.150207e+02
  -2.924907e+02   6.937864e+02
  -5.619608e+02   1.549164e+02
  -3.708821e+02  -3.026655e+02
  -8.717394e+01  -5.010831e+02
   2.407531e+02  -2.171406e+02
   1.913679e+02  -4.311830e+01
  -1.187834e+02   1.066300e+02
  -4.391941e+02  -1.325197e+02
  -2.548660e+02  -4.133350e+02
   3.625526e+02  -3.528716e+02
   7.929990e+02   1.398993e+02
   4.033877e+02   5.155122e+02
  -3.232909e+02   4.192972e+02
  -7.367742e+02  -4.442272e+01
  -3.680863e+02  -4.480410e+02
   2.745767e+02  -5.326798e+02
   5.041582e+02  -2.158693e+02
   3.965487e+02   1.801109e+02
   8.470226e+01   4.818351e+02
  -2.080271e+02   2.763987e+02
  -1.233090e+02  -2.298624e+02
   1.267748e+02  -4.721768e+02
   4.294412e+02  -3.240865e+00
   2.484087e+02   6.857775e+02
  -3.343544e+02   7.084208e+02
  -5.896835e+02   6.640745e+01
  -2.672103e+02  -5.601348e+02
   2.723850e+02  -3.168749e+02
   3.599935e+02   3.418067e+02
  -2.430126e+01   5.536039e+02
  -5.186288e+02   1.607321e+02
  -5.964519e+02  -3.479602e+02
  -2.078658e+02  -5.146122e+02
   3.222353e+02  -3.856100e+02
   5.718144e+02  -2.676228e+01
   4.027676e+02   3.435226e+02
  -9.710231e+01   3.753198e+02
  -4.357646e+02   3.831479e+01
  -2.931561e+02  -2.006443e+02
   1.089040e+02  -1.462995e+02
   1.488986e+02   1.450404e+02
  -1.341422e+02   1.703409e+02
  -3.333361e+02  -4.396741e+01
  -1.655398e+02  -2.964424e+02
   1.851732e+02  -2.982410e+02
   3.103574e+02  -8.905447e+01
   1.737772e+02   7.855531e+01
  -6.036927e+00   2.957534e+02
  -1.989721e+02   3.928148e+02
  -3.736681e+02   2.445107e+02
  -2.804798e+02  -1.299598e+02
  -5.594077e+01  -4.335834e+02
   1.204983e+02  -4.131685e+02
   6.675485e+01  -1.290134e+02
   1.633224e+01  -4.566034e+01
   5.583851e+01  -7.254461e+01
   1.707474e+02  -7.867610e+01
   2.856979e+02   6.345828e+01
   1.818901e+02   2.909614e+02
  -8.179461e+01   2.819660e+02
  -2.325190e+02   2.930037e+01
  -1.658228e+02  -2.852667e+02
   3.676167e+01  -2.801321e+02
   2.778814e+02  -1.224621e+02
   3.164583e+02   1.367547e+02
   1.772250e+02   3.858965e+02
  -6.658677e+01   2.853042e+02
  -1.921173e+02   1.538179e+02
  -1.132604e+02   3.803970e+01
  -1.066964e+02   7.348147e+01
  -2.312820e+02   1.350412e+02
  -4.062905e+02  -4.691925e+01
  -3.137740e+02  -2.750268e+02
  -5.355089e+01  -4.605757e+02
   3.283320e+02  -3.608041e+02
   5.300040e+02  -1.673303e+02
   3.307042e+02   4.894755e+01
   6.079406e+01   2.644911e+02
  -9.768362e+01   2.730562e+02
  -8.388886e+01   1.073448e+02
   8.342054e+01  -7.796997e+01
   1.613673e+02   2.637861e+01
   7.268594e+01   2.135921e+02
  -1.338372e+02   1.884612e+02
  -1.897726e+02  -6.553534e+01
  -4.927673e+00  -2.085156e+02
   1.850226e+02   3.986000e+00
   1.651659e+02   2.540407e+02
  -1.435931e+01   3.231716e+02
  -2.184513e+02   2.015795e+02
  -3.293819e+02  -8.906339e+01
  -2.712330e+02  -2.361721e+02
  -7.133428e+01  -2.486087e+02
   8.279458e+01  -1.587244e+02
   1.760807e+02  -4.851546e+01
   9.511908e+01   1.702250e+01
  -6.352446e+01  -4.243852e+01
  -3.440246e+01  -1.217756e+02
   1.102629e+02  -9.921472e+01
   1.796952e+02   4.548261e+01
   5.056464e+01   9.241847e+01
  -6.895732e+01   3.297809e+01
  -9.504830e+01  -5.096812e+01
   9.300202e+01  -8.050379e+01
   2.412734e+02   8.184347e+00
   2.747461e+02   1.333166e+02
   9.406025e+01   2.498132e+02
  -1.681510e+02   2.490288e+02
  -3.048463e+02   9.725778e+01
  -1.727922e+02  -8.732564e+01
  -9.550799e+00  -9.163380e+01
   9.159647e+01  -1.132353e+01
  -3.495691e+01   1.119133e+02
  -1.893763e+02   5.973657e+01
  -2.125750e+02  -1.311592e+02
  -9.988458e+01  -1.830941e+02
   8.791656e+01  -1.671630e+02
   1.527970e+02  -2.268545e+01
   1.109554e+02   2.471511e+01
  -1.384653e+01   2.643188e+01
  -3.553483e+01  -6.829280e+01
   3.916826e+01  -9.819469e+01
   1.937699e+02  -1.403948e+01
   1.821021e+02   1.041742e+02
  -1.811104e+01   2.033343e+02
  -1.295991e+02   1.653624e+02
  -1.626865e+02   3.628425e+01
  -3.550567e+01  -1.219509e+02
   4.350551e+01  -8.897087e+01
   1.145773e+02  -1.250991e+01
   2.024702e+00   4.629452e+00
  -1.451540e+01   1.981516e+01
   1.232732e+01  -1.168806e+01
   5.936155e+01  -2.354685e+01
   6.508199e+01   4.765377e+01
   1.446879e+01   1.766947e+02
  -8.951350e+01   1.125951e+02
  -2.074335e+02   4.517052e+01
  -1.735271e+02  -1.036728e+02
  -8.221613e+01  -2.119358e+02
   1.039012e+02  -2.025575e+02
   1.395689e+02  -2.175528e+01
   8.540309e+01   8.845957e+01
   5.545486e+01   4.752819e+01
   3.721544e+01   6.532893e+00
   6.857195e+01  -4.775124e+01
   4.224038e+01   5.378035e+01
  -4.442898e+01   6.426853e+01
  -1.396561e+02   3.712455e+01
  -9.814071e+01  -2.342647e+01
   3.981132e+01  -1.314873e+02
   1.336897e+02  -1.076073e+02
   1.738345e+02   2.058423e+01
   1.133394e+02   1.890881e+02
  -1.021011e+02   1.971809e+02
  -2.370657e+02   9.726950e+01
  -2.594824e+02  -7.277958e+01
  -1.394705e+02  -1.390996e+02
   2.939546e+01  -1.570726e+02
   7.355897e+01  -1.099839e+02
   5.792205e+01  -9.523286e+01
   1.081435e+02  -1.034618e+02
   9.971844e+01  -1.191967e+02
   1.350171e+02  -1.092750e+01
   1.200908e+02   1.194692e+02
   4.012545e+01   2.451509e+02
  -1.219971e+02   1.362452e+02
  -2.152473e+02   3.228002e+01
  -1.792948e+02  -1.194924e+02
   4.345073e-01  -2.108016e+02
   1.001571e+02  -1.097606e+02
   9.959561e+01   1.166498e+01
   2.663693e+01   1.964156e+01
   3.739309e+01   4.727299e+01
   3.922644e+01   1.234737e+01
   1.011674e+02   2.813645e+01
   3.925122e+01   5.827633e+01
  -7.893421e+01   5.773756e+01
  -1.695830e+02  -2.829228e+01
  -1.121387e+02  -5.774826e+01
  -1.479124e+01  -6.189966e+01
   9.451608e+01  -7.283259e+01
   1.699019e+02   3.788222e-01
   9.087296e+01   3.264815e+01
  -3.911370e+01   4.650928e+01
  -1.063430e+02  -1.199928e+00
  -5.708192e+01  -4.600772e+01
   6.030659e+01  -7.172386e+01
   5.176290e+01  -4.977845e-01
   4.214288e+01   3.121949e+01
   1.216742e+01  -3.746604e+00
   2.101109e+01  -1.161079e+01
   2.652819e+01   7.296458e+00
   6.311773e+01   8.080342e+01
  -4.088768e+01   1.350297e+02
  -9.506059e+01   1.373869e+02
  -1.576172e+02   5.500021e+01
  -1.529097e+02  -5.700395e+01
  -2.804781e+01  -1.442807e+02
   8.205762e+01  -3.367435e+01
   6.320746e+01   1.495865e+01
  -6.518204e+01   1.285547e+01
  -9.337030e+01  -7.110444e+01
  -9.313762e+01  -1.125772e+02
   4.322780e+01  -1.264317e+02
   1.659211e+02  -5.445092e+01
   1.666536e+02   4.005253e+01
   3.768964e+01   6.709067e+01
  -9.095978e+01   8.747290e+01
  -3.934923e+01   4.214566e+01
   5.043385e+01  -4.550201e+01
   8.905175e+01   4.401136e+01
   4.425339e+01   1.285799e+02
  -3.530628e+01   1.824899e+02
  -1.719782e+02   1.012143e+02
  -1.360837e+02  -9.511388e+01
  -3.172300e+01  -2.203884e+02
   9.657878e+01  -1.359619e+02
   1.508268e+02  -2.362004e+01
   1.493449e+01   1.352022e+02
   4.304182e+01   8.152686e+01
  -7.057781e+01   3.992102e+01
  -7.821468e+01  -2.497985e+01
  -4.511112e+01   2.636093e+01
   3.635423e+01   3.416083e+01
  -1.724789e+01  -2.250826e+00
  -3.194026e+01  -5.518649e+01
  -1.532929e+01  -1.052255e+02
   5.368039e+01  -4.359599e+01
   1.627024e+02   2.211715e+01
   1.398664e+02   6.818145e+01
   3.363507e+01   6.110851e+01
  -5.113803e+01   6.058725e+01
  -1.649366e+02   6.531538e+00
  -1.997028e+00   5.128591e+00
   2.735169e+01  -2.026001e+01
  -1.889338e+01  -3.502467e+01
  -6.457847e-01  -3.697643e-01
   3.457781e+01   1.529714e+01
   7.909406e+01   1.093573e+01
   1.124380e+02   1.037685e+01
   2.043851e+01   7.978458e+01
  -1.335035e+02   1.575621e+02
  -1.605873e+02   7.349916e+01
  -1.300239e+02  -7.721695e+01
  -3.785293e+01  -1.759260e+02
   1.071536e+02  -1.283958e+02
   1.151928e+02  -1.016274e+02
   7.985141e+01  -2.052335e+01
   1.844100e+01   3.862243e+01
   1.137466e+00  -1.235728e+01
   9.610925e+00   5.509148e+01
   3.774146e+01   4.250808e+01
  -1.726592e+00   5.770904e+01
  -1.916483e+01   9.213857e+01
  -6.841391e+01   1.402498e+01
  -6.121061e+01  -1.320633e+02
  -5.307903e+00  -1.460126e+02
   5.871338e+01   1.693526e+01
   6.575116e+01   1.041390e+02
   4.857024e+01   1.026133e+02
  -1.979468e+01   8.674169e+01
  -7.874493e+01  -7.421949e+00
  -4.153759e+01  -3.295137e+01
   4.777099e+01  -5.033687e+01
   5.552205e+01  -5.126829e+01
  -3.325194e+01   2.141794e+01
  -3.630241e+01  -5.298709e-01
  -3.420764e+01   7.974315e+00
   6.292303e+01  -9.246106e+01
   1.004698e+02  -4.186551e+01
   5.816812e+01   1.956013e+01
   2.976149e+01   6.176271e+01
  -5.908798e-01   7.889227e+01
  -4.911950e+01   1.994799e+01
   5.738779e+00  -2.172470e+01
   4.011104e+01  -7.677963e+01
   8.064426e+01   4.163273e+01
   3.388150e+01   9.045859e+01
   2.538804e+01   1.408596e+01
  -9.706630e+00   5.251519e+01
  -6.872437e+01  -8.522060e+00
   4.078011e+00  -5.642128e+00
  -1.106624e+01  -2.112079e+01
   6.948834e+00  -1.081240e+01
  -1.853648e+00  -2.148357e+01
  -1.067949e+01  -4.979740e+01
   6.504875e+01  -4.347044e+00
   5.663440e+01   5.419770e+01
   2.863002e+01   4.060676e+01
  -3.717001e+01   3.912825e+01
  -6.315935e+01  -3.013458e+00
   1.285769e+01  -3.711912e+01
   4.074066e+00  -1.851642e+01
   3.878059e+01   2.152573e-01
   5.393062e+00   1.714633e+01
  -6.677120e+01   5.136456e+01
  -8.606425e+01   1.601690e+01
  -2.825407e+01   2.296052e+01
   1.049364e+01   1.440456e+01
   1.916092e+01   4.905252e+01
  -2.356795e+01  -1.740821e+01
  -9.559066e+01   7.031561e+01
