
 $NMID
 id='ANONYMOUS ', fmtdat='(2E16.6)'
 volume=1.0
 tramp=1.0
 $END
   1.946428e+03   1.964432e+02
   1.467522e+03   8.879440e+02
   1.876619e+02   1.134701e+03
  -6.739113e+02   1.001262e+03
  -7.821332e+02   4.635814e+02
  -1.790091e+02  -1.940233e+02
   1.284748e+02   4.892300e+01
   8.647018e+01   3.274790e+02
  -1.830645e+02   3.737448e+02
  -4.052959e+02   9.943972e+01
  -3.537021e+02  -2.755476e+02
  -1.050370e+02  -4.255629e+02
   1.382462e+02  -2.013211e+02
   1.673933e+02   1.795204e+02
  -3.714998e+00   3.759131e+02
  -2.388811e+02   7.063750e+01
  -2.456612e+02  -2.957544e+02
   1.254917e+01  -4.698037e+02
   3.033722e+02  -2.798884e+02
   3.592994e+02   1.668809e+01
   1.044158e+02   2.361029e+02
  -9.870790e+01   1.704269e+02
  -4.304301e+01   4.119966e+01
   1.249283e+02   4.482449e+01
   2.125802e+02   1.767597e+02
   3.579410e+01   2.252689e+02
  -2.973651e+02   1.857962e+02
  -4.426178e+02  -9.409073e+01
  -1.537290e+02  -1.977756e+02
   2.092888e+02  -1.784148e+02
   3.855561e+02   4.403690e+01
   7.889475e+01   2.198634e+02
  -1.753790e+02   2.017584e+02
  -3.232778e+02   7.165897e+01
  -2.320634e+02  -1.169977e+02
  -4.290853e+01  -2.195045e+02
   1.069744e+01  -9.577290e+01
  -7.902307e+01   6.115976e+01
  -8.930687e+01   1.188043e+02
  -1.147796e+02  -1.537485e+02
   3.660392e+01  -3.380675e+02
   1.666804e+02  -3.221415e+02
   2.502324e+02  -6.076689e+01
   1.205279e+02   2.125203e+02
  -7.572757e+01   9.357166e+01
  -1.858721e+02  -1.166259e+02
   9.883758e+01  -2.221648e+02
   2.714652e+02  -7.072356e+01
   3.206087e+02   1.881386e+02
   1.559603e+02   3.416130e+02
  -1.613198e+02   2.046606e+02
  -3.699660e+02  -1.157522e+01
  -2.220676e+02  -1.099892e+02
   3.189934e+01  -8.991481e+01
   1.686294e+02  -5.129687e+01
   1.138050e+02  -1.618854e+01
   5.203575e+00   1.574312e+01
  -3.652825e+01   6.356513e+00
   5.570053e+01  -3.572758e+01
   1.401906e+02   3.470783e+01
   1.507741e+02   1.143035e+02
  -9.935138e+01   2.143730e+02
  -2.545122e+02   1.447333e+02
  -1.808496e+02  -4.419745e+01
   1.312586e+01  -2.568501e+02
   1.777644e+02  -2.706983e+02
   2.464153e+02  -1.033332e+02
   1.447454e+02   9.537606e+01
   8.254736e+01   2.169964e+02
   2.298013e+01   2.605115e+02
  -3.685875e+01   1.790097e+02
  -4.625055e+01   8.907031e+01
  -1.008012e+02   6.505698e+01
  -1.346321e+02   1.818871e+01
  -1.781589e+02  -7.376861e+01
  -3.339986e+01  -2.056531e+02
   2.384814e+01  -1.123214e+02
   1.154898e+02  -6.321992e+00
   7.902261e+01   1.204257e+02
  -4.004356e+01   1.615830e+02
  -1.749317e+02   1.198423e+01
  -1.822301e+02  -1.297981e+02
  -1.272506e+02  -1.780097e+02
   1.116488e+01  -1.885880e+02
   1.179972e+02  -1.377613e+02
   1.191738e+02  -1.186929e+02
   1.091363e+02  -6.385633e+01
   2.415155e+02   1.904952e+00
   3.298206e+02   6.660019e+01
   1.791619e+02   2.074667e+02
   3.904937e+01   2.960758e+02
  -2.898026e+02   3.131668e+02
  -3.418066e+02   9.591413e+01
  -2.278464e+02  -9.975767e+01
  -6.934826e+01  -1.558459e+02
   6.064939e+01  -1.619415e+02
  -1.833821e+01  -5.348673e+01
  -7.491082e+01   1.253231e+01
  -7.430257e+01   1.843132e+01
  -1.127237e+01  -1.152506e+02
   8.070994e+01  -5.036862e+01
   9.002597e+01   2.392895e+01
   3.014761e+01   3.221407e+01
  -1.012333e+02   3.558250e+01
  -1.765453e+02  -1.533834e+02
  -2.485697e+01  -2.382886e+02
   1.518883e+02  -1.216812e+02
   2.768108e+02   1.930797e+01
   1.959812e+02   9.919173e+01
   5.107197e+01   1.640049e+02
  -1.204848e+02   1.218054e+02
  -1.300178e+02   7.490977e+00
  -1.846331e+01  -7.172906e+00
   3.195802e+01   2.894346e+01
   2.795064e+01   8.799147e+01
  -8.892771e+01   6.472458e+01
  -7.436854e+01   4.079974e+00
  -3.505254e+01  -5.250690e+01
   1.278064e+01   1.737053e+00
   3.395278e+01   1.051476e+02
  -1.013559e+02   8.881154e+01
  -2.168842e+02  -3.512122e+01
  -2.154176e+02  -9.724825e+01
  -3.430560e+01  -1.677750e+02
   1.509569e+02  -1.873680e+02
   2.125338e+02  -5.542627e+01
   1.231318e+02   4.881733e+01
  -3.670546e+01   5.678890e+01
  -4.123580e+01  -4.168729e+01
   5.998957e+01  -5.281503e+01
   1.260442e+02  -1.576917e+01
   6.950611e+01   4.941031e+01
   4.529934e+00   1.182276e+02
  -8.118563e+01   9.830112e+01
  -8.758570e+01   5.163466e+01
  -1.967701e+01  -3.040516e+01
   3.125787e+01   5.049100e+01
   2.620868e+01   8.299707e+01
  -8.257125e+01   5.543281e+01
  -1.529771e+02   3.273484e+01
  -1.264435e+02  -9.977671e+01
  -2.043568e+01  -1.321081e+02
   1.482005e+02  -1.411440e+02
   9.556882e+01  -4.590389e+01
   8.182087e+01   5.787458e+01
  -2.459209e+01   8.857407e+01
  -8.208882e+01   1.935017e+01
  -1.378811e+01   5.549163e+00
   3.570719e+01   1.847392e+01
   3.264346e+01   3.695451e+01
  -5.074471e+01   2.230922e+01
  -4.086738e+01  -8.664381e+01
   9.077539e+00  -1.314437e+02
   1.014987e+02  -1.686662e+02
   2.070022e+02  -5.015524e+01
   1.693857e+02   8.078384e+01
   9.353446e+01   1.687194e+02
  -5.474247e+01   1.184556e+02
  -7.460306e+01   3.746686e+01
  -8.643550e+01  -3.951212e+01
  -5.936472e+00   1.881599e+01
  -2.589081e+01   1.541767e+01
  -6.161527e+01   1.273022e+01
  -8.194901e+01  -8.823337e+01
   1.624604e+01  -1.013008e+02
   1.163467e+02  -7.953267e+01
   9.632902e+01   4.559259e+01
  -9.277084e+00   1.014841e+02
  -1.267613e+02   7.135030e+01
  -1.709398e+02  -5.185906e+01
  -8.229674e+01  -1.976378e+02
   1.120602e+02  -1.625019e+02
   1.847457e+02  -5.091585e+01
   2.192083e+02   5.341552e+01
   7.809688e+01   1.234068e+02
  -4.849624e+00   9.714137e+01
  -8.844790e+01   5.014961e+01
  -8.851897e+01   3.489779e+01
  -5.841584e+01   1.003124e+02
  -6.711751e+01   8.710024e+01
  -1.174861e+02  -4.301665e+01
  -8.421186e+01  -1.386855e+02
  -4.261317e+01  -1.773860e+02
   4.621948e+01  -1.405823e+02
   8.692427e+01   9.098581e+00
   6.735527e+01   6.286981e+01
   3.710411e+00   1.756347e+02
  -3.499145e+01   5.456112e+01
  -7.421906e+01   1.168000e+01
   6.926324e+00  -5.998282e+01
   5.354013e+01  -4.017596e+01
   2.353981e+01  -9.153543e+00
  -5.158234e+01  -2.846460e+01
  -3.033403e+01  -6.534047e+01
   1.016046e+02  -1.181185e+01
   1.008777e+02   1.965217e+00
   9.548142e+01   2.646103e+01
  -4.354899e+01   6.816084e+01
  -1.181891e+02   5.315536e+01
  -1.018516e+02   1.982183e+01
  -3.784345e+01  -3.769853e+01
   2.888059e+01  -4.098181e+01
   5.350732e+01   3.869030e+01
  -1.850060e+01   5.652338e+01
  -1.473870e+01   7.455259e+01
  -6.049964e+01   2.184223e+01
  -2.757245e+01  -7.081758e+01
  -2.616899e+01  -2.499920e+01
  -1.742193e+01  -7.565130e+01
  -3.177850e+01   8.256578e+00
  -8.522422e+01  -2.941506e+01
   3.324000e+01  -1.150805e+02
   9.489861e+01  -1.021550e+02
   1.442032e+02  -3.501510e+01
   1.191959e+02   5.745656e+01
   1.554890e+01   7.226144e+01
  -8.298405e+01   4.710846e+01
  -3.954008e+01   3.411633e+01
   2.249276e+01   2.587354e+01
   7.994052e+01   2.120296e+01
   6.585717e+01   5.430697e+01
  -4.703026e+01   1.245781e+02
  -8.012653e+01   2.758268e+01
  -1.053719e+02  -4.292277e+01
  -1.010232e+01  -5.949009e+01
   7.969305e+01  -4.833414e+01
   2.226272e+01  -7.138200e+00
  -3.110240e+01   7.110706e+01
  -4.602759e+01  -2.340937e+01
  -5.722379e+01  -7.297735e+01
   7.732747e+01  -1.610780e+02
   9.409174e+01  -5.091351e+01
   1.073645e+02   3.317412e+01
   1.980483e+01   1.316807e+02
  -7.752468e+01   9.240597e+01
  -9.874165e+01  -6.444726e-01
  -3.477733e+01  -7.338010e+01
   2.630202e+01  -8.301137e+01
   3.915532e+01  -9.406390e+00
  -4.251430e+01  -3.947570e-01
   6.089907e+00   3.733061e+01
  -4.947246e+01  -4.965242e-01
   2.357069e+01  -1.426561e+00
   5.431865e+01   4.640246e+01
   1.643690e+01   5.049644e+01
  -4.223082e+01   3.676504e+01
  -9.134334e+01  -2.500469e+01
  -5.606206e+01  -2.183776e+01
   1.956395e+01  -1.392606e+01
   5.410115e+01  -4.707916e+01
   5.951095e+01   2.485592e+00
  -2.753393e+01   4.315570e+01
  -3.654728e+01   2.310859e+01
  -1.222714e+01  -1.699850e+00
  -6.406488e+00  -1.396535e+00
   2.879415e+01  -8.095079e+00
  -6.619200e+01  -3.172587e+01
  -9.136013e+01  -2.415269e+01
  -8.293737e+01  -3.265614e+01
   5.764797e+01  -1.038666e+02
   1.317498e+02  -8.082599e+01
   1.467027e+02   2.109081e+01
   2.243137e+01   1.486504e+02
  -9.477484e+01   7.702948e+01
  -1.018434e+02   4.401813e+01
  -9.099944e+01  -1.953516e+01
  -8.106890e+00  -4.273160e+01
  -2.133404e+01  -2.357352e+00
   3.360618e+00   1.959947e-01
   8.710158e+00  -3.345205e+01
   3.026247e+01  -5.800983e+01
   1.480474e+01  -3.033570e+01
   8.238993e+01  -6.113739e+00
   6.778690e+01   5.245408e+01
   1.243680e+01   1.396166e+02
  -4.187133e+01   4.235718e+01
  -1.008133e+02  -3.192187e+01
  -3.988543e+01  -6.039770e+01
   3.195869e+01  -5.476493e+01
   8.551602e+01   1.215478e+01
   7.362591e+01   2.076906e+01
  -1.001696e+01   6.204635e+01
  -4.302741e+01  -2.488881e+01
   4.160509e+01  -2.145723e+01
   4.078802e+01  -2.700512e+01
   1.342094e+01   3.154346e+00
  -4.051332e+01   4.459429e+01
  -8.290330e+01   6.540755e+01
  -6.176331e+01   1.026565e+01
   2.003259e+01  -1.060895e+02
   2.832815e+00  -1.749676e+02
   3.328115e+01  -5.178238e+01
   3.497469e+00   1.485559e+01
  -4.488279e+01   1.558156e+01
  -5.910027e+01   5.154218e+01
   1.339942e+01  -4.786827e+01
   1.100423e+01  -3.037790e+01
   5.176287e+01  -4.200416e+00
   4.808498e+01   1.285624e+01
   5.437521e+01   3.309184e+01
  -8.031871e+00   1.690643e+01
  -8.908546e+00   4.488485e+00
   1.720483e+01   2.308315e+01
   2.246723e+01   3.234165e+01
  -6.197760e-01   2.385253e+01
  -2.562652e+01   7.474141e+00
   7.214260e+01  -1.800313e+01
   5.258530e+01  -2.241862e+01
   9.211205e+01  -6.029025e+00
   1.130031e+01   5.611031e+01
  -1.110766e+01   2.895843e+01
  -2.666309e+01   2.094429e+01
  -3.846265e+01  -2.220612e+01
   3.499040e+01  -8.561820e+01
   5.923708e+01  -5.599739e+01
   1.797241e+01  -4.818306e+01
  -2.673187e+01  -2.922579e+00
  -4.015802e+01  -1.215062e+01
   1.833496e+01  -2.423472e+01
   4.249581e+01  -3.871407e+01
