
 $NMID
 id='ANONYMOUS ', fmtdat='(2E16.6)'
 volume=1.0
 tramp=1.0
 $END
  -7.867561e+02  -2.028544e+02
  -6.818791e+02  -6.562694e+02
  -1.596705e+02  -4.995994e+02
   1.602568e+02  -6.547024e+02
   2.546278e+02  -2.636771e+02
   2.053782e+02  -3.453408e+00
   1.043399e+02   1.312954e+02
  -5.660318e+01  -1.034839e+02
  -3.120911e+00  -1.349231e+02
   1.388958e+02  -1.378774e+02
   1.613703e+02   6.522175e+01
   8.073098e+01   1.472048e+02
  -4.889029e+00   6.580122e+01
  -1.864674e+01  -5.517697e+01
  -1.867880e+01  -1.345687e+02
   2.888313e+01  -5.124701e+01
   1.220817e+02   1.011500e+02
  -4.657734e+01   2.196350e+02
  -1.113865e+02   1.602799e+02
  -1.523347e+02  -1.834732e+01
  -5.597169e+01  -8.563321e+01
   4.804833e+01  -9.670683e+01
   1.723944e+00  -9.043992e+00
  -6.206138e+01  -9.769600e+01
  -1.212511e+02  -1.658490e+02
   7.014222e+01  -9.271608e+01
   1.464611e+02   7.306497e+00
   2.084758e+02   1.613567e+02
   5.352740e+01   7.944951e+01
  -6.678966e+01   1.356208e+01
  -1.603434e+02  -1.421965e+02
  -6.935686e+01  -6.121706e+01
   7.605967e+01  -3.009470e+01
   1.457389e+02  -1.993602e+01
   9.009248e+01  -2.467108e+01
   5.221120e+01   6.271399e+01
   6.010962e+01   7.818537e+01
   8.634766e+01   3.863278e+01
   8.327030e+01   3.177215e+01
  -5.056123e+01   7.478340e+01
  -5.386473e+01   1.504391e+02
  -8.444720e+01   9.443980e+01
   4.783705e+00   1.855856e+01
  -6.004570e+01  -3.887619e+01
   3.030406e+01  -1.780183e+01
   2.108853e+01   5.421554e+01
  -4.018027e+01   1.170601e+02
  -1.183239e+02   5.864337e+01
  -1.466941e+02  -7.904968e+01
  -5.256237e+01  -1.933187e+02
   8.477990e+01  -8.862664e+01
   1.357891e+02   3.013645e+01
   1.521620e+02   4.527650e+01
   2.860764e+01   5.330377e+01
  -4.929742e+01   3.208096e+01
  -7.649614e+01   8.484723e+01
  -1.342221e+01   1.191884e+01
  -1.306770e+01   3.047484e+00
  -5.053890e+01  -4.147292e+01
  -8.262308e+00   1.581286e+01
  -4.491540e+01  -7.861186e+01
  -1.739452e+01  -7.238606e+01
   1.329056e+02  -7.150940e+01
   1.399953e+02   2.653603e+01
   2.466371e+01   9.688498e+01
  -8.990064e+01   1.089104e+02
  -9.987202e+01   3.905446e+01
  -1.068468e+02  -4.011984e+01
   3.811350e+01  -1.134145e+02
   2.721267e+01  -8.236822e+01
  -2.398177e+01  -4.422480e+01
   1.414525e+01  -1.722680e+01
   4.116060e+01  -6.488778e+01
   1.393294e+02   7.152155e-01
   7.823517e+01   7.208923e+01
   7.299407e+01   8.290365e+01
  -2.520312e+01   4.480531e+01
  -3.243946e+01  -9.669713e+00
  -2.524945e+01  -9.900278e+01
   1.180043e+01  -1.232606e+02
   1.018029e+02  -1.211937e+01
   1.075650e+02   1.025006e+02
   8.770518e+01   1.032314e+02
  -3.980408e+01   6.461672e+01
  -6.554290e+01   8.658229e+01
   1.682484e+01   6.803742e+01
  -3.238184e+01   4.111970e+01
  -1.552761e+02   5.376436e+01
  -1.522356e+02  -1.482453e+01
  -9.887604e+01  -1.101368e+02
   1.570659e+01  -1.481689e+02
   1.150807e+02  -1.474144e+02
   2.125225e+02  -4.859311e+01
   1.068739e+02  -5.708383e-02
  -6.886074e+00   7.114635e+01
  -1.815571e+01   4.735158e+01
   3.150207e+01  -7.451798e+00
   2.131432e+00   9.924587e+00
  -5.650836e+00   5.044300e+01
   1.745298e+00   3.225484e+01
  -3.285957e+01   4.276250e+00
  -9.862754e+00  -9.297472e+00
   3.575747e+00  -5.345203e+01
   3.026316e+01  -3.288736e+00
   6.247443e+01   1.048470e+02
   8.842177e+00   1.636788e+02
  -5.272466e+01   8.865562e+01
  -1.105375e+02  -6.150923e+01
  -6.853682e+01  -8.525529e+01
  -7.493373e+01  -1.107611e+02
   4.765860e+01  -3.713462e+01
   3.730700e+01  -2.048485e+01
   3.938936e+01  -3.202929e+01
  -4.635844e+01  -6.978949e+01
   5.469643e+01  -1.403667e+01
   3.601628e+01  -1.373254e+01
   2.859903e+01  -5.905954e+00
   1.155796e+01   2.501697e+01
  -5.949311e+01   1.210177e+01
  -5.801454e+00  -4.493566e+01
   5.074444e+01  -1.518773e+01
   1.175502e+02  -4.224664e+00
   5.276511e+01   4.681758e+01
  -1.401923e+01   9.490359e+01
  -4.666485e+01   5.579346e+01
  -5.255687e+01   1.060127e+01
  -1.977340e+01   1.312739e-01
  -1.029856e+01  -3.636168e+01
  -2.842740e+01   2.738792e+01
  -3.565714e+01  -2.945640e+01
  -8.052436e+01  -1.273437e+01
  -1.095475e+02  -6.369113e+01
  -1.611240e+01  -4.416822e+01
   1.973283e+01  -4.696300e+01
   2.337291e+01  -1.055541e+01
   1.650233e+01   3.008421e+00
  -1.200973e+01  -4.132937e+01
   6.531755e+00  -7.948192e+01
   4.328023e+01  -2.867869e+01
   9.345645e+01  -1.212890e+01
   9.010956e+01   8.923798e+01
   4.029974e+00   8.028733e+01
  -7.277464e+01   3.023603e+01
  -4.356550e+01   1.275171e+01
  -2.444313e+01  -2.217013e+01
   1.768512e+01  -1.043069e+00
   3.439105e+01  -6.931357e+00
  -5.122467e+01   4.319538e+01
  -1.833431e+01   4.466572e+01
  -4.359601e+01  -2.346576e+01
   7.822661e+01  -3.897702e+01
   4.993677e+01   5.336219e+01
  -7.372822e+01   1.049372e+02
  -5.472770e+01   4.088004e+01
  -8.307175e+01   6.126663e+00
  -7.293143e+01  -5.383143e+01
   1.708193e+00  -6.703314e+01
   2.717235e+01  -8.192955e+01
   5.977549e+01  -1.443730e+00
   5.182844e+01   1.487122e+00
   6.984882e+00   1.876925e+01
   1.901522e+01   1.333951e+01
   5.972072e+01  -2.173040e+01
   1.792307e+00  -2.772231e-01
  -3.825784e+01   2.734035e+01
  -1.424716e+01   5.850632e+00
  -3.029778e+01  -1.194061e+01
   4.726023e+00  -6.053932e+01
   1.372037e+01  -7.078949e+01
   7.255987e+01  -1.639121e+01
   3.831880e+01   9.961853e+01
  -3.553165e+01   8.710023e+01
  -8.580255e+01   5.331495e+01
  -5.923701e+01  -7.223726e+01
  -5.521411e+01  -5.231706e+01
   7.707908e+01  -5.110448e+01
   1.826610e+01  -5.570903e+01
   1.372694e+01   7.226603e+00
   1.772043e+01  -1.873361e+01
   3.484509e+01  -1.004171e+01
   3.065115e+01  -1.282026e+01
   3.923182e+01   7.814105e+01
   1.696466e+01   8.982595e+01
  -3.021213e+01   7.429818e+01
  -6.843562e+01   1.576358e+01
  -5.263450e+01  -4.898346e+01
   2.603184e+01  -6.892949e+01
   1.147224e+01  -3.035917e+01
   2.677995e+01   1.123811e+01
  -6.171884e+00   3.106643e+01
  -5.192388e+01  -2.809630e+01
   4.615496e+01  -6.345679e+01
   3.648054e+01   5.728368e+01
   1.781297e+01   6.865189e+00
   3.274609e+00   4.869399e+00
  -7.925733e+01  -1.348037e+01
  -7.803219e+01  -2.388749e+00
   8.338424e+00  -2.778615e+00
   3.795018e+01  -3.340304e+01
   1.077922e+02  -4.788793e+00
   1.846080e+01   3.133546e+01
   2.110861e+01   4.159016e+00
   1.608725e+01  -3.685847e+01
  -2.761667e+01  -9.878010e+00
   8.377103e-01  -1.078421e+01
   2.635971e+01   2.398636e+01
   6.161036e+00   4.443618e+01
  -2.596141e+00   2.854491e+01
   2.617448e+01   5.511871e+00
   6.077093e+00  -3.331898e+00
  -3.060206e+01   3.772318e+01
  -1.907960e+00   5.984740e+01
  -2.785221e+01   3.238984e+01
  -5.393974e+01  -5.440797e+00
  -3.620491e+01  -2.506738e+01
   6.373553e+01  -1.001784e+02
   1.700574e+01  -4.695763e+01
   2.302174e+01   3.026222e+01
  -4.315736e+00   1.156633e+01
  -5.354484e+01  -2.348813e+01
  -2.145498e+01  -4.686119e+01
   3.814161e-01  -9.078348e+00
   1.167716e+02  -1.917306e+01
   7.527174e+01   5.790413e+01
   2.782226e+01   1.997067e+01
  -4.669601e+01   2.439565e+01
  -5.835624e+01   2.648961e+01
   1.136538e+01  -7.898316e+00
   1.310058e+01   7.312646e+00
  -3.586904e+01   7.250192e+01
  -1.868657e+01   7.845047e+01
  -1.151442e+01   8.664684e+00
  -6.272919e+01  -6.640400e+01
  -1.735021e+00  -7.736177e+01
   2.487425e+01  -6.002651e+01
   5.489880e+01  -1.750517e+01
   4.523084e+01   1.034909e+01
   1.224887e+01   2.046164e+01
  -1.220551e+01   1.619550e+01
   4.620062e-01  -3.599904e+01
  -4.731507e+01  -2.130485e+01
   1.823161e+01  -4.785272e+00
   2.083120e+01  -1.306443e+01
  -2.050549e+01  -2.005181e+01
   4.778568e+01  -1.003771e+01
   2.155572e+01  -3.974372e+00
   5.295479e+01  -1.705172e+00
   4.616012e+01   7.978424e+01
   5.883636e+00   4.451524e+01
  -3.912678e+01   2.119908e+01
  -1.462999e+01   4.118455e+01
  -4.115659e+01   3.498689e+01
   7.374887e+00   2.414141e+01
   2.643599e+01   2.693341e+00
   1.149127e+01  -4.523123e+00
  -8.618059e+00   8.885133e+00
   2.116650e+01  -2.909554e+01
   1.948418e+01   1.543002e+00
   1.365527e+01   1.797202e+01
  -7.086476e+01   4.616796e+01
  -9.825063e+01   3.009860e+01
  -5.088671e+01  -6.960905e+00
   1.266053e+01  -5.110567e+01
   1.957235e+01  -5.498777e+01
   3.398617e+01  -3.219165e+01
   3.007244e+01  -3.610112e+01
   4.654751e+01  -2.342410e+01
  -2.634558e+00   3.672902e+01
  -4.830244e+01  -2.397195e+01
  -3.695653e+00   3.247235e+01
  -3.266245e+01   4.504291e+01
  -5.684877e+01   8.873913e+00
  -3.706505e+01   5.079904e+00
   1.294382e+01  -7.464896e+01
  -3.322404e+01  -7.499961e+01
   1.930006e+01   1.293051e+01
   2.362594e+01   4.384458e+01
   1.133235e+01   5.778092e+01
  -3.313113e+01  -1.143800e+01
  -6.406543e+01   2.110408e+00
  -8.996107e+00  -3.132380e+01
  -1.442368e+01  -1.747728e+01
   2.720141e+01   1.742352e+00
  -2.720384e+01   2.450456e+01
  -4.295679e+01  -2.217480e+01
  -2.359844e-01   3.041078e+01
  -5.887424e+00  -3.699136e+01
   5.684865e+01  -2.887350e+01
  -1.742593e+01   4.446785e+01
   1.586238e+01   1.079608e+01
  -4.104746e+01   5.059935e+01
   5.145803e+00   1.602650e+01
   1.334028e+01  -6.299929e+01
   1.769292e+01  -2.051221e+01
   2.647087e+01   1.105336e+00
   8.765127e+00   3.025213e+01
   2.466846e-01   6.889081e+00
  -2.115849e+01  -8.154915e+00
  -1.779653e+01   5.299801e+00
  -1.350582e+01  -1.223687e+01
  -2.623659e+01   4.571887e+01
  -6.547237e-01   2.859934e+00
   1.606510e+01  -2.426044e+01
   4.357152e+00  -6.247015e+01
  -2.511999e+01   4.650651e+00
  -1.627564e+01   1.656429e+01
   1.885839e+01   2.797890e+01
  -5.698435e+00  -3.798952e+00
   7.679144e+00  -2.266429e+01
  -1.278778e+01   5.938529e+00
   1.829796e+01  -2.263775e-01
   2.772219e+01  -2.931933e+00
   6.132892e+01   1.366799e+01
  -7.187836e+00   1.023882e+01
  -4.435822e+01   2.441779e+01
  -4.255691e+01  -1.070566e+01
  -5.037944e+00   1.013643e+01
   4.573707e+01   5.616976e+00
  -1.741946e+00   2.164641e+01
  -9.531734e+00  -1.519803e+01
