
 $NMID
 id='ANONYMOUS ', fmtdat='(2E16.6)'
 volume=1.0
 tramp=1.0
 $END
   3.147276e+03   4.946095e+02
   2.151326e+03   1.921159e+03
  -3.436002e+02   1.824155e+03
  -1.294551e+03   9.135493e+02
  -8.331773e+02   8.617940e+01
   3.726513e+01  -9.253403e+01
   3.911453e+02   9.100956e+01
   3.949479e+01   6.268879e+02
  -5.192393e+02   5.083691e+02
  -6.150989e+02   2.661177e+01
  -4.030644e+02  -5.418918e+02
   1.463879e+01  -5.762703e+02
   2.740205e+02  -1.012533e+02
   2.060877e+02   4.400426e+02
  -1.202468e+02   5.076763e+02
  -3.479219e+02   1.040356e+02
  -2.712529e+02  -3.960038e+02
   6.814257e+01  -5.957789e+02
   4.635311e+02  -2.557239e+02
   4.744644e+02   1.536282e+02
   1.426720e+02   3.235743e+02
  -1.700563e+02   2.809164e+02
  -8.374160e+01   8.155143e+01
   1.746994e+02   6.112016e+01
   2.461510e+02   2.428470e+02
  -3.793625e+00   3.622257e+02
  -4.105463e+02   9.676336e+01
  -6.120603e+02  -2.294531e+02
  -2.046734e+02  -3.187364e+02
   3.474863e+02  -1.742697e+02
   5.544167e+02   1.768013e+02
   1.959759e+02   3.877549e+02
  -2.621965e+02   3.943903e+02
  -4.147842e+02   1.205804e+02
  -2.990895e+02  -1.198710e+02
  -1.000871e+02  -3.464943e+02
  -9.248439e+00  -1.978153e+02
  -5.798140e+01   1.129872e+02
  -1.710004e+02   2.257129e+02
  -2.484803e+02  -1.156959e+02
  -2.113777e+01  -3.901664e+02
   3.271191e+02  -5.014004e+02
   3.627473e+02   5.925721e+01
   1.618290e+02   3.349884e+02
  -1.285549e+02   1.231230e+02
  -2.155452e+02  -2.557774e+02
   1.321808e+02  -3.876957e+02
   4.699488e+02  -2.268764e+01
   4.674380e+02   4.273012e+02
   1.316565e+02   4.723868e+02
  -3.199357e+02   3.014084e+02
  -5.418938e+02  -8.437063e+01
  -3.480069e+02  -2.496542e+02
   7.424146e+01  -2.436823e+02
   2.398417e+02  -4.656684e+01
   1.546653e+02   9.056451e+01
  -7.441884e+00   2.075999e+01
  -4.909043e+01  -6.315671e+01
   1.084478e+02  -8.397162e+01
   2.238100e+02   8.920373e+01
   6.736932e+01   1.996913e+02
  -1.555496e+02   2.249908e+02
  -3.054275e+02   9.132645e+01
  -2.477204e+02  -6.928755e+01
   1.046944e+01  -2.788929e+02
   1.998819e+02  -3.534305e+02
   3.297759e+02  -2.375208e+02
   2.399724e+02   1.531761e+02
   8.572424e+01   3.391707e+02
  -7.706651e+00   2.928336e+02
   1.403037e+01   2.060047e+02
   2.314052e+01   6.556689e+01
  -1.251186e+02   1.611798e+02
  -2.392886e+02   4.473558e+01
  -2.674716e+02  -9.758676e+01
  -4.802475e+01  -2.609870e+02
   1.016745e+02  -1.870105e+02
   1.922008e+02   5.718330e+01
   1.200620e+02   2.429577e+02
  -5.459111e+01   2.545853e+02
  -2.775024e+02   2.908671e+01
  -3.351879e+02  -2.133886e+02
  -1.424145e+02  -2.816642e+02
   1.098600e+02  -2.518688e+02
   1.486944e+02  -1.535616e+02
   1.338922e+02  -6.795078e+01
   1.601399e+02  -1.032968e+02
   3.173318e+02  -7.303018e+01
   4.367824e+02   1.439917e+02
   3.382634e+02   2.878212e+02
  -3.606986e+01   4.117466e+02
  -3.409255e+02   3.537107e+02
  -4.850582e+02   1.100084e+02
  -3.025492e+02  -8.323591e+01
   6.452393e+00  -2.405206e+02
   1.763882e+02  -1.337958e+02
  -3.040268e+01  -6.224090e+01
  -1.415049e+02   6.789942e+01
  -9.531616e+01  -8.403129e+01
   2.432874e+01  -1.432475e+02
   1.350887e+02  -9.263951e+01
   8.559371e+01   9.375221e+01
  -8.532772e+00   1.187264e+02
  -1.843382e+02  -2.143814e+01
  -1.698263e+02  -2.154813e+02
   1.432945e+01  -3.762748e+02
   2.747718e+02  -1.966762e+02
   3.395790e+02   5.001680e+01
   2.906862e+02   2.632997e+02
   2.560920e+01   2.557619e+02
  -1.291916e+02   1.347629e+02
  -1.246322e+02   1.020982e+01
  -2.711267e+01  -5.193984e+01
   1.794140e+01   7.382861e+01
   1.585521e+00   1.396576e+02
  -1.739565e+02   4.361198e+01
  -1.474177e+02  -7.594237e+01
  -8.530225e+00  -7.670516e+01
   1.177574e+02   2.251289e+01
   3.882599e+01   1.082985e+02
  -1.084992e+02   5.234864e+01
  -2.829400e+02  -6.430816e+01
  -2.530978e+02  -1.674675e+02
  -7.978111e+01  -2.321203e+02
   1.969439e+02  -2.085695e+02
   2.365174e+02  -9.101478e+01
   9.885025e+01   3.789478e+01
  -2.370057e+01   7.049380e+01
  -6.423059e+01  -3.534541e+01
   3.390061e+01  -5.223460e+01
   1.904719e+02  -3.371214e+01
   2.103364e+02   1.347662e+02
  -2.466704e+00   1.473983e+02
  -7.643429e+01   1.361381e+02
  -1.128387e+02  -1.106855e+01
  -7.267741e+01  -3.502533e+01
   5.397675e+01   1.180221e+01
  -3.643127e+00   1.273231e+02
  -1.047248e+02   1.050074e+02
  -2.379543e+02   5.225877e+01
  -1.581422e+02  -1.269121e+02
  -1.745978e+01  -1.963334e+02
   1.588946e+02  -1.410550e+02
   1.748436e+02   1.332993e+01
   6.816357e+01   1.134004e+02
  -6.637685e+01   8.646586e+01
  -3.996769e+01  -1.758363e+01
   4.625543e+00  -8.834994e+01
   5.408895e+01   1.407128e+01
   1.593001e+01   2.589923e+01
  -4.705281e+01   2.320959e+01
  -1.010515e+02  -6.140912e+01
  -5.008511e+01  -1.430910e+02
   1.293917e+02  -1.076786e+02
   2.172874e+02   8.653834e+00
   1.708220e+02   1.503999e+02
   1.425192e+01   1.953364e+02
  -1.055239e+02   1.504483e+02
  -1.432040e+02   4.584881e+01
  -7.075481e+01  -6.693416e+01
  -5.258535e+01  -4.407777e+01
  -8.301395e+01  -8.997825e+00
  -8.829459e+01  -2.687392e+01
  -7.830130e+01  -5.309868e+01
   5.346470e+01  -1.199487e+02
   1.228462e+02  -9.422750e+01
   1.176518e+02   4.731158e+01
  -1.150928e+01   1.365887e+02
  -1.278952e+02   9.193408e+01
  -1.882667e+02  -7.246512e+01
  -1.100350e+02  -1.926576e+02
   1.181381e+02  -2.021871e+02
   2.633653e+02  -1.013868e+02
   2.136905e+02   1.086317e+02
   6.440827e+01   1.835799e+02
  -3.785448e+01   1.428148e+02
  -7.748300e+01   9.181987e+01
  -4.092341e+01   1.650489e+01
  -7.491741e+01   1.022412e+02
  -1.292181e+02   7.070257e+01
  -1.323789e+02  -1.242012e+01
  -9.183158e+01  -1.563540e+02
   2.519698e+01  -2.374816e+02
   1.223688e+02  -1.229860e+02
   1.683581e+02  -9.358861e+00
   1.433005e+02   1.140259e+02
   1.932456e+01   1.688663e+02
  -3.032716e+01   1.096988e+02
  -6.455510e+01  -5.074039e+00
  -1.293191e+01  -3.032187e+01
  -2.926304e+01  -2.923337e+01
  -3.823189e+01  -5.935977e+00
  -1.086472e+02  -2.296030e+01
   1.526364e+01  -4.568995e+01
   6.487565e+01  -5.683980e+01
   1.881194e+02   8.577714e+00
   1.429089e+02   4.068640e+01
   6.128665e-01   8.082051e+01
  -1.139228e+02   9.381672e+01
  -1.048664e+02  -9.074653e+00
  -5.894326e+01  -1.882280e+01
   7.391370e+01  -4.827329e+01
   5.108606e+01   3.267187e+01
   1.899093e+01   4.739925e+01
  -4.286254e+01   2.349095e+01
  -8.908854e+01  -1.197256e+01
  -2.378770e+01  -2.481196e+01
  -4.440600e+01  -4.502414e+01
  -2.174254e+01  -8.619834e+00
  -7.207449e+01   2.033808e+01
  -6.280282e+01  -7.244398e+01
   3.558206e+01  -1.570715e+02
   7.904859e+01  -1.441620e+02
   1.890287e+02  -2.956835e+01
   9.880877e+01   6.192771e+01
  -1.213168e+00   9.031907e+01
  -8.974752e+01   5.651369e+01
  -4.020603e+01  -4.905442e+01
   5.241692e+01   1.479844e+01
   1.440215e+02   1.526503e+01
   7.687099e+01   5.667483e+01
  -7.245574e+01   1.290914e+02
  -1.788343e+02   2.468658e+01
  -1.499836e+02  -2.317979e+01
  -3.817246e+01  -1.089639e+02
   5.920940e+01  -9.311103e+01
   8.747601e+01   1.519083e+01
  -3.812832e+01   2.772624e+01
  -7.450777e+01  -1.075318e+01
  -4.646611e+01  -1.276035e+02
   1.194029e+02  -1.666635e+02
   1.396181e+02  -8.858760e+01
   8.889910e+01   1.021546e+02
   1.905711e+01   1.582867e+02
  -8.105339e+01   1.221960e+02
  -6.124049e+01  -3.751965e+01
  -3.720081e+01  -1.339451e+02
   1.254967e+01  -1.109158e+02
   3.761788e+01   1.870316e+01
   7.366414e+01   2.496101e+01
   6.677207e+01   3.364883e+01
   3.504918e+01  -9.573402e+00
   3.835065e+01  -8.564733e+00
   7.089175e+01   1.188396e+02
   1.591062e+01   1.496301e+02
  -1.647726e+01   3.458704e+01
  -1.215143e+02  -1.055434e+00
  -1.219392e+02  -6.915122e+01
  -3.003396e+01  -8.286432e+01
   8.702665e+01  -3.178975e+01
   8.529051e+01  -2.606063e+01
   3.501752e+01   1.685743e+00
  -1.707496e+01   3.486754e+01
   7.507797e+00   1.359055e+01
  -2.821021e+01   1.781912e+01
  -3.807643e+01   6.564537e+00
  -1.011118e+02   4.321582e+00
  -7.491170e+01  -1.105108e+01
  -5.361893e+01  -9.618261e+01
   1.209782e+02  -1.396588e+02
   1.551256e+02  -1.039618e+02
   1.618324e+02   6.094028e+01
   1.855119e+01   1.049782e+02
  -6.792594e+01   1.545276e+02
  -1.145558e+02   8.890338e+01
  -3.964217e+01  -1.512178e+01
   1.121333e+01  -2.228975e+01
  -2.128388e+01   1.178554e+01
  -5.245127e+01  -5.268711e+01
  -2.366196e+01  -1.639506e+01
  -2.337744e+01  -3.823599e+01
   2.143586e+01  -8.125714e+01
   7.699782e+01  -1.273638e+01
   1.118850e+02   1.408493e+02
   3.178295e+01   9.907584e+01
  -7.227506e+01   4.920131e+00
  -7.920339e+01  -8.483355e+01
  -6.209003e+01  -1.035507e+02
   6.364732e+01  -8.806375e+01
   7.331149e+01  -1.561669e+01
  -5.407487e+00   1.307920e+01
  -5.172433e+01   6.743101e+01
  -3.157947e+01   5.919435e+01
   9.279157e+00   4.279390e+01
   5.548783e+01   1.624799e+01
   1.805300e+01   4.015477e+01
  -9.572954e+01   7.437026e+01
  -1.266659e+02   9.617886e+01
  -6.371078e+01  -7.461756e+00
   1.662519e+01  -7.396254e+01
   2.576069e+01  -6.341470e+01
   3.464524e+01   9.937866e+00
  -8.377974e+00   4.292884e+01
  -5.045702e+01   7.431889e+01
  -2.616223e+01  -1.594408e+01
  -2.940762e+01  -2.109645e+01
   4.789891e+01  -7.694685e+01
   4.576214e+01  -1.107862e+01
   8.266699e+01   1.846862e+01
  -2.299661e+01   2.341974e+01
   2.200046e+01  -1.452789e-01
  -2.646244e+01  -2.179896e+01
   1.930968e+01   3.722887e+01
  -6.968539e+00   9.316012e+01
  -8.500880e+00   9.634546e-01
   1.492488e+01   1.372472e+01
  -2.578523e+01  -7.535207e+01
   2.993533e+01  -2.257289e+01
   6.886380e+01   1.769505e+01
   1.886134e+01   6.291425e+01
  -7.322642e+01   7.379981e+00
  -7.534871e+01   9.260803e+00
  -6.014882e+01  -4.668049e+01
   3.035817e+01  -3.111370e+01
   9.336863e+01   1.784694e+01
   2.969700e+00  -2.150348e+01
  -4.015707e+01   1.665043e+01
   7.378111e+00   9.678757e+00
   4.000344e+01  -5.003386e+01
   4.327512e+01  -4.292174e+00
