
 $NMID
 id='ANONYMOUS ', fmtdat='(2E16.6)'
 volume=1.0
 tramp=1.0
 $END
  -2.241522e+03  -1.468934e+02
  -1.517911e+03  -1.460552e+03
   1.494993e+02  -1.533958e+03
   1.169844e+03  -8.626461e+02
   9.686270e+02   4.619518e+01
  -8.849955e+01   3.009083e+02
  -3.723729e+02  -1.607346e+02
  -5.066129e+01  -4.643615e+02
   4.667666e+02  -5.200252e+02
   6.091509e+02  -6.570929e-01
   3.999007e+02   4.919137e+02
  -4.666166e+01   5.817608e+02
  -3.232699e+02   1.405996e+02
  -2.069727e+02  -3.969361e+02
   1.189151e+02  -4.890082e+02
   3.841440e+02  -1.299934e+01
   1.874512e+02   3.735616e+02
  -1.689645e+02   4.725352e+02
  -4.325114e+02   2.091589e+02
  -3.767978e+02  -1.599046e+02
  -3.948568e+01  -2.978443e+02
   1.666699e+02  -2.202871e+02
   7.357263e+01  -3.633341e+01
  -1.471859e+02  -1.318501e+01
  -2.246573e+02  -1.853532e+02
   2.877605e+01  -3.392115e+02
   3.749288e+02  -1.596955e+02
   5.054559e+02   2.144831e+02
   1.488033e+02   3.748308e+02
  -2.490752e+02   2.033747e+02
  -5.196112e+02  -6.780435e+01
  -1.400644e+02  -3.161654e+02
   2.472367e+02  -3.481938e+02
   3.765669e+02  -7.045154e+01
   3.128848e+02   1.757766e+02
   2.082163e+01   2.878783e+02
  -1.221809e+02   1.095138e+02
  -1.888359e+01  -1.077063e+02
   1.381223e+02  -1.433310e+02
   2.013298e+02   1.093358e+02
   9.913949e+00   3.854554e+02
  -2.443284e+02   4.662074e+02
  -3.117734e+02  -5.418259e+00
  -1.481706e+02  -3.331837e+02
   1.193951e+02  -1.326601e+02
   2.189813e+02   2.764096e+02
  -8.611672e+01   3.670826e+02
  -3.869627e+02  -1.852526e+01
  -4.258018e+02  -3.271735e+02
  -5.139997e+01  -4.711271e+02
   3.067828e+02  -2.072930e+02
   4.659603e+02   1.201095e+02
   2.900829e+02   2.814482e+02
  -6.588795e+01   2.057185e+02
  -2.319761e+02   2.495551e+01
  -1.944416e+02  -7.812178e+01
   4.225919e+01  -3.218464e+01
   8.500639e+01   4.304217e+01
  -1.292327e+02   9.251834e+01
  -2.207781e+02  -5.550068e+01
  -7.107600e+01  -1.693517e+02
   1.597051e+02  -2.016920e+02
   3.133711e+02  -9.238860e+01
   2.125429e+02   1.196646e+02
  -4.543122e+01   3.095997e+02
  -2.615139e+02   3.096553e+02
  -3.022901e+02   9.145552e+01
  -2.186199e+02  -2.010473e+02
  -1.157700e+01  -3.799466e+02
   5.292177e+01  -2.411056e+02
   4.766616e+01  -6.121778e+01
   2.279261e+01  -1.000481e+02
   9.746131e+01  -7.018417e+01
   2.470804e+02  -3.030680e+01
   1.975431e+02   1.378655e+02
   8.712501e+01   1.555219e+02
  -9.025093e+01   1.825939e+02
  -1.846419e+02  -2.283768e+00
  -1.395725e+02  -2.244051e+02
   9.020901e+01  -2.251103e+02
   2.336158e+02  -6.257422e+01
   2.461860e+02   1.837495e+02
   1.523431e+02   2.720709e+02
  -7.786941e+01   2.189292e+02
  -1.830749e+02   1.051750e+02
  -1.616039e+02   6.867227e+01
  -7.847134e+01   5.558322e+01
  -2.668731e+02   3.986156e+00
  -3.083902e+02  -1.035780e+02
  -2.639328e+02  -2.554223e+02
  -1.399128e+01  -3.617000e+02
   3.602131e+02  -3.104303e+02
   3.785019e+02  -1.215657e+02
   2.400035e+02   9.947118e+01
  -1.232910e+01   1.937832e+02
  -8.678421e+01   1.801188e+02
   1.404341e+01   1.344199e+01
   9.594707e+01  -8.690458e+01
   7.697488e+01   1.417886e+01
   4.760646e+01   1.514017e+02
  -9.714316e+01   8.189193e+01
  -1.105333e+02  -4.409193e+01
   3.701275e+01  -9.504100e+01
   1.676902e+02  -2.199246e+01
   7.728019e+01   2.461937e+02
  -3.376955e+01   3.159681e+02
  -1.939744e+02   1.592599e+02
  -2.860242e+02  -8.064029e+01
  -2.338606e+02  -2.732713e+02
  -3.168709e+01  -2.261531e+02
   1.001147e+02  -9.920901e+01
   1.791706e+02  -1.043748e+01
   5.523078e+01  -2.302469e+01
  -2.844709e+01  -4.787975e+01
  -2.250398e+01  -7.635087e+01
   1.233079e+02  -4.595801e+01
   1.269788e+02   8.254874e+01
   7.828750e+00   7.364240e+01
  -8.969541e+01   1.019853e+01
  -3.742983e+01  -7.745360e+01
   1.436728e+02  -7.513727e+01
   2.453846e+02   2.137192e+01
   1.864078e+02   1.119365e+02
   2.029086e+00   1.978861e+02
  -1.834521e+02   1.528538e+02
  -2.656316e+02   4.473837e+01
  -1.572263e+02  -2.291241e+01
   4.120661e+01  -9.176137e+01
   4.402142e+01   1.194357e+01
  -5.461111e+01   3.784500e+01
  -1.669340e+02   2.024646e+00
  -1.379528e+02  -9.725988e+01
  -2.985193e+01  -1.991076e+02
   1.286114e+02  -1.145452e+02
   1.060726e+02  -5.897366e+00
   4.455186e+01  -1.523041e+01
  -6.933142e+01  -4.658432e+00
  -2.172183e+01  -1.217357e+02
   8.356182e+01  -8.455312e+01
   1.791050e+02   1.117668e+01
   1.789161e+02   1.141797e+02
  -1.456349e+01   1.527125e+02
  -1.743456e+02   1.136972e+02
  -1.223350e+02  -2.293128e+01
  -3.047541e+01  -5.250284e+01
   7.972502e+01  -9.165056e+01
   6.080110e+01   3.177932e+00
   2.300597e+01   2.927444e+01
   6.048265e+00  -1.359376e+01
   2.958765e+01  -7.372749e+01
   1.003957e+02  -3.714448e+01
   4.438689e+01   1.252369e+02
  -6.655666e+00   1.487549e+02
  -1.590038e+02   1.592407e+02
  -1.655652e+02  -5.886462e+01
  -1.622880e+02  -1.467207e+02
  -2.372397e+01  -1.771938e+02
   1.370688e+02  -1.017587e+02
   1.569884e+02  -1.239607e+01
   8.580475e+01   4.815580e+01
   1.805609e+01  -1.610999e+01
   3.875846e+01  -4.507766e+01
   7.745371e+01   5.247607e+00
   5.649688e+01   4.620126e+01
  -4.171960e+01   7.465725e+01
  -1.282576e+02   5.406592e+01
  -1.054520e+02  -3.043402e+01
  -4.539230e+00  -1.425828e+02
   1.605175e+02  -6.764155e+01
   1.730612e+02   1.022272e+02
   9.663342e+01   1.720582e+02
  -1.537686e+02   1.259163e+02
  -2.212975e+02   9.897876e+01
  -2.270292e+02  -1.184881e+02
  -6.169457e+01  -1.879702e+02
   4.141410e+01  -9.388109e+01
   1.120832e+02  -8.692815e+01
   1.143381e+02  -4.488501e+01
   6.829448e+01  -8.381292e+01
   7.642028e+01  -2.816111e+00
   1.197809e+02   4.704025e+01
   8.318267e+01   1.482928e+02
  -2.069378e+01   1.851482e+02
  -9.252337e+01   1.507134e+02
  -1.424834e+02  -4.178650e+01
  -1.005972e+02  -9.402955e+01
   3.243657e+00  -1.224094e+02
   3.895442e+01  -3.419157e+01
   5.278696e+01  -1.379578e+01
   3.130449e+01   3.929577e+01
  -8.127376e+01  -1.388153e+01
  -1.346411e+01   1.724042e+00
   6.323517e+01   3.436377e+00
   3.384595e+01   8.487980e+01
  -1.173288e+02   2.364063e+01
  -1.137560e+02  -4.130336e+01
  -1.014635e+02  -2.884522e+01
  -1.258176e+01  -1.150964e+02
   1.197788e+02  -3.362664e+01
   1.078651e+02  -3.479285e+01
   1.125086e+01   1.747075e+01
  -8.895643e+00   4.960840e+01
  -6.104599e+01  -1.681386e+01
  -4.582763e+01  -9.464321e+01
  -7.535860e+00  -4.731159e+01
   6.241513e+01   1.494564e+00
   3.691989e+01   6.081536e+01
   2.401985e+01  -7.075269e+00
   3.563023e+01   3.497336e+01
   8.285611e+01  -1.143687e+01
   3.804907e+01   4.294018e+01
  -5.571297e+01   1.829088e+02
  -1.031172e+02   1.569740e+02
  -1.899625e+02  -1.286762e+01
  -1.073489e+02  -4.485173e+01
   5.701225e-01  -1.175292e+02
   1.080934e+02  -6.107454e+01
   6.107992e+01  -3.281932e+01
  -3.880479e+01  -3.129629e-01
  -7.682667e+01  -2.747338e+01
  -3.897554e+01  -1.043739e+02
   1.053067e+02  -4.342964e+01
   1.664145e+02   3.319657e+01
   1.307013e+02   2.762779e+01
   2.806902e+01   1.057277e+02
  -5.024772e+01   8.330214e+01
  -3.203684e+01  -3.650200e+01
   4.221396e+01  -3.369405e+01
   8.038742e+01   3.285058e+01
   1.810376e+01   9.336781e+01
  -6.498697e+01   1.342795e+02
  -1.118769e+02   5.750789e+01
  -9.723193e+01  -8.229248e+01
  -3.457051e+01  -1.532885e+02
   1.042597e+02  -1.153015e+02
   6.521310e+01  -1.125909e+01
   4.030004e+01   9.641123e+01
  -2.735490e+00   1.033641e+02
  -6.276821e+00  -6.578348e+00
  -5.112054e+01  -4.406514e+01
   3.102358e+00  -7.296423e+01
   7.356325e-01   4.517452e+01
  -5.303932e+01   4.610386e+00
  -4.703796e+01  -7.373562e+01
  -2.461350e+01  -9.807180e+01
   2.138439e+01  -8.252598e+01
   1.583738e+02   3.532500e+01
   1.418865e+02   5.753343e+01
   2.080044e+01   6.101582e+01
  -4.164509e+01   3.431248e+01
  -7.413698e+01   2.048710e+01
  -3.833183e+01   2.967761e+01
   2.414713e+01   6.213226e-01
  -6.166953e+00  -2.153765e+01
   3.212055e+01   2.364282e+01
   8.892856e+00   1.283378e+00
   6.886572e+01   5.839063e+01
   3.577487e+01   6.867234e+01
   2.819929e+01   8.468067e+01
  -8.122450e+01   7.850129e+01
  -1.306847e+02   2.065380e+01
  -1.336286e+02  -2.542477e+01
   1.345813e+01  -1.430663e+02
   5.346184e+01  -1.099616e+02
   8.264353e+01  -7.624893e+01
   4.779081e+01   3.290995e+01
   4.089521e+01   4.855154e+01
   4.890820e+00   3.009459e+01
   1.678874e+01   2.825070e+00
   2.047554e+01   2.131888e+01
  -1.896730e+01   9.985710e+01
  -2.637296e+01   9.500490e+01
  -6.664096e+01  -6.746706e+01
  -7.105366e+01  -8.412169e+01
  -3.890580e+01  -1.189619e+02
   1.025208e+02  -5.480634e+01
   8.940318e+01   4.516564e+01
   2.483682e+01   1.096659e+02
  -6.793015e+01   3.946267e+01
  -1.147198e+02  -5.206717e+01
  -9.436143e-01  -6.243282e+01
   5.748504e+01  -3.732887e+01
   4.390309e+01  -1.869963e+01
   7.637402e+00   3.159660e+01
  -5.941822e+01   5.075781e+01
   1.910758e+01  -7.419977e+01
   8.564696e+01  -3.012455e+01
   9.214226e+01  -1.882324e+01
   2.254897e+01  -2.472044e+00
  -1.820039e+01   9.999661e+01
  -4.727919e+01   2.293382e+01
  -2.690869e+01   2.191812e+01
  -2.703006e+01  -3.975876e+01
  -1.153141e+01  -1.864478e+01
  -3.667145e+01  -1.694604e+01
   2.869687e+01   5.742085e+01
   2.704946e+01   3.730327e+01
  -5.286716e+01  -3.912115e+01
  -3.344828e+01  -5.916154e+01
  -7.468913e+00  -2.433742e+01
   1.068526e+01   5.530284e+01
   4.488983e+01   4.376793e+01
  -1.180942e+01  -2.862596e+01
   1.035517e+01  -6.766975e+01
  -1.201832e+01  -4.532964e+01
   2.503685e+01   2.869721e+01
   1.807893e+01   7.106197e+01
  -1.649496e+01   2.122726e+01
  -7.343473e+01  -4.761639e+01
  -1.175695e+01  -4.770441e+01
   6.361172e+01  -6.655517e+00
   9.269233e+01   7.400458e+00
   3.212249e+01   6.052470e+01
  -1.909594e+01   2.968248e+01
  -8.515591e+01   2.738501e+01
  -1.948718e+01  -1.005645e+01
   4.034587e+01   1.525064e+01
  -1.027207e+01  -1.803333e+01
  -5.939695e+01   3.140265e+01
  -5.846431e+01   1.905314e+01
