
 $NMID
 id='ANONYMOUS ', fmtdat='(2E16.6)'
 volume=1.0
 tramp=1.0
 $END
  -2.155402e+03  -3.463276e+02
  -1.493617e+03  -1.351918e+03
  -3.566452e+01  -1.500924e+03
   9.164576e+02  -1.066663e+03
   8.532470e+02  -2.367746e+02
   9.362605e+01   1.410531e+02
  -1.685935e+02  -1.645658e+02
  -4.708382e+00  -3.824297e+02
   3.322328e+02  -3.664998e+02
   4.756896e+02  -7.398537e+01
   3.778591e+02   3.477676e+02
   2.001574e+01   5.707077e+02
  -2.236276e+02   1.879734e+02
  -2.256459e+02  -3.555398e+02
   9.216427e+01  -4.085466e+02
   3.533384e+02  -4.614172e+01
   2.200470e+02   3.526651e+02
  -5.971422e+01   5.106438e+02
  -3.547107e+02   2.094315e+02
  -3.421623e+02  -1.465273e+02
  -1.072132e+02  -3.514694e+02
   9.940608e+01  -1.730959e+02
   3.962712e+01  -5.663187e+01
  -1.671409e+02  -1.181032e+02
  -2.051186e+02  -2.440939e+02
   4.871827e+01  -2.770763e+02
   3.635236e+02  -4.059506e+01
   3.942628e+02   2.490634e+02
   1.248832e+02   3.108338e+02
  -2.230939e+02   1.226661e+02
  -3.775453e+02  -1.434694e+02
  -1.173869e+02  -3.193326e+02
   2.012981e+02  -2.746978e+02
   3.928917e+02  -5.697701e+01
   2.522179e+02   1.291641e+02
   4.763520e+01   2.233643e+02
  -1.196747e+01   1.014435e+02
   3.750796e+01  -4.106108e+01
   2.118247e+02  -1.195583e+02
   1.912245e+02   1.957873e+02
  -7.513055e+01   3.847548e+02
  -2.444554e+02   2.889048e+02
  -2.286535e+02  -5.510525e+01
  -1.005288e+02  -2.624578e+02
   1.316823e+02  -1.247472e+02
   1.944021e+01   2.224203e+02
  -1.398199e+02   2.520263e+02
  -3.868042e+02   2.333177e+01
  -3.604230e+02  -2.496593e+02
  -8.346130e+01  -3.775517e+02
   2.986905e+02  -2.222680e+02
   4.043360e+02   7.220367e+01
   2.066370e+02   2.427462e+02
  -1.140576e+02   1.832186e+02
  -1.889733e+02   7.083567e+01
  -9.785600e+01  -4.306244e+01
  -3.855142e+01   1.027988e+01
   2.565567e+01   3.881019e+01
  -5.937170e+01   1.847655e+01
  -2.025945e+02  -5.351635e+01
  -3.640805e+01  -1.762736e+02
   1.234252e+02  -1.864984e+02
   2.699052e+02  -1.076854e+02
   2.393404e+02   1.434616e+02
  -4.250343e+01   2.990977e+02
  -2.380814e+02   2.860768e+02
  -2.939860e+02   8.610511e+01
  -1.718238e+02  -1.825469e+02
   2.983558e+01  -2.552283e+02
   3.876344e+01  -1.726616e+02
   1.340127e+01  -1.689989e+02
  -5.971325e+00  -8.756891e+01
   1.391961e+02  -7.319691e+01
   1.711200e+02  -4.214461e+01
   1.967924e+02   1.154095e+02
   5.014082e+00   2.330294e+02
  -1.079542e+02   1.162997e+02
  -1.757140e+02  -8.729521e+01
  -9.964923e+01  -1.993224e+02
   3.095758e+01  -1.643410e+02
   2.240225e+02  -4.949569e+01
   2.262777e+02   1.622807e+02
   1.339728e+02   2.111258e+02
  -5.560129e+01   1.890654e+02
  -1.522705e+02   1.126037e+02
  -1.778679e+02   5.230611e+01
  -1.666496e+02   3.500972e+01
  -1.866138e+02   1.307701e+01
  -2.709658e+02  -1.060462e+02
  -2.426042e+02  -2.082590e+02
   1.090448e-01  -3.297560e+02
   3.828319e+02  -2.882319e+02
   4.005854e+02  -7.929332e+01
   2.121525e+02   9.538592e+01
   2.198021e+01   2.217475e+02
  -6.983399e+01   1.754893e+02
  -1.315860e+01   3.424415e+00
   9.966094e+01  -7.990884e+01
   7.148301e+01   5.714376e+01
  -3.900384e+01   1.418051e+02
  -7.950873e+01   5.627490e+01
  -7.926082e+01  -2.027634e+01
   3.276604e+01  -1.372725e+02
   1.633424e+02   1.905020e+01
   1.026608e+02   1.802362e+02
  -5.523360e+01   2.922192e+02
  -1.968004e+02   1.602093e+02
  -2.817220e+02  -8.935482e+01
  -2.196582e+02  -2.788156e+02
  -2.120933e+01  -2.278498e+02
   1.128196e+02  -1.105504e+02
   1.218715e+02   3.613789e+01
  -3.964703e+00   4.023289e+01
  -6.618564e+01   1.376262e+01
   1.263375e+01  -7.717920e+01
   1.020763e+02  -7.008568e+01
   9.671046e+01   4.167772e+01
   4.558803e+01   2.763294e+00
  -8.277597e+01  -1.157075e+01
  -4.670605e+01  -1.245714e+02
   1.315450e+02  -7.760604e+01
   2.607225e+02   7.905021e+01
   1.865876e+02   1.586344e+02
  -1.549949e+01   2.443261e+02
  -1.495288e+02   1.968713e+02
  -2.364540e+02   3.350560e+01
  -9.428551e+01  -4.180583e+01
   5.089242e+01  -4.759477e+01
   1.586198e+01   3.482181e+01
  -4.419497e+01   5.360464e+01
  -1.160266e+02   2.158944e+01
  -1.306446e+02  -8.537546e+01
  -2.462601e+01  -1.397502e+02
   3.286920e+01  -1.085638e+02
   1.002837e+02   4.694469e+01
  -3.014534e+00   8.779618e+00
  -6.583551e+01   8.655829e+00
   2.910682e+00  -9.144315e+01
   8.829987e+01  -9.751489e+01
   1.477137e+02  -6.050777e-01
   1.514091e+02   1.132997e+02
  -3.956322e+01   1.342379e+02
  -8.662298e+01   1.432256e+02
  -1.096871e+02   9.619854e+00
  -4.754794e+01  -9.495822e+01
   6.567051e+01  -6.001690e+01
   6.734998e+01  -1.632587e+01
  -2.195566e+01  -4.311156e+00
  -1.779547e+01   3.424439e+01
  -1.673780e+01   1.228976e+00
   5.419292e+01   3.952560e+00
   7.998514e+01   4.724157e+01
  -1.721007e-01   1.380411e+02
  -1.518436e+02   1.430281e+02
  -1.983151e+02  -1.661071e+01
  -1.225370e+02  -1.306807e+02
  -2.185201e+00  -1.849752e+02
   1.567510e+02  -1.227015e+02
   9.082199e+01  -1.524435e+01
   1.217142e+01   5.918185e+01
   5.298494e+01  -2.768386e+01
   5.117055e+01  -2.852592e+01
   6.713447e+01   1.559896e+01
   5.883943e+01   5.808427e+01
  -3.538753e+01   8.473558e+01
  -1.385113e+02   6.368527e+01
  -7.590903e+01  -3.097888e+01
  -1.534641e+01  -1.219830e+02
   1.808834e+02  -4.711506e+01
   1.257058e+02   5.144345e+01
   4.173734e+01   1.945155e+02
  -9.802869e+01   1.630391e+02
  -2.351607e+02   7.588850e+01
  -2.058372e+02  -9.690182e+01
  -4.743272e+01  -1.248560e+02
   6.569514e+01  -1.052556e+02
   8.953154e+01  -9.385161e+01
   5.131412e+01  -2.360229e+01
   1.530599e+01  -9.268811e+01
   7.310705e+01  -4.971948e+01
   1.099434e+02   4.650791e+01
   8.722649e+01   1.045037e+02
   1.133963e+01   2.122515e+02
  -1.055998e+02   1.404944e+02
  -1.527487e+02  -8.436567e+00
  -1.133724e+02  -1.320616e+02
   3.200587e+01  -7.591429e+01
   9.278056e+01  -6.012216e+01
   4.301984e+01  -1.463048e+01
  -2.729286e+01   1.751341e+01
  -7.552551e+00   1.087472e+01
  -4.222576e+00  -1.919953e+01
   3.498756e+01   3.818770e+00
   3.501671e+01   5.948796e+01
  -5.126351e+01   5.603528e+01
  -1.480953e+02  -2.677248e+01
  -8.133354e+01  -4.206363e+01
   2.139543e+01  -1.170790e+02
   1.159856e+02  -3.808019e+01
   1.324851e+02  -7.404548e+00
  -4.107175e+00   5.946668e+01
  -2.679647e+01   9.689692e+00
  -1.040160e+02  -6.485174e+01
  -2.839900e+01  -9.331031e+01
   6.865531e+01  -3.806703e+01
   5.739936e+01  -1.467799e+01
   4.864412e+01   4.138436e+01
   6.611250e+01   3.994767e+01
   3.757357e+01   1.490882e+01
   3.581057e+01  -4.858032e+01
   4.186378e+01   3.680947e+01
  -7.589786e+00   1.203505e+02
  -5.297942e+01   8.281327e+01
  -1.378404e+02   2.777746e+01
  -1.009812e+02  -5.029660e+01
  -2.418763e+01  -1.091982e+02
   1.280856e+02  -5.751723e+01
   3.789828e+01   1.432094e+01
  -5.422524e+01   4.059871e+01
  -7.551526e+01  -1.772370e+01
  -3.028490e+01  -9.193536e+01
   7.638665e+01  -8.734160e+01
   1.297109e+02  -5.701798e+01
   1.177077e+02   4.081016e+01
   2.558535e+01   6.292222e+01
  -5.076455e+01   3.548569e+01
  -7.554803e+01  -1.876334e+01
   7.697918e+00  -3.457574e+01
   7.783281e+01   2.105002e+01
   4.685411e+00   7.498439e+01
  -6.259046e+01   8.244551e+01
  -1.150701e+02   6.174743e+01
  -9.477347e+01  -9.144643e+01
   3.364537e+01  -1.873271e+02
   4.385200e+01  -1.237827e+02
   6.681611e+01  -3.721957e+00
   7.478586e+01   1.037118e+02
  -6.168153e+00   9.871356e+01
  -4.649809e+01  -2.164960e+01
  -6.190798e+01  -6.784898e+00
  -5.588562e+01  -3.876905e+01
  -7.566423e+00  -7.409817e-01
  -1.772306e+01  -3.031853e+01
  -6.416171e+01  -2.689743e+01
  -1.188041e+01  -1.016600e+02
   6.703516e+01  -2.652084e+01
   1.267402e+02   2.856898e+01
   5.066830e+01   8.829471e+01
  -1.716617e+01   4.618404e+01
  -8.267484e+01   3.766365e+01
  -4.561147e+01  -1.695285e+01
   6.365901e+00  -1.324031e+01
   6.909846e+01  -2.516987e+01
   1.163626e+01  -2.697825e+01
  -4.413333e+01  -4.537184e+01
  -2.216532e+01  -5.667315e+00
   6.731057e+01  -2.828025e+00
   6.723658e+01   5.205140e+01
   1.609188e+00   8.510090e+01
  -7.646674e+01   6.035618e+01
  -1.652289e+02   4.235622e+01
  -1.241018e+02  -3.154062e+01
  -1.473118e+01  -9.382510e+01
   8.416298e+01  -1.524033e+02
   9.106848e+01  -7.411499e+01
   4.757048e+01   4.257134e+01
   2.370698e+01   2.540389e+01
  -6.054502e+01  -2.279480e+01
   5.215620e+00   3.240540e+01
   1.973841e+01   1.853759e+01
   9.024247e+00   5.848577e+01
  -4.441545e+01   3.428811e+01
  -3.911165e+01  -1.834662e+01
  -3.387735e+01  -8.737545e+01
   4.076641e+01  -5.743584e+01
   9.598129e+01   7.660086e+00
   9.823846e+01   5.809093e+01
   2.438674e+01   1.022519e+02
  -6.878974e+01   3.899849e+01
  -1.162494e+02  -7.629751e+01
  -3.164718e+01  -5.673290e+01
   3.364026e+01  -4.482397e+01
   1.981449e+01  -6.066601e+00
  -1.070441e+01   5.019475e+01
  -3.880773e+01   4.578423e+01
  -1.127040e+01  -3.587411e+01
   6.298970e+01  -5.007681e+01
   1.654575e+02  -6.987260e+01
   4.837590e+01   2.597061e+01
  -1.387929e+00   3.418264e+01
  -2.189982e+01   1.108358e+02
  -2.346593e+01   1.274338e+01
   2.415662e+01  -5.215884e+01
   1.059237e+01  -3.094259e+01
  -5.801373e+00   9.423253e+00
   1.670409e+01   8.961308e+01
   2.711024e+01   7.767611e+01
  -2.502051e+01  -1.858838e+01
  -3.245441e+01  -7.377161e+01
   1.490116e+01   4.958995e+00
   2.869757e+01   4.512371e+01
   1.082739e+01   6.289118e+01
  -1.508036e+01   2.416099e+01
   1.912308e+01  -2.678359e+01
   2.092561e+01  -7.258260e+00
   2.456347e+01   2.403416e+01
   4.265837e+01   1.378972e+01
   3.736700e+00   1.111579e+00
  -4.084293e+01  -4.524866e+01
  -7.054853e+00  -1.779490e+01
   1.566309e+01  -4.216927e+01
   5.489815e+01  -5.232985e+00
   6.718816e+01   3.514153e+01
  -2.540019e+01   8.357901e+01
  -2.592035e+01   1.132799e+01
  -3.644517e+01  -7.423167e+00
   2.255349e+00   2.991962e+01
   5.434224e+01  -8.598113e-01
   4.303615e+01  -1.161924e+01
  -4.438559e+01  -1.993237e+00
