
 $NMID
 id='ANONYMOUS ', fmtdat='(2E16.6)'
 volume=1.0
 tramp=1.0
 $END
  -3.702390e+03  -2.324681e+02
  -2.035430e+03  -2.505764e+03
   8.897207e+02  -2.622428e+03
   2.026384e+03  -9.322946e+02
   9.678238e+02   4.321456e+02
  -4.351516e+02   3.576450e+02
  -6.675906e+02  -4.195567e+02
   5.258658e+01  -9.355720e+02
   8.099655e+02  -6.817946e+02
   8.285688e+02   1.375136e+02
   3.331172e+02   7.864432e+02
  -2.775843e+02   7.036536e+02
  -5.161155e+02   1.197563e+02
  -2.707211e+02  -6.925081e+02
   2.991259e+02  -6.758213e+02
   5.251211e+02  -4.488080e+01
   2.414013e+02   6.450263e+02
  -2.389705e+02   6.767153e+02
  -5.745398e+02   1.554804e+02
  -4.270060e+02  -3.271719e+02
  -3.761199e+01  -4.047703e+02
   2.102778e+02  -2.575582e+02
   1.428851e+02  -7.431689e+01
  -1.356800e+02   2.783236e+01
  -3.438779e+02  -1.576080e+02
  -1.220302e+02  -4.454093e+02
   5.174529e+02  -3.843235e+02
   7.811723e+02   9.716418e+01
   4.243070e+02   5.800446e+02
  -4.116951e+02   4.017292e+02
  -7.092901e+02  -9.172353e+01
  -2.683827e+02  -4.556979e+02
   2.908555e+02  -4.670560e+02
   5.535451e+02  -1.671484e+02
   4.014381e+02   2.039521e+02
   3.498243e+01   4.158837e+02
  -1.155624e+02   2.149863e+02
  -8.122481e+01  -1.912454e+02
   2.663904e+02  -3.226082e+02
   3.610409e+02   1.639003e+02
   1.671816e+02   6.499517e+02
  -3.334787e+02   6.207928e+02
  -5.459970e+02  -7.656429e+00
  -2.116625e+02  -5.418107e+02
   2.441238e+02  -3.439702e+02
   2.912276e+02   2.994745e+02
  -1.105802e+02   5.308545e+02
  -5.167275e+02   1.291955e+02
  -5.607197e+02  -4.711514e+02
  -2.168488e+02  -6.140706e+02
   3.961176e+02  -2.676250e+02
   6.216985e+02   1.013208e+02
   3.426223e+02   4.014918e+02
  -1.630218e+02   3.118755e+02
  -4.162788e+02   4.420063e+01
  -1.844338e+02  -1.687749e+02
   8.943178e+01  -7.901181e+01
   6.554901e+01   1.172810e+02
  -1.742971e+02   1.058267e+02
  -3.162985e+02  -7.459277e+01
  -1.115496e+02  -2.576161e+02
   2.395162e+02  -2.406064e+02
   2.850072e+02  -1.218482e+02
   2.409691e+02   1.097410e+02
   1.381320e+01   2.915116e+02
  -2.493727e+02   3.136191e+02
  -2.946358e+02   1.483067e+02
  -2.497244e+02  -2.002588e+02
  -3.144691e+01  -4.103506e+02
   6.721710e+01  -4.037885e+02
   7.942391e+01  -1.734220e+02
   4.333841e+01  -2.852484e+01
   9.496257e+01  -8.477425e+01
   2.113911e+02  -1.371304e+02
   2.632788e+02   9.430491e+01
   1.259897e+02   2.798460e+02
  -1.136203e+02   2.690711e+02
  -2.262446e+02   1.203258e+00
  -1.435247e+02  -2.395333e+02
   8.278262e+01  -3.076825e+02
   2.804796e+02  -1.088103e+02
   3.274082e+02   1.516400e+02
   2.178781e+02   3.231826e+02
  -7.791835e+01   2.837907e+02
  -1.987152e+02   1.238666e+02
  -1.401103e+02   1.616877e+01
  -1.466703e+02   3.754211e+01
  -2.526545e+02   2.120332e+01
  -4.068045e+02  -1.155963e+02
  -3.368663e+02  -2.691536e+02
   1.276443e+01  -4.564375e+02
   3.141348e+02  -4.136837e+02
   4.976201e+02  -2.296779e+02
   3.597175e+02   9.000069e+01
   5.673110e+01   3.254421e+02
  -1.277021e+02   2.527312e+02
  -4.331316e+01   4.982414e+01
   1.457925e+02  -9.282344e+01
   1.555498e+02   4.676216e+01
   1.796291e+01   2.070699e+02
  -1.625562e+02   1.586945e+02
  -1.627159e+02  -6.943897e+01
   4.298568e+01  -1.604133e+02
   2.130314e+02  -4.296291e+01
   1.895694e+02   2.633427e+02
  -8.659408e+01   3.570398e+02
  -2.381103e+02   1.991161e+02
  -3.218074e+02  -6.296591e+01
  -2.361683e+02  -2.633283e+02
  -9.300814e+01  -2.823068e+02
   1.350470e+02  -1.921214e+02
   2.172434e+02  -5.405947e+01
   7.927122e+01  -1.324949e+01
  -4.294473e+01  -1.508281e+01
   2.631586e+01  -1.940817e+02
   1.289953e+02  -1.277336e+02
   2.176042e+02   7.758192e+01
   2.515159e+01   3.411700e+01
  -9.202795e+01   2.450499e+01
  -2.367351e+01  -6.974363e+01
   1.072582e+02  -5.108144e+01
   2.910913e+02  -1.011503e+00
   2.448540e+02   1.842254e+02
   2.496134e+01   2.670122e+02
  -1.934116e+02   2.319554e+02
  -2.841073e+02   1.036194e+02
  -1.481358e+02  -4.396020e+01
   3.908712e+01  -1.095992e+02
   9.405343e+01  -9.835837e+00
  -4.320243e+01   6.726096e+01
  -1.680114e+02   2.412761e+01
  -2.277513e+02  -8.864134e+01
  -1.027884e+02  -1.853156e+02
   9.472182e+01  -1.517503e+02
   1.389294e+02  -4.713748e+01
   6.529254e+01   1.395965e+01
  -1.553295e+01   1.848263e+00
  -4.611597e+01  -5.336205e+01
   7.996251e+01  -1.382649e+02
   1.562346e+02   1.269518e+01
   2.017985e+02   1.203363e+02
  -8.401617e+00   2.273971e+02
  -1.410573e+02   1.274069e+02
  -1.725195e+02  -2.866567e+01
  -2.398742e+01  -1.249626e+02
   1.093487e+02  -1.171189e+02
   7.117533e+01  -1.462966e+01
  -4.281469e+01   1.588627e+01
  -5.641641e+01  -4.300951e+01
   8.225934e+00  -2.621962e+01
   1.036194e+02  -3.424907e+00
   9.716077e+01   7.519978e+01
  -3.269994e+01   1.562348e+02
  -1.210140e+02   1.392136e+02
  -2.200376e+02   4.010193e+01
  -1.417968e+02  -1.585171e+02
  -5.974197e+01  -1.966996e+02
   1.600718e+02  -1.826206e+02
   1.504195e+02  -4.019987e+01
   1.052807e+02   6.373497e+01
   2.112268e+01   2.149006e+01
   3.678673e+01  -1.493015e+01
   3.248058e+01  -2.274161e+01
   6.798313e+01   5.247615e+01
  -4.984903e+01   9.565575e+01
  -9.855957e+01   8.870929e+01
  -1.046562e+02  -4.315311e+01
   1.575212e+01  -1.365666e+02
   1.314927e+02  -7.657569e+01
   2.095719e+02   2.950944e+01
   1.246844e+02   2.159615e+02
  -1.086577e+02   2.586104e+02
  -3.018388e+02   7.835253e+01
  -2.603862e+02  -1.073549e+02
  -9.206208e+01  -2.205954e+02
   7.905723e+01  -1.489373e+02
   1.456160e+02  -9.407519e+01
   5.808371e+01  -8.607642e+01
   3.175716e+01  -6.799730e+01
   7.960182e+01  -8.426658e+01
   1.076733e+02   2.676730e+01
   1.058288e+02   1.514313e+02
   2.387346e+00   2.481238e+02
  -8.202071e+01   2.098861e+02
  -2.051233e+02   3.135763e+01
  -1.408492e+02  -1.358702e+02
  -2.342290e+01  -1.566496e+02
   6.579277e+01  -6.700826e+01
   4.514608e+01  -1.481181e+01
   3.886053e+00   1.819262e+01
  -3.190277e+01   3.468067e+00
   2.951626e+01   1.319281e+00
   3.862260e+01   2.700356e+01
   4.636482e+01   3.225557e+01
  -6.447108e+01   6.688167e+01
  -1.927522e+02   2.155388e+01
  -1.338270e+02  -8.703942e+01
  -3.936536e+01  -6.583310e+01
   1.645902e+02  -1.103110e+02
   1.110347e+02   4.761860e+00
   2.457986e+01   3.934513e+01
  -9.215885e+01   3.366264e+01
  -9.010816e+01  -1.153467e+01
   1.028841e+01  -6.127276e+01
   8.386362e+01  -7.136118e+01
   5.541971e+01  -5.231507e+00
   4.932952e+01   4.137706e+01
   5.428037e+01   7.807077e+01
   9.122280e+01   5.793812e+01
   2.248945e+01  -2.579682e+01
   1.362384e+01   6.576178e+01
  -7.690458e+01   1.110554e+02
  -1.216688e+02   1.062393e+02
  -1.954901e+02   2.575931e+01
  -1.189024e+02  -7.637559e+01
  -2.284430e+01  -1.350689e+02
   9.438534e+01  -4.769034e+01
   4.565785e+01   1.400836e+01
  -9.186510e+01   2.083965e+01
  -1.480195e+02  -8.019790e+01
  -5.256618e+01  -1.045646e+02
   8.056264e+01  -8.752353e+01
   2.035422e+02  -3.284193e+01
   1.991391e+02  -1.140005e+01
   3.053969e+01   9.936724e+01
  -7.568711e+01   6.290263e+01
  -3.876247e+01  -4.176191e+00
   5.961274e+01  -1.980577e+01
   9.372116e+01   5.773003e+01
   4.063120e+01   1.124693e+02
  -1.191614e+02   1.765176e+02
  -1.943389e+02   5.253621e+01
  -1.156654e+02  -1.804614e+02
  -2.202128e+01  -1.644109e+02
   1.170824e+02  -1.632695e+02
   1.004409e+02   6.163037e+01
   5.150192e+01   8.710983e+01
  -5.745540e+01   7.599833e+01
  -6.377388e+01  -1.400921e+01
  -5.757419e+01  -5.862450e+01
  -4.305024e+01  -3.218147e+01
   3.413401e+01   5.241250e+01
  -6.133132e+01  -2.920613e+01
  -4.929599e+01  -1.135946e+02
  -5.247853e+01  -1.182265e+02
   5.640153e+01  -5.772346e+01
   1.083446e+02   4.217057e+01
   7.615511e+01   1.113773e+02
   1.343759e+01   5.137682e+01
  -9.920083e+01   6.224673e+01
  -7.963273e+01  -1.150766e+01
   3.455570e+01  -3.105235e-01
   2.232264e+01  -1.504897e+01
   1.763225e+01   8.115835e+00
  -3.043667e+01  -1.009626e+01
  -2.944987e+01   2.161132e+01
   4.038173e+01   5.134803e+01
   7.292788e+01   1.550661e+01
   3.371542e+01   8.365175e+01
  -1.703288e+02   7.502735e+01
  -1.933477e+02   3.081284e+01
  -1.394949e+02  -2.991720e+01
  -1.819335e+01  -1.489354e+02
   9.013879e+01  -1.114388e+02
   1.324028e+02  -8.946512e+01
   1.044009e+02   4.732204e+01
   2.019113e+01   3.831749e+01
  -2.087218e+01   1.592413e+01
  -3.721726e+01  -5.864360e+00
  -7.328147e+00   4.986735e+01
   2.515126e+01   4.346925e+01
  -1.691002e+01   5.987685e+01
  -7.941401e+01  -2.672781e+01
  -7.046890e+01  -8.099049e+01
   2.343257e+01  -1.243177e+02
   8.147288e+01  -3.950501e+01
   1.275401e+02   1.080106e+02
   5.046457e+01   1.304901e+02
  -7.504698e+01   4.057109e+01
  -5.346603e+01  -4.143995e+01
  -6.818027e+01  -7.042500e+01
   4.592895e+01  -8.329382e+01
   2.084690e+01  -3.049509e+01
   8.842273e-01   1.412039e+01
  -2.436952e+01   3.026690e+01
   1.863617e+00  -5.599399e+01
   4.318884e+01  -6.267739e+01
   1.335098e+02  -3.574485e+01
   8.844424e+01   5.139820e+01
  -3.611946e+01   5.542079e+01
  -8.049127e+01   8.740676e+01
  -4.134979e+01   1.862897e+01
  -6.161645e+00  -6.265885e+01
   3.450153e+01  -8.217568e+01
   7.954169e+01   4.343040e+01
   3.844242e+01   3.843619e+01
  -6.535659e+01   9.298983e+00
  -1.462706e+01  -1.986200e+01
  -7.621474e+01  -9.585697e+00
  -2.078984e+01  -5.627067e+01
  -8.482514e+00   1.198892e+01
   2.366827e+00   1.760350e+01
  -1.323205e+00   2.271025e+00
   7.239312e+00  -6.392897e+01
   8.912838e+01   5.557214e+00
  -6.866458e+00   5.283589e+01
  -4.478419e+01   5.900929e+01
  -1.077329e+01   1.074464e+01
  -3.178381e+01  -2.831842e+01
   1.064630e+01  -9.177151e+01
   5.179686e+01  -3.240008e+01
   1.438018e+02   9.547338e+00
   7.600389e+01   1.703689e+01
  -5.679813e+01   3.660667e+01
  -3.719070e+01   2.901559e+01
  -5.656250e+01   4.833606e+01
   8.015897e+00   6.235209e+00
   4.216855e+01   1.177136e+01
  -6.007186e+01  -5.295266e+01
  -1.041185e+02   2.514627e+01
