
 $NMID
 id='ANONYMOUS ', fmtdat='(2E16.6)'
 volume=1.0
 tramp=1.0
 $END
   2.914838e+03  -2.157805e+02
   1.957234e+03   1.746806e+03
  -3.788869e+02   2.389800e+03
  -1.577772e+03   1.025525e+03
  -9.238227e+02  -3.977302e+02
   3.018904e+02  -3.528101e+02
   5.973305e+02   2.406444e+02
  -5.052400e+01   7.968810e+02
  -7.140265e+02   6.567412e+02
  -7.520609e+02  -8.696486e+01
  -3.340303e+02  -6.739356e+02
   1.789275e+02  -7.116321e+02
   4.207076e+02  -1.135737e+02
   2.480485e+02   5.469061e+02
  -2.212713e+02   5.499192e+02
  -4.890415e+02   5.857602e+01
  -2.782491e+02  -5.524988e+02
   2.943674e+02  -5.866787e+02
   5.174245e+02  -1.520316e+02
   3.898933e+02   3.232432e+02
   2.990750e+01   3.973136e+02
  -1.253315e+02   2.446962e+02
  -6.878401e+01   5.089529e+01
   1.707803e+02   3.808765e+01
   2.498830e+02   1.905928e+02
   4.235019e+01   3.670789e+02
  -3.864720e+02   2.026173e+02
  -5.908797e+02  -1.946579e+02
  -2.361720e+02  -4.082125e+02
   2.741964e+02  -2.515495e+02
   5.057955e+02   7.245239e+01
   1.627002e+02   3.806300e+02
  -2.930120e+02   3.509011e+02
  -4.506888e+02   6.460408e+01
  -2.724158e+02  -2.136543e+02
   7.944097e+00  -3.548945e+02
   5.295206e+01  -2.152836e+02
   3.576554e+01   1.440796e+02
  -1.908664e+02   2.371762e+02
  -3.482602e+02  -7.339798e+01
  -1.062685e+02  -4.677516e+02
   2.498032e+02  -5.282417e+02
   4.456943e+02   4.415962e+01
   1.775987e+02   4.380532e+02
  -2.174182e+02   1.889246e+02
  -2.632789e+02  -3.301198e+02
   9.886216e+01  -4.405315e+02
   5.212084e+02  -5.028904e+01
   5.087542e+02   3.899264e+02
   1.552382e+02   5.557377e+02
  -3.174754e+02   2.573477e+02
  -5.399662e+02  -6.602466e+01
  -3.222814e+02  -3.619984e+02
   1.286670e+02  -2.892031e+02
   3.354888e+02  -7.132956e+01
   1.931110e+02   6.050507e+01
  -3.185053e+01   4.455598e+01
  -8.523218e+01  -1.342437e+02
   1.557538e+02  -1.591105e+02
   2.522177e+02   9.466946e+01
   7.008375e+01   2.657352e+02
  -2.235876e+02   1.984262e+02
  -3.303282e+02   9.302806e+01
  -2.047660e+02  -1.240249e+02
  -5.970887e+00  -3.144941e+02
   2.570256e+02  -3.233629e+02
   3.718586e+02  -1.695414e+02
   1.949125e+02   1.572542e+02
   2.645473e+01   3.513692e+02
  -1.186529e+02   3.462638e+02
  -7.275506e+01   1.341707e+02
  -8.435654e+01   4.092617e+01
  -8.513950e+01   7.648760e+01
  -1.983027e+02   7.465640e+01
  -2.412129e+02  -1.199915e+02
  -5.435076e+01  -2.633868e+02
   8.468381e+01  -1.698198e+02
   1.903423e+02   2.243008e+01
   1.400835e+02   2.558747e+02
  -7.400880e+01   2.662302e+02
  -2.435565e+02   4.994086e+01
  -3.206736e+02  -1.748487e+02
  -1.630073e+02  -2.699212e+02
   9.660030e+01  -2.402951e+02
   1.956388e+02  -1.351858e+02
   1.815209e+02  -1.840769e+01
   1.700054e+02  -3.323837e+01
   2.093008e+02  -1.981282e+01
   3.939200e+02   1.312972e+02
   3.134957e+02   3.057842e+02
  -3.605804e+01   4.293141e+02
  -3.435790e+02   3.432933e+02
  -4.287585e+02   9.432643e+01
  -2.796677e+02  -1.360939e+02
  -5.241327e+01  -2.662748e+02
   1.254483e+02  -1.992223e+02
   5.366499e+01  -3.467796e+01
  -1.130310e+02   6.048849e+01
  -1.560100e+02  -1.483081e+01
  -4.452139e+00  -1.463323e+02
   1.115059e+02  -8.025317e+01
   7.720512e+01   3.185620e+01
  -1.406469e+01   1.482774e+02
  -1.647762e+02  -1.742087e+01
  -1.008853e+02  -2.944981e+02
   8.203867e+01  -3.303252e+02
   2.402952e+02  -1.817575e+02
   3.258320e+02   1.132320e+02
   2.048530e+02   2.227522e+02
   3.645999e+01   2.392106e+02
  -1.153317e+02   1.600976e+02
  -1.553831e+02  -2.498806e+01
  -9.146899e+01   3.342282e+00
   3.242384e+01   2.450325e+01
   2.438964e+01   7.744413e+01
  -9.978832e+01   4.475981e+01
  -1.597791e+02  -9.301309e+00
  -4.160335e+01  -3.799696e+01
   9.070731e+01   5.303894e-01
   2.269440e+01   8.173474e+01
  -1.175285e+02   8.070614e+01
  -2.877123e+02  -3.333342e+01
  -2.561611e+02  -1.488093e+02
   2.608064e+00  -2.186462e+02
   2.222086e+02  -2.328893e+02
   2.460075e+02  -8.094841e+01
   1.258349e+02   1.410568e+01
  -2.228817e+01   7.452210e+01
  -4.273014e+01  -8.226395e+00
   7.555141e+01  -8.830621e+01
   1.719494e+02  -5.840971e+01
   1.569870e+02   1.179309e+02
   2.502796e+01   2.034123e+02
  -1.049933e+02   1.720248e+02
  -1.404198e+02  -1.475537e+00
  -3.541127e+01   1.870671e+01
   1.152693e+01   2.887288e+01
  -1.342911e+01   1.307124e+02
  -9.645025e+01   9.694497e+01
  -1.929397e+02  -1.188790e+01
  -1.687266e+02  -1.811735e+02
   1.443175e+01  -2.248486e+02
   1.392660e+02  -1.065138e+02
   1.281355e+02  -5.324267e+00
   6.703092e+01   1.123529e+02
  -8.313388e+01   1.304125e+02
  -8.428059e+01  -2.543972e+01
  -1.906328e+01  -2.942567e+01
   9.420141e+00   2.934839e+00
   2.011160e+01   6.280816e+01
  -5.060824e+01   2.363056e+01
  -6.685548e+01  -7.697757e+01
  -1.649097e+01  -1.579809e+02
   1.376490e+02  -1.556481e+02
   2.247263e+02   1.466673e+00
   1.960699e+02   1.477821e+02
   2.473456e+01   2.080276e+02
  -9.841719e+01   1.270753e+02
  -1.024943e+02   8.295002e+00
  -6.967685e+01  -8.513179e+01
  -1.387547e+01   2.281740e+01
  -3.483978e+01   2.997031e+01
  -6.591573e+01   2.448506e+01
  -3.762617e+01  -1.526998e+01
   2.618045e+01  -1.024978e+02
   1.286154e+02  -4.194294e+01
   8.606451e+01   4.462592e+01
  -2.825252e+01   1.136857e+02
  -1.594590e+02   9.012097e+01
  -1.962725e+02  -8.575612e+01
  -1.023374e+02  -1.613665e+02
   8.295708e+01  -1.950972e+02
   2.390223e+02  -5.847808e+01
   1.909391e+02   1.399799e+02
   8.713844e+01   2.090387e+02
  -9.396714e+01   1.374147e+02
  -1.155961e+02   8.258718e+01
  -7.823400e+01   4.804153e+01
  -5.487994e+01   5.060740e+01
  -9.604956e+01   6.963847e+01
  -8.730358e+01  -1.819307e+01
  -7.662563e+01  -1.707131e+02
  -1.588515e+01  -2.201593e+02
   1.177914e+02  -1.775327e+02
   1.456001e+02   1.014365e-01
   6.300506e+01   1.165882e+02
  -8.019007e+00   1.282771e+02
  -6.407824e+01   1.120658e+02
  -3.241213e+01   5.958811e-01
  -4.184310e+00  -7.003339e+01
   1.684207e+01  -2.241964e+01
  -8.353829e+01  -5.190179e+00
  -5.311170e+01  -3.161388e+01
  -3.898749e+01  -1.915892e+01
   6.721294e+01  -3.486855e+01
   1.731039e+02  -5.314458e+00
   8.095192e+01   5.557582e+01
  -8.539090e+00   8.578654e+01
  -1.377706e+02   2.014040e+01
  -1.093151e+02  -1.019066e+00
  -3.532518e+01  -4.676799e+01
   6.346375e+00  -2.897523e+01
   6.803555e+01   2.521951e+01
   1.107687e+01   9.295265e+01
  -1.561578e+01   5.300863e+01
   9.342526e+00   4.072260e-02
  -7.911174e+01  -7.939186e+01
  -3.633575e+00  -8.297674e+01
  -7.492732e+01  -1.710092e+01
  -8.327066e+01   1.463394e-01
  -2.073216e+01  -1.155890e+02
   5.424771e+01  -1.485312e+02
   9.948884e+01  -1.430001e+02
   1.536875e+02  -3.601070e+01
   1.018108e+02   8.906441e+01
  -9.986123e+00   1.291379e+02
  -7.814923e+01   1.020576e+01
  -4.863662e+01  -3.765622e+01
   7.262605e+01   1.388262e+01
   8.942668e+01   3.405472e+01
   6.327849e+01   4.890075e+01
  -8.702072e+01   1.028863e+02
  -1.814603e+02   4.476346e+01
  -1.733912e+02  -5.204488e+01
  -3.061822e+01  -5.572688e+01
   7.456726e+01  -3.803191e+01
   3.091745e+01  -4.414034e+01
  -3.056898e+01   2.452207e+01
  -1.043575e+02  -2.119460e+01
   2.531976e+00  -1.095699e+02
   6.584810e+01  -1.234470e+02
   1.019085e+02  -3.875492e+01
   6.593509e+01   7.828970e+01
   1.276682e+01   1.476632e+02
  -1.236408e+02   7.989698e+01
  -9.385983e+01  -1.732665e+01
  -5.826979e+01  -9.019360e+01
   3.328651e+01  -6.786250e+01
   1.752179e+01  -1.673130e+01
   1.246627e+01  -4.366804e+00
   4.233730e+01   2.420524e+01
   1.600828e+01  -2.509946e+01
   4.483972e+01   3.758092e+01
   7.367701e+01   1.041886e+02
   1.553486e+01   6.629207e+01
  -6.908903e+01   2.976902e+01
  -1.611652e+02  -3.227673e+01
  -1.412381e+02  -1.103103e+02
   1.549581e+01  -4.559880e+01
   6.438330e+01  -1.791360e+01
   4.944486e+01   2.386470e+01
  -6.109219e+00   1.780614e+01
  -5.795524e+01   4.410638e+00
  -4.274307e+01   4.133521e+01
  -5.300366e+00  -2.809433e+01
  -7.778377e+00  -2.464205e+01
  -5.913303e+01  -8.833965e+00
  -7.265693e+01   6.144920e+00
   6.868024e+00  -4.202604e+01
   8.425951e+01  -1.075061e+02
   1.592565e+02  -5.336124e+01
   1.322825e+02   1.026082e+02
   5.317577e+00   1.775239e+02
  -8.611138e+01   1.870662e+02
  -1.383554e+02   6.466783e+01
  -7.674016e+01  -4.459744e+01
  -2.757929e+01  -5.932843e+01
   4.572564e+01  -5.519819e+01
  -1.742398e+01   7.947490e+00
  -2.838992e+01  -7.096230e+01
   3.305027e+01  -9.908897e+01
   3.756529e+01  -6.622442e+01
   5.724090e+01  -2.089526e+00
   3.177977e+01   1.460972e+02
   1.620325e+01   8.941115e+01
  -9.165590e+01   3.148172e+01
  -1.070295e+02  -8.169653e+01
   1.411381e+01  -7.261265e+01
   3.479365e+01  -5.884655e+01
   1.329972e+02   1.470791e+01
   2.969466e+01   9.154196e+01
  -1.909821e+01   4.183201e+01
  -3.675361e+01   2.260619e+01
   2.533314e+01  -3.949197e+01
   8.157693e+01  -8.497611e+00
   1.415735e+01   7.742545e+00
  -8.406573e+01   4.626198e+01
  -1.264544e+02   2.048548e+01
  -7.692927e+01  -2.890015e+01
   1.447472e+01  -6.785448e+01
   6.710382e+01  -5.014805e+01
   2.334073e+01   5.214220e+00
  -4.027042e+01   8.996199e+01
  -1.029326e+01   1.354297e+00
  -3.744807e+01  -2.913662e+00
  -1.195736e+01  -3.073398e+01
   1.429347e+01  -5.445893e+01
   2.023219e+01   3.118275e+01
   6.378733e+01   1.667195e+01
   6.513886e+01   3.080495e+00
  -2.319409e+01  -3.925449e+01
  -6.659366e+00  -3.115068e+01
  -3.067864e+01   2.640433e+01
  -3.502845e+01   3.019979e+01
  -1.836304e+01   2.626856e+01
   7.641825e+00  -3.318769e+00
  -1.795915e+00  -3.494119e+01
   7.064499e+01  -6.017084e+00
   2.732659e+01   6.329950e+01
   1.036282e+01   4.646310e+01
  -6.142983e+01  -2.639657e+00
  -6.222569e+01  -1.275811e+01
  -2.534571e+01  -2.597255e+01
   5.461659e+01  -5.979412e+01
   8.213624e+01   9.202757e+00
   2.420331e+01  -2.396391e+01
  -6.388859e+01   2.068301e+01
  -6.907164e+01  -1.792818e+01
   4.067370e+01  -9.704610e-01
   7.148938e+01   1.348369e+01
