
 $NMID
 id='ANONYMOUS ', fmtdat='(2E16.6)'
 volume=1.0
 tramp=1.0
 $END
  -4.535532e+03   1.302002e+02
  -2.368402e+03  -2.828417e+03
   8.176332e+02  -3.059658e+03
   2.332525e+03  -1.047016e+03
   1.158861e+03   7.671679e+02
  -6.953270e+02   5.737890e+02
  -9.841517e+02  -5.624681e+02
   1.070259e+02  -1.109595e+03
   8.953407e+02  -8.391820e+02
   1.034372e+03   1.283377e+02
   4.317167e+02   9.880979e+02
  -3.890645e+02   9.978691e+02
  -7.684977e+02   7.818422e+01
  -4.121925e+02  -8.644797e+02
   3.729736e+02  -7.742096e+02
   7.414913e+02   3.286105e+01
   3.010555e+02   7.935706e+02
  -3.974853e+02   6.884191e+02
  -6.092361e+02   1.407461e+02
  -3.891498e+02  -4.314231e+02
   3.899170e+01  -4.788522e+02
   3.001596e+02  -2.668535e+02
   2.225543e+02  -1.900731e+01
  -1.670881e+02   1.358100e+02
  -4.065525e+02  -8.476377e+01
  -1.794132e+02  -4.767875e+02
   4.689923e+02  -3.727095e+02
   9.291984e+02   6.052440e+01
   4.670128e+02   6.115320e+02
  -4.431883e+02   5.232486e+02
  -7.782654e+02  -4.730159e+01
  -3.693391e+02  -5.687358e+02
   3.091277e+02  -5.328885e+02
   6.354421e+02  -2.017799e+02
   4.160579e+02   2.766006e+02
   2.077394e+01   4.924687e+02
  -2.517314e+02   3.067548e+02
  -1.694610e+02  -2.823177e+02
   1.903264e+02  -4.341536e+02
   5.122935e+02   6.284149e+01
   2.836911e+02   7.315209e+02
  -3.977468e+02   8.188721e+02
  -6.745872e+02  -4.888275e+01
  -2.572700e+02  -6.238567e+02
   3.761613e+02  -3.763517e+02
   3.999831e+02   3.639126e+02
  -1.363456e+02   5.967032e+02
  -5.759157e+02   1.593569e+02
  -6.575297e+02  -3.928406e+02
  -1.331364e+02  -5.743308e+02
   3.735656e+02  -3.398010e+02
   7.146728e+02   5.252868e+01
   3.957391e+02   3.995941e+02
  -1.565029e+02   3.954890e+02
  -4.910223e+02   6.764707e+01
  -2.601167e+02  -2.213839e+02
   1.484335e+02  -1.016488e+02
   1.374090e+02   1.441997e+02
  -1.739371e+02   2.316151e+02
  -4.196943e+02  -8.988384e+01
  -1.162497e+02  -3.291080e+02
   2.279442e+02  -3.238259e+02
   3.523017e+02  -1.132831e+02
   1.947076e+02   9.790090e+01
   2.744524e+01   2.311726e+02
  -2.041091e+02   3.029648e+02
  -4.301882e+02   2.584212e+02
  -3.168981e+02  -1.159752e+02
  -9.943850e+01  -4.463053e+02
   1.397178e+02  -4.175720e+02
   1.560585e+02  -1.540331e+02
   5.648883e+01   5.757269e+01
   7.114982e+01  -8.518905e+01
   1.379951e+02  -1.588372e+02
   2.487016e+02   9.162064e+01
   1.698928e+02   2.422670e+02
  -7.323596e+01   2.530523e+02
  -2.736865e+02   6.898797e+00
  -1.870883e+02  -2.941424e+02
  -3.079212e+01  -2.729605e+02
   2.499935e+02  -1.541277e+02
   4.042609e+02   1.803105e+02
   2.293062e+02   3.465841e+02
  -1.025886e+02   2.649405e+02
  -2.950759e+02   7.903067e+01
  -1.740831e+02  -1.045024e+01
  -1.082619e+02   3.918116e+01
  -2.181079e+02   4.592501e+01
  -4.170194e+02  -7.715252e+01
  -4.057154e+02  -2.758950e+02
  -1.145964e+01  -5.094911e+02
   3.453864e+02  -4.395096e+02
   4.710917e+02  -1.905382e+02
   3.359408e+02   9.895503e+01
   5.664026e+01   3.522402e+02
  -9.961513e+01   3.097451e+02
  -6.730926e+01   4.301091e+01
   1.126791e+02  -1.030714e+02
   2.128630e+02   1.505233e+01
   5.726504e+01   2.290837e+02
  -1.665758e+02   1.847435e+02
  -1.858675e+02  -9.496329e+01
  -1.588916e+01  -2.048751e+02
   2.342901e+02  -4.025966e+01
   1.554440e+02   2.682698e+02
  -8.875864e+01   3.330147e+02
  -2.945127e+02   2.237994e+02
  -3.249464e+02  -8.574460e+01
  -2.494894e+02  -2.153554e+02
  -8.473216e+01  -2.683000e+02
   9.085759e+01  -2.070417e+02
   2.181655e+02  -1.005348e+01
   3.136913e+01   7.719335e+01
  -3.420615e+01  -2.302392e+01
  -3.531704e+01  -1.298689e+02
   1.619981e+02  -1.105750e+02
   1.665543e+02  -1.672753e+01
   4.816095e+01   1.035530e+02
  -9.324292e+01   1.777647e+01
  -8.165510e+01  -5.977381e+01
   8.055120e+01  -8.490464e+01
   2.985301e+02  -2.847056e+01
   3.112116e+02   1.150759e+02
   4.272755e+01   2.622122e+02
  -1.829202e+02   2.828129e+02
  -3.155970e+02   1.186314e+02
  -2.142158e+02  -9.815817e+01
   5.435062e+01  -1.361871e+02
   1.413509e+02  -2.709914e+01
  -2.488166e+01   1.273598e+02
  -2.198056e+02   3.545307e+01
  -1.864536e+02  -1.369713e+02
  -8.348962e+00  -2.330846e+02
   9.135390e+01  -1.383631e+02
   1.470309e+02  -4.447581e+01
   6.090981e+01   6.193944e+01
  -6.083948e+01  -2.819475e+01
  -1.189720e+00  -1.011539e+02
   1.130706e+02  -9.719446e+01
   1.843362e+02  -2.154100e+01
   1.726518e+02   8.829541e+01
   1.060769e+01   2.283449e+02
  -2.233015e+02   1.804562e+02
  -1.939774e+02   2.235716e+01
  -7.182475e+01  -9.030702e+01
   7.038549e+01  -1.023611e+02
   5.592763e+01  -5.307140e+01
   4.261492e+01   1.156536e+01
  -9.173671e+00  -4.436011e-01
   2.975238e+01   4.015963e+01
   6.692680e+01   4.469932e+01
   1.101746e+02   1.076491e+02
   1.765754e+00   1.544572e+02
  -1.112932e+02   1.448733e+02
  -2.860667e+02   3.986442e+01
  -2.247731e+02  -1.974839e+02
  -6.080481e+01  -2.737834e+02
   1.068607e+02  -1.741828e+02
   1.293310e+02   6.826428e+00
   9.903707e+01   5.674013e+01
   4.601080e+01   6.867048e+01
   6.954832e+01  -2.873746e+01
   5.217364e+01  -9.804092e+00
   8.711822e+01   5.296439e+01
  -5.883953e+01   1.155683e+02
  -1.018379e+02   5.884962e+01
  -5.893694e+01  -4.604432e+01
   3.014783e+01  -1.393897e+02
   1.659901e+02  -1.240972e+02
   1.921659e+02   5.274389e+01
   1.211549e+02   1.791211e+02
  -1.538550e+02   2.334508e+02
  -2.755934e+02   6.342241e+01
  -2.621097e+02  -6.711141e+01
  -1.088793e+02  -1.924936e+02
   4.763840e+01  -1.606479e+02
   1.205911e+02  -6.748269e+01
   1.056627e+02  -3.693021e+01
   5.648625e+01  -3.125615e+01
   1.392901e+02  -5.421613e+01
   1.725651e+02   3.266700e+01
   1.169004e+02   1.137452e+02
   4.645639e+01   2.433632e+02
  -1.091671e+02   1.571217e+02
  -2.249107e+02   1.912398e+01
  -1.876625e+02  -1.264233e+02
  -2.434417e+01  -1.598743e+02
   1.640465e+01  -7.698582e+01
   8.867875e+01   3.278373e+01
   3.600031e+01   5.908160e+01
   5.524035e+00   3.607320e+01
   3.566663e+01   1.814880e+01
   3.605975e+01   2.043586e+01
   5.769706e+01   6.666066e+00
  -5.451744e+01   2.897421e+01
  -1.525316e+02   1.042232e+01
  -1.410898e+02  -4.176542e+01
   3.173951e+01  -6.347056e+01
   1.798702e+02  -1.173108e+02
   1.626313e+02   5.587665e+00
   5.665884e+01   4.523723e+01
  -8.128990e+01   3.234232e+01
  -1.105823e+02  -4.257469e+01
   3.769124e+01  -5.961887e+01
   7.002215e+01   8.021579e+00
   5.073967e+01   2.992951e+01
   4.442455e+01   7.026260e+01
   6.516895e+01   4.308456e+01
   5.131004e+01   2.083279e+01
   6.625844e+01  -6.416463e+00
   3.016051e+01   1.120062e+02
  -8.253619e+01   1.802863e+02
  -1.517349e+02   1.389258e+02
  -1.612497e+02   2.095662e+01
  -8.518847e+01  -8.689235e+01
  -2.678514e+00  -1.328582e+02
   1.289767e+02  -7.554880e+01
   9.182383e+01   1.391970e+01
  -3.917110e+01   2.498085e+01
  -1.592542e+02  -4.061254e+01
  -8.283671e+01  -1.406415e+02
   1.023888e+02  -9.110130e+01
   1.883125e+02  -3.907562e+01
   1.735823e+02   3.767634e+01
   5.109491e+01   7.709831e+01
  -4.674867e+01   8.395246e+01
   8.770040e-01  -6.984531e-01
   5.751797e+01  -2.363048e+01
   7.576084e+01   2.788822e+01
   4.990341e+01   1.392094e+02
  -1.244478e+02   1.444628e+02
  -1.386590e+02   5.069052e+01
  -1.268260e+02  -1.219687e+02
   3.557419e+00  -1.720257e+02
   1.200284e+02  -1.548244e+02
   1.092709e+02   3.370052e+01
   7.333625e+01   1.279440e+02
   1.332162e+01   1.090006e+02
  -6.275750e+01  -2.949638e+01
  -8.780605e+01  -4.255384e+01
  -2.264323e+01  -1.640134e-01
  -1.151811e+01   7.156383e+00
   4.088241e+00  -6.809888e+01
  -7.262858e+01  -1.135890e+02
  -6.377441e+01  -1.118445e+02
   3.809365e+01  -9.102649e+00
   8.958066e+01   3.403926e+01
   1.158526e+02   6.816970e+01
   4.674964e+00   5.603844e+01
  -8.875470e+01   3.517361e+01
  -7.602006e+01   3.230445e+01
   1.685193e+01  -2.060689e+01
   4.203459e+01   1.678823e+01
   1.681224e+01  -5.365603e+01
  -1.456741e+01   2.027018e+01
   3.951688e+01   1.528380e+01
   1.078285e+02  -2.527167e+01
   8.746852e+01   3.300971e+01
  -2.711189e+00   9.102877e+01
  -1.109932e+02   1.190983e+02
  -2.476169e+02   6.426134e+01
  -1.738561e+02  -5.490664e+01
  -3.672569e+01  -1.665147e+02
   4.500374e+01  -1.368783e+02
   1.323078e+02  -2.065183e+01
   4.747615e+01   6.522963e+00
  -5.204509e+00   1.488091e+01
   1.146541e+01   1.731534e+00
   7.287210e+00   1.102477e+01
   7.834033e+01   3.341438e+01
  -4.817929e+00   1.266387e+02
  -5.534090e+01   7.080935e+01
  -5.605536e+01  -2.685946e+01
  -7.823790e+01  -1.252727e+02
  -7.831053e+00  -9.786250e+01
   8.943763e+01  -4.964818e+01
   1.389736e+02   4.799599e+01
   3.079224e+01   1.008318e+02
  -5.263084e+01   1.112639e+02
  -8.003565e+01   2.733273e+01
  -3.338687e+01  -3.881697e+01
   3.557364e+01  -3.938249e+01
   6.801579e+01  -1.934648e+01
  -2.974399e+01   1.504198e+01
  -3.235698e+01   6.754253e+00
   9.091984e+00   9.709135e-01
   6.544974e+01  -7.961169e+01
   1.285811e+02  -6.832545e+01
   9.790007e+01  -1.921148e+01
   7.666601e+00   9.314004e+01
  -4.341600e+01   5.111272e+01
  -9.037004e+01  -1.455462e+01
  -4.472812e+01  -1.000375e+02
   2.810036e+00  -4.030003e+01
   6.873721e+01  -4.109951e+01
   2.911394e+01   4.909518e+01
  -8.128166e+00   6.694433e+01
  -3.182403e+01  -1.313747e+01
  -4.248108e+01   8.948592e+00
  -9.967336e+00  -2.287506e+01
  -2.090102e+01   6.832431e+01
  -3.721474e+00   1.843045e+01
   1.865459e+01  -3.212319e+01
   4.658231e+01  -2.577911e+01
   3.940033e+01   9.194453e+00
   2.098311e+01   3.398696e+01
   1.039464e+01   7.951189e+01
  -7.690227e+01   8.167255e+01
  -5.085336e+01  -1.069641e+02
  -3.552639e+01  -6.464912e+01
   6.392008e+01  -3.755643e+01
   1.052362e+02   1.205885e+01
   7.578999e+01   3.025606e+01
  -6.343045e+01   7.435303e+00
  -7.804443e+01   3.511204e+01
  -2.643355e+01   1.051383e+01
   3.331238e+01  -1.711571e+01
   7.806844e+01  -1.622410e+01
  -1.346027e+01   4.341471e+01
  -4.378385e+01   3.049541e+01
