
 $NMID
 id='ANONYMOUS ', fmtdat='(2E16.6)'
 volume=1.0
 tramp=1.0
 $END
  -4.374243e+03   4.257747e+01
  -2.532748e+03  -2.513681e+03
   7.857487e+02  -3.004677e+03
   2.395145e+03  -1.124004e+03
   1.132536e+03   7.786926e+02
  -6.409282e+02   7.594517e+02
  -1.061220e+03  -4.517328e+02
  -5.570327e+00  -1.195512e+03
   9.572273e+02  -9.004381e+02
   1.087376e+03   1.349911e+02
   5.351113e+02   8.886148e+02
  -2.976436e+02   9.935318e+02
  -7.183380e+02   1.412902e+02
  -3.802533e+02  -7.990870e+02
   2.700693e+02  -8.246180e+02
   6.317893e+02  -1.997704e+01
   2.998262e+02   7.919877e+02
  -3.695354e+02   6.317536e+02
  -7.239899e+02   7.845788e+01
  -3.785751e+02  -4.214010e+02
  -2.254468e+01  -4.363700e+02
   2.285480e+02  -2.729213e+02
   2.064187e+02  -5.280001e+01
  -5.830197e+01   8.855077e+01
  -4.160970e+02  -1.593241e+02
  -2.331020e+02  -4.230089e+02
   4.745394e+02  -4.204749e+02
   8.865298e+02  -2.995243e+00
   4.251459e+02   5.359798e+02
  -3.883666e+02   4.922236e+02
  -7.423988e+02  -2.951055e+01
  -3.396608e+02  -5.149407e+02
   2.887749e+02  -5.023656e+02
   5.877587e+02  -1.814786e+02
   4.190758e+02   2.769898e+02
   9.645802e+01   5.068748e+02
  -2.120745e+02   3.055334e+02
  -1.816210e+02  -2.375482e+02
   1.441554e+02  -4.675348e+02
   4.796001e+02   2.428295e+00
   2.823253e+02   6.904596e+02
  -3.680104e+02   7.694864e+02
  -6.851978e+02   8.906847e+01
  -2.517098e+02  -6.494115e+02
   3.608552e+02  -3.031782e+02
   3.665785e+02   3.813610e+02
  -7.447320e+01   5.838649e+02
  -5.680775e+02   1.322724e+02
  -6.233231e+02  -4.061381e+02
  -1.652077e+02  -6.216962e+02
   4.360379e+02  -3.706477e+02
   6.793094e+02   8.402646e+01
   3.903426e+02   4.222799e+02
  -1.930584e+02   4.141340e+02
  -5.246352e+02   1.119247e+01
  -2.818052e+02  -2.450617e+02
   1.347374e+02  -1.669707e+02
   1.837628e+02   2.100601e+02
  -1.775627e+02   1.619481e+02
  -3.841954e+02  -3.419112e+01
  -1.812965e+02  -2.997934e+02
   2.265656e+02  -2.755821e+02
   3.886219e+02  -4.551972e+01
   2.020358e+02   5.522301e+01
  -1.028653e+02   1.897865e+02
  -2.297337e+02   3.379822e+02
  -3.273057e+02   2.238563e+02
  -3.318234e+02  -1.553684e+02
  -1.006693e+02  -4.953625e+02
   1.670559e+02  -4.613257e+02
   1.458251e+02  -1.381581e+02
   7.337950e+01   4.853726e+01
   6.247518e+01  -7.721330e+01
   2.301676e+02  -1.158333e+02
   2.707408e+02   5.643962e+01
   1.435272e+02   2.843629e+02
  -6.164417e+01   3.057125e+02
  -2.160930e+02   1.778851e+01
  -2.095230e+02  -2.773786e+02
   3.574623e+01  -3.083588e+02
   2.669484e+02  -1.248588e+02
   4.130554e+02   1.966637e+02
   1.819298e+02   3.037488e+02
  -8.790117e+01   3.590783e+02
  -2.550272e+02   8.822647e+01
  -1.938763e+02  -2.945656e+01
  -1.351606e+02   7.280030e+01
  -2.811491e+02   7.337824e+01
  -4.239374e+02  -1.108571e+02
  -3.409863e+02  -3.439375e+02
  -4.150813e+00  -4.297237e+02
   3.528962e+02  -4.665000e+02
   5.216600e+02  -2.148749e+02
   3.615498e+02   8.509227e+01
   7.716431e+01   2.947520e+02
  -8.892016e+01   3.018170e+02
  -1.094571e+02   5.172071e+01
   6.716070e+01  -9.375187e+01
   1.810573e+02  -1.602801e+01
   8.096505e+01   1.583428e+02
  -1.495577e+02   1.786070e+02
  -1.867648e+02  -4.874418e+01
  -2.744626e+01  -2.046586e+02
   2.183954e+02  -6.008927e+01
   2.052486e+02   2.644956e+02
  -5.348230e+01   3.773139e+02
  -2.092935e+02   1.785897e+02
  -3.386023e+02  -1.011227e+02
  -3.178716e+02  -2.678209e+02
  -1.100188e+02  -2.997370e+02
   1.138391e+02  -2.127774e+02
   1.633215e+02  -5.712755e+00
   7.495439e+01   8.556510e+01
  -5.631238e+01  -1.905083e+01
  -1.790662e+01  -9.092162e+01
   1.441257e+02  -9.442032e+01
   2.604249e+02  -1.025621e+01
   8.502567e+01   6.393050e+01
  -1.168222e+02  -2.049246e+01
  -9.846339e+01  -5.368529e+01
   1.474596e+02  -1.156596e+02
   2.793227e+02   5.206935e+00
   2.663169e+02   1.157555e+02
   6.725091e+01   2.430064e+02
  -1.756965e+02   3.038197e+02
  -3.366120e+02   1.251874e+02
  -1.651156e+02  -6.298166e+01
   3.722026e+01  -1.237437e+02
   8.128999e+01   2.718204e+01
  -3.708242e+01   1.327089e+02
  -2.113770e+02   8.436294e+01
  -2.464753e+02  -1.177946e+02
  -1.304842e+02  -2.445189e+02
   1.182746e+02  -1.855557e+02
   1.302177e+02  -2.181334e+01
   1.045730e+02   8.332272e+01
   1.694717e+01   2.145630e+01
  -1.415002e+01  -1.080393e+02
   9.798832e+01  -1.001995e+02
   2.180469e+02   2.628166e+01
   1.923735e+02   1.651515e+02
  -2.108037e+01   2.561608e+02
  -1.654964e+02   1.657730e+02
  -2.144497e+02  -3.210970e+01
  -8.138962e+01  -1.389718e+02
   6.090948e+01  -9.660578e+01
   7.038540e+01  -1.331139e+01
   2.898560e+01   3.506890e+01
  -2.406885e+01  -5.608574e-01
   5.300777e+01   5.935871e+01
   3.473951e+01   2.157810e+01
   1.225392e+02   9.222604e+01
   7.690860e+01   1.428499e+02
  -1.261321e+02   1.849517e+02
  -2.698483e+02   2.749590e+01
  -2.535069e+02  -1.737766e+02
  -5.224632e+01  -2.562862e+02
   1.296116e+02  -1.695453e+02
   1.442212e+02  -1.968367e+01
   7.437581e+01   7.473976e+01
   2.664262e+01   2.827971e+01
   6.704765e+01  -2.797507e+01
   1.313566e+02  -2.566273e+00
   5.336652e+01   3.052128e+01
  -2.041976e+01   5.854538e+01
  -1.027521e+02   3.081066e+01
  -8.163988e+01  -8.414109e+01
   3.287809e+01  -1.154074e+02
   1.448408e+02  -9.950383e+01
   1.946094e+02   2.810441e+01
   1.095507e+02   2.231292e+02
  -1.263174e+02   2.407914e+02
  -3.147330e+02   9.902819e+01
  -2.524411e+02  -7.379713e+01
  -1.210400e+02  -1.945100e+02
   1.012622e+01  -1.732313e+02
   1.138911e+02  -9.639045e+01
   1.280745e+02  -9.355195e+01
   7.982187e+01  -9.496510e+01
   7.468082e+01  -4.699411e+01
   1.117677e+02   2.157629e+01
   1.411362e+02   1.533197e+02
   7.097843e+00   2.451366e+02
  -8.390715e+01   1.526713e+02
  -1.965548e+02   5.317906e+01
  -1.555073e+02  -1.400473e+02
  -6.412875e+01  -1.809910e+02
   8.066127e+01  -8.947916e+01
   5.221800e+01   1.194947e+01
   3.845159e+01   2.366175e+01
   8.292960e+00   6.396206e+01
   4.671308e+01   3.971322e+00
   8.314347e+01  -2.780995e+00
   6.688582e+01   1.974656e+01
  -4.952014e+01   4.820761e+01
  -1.402514e+02   8.048503e-01
  -1.575957e+02  -5.470680e+01
  -1.367955e+01  -1.332546e+02
   8.596348e+01  -6.866936e+01
   1.429434e+02  -2.444567e+01
   2.261753e+01   2.919596e+01
  -3.167550e+01   6.308786e+00
  -4.227265e+01  -5.388276e+01
  -5.059320e+01  -1.071037e+02
   5.578319e+01  -5.035276e+01
   1.148783e+02  -7.066666e+00
   7.199551e+01   8.422443e+01
   3.422517e+01   5.230945e+01
   5.228896e+01   9.701032e+00
   1.205713e+02   2.688344e+01
   4.159124e+01   6.838894e+01
  -4.513974e+01   1.463413e+02
  -1.206310e+02   1.752275e+02
  -2.172286e+02   7.021672e+01
  -1.061988e+02  -8.389382e+01
  -1.928693e+01  -1.495773e+02
   9.115558e+01  -5.007912e+01
   1.989355e+01   3.561922e+00
  -6.366271e+01   3.571065e+01
  -1.354982e+02  -4.253062e+01
  -8.202955e+01  -7.781976e+01
   6.131409e+01  -1.145969e+02
   2.139142e+02  -4.215016e+01
   1.366613e+02   6.210326e+01
   6.662633e+01   1.116985e+02
  -1.092439e+02   4.279982e+01
  -2.665854e+01  -3.275151e+00
   2.392647e+01  -6.200325e+01
   6.006584e+01   5.225897e-01
   2.548298e+01   1.239430e+02
  -1.019098e+02   1.162526e+02
  -1.604334e+02   9.105535e+01
  -1.682502e+02  -1.115968e+02
  -1.773998e+01  -2.204164e+02
   1.021845e+02  -1.100247e+02
   1.126126e+02  -2.357361e+01
   6.522820e+01   1.030666e+02
   3.424195e+01   8.197830e+01
  -4.459121e+01  -1.741109e+01
  -3.763446e+01  -7.633390e+00
  -3.048807e+01  -3.564948e+01
  -8.605328e+00  -9.796667e+00
  -6.462968e+01  -4.578285e+01
  -2.207618e+01  -1.094763e+02
  -7.373293e+01  -9.567892e+01
   3.657880e+01  -2.237955e+01
   1.335308e+02   2.608741e+01
   1.386224e+02   1.087809e+02
   2.152892e+01   9.089114e+01
  -8.788612e+01   5.132397e+01
  -1.053919e+02   2.968038e+01
  -3.354974e+01  -2.245363e+01
   4.318448e+01   1.492799e+01
   4.790703e+01   1.234077e+01
  -2.321206e+01  -6.513842e+01
   1.682117e+01  -1.251716e+01
   1.284182e+02   8.481336e+00
   8.894093e+01   3.225612e+01
  -1.251006e+01   1.015394e+02
  -1.613646e+02   1.077280e+02
  -1.707701e+02   1.513109e+01
  -1.494685e+02  -6.894140e+01
  -5.268114e+01  -1.447378e+02
   7.308864e+01  -1.229566e+02
   1.352539e+02  -7.067260e+01
   9.376077e+01   2.928509e+01
   4.073099e+01   5.331773e+01
   2.440096e+00  -2.276542e+01
  -4.482302e+01   8.998918e+00
   1.507983e+01   4.939433e+01
   5.033726e+01   1.187546e+02
  -8.824385e+00   1.131607e+02
  -6.261449e+01   8.933374e+00
  -1.446826e+02  -1.391336e+02
  -3.157877e+01  -1.122036e+02
   7.100502e+01  -2.960987e+01
   1.218008e+02   8.158704e+01
   5.250497e+01   1.367791e+02
  -4.647291e+01   7.754903e+01
  -1.387946e+02   1.796966e+01
  -2.434229e+01  -3.512901e+01
   1.779145e+01  -7.496655e+01
   2.161866e+00  -7.564167e+01
  -7.651659e+01  -1.116915e+01
  -1.341974e+02   1.473833e+01
  -1.666808e+01  -9.838148e+01
   9.812824e+01  -8.123034e+01
   1.369682e+02  -8.598912e+01
   6.408804e+01   3.744257e+00
  -3.146928e+00   8.381297e+01
  -2.957659e+01   8.042787e+01
  -7.017411e+00   6.559548e+00
  -1.460229e+01  -3.169407e+01
   9.323351e+00  -4.351547e+01
   1.560456e+01   1.197048e+01
   3.078722e+01   5.782094e+01
   1.297580e+01   4.459423e+01
  -8.368940e+00  -1.375019e+01
  -5.687013e+01  -5.296549e+01
  -1.258914e+01   3.429781e+01
  -2.058202e+01  -5.231602e+00
   2.398873e+01  -1.523275e+01
   2.966450e+01  -5.529538e+01
   3.381862e+01  -5.702223e+01
   2.402422e+01   2.550254e+00
   1.327850e+01   6.111985e+01
  -3.222948e+00   5.954979e+01
  -4.702244e+01   3.826654e+01
  -6.226358e+01  -2.084536e+01
  -1.042372e+01  -7.850142e+01
   4.276679e+01  -4.064142e+01
   1.159122e+02   7.541855e+00
   4.639121e+01   5.347953e+01
  -1.530879e+01   1.136017e+02
  -1.863532e+01   3.968754e+01
  -3.261686e+01   4.871572e+01
   5.015885e+01  -2.554250e+01
   5.440418e+01   7.169786e+01
  -5.093458e+01   3.989301e+01
  -7.549824e+01   5.397516e+01
