
 $NMID
 id='ANONYMOUS ', fmtdat='(2E16.6)'
 volume=1.0
 tramp=1.0
 $END
   3.351188e+03  -3.642158e+02
   2.250057e+03   1.472047e+03
   2.539182e+02   2.224443e+03
  -1.401310e+03   1.399190e+03
  -9.662801e+02   2.407041e+02
  -6.286889e+01  -3.328005e+02
   3.894753e+02   4.848367e+01
   7.382519e+01   6.212000e+02
  -4.443326e+02   5.636161e+02
  -5.812785e+02   1.098776e+02
  -4.322039e+02  -4.818329e+02
  -2.983242e-01  -5.594267e+02
   2.734235e+02  -2.877130e+02
   2.698382e+02   4.928865e+02
  -9.412111e+01   6.154830e+02
  -4.030126e+02   5.729429e+01
  -3.742378e+02  -4.415781e+02
   1.466246e+02  -6.507638e+02
   5.370895e+02  -2.850176e+02
   4.505105e+02   1.852478e+02
   1.613148e+02   3.354161e+02
  -1.229034e+02   2.116290e+02
  -5.316598e+01   1.285808e+02
   1.874820e+02   1.369120e+02
   2.288258e+02   2.521794e+02
  -1.183404e+01   3.588044e+02
  -4.746558e+02   1.654227e+02
  -6.215074e+02  -1.127044e+02
  -2.184045e+02  -3.620119e+02
   3.034457e+02  -1.971032e+02
   4.941743e+02   1.094908e+02
   2.396881e+02   4.002185e+02
  -3.012230e+02   3.632292e+02
  -4.514496e+02   1.395207e+02
  -3.005178e+02  -6.636380e+01
  -1.039155e+02  -3.408057e+02
   1.008097e+01  -1.965646e+02
  -3.920977e+01   9.498574e+01
  -1.105088e+02   1.394113e+02
  -1.924369e+02  -8.268013e+01
  -6.304878e+01  -5.124262e+02
   1.784448e+02  -4.696725e+02
   3.041862e+02  -4.726105e+01
   1.210336e+02   3.187117e+02
  -1.438212e+02   1.331939e+02
  -1.762786e+02  -2.768453e+02
   1.714755e+02  -3.625762e+02
   4.663976e+02  -6.412374e+01
   4.771054e+02   4.611207e+02
   1.571739e+02   4.740576e+02
  -3.264372e+02   2.217087e+02
  -5.313325e+02  -8.225658e+01
  -3.598284e+02  -2.766291e+02
   9.030035e+00  -2.528321e+02
   2.339500e+02  -8.248655e+01
   2.055556e+02  -7.717060e+00
   3.987757e+01   1.829110e+00
  -1.966236e+01  -9.645683e+01
   1.272993e+02  -7.058172e+01
   2.015903e+02   5.548174e+01
   1.349726e+02   2.024403e+02
  -1.827487e+02   2.000203e+02
  -3.677469e+02   1.026156e+02
  -2.450217e+02  -1.074474e+02
   2.841671e+01  -2.874491e+02
   3.269342e+02  -3.131389e+02
   3.506188e+02  -1.387944e+02
   2.469630e+02   1.251551e+02
   3.663986e+01   3.167936e+02
  -4.808872e+01   3.418700e+02
  -4.127578e+01   1.911885e+02
   2.198291e+01   1.659279e+02
  -1.770328e+02   8.756471e+01
  -2.613148e+02   3.275620e+01
  -2.737229e+02  -1.286328e+02
  -1.053848e+02  -2.973623e+02
   1.274643e+02  -1.772330e+02
   1.873453e+02   5.581749e+01
   1.386495e+02   2.498046e+02
  -4.518279e+01   2.901310e+02
  -2.598224e+02   8.146613e+01
  -3.070964e+02  -1.923703e+02
  -1.574124e+02  -2.991792e+02
   2.914921e+01  -3.076213e+02
   1.607996e+02  -1.508348e+02
   1.759328e+02  -1.209197e+02
   1.616475e+02  -2.148162e+00
   3.150228e+02  -3.844405e+01
   4.040698e+02   1.424729e+02
   3.274621e+02   3.445121e+02
  -2.968912e+00   4.191276e+02
  -4.196381e+02   3.607865e+02
  -5.144982e+02   2.019261e+02
  -2.869756e+02  -7.087068e+01
  -8.060910e+01  -2.345767e+02
   1.146237e+02  -2.325007e+02
  -2.223456e+01  -4.260330e+01
  -1.318108e+02   4.412493e+01
  -1.354536e+02  -5.156956e+01
  -5.529990e+01  -1.510631e+02
   1.303598e+02  -7.764796e+01
   1.319589e+02   3.578123e+01
  -1.569414e+01   1.523177e+02
  -1.516395e+02  -4.010399e+01
  -1.728759e+02  -2.220570e+02
   5.163085e+01  -3.650857e+02
   2.737853e+02  -2.176988e+02
   3.493075e+02   6.204807e+01
   2.913357e+02   2.619210e+02
   6.869220e+01   2.339220e+02
  -1.427347e+02   1.360173e+02
  -9.346097e+01  -1.239053e+01
  -2.964547e+01  -3.463623e+01
   5.675086e+01   6.354199e+01
  -5.736469e+00   1.009278e+02
  -1.394971e+02   8.783602e+01
  -1.480470e+02  -2.676385e+01
  -2.774890e+01  -6.664243e+01
   1.118713e+02   2.844526e+01
   3.614918e+01   8.415849e+01
  -1.510586e+02   6.093739e+01
  -3.423917e+02  -5.694921e+01
  -2.297556e+02  -1.737635e+02
   1.414889e+01  -2.369197e+02
   2.590531e+02  -2.147553e+02
   2.768487e+02  -8.318090e+01
   1.473233e+02   5.082365e+01
  -8.250583e+01   1.081165e+02
  -9.031702e+01  -4.805766e+01
   3.729361e+01  -2.236119e+01
   1.523011e+02  -5.488738e+01
   2.149473e+02   8.145689e+01
   6.854540e+01   1.926460e+02
  -1.344532e+02   1.753447e+02
  -1.471751e+02   3.127956e+00
  -5.966608e+01  -1.966112e+01
   7.098241e+01   1.747603e+01
   3.206952e+00   1.268126e+02
  -1.409640e+02   1.387990e+02
  -1.978212e+02  -1.478626e+01
  -1.772772e+02  -1.361096e+02
  -1.581346e+01  -2.028212e+02
   1.933723e+02  -1.288567e+02
   1.440974e+02  -3.005490e+01
   3.728818e+01   1.211015e+02
  -6.938100e+01   9.559579e+01
  -6.597309e+01   1.592345e+01
  -1.860579e+01  -3.812090e+01
   6.538342e+01  -6.605928e+00
  -4.405105e+00   2.542779e+01
  -1.085463e+02   1.022805e+01
  -1.202560e+02  -8.700273e+01
  -1.981698e+01  -1.717080e+02
   1.474824e+02  -1.787406e+02
   2.309792e+02  -1.362715e+01
   1.673513e+02   2.301114e+02
   2.475309e+01   2.617662e+02
  -1.114051e+02   1.261823e+02
  -1.613549e+02  -2.395406e+01
  -9.643771e+01  -6.129556e+01
  -6.257129e+01  -4.157207e+01
  -5.920406e+01   3.017020e+01
  -6.284106e+01   4.507285e+01
  -1.042847e+02  -5.760820e+01
   1.544548e+01  -1.188999e+02
   1.233874e+02  -9.317340e+01
   9.727287e+01   2.580887e+01
  -5.246792e+01   1.624016e+02
  -1.325956e+02   1.042539e+02
  -2.277236e+02  -9.725569e+01
  -4.415380e+01  -2.526949e+02
   8.131223e+01  -2.547001e+02
   2.906101e+02  -9.007662e+01
   2.117752e+02   1.447850e+02
   1.031156e+02   2.139571e+02
  -6.674227e+01   1.698926e+02
  -8.396054e+01   4.577439e+01
  -7.613791e+01   4.046629e+01
  -4.901817e+01   1.116029e+02
  -8.492559e+01   7.989452e+01
  -1.267366e+02  -3.707977e+01
  -1.337869e+02  -1.921384e+02
  -1.317671e+01  -2.881340e+02
   1.520310e+02  -1.933418e+02
   1.664316e+02  -1.790542e+01
   1.602660e+02   1.776696e+02
   3.455133e+01   1.923717e+02
  -1.076568e+02   6.117798e+01
  -7.325049e+01   6.536053e-01
   1.695741e+01  -5.646517e+01
  -1.502322e+01  -3.053029e+01
  -1.617605e+01   1.678306e+01
  -5.864148e+01  -3.325073e+01
  -2.844425e+01  -2.146251e+01
   7.658281e+01  -2.149364e+01
   1.572740e+02   4.840670e+01
   1.069461e+02   6.792427e+01
  -5.583245e+01   7.350766e+01
  -1.764592e+02   8.796390e+01
  -1.320070e+02   8.815179e-01
   1.521092e+01  -3.078190e+01
   4.363626e+01  -3.821225e+01
   5.720956e+01   1.086170e+01
   5.906425e+00   1.074679e+02
  -4.789088e+01   4.870854e+01
  -1.111298e+02   1.708108e+01
  -3.433434e+01  -7.948038e+01
  -8.083141e+01  -1.363571e+01
  -8.586270e+01  -2.280982e+01
  -7.648799e+01  -7.269090e+00
  -5.269927e+01  -8.743602e+01
   3.763056e+01  -1.474629e+02
   1.165485e+02  -1.659142e+02
   2.287845e+02  -3.219454e+01
   8.074876e+01   1.229319e+02
   3.028013e+01   1.536235e+02
  -7.553538e+01   7.562256e+01
  -6.222228e+01  -3.351050e+01
   7.135606e+01  -5.416605e+01
   8.821268e+01   7.434269e+01
   8.947028e+01   1.299259e+02
  -1.078302e+02   1.394126e+02
  -1.858397e+02   4.734750e+01
  -1.154916e+02  -3.338005e+01
   1.175270e+01  -1.057256e+02
  -8.175651e+00  -1.080137e+01
   4.658026e+01  -2.728148e+00
  -4.652296e+01   2.696832e+01
  -8.435259e+01  -5.092312e+01
  -5.581925e+01  -1.610663e+02
   8.153028e+01  -1.362345e+02
   1.738606e+02  -8.450992e+01
   1.558813e+02   1.160665e+02
   4.867441e+00   1.462514e+02
  -1.016523e+02   1.293021e+02
  -1.110259e+02  -3.624472e+01
  -7.759568e+01  -1.394263e+02
  -1.258171e+01  -1.153877e+02
   4.030621e+01  -5.940505e+00
   4.681862e+01   1.444919e+01
   1.582135e+01   2.665731e+01
   1.629730e+01  -4.218800e+01
   1.446233e+01   2.659149e+01
   5.980267e+01   1.166007e+02
   5.509538e+01   1.105187e+02
  -2.785323e+01   7.517641e+01
  -1.466029e+02  -2.956651e+01
  -1.324678e+02  -1.166714e+02
   1.482118e+01  -7.019664e+01
   1.074257e+02  -1.905302e+01
   9.931545e+01   3.939051e+00
   1.476201e+00   2.346332e+01
  -2.803129e+01   2.232798e+01
   4.954994e+00   1.355265e+00
  -1.449744e+01  -5.467096e+00
  -6.473582e+00  -4.363806e+01
  -6.951695e+01   4.321312e+01
  -8.338605e+01  -1.809934e+01
  -3.181146e+01  -7.774491e+01
   9.827625e+01  -9.173035e+01
   2.019687e+02  -4.633014e+01
   1.501323e+02   5.950508e+01
   4.674758e+01   1.426632e+02
  -1.197501e+02   1.752247e+02
  -1.694273e+02   6.089906e+01
  -3.111379e+01  -3.059240e+01
  -1.953182e+01  -2.545734e+00
  -4.515163e+01   2.074409e+01
   4.584289e+00  -8.775371e+00
  -6.143800e+00  -4.528530e+01
  -2.203392e+01  -6.008361e+01
   5.426138e+01  -8.530635e+01
   4.317950e+01  -2.517277e+00
   1.220080e+02   9.510416e+01
   3.898377e+01   1.255956e+02
  -7.734998e+01   3.264805e+01
  -6.598646e+01  -2.403578e+01
  -5.431676e+01  -1.340849e+02
   1.131403e+02  -2.744730e+01
   9.054014e+01  -6.901355e+00
   2.662327e+01   2.660298e+01
  -2.745956e+01   4.748125e+01
  -7.806325e+01   2.206843e+01
   4.128976e+01   4.043277e+01
   9.961813e+01  -1.943621e+01
  -1.287433e+01   2.189689e+01
  -8.013681e+01   8.302130e+01
  -1.193621e+02   4.309372e+01
  -4.476606e+01  -9.478004e+00
  -6.171313e+00  -9.025677e+01
   3.954198e+01  -1.250462e+02
   4.936088e+01  -9.647538e+00
   2.827282e+01   7.570273e+01
  -8.670312e+00   5.785470e+01
  -6.333466e+01   6.002474e+00
  -1.886965e+01  -6.658923e+01
  -1.829272e+01  -4.247899e+01
   3.481007e+01   5.240665e-02
   3.779994e+01   3.093203e+01
   2.680613e+01  -3.313835e+00
  -2.056069e+01  -1.543141e+01
   1.638079e+01   4.660842e+01
   2.896940e+01   7.770295e+01
   1.949027e+01   8.136781e+01
  -3.361815e+01   4.328103e+01
  -7.217070e+01  -4.132695e+01
  -2.615684e+01  -6.616027e+01
   4.867460e+01  -3.166274e+01
   7.229182e+01   4.127864e+01
   3.169941e+01   7.590060e+01
  -2.345867e+01   2.470539e+01
  -8.424433e+01  -7.903873e+01
  -3.939032e+01  -4.196815e+00
   2.021650e+01  -3.893919e+01
   7.064250e+01  -5.902951e+01
   3.565578e+01   1.728588e+01
  -4.472976e+01  -1.736121e+01
  -6.222841e+01   7.961998e+00
   8.450365e+00   8.053601e+00
   1.217205e+02  -1.969734e+01
