
 $NMID
 id='ANONYMOUS ', fmtdat='(2E16.6)'
 volume=1.0
 tramp=1.0
 $END
  -3.434501e+03  -2.314959e+01
  -2.147781e+03  -1.692018e+03
   1.027938e+02  -2.110453e+03
   1.578195e+03  -9.795439e+02
   7.488922e+02  -3.432787e+01
  -1.314726e+02   2.473697e+02
  -4.380301e+02  -1.493465e+02
  -9.860475e+00  -6.011527e+02
   4.374035e+02  -4.183287e+02
   6.743436e+02  -3.315869e+01
   4.106537e+02   5.704668e+02
  -4.334203e+01   5.940040e+02
  -3.693098e+02   1.198886e+02
  -2.570363e+02  -5.572708e+02
   1.728343e+02  -5.682064e+02
   4.652824e+02  -4.467332e+01
   3.283627e+02   5.084010e+02
  -1.566804e+02   6.039352e+02
  -5.098422e+02   2.884994e+02
  -4.165791e+02  -1.678438e+02
  -7.120280e+01  -3.793982e+02
   1.421224e+02  -1.977905e+02
   7.864395e+01  -9.509811e+01
  -1.806033e+02   2.088255e+01
  -2.873997e+02  -2.089959e+02
  -1.608919e+01  -4.035247e+02
   4.617918e+02  -2.523905e+02
   7.111454e+02   2.119860e+02
   2.602810e+02   3.948285e+02
  -3.504277e+02   2.835068e+02
  -4.975766e+02  -9.700774e+01
  -1.704806e+02  -3.734875e+02
   2.142012e+02  -3.962260e+02
   4.781998e+02  -1.078930e+02
   2.900159e+02   1.522268e+02
   4.291306e+01   3.136789e+02
  -6.505866e+01   2.604720e+02
  -8.143166e+01  -8.316412e+01
   1.448811e+02  -2.047398e+02
   2.419593e+02   9.796540e+01
   3.402917e+01   6.146979e+02
  -3.024287e+02   4.903752e+02
  -4.193559e+02  -1.449728e+01
  -1.011374e+02  -3.499712e+02
   2.139175e+02  -1.261254e+02
   2.481161e+02   2.168409e+02
  -1.064184e+02   3.453229e+02
  -4.567992e+02   1.015407e+02
  -5.326385e+02  -3.243953e+02
  -1.401747e+02  -4.674625e+02
   3.110169e+02  -2.849979e+02
   5.165016e+02   5.930307e+01
   3.324736e+02   2.572032e+02
  -9.103348e+01   1.945202e+02
  -2.861172e+02   9.009158e+01
  -1.882139e+02  -5.667204e+01
   5.226067e+01  -1.776450e+01
   5.263085e+01   1.015074e+02
  -4.457800e+01   4.744958e+01
  -2.275822e+02  -7.517954e+01
  -1.406144e+02  -1.917378e+02
   9.603082e+01  -2.407168e+02
   3.544910e+02  -6.708190e+01
   2.392080e+02   7.385906e+01
  -3.883665e+01   2.708068e+02
  -2.521299e+02   2.834724e+02
  -3.064996e+02   1.830679e+02
  -2.468521e+02  -1.380504e+02
  -7.885214e+01  -4.250602e+02
   7.708692e+01  -3.190453e+02
   3.854935e+01  -1.396700e+02
  -1.532500e+01  -4.149660e+01
   1.365338e+02  -1.101263e+02
   2.463241e+02  -5.257156e+01
   2.001182e+02   1.286065e+02
   8.954048e+01   2.092544e+02
  -1.453920e+02   2.528310e+02
  -1.369238e+02  -6.185926e+01
  -1.408370e+02  -2.689629e+02
   2.884911e+01  -2.672100e+02
   2.555178e+02  -5.518625e+01
   2.947271e+02   2.033365e+02
   1.938135e+02   2.840109e+02
  -4.681662e+01   2.650966e+02
  -1.408777e+02   1.322548e+02
  -1.209705e+02   1.301442e+02
  -1.516121e+02   9.532212e+01
  -2.200255e+02  -2.006498e+00
  -3.696122e+02  -8.942027e+01
  -3.037988e+02  -3.267346e+02
  -4.184717e+01  -4.088508e+02
   3.195376e+02  -3.609634e+02
   4.854916e+02  -2.171581e+02
   2.884839e+02   1.040518e+02
   6.049022e+01   2.345769e+02
  -1.230365e+02   2.353138e+02
  -2.606329e+01   5.616297e+01
   1.123319e+02  -3.128716e+01
   1.659491e+02   8.239148e+00
   6.813259e+00   1.482113e+02
  -1.069461e+02   7.402174e+01
  -1.498930e+02  -1.738900e+01
   4.168750e+01  -1.044395e+02
   1.784237e+02   1.503209e+01
   1.608874e+02   2.028387e+02
  -3.701515e+01   2.734922e+02
  -2.177276e+02   1.815718e+02
  -3.716969e+02  -7.719178e+01
  -2.786743e+02  -2.321822e+02
  -6.695562e+01  -3.010396e+02
   1.380919e+02  -1.494648e+02
   1.511918e+02   1.152820e+01
   6.374836e+01   9.972996e-01
  -3.890416e+01  -1.128678e+02
  -1.747964e+01  -1.082868e+02
   1.489332e+02  -6.572192e+01
   1.609878e+02   4.114975e+01
   2.833261e+01   5.039880e+01
  -8.544096e+01   7.998837e+00
  -3.399092e+01  -9.871554e+01
   1.109144e+02  -8.790084e+01
   2.534605e+02  -6.605926e+00
   2.417956e+02   1.578780e+02
   1.062241e+01   2.341535e+02
  -2.203718e+02   2.334222e+02
  -2.530503e+02   6.868727e+01
  -2.031838e+02  -7.982253e+01
   2.688477e+01  -5.831357e+01
   6.681929e+01   1.474346e+00
  -1.973110e+01   9.292485e+01
  -1.875562e+02  -2.990102e+01
  -1.990836e+02  -9.017000e+01
  -7.155405e+01  -1.314332e+02
   7.266995e+01  -1.267816e+02
   1.426052e+02  -7.061155e+00
   5.082828e+01   1.462935e+01
  -5.218316e+01  -5.273467e+01
   5.269038e+00  -1.514332e+02
   5.767906e+01  -1.007684e+02
   2.040739e+02  -6.008987e+01
   1.854118e+02   1.140299e+02
   4.419125e+01   1.690452e+02
  -1.607112e+02   1.386738e+02
  -1.742340e+02   3.765258e+01
  -5.624910e+01  -1.175400e+02
   5.293277e+01  -1.123885e+02
   5.954187e+01  -5.803289e+01
  -1.250717e+01   2.088653e+01
  -6.841915e+01   1.762596e+01
   2.218495e+01  -1.563598e-01
   9.429338e+01  -8.615176e+00
   6.806660e+01   7.142097e+01
   4.429760e+01   2.025643e+02
  -1.416286e+02   1.314287e+02
  -2.230761e+02  -5.529335e+00
  -1.953678e+02  -1.869249e+02
   1.339869e+01  -2.436259e+02
   1.015383e+02  -1.281335e+02
   1.385160e+02  -2.689224e+01
   5.098513e+01   4.452690e+01
   4.259489e+01   8.187287e+00
   3.044741e+01  -1.226008e+01
   8.696070e+01   8.921571e+00
   7.236952e+01   6.252893e+01
  -2.873039e+01   1.087334e+02
  -1.349692e+02   2.332751e+01
  -1.255813e+02  -2.630016e+01
   3.708635e+01  -1.397069e+02
   1.977203e+02  -9.296597e+01
   1.749987e+02   7.337992e+01
   1.290733e+02   2.573708e+02
  -1.244479e+02   2.503781e+02
  -2.681310e+02   5.570532e+01
  -2.324402e+02  -1.215894e+02
  -6.905241e+01  -1.620617e+02
   4.792596e+01  -1.270464e+02
   3.832582e+01  -7.347440e+01
   3.885383e+01  -6.353804e+01
   2.379810e+01  -9.086901e+01
   2.270905e+01  -9.718006e+01
   1.125095e+02   3.330678e+01
   1.102301e+02   1.217485e+02
   5.736740e+01   2.039522e+02
  -7.353355e+01   1.522585e+02
  -1.396466e+02  -1.035584e+01
  -1.616185e+02  -1.472765e+02
  -6.594097e+00  -1.174583e+02
   5.833534e+01  -8.442705e+01
   7.586096e+01   5.637338e+01
   2.358986e+01   6.427917e+01
   1.070384e+01   5.688882e+01
  -2.925605e+01   4.467999e+01
   7.224647e+01   4.920985e-01
   1.180528e+01   4.651158e+01
  -4.560494e+01   4.085832e+01
  -1.899097e+02  -7.115745e+00
  -1.091173e+02  -7.711406e+01
   4.918738e+00  -7.498866e+01
   1.475253e+02  -3.861320e+01
   1.387777e+02   8.277266e+00
   6.628002e+01   1.344514e+01
  -2.409652e+01   7.777689e+01
  -6.692945e+01  -2.186475e+01
  -2.758466e+01  -8.514752e+01
   2.985761e+01  -5.345122e+01
   9.129985e+01  -1.553423e+01
   8.434607e+01   6.667524e+01
   5.367997e+01   6.503267e+01
   5.176556e+01  -1.062315e+01
   8.197895e+01  -5.755849e+01
   5.340776e+01   5.357112e+01
   1.334039e+01   1.759440e+02
  -1.157162e+02   1.269558e+02
  -1.726737e+02  -5.320363e+00
  -1.070332e+02  -8.395084e+01
  -2.811545e+01  -1.194884e+02
   6.359795e+01  -6.118327e+00
   7.007764e+01   1.215845e+01
  -7.711452e+01   9.061826e+00
  -1.543742e+02  -5.861712e+01
  -8.865764e+01  -1.283351e+02
   6.440701e+01  -9.653508e+01
   1.855403e+02  -6.151264e+01
   1.598817e+02   8.191974e+01
  -3.674959e+00   9.360583e+01
  -6.662996e+01   6.523618e+01
   1.741739e+01   2.898529e+01
   4.470448e+01  -1.658606e+01
   9.344072e+01   9.940525e+00
   5.102952e+01   7.473962e+01
  -5.993228e+01   1.608255e+02
  -1.956402e+02   5.505325e+00
  -1.482015e+02  -8.395548e+01
  -4.320536e+01  -1.891345e+02
   8.763993e+01  -1.501788e+02
   1.177071e+02  -1.326225e+01
   7.417452e+01   1.184809e+02
  -8.160495e+00   1.047240e+02
  -5.961552e+01   8.231438e+00
  -1.059174e+02  -2.311842e+01
  -2.246110e+01  -2.702752e+01
  -4.560045e+00   1.673736e+00
  -1.312493e+01  -3.290978e+01
  -6.179020e+01  -6.243337e+01
   3.548378e+01  -6.989166e+01
   5.095367e+01  -5.285137e+01
   1.332261e+02   5.742422e+01
   8.132490e+01   3.361225e+01
   4.966865e+01   8.715012e+01
  -7.247409e+01  -3.789883e+00
  -7.869896e+01  -1.214667e+01
  -3.262058e+01  -7.033898e+00
   1.641314e+01  -6.942396e+00
   4.072853e+01  -2.173524e+01
  -1.656643e+01   1.164786e+01
  -4.807712e+01   2.371596e+01
   9.256854e+01   5.012295e+01
   9.529578e+01   3.126446e+01
   1.236867e+01   6.888258e+01
  -9.145014e+01   1.151829e+02
  -1.132498e+02   6.706354e+01
  -1.228608e+02  -2.933443e+01
  -3.492330e+01  -1.626241e+02
   6.011445e+01  -1.826769e+02
   8.921376e+01  -5.667172e+01
   1.164938e+02  -3.386562e+01
   5.375072e+01  -3.655633e+01
   3.213002e+01   1.431925e+01
   3.175674e+01   2.045302e+01
   2.067012e+01   3.074349e+01
   1.478372e+00   7.551062e+01
  -8.554813e-01   6.003068e+01
  -7.184837e+01  -4.515078e+01
  -6.598052e+01  -8.251306e+01
  -7.054829e+00  -1.317466e+02
   9.975135e+01  -3.025184e+01
   7.164679e+01   8.723716e+01
   6.736250e+01   8.719869e+01
  -3.813572e+01   4.784016e+01
  -9.585333e+01   2.078336e+01
  -6.169122e+01  -7.144983e+01
   9.663230e+00  -5.245061e+01
   5.759131e+01  -2.264020e+01
  -7.490892e+00  -1.692067e+01
  -5.710804e+01   2.743257e+01
   7.711477e+00  -2.883796e+01
   7.021615e+01  -7.025872e+01
   1.284646e+02  -5.893184e+01
   5.929356e+01   1.678424e+01
  -2.410197e+01   8.561282e+01
  -4.642877e+01   7.093282e+01
  -5.965696e+01   9.529405e+00
   4.984495e+00  -2.475561e+01
   5.309625e+01  -8.942177e+01
   1.803403e+01  -1.147919e+01
   3.195189e+01   1.353937e+01
  -1.565651e+01   4.036135e+01
  -1.867751e+01   4.900665e+00
  -3.986049e+01  -3.881044e+01
  -5.688417e+01   3.597803e+00
  -3.892003e+00   2.481242e+01
  -1.159508e+01   1.324672e+01
   2.810651e+01  -2.612627e+00
   4.461927e+01  -8.481212e+01
   3.952740e+01  -2.115847e+01
   5.613196e+01   3.965496e+01
   9.713009e+00   4.200080e+01
  -1.937399e+00   6.625943e+01
  -3.248579e+01  -8.230371e-01
  -2.918208e+01  -3.877916e+01
   5.415966e+01  -4.494185e+01
   4.442328e+01   7.529183e+00
   3.911166e+01   5.289733e+01
   3.480525e+00   6.256710e+01
  -7.740802e+01   4.172644e+01
  -3.612925e+01  -1.418290e+01
   2.432666e+01  -2.005591e+01
   6.536180e+01   4.350240e+01
  -7.693113e+01   2.611718e+01
  -9.545053e+01   2.836273e+01
