
 $NMID
 id='ANONYMOUS ', fmtdat='(2E16.6)'
 volume=1.0
 tramp=1.0
 $END
  -4.836320e+03   7.419611e+01
  -2.609038e+03  -2.552734e+03
   7.458901e+02  -3.031307e+03
   2.189850e+03  -1.058298e+03
   9.412959e+02   7.083644e+02
  -6.281342e+02   8.425000e+02
  -9.588487e+02  -3.911785e+02
  -8.430495e+01  -1.099004e+03
   8.296571e+02  -8.213037e+02
   1.095371e+03   3.205217e+01
   5.413026e+02   9.059246e+02
  -2.670341e+02   1.012545e+03
  -7.543086e+02   1.461580e+02
  -4.321309e+02  -8.191659e+02
   2.856031e+02  -9.018502e+02
   7.207962e+02  -4.041128e+00
   3.387860e+02   7.560429e+02
  -3.331389e+02   7.263126e+02
  -6.822255e+02   1.486041e+02
  -4.412357e+02  -3.910442e+02
  -7.420954e+01  -4.928274e+02
   2.686867e+02  -3.190101e+02
   2.081869e+02  -2.480632e+01
  -1.494956e+02   9.414223e+01
  -4.702853e+02  -1.153471e+02
  -1.817218e+02  -4.595282e+02
   5.088121e+02  -4.499623e+02
   9.267935e+02   3.484568e+01
   4.569482e+02   4.979139e+02
  -4.205126e+02   4.991698e+02
  -7.380436e+02  -1.134683e+00
  -3.771158e+02  -5.045837e+02
   2.723403e+02  -5.519338e+02
   6.209357e+02  -2.378375e+02
   4.510675e+02   2.397258e+02
   6.085926e+01   4.898943e+02
  -2.195392e+02   2.804304e+02
  -2.324784e+02  -1.808326e+02
   1.135064e+02  -4.531515e+02
   4.816778e+02  -1.356311e+01
   3.002567e+02   6.847759e+02
  -2.693362e+02   7.922571e+02
  -6.745548e+02   1.524357e+01
  -2.902772e+02  -5.399316e+02
   3.220858e+02  -3.458555e+02
   4.241627e+02   3.214292e+02
  -9.010898e+01   6.072196e+02
  -6.378659e+02   8.068622e+01
  -6.281147e+02  -4.482083e+02
  -1.803025e+02  -6.114026e+02
   4.213863e+02  -3.589204e+02
   7.900780e+02   3.648585e+01
   3.869729e+02   4.049208e+02
  -1.684129e+02   3.927972e+02
  -4.627215e+02   4.163583e+01
  -2.590338e+02  -1.784340e+02
   9.900228e+01  -1.000078e+02
   1.385476e+02   1.411785e+02
  -1.637657e+02   2.175511e+02
  -3.418461e+02  -3.208767e+01
  -1.429883e+02  -3.308190e+02
   2.403253e+02  -2.859646e+02
   3.986695e+02  -6.565644e+01
   2.467518e+02   6.678813e+01
  -1.601433e+01   2.255596e+02
  -2.566564e+02   4.068120e+02
  -3.633763e+02   2.511507e+02
  -3.340408e+02  -1.603546e+02
  -9.229054e+01  -4.065597e+02
   1.262882e+02  -4.285615e+02
   1.221782e+02  -1.679147e+02
   7.755843e+01   2.885153e+01
   5.906052e+01  -9.200119e+01
   2.578211e+02  -7.315838e+01
   3.150400e+02   7.077352e+01
   1.854358e+02   3.623213e+02
  -8.875394e+01   2.777861e+02
  -2.655654e+02   5.398424e+01
  -1.990720e+02  -2.243068e+02
   2.477282e+01  -3.316710e+02
   2.806203e+02  -1.389017e+02
   4.339298e+02   1.236309e+02
   2.152751e+02   3.861058e+02
  -8.326276e+01   3.773517e+02
  -2.465302e+02   1.450644e+02
  -1.802965e+02  -6.739443e+00
  -1.667986e+02   7.237425e+01
  -2.520785e+02   2.721642e+01
  -4.212693e+02  -3.541919e+00
  -3.392574e+02  -3.414016e+02
  -6.836973e+00  -4.960777e+02
   3.991429e+02  -4.819586e+02
   5.509004e+02  -2.500562e+02
   3.684458e+02   1.411766e+02
   9.059473e+01   3.527202e+02
  -1.114160e+02   2.822255e+02
  -1.004796e+02   5.929424e+01
   1.024299e+02  -1.507725e+02
   2.200226e+02   1.899007e+01
   3.400546e+01   2.235074e+02
  -1.961628e+02   1.476113e+02
  -2.095762e+02  -4.241347e+01
   1.378664e+01  -2.012489e+02
   2.181264e+02  -4.574217e+01
   2.089299e+02   2.236568e+02
  -5.080160e+01   3.780155e+02
  -2.605425e+02   2.278552e+02
  -3.849300e+02  -3.712001e+01
  -3.018593e+02  -2.720803e+02
  -1.194554e+02  -3.034223e+02
   1.602464e+02  -2.111250e+02
   1.904785e+02  -7.700233e+01
   7.877979e+01   2.418659e+01
  -4.234601e+01  -5.017694e+01
  -4.404490e+01  -1.522996e+02
   1.200431e+02  -1.214335e+02
   2.038935e+02  -3.024553e+01
   9.775839e+00   1.075136e+02
  -9.528918e+01   2.554799e+01
  -4.791804e+01  -9.361902e+01
   1.245781e+02  -6.980458e+01
   3.149686e+02  -3.332529e+01
   2.785754e+02   1.002730e+02
   6.125921e+01   2.635318e+02
  -1.792170e+02   2.534847e+02
  -3.221413e+02   1.105050e+02
  -2.086751e+02  -2.383198e+01
   2.718283e+01  -1.465051e+02
   1.093741e+02  -2.493146e+01
  -9.043780e+01   1.513090e+02
  -1.779548e+02   9.073331e+01
  -2.470263e+02  -7.988123e+01
  -9.209970e+01  -2.197292e+02
   1.420674e+02  -1.951274e+02
   1.994245e+02  -6.476793e+01
   5.958253e+01   4.296045e+01
  -4.037201e+01   2.873835e+01
  -2.906592e+01  -8.419194e+01
   1.166351e+02  -1.176412e+02
   2.569841e+02  -2.040641e+01
   2.085624e+02   1.279942e+02
   8.838665e+00   2.606128e+02
  -2.122119e+02   1.736438e+02
  -1.292676e+02   3.968101e+00
  -6.121829e+01  -1.532167e+02
   6.059070e+01  -1.176423e+02
   1.135599e+02  -3.319220e+01
  -2.510309e+01   6.490210e+01
  -1.442234e+01  -3.750786e+00
   1.028716e+01  -2.906526e+01
   9.466740e+01   1.510112e+01
   7.512889e+01   1.424618e+02
   2.631108e+01   2.164913e+02
  -1.162478e+02   1.560039e+02
  -3.033602e+02   3.170739e+01
  -1.858739e+02  -1.912048e+02
  -1.136820e+01  -3.172318e+02
   1.490830e+02  -2.126656e+02
   1.473479e+02  -3.393969e+01
   8.760672e+01   7.768119e+01
   4.875710e+01   2.160558e+01
   7.676509e+01  -2.503514e+01
   8.369556e+01   5.534586e+00
   6.013160e+01   4.880038e+01
  -1.999026e+01   8.538992e+01
  -1.412439e+02   5.961955e+01
  -1.079746e+02  -1.131272e+01
   2.051944e+01  -1.325776e+02
   1.449712e+02  -9.656749e+01
   2.107013e+02   5.428525e+01
   1.122691e+02   1.907966e+02
  -1.355646e+02   2.677554e+02
  -3.224759e+02   1.146542e+02
  -2.912044e+02  -1.252243e+02
  -9.129967e+01  -1.993320e+02
   4.431310e+01  -1.866137e+02
   9.228337e+01  -8.157564e+01
   8.816025e+01  -2.439295e+01
   3.211107e+01  -7.244876e+01
   1.566952e+02  -1.063976e+02
   2.011180e+02   8.227159e+00
   1.869597e+02   1.371771e+02
   4.455662e+01   2.439486e+02
  -1.362065e+02   1.807835e+02
  -1.969794e+02   3.124172e+01
  -1.495898e+02  -1.467139e+02
  -1.760524e+01  -1.387939e+02
   5.252066e+01  -1.098948e+02
   7.731841e+01   1.729113e+00
   2.539634e+01   6.987477e+01
  -9.580752e+00   6.993661e+01
   6.423868e+00   2.042291e+01
   9.424276e+01   6.446324e+01
   8.055586e+01   2.577692e+01
  -1.160716e+02   3.053010e+01
  -1.866519e+02   3.606179e+01
  -1.491623e+02  -4.464927e+01
   1.409860e+01  -6.574075e+01
   1.463133e+02  -1.063925e+02
   1.402966e+02  -5.267889e+01
   5.981935e+01   3.536434e+01
  -6.267506e+01   2.550412e+01
  -1.103087e+02  -8.423388e+00
  -3.523260e+01  -5.469789e+01
   5.910678e+01  -4.946194e+01
   7.539779e+01   1.214603e+01
   6.068454e+01   5.993100e+01
   4.836531e+01   5.728177e+01
   4.403402e+01   6.810155e+01
   4.776067e+01   6.551717e+00
   3.782438e+01   8.250512e+01
  -6.480065e+01   1.329485e+02
  -1.171151e+02   1.477179e+02
  -2.139242e+02   5.660518e+01
  -1.255591e+02  -7.626794e+01
  -2.959770e+01  -1.356572e+02
   8.600813e+01  -5.888263e+01
   5.962811e+01   8.332356e-01
  -3.519042e+01  -1.319266e+01
  -1.349889e+02   3.702663e+00
  -8.855735e+01  -1.100167e+02
   8.698045e+01  -1.199779e+02
   2.094118e+02  -5.752347e+01
   1.608866e+02  -2.666848e+01
   2.648582e+01   1.044801e+02
  -3.916537e+01   6.230561e+01
  -9.405399e+01   3.692111e+01
   1.703601e+01  -1.415044e+01
   8.641851e+01   1.980840e+01
   1.676013e+01   1.384463e+02
  -4.480543e+01   1.345478e+02
  -1.782251e+02   6.822818e+01
  -1.258376e+02  -1.540609e+02
  -1.683650e+01  -1.902730e+02
   8.818194e+01  -1.504214e+02
   1.177763e+02   1.349849e+01
   6.346896e+01   1.046770e+02
   6.006953e+00   1.276249e+02
  -2.824368e+01   1.701657e+01
  -3.610834e+01  -4.267070e+01
  -7.129365e+00  -2.422560e+01
  -1.382784e+01   7.602658e+01
  -1.527822e+01  -1.295410e+01
  -5.430123e+01  -7.090122e+01
  -5.735761e+01  -1.330278e+02
   9.588800e+01  -5.061297e+01
   1.928275e+02   5.492574e+01
   1.507130e+02   1.320310e+02
  -9.313046e+00   9.263983e+00
  -1.022377e+02   2.922065e+01
  -9.167040e+01  -1.245088e+01
   1.639791e+01   1.803415e+01
   7.830635e+01  -3.144771e+01
   1.520503e+01  -4.051906e+01
  -7.932758e+00   1.654350e+01
   1.156552e+01   2.804955e+01
   8.873855e+01   4.171753e+01
   1.015759e+02   5.356253e+01
  -3.721979e+00   3.685566e+01
  -1.235166e+02   1.024560e+02
  -2.065733e+02   1.142764e+02
  -1.319090e+02  -7.351963e+01
  -7.697688e+00  -2.017494e+02
   5.594573e+01  -1.200438e+02
   1.076309e+02  -1.656060e+01
   8.666644e+01   2.481144e+01
   4.479774e+01   4.334057e+01
   1.522419e+01   3.871541e+01
   1.460630e+01   3.436773e+01
   8.201073e+01   3.150860e+01
   3.505651e+01   9.567296e+01
  -3.741118e+01   9.268409e+01
  -9.710660e+01   1.829762e+01
  -1.162464e+02  -1.241569e+02
   5.959011e+00  -1.823118e+02
   9.479771e+01  -1.486723e+01
   1.054983e+02   9.279419e+01
   7.649144e+01   1.077935e+02
  -3.000768e+01   3.385223e+01
  -1.024578e+02   1.325234e+01
  -2.938471e+01  -1.000234e+02
   4.557794e+01  -6.002692e+01
   4.250149e+01   7.417295e+00
  -1.212857e+01   3.189689e+01
  -5.523941e+01   1.755643e+01
  -3.743503e+01  -4.759049e+01
   1.016629e+02  -8.006758e+01
   1.227488e+02  -8.200969e+01
   8.192833e+01   1.783209e+01
  -1.099564e+01   1.245222e+02
  -7.376078e+01   6.359596e+01
  -4.374525e+01  -1.527733e+00
   1.684782e+01  -8.974861e+01
   3.729237e+01  -5.546405e+01
   2.421007e+01   2.200211e+01
  -1.845539e+01   6.867861e+01
  -2.716321e+01   3.381831e+01
  -2.391282e+01  -4.694784e+01
  -5.688767e+01   2.642447e+01
  -1.581100e+01  -3.488205e+01
   6.014506e+01   5.625886e+00
   2.122890e+00   3.589194e+01
  -3.172952e+01  -3.473692e+01
   3.072495e+01  -4.975551e+01
   2.229551e+01  -6.781625e+00
   2.874243e+01   7.667612e+01
   4.164089e+01   6.277712e+01
  -1.041059e+01   4.275227e+01
  -5.437497e+01  -4.079609e+01
   1.075981e+01  -7.908326e+01
   6.376104e+01  -4.540073e+01
   1.000137e+02   2.149132e+01
   9.466450e+01   5.073616e+01
  -1.915127e+01   2.096198e+01
  -6.316748e+01   1.495973e+01
  -6.284559e+00  -8.814890e+00
   2.740756e+01   3.608623e+01
   5.711285e+01  -1.979256e+01
  -3.196579e+00   3.007898e+01
  -1.007044e+02   4.634840e+01
