
 $NMID
 id='ANONYMOUS ', fmtdat='(2E16.6)'
 volume=1.0
 tramp=1.0
 $END
   3.859623e+03  -6.679088e+02
   2.981567e+03   1.829520e+03
   1.110812e+02   2.709159e+03
  -1.629887e+03   1.338005e+03
  -1.110262e+03  -1.203460e+02
   1.730677e+02  -5.451972e+02
   7.788251e+02   1.263016e+02
   1.898980e+02   8.212054e+02
  -5.148669e+02   6.738502e+02
  -8.644362e+02   1.411752e+02
  -5.726944e+02  -6.180247e+02
  -1.268744e+01  -8.123328e+02
   4.187952e+02  -2.257712e+02
   3.534191e+02   6.194674e+02
  -1.235144e+02   7.147987e+02
  -5.559778e+02   7.499685e+01
  -3.929199e+02  -5.720831e+02
   1.665686e+02  -7.010511e+02
   5.414215e+02  -1.992175e+02
   4.455408e+02   2.472016e+02
   1.185781e+02   4.219321e+02
  -1.592645e+02   2.635483e+02
  -1.432944e+02   7.852623e+01
   1.138162e+02  -2.683467e+01
   3.379730e+02   1.992576e+02
   5.664469e+01   4.159069e+02
  -4.175702e+02   2.587736e+02
  -6.978488e+02  -8.839858e+01
  -4.144015e+02  -4.208217e+02
   2.974906e+02  -3.589376e+02
   5.378716e+02   1.192971e+02
   2.390675e+02   3.876553e+02
  -2.425515e+02   4.756926e+02
  -5.025757e+02   2.404766e+02
  -3.724415e+02  -9.476629e+01
  -1.722553e+02  -3.675822e+02
   8.970748e+01  -2.277116e+02
   8.078340e+01   1.074284e+02
  -1.234040e+02   2.393778e+02
  -3.088882e+02  -7.177322e+01
  -1.545858e+02  -5.135294e+02
   2.467594e+02  -6.157484e+02
   4.127342e+02  -5.540585e+01
   2.556365e+02   4.192541e+02
  -1.480786e+02   2.636404e+02
  -3.006860e+02  -2.191426e+02
   9.280838e+00  -4.915392e+02
   4.613289e+02  -1.774318e+02
   5.392242e+02   2.823652e+02
   2.632681e+02   5.297235e+02
  -3.088019e+02   3.641520e+02
  -6.733544e+02  -2.561677e+01
  -3.908743e+02  -3.237651e+02
   6.190393e+01  -2.990033e+02
   3.380072e+02  -1.317952e+02
   2.410285e+02   1.105271e+02
  -4.339317e+01   2.503266e+01
  -9.877163e+01  -9.274894e+01
   1.518274e+02  -9.794501e+01
   2.899145e+02  -6.221691e+00
   1.309245e+02   1.957639e+02
  -1.829700e+02   2.772434e+02
  -4.084804e+02   1.266467e+02
  -2.822568e+02  -1.020547e+02
   4.292976e+01  -3.120422e+02
   2.614418e+02  -3.942122e+02
   3.350006e+02  -1.756531e+02
   2.425619e+02   1.698612e+02
   8.112258e+01   4.156387e+02
  -1.516605e+01   3.352961e+02
  -3.657165e+01   2.226404e+02
  -5.660944e+01   6.011531e+01
  -9.480689e+01   1.445203e+02
  -2.235963e+02   1.432144e+02
  -2.816354e+02  -5.015987e+01
  -1.358500e+02  -2.576016e+02
   7.288936e+01  -2.395437e+02
   2.088304e+02  -1.898237e+01
   1.780696e+02   2.366555e+02
  -5.206160e+01   2.629840e+02
  -2.687234e+02   9.446605e+01
  -3.581630e+02  -1.642787e+02
  -2.523133e+02  -3.166111e+02
   2.864425e+01  -3.026928e+02
   1.864594e+02  -1.526319e+02
   1.540533e+02  -5.396945e+01
   1.008080e+02  -9.230721e+01
   2.460270e+02  -1.090377e+02
   4.559611e+02  -7.748395e+00
   3.349186e+02   2.422145e+02
   6.376693e+00   4.899131e+02
  -3.273326e+02   4.336446e+02
  -4.782660e+02   2.100113e+02
  -3.052557e+02  -3.901900e+01
   1.189161e+00  -2.431320e+02
   1.386868e+02  -2.234231e+02
   1.222573e+01  -2.765755e+01
  -1.103174e+02   7.945316e+01
  -1.852986e+02  -5.136466e+01
  -6.342502e+01  -1.636844e+02
   1.420047e+02  -1.778941e+02
   1.276892e+02   7.218060e+01
  -1.485527e+01   2.012089e+02
  -1.421169e+02   4.567673e+01
  -2.127483e+02  -1.932219e+02
   7.437419e+00  -3.540817e+02
   2.852115e+02  -2.630215e+02
   3.519267e+02   2.487974e+01
   3.135357e+02   2.536109e+02
   7.055964e+01   2.566485e+02
  -1.440684e+02   1.250581e+02
  -1.434632e+02   1.626996e+01
   2.186921e+00  -9.545932e+00
   1.096756e+02   6.025203e+01
  -8.553178e+00   1.292895e+02
  -1.345496e+02   1.060009e+02
  -2.026201e+02  -3.282491e+01
  -4.881036e+01  -8.067074e+01
   1.076708e+02  -6.014790e+01
   6.961044e+01   7.710871e+01
  -1.559845e+02   8.257079e+01
  -3.209028e+02  -1.307923e+01
  -2.903907e+02  -1.588313e+02
  -6.360417e+01  -2.653222e+02
   1.906823e+02  -2.339161e+02
   3.207241e+02  -1.214027e+02
   1.607654e+02   6.734794e+00
  -5.552459e+00   1.182122e+02
  -1.010339e+02  -3.026565e-01
   2.464069e+01  -9.114355e+01
   2.062863e+02  -4.713236e+01
   2.149455e+02   1.039433e+02
   2.427514e+01   2.383513e+02
  -8.189304e+01   1.500917e+02
  -1.114580e+02  -6.729788e+01
  -2.799099e+01  -7.921144e+01
   5.542844e+01   2.288555e+01
   2.958957e+01   8.505862e+01
  -8.398928e+01   1.318546e+02
  -2.093136e+02   2.451633e+01
  -1.463353e+02  -1.351003e+02
  -1.062095e+01  -2.175316e+02
   1.140989e+02  -1.691763e+02
   1.595589e+02  -5.588203e+00
   5.509317e+01   7.374201e+01
  -5.503279e+01   8.425210e+01
  -5.548703e+01   1.076936e+02
  -5.032803e+00  -1.275977e+01
   4.321935e+00  -4.534348e+01
  -3.324871e+00  -1.161252e+01
  -8.456486e+01   5.878783e+00
  -1.447225e+02  -1.012914e+02
  -2.987738e+00  -1.848926e+02
   1.516626e+02  -1.656862e+02
   2.406090e+02  -1.038062e+01
   1.628194e+02   1.673779e+02
   7.250823e+01   2.381303e+02
  -9.446393e+01   1.947873e+02
  -1.543087e+02   1.745394e+01
  -7.361660e+01  -4.633553e+01
  -6.034400e+01  -2.914502e+01
  -5.039111e+01   3.111445e+00
  -1.147503e+02   2.190328e+00
  -5.571465e+01  -5.088146e+01
   8.569122e+00  -1.214786e+02
   1.021235e+02  -8.928647e+01
   1.243823e+02   3.595288e+01
  -9.831742e+00   1.325690e+02
  -1.294326e+02   8.515278e+01
  -2.110865e+02  -6.773785e+01
  -8.668642e+01  -2.069922e+02
   1.274879e+02  -2.451994e+02
   2.603604e+02  -1.128192e+02
   2.860854e+02   4.655836e+01
   1.032035e+02   1.694011e+02
  -1.066107e+01   1.398510e+02
  -6.266251e+01   6.602856e+01
  -8.613879e+01   6.981176e+01
  -6.318020e+01   1.092364e+02
  -8.373861e+01   8.144023e+01
  -1.671263e+02  -6.615432e+00
  -1.501348e+02  -1.622620e+02
  -2.215255e+01  -2.529438e+02
   7.884598e+01  -1.843450e+02
   1.563996e+02  -1.860183e+01
   1.655920e+02   1.439089e+02
  -2.696381e+01   1.938327e+02
  -8.184393e+01   1.245335e+02
  -6.462216e+01  -7.996350e+00
  -1.195958e+01  -7.307253e+01
   1.625474e+01   1.470223e+01
  -6.692347e+01  -2.210806e+00
  -1.136442e+02  -5.677617e+00
  -3.741119e+01  -2.937551e+01
   5.595985e+01  -7.205314e+01
   1.546783e+02   9.212673e+00
   1.212835e+02   5.698345e+01
  -7.847838e-01   8.232526e+01
  -1.209725e+02   9.855687e+01
  -1.949149e+02   4.243991e+01
  -5.469888e+01  -3.326485e+01
   2.170010e+01  -5.746115e+01
   7.561753e+01  -1.244044e+00
   4.596936e+01   8.499883e+01
  -7.358856e+01   7.281526e+01
  -3.985758e+01  -3.042210e-01
  -8.496242e+01  -1.516408e+01
  -5.458266e+01  -1.365690e+01
  -7.283541e+01  -3.766298e+01
  -1.207493e+02  -1.540952e+01
  -5.521127e+01  -1.134916e+02
   3.704312e+01  -1.219015e+02
   1.253480e+02  -1.920529e+02
   1.472999e+02  -6.008363e+01
   1.622551e+02   1.351760e+02
   5.679907e+01   1.446430e+02
  -7.493574e+01   9.956753e+01
  -7.031860e+01   3.442777e+00
   5.957678e+01   2.563994e+00
   1.654457e+02   1.404214e+01
   4.303576e+01   6.530046e+01
  -3.297675e+01   8.861781e+01
  -1.593241e+02   6.781033e+01
  -1.850920e+02  -2.426859e+01
  -3.367799e+01  -6.164863e+01
   1.203174e+02  -8.144225e+01
   3.953513e+01  -3.056742e+01
   1.561118e+01   1.769011e+01
  -1.308291e+02  -1.041122e+01
  -2.113023e+01  -1.122406e+02
   5.919509e+01  -1.839199e+02
   1.631363e+02  -6.027578e+01
   1.376722e+02   7.698260e+01
   3.489222e+01   1.902518e+02
  -5.070580e+01   1.675018e+02
  -1.211105e+02  -2.668783e+01
  -3.000904e+01  -9.001546e+01
   1.365566e+01  -8.590301e+01
   7.188166e+01  -3.173579e+00
   6.920426e+01   2.762096e+01
   5.109054e+01   2.818203e+01
  -2.890996e+01  -5.222242e+01
   3.815205e+01   1.185407e+01
   9.292696e+01   1.052201e+02
   1.547351e+01   1.066016e+02
  -7.314153e+01   8.927102e+01
  -1.362152e+02  -6.467367e+01
  -1.384826e+02  -8.144416e+01
  -3.796814e+01  -3.901642e+01
   1.021784e+02  -2.560035e+01
   6.950049e+01  -7.186028e+01
   2.614191e+00   1.990906e+01
  -8.777478e+00  -1.637050e+01
   4.853287e+01   4.048599e+01
   3.126468e+01   8.672419e+00
   3.917672e+01  -3.529472e+01
  -7.256851e+01   2.548695e+00
  -1.041498e+02  -5.095299e+01
  -3.383628e+01  -7.398947e+01
   7.599505e+01  -1.373831e+02
   2.181005e+02  -5.795720e+01
   1.708629e+02   6.683091e+01
   4.522154e+01   1.871859e+02
  -1.009429e+02   1.234247e+02
  -1.127906e+02   3.152399e+01
  -6.897763e+01  -5.261086e+01
  -6.456202e+01  -5.084858e+01
  -5.388296e+00  -2.340708e+01
   1.019433e+01  -5.593163e+01
  -7.511952e+01  -6.254079e+01
  -2.525252e+01  -9.636250e+01
  -5.690720e+00  -1.057478e+02
   1.094677e+02   5.768652e+01
   1.164939e+02   9.125308e+01
   1.630839e+01   1.265504e+02
  -4.166100e+01   2.595454e+01
  -8.534408e+01  -3.779100e+01
  -5.883617e+01  -8.223852e+01
   7.937002e+01  -4.563807e+01
   9.825325e+01  -1.496690e+01
   5.645669e+01   5.451242e+01
  -8.017275e+01   6.766790e+01
  -7.067760e+01  -2.491252e+00
   4.139884e+01  -1.464040e+01
   8.680940e+01  -1.736756e+01
   2.248326e+01   7.050612e+01
  -1.088833e+02   7.900976e+01
  -1.433209e+02   8.820455e+01
  -4.389558e+01  -5.693245e+01
   2.595993e+01  -9.198565e+01
   3.491287e+01  -1.100566e+02
   6.173590e+01  -3.009622e+01
   3.995160e+01   5.753921e+01
  -3.928158e+01   6.995416e+01
  -2.998585e+01  -3.567449e+00
  -4.394678e+00  -3.034053e+01
   2.287660e+01  -1.268748e+01
   7.520245e+01  -1.311252e+01
   2.967562e+01   3.135816e+01
   4.581078e+01   2.685790e+01
   4.177682e+00   2.501455e+00
   4.961942e+01  -2.098437e+01
  -1.616677e+01   1.628965e+01
  -2.568205e+01   3.273618e+01
  -2.948032e+00   3.439319e+01
  -5.128847e+01   2.043048e+00
  -4.687874e+01  -6.358370e+01
   2.247967e+01   6.526440e+00
   7.217297e+01   1.584585e+01
   3.494523e+01   6.030331e+01
  -1.931953e+01   3.230458e+01
  -1.091644e+02   9.489073e+00
  -9.751634e+01  -3.284802e+01
   3.107321e+01  -3.523594e+01
   4.642234e+01  -3.722628e+01
   1.474743e+01  -5.299488e+01
  -3.131952e+01   3.461205e+01
  -3.766584e+01  -1.235663e+01
  -1.876357e+01  -5.937477e+01
   7.563120e+01  -3.162103e+01
