
 $NMID
 id='ANONYMOUS ', fmtdat='(2E16.6)'
 volume=1.0
 tramp=1.0
 $END
  -4.114388e+03   4.875355e+02
  -2.666564e+03  -2.226544e+03
   4.502785e+02  -2.606396e+03
   2.068285e+03  -1.036183e+03
   9.678130e+02   4.707610e+02
  -5.113923e+02   5.742143e+02
  -9.526770e+02  -3.067458e+02
  -1.276933e+02  -9.212935e+02
   5.900107e+02  -7.175381e+02
   8.644920e+02   6.835711e+01
   4.595500e+02   6.871291e+02
  -1.456018e+02   8.562546e+02
  -5.252622e+02   1.654195e+02
  -3.576260e+02  -6.304111e+02
   2.143667e+02  -7.434801e+02
   5.483557e+02   2.526896e+01
   3.277680e+02   6.535478e+02
  -3.243142e+02   6.827579e+02
  -6.129946e+02   1.731696e+02
  -3.974709e+02  -3.549457e+02
  -5.749550e+01  -4.903319e+02
   2.329041e+02  -3.342331e+02
   2.469758e+02  -2.449241e+01
  -8.008431e+01   9.516951e+01
  -4.178032e+02  -2.140425e+02
  -1.397677e+02  -3.886744e+02
   4.960094e+02  -3.371089e+02
   8.181474e+02   9.826358e+01
   3.501340e+02   4.622359e+02
  -3.564301e+02   4.668660e+02
  -6.060455e+02  -8.609178e+01
  -3.508421e+02  -4.540006e+02
   2.856491e+02  -4.678319e+02
   5.511042e+02  -1.797221e+02
   3.561514e+02   2.333181e+02
   7.162067e+01   4.615794e+02
  -1.253903e+02   2.819195e+02
  -1.520056e+02  -1.896954e+02
   1.278649e+02  -3.485046e+02
   3.163646e+02  -2.800847e+00
   1.559412e+02   6.270084e+02
  -3.061871e+02   6.176405e+02
  -5.657243e+02   1.347682e+01
  -2.779528e+02  -5.158405e+02
   2.457281e+02  -2.884638e+02
   3.225290e+02   3.338013e+02
  -5.678367e+01   4.640133e+02
  -5.109366e+02   1.604909e+02
  -5.198415e+02  -3.909764e+02
  -1.330695e+02  -5.764810e+02
   3.633672e+02  -3.512573e+02
   5.751323e+02   9.484619e+01
   3.835329e+02   3.329261e+02
  -9.919599e+01   3.862023e+02
  -4.757821e+02   8.419550e+01
  -2.757270e+02  -1.260992e+02
   8.359678e+01  -1.019478e+02
   1.769027e+02   8.043936e+01
  -1.280459e+02   1.362124e+02
  -3.916199e+02  -9.214553e+01
  -1.983834e+02  -2.389310e+02
   1.446616e+02  -2.718645e+02
   3.889223e+02  -2.961518e+01
   2.060303e+02   7.117997e+01
  -4.957342e+01   2.874876e+02
  -3.109234e+02   3.300948e+02
  -3.130900e+02   2.088465e+02
  -3.035697e+02  -1.398415e+02
  -1.010038e+02  -4.438028e+02
   1.101807e+02  -4.034202e+02
   1.408275e+02  -1.636497e+02
   2.995767e+01   7.794454e+00
   4.483418e+01  -1.030937e+02
   2.356278e+02  -7.776239e+01
   2.308123e+02   2.959707e+01
   1.692778e+02   3.099100e+02
  -5.383651e+01   2.572093e+02
  -1.522677e+02   2.190785e+01
  -1.890956e+02  -2.387791e+02
  -2.353725e+01  -2.949131e+02
   2.215047e+02  -1.013286e+02
   3.343986e+02   1.747770e+02
   2.097839e+02   3.908594e+02
  -9.545441e+01   3.289828e+02
  -1.904395e+02   1.562380e+02
  -1.958681e+02   3.245389e+01
  -1.914777e+02  -2.621443e+01
  -2.014263e+02   5.010970e+01
  -3.676497e+02  -8.219582e+01
  -3.362490e+02  -3.097601e+02
  -3.434748e+01  -4.297418e+02
   3.852676e+02  -4.083791e+02
   4.774777e+02  -2.467817e+02
   4.006754e+02   1.053041e+02
   3.195282e+01   2.772437e+02
  -1.529061e+02   2.619874e+02
  -9.916592e+01   4.320840e+01
   6.511536e+01  -5.362067e+01
   1.894545e+02  -1.816940e+00
   1.007536e+02   1.757763e+02
  -1.173195e+02   1.871123e+02
  -1.467669e+02  -4.132032e+01
   1.109466e+00  -1.711943e+02
   1.874998e+02  -1.405152e+01
   1.657002e+02   2.440944e+02
   3.185410e+00   3.614667e+02
  -2.931431e+02   2.372414e+02
  -3.287476e+02  -8.409970e+01
  -2.907390e+02  -2.839670e+02
  -8.765712e+01  -3.375997e+02
   1.382838e+02  -1.464056e+02
   1.241405e+02  -4.292352e+01
   3.497361e+01  -3.526264e+00
  -7.684770e+01  -4.339159e+01
  -2.682610e+01  -1.157244e+02
   1.394874e+02  -8.392728e+01
   1.687332e+02  -3.596738e+00
   4.846551e+01   7.286832e+01
  -6.190897e+01   2.008015e+01
  -6.062891e+01  -7.934060e+01
   1.591028e+02  -7.313256e+01
   3.348660e+02   5.493588e+01
   2.587675e+02   1.503833e+02
   5.955225e+01   2.609464e+02
  -1.769294e+02   2.714154e+02
  -3.023191e+02   7.928005e+01
  -1.743415e+02  -4.577079e+01
   3.780925e+01  -1.398908e+02
   7.903475e+01  -7.860761e+00
  -3.423116e+01   1.329338e+02
  -2.190293e+02   6.141311e+01
  -2.133992e+02  -1.124130e+02
  -8.454058e+01  -2.070379e+02
   1.442766e+02  -1.801440e+02
   1.376280e+02  -7.603523e+01
   4.909001e+01   1.370136e+01
  -8.370853e+00  -5.963670e+00
  -2.668798e+01  -6.395357e+01
   9.708307e+01  -9.213452e+01
   2.364637e+02  -6.258884e+00
   1.508028e+02   1.304796e+02
   4.468605e+01   2.295551e+02
  -1.672826e+02   1.927048e+02
  -1.378235e+02   1.039252e+01
  -8.901061e+01  -1.145317e+02
   5.731883e+01  -7.374599e+01
   1.414779e+02  -7.905583e+01
   1.208550e+01   4.693015e+01
  -1.833207e+01  -3.030384e+01
   3.421836e+01  -7.565147e+00
   1.027934e+02   1.037206e+01
   1.159107e+02   1.257078e+02
   7.172067e+00   1.502349e+02
  -1.412041e+02   1.213927e+02
  -2.466038e+02   2.062117e+00
  -1.966649e+02  -1.592414e+02
  -1.484757e+00  -2.179057e+02
   8.581383e+01  -1.708659e+02
   1.515976e+02  -9.068453e+01
   5.938674e+01   8.510751e+01
   2.664310e+01   6.346481e+01
   6.709140e+01  -2.324202e+01
   4.794222e+01  -1.004974e+01
   5.285187e+01   6.157856e+01
   3.149401e+00   9.758815e+01
  -1.048992e+02   9.210950e+01
  -1.109658e+02  -3.468418e+01
   3.076692e+00  -1.440134e+02
   9.071173e+01  -1.104468e+02
   2.002110e+02   4.730662e+01
   8.227771e+01   2.075213e+02
  -1.048338e+02   2.101422e+02
  -2.974937e+02   5.840069e+01
  -2.302510e+02  -9.802639e+01
  -7.592442e+01  -1.920789e+02
   5.345180e+01  -1.176144e+02
   9.711517e+01  -1.039271e+02
   9.566451e+01  -9.333395e+01
   4.195415e+01  -6.718937e+01
   7.090854e+01  -6.899880e+01
   1.258275e+02   1.534465e+01
   1.044382e+02   1.973348e+02
   1.026554e+01   2.318124e+02
  -1.369555e+02   2.105552e+02
  -1.340888e+02   1.301201e+01
  -1.507849e+02  -1.513582e+02
  -3.738377e+01  -1.312000e+02
   5.053865e+01  -1.019273e+02
   6.726467e+01  -1.423162e+01
   4.559084e+01   8.072339e+01
  -5.468536e-01   4.633682e+01
   3.772776e+01   4.750643e+01
   5.509116e+01   1.691741e+01
   6.478949e+01   2.830067e+01
  -6.927909e+01   2.402104e+01
  -1.220740e+02   4.588526e+01
  -1.167711e+02  -7.206878e+01
  -6.510387e+01  -1.068459e+02
   1.444014e+02  -1.119767e+02
   1.617030e+02  -3.546856e+01
   5.993661e+01   2.868616e+01
  -8.050476e+01   5.503990e+01
  -6.861298e+01  -3.972771e+01
  -1.907354e+01  -6.614233e+01
   3.050693e+01  -7.997883e+01
   5.255324e+01   2.124762e+01
   4.551271e+01   7.184219e+01
   5.369744e+01   6.430659e+01
   3.889131e+01  -3.397069e+01
   6.414409e+01  -4.930368e+01
   6.152163e+01   6.197991e+01
  -3.548068e+01   1.581446e+02
  -9.851800e+01   1.535647e+02
  -1.557091e+02  -6.223834e+00
  -1.630547e+02  -9.008687e+01
  -1.507142e+01  -1.205914e+02
   3.587375e+01  -2.662827e+01
   4.020590e+01  -2.141416e+01
  -5.027963e+01  -9.437820e+00
  -1.549217e+02  -5.656104e+01
  -7.129714e+01  -1.267042e+02
   9.167402e+01  -7.609210e+01
   1.986014e+02  -2.673814e+01
   1.598332e+02   7.237510e+01
   5.381751e+01   9.368393e+01
  -8.685197e+01   1.237238e+02
  -6.067772e+01  -1.289224e+01
   4.453417e+01  -1.781561e+01
   5.295672e+01  -1.315700e+01
   8.034414e+00   1.040858e+02
  -7.491813e+01   1.046334e+02
  -1.291027e+02   7.626155e+01
  -1.177106e+02  -8.539715e+01
  -2.272812e+01  -1.796079e+02
   6.789965e+01  -1.312290e+02
   1.418247e+02  -1.868225e+01
   4.507147e+01   1.283084e+02
   1.976984e+01   6.582430e+01
  -5.101120e+01   1.227239e+01
  -3.003203e+01  -5.684576e+01
  -1.304204e+01  -8.019434e+00
   5.269724e+01   4.883020e+01
  -2.815207e+01  -4.464543e+01
  -3.079721e+01  -1.005324e+02
  -2.434107e+01  -1.098784e+02
   5.649305e+01  -5.564111e+01
   9.329843e+01   1.391437e+01
   1.718332e+02   3.261705e+01
  -9.732979e+00   5.384083e-01
  -6.188523e+01   1.761217e+01
  -5.933479e+01  -3.569112e+00
  -3.425557e+01   2.279719e+00
   3.027428e+01  -2.834680e+01
   1.976822e+01  -9.197806e+00
  -6.509196e+00   6.042837e+00
   1.548327e+01  -1.937070e+01
   8.971576e+01   2.771948e+00
   1.049104e+02   4.193232e+01
   3.096856e+01   5.269772e+01
  -9.957540e+01   1.454858e+02
  -1.732515e+02   9.639324e+01
  -1.325170e+02  -4.026556e+01
  -3.834468e+01  -2.426133e+02
   7.155467e+01  -1.528596e+02
   1.117378e+02  -5.532145e+01
   1.053290e+02   9.079645e+00
   9.017043e+00   8.368988e+01
  -4.068506e+00   1.818248e+01
   1.207577e+01   1.713192e+01
   2.613041e+01   4.017140e+01
   4.155727e+01   9.594821e+01
  -2.066362e+01   8.633058e+01
  -7.475002e+01  -2.568517e+01
  -6.346080e+01  -1.239437e+02
   9.249464e+00  -1.369223e+02
   1.032721e+02  -1.916789e+01
   1.168781e+02   8.666820e+01
   3.820100e+01   1.002702e+02
  -1.189576e+02   7.176055e+01
  -9.554823e+01   1.122374e+01
  -3.515956e+01  -8.703769e+01
   9.174076e+00  -4.143969e+01
   3.958806e+01  -3.698529e+01
  -1.257696e+00   6.485579e+00
  -6.264294e+01  -2.788402e+01
   1.273937e+01  -1.234867e+00
   7.312871e+01  -5.475905e+01
   1.320830e+02  -6.595867e+01
   5.454033e+01  -2.638482e+00
  -2.476174e+01   9.211403e+01
  -3.033160e+01   5.707933e+01
  -6.080945e+01   2.533143e+01
  -1.239288e+01  -3.660138e+01
   2.024765e+01  -3.965449e+01
   3.299338e+01   3.842016e+01
   3.032905e+01   5.891813e+01
   1.493657e+01   4.064952e+01
  -3.213282e+01   3.994525e+01
  -5.190735e+01  -5.814989e+01
  -2.028840e+01  -9.313386e+00
  -3.406395e+01   3.190145e+00
   1.020763e+01  -2.261567e+01
   1.614321e+01  -3.275676e+01
   3.219188e+01  -5.304081e+01
  -2.644655e+01   9.928667e+00
   1.836094e+01   1.292633e+01
  -2.613699e+01   8.598289e+01
  -2.173473e+01   6.545879e+01
  -6.125941e+01  -3.074754e+01
  -4.203318e+01  -4.613357e+01
   4.497845e+01  -8.933698e+01
   7.750940e+01  -1.488153e+01
   5.948117e+01   1.127462e+01
   1.734449e+01   2.967588e+01
  -6.418501e+01   1.981884e+01
  -3.501018e+01   1.626343e+01
   4.096532e+01   1.100235e+01
   1.853527e+01   7.160747e+00
  -4.577451e+01   8.056320e+01
  -9.902303e+01   4.344087e+01
