
 $NMID
 id='ANONYMOUS ', fmtdat='(2E16.6)'
 volume=1.0
 tramp=1.0
 $END
   4.789810e+03  -2.723469e+02
   2.772996e+03   2.588956e+03
  -7.517077e+02   2.889009e+03
  -2.294172e+03   9.110298e+02
  -9.314718e+02  -6.913313e+02
   7.095617e+02  -7.067004e+02
   1.010943e+03   3.395085e+02
   2.586456e+00   1.131398e+03
  -8.337876e+02   8.220033e+02
  -9.385521e+02  -1.121388e+02
  -4.899982e+02  -8.741737e+02
   2.843614e+02  -8.920922e+02
   6.206069e+02  -1.409033e+02
   4.433867e+02   7.890612e+02
  -3.362463e+02   7.795503e+02
  -6.646526e+02   3.114080e+00
  -3.207151e+02  -8.024789e+02
   3.274018e+02  -7.599201e+02
   6.448564e+02  -1.527541e+02
   4.481581e+02   3.796455e+02
   4.055647e+01   4.789852e+02
  -2.771015e+02   2.936749e+02
  -2.215827e+02   2.143329e+01
   1.354796e+02  -4.392100e+01
   4.471804e+02   1.247985e+02
   1.536484e+02   4.279578e+02
  -5.004515e+02   4.487828e+02
  -8.575984e+02  -9.976247e+01
  -4.372205e+02  -5.999228e+02
   4.286107e+02  -4.606200e+02
   7.323903e+02   1.045326e+02
   4.221251e+02   5.487906e+02
  -3.115669e+02   5.615677e+02
  -6.385070e+02   2.293286e+02
  -4.694072e+02  -2.376642e+02
  -7.391958e+01  -4.703531e+02
   1.747021e+02  -2.646368e+02
   1.952862e+02   2.665946e+02
  -1.648484e+02   4.580268e+02
  -4.796548e+02   4.488828e+01
  -3.055210e+02  -7.168435e+02
   3.495290e+02  -7.613581e+02
   6.794102e+02  -6.778194e+01
   2.546680e+02   5.342531e+02
  -2.776329e+02   3.531436e+02
  -4.348529e+02  -3.385603e+02
   1.402250e+01  -6.277249e+02
   6.063878e+02  -1.907678e+02
   6.757531e+02   4.333571e+02
   2.236332e+02   6.103409e+02
  -3.412273e+02   3.806000e+02
  -6.911786e+02  -7.404380e+01
  -4.233380e+02  -3.545203e+02
   9.780351e+01  -3.947292e+02
   4.441209e+02  -1.263921e+02
   2.584526e+02   1.324394e+02
  -8.546274e+01   1.035361e+02
  -1.347418e+02  -1.304724e+02
   1.544801e+02  -1.955028e+02
   3.866747e+02   4.180020e+01
   2.379151e+02   2.913567e+02
  -1.631609e+02   2.510287e+02
  -3.302755e+02   1.068571e+02
  -2.320525e+02  -5.878221e+01
   2.055563e+01  -2.343432e+02
   2.870426e+02  -3.620476e+02
   3.390931e+02  -2.229467e+02
   3.314105e+02   1.610655e+02
   1.103950e+02   4.609457e+02
  -1.243039e+02   4.613107e+02
  -1.447026e+02   1.421234e+02
  -5.902200e+01  -2.025079e+01
  -7.609646e+01   6.457748e+01
  -2.383435e+02   1.352041e+02
  -3.131051e+02  -5.635531e+01
  -1.615133e+02  -2.851674e+02
   1.040937e+02  -2.983260e+02
   2.466646e+02   1.511158e+00
   2.177136e+02   2.423871e+02
   2.703155e+01   3.492083e+02
  -2.517330e+02   1.451898e+02
  -4.038463e+02  -2.097728e+02
  -1.631583e+02  -3.693084e+02
   8.378030e+01  -3.084161e+02
   2.062203e+02  -1.607485e+02
   1.537077e+02  -2.394476e+01
   8.826373e+01  -3.605702e+01
   2.586373e+02  -9.674633e+01
   4.553665e+02   6.519359e+01
   3.490466e+02   2.516809e+02
   4.201851e+01   4.403123e+02
  -3.669181e+02   4.875829e+02
  -5.046884e+02   2.575144e+02
  -3.636091e+02  -1.009549e+02
  -8.818110e+01  -3.165718e+02
   1.299779e+02  -2.989705e+02
   1.125327e+02  -1.467013e+01
  -1.705952e+02   1.897004e+02
  -2.256332e+02  -8.224228e+00
  -6.790775e+01  -2.481487e+02
   1.759948e+02  -1.690517e+02
   1.615814e+02   3.471837e+01
   2.010058e+01   1.993757e+02
  -2.017104e+02   4.900725e+01
  -2.034695e+02  -2.507432e+02
   2.729136e+01  -4.145134e+02
   3.023765e+02  -2.180887e+02
   3.686933e+02   7.646439e+01
   3.105366e+02   3.004599e+02
   1.169855e+02   2.674212e+02
  -1.541218e+02   1.560943e+02
  -1.652431e+02   5.042908e+01
  -4.857083e+01  -6.264006e+01
   8.167759e+01   2.099707e+01
   6.756608e+01   1.272754e+02
  -9.839903e+01   1.358043e+02
  -1.808453e+02  -2.323030e+01
  -6.462897e+01  -7.813202e+01
   8.364371e+01  -5.187687e+01
   6.607465e+01   8.884717e+01
  -8.808645e+01   1.249263e+02
  -2.878608e+02   3.899420e+01
  -2.931439e+02  -1.793414e+02
  -8.740720e+01  -2.433820e+02
   1.906956e+02  -2.730109e+02
   2.880231e+02  -9.241516e+01
   1.378827e+02   8.187340e+01
  -3.497429e+01   1.257813e+02
  -4.993806e+01   5.401435e+01
   3.022052e+01  -1.058180e+02
   2.347739e+02  -8.242101e+01
   2.321529e+02   7.560221e+01
   8.062708e+01   1.923662e+02
  -8.533574e+01   1.842546e+02
  -1.449786e+02   6.313722e+01
  -6.341089e+01   9.108617e+00
   1.981482e+01   9.321168e+00
   2.223536e+01   6.349857e+01
  -5.404092e+01   6.939068e+01
  -2.008507e+02   5.518225e+01
  -1.963615e+02  -1.212066e+02
  -4.392237e+01  -2.410159e+02
   1.887442e+02  -1.671091e+02
   1.833934e+02  -3.058035e+01
   3.895269e+01   1.221005e+02
  -7.425344e+01   1.217777e+02
  -6.678277e+01   5.527980e+01
  -5.748483e+01  -3.707484e+01
   4.946861e+00   1.495970e+01
  -1.629095e+01   3.153672e+01
  -9.206580e+01  -1.695119e+01
  -4.650704e+01  -7.237143e+01
  -4.292563e+01  -1.269396e+02
   1.289792e+02  -2.041566e+02
   2.681065e+02  -6.426541e+01
   2.116379e+02   1.542024e+02
   7.183643e+01   2.987619e+02
  -1.226376e+02   2.018214e+02
  -1.339306e+02   4.099344e+01
  -8.131260e+01  -6.786425e+01
  -8.134186e+01  -8.691418e+00
  -6.546313e+01   5.480527e+01
  -8.548263e+01   5.945987e+00
  -2.316502e+01  -8.511489e+01
   5.600461e+01  -8.378314e+01
   1.175613e+02  -1.075425e+02
   1.438272e+02   2.167834e+01
  -1.049607e+01   1.472988e+02
  -1.526309e+02   8.611990e+01
  -2.077982e+02  -1.045509e+02
  -1.032167e+02  -1.779518e+02
   9.288641e+01  -2.141570e+02
   2.963456e+02  -1.193429e+02
   2.507172e+02   1.074069e+02
   1.407067e+02   2.004835e+02
  -2.223744e+01   1.484000e+02
  -7.490866e+01   1.135614e+02
  -7.078641e+01   5.759491e+01
  -7.484053e+01   1.000846e+02
  -1.060366e+02   1.020245e+02
  -1.079602e+02   2.366181e+01
  -1.174710e+02  -1.530301e+02
  -5.595252e+00  -2.282790e+02
   7.034204e+01  -1.608079e+02
   1.711330e+02   2.467108e+01
   1.276946e+02   1.299952e+02
   1.100366e+01   1.554523e+02
  -2.648742e+01   3.924157e+01
  -6.759085e+01   1.741553e+01
   3.591470e+01  -1.409673e+01
   3.374738e+00  -5.554800e+01
  -3.967252e+01  -1.905254e+01
  -7.011809e+01  -4.690137e+01
  -7.238389e+01  -5.680526e-01
   5.329387e+01  -5.309576e+01
   2.001430e+02  -9.564653e+00
   1.542074e+02   3.367228e+01
   3.834080e+01   1.384502e+02
  -1.389223e+02   1.108840e+02
  -1.570193e+02  -8.417363e+00
  -8.488072e+01  -4.585304e+01
   6.153033e+01  -1.926210e+01
   8.276124e+01   1.006098e+01
  -1.378970e+01   1.144054e+02
  -7.886779e+01   7.004934e+01
  -6.771963e+01   3.220865e+01
  -6.374911e+01  -3.651779e+01
  -6.861737e+01  -3.945992e+01
  -5.194899e+01  -2.379745e+01
  -3.911834e+01  -1.221048e+01
   2.418933e+00  -5.647982e+01
   4.192168e+01  -1.632304e+02
   6.451664e+01  -1.536852e+02
   2.022258e+02  -7.835974e+01
   1.637044e+02   6.922128e+01
  -7.352892e+00   1.557848e+02
  -1.272833e+02   7.711162e+01
  -6.096209e+01   8.930954e+00
   3.958016e+01  -2.228885e+01
   1.369464e+02   1.970763e+01
   1.098821e+02   9.156085e+01
  -6.077179e+01   6.845778e+01
  -2.203465e+02   7.455696e+01
  -1.657279e+02  -2.693353e+01
  -2.685966e+01  -5.561554e+01
   1.075681e+02  -7.966886e+01
   6.762009e+01  -5.428603e+01
  -2.321701e+01   2.137115e+01
  -1.240438e+02  -1.189004e+01
  -2.581064e+01  -1.185932e+02
   1.156974e+02  -1.770668e+02
   1.566437e+02  -4.828653e+01
   1.667543e+02   1.308312e+02
   2.190399e+01   2.568429e+02
  -6.206590e+01   1.112139e+02
  -1.011156e+02  -4.771402e+01
  -1.302607e+02  -1.559226e+02
  -6.699251e+00  -8.218703e+01
   4.465352e+01   7.275935e+00
   4.249892e+01   2.111902e+01
   2.725225e+01   1.471477e+01
  -2.077746e+01  -1.234995e+01
   1.004063e+01   4.087069e+01
   9.819006e+01   7.398734e+01
   2.310712e+01   1.239195e+02
  -7.376504e+01   4.368750e+01
  -1.471090e+02  -5.464559e+01
  -1.249154e+02  -7.968124e+01
   2.895544e+00  -6.363107e+01
   8.308786e+01   2.038744e+01
   1.382281e+02  -3.884627e+00
  -2.879678e+00   7.837110e+00
  -3.313358e+01   2.615792e+01
  -2.369590e+01   1.336667e+01
   2.640858e+01  -3.917720e+01
  -8.715282e+00  -3.632244e+01
  -8.024967e+01  -3.632756e+01
  -9.160119e+01   8.252542e+00
  -1.769030e+01  -7.970271e+01
   1.130966e+02  -6.240533e+01
   2.214601e+02  -1.126803e+02
   1.279930e+02   8.126608e+01
   5.837365e+01   1.558490e+02
  -1.001729e+02   1.576381e+02
  -8.642933e+01   9.132155e+01
  -7.750001e+01  -6.145780e+01
  -1.215818e+01  -1.582897e+01
   1.488346e+01  -2.000259e+01
  -1.712315e+01   2.647427e+01
  -3.423614e+01  -4.877414e+01
  -5.832476e+01  -1.171710e+02
   2.726521e+01  -7.667242e+01
   7.681840e+01  -3.329931e+01
   1.013331e+02   1.123479e+02
   1.582515e+01   1.247636e+02
  -7.002897e+01   3.718635e+01
  -1.129538e+02  -8.481717e+01
  -7.045685e+01  -1.378509e+02
   8.094663e+01  -7.323079e+01
   1.497992e+02   7.786257e-01
   5.462671e+01   7.303542e+01
  -5.119515e-01   4.574345e+01
  -5.224766e+01   6.216349e+01
   3.255035e+01   1.224654e+01
   4.577757e+01  -3.606671e+00
  -1.420541e+00   2.776748e+01
  -8.491145e+01   6.396898e+01
  -9.832739e+01   4.795483e+01
  -6.834700e+01  -1.554144e+01
   2.446385e+01  -8.427047e+01
   2.971634e+01  -1.114400e+02
   3.803910e+01   2.963316e+00
  -4.015015e+01   3.417809e+01
  -4.179431e+01   2.364805e+01
  -3.085537e+01   3.073323e+01
  -2.065060e+01  -8.139058e+01
   1.377632e+01  -2.269438e+01
   2.552481e+01  -2.072434e+01
   3.411655e+01  -5.769860e-01
  -5.399315e+00   2.251628e+00
   3.638870e+00   3.644815e+01
  -1.715454e+01  -4.769187e+01
   1.107282e+01   2.931150e+01
  -2.460024e+01   2.951792e+01
  -2.819246e+01   3.072362e+01
  -3.898316e+01  -7.517886e+01
   3.370154e+01  -6.807855e+01
   5.123541e+01   1.084915e+01
   3.968636e+01   5.485816e+00
   2.064684e+01   6.056712e+01
  -3.159869e+01   6.528736e+01
  -1.237764e+02   4.128344e+00
  -5.424598e+01  -3.592759e+01
  -1.643248e+00  -2.094494e+01
   3.511920e+01  -1.996497e+01
   1.376971e+01   1.024530e+01
  -4.613605e+01   1.312320e+01
  -2.633665e+01  -2.989492e+01
   1.649423e+01  -2.811650e+01
   1.132247e+02  -2.552342e+01
