
 $NMID
 id='ANONYMOUS ', fmtdat='(2E16.6)'
 volume=1.0
 tramp=1.0
 $END
   3.408703e+03  -9.310578e+01
   2.456488e+03   1.750239e+03
  -1.415866e+01   2.214284e+03
  -1.556058e+03   1.208919e+03
  -1.091729e+03   6.191079e+01
   1.852967e+02  -3.827768e+02
   4.802022e+02   1.464311e+02
   9.807087e+01   6.355417e+02
  -4.461606e+02   6.225012e+02
  -7.097709e+02   5.692678e+01
  -4.649649e+02  -5.113193e+02
  -9.007067e+01  -7.131887e+02
   3.682122e+02  -2.289021e+02
   3.220427e+02   4.309342e+02
  -3.123442e+01   5.723472e+02
  -3.978740e+02   1.011774e+02
  -2.913353e+02  -5.416164e+02
   1.059057e+02  -6.115218e+02
   5.205389e+02  -2.299976e+02
   4.797858e+02   1.648724e+02
   1.312238e+02   4.112240e+02
  -1.315590e+02   2.680838e+02
  -1.554721e+02   6.050568e+01
   1.343789e+02   4.593302e+01
   2.856031e+02   2.461513e+02
   8.823210e+01   3.278751e+02
  -4.299762e+02   2.569838e+02
  -6.232469e+02  -1.410013e+02
  -2.849035e+02  -3.908703e+02
   3.041809e+02  -2.715519e+02
   5.895775e+02   1.550428e+02
   2.163707e+02   3.560987e+02
  -2.397554e+02   3.746808e+02
  -4.267925e+02   1.929190e+02
  -3.370963e+02  -1.356856e+02
  -1.035620e+02  -3.717447e+02
   6.528166e+01  -1.921386e+02
  -3.386948e+00   5.486000e+01
  -1.660012e+02   2.201597e+02
  -2.406524e+02  -8.630457e+01
  -1.643365e+01  -5.616110e+02
   2.318787e+02  -4.656554e+02
   3.922814e+02  -1.350967e+01
   1.423593e+02   3.728901e+02
  -8.903843e+01   2.428928e+02
  -1.983796e+02  -2.558586e+02
   1.009739e+02  -4.042458e+02
   5.002731e+02  -7.715041e+01
   5.353825e+02   3.706593e+02
   1.349171e+02   5.197075e+02
  -3.211486e+02   3.708224e+02
  -5.421218e+02  -9.877942e+01
  -3.810638e+02  -2.740999e+02
   5.226154e+01  -2.767201e+02
   2.942095e+02  -6.410535e+01
   2.587670e+02   4.303905e+01
  -8.780843e+00   5.362651e+01
  -7.533574e+01  -5.659943e+01
   1.140547e+02  -1.085035e+02
   2.452890e+02   2.094165e+01
   1.405311e+02   2.153639e+02
  -1.345306e+02   2.718351e+02
  -2.927596e+02   1.816649e+02
  -2.854667e+02  -6.836678e+01
   2.706181e+01  -2.731078e+02
   2.489273e+02  -3.687687e+02
   3.678771e+02  -1.897076e+02
   2.867644e+02   1.428320e+02
   8.684564e+01   3.559404e+02
  -5.177158e+01   3.173833e+02
  -2.935517e+01   1.839633e+02
  -7.639274e+01   8.994054e+01
  -7.227320e+01   1.207150e+02
  -2.268474e+02   7.043121e+01
  -2.480193e+02  -1.244846e+02
  -4.484215e+01  -2.643529e+02
   4.892544e+01  -2.080310e+02
   1.732184e+02  -9.497925e+00
   1.865528e+02   2.743547e+02
  -6.915301e+01   2.562162e+02
  -2.649184e+02   8.753896e+01
  -2.920416e+02  -1.773020e+02
  -1.275134e+02  -3.350455e+02
   9.555544e+01  -2.781713e+02
   2.152453e+02  -1.086118e+02
   1.560397e+02  -2.195355e+00
   1.951162e+02  -1.819203e+01
   2.814419e+02   1.712959e+00
   3.712679e+02   1.194373e+02
   3.276887e+02   2.863626e+02
   4.796326e+00   4.808616e+02
  -4.278680e+02   3.623638e+02
  -4.764218e+02   1.598559e+02
  -3.010139e+02  -8.719222e+01
  -9.624523e+00  -2.282954e+02
   1.084479e+02  -1.803631e+02
   1.222006e+01  -1.019985e+01
  -1.000636e+02   4.641159e+01
  -1.417038e+02  -5.827690e+01
   5.933622e+00  -1.518330e+02
   1.026011e+02  -1.519632e+02
   1.397487e+02   5.734029e+01
  -2.790819e+01   1.435227e+02
  -1.890884e+02   2.883950e+00
  -1.941966e+02  -1.825038e+02
   6.270775e+01  -3.649565e+02
   2.834314e+02  -1.871924e+02
   3.732376e+02   1.017556e+02
   2.781870e+02   2.536663e+02
   6.183596e+01   2.341333e+02
  -1.382570e+02   1.189127e+02
  -1.458792e+02   1.602732e+00
  -2.176228e+01  -4.343478e+01
   4.999912e+01   6.362383e+01
   8.615879e+00   8.466239e+01
  -1.068037e+02   6.355896e+01
  -1.511805e+02  -5.012595e+01
  -1.765985e+01  -7.280639e+01
   5.729194e+01   7.090923e+00
   7.533594e+01   7.522604e+01
  -1.509717e+02   1.527122e+02
  -2.745526e+02   9.496836e-01
  -2.184669e+02  -1.572696e+02
  -4.255403e+01  -2.782594e+02
   1.800207e+02  -2.930543e+02
   2.776891e+02  -1.109737e+02
   1.601508e+02   4.215290e+01
  -3.179238e+01   7.420751e+01
  -8.473606e+01   3.708825e+01
   4.371644e+01  -8.267288e+01
   1.525563e+02  -1.071450e+02
   2.087306e+02   1.208299e+02
   4.228307e+01   1.751790e+02
  -8.128735e+01   1.356485e+02
  -1.326955e+02   4.455060e+01
  -6.825666e+01  -4.180587e+01
   8.646649e+01   1.457894e+01
   4.185689e+01   1.042121e+02
  -7.896211e+01   1.310517e+02
  -2.325070e+02   2.264213e+01
  -1.670760e+02  -1.196369e+02
  -2.385953e+01  -2.599740e+02
   1.341862e+02  -1.429776e+02
   1.916337e+02  -2.290048e+01
   5.955410e+01   1.269353e+02
  -1.180904e+02   1.417735e+02
  -1.021835e+02   4.932025e+01
  -1.402420e+01  -2.869109e+01
   5.946077e+01  -3.009201e+01
  -2.054616e+01   2.579828e+01
  -4.727393e+01  -2.939674e+01
  -8.439532e+01  -7.609794e+01
   3.679539e+00  -1.584173e+02
   1.310207e+02  -1.966840e+02
   2.282490e+02   2.237279e+01
   2.396686e+02   1.203767e+02
   4.908420e+01   2.706814e+02
  -1.089707e+02   1.887881e+02
  -1.067153e+02   4.170977e+01
  -9.439234e+01   9.113164e+00
  -2.583268e+01  -7.558738e+01
  -5.372458e+01   5.474281e+01
  -9.837677e+01   1.641222e+01
  -5.928411e+01  -5.527109e+01
   1.927927e+00  -9.118874e+01
   9.229010e+01  -3.823873e+01
   1.076314e+02   2.803520e+01
   1.384271e+00   1.390526e+02
  -1.460585e+02   9.498621e+01
  -1.898675e+02  -5.035094e+01
  -1.233130e+02  -2.182708e+02
   1.140914e+02  -2.430478e+02
   2.688365e+02  -1.216586e+02
   2.581360e+02   9.524712e+01
   1.225915e+02   1.589802e+02
  -2.733090e+01   1.696877e+02
  -1.151612e+02   5.887814e+01
  -1.040738e+02   7.274272e+01
  -6.068155e+01   6.561166e+01
  -7.070481e+01   6.850266e+01
  -1.281230e+02  -3.384839e+01
  -1.413342e+02  -1.706907e+02
  -3.097039e+01  -2.279029e+02
   9.250896e+01  -1.612280e+02
   1.567270e+02   1.935570e+01
   1.497542e+02   1.128613e+02
  -1.085837e+00   1.523187e+02
  -2.818169e+01   8.708203e+01
  -5.178352e+01   4.497266e+01
  -2.579273e+01  -1.075292e+02
   2.446317e+01  -4.568463e+01
  -2.876355e+01  -2.159368e+01
  -8.439214e+01  -5.917312e+01
  -7.851199e+01  -6.847271e+01
   9.286345e+01  -6.519632e+01
   1.550526e+02  -3.173435e+01
   1.867733e+02   7.884521e+01
   9.470579e+00   1.172911e+02
  -1.490187e+02   1.073901e+02
  -1.398280e+02   3.133916e+01
  -3.910787e+01  -6.883500e+01
   3.661647e+01  -5.339785e+01
   6.231452e+01   2.389054e+01
  -2.213159e+01   2.895104e+01
  -4.505853e+01   6.005641e+01
  -6.077712e+01  -6.635619e+00
  -5.281061e+01  -6.807151e+01
  -6.099168e+01  -2.090176e+01
  -6.363816e+01   3.926752e+01
  -7.752238e+01   4.298647e+01
  -1.075190e+02  -7.011297e+01
   5.622629e+00  -1.463173e+02
   1.258803e+02  -1.721238e+02
   1.580656e+02  -3.448555e+01
   1.537287e+02   1.259692e+02
   4.332718e+00   1.391743e+02
  -1.382945e+02   7.536661e+01
  -1.005340e+02  -3.237355e+00
   7.870366e+01  -4.844464e+01
   1.545110e+02   5.193010e+01
   4.861944e+01   7.127890e+01
  -6.572007e+01   1.378928e+02
  -1.909610e+02   6.095638e+01
  -1.476488e+02  -4.804826e+01
  -3.151184e+01  -8.308529e+01
   1.073471e+02  -4.362322e+01
   4.696154e+01   1.607467e+01
  -3.348129e+01   4.221406e+01
  -1.183617e+02  -4.486493e+01
  -1.846583e+01  -1.509986e+02
   7.179673e+01  -1.760339e+02
   1.851416e+02  -8.780590e+01
   1.155397e+02   4.256723e+01
   2.038100e+00   1.706697e+02
  -5.248917e+01   1.504845e+02
  -1.355457e+02  -9.838380e+00
  -2.070671e+01  -1.241190e+02
   2.503622e+00  -9.259916e+01
   7.269126e+01  -1.154498e+01
   6.900229e+01   1.996811e+01
   4.562718e+00  -4.688242e+00
  -2.167611e+01  -2.285298e+01
   4.324530e+01   1.537672e+01
   4.511091e+01   9.235917e+01
   3.272557e+01   7.344156e+01
  -6.330875e+01   5.844693e+01
  -1.560535e+02  -2.946885e+01
  -8.463830e+01  -7.895395e+01
  -2.567268e+01  -3.570105e+01
   1.095149e+02  -4.940139e+01
   8.869461e+01   1.878041e+00
   8.136681e+01  -1.511407e+01
  -2.488204e+01   1.333110e+01
  -6.339148e+01   3.400048e+00
   3.707810e+01  -1.942518e+01
   2.844901e+01  -1.066053e+01
  -7.723082e+01   2.144568e+01
  -9.393193e+01  -5.429087e+01
  -3.130931e+00  -4.998668e+01
   9.736217e+01  -1.485999e+02
   2.022196e+02  -3.494121e+01
   1.752416e+02   4.554868e+01
   7.491784e+01   1.670494e+02
  -6.028774e+01   1.722554e+02
  -1.252756e+02   1.034655e+02
  -1.126525e+02  -7.561908e-01
  -3.580486e+01  -2.866944e+01
  -1.395070e+01   2.019363e+01
   2.860398e-01  -1.897691e+01
  -4.258976e+01  -6.142875e+01
  -6.253881e+01  -9.238685e+01
   7.171607e+00  -9.989143e+01
   7.587186e+01  -8.995996e+00
   9.519766e+01   4.716535e+01
  -9.940323e+00   1.371661e+02
  -1.007509e+02   2.272113e+01
  -1.461283e+02  -4.069900e+01
  -3.511046e+01  -1.049230e+02
   2.598639e+01  -6.804830e+01
   8.226755e+01   2.543432e+01
   2.193748e+01   4.945176e+01
  -3.388168e+01   5.254459e+01
  -2.653492e+01   6.997521e+00
   2.794813e+01  -5.299721e+00
   5.678535e+01  -2.342528e+01
   1.030887e+01   1.100953e+01
  -6.017599e+01   6.001640e+01
  -8.176020e+01   5.616069e+01
  -3.177878e+01  -3.100997e+01
   1.482230e+01  -6.412640e+01
   9.447895e+01  -9.429720e+01
   2.951313e+01  -1.046672e+01
   1.288857e+01   1.133510e+01
  -2.189868e+01   3.008540e+01
  -2.140500e+01  -3.946690e+01
  -3.904980e+01  -6.438997e+01
  -3.423670e+01  -4.771600e+01
   2.175721e+01  -5.130177e+01
   6.065895e+01   2.154469e+01
   4.314449e+01  -5.609846e+01
   2.787481e+01  -4.706166e+01
   4.400164e+01   4.910362e+00
  -1.522111e+01   2.687166e+01
  -3.608894e+01   1.035709e+02
  -1.436388e+01   4.734922e+01
  -5.443931e+01  -3.168923e+01
  -2.171358e+01  -3.649577e+01
   2.378630e+01  -4.258628e+01
   6.293469e+01   9.462028e+01
   1.587689e+01   3.553933e+01
  -6.020359e+01  -6.303105e+00
  -7.323905e+01   4.665379e+00
  -4.290569e+00  -4.325876e+01
  -4.704901e+01  -4.819796e+01
   8.952456e+01  -3.216789e+01
   3.929335e+01  -3.301830e+01
  -1.189410e+01   2.228085e+01
  -2.786263e+01   1.323756e+01
  -5.027781e+00  -2.346196e+01
   1.233625e+02  -7.020224e+01
