
 $NMID
 id='ANONYMOUS ', fmtdat='(2E16.6)'
 volume=1.0
 tramp=1.0
 $END
  -2.982008e+03   2.571628e+02
  -1.870980e+03  -1.575126e+03
  -2.681593e+01  -1.748842e+03
   1.060505e+03  -8.892020e+02
   7.808396e+02   4.161004e+01
  -2.680165e+02   2.604759e+02
  -5.031816e+02  -2.036196e+02
  -2.348497e+01  -5.927545e+02
   3.573953e+02  -6.485091e+02
   5.822726e+02  -1.052578e+02
   4.553340e+02   5.016266e+02
   9.379028e+00   6.418601e+02
  -3.784370e+02   1.883225e+02
  -3.458860e+02  -4.293235e+02
   8.959585e+01  -5.513664e+02
   4.206819e+02  -5.785533e+01
   2.474238e+02   4.974888e+02
  -9.558148e+01   5.363996e+02
  -3.786255e+02   2.276164e+02
  -3.396429e+02  -1.939778e+02
  -8.822585e+01  -3.521025e+02
   1.252338e+02  -2.372473e+02
   1.555471e+02   3.995406e+01
  -1.290859e+02   9.538361e+01
  -2.829302e+02  -1.191402e+02
  -9.132550e+01  -3.347629e+02
   3.495313e+02  -2.690254e+02
   5.508717e+02   4.132094e+01
   2.588543e+02   2.950617e+02
  -2.494332e+02   3.393969e+02
  -4.651100e+02  -5.990599e+01
  -2.087448e+02  -2.933196e+02
   1.731366e+02  -3.338398e+02
   3.793912e+02  -1.935088e+02
   3.566550e+02   1.648768e+02
   1.146396e+02   3.235867e+02
  -8.859399e+01   2.197206e+02
  -8.614899e+01  -8.684321e+01
   1.229805e+02  -2.087365e+02
   3.006541e+02  -6.159261e+00
   2.132585e+02   4.315411e+02
  -2.268559e+02   4.848449e+02
  -3.844390e+02   4.363700e+01
  -1.730938e+02  -3.607944e+02
   1.535369e+02  -2.275243e+02
   2.482822e+02   1.802186e+02
  -1.694488e+00   3.788767e+02
  -3.718079e+02   1.334303e+02
  -4.741213e+02  -2.174570e+02
  -1.540528e+02  -3.681634e+02
   2.281103e+02  -2.767188e+02
   4.300925e+02   5.637606e+01
   3.257762e+02   2.293088e+02
  -6.849454e+01   2.642338e+02
  -3.134216e+02   9.859116e+01
  -1.632856e+02  -4.660380e+01
   2.321998e+01  -2.953466e+01
   4.127442e+01   6.026631e+01
  -9.002110e+01   1.143746e+02
  -2.160800e+02  -7.012974e+01
  -1.474390e+02  -1.581607e+02
   1.009770e+02  -1.875120e+02
   3.189566e+02  -1.171847e+02
   2.052344e+02   8.393148e+01
  -6.404787e+01   2.403043e+02
  -1.541356e+02   2.960222e+02
  -2.530739e+02   2.165811e+02
  -2.119723e+02  -1.010197e+02
  -9.361059e+01  -3.088009e+02
   5.716040e+01  -3.189490e+02
   7.487515e+01  -1.590512e+02
   1.393989e+01  -2.995041e+01
   5.753333e+01  -4.455941e+01
   1.256332e+02  -8.453793e+01
   1.742272e+02   5.868189e+01
   1.163312e+02   1.467061e+02
  -8.719956e+01   1.882353e+02
  -1.686702e+02   1.836480e+01
  -1.628952e+02  -1.796699e+02
  -8.028520e+00  -2.219934e+02
   1.908111e+02  -7.211245e+01
   2.990160e+02   1.332165e+02
   1.594614e+02   2.205006e+02
  -3.436522e+01   2.333737e+02
  -1.140998e+02   1.521998e+02
  -1.022834e+02  -1.036315e+01
  -9.316909e+01   3.657550e+01
  -1.753924e+02   1.115931e+02
  -3.734766e+02  -1.401286e+01
  -2.864922e+02  -2.060636e+02
  -2.707900e+01  -3.155909e+02
   2.687686e+02  -3.704586e+02
   3.892523e+02  -1.828970e+02
   2.356654e+02   7.024866e+01
   1.382938e+01   2.017001e+02
  -1.192150e+02   1.336775e+02
  -2.885701e+01   1.214989e+00
   6.653361e+01  -5.036060e+01
   9.068790e+01   1.779310e+01
   4.641078e+01   1.194373e+02
  -7.774545e+01   1.353111e+02
  -1.642985e+02  -3.149252e+01
  -2.513881e+01  -1.284412e+02
   1.453109e+02  -3.876774e+01
   1.425912e+02   1.501198e+02
   1.119951e+01   2.662132e+02
  -1.478656e+02   1.566029e+02
  -2.518468e+02  -2.790161e+01
  -2.098049e+02  -2.081053e+02
  -7.375577e+01  -2.252899e+02
   4.449856e+01  -1.204450e+02
   1.270812e+02  -5.120699e+01
   5.145684e+01   3.090541e+00
  -6.085215e+01  -2.946562e+01
  -2.919094e+01  -1.090702e+02
   9.765918e+01  -5.427317e+01
   1.572833e+02   7.480262e+00
   2.400650e+01   7.658883e+01
  -8.423309e+01   3.832829e+01
  -4.164175e+01  -1.655398e+01
   1.045014e+02  -1.389094e+02
   2.549996e+02  -1.803609e+01
   2.162222e+02   1.210570e+02
   5.716285e+01   2.307651e+02
  -1.585551e+02   1.728748e+02
  -1.689527e+02   1.048518e+02
  -1.126733e+02  -7.617221e+01
  -5.470889e+00  -9.461424e+01
   1.003492e+02  -1.531405e+01
  -3.433370e+01   3.950930e+01
  -1.568172e+02   6.525410e+01
  -1.199221e+02  -1.492113e+01
  -7.506250e+01  -1.220025e+02
   8.535226e+01  -8.578977e+01
   1.084323e+02  -2.534484e+01
   2.477630e+01   3.407062e+01
   4.112339e+01   5.687098e+01
  -1.991033e+01  -8.619839e+01
   6.812620e+01  -1.182676e+02
   1.878479e+02  -3.180861e+01
   1.559696e+02   8.626154e+01
   5.743278e+01   1.680437e+02
  -9.740905e+01   1.375728e+02
  -1.633246e+02  -1.036586e+00
  -5.051114e+01  -7.957679e+01
   2.387350e+01  -7.377220e+01
   9.678388e+01  -5.941718e+01
   6.074822e+00   1.106905e+01
   9.620564e+00   2.194829e+01
   1.602433e+01  -1.499695e+01
   6.779049e+01  -2.631465e+01
   7.364901e+01   2.880685e+01
   3.755951e+01   1.268155e+02
  -9.020625e+01   1.454491e+02
  -1.896681e+02   5.771879e+01
  -1.412937e+02  -1.475995e+02
  -6.565689e+01  -2.114788e+02
   6.835519e+01  -1.360026e+02
   1.344282e+02  -2.662962e+01
   3.291781e+01   3.852047e+01
  -2.326893e+00   3.577301e+01
   3.249195e+01  -2.870438e+01
   2.877452e+01  -2.897063e+01
   5.029900e+01   4.585921e+01
  -2.189991e+01   5.113517e+01
  -7.904457e+01   9.112388e+01
  -1.187587e+02  -1.437227e+01
  -6.059011e+00  -9.684650e+01
   8.461589e+01  -9.816838e+01
   1.887021e+02   4.440539e+01
   7.447994e+01   1.262374e+02
  -5.060363e+01   2.023135e+02
  -2.129779e+02   7.445422e+01
  -2.114710e+02  -7.081702e+00
  -7.810404e+01  -1.164843e+02
   1.883977e+01  -9.991844e+01
   5.912819e+01  -8.688884e+01
   3.465806e+01  -9.822797e+01
   2.806276e+01  -1.220041e+02
   5.414268e+01  -8.911915e+01
   6.455058e+01   1.103264e+01
   1.144625e+02   8.754630e+01
   4.998058e+01   2.195438e+02
  -6.389851e+01   1.146392e+02
  -1.142209e+02   6.320938e+01
  -1.324988e+02  -1.020897e+02
  -1.188075e+01  -1.028408e+02
   6.065700e+01  -1.004975e+02
   2.121378e+01  -3.451212e+01
   3.434561e+01   2.670075e+01
  -1.735535e+01   3.559214e+01
  -3.513404e+01   2.081058e+01
   6.788693e+01  -2.075406e+01
   1.990565e+01  -5.725252e+00
  -5.277313e+01   5.571928e+01
  -9.092060e+01   4.869741e+01
  -8.265238e+01  -4.693171e+01
   3.228920e+00  -3.354130e+01
   6.776004e+01  -5.447877e+01
   1.191058e+02  -9.614258e+00
   3.206243e+01   4.537747e+01
  -1.562787e+01   1.799118e+01
  -3.238372e+01  -5.018010e+01
  -2.789843e+01  -3.153682e+01
   5.844690e+01  -4.042041e+01
   5.960193e+01  -6.955506e+00
   6.635697e+00   6.085167e+01
   3.710993e+00   4.141927e+01
   4.081822e+01  -1.426776e+00
   6.858161e+01   2.935512e+00
   5.114130e+01   3.893648e+01
  -2.729539e+01   1.091876e+02
  -6.484026e+01   1.527717e+02
  -1.075489e+02  -5.153994e+00
  -1.095601e+02  -8.535622e+01
  -2.339701e+01  -1.105764e+02
   7.662785e+01  -5.162799e+01
   5.597245e+01   1.634521e+01
  -4.427684e+01  -1.984928e+01
  -9.285845e+01  -2.248497e+01
  -7.974290e+01  -7.204213e+01
   7.713422e+01  -7.573336e+01
   1.665933e+02  -4.374984e+01
   1.386086e+02   3.009605e+01
   3.734631e+01   6.196725e+01
  -4.916578e+01   5.120366e+01
  -2.208204e+01  -1.955860e+01
   1.449140e+01   1.325213e+01
   6.158263e+01  -1.576777e+01
  -1.059273e+01   3.479658e+01
  -7.116557e+01   1.077531e+02
  -1.135834e+02   3.718286e+01
  -9.742014e+01  -5.029692e+01
  -9.606043e+00  -1.186762e+02
   6.672171e+01  -1.098584e+02
   7.473079e+01  -1.195156e+01
   9.719895e+01   4.247956e+01
   9.572228e+00   5.375452e+01
  -5.602217e+01   2.306365e+01
  -4.739045e+01   3.773013e+00
  -2.206216e+01  -2.554470e+01
  -8.375657e+00   3.229180e+01
  -3.316049e+01  -2.277501e+01
  -4.926761e+01  -7.982069e+01
  -2.376955e+01  -7.667433e+01
   4.039893e+01  -3.401812e+01
   1.268839e+02   1.232556e+01
   1.192735e+02   4.070394e+01
   4.752084e+01   3.575611e+01
  -5.514661e+01   4.602459e+01
  -5.670520e+01   1.020187e+01
  -1.400020e+01   1.649056e+01
  -6.580005e+00   1.037999e+01
   1.665135e+01   5.215499e+01
   8.449608e+00  -2.127994e+01
  -4.682494e+00  -3.625962e+01
   3.050356e+01   2.172377e+01
   7.900498e+01   3.168759e+01
   3.063268e+01   4.965579e+01
  -7.894362e+01   1.280547e+02
  -1.312523e+02   3.138844e+01
  -1.061643e+02  -6.858631e+01
  -1.908551e+01  -1.471263e+02
   2.615832e+01  -1.105522e+02
   8.790591e+01  -4.606252e+01
   9.467693e+01   9.458952e+00
  -1.778155e+01   4.762089e+01
  -7.797137e-01   2.107174e+01
  -1.301985e+01  -1.756142e+01
   7.492635e-01   1.415832e+01
   6.137815e+01   3.947492e+01
  -1.002021e+01   2.390755e+01
  -9.784260e+01  -3.179843e+01
  -7.284456e+01  -8.884719e+01
  -6.396710e+00  -7.196042e+01
   6.943789e+01  -3.884385e+01
   6.545028e+01   6.885454e+01
   5.608623e+01   9.482873e+01
  -4.522860e+01   6.061215e+01
  -5.800095e+01  -2.028456e+01
  -1.318032e+01  -2.330077e+01
   5.356224e+01  -3.317469e+01
   4.046484e+01  -5.856285e+01
  -1.614122e+01   3.168678e+01
  -6.065394e+01   3.975428e+01
  -3.632739e+01  -6.206470e+01
   5.344452e+01  -5.142242e+01
   1.022622e+02  -2.781283e+01
   8.481285e+01   4.199582e+01
   2.320781e+01   6.418627e+01
  -6.176484e+01   6.105642e+01
  -3.748792e+01   3.297555e+01
   4.096018e+00  -4.062490e+01
  -9.850962e-01  -4.645556e+01
   2.149449e+01   4.101313e+01
   4.504600e+01   2.851760e+01
  -1.739547e+01   3.999984e+01
  -6.087922e+01  -1.269497e+01
  -6.719465e+01  -3.753824e+01
  -1.583006e+01  -1.478371e+01
  -3.639520e+00  -1.613896e+01
  -2.829607e+01   1.406652e+01
  -4.688100e+01  -4.378098e+00
   1.146750e+00  -1.196067e+01
   1.693890e+01   2.946020e+01
   7.857478e+01  -1.126379e+00
   9.160139e+00   1.534522e+01
   6.855047e+00   1.589234e+01
   4.670651e+00  -5.446872e+01
  -5.826252e+01  -5.310502e+01
   3.607494e+01  -3.677843e+01
   8.753459e+01   2.239102e+01
   7.324441e+01   3.752701e+01
  -2.180964e+01   3.679627e+01
  -4.768421e+01   4.910801e+01
  -1.654240e+01   1.156219e+01
  -1.919936e+01  -2.921289e+01
   1.044780e+01   1.628078e+01
  -2.631401e+01   2.675417e+01
  -4.615154e+01   3.397641e+01
