
 $NMID
 id='ANONYMOUS ', fmtdat='(2E16.6)'
 volume=1.0
 tramp=1.0
 $END
  -3.468765e+03   4.224951e+02
  -2.442957e+03  -1.407335e+03
  -1.589986e+02  -2.064885e+03
   1.122605e+03  -9.041998e+02
   1.082360e+03  -6.776695e+01
  -7.449382e+01   2.300946e+02
  -5.009191e+02  -1.657939e+02
  -2.277955e+01  -5.848933e+02
   4.357813e+02  -5.741972e+02
   7.037992e+02  -1.511893e+02
   4.772957e+02   4.949111e+02
   4.762895e+01   7.097410e+02
  -3.061057e+02   2.072484e+02
  -2.700214e+02  -4.381826e+02
   1.322604e+02  -5.556464e+02
   3.780637e+02  -1.127124e+02
   3.267887e+02   5.163578e+02
  -1.282379e+02   6.313877e+02
  -5.014154e+02   3.029740e+02
  -4.537394e+02  -1.473484e+02
  -1.667133e+02  -3.472109e+02
   1.160589e+02  -2.485906e+02
   8.037744e+01  -1.906302e+01
  -1.420289e+02  -1.326407e+00
  -3.302266e+02  -2.495050e+02
  -1.877532e+01  -4.433066e+02
   4.495262e+02  -2.530674e+02
   6.790185e+02   1.080184e+02
   2.711107e+02   3.783902e+02
  -3.404609e+02   2.734365e+02
  -5.792597e+02  -1.360767e+02
  -2.513621e+02  -3.895403e+02
   2.867012e+02  -3.810367e+02
   4.377406e+02  -1.621153e+02
   3.143470e+02   1.384353e+02
   8.508664e+01   3.091490e+02
  -6.589683e+01   1.847093e+02
  -5.649511e-01  -1.223701e+02
   1.982122e+02  -2.167944e+02
   2.949040e+02   1.302380e+02
   5.465738e+01   5.702000e+02
  -3.325616e+02   4.995875e+02
  -4.548552e+02  -3.416389e+00
  -1.538556e+02  -3.870389e+02
   1.718352e+02  -1.770940e+02
   2.257432e+02   2.707559e+02
  -6.892784e+01   3.533733e+02
  -4.676540e+02   9.864587e+01
  -5.177644e+02  -3.526184e+02
  -1.446751e+02  -5.179384e+02
   3.038151e+02  -3.303116e+02
   5.450544e+02   8.311845e+01
   3.499847e+02   2.877100e+02
  -9.429648e+01   2.425176e+02
  -3.064391e+02   1.069957e+02
  -2.214538e+02  -3.881251e+01
   1.466035e+01  -6.439646e+01
   9.028447e+01   9.557523e+01
  -9.598915e+01   7.897212e+01
  -2.154452e+02  -5.915036e+01
  -1.478691e+02  -2.383491e+02
   1.349932e+02  -2.161229e+02
   3.183241e+02  -1.944694e+02
   3.117499e+02   4.853253e+01
  -2.561508e+01   3.482584e+02
  -2.567840e+02   3.910938e+02
  -3.220124e+02   1.818287e+02
  -3.166324e+02  -2.095105e+02
  -6.685745e+01  -3.709338e+02
   3.685907e+01  -3.480272e+02
   8.387089e+01  -1.653084e+02
   4.033034e+01  -7.865872e+01
   1.041693e+02  -1.150820e+02
   2.414564e+02  -8.966615e+01
   2.003982e+02   1.132339e+02
   8.132494e+01   2.654299e+02
  -1.071344e+02   1.940720e+02
  -1.876461e+02  -5.573337e+01
  -1.212001e+02  -2.255182e+02
   3.480724e+01  -2.771092e+02
   2.536149e+02  -6.856832e+01
   3.174063e+02   1.239933e+02
   1.225408e+02   3.072095e+02
  -4.126302e+01   2.465799e+02
  -2.460105e+02   1.544450e+02
  -1.474690e+02   9.743147e+01
  -1.672851e+02   9.144179e+01
  -2.731584e+02   5.657551e+01
  -3.802136e+02  -5.834027e+01
  -3.188738e+02  -3.039071e+02
   2.316001e+01  -4.177247e+02
   3.665719e+02  -3.910695e+02
   5.046913e+02  -1.176087e+02
   2.943453e+02   8.396134e+01
   4.740183e+01   2.871270e+02
  -6.889769e+01   1.837161e+02
  -1.042904e+01   2.746530e+01
   9.987612e+01  -1.054008e+02
   1.521427e+02   1.167049e+01
   5.414041e+00   1.875699e+02
  -8.430714e+01   1.345078e+02
  -7.208810e+01  -7.980775e+01
   9.278650e-02  -1.054715e+02
   1.464513e+02   4.181373e+01
   1.873838e+02   2.333137e+02
   4.532975e+00   3.611280e+02
  -2.366015e+02   1.856773e+02
  -3.079847e+02  -5.394078e+01
  -2.661130e+02  -2.473381e+02
  -7.287563e+01  -2.259071e+02
   1.390866e+02  -1.755109e+02
   1.609600e+02  -3.382903e+01
   5.154564e+01   2.194763e+01
  -8.107958e+01  -6.380394e+01
   2.463086e+01  -1.124699e+02
   1.324991e+02  -5.529496e+01
   2.088415e+02   4.109015e+01
   3.045091e+01   4.233040e+01
  -6.800830e+01  -1.662316e+01
  -5.454943e+01  -7.925928e+01
   1.551412e+02  -1.086129e+02
   2.713530e+02  -5.684812e+01
   2.417377e+02   1.610343e+02
   6.943380e+01   2.355705e+02
  -2.012191e+02   2.703452e+02
  -2.749209e+02   1.481241e+02
  -1.336502e+02  -1.859625e+01
   3.543007e+00  -8.167585e+01
   4.103149e+01  -3.168182e+01
  -3.658270e+01   1.732881e+01
  -1.454079e+02   5.502257e+01
  -2.279056e+02  -8.514123e+01
  -4.428155e+01  -1.803116e+02
   7.403426e+01  -1.129858e+02
   1.228532e+02  -1.113759e+01
   4.545200e+01   1.936553e+01
  -9.775701e+00  -3.311916e+01
  -5.804078e+01  -7.610015e+01
   1.318066e+02  -7.452729e+01
   2.047302e+02  -1.527323e+01
   2.196783e+02   1.047512e+02
   2.149735e+01   2.154879e+02
  -1.614184e+02   1.734321e+02
  -1.585975e+02   4.440563e+00
  -9.717113e+01  -1.164988e+02
   7.302356e+01  -1.026351e+02
   7.692418e+01  -6.229918e+01
   1.227615e+01   5.113870e+01
  -5.478294e+01   2.782762e+01
  -3.299162e+00  -8.236449e+00
   1.301368e+02  -3.006654e+01
   1.162421e+02   6.356005e+01
  -3.035962e+01   1.913220e+02
  -6.778491e+01   1.675232e+02
  -2.047391e+02   4.100333e+01
  -2.059323e+02  -1.995708e+02
  -6.944508e+01  -2.319749e+02
   4.671882e+01  -1.518505e+02
   1.333394e+02  -2.868909e+01
   8.834699e+01   4.802983e+00
   3.095089e+01   1.893825e+01
   5.057114e+01   8.349821e+00
   8.715900e+01  -8.989455e+00
   6.872554e+01   3.932255e+01
   2.072853e+01   1.098705e+02
  -1.035367e+02   7.980447e+01
  -1.291425e+02  -4.294330e+01
   1.181720e+01  -1.149074e+02
   1.056906e+02  -8.829755e+01
   1.993276e+02   2.477925e+01
   6.788623e+01   2.195169e+02
  -6.503838e+01   2.344972e+02
  -2.519726e+02   6.781565e+01
  -2.504572e+02  -8.802700e+01
  -1.406550e+02  -1.835759e+02
   6.080587e+01  -1.494986e+02
   8.169645e+01  -7.499470e+01
   9.875027e+01  -7.468598e+01
   9.935401e+01  -9.826664e+01
   1.370113e+02  -3.292755e+01
   1.295396e+02  -1.247018e+01
   1.812218e+02   1.459493e+02
   5.175087e+01   2.388828e+02
  -1.066259e+02   1.863867e+02
  -1.686876e+02   5.540221e+01
  -1.207141e+02  -1.005456e+02
  -4.232531e+00  -1.537171e+02
   5.843292e+01  -1.016818e+02
   7.556761e+01   1.686539e+01
  -4.052338e+01   7.996533e+01
  -6.076785e+01   7.321190e+01
   3.644624e+01   4.263687e+00
   4.768900e+01  -8.528925e+00
   7.477376e+01   5.590211e+01
  -7.785621e+01   7.213110e+01
  -1.236746e+02  -2.746596e+01
  -1.242762e+02  -9.724144e+01
   3.511301e+01  -7.368650e+01
   1.366581e+02  -7.986329e+01
   1.240235e+02   2.460698e+00
   2.856852e+01   2.749689e+01
  -3.549541e+01   8.975860e+01
  -2.858311e+01  -4.715259e+01
  -9.182150e-01  -4.975377e+01
   2.706422e+01  -7.722931e+01
   6.983203e+01   2.133884e+01
   9.597457e+01   5.549862e+01
   2.313980e+01   2.496143e+01
   6.473459e+01  -3.397969e+00
   7.675889e+01  -5.804716e+01
   5.483526e+01   8.893205e+01
  -1.214122e+01   1.230423e+02
  -1.535644e+02   1.907831e+02
  -1.533365e+02   7.385572e+01
  -9.113527e+01  -6.522455e+01
  -9.306010e+00  -1.272035e+02
   1.489963e+02  -1.007027e+02
   6.114091e+01   1.750275e+01
  -2.276215e+01   1.051618e+01
  -1.653104e+02  -2.682306e+01
  -5.319487e+01  -9.917405e+01
   7.456781e+01  -1.245336e+02
   1.624679e+02  -7.661060e+01
   1.575140e+02   5.436061e+01
   5.223215e+01   4.637025e+01
  -5.124649e+01   4.600784e+01
  -6.137086e+00  -1.261091e+01
   3.629474e+01  -7.370969e+01
   9.677675e+01   3.545156e+01
   2.412620e+01   9.676088e+01
  -1.233900e+01   1.089879e+02
  -9.586474e+01   1.011979e+02
  -1.000145e+02  -5.689974e+01
  -1.876620e+01  -1.851729e+02
   8.838820e+01  -1.147474e+02
   7.028846e+01   4.258476e+01
   4.372971e+01   1.490148e+02
  -3.962345e+01   1.292489e+02
  -2.714312e+01   3.279016e+01
  -7.254087e+01  -1.463950e+01
  -1.935214e+01  -9.621570e-02
   3.269142e+00  -1.749207e+01
  -4.958366e+01  -3.441976e+01
  -7.988263e+01  -1.181015e+02
  -2.568291e+00  -1.150023e+02
   5.870970e+01  -6.308208e+01
   1.338715e+02   5.378111e+01
   1.157016e+02   4.274967e+01
   4.284706e+01   7.304888e+01
  -3.725132e+01   8.842881e+01
  -5.405567e+01   9.890282e+01
  -3.655801e+01   2.953427e+01
   5.053508e+01  -3.247208e+01
   4.386626e+01  -4.577103e+01
  -6.084296e+00   6.147049e+01
   7.218335e+00   9.705131e+00
   8.604983e+01   8.882852e+00
   1.149543e+02   3.331579e+01
   5.963847e+01   8.218204e+01
  -9.476749e+01   1.499539e+02
  -1.450643e+02   9.591931e+01
  -1.636099e+02  -2.799461e+01
  -7.174358e+01  -1.789001e+02
   3.390845e+01  -1.495635e+02
   1.338080e+02  -9.314691e+01
   1.164578e+02  -6.102347e+00
   3.386969e+01   4.161494e+01
  -5.253518e+00   3.757019e+01
   3.148036e+01   2.453893e+01
   3.328921e+01   8.186057e+01
   2.150347e+01   1.370518e+02
   1.847594e+01   1.224382e+02
  -1.857420e+01   1.592001e+01
  -1.443035e+02  -5.356378e+01
  -2.361163e+01  -1.018940e+02
   5.305997e+01  -5.154855e+01
   1.204528e+02   5.626521e+01
   4.005415e+01   8.507962e+01
  -3.934964e+01   6.867952e+01
  -9.783415e+01   2.644864e+01
  -7.316139e+01  -3.364676e+01
   2.616513e+00  -5.769977e+01
   2.249380e+01  -5.827179e+00
  -5.900776e+01  -1.069533e+01
  -9.597581e+01  -8.797315e+00
  -3.786981e+01  -4.194059e+01
   5.343100e+01  -5.709852e+01
   1.338925e+02  -8.631831e+01
   7.052888e+01   8.646213e+00
  -2.790888e+00   7.361358e+01
  -5.390022e+01   6.163715e+01
  -4.110557e+01   5.119046e+00
  -1.098438e+01  -5.677285e+01
   3.417925e+00  -4.305703e+01
   3.623657e+01   4.112075e+01
   3.132323e+01   4.499492e+01
  -2.806378e+01   4.737635e+01
   1.090496e+01  -2.355533e+00
  -2.818551e+01  -5.298794e+01
  -2.194449e+01  -2.883983e+01
   4.092550e+01   3.068039e+01
  -8.670999e+00   8.093924e+00
   1.730072e+01  -5.241475e+01
  -1.926918e+01  -6.434136e+01
   2.849989e+01  -1.718339e+01
   2.959863e+01   7.097552e+00
   4.545012e+01   5.243416e+01
  -6.488925e+01   5.352009e+01
  -1.889949e+01  -2.541366e+01
   3.085946e-01  -3.484852e+01
   5.015384e+01  -8.053378e+00
   1.067544e+02   1.273619e+01
   9.425955e+01   1.248535e+01
  -8.790388e+00   5.619780e+01
  -7.044226e+01   1.865880e+01
   2.339662e+01   2.222431e+01
   4.350837e+01  -1.256022e+01
   4.963510e+01   3.169660e+01
  -5.495556e+01   4.696059e+01
  -9.858600e+01  -3.761924e-02
