
 $NMID
 id='ANONYMOUS ', fmtdat='(2E16.6)'
 volume=1.0
 tramp=1.0
 $END
  -3.668277e+03   3.157063e+02
  -2.623391e+03  -1.997062e+03
   2.569943e+02  -2.241180e+03
   1.762590e+03  -9.765201e+02
   1.159614e+03   1.861920e+02
  -2.700405e+02   4.318798e+02
  -6.280928e+02  -1.618151e+02
  -1.039397e+02  -7.293721e+02
   5.777025e+02  -6.496841e+02
   7.749036e+02  -8.605172e+01
   5.364112e+02   5.367124e+02
   4.105604e+01   7.452310e+02
  -4.155937e+02   2.519043e+02
  -3.362583e+02  -4.839480e+02
   1.476902e+02  -6.589149e+02
   4.850013e+02  -1.026429e+02
   3.335285e+02   6.094016e+02
  -1.787352e+02   6.610245e+02
  -5.064547e+02   1.873354e+02
  -4.475205e+02  -2.270178e+02
  -1.286092e+02  -4.320353e+02
   1.356864e+02  -2.675199e+02
   1.601260e+02  -8.852924e+01
  -1.254576e+02  -5.592270e+01
  -3.100008e+02  -2.058871e+02
  -6.575355e+01  -3.009654e+02
   4.488094e+02  -2.378430e+02
   7.019075e+02   1.004369e+02
   3.287868e+02   3.824530e+02
  -3.367334e+02   2.991381e+02
  -5.772813e+02  -9.232511e+01
  -2.386332e+02  -4.064963e+02
   2.582268e+02  -3.976321e+02
   4.757201e+02  -1.940899e+02
   3.749290e+02   1.701569e+02
   1.027428e+02   3.887471e+02
  -1.744957e+02   2.184516e+02
  -3.644193e+01  -3.404420e+01
   1.137301e+02  -3.042799e+02
   2.641273e+02   5.180800e+01
   9.596223e+01   4.873710e+02
  -1.343599e+02   5.431119e+02
  -3.732797e+02   5.057446e+01
  -2.286338e+02  -3.349736e+02
   1.380003e+02  -2.298380e+02
   1.867703e+02   2.403672e+02
  -4.785779e+01   4.091970e+02
  -4.700214e+02   9.209176e+01
  -5.148017e+02  -3.469409e+02
  -1.936028e+02  -5.382666e+02
   2.882858e+02  -3.232890e+02
   4.644287e+02   7.377789e+01
   3.713605e+02   3.052649e+02
  -7.482440e+01   2.500861e+02
  -3.254272e+02   1.025445e+02
  -2.392769e+02  -1.196058e+02
   2.049539e+01  -6.959515e+01
   1.246440e+02   9.444862e+01
  -6.140038e+01   1.042644e+02
  -2.178531e+02  -1.257128e+01
  -1.598669e+02  -1.832983e+02
   1.513269e+02  -2.587182e+02
   3.667209e+02  -1.053440e+02
   2.670489e+02   1.127076e+02
  -3.808882e+01   2.620216e+02
  -2.973961e+02   3.787096e+02
  -3.517015e+02   2.330445e+02
  -2.647979e+02  -1.596735e+02
  -9.600255e+01  -3.756356e+02
   9.915944e+01  -3.363893e+02
   1.285905e+01  -1.195310e+02
   5.774646e+01  -5.517197e+01
   7.993810e+01  -1.132932e+02
   2.343954e+02  -7.582658e+01
   2.117087e+02   4.634215e+01
   1.022561e+02   2.933205e+02
  -2.593542e+01   2.170078e+02
  -2.033704e+02   8.581452e+00
  -1.602746e+02  -2.548280e+02
   3.720429e+01  -2.351370e+02
   2.424691e+02  -1.434979e+02
   2.814192e+02   1.745403e+02
   1.763169e+02   3.655018e+02
  -4.778583e+01   2.286319e+02
  -1.548441e+02   1.499458e+02
  -1.499360e+02   3.499358e+01
  -1.162277e+02   1.416361e+01
  -2.718594e+02   8.995711e+00
  -3.572664e+02  -1.069872e+02
  -2.832632e+02  -2.603833e+02
  -2.575170e-01  -4.041383e+02
   3.839978e+02  -3.564372e+02
   4.525750e+02  -1.741204e+02
   2.848154e+02   1.071924e+02
   6.564633e+01   2.722787e+02
  -7.942080e+01   2.227195e+02
  -2.636825e+01   1.235154e+01
   7.272619e+01  -6.738294e+01
   1.124379e+02  -1.696200e+01
   2.053415e+00   1.268519e+02
  -1.362543e+02   1.168236e+02
  -1.512383e+02  -1.858982e+01
   3.197475e+01  -1.911729e+02
   1.554952e+02   5.176974e+01
   1.537209e+02   2.393813e+02
  -1.577873e+01   3.537109e+02
  -2.564654e+02   2.071945e+02
  -3.536878e+02  -1.002000e+02
  -2.400024e+02  -2.771751e+02
  -5.679869e+01  -3.173220e+02
   9.630584e+01  -1.218159e+02
   9.853813e+01  -2.975501e+01
   2.172770e+01   2.630895e+01
  -5.327541e+01  -7.313784e+01
   7.831293e+00  -1.128076e+02
   1.367293e+02  -8.433366e+01
   1.447828e+02   6.072783e+00
   4.001998e+01   6.562781e+01
  -7.773877e+01  -1.278132e+01
  -2.323009e+01  -1.070136e+02
   1.347831e+02  -8.109128e+01
   2.735996e+02   4.653861e+01
   2.211766e+02   2.116595e+02
   4.217472e+01   2.498786e+02
  -1.747551e+02   2.452725e+02
  -2.471973e+02   1.195749e+02
  -1.451137e+02  -3.376547e+01
   2.313037e+01  -1.202862e+02
   4.075364e+01   1.336873e+01
  -4.621712e+01   1.349403e+02
  -1.709193e+02   4.342810e+01
  -2.281141e+02  -1.005490e+02
  -6.562200e+01  -2.094172e+02
   1.384638e+02  -1.208518e+02
   9.875213e+01  -6.027471e+01
   5.102539e+01   2.509476e+01
  -2.594612e+01  -1.796012e+01
  -6.222195e+01  -1.151684e+02
   3.032328e+01  -1.414402e+02
   1.962158e+02  -4.267839e+00
   1.538824e+02   1.317079e+02
   2.992254e+01   1.677516e+02
  -1.331682e+02   1.732394e+02
  -1.719046e+02   3.177351e+01
  -8.346234e+01  -1.141633e+02
   5.228650e+01  -9.702191e+01
   3.259123e+01  -5.225608e+01
  -4.269029e+00  -1.257352e+01
  -3.541072e+01   9.944781e+00
   3.614542e+01  -1.905543e+01
   5.927652e+01  -3.051429e+01
   1.165471e+02   8.678645e+01
  -2.394347e+00   1.626948e+02
  -1.061749e+02   1.468518e+02
  -2.567563e+02  -1.486205e+00
  -2.030001e+02  -9.086795e+01
  -5.176330e+01  -2.215120e+02
   1.135854e+02  -1.407493e+02
   1.514382e+02  -6.589009e+01
   6.480189e+01   6.760879e+01
   2.260988e+01   3.122839e+01
   5.221626e+01   1.017076e+01
   5.418650e+01   1.710610e+01
   4.713540e+01   8.246188e+01
  -6.086955e+01   1.059336e+02
  -1.321528e+02   5.930499e+01
  -1.043484e+02  -1.325893e+01
   1.041727e+01  -1.161822e+02
   1.425163e+02  -1.234150e+02
   1.607484e+02   6.190658e+01
   1.113541e+02   1.852930e+02
  -1.261674e+02   1.914716e+02
  -2.442250e+02   8.016409e+01
  -2.515177e+02  -8.671079e+01
  -9.933682e+01  -1.612969e+02
   5.402315e+01  -1.539525e+02
   5.017697e+01  -6.342232e+01
   9.158982e+01  -1.017935e+02
   9.846396e+01  -1.235489e+02
   5.524130e+01  -6.027222e+01
   1.131663e+02   1.007739e+01
   1.378346e+02   1.542206e+02
   5.239444e+00   2.108341e+02
  -1.157842e+02   1.238099e+02
  -1.905531e+02   2.168526e+01
  -1.545318e+02  -1.023568e+02
  -9.297534e+00  -1.056595e+02
   7.146293e+01  -5.302354e+01
   5.860185e+01   1.211936e+01
   2.441823e+01   5.784394e+01
  -3.179255e+01   2.797206e+01
   1.764334e+01   3.578044e+01
   6.980181e+01   5.719749e+01
   8.686509e+01   2.520001e+01
  -1.008457e+02   3.059125e+01
  -1.919081e+02  -1.549445e+01
  -1.330396e+02  -9.362069e+01
   1.092086e+01  -1.229528e+02
   1.259870e+02  -1.003694e+02
   1.562067e+02   1.457742e+01
   3.436257e+01   7.887763e+01
  -8.123409e+01   5.031100e+01
  -6.916271e+01  -1.129072e+01
   1.501215e+01  -6.428706e+01
   7.202219e+01  -8.100934e+01
   6.527358e+01   7.512423e+00
   5.570601e+01   8.018602e+01
   4.847734e+01   1.852609e+01
  -4.030799e+00  -2.324759e+01
   7.007887e+01  -5.570592e+01
   4.378604e+01   7.233545e+01
  -2.142729e+01   1.724762e+02
  -1.308854e+02   1.732227e+02
  -1.582156e+02   7.184465e+01
  -1.133097e+02  -8.547322e+01
   2.440924e+01  -1.450797e+02
   6.897623e+01  -4.118515e+01
   7.698654e+00  -2.521317e+01
  -7.280538e+01  -2.032378e+00
  -1.143666e+02  -3.748397e+01
  -8.735513e+01  -1.182763e+02
   3.714931e+01  -5.885638e+01
   2.089248e+02  -1.752689e+01
   1.801164e+02   1.442199e+01
   2.388647e+01   9.087380e+01
  -6.823373e+01   8.084462e+01
  -6.206427e+01  -1.579243e+01
   3.591654e+01  -3.128532e+01
   1.076880e+02  -6.774727e-01
   1.436996e+01   1.537941e+02
  -6.945035e+01   1.927229e+02
  -1.800440e+02   8.478571e+01
  -1.343485e+02  -1.050434e+02
  -2.426094e+01  -2.284785e+02
   9.018050e+01  -1.404042e+02
   1.276438e+02  -1.893283e+00
   3.575057e+01   1.265925e+02
  -2.432280e+01   1.023012e+02
  -5.262607e+01  -1.012462e+01
  -5.430218e+01  -4.170804e+01
  -1.572124e+01   2.648726e+01
  -3.218636e+01  -2.346789e+01
  -4.120842e+01  -1.208558e-01
  -3.592286e+01  -5.654355e+01
  -1.620879e+01  -1.308340e+02
   7.597825e+00  -8.629596e+01
   1.331437e+02   4.349084e+01
   8.151577e+01   6.365501e+01
   1.304845e+01   8.746008e+01
  -1.128914e+02   1.538166e+01
  -4.295241e+01   5.251680e+01
  -6.058311e+00  -8.221624e+00
   1.377516e+01  -2.629681e-01
   4.006784e+01  -1.009835e+01
  -2.171760e+01  -1.243245e+01
  -5.718681e-01   3.742379e+00
   6.041853e+01  -1.706998e+00
   1.114354e+02  -4.059563e+01
   1.971576e+01   1.057835e+02
  -1.078457e+02   1.386078e+02
  -1.591383e+02   6.541678e+01
  -1.326954e+02  -5.967268e+01
  -4.226223e+01  -1.373346e+02
   1.175445e+02  -1.704906e+02
   1.201175e+02  -7.297930e+01
   5.253079e+01  -2.283464e+01
   5.012636e+01   2.223149e+01
  -3.483482e+01   5.723663e+00
  -6.278622e+00  -9.052412e+00
   7.707710e+01   4.851211e+01
   1.023834e+01   1.238621e+02
   3.287764e+00   9.286382e+01
  -9.448305e+01  -3.385362e+01
  -1.054995e+02  -5.559432e+01
   1.823783e+00  -1.410693e+02
   6.896256e+01  -2.463869e+01
   9.109060e+01   7.926405e+01
   7.611094e+01   6.933761e+01
  -1.043718e+02   6.933973e+01
  -1.291555e+02   4.834115e+00
  -4.293582e+01  -4.252819e+01
   3.744949e-01  -3.640747e+01
   5.067795e+01  -1.379187e+01
  -1.906071e+01   2.858816e+01
  -7.585109e+01  -1.622568e+01
  -7.846033e+01   1.028463e+01
   6.011460e+01  -4.429986e+01
   1.323110e+02  -9.867920e+01
   5.190039e+01   1.293017e+00
  -6.559632e+00   8.214150e+01
  -7.217613e+01   1.217564e+02
  -1.813344e+01   2.494274e+01
  -9.755050e-01  -2.288090e+01
   3.566520e+01  -4.574905e+01
   4.076363e+01   1.041567e+01
   3.524115e+01   8.737256e+01
  -2.100817e+01   7.568117e+01
   7.625972e+00   1.733183e+01
  -5.441808e+01  -3.784381e+01
  -4.716033e+01  -7.931678e-01
   3.229017e+01   3.962261e+00
   3.562854e+01   2.876600e+01
  -1.862867e+01  -4.698374e+01
   1.230616e+01  -4.931732e+01
   3.084483e+01  -4.878802e+01
   2.212991e+01   1.896137e+01
  -1.703460e+01   5.393237e+01
  -8.649603e+00   2.029792e+01
  -1.088373e+01  -7.505800e+01
  -1.377715e+01  -3.755469e+01
   5.119064e+01  -3.504082e+01
   7.180919e+01   1.527824e+00
   4.956908e+01   4.599282e+01
  -4.947864e+00   2.408180e+01
  -7.095930e+01   1.469710e+01
  -1.195106e+01   2.888524e+01
   3.617116e+01  -1.463263e+01
   1.974287e+01   3.380172e+01
  -2.198746e+01   9.555758e+00
  -1.061346e+02   4.125771e+00
