
 $NMID
 id='ANONYMOUS ', fmtdat='(2E16.6)'
 volume=1.0
 tramp=1.0
 $END
   3.025452e+03  -9.493163e+01
   1.740290e+03   1.611044e+03
  -2.349522e+02   2.010889e+03
  -1.102802e+03   6.486420e+02
  -6.410317e+02  -2.699339e+02
   5.429001e+02  -2.408859e+02
   5.484803e+02   3.137918e+02
   3.230815e+01   6.780845e+02
  -5.118273e+02   6.057334e+02
  -6.858721e+02  -3.301594e+01
  -3.626670e+02  -6.242112e+02
   6.820261e+01  -7.192262e+02
   4.366985e+02  -1.458648e+02
   2.910914e+02   5.056017e+02
  -1.674521e+02   5.565419e+02
  -3.698823e+02  -2.159553e+01
  -1.642784e+02  -4.883998e+02
   2.223130e+02  -4.106043e+02
   3.772574e+02  -1.067336e+02
   1.962243e+02   2.499126e+02
   3.066011e+01   2.713531e+02
  -1.886568e+02   1.835225e+02
  -1.380398e+02  -3.188647e+01
   1.780843e+02  -9.214114e+01
   3.241489e+02   7.740737e+01
   1.040766e+02   3.530542e+02
  -3.320616e+02   2.806089e+02
  -6.027431e+02  -2.602159e+01
  -2.966870e+02  -3.212692e+02
   1.854351e+02  -3.251015e+02
   4.989701e+02   8.652534e+01
   2.511838e+02   3.068399e+02
  -1.433030e+02   3.684434e+02
  -3.667675e+02   1.150249e+02
  -2.585600e+02  -1.442484e+02
  -7.741197e+01  -3.384489e+02
   1.450218e+02  -1.913736e+02
   1.349596e+02   1.205451e+02
  -1.064482e+02   3.057789e+02
  -3.581185e+02  -8.263313e+01
  -1.693101e+02  -4.423830e+02
   1.807348e+02  -4.798137e+02
   4.009541e+02   2.555710e+01
   1.619506e+02   3.432331e+02
  -2.091655e+02   1.837254e+02
  -2.870197e+02  -2.018245e+02
   3.400917e+01  -3.753335e+02
   3.442756e+02  -9.786234e+01
   4.189126e+02   2.384383e+02
   1.396339e+02   3.491888e+02
  -2.481705e+02   2.699075e+02
  -4.771150e+02  -5.980421e+01
  -2.616760e+02  -2.700203e+02
   8.697966e+01  -1.959724e+02
   3.018191e+02  -2.482417e+01
   1.423788e+02   7.221020e+01
  -7.602971e+01   8.697779e+01
  -4.863631e+01  -6.375822e+01
   6.500259e+01  -1.129538e+02
   2.618912e+02   4.317087e+01
   7.101162e+01   1.514121e+02
  -9.462578e+01   1.871110e+02
  -1.689304e+02   5.907172e+01
  -1.312137e+02  -9.898086e+00
   2.789901e+01  -1.480461e+02
   1.579880e+02  -2.815287e+02
   1.641634e+02  -1.823092e+02
   1.992627e+02   6.880811e+01
   1.080688e+02   2.838658e+02
  -8.692563e+01   2.752071e+02
  -1.195579e+02   6.938032e+01
   9.906960e-01   1.751890e+01
   8.440157e+00   6.331967e+01
  -1.326460e+02   8.318344e+01
  -1.958410e+02  -3.275102e+01
  -1.042739e+02  -1.563706e+02
   3.404185e+01  -1.862029e+02
   9.533942e+01  -4.461417e+01
   1.728157e+02   1.625413e+02
  -1.025808e+01   2.174987e+02
  -1.794331e+02   8.453372e+01
  -1.990318e+02  -1.260329e+02
  -1.619183e+02  -2.420373e+02
   4.208355e+01  -1.937608e+02
   1.844324e+02  -1.210451e+02
   9.396159e+01  -1.675741e+01
   5.491563e+01  -2.997874e+01
   1.175651e+02  -1.052068e+02
   2.885630e+02  -7.491707e+00
   2.730313e+02   1.535397e+02
   2.528017e+01   3.092633e+02
  -1.887545e+02   3.026791e+02
  -2.946182e+02   1.436857e+02
  -2.459525e+02  -4.154816e+01
   1.115596e+01  -1.506740e+02
   1.088006e+02  -1.601634e+02
   6.935682e+01  -4.217435e+01
  -7.511876e+01   8.167196e+01
  -1.639974e+02  -3.007055e+01
  -4.718630e+01  -1.525242e+02
   9.617168e+01  -1.284592e+02
   1.427470e+02   3.238901e+01
   1.122987e+01   1.229878e+02
  -1.395942e+02   2.385620e+01
  -1.572415e+02  -1.431005e+02
   2.696440e+01  -2.385274e+02
   1.384322e+02  -1.684928e+02
   2.116199e+02  -9.600553e+00
   1.735416e+02   1.674339e+02
   6.637759e+01   1.972598e+02
  -3.965586e+01   1.795171e+02
  -1.819967e+02   6.617854e+01
  -7.203530e+01  -8.217086e+00
  -4.485342e+00   7.173095e+00
  -1.621574e+00   6.298465e+01
  -8.375400e+01   6.284282e+01
  -1.064105e+02  -1.512009e+01
  -8.513847e+01  -9.278205e+01
   4.207725e+01  -5.308689e+01
   4.156384e+01   2.952380e+01
  -8.283598e+01   1.019358e+02
  -2.117287e+02   7.902063e+00
  -2.024918e+02  -9.790774e+01
  -2.499088e+01  -1.869226e+02
   7.832918e+01  -1.666019e+02
   1.918108e+02  -9.312629e+01
   9.271310e+01   4.892160e+00
  -5.434250e+01   7.254114e+01
  -5.978290e+01  -2.923641e+01
  -2.912893e+01  -3.895459e+01
   1.081154e+02  -9.685826e+01
   1.273158e+02   1.878409e+01
   4.616698e+01   1.385127e+02
  -7.429077e+01   8.938756e+01
  -6.616524e+01   1.626453e+00
  -4.627812e+01  -2.853217e+01
   2.726238e+01  -2.428159e+01
   2.242352e+01   7.968332e+01
  -5.379782e+01   7.747477e+01
  -1.780411e+02  -6.355151e+00
  -1.516747e+02  -4.704942e+01
  -2.893579e+01  -1.523371e+02
   1.141042e+02  -1.003746e+02
   1.368770e+02  -2.792841e+01
   8.420955e+01   7.501048e+01
  -2.994983e+01   7.760952e+01
  -2.432207e+01   1.889404e+01
  -5.867687e+01  -1.815590e+01
   2.893594e+00  -5.664606e+01
   4.907726e+00   1.821289e+01
  -4.957913e+01   3.026196e+01
  -9.651859e+01  -2.334709e+01
  -5.744930e+01  -8.177389e+01
   9.212150e+01  -1.452279e+02
   1.778868e+02  -4.394868e+01
   1.575979e+02   1.432188e+02
   1.858878e+00   1.686866e+02
  -8.640280e+01   1.360425e+02
  -1.169848e+02   1.027697e+01
  -3.743208e+01  -5.180791e+01
  -5.454749e+01  -2.439335e+01
  -3.253460e+01  -2.261606e+01
  -1.311256e+01  -3.782238e+00
  -4.901656e+01  -4.480291e+01
  -1.555187e+00  -7.346403e+01
   1.108752e+02  -3.849715e+01
   2.354916e+01  -2.359069e+01
  -1.284433e+01   7.632347e+01
  -1.028427e+02   7.917515e+01
  -1.699123e+02  -1.210573e+01
  -4.445506e+01  -1.248163e+02
   6.244076e+01  -1.806183e+02
   1.765199e+02  -4.950706e+01
   1.941160e+02   2.368605e+01
   1.435530e+02   1.367555e+02
  -5.684405e+01   7.835992e+01
  -2.407328e+01   6.727028e+01
  -8.522732e+01   5.942042e+01
  -4.751729e+01   6.328705e+01
  -3.908568e+01   6.152020e+01
  -6.549060e+01  -2.240798e+01
  -7.936112e+01  -8.850355e+01
  -6.347126e+01  -1.117030e+02
   3.242684e+01  -7.697486e+01
   1.097541e+02  -2.210968e+01
   1.041141e+02   5.812278e+01
   4.490329e+01   9.634536e+01
  -3.776246e+01   7.104043e+01
  -2.706039e+01   4.117700e+01
   3.342902e-01  -5.111059e+01
  -2.548585e+00  -1.195929e+01
  -3.463718e+00  -1.988017e+01
  -5.999682e+01   9.981990e+00
  -4.666622e+01  -5.576795e+01
   5.657065e+01  -2.789643e+01
   9.594632e+01  -4.770650e+01
   6.903622e+01   6.877444e+00
   5.003470e+00   4.671457e+01
  -6.373272e+01   5.470849e+01
  -9.317173e+01   3.786019e+01
  -3.779573e+01  -2.768916e+01
   5.359025e+01   1.808659e+00
   1.447537e+01  -3.515235e+01
  -1.266398e+01   1.525600e+01
  -4.652712e+01   3.506773e+01
  -1.745105e+01   1.723612e+01
  -5.634496e+01  -5.760234e+01
  -1.999164e+01  -1.819196e+01
  -4.008147e+01   2.602524e+01
  -8.008923e+01   1.051835e+01
  -2.510108e+01  -2.372555e+01
   5.377586e+01  -8.425893e+01
   7.021604e+01  -1.005405e+02
   1.000353e+02  -3.015877e+00
   1.166536e+02   6.260034e+01
   3.656395e+01   9.347066e+01
  -8.027094e+01   6.053509e+01
  -3.038510e+01  -1.426591e+01
   4.993410e+01   6.697645e+00
   1.135105e+02  -5.267428e+00
   8.774409e+01   7.823153e+01
  -4.565144e+00   8.699119e+01
  -1.702750e+02   4.236272e+01
  -1.045120e+02  -2.507915e+01
  -2.998821e+01  -7.553736e+01
   3.679824e+01  -5.864098e+01
   3.217427e+01  -1.179104e+01
   1.265798e+01   3.872871e+01
  -3.309176e+01  -9.462544e+00
  -3.282128e+01  -7.096078e+01
   5.355962e+01  -1.293811e+02
   1.642363e+02  -4.575103e+01
   1.101881e+02   5.584789e+01
   2.539212e+01   1.299255e+02
  -4.458603e+01   1.246085e+02
  -7.264855e+01   2.846996e+01
  -1.991740e+01  -5.747760e+01
  -2.948725e+01  -7.094296e+01
   3.506866e+01  -8.086241e+00
   3.516012e+01   2.969878e+01
  -2.390486e+01   7.091337e+00
   2.135289e+01   7.113151e+00
   6.126079e+00  -3.181042e+00
   6.680131e+01   6.880623e+01
   4.712966e+01   5.949243e+01
  -1.430961e+01   3.771027e+01
  -1.199693e+02   4.784004e+00
  -8.986239e+01   1.934060e+01
  -3.230596e+01  -4.678374e+01
   5.509271e+01  -2.615698e+00
   7.197328e+01  -2.911299e+01
   2.575263e+01   8.276641e+00
  -3.280414e+01  -5.373227e-01
   1.319654e+01  -3.213340e+00
   1.491562e+01   7.549082e+00
  -9.243566e-01  -5.091317e+00
  -2.239352e+01   2.804250e+01
  -6.543262e+01  -6.742337e+00
   5.970666e+00  -5.836695e+01
   4.958982e+01  -5.743642e+01
   8.236504e+01  -3.801345e+01
   8.554559e+01  -5.130073e+01
   4.009999e+01   1.164133e+02
  -5.416429e+01   1.227146e+02
  -1.071830e+02   7.280135e+01
  -8.511225e+01  -4.916763e+01
  -1.266160e+01  -2.842127e+01
   3.928263e+01   2.337545e+01
  -2.644916e+01  -1.640426e+00
  -2.604766e+01  -2.749988e+01
  -3.961336e+01  -9.153012e+01
   2.680396e+01  -4.772588e+01
   5.212212e+01   1.445508e-01
   9.876135e+01   1.826677e+01
   4.892298e+01   6.003196e+01
  -7.678867e+01   2.302691e+01
  -5.692583e+01  -2.070319e+01
  -2.720712e+01  -4.216810e+01
   5.539598e+01  -4.214642e+01
   6.466749e+01  -4.404391e+00
   3.101789e+01   2.798424e+01
  -7.619919e+00   4.690144e+01
  -2.430357e+01  -6.066390e+00
   7.627240e+01   5.700450e+00
   7.361297e+01  -2.642108e+01
   8.848517e-01   9.461135e+00
  -6.198818e+01   8.629713e+01
  -9.356228e+01   4.737325e+01
  -5.051900e+01  -1.243424e+01
   4.175017e+01  -6.640460e+01
   3.929878e+01  -8.663126e+01
   2.705656e+01  -1.214776e+01
   2.576128e+01   5.459692e+01
  -1.669127e+01   6.878232e+01
   1.325266e+01  -7.184648e+00
   5.683461e+00  -1.559898e+01
  -3.168299e+01  -9.509832e+00
   6.258066e+00   2.171736e+01
   6.741934e+01  -9.869158e+00
   3.781058e+01   1.365174e+01
   7.517172e+00  -2.706741e+01
  -1.612727e+01   1.365580e+01
  -1.661539e+01   8.672584e+00
  -4.125811e+01   4.743592e+01
   2.127836e+01  -4.889187e+00
  -7.292939e+01  -3.893545e+01
   3.319965e+01  -7.881021e+01
   3.113545e+01   9.677509e+00
   2.720302e+01   3.269994e+01
   1.480467e+01   2.893079e+01
  -2.051299e+01   3.091172e+01
  -7.774104e+01  -5.105445e+01
  -7.446651e+01  -2.750514e+01
  -2.149318e+00  -4.368921e+01
   5.485351e+01  -3.178750e+01
   8.382401e-01  -2.931373e+00
  -4.298972e+01  -7.076805e+00
   3.513436e+00  -4.948038e+00
   5.442691e+01   7.487150e+00
   8.322688e+01   4.190918e+01
