
 $NMID
 id='ANONYMOUS ', fmtdat='(2E16.6)'
 volume=1.0
 tramp=1.0
 $END
  -3.369115e+03   4.404359e+02
  -2.321228e+03  -1.688715e+03
   2.806400e+02  -2.231453e+03
   1.375055e+03  -9.477300e+02
   7.294941e+02   4.548759e+02
  -5.836112e+02   2.543481e+02
  -6.084629e+02  -3.912630e+02
   1.093752e+01  -7.894683e+02
   5.766578e+02  -6.742498e+02
   7.392734e+02   6.145998e+01
   4.406984e+02   6.507102e+02
  -9.204051e+01   7.300643e+02
  -5.067068e+02   9.862140e+01
  -2.619250e+02  -5.709812e+02
   1.846030e+02  -5.680173e+02
   4.436701e+02   8.146543e+00
   2.296153e+02   5.002914e+02
  -2.136651e+02   4.486286e+02
  -4.218425e+02   9.086020e+01
  -2.628962e+02  -2.220495e+02
  -4.131104e+01  -3.576294e+02
   1.844870e+02  -2.119867e+02
   1.261776e+02   8.219963e+01
  -9.677920e+01   5.982373e+01
  -3.590660e+02  -8.339896e+01
  -2.130810e+02  -3.952200e+02
   3.837459e+02  -3.830095e+02
   7.239611e+02   1.060760e+01
   3.940246e+02   4.247518e+02
  -3.485822e+02   3.870143e+02
  -6.852315e+02  -1.147684e+02
  -2.943035e+02  -3.933102e+02
   1.721535e+02  -4.295665e+02
   4.414398e+02  -1.503094e+02
   3.216907e+02   1.469610e+02
   4.458507e+01   3.173598e+02
  -1.054191e+02   1.765846e+02
  -1.367940e+02  -1.827623e+02
   1.487517e+02  -3.140415e+02
   4.121395e+02   1.007309e+02
   2.150057e+02   5.800633e+02
  -2.385403e+02   5.296746e+02
  -4.963196e+02  -2.163269e+01
  -1.421006e+02  -4.286638e+02
   1.959538e+02  -2.102614e+02
   2.991818e+02   2.898424e+02
  -4.669324e+01   4.910791e+02
  -4.124821e+02   1.282897e+02
  -4.513870e+02  -3.061253e+02
  -1.300739e+02  -4.973298e+02
   3.186671e+02  -3.082150e+02
   4.801157e+02   9.694044e+01
   2.935463e+02   3.265429e+02
  -1.196960e+02   2.788833e+02
  -3.340947e+02   4.360573e+01
  -2.146096e+02  -1.740239e+02
   1.220205e+02  -5.392085e+01
   9.948361e+01   1.090330e+02
  -1.184872e+02   1.288678e+02
  -2.625914e+02  -7.807068e+01
  -7.901607e+01  -2.028050e+02
   1.314378e+02  -1.921938e+02
   2.413684e+02  -7.923132e+01
   1.325882e+02   5.401780e+01
  -1.348303e+01   1.578085e+02
  -1.676555e+02   2.988078e+02
  -2.522956e+02   1.677080e+02
  -2.744624e+02  -7.782945e+01
  -5.442996e+01  -3.380195e+02
   1.039509e+02  -2.467259e+02
   6.021971e+01  -7.260119e+01
   1.772052e+00   4.331240e+01
   2.970787e+01  -1.226894e+02
   1.141274e+02  -1.625829e+02
   2.306561e+02   1.787411e+01
   1.089452e+02   2.027299e+02
  -5.306523e+01   2.288250e+02
  -1.741126e+02   1.023825e+01
  -2.147168e+02  -2.356641e+02
  -2.196935e+01  -2.289094e+02
   1.952626e+02  -1.632009e+02
   2.935017e+02   1.198990e+02
   1.753849e+02   2.073709e+02
  -1.207515e+01   2.818755e+02
  -1.417567e+02   1.530017e+02
  -7.624232e+01   1.492907e+01
  -8.293708e+01   5.109531e+01
  -1.760881e+02   7.275690e+01
  -3.226787e+02   3.064205e+01
  -2.542144e+02  -2.024364e+02
  -3.851575e+01  -3.438049e+02
   2.726893e+02  -3.664181e+02
   3.359614e+02  -1.894324e+02
   3.254749e+02   3.919063e+01
   4.231438e+01   2.223458e+02
  -1.044733e+02   2.372399e+02
  -7.967368e+01  -3.965338e+00
   7.824170e+01  -6.283612e+01
   1.916458e+02   3.619142e+01
   1.978844e+01   1.755342e+02
  -1.767921e+02   1.507702e+02
  -1.544904e+02  -2.043934e+01
   6.166570e-01  -1.807437e+02
   1.398221e+02  -3.536772e+01
   1.462278e+02   1.844297e+02
  -2.649797e+01   2.854499e+02
  -1.909668e+02   1.550420e+02
  -2.115459e+02  -1.049436e+01
  -2.358434e+02  -1.422138e+02
  -1.203960e+02  -2.076191e+02
   1.000536e+02  -1.258604e+02
   8.964236e+01  -5.906211e+01
   6.795350e+01   3.734696e+01
  -5.176994e+01  -5.367711e+01
  -2.031973e+01  -1.003586e+02
   1.349372e+02  -1.266963e+02
   1.857177e+02   2.393944e+01
   7.110859e+01   6.850296e+01
  -9.569085e+00   2.901818e+01
  -3.089145e+01  -8.152601e+01
   5.170883e+01  -1.167174e+02
   2.131988e+02  -5.625503e+01
   1.855137e+02   1.032832e+02
   8.306626e+01   2.022466e+02
  -9.967573e+01   2.025722e+02
  -1.920576e+02   1.063913e+02
  -1.140420e+02  -9.526974e+00
  -3.656034e+00  -9.636104e+01
   6.810474e+01   1.500230e+01
  -2.885274e+01   6.188897e+01
  -1.315648e+02   1.142776e+02
  -1.846266e+02  -3.750605e+01
  -6.784891e+01  -1.389039e+02
   7.282456e+01  -1.343662e+02
   1.113758e+02   3.808839e+00
   4.298386e+01   4.011784e+01
  -6.402584e+01   2.864023e+01
  -6.294633e+01  -1.079134e+02
   5.140579e+01  -9.385860e+01
   1.269889e+02  -3.150931e+01
   1.660393e+02   3.455584e+01
   2.335043e+01   2.003978e+02
  -1.163771e+02   1.002440e+02
  -1.291706e+02  -1.196900e+01
  -5.103335e+01  -8.716804e+01
   3.643427e+01  -8.606729e+01
   8.805594e+01  -8.543843e+00
   4.610448e+01   5.442473e+00
  -5.284467e+01   2.215899e+01
   2.574854e+01  -3.291649e+01
   3.479229e+01  -1.616880e+01
   6.532197e+01   3.563817e+01
   2.385439e+01   1.599675e+02
  -1.116799e+02   1.549728e+02
  -1.639599e+02  -1.403568e+01
  -1.656150e+02  -1.348734e+02
  -5.067861e+01  -1.426319e+02
   9.677360e+01  -1.742230e+02
   9.865439e+01  -3.523995e+01
   4.640571e+01   4.067675e+01
   5.968066e+01  -3.663673e+00
   5.360506e+01  -1.824953e+01
   7.109902e+01   1.063367e+01
   5.690916e+01  -1.743532e+01
  -4.964765e+01   1.078544e+02
  -8.568670e+01   6.230763e+01
  -5.519391e+01  -5.811198e+00
   2.015452e+01  -1.103269e+02
   9.678984e+01  -6.099140e+01
   1.749593e+02  -1.094122e+01
   1.210854e+02   1.365265e+02
  -1.011117e+02   2.248209e+02
  -2.084825e+02   8.201571e+01
  -1.994254e+02  -6.951035e+01
  -1.549742e+02  -1.306900e+02
   6.125521e+01  -8.532424e+01
   6.670146e+01  -4.998045e+01
   6.790674e+01  -5.934745e+01
   3.593834e+01  -1.404930e+02
   6.791380e+01  -5.316829e+01
   8.933360e+01  -2.220722e+01
   8.119912e+01   1.125703e+02
   5.467001e+01   1.492917e+02
  -5.855921e+01   1.965544e+02
  -1.682106e+02   8.438184e+01
  -1.750984e+02  -7.892736e+01
  -3.166191e+01  -1.266061e+02
   4.416789e+01  -7.927344e+01
   7.323213e+01  -4.200507e+01
   4.387381e+01   3.883035e+01
  -2.668328e+01   4.283547e+00
   2.618585e+01   8.235327e+00
   5.789573e+01   1.184462e+01
  -3.933465e+00   3.973990e+01
  -1.319875e+01   3.882638e+01
  -1.310691e+02  -8.392600e+00
  -1.311969e+02  -4.648978e+00
  -6.771475e+01  -4.547929e+01
   9.077716e+01  -7.421257e+01
   1.100917e+02  -3.473422e+01
   8.930542e+00   3.860341e+01
  -5.395730e+01   4.151841e+01
  -6.605239e+01  -1.951344e+01
  -2.630385e+01  -1.611142e+01
   1.845104e+01  -6.811858e+01
   3.334269e+01  -8.685712e+00
   1.412233e+01   1.243543e+01
   5.757499e+01   4.256734e+01
   4.114223e+01   1.604380e+01
   4.065808e+01  -2.475653e+01
   2.106022e+01   6.785688e+01
  -1.891762e+01   8.904357e+01
  -7.815685e+01   1.205997e+02
  -7.595787e+01   1.583291e+01
  -1.226743e+02  -5.766972e+01
  -2.393073e+01  -9.496534e+01
   9.429209e+01  -5.550575e+01
   4.169056e+01   1.874738e+01
  -6.083261e+01   3.442388e+01
  -1.492558e+02  -3.257937e+01
  -7.860990e+01  -5.376360e+01
  -1.291984e+01  -9.239767e+01
   1.633789e+02  -5.194796e+01
   1.465229e+02   1.327889e+01
   6.991528e+01   5.914102e+01
  -2.475036e+01   3.512677e+01
  -1.392696e+00   9.038451e+00
   1.946462e+01  -1.881240e+01
   4.843666e+01   3.765828e+00
   4.779629e+01   9.010947e+01
  -4.903110e+01   1.510371e+02
  -1.558069e+02   2.243147e+01
  -1.188603e+02  -5.473343e+01
  -3.177901e+01  -1.345722e+02
   5.118738e+01  -1.472323e+02
   8.519114e+01  -3.938103e+00
   7.248871e+01   7.622435e+01
   1.390926e+01   7.856049e+01
  -4.181372e+01   4.562186e+01
  -1.184579e+01  -1.331947e+01
  -5.680823e-01  -1.650517e+00
  -8.184269e+00   3.393727e+01
  -3.384130e+00   1.253097e+00
  -3.882270e+01  -5.812506e+01
  -5.335841e+01  -1.082977e+02
   5.640730e+01  -4.709559e+01
   1.061497e+02   3.234176e+01
   9.230304e+01   3.358583e+01
   3.140891e+01   5.346293e+01
  -9.505217e+01   3.454511e+01
  -3.034943e+01  -2.322601e+00
  -1.068862e+01  -2.238524e+01
   6.725990e+01   8.004197e+00
  -2.879804e+00  -9.211141e+00
  -7.200413e+00   3.044265e+01
  -1.341113e+01   3.326342e+01
   6.819638e+01   3.213859e+01
   3.385185e+01   3.022286e+00
   2.696024e+00   4.333921e+01
  -9.364166e+01   5.355415e+01
  -1.243531e+02   7.771823e+01
  -7.096577e+01  -2.799965e+01
  -1.348745e+01  -1.424458e+02
   3.753287e+01  -1.635784e+02
   1.148827e+02  -7.670539e+01
   7.389176e+01   4.535156e+01
  -1.148551e+01   2.236258e+01
   4.188767e+00  -4.382791e+01
   1.660336e+01   1.469979e+01
   4.285256e+01   2.888774e+01
  -3.024704e+00   4.692263e+01
  -1.453363e+01   8.878811e+01
  -7.335063e+01   1.268900e+01
  -1.030922e+02  -1.167041e+02
  -2.531012e+01  -8.536608e+01
   6.640068e+01  -5.516239e+01
   9.738713e+01   5.429485e+01
   4.044904e+01   5.020410e+01
  -3.482190e+01   6.839208e+01
  -6.751356e+01  -4.727225e+00
  -1.542973e+01  -7.041409e+00
   4.576330e+01  -4.733907e+01
   1.000567e+01  -6.071595e+00
   9.435578e+00   1.373493e+01
  -5.466247e+01   1.029245e+01
   2.687321e+01  -2.365735e+01
   6.671004e+01  -4.726497e+01
   8.023395e+01  -4.193213e+01
   6.143373e+01  -4.552997e+00
   2.228145e+01   5.548758e+01
  -7.332374e+01   6.561424e+01
   1.135909e+01  -1.816346e+01
  -2.904318e+01  -8.620667e+01
   4.600286e+01  -6.883230e+01
   6.812271e+00   2.915662e+01
   2.155134e+01   3.775596e+01
   8.389570e+01   4.276140e+01
  -1.168790e+01   1.678066e+01
  -4.305305e+01  -1.143061e+01
  -4.082580e+01  -2.753370e+01
  -3.398065e+01  -3.071215e+01
   1.697960e+01  -2.275483e+01
   4.234443e+01  -1.194458e+01
  -8.113613e+00  -5.343754e+01
  -8.347867e+00   2.886924e+01
   5.620736e+01   1.826067e+01
  -3.345674e+00   1.094620e+01
  -4.192531e+01   9.424986e+00
  -5.000210e+01  -2.485242e+01
  -3.556460e+01   7.534856e-01
   2.973873e+01  -4.907320e+01
   1.001838e+02  -1.469468e+01
   1.019767e+01   1.401481e+01
  -1.883922e+01   3.779319e+01
  -6.863216e+01   1.349933e+01
  -2.654676e+01  -1.630682e+01
   2.405013e+00   3.570808e+01
   6.343998e+01   1.035833e+01
  -3.771683e+00  -1.136676e+01
  -5.380318e+01   4.315658e+01
