
 $NMID
 id='ANONYMOUS ', fmtdat='(2E16.6)'
 volume=1.0
 tramp=1.0
 $END
  -4.371860e+03   2.094990e+02
  -2.804180e+03  -2.505038e+03
   5.437378e+02  -2.622859e+03
   1.867340e+03  -7.731826e+02
   8.549605e+02   5.370633e+02
  -6.371525e+02   4.554725e+02
  -8.463807e+02  -5.360958e+02
   8.513282e+00  -1.095055e+03
   7.519455e+02  -7.495876e+02
   8.737465e+02  -1.417898e+01
   4.468873e+02   8.233414e+02
  -1.632163e+02   8.660072e+02
  -5.682364e+02   1.043509e+02
  -4.134069e+02  -6.943095e+02
   2.624062e+02  -7.186550e+02
   5.305695e+02   2.280635e+01
   2.550029e+02   6.288788e+02
  -2.811218e+02   6.647182e+02
  -5.757408e+02   1.542621e+02
  -3.409176e+02  -2.395482e+02
  -1.034920e+02  -4.408302e+02
   1.647893e+02  -3.070394e+02
   1.692972e+02  -1.997368e+01
  -9.871946e+01   3.223809e+01
  -3.985188e+02  -9.076324e+01
  -1.819522e+02  -4.419487e+02
   4.684965e+02  -4.356295e+02
   8.452967e+02   9.005638e+01
   4.026414e+02   5.616341e+02
  -3.677674e+02   5.422523e+02
  -7.458390e+02  -8.055117e+01
  -3.918279e+02  -5.171547e+02
   2.460278e+02  -5.159415e+02
   5.987017e+02  -2.148445e+02
   4.029403e+02   1.704966e+02
   9.789526e+01   4.215138e+02
  -1.915123e+02   2.235466e+02
  -8.982065e+01  -2.280355e+02
   1.773739e+02  -4.878323e+02
   4.415523e+02   3.613495e+01
   2.506126e+02   7.118100e+02
  -3.663027e+02   6.840009e+02
  -5.483197e+02   3.479462e+01
  -2.212797e+02  -5.329920e+02
   2.682272e+02  -3.107115e+02
   3.964036e+02   2.859571e+02
  -5.129677e+01   5.350797e+02
  -5.763433e+02   2.143040e+02
  -6.318331e+02  -3.933617e+02
  -1.952669e+02  -5.655861e+02
   3.973869e+02  -3.389055e+02
   6.197327e+02   9.992003e+01
   3.784845e+02   3.694823e+02
  -1.705370e+02   3.601508e+02
  -4.756584e+02   9.151715e+01
  -2.881508e+02  -1.109916e+02
   1.084434e+02  -8.014237e+01
   1.229829e+02   1.921479e+02
  -1.585285e+02   1.805557e+02
  -3.631044e+02  -4.794017e+01
  -1.568489e+02  -2.922134e+02
   1.663000e+02  -2.709641e+02
   2.845785e+02  -9.219335e+01
   2.007606e+02   1.531784e+02
  -3.774352e+01   2.170162e+02
  -2.083319e+02   3.173489e+02
  -3.301085e+02   2.147904e+02
  -2.960523e+02  -1.100312e+02
  -8.204779e+01  -4.382880e+02
   1.194830e+02  -3.557382e+02
   1.678210e+02  -1.359397e+02
  -2.097753e-01   1.272063e+01
  -2.628242e+00  -1.060891e+02
   1.803129e+02  -1.702454e+02
   2.854699e+02   4.491697e+01
   1.426689e+02   2.921549e+02
  -7.842933e+01   2.442426e+02
  -2.552107e+02   1.807333e+01
  -2.027457e+02  -2.975810e+02
   5.018751e+01  -3.067560e+02
   2.545319e+02  -1.674453e+02
   3.876113e+02   1.746915e+02
   1.871223e+02   3.665533e+02
  -4.939582e+01   3.177302e+02
  -2.330866e+02   9.042921e+01
  -1.433276e+02   3.536910e+00
  -8.849867e+01   3.531144e+01
  -2.554631e+02   1.062300e+02
  -3.724941e+02  -4.805403e+00
  -3.182009e+02  -2.640046e+02
  -2.411174e+01  -4.622620e+02
   3.212458e+02  -4.816015e+02
   4.928637e+02  -1.916518e+02
   3.123109e+02   8.318862e+01
   5.708436e+01   3.360972e+02
  -1.437516e+02   2.810163e+02
  -1.004034e+02   8.556580e+00
   1.554967e+02  -1.347556e+02
   2.322389e+02   6.771211e+00
   7.373531e+01   2.156726e+02
  -1.627528e+02   1.721889e+02
  -1.843207e+02  -2.385474e+01
   5.081106e+01  -1.767204e+02
   1.934101e+02  -5.916971e+01
   2.294007e+02   2.336169e+02
  -1.312262e-01   3.152094e+02
  -2.621625e+02   1.906739e+02
  -3.459098e+02  -8.524403e+01
  -3.241136e+02  -2.251108e+02
  -1.068797e+02  -3.012505e+02
   1.389531e+02  -1.628963e+02
   1.816746e+02   9.965274e+00
   3.204710e+01   5.910710e+01
  -6.622178e+01  -3.032672e+01
  -6.579430e+01  -1.338444e+02
   1.131756e+02  -1.108588e+02
   2.094132e+02  -3.260792e+01
   3.426346e+01   5.442416e+01
  -7.288692e+01   4.499372e+01
  -6.864618e+01  -1.220541e+02
   7.273952e+01  -7.917360e+01
   2.667653e+02  -2.085276e+01
   2.984435e+02   1.178978e+02
   7.372267e+01   2.490245e+02
  -1.435327e+02   2.840233e+02
  -2.787916e+02   1.184217e+02
  -1.612298e+02  -3.296065e+01
   2.390750e+00  -1.414048e+02
   3.600358e+01   5.689779e+00
  -5.186386e+01   1.332875e+02
  -1.593656e+02   6.938317e+01
  -2.232419e+02  -6.715127e+01
  -6.653496e+01  -1.553561e+02
   8.102058e+01  -1.511017e+02
   1.420940e+02  -2.130558e+01
   5.716308e+01   2.179274e+01
  -1.575896e+01  -3.037492e+01
  -4.064616e+01  -7.108864e+01
   9.026918e+01  -8.776363e+01
   2.091016e+02  -8.154002e+00
   2.358040e+02   1.079095e+02
   3.464066e+00   2.585042e+02
  -1.535346e+02   1.580155e+02
  -2.110085e+02  -2.853321e+01
  -7.909259e+01  -1.233117e+02
   2.365196e+01  -1.026829e+02
   3.168418e+01  -3.185199e+01
   4.069694e+01   7.438715e+01
  -1.197701e+01  -1.715506e+01
   2.182666e+01  -1.471915e+01
   1.067140e+02  -8.800552e+00
   1.367369e+02   7.430308e+01
  -2.060776e+01   1.425671e+02
  -1.042590e+02   1.591104e+02
  -2.626529e+02   2.362012e+01
  -2.060281e+02  -1.117757e+02
  -3.300030e+00  -2.421057e+02
   1.293062e+02  -1.786430e+02
   1.643255e+02  -1.264353e+01
   4.785320e+01   5.703595e+00
  -1.332318e+01   2.170301e+01
   6.668255e+01  -3.975918e+01
   1.160640e+02  -2.334525e+01
   5.067549e+01   5.331393e+01
  -8.069964e+01   5.124581e+01
  -1.149518e+02   8.739701e+01
  -1.335566e+02  -1.353361e+01
   1.506707e+01  -1.484628e+02
   1.762928e+02  -1.167700e+02
   2.243319e+02   3.158312e+01
   4.999941e+01   1.912945e+02
  -1.140600e+02   2.244404e+02
  -2.673372e+02   4.050457e+01
  -2.724860e+02  -8.038296e+01
  -1.525229e+02  -1.473268e+02
   5.363085e+01  -1.455771e+02
   4.371442e+01  -1.187421e+02
   5.279250e+01  -1.033334e+02
   3.586092e+01  -9.555260e+01
   6.878349e+01  -1.160241e+02
   1.628871e+02  -2.639449e+00
   1.490423e+02   1.590318e+02
   3.885648e+01   2.174198e+02
  -8.016189e+01   2.049624e+02
  -1.934950e+02   4.286157e+01
  -1.570666e+02  -7.948339e+01
  -1.564088e+01  -1.196462e+02
   7.701087e+01  -5.647863e+01
   2.381936e+01   4.429557e+00
   2.662668e+01   2.449092e+01
   2.645153e+01   2.883958e+01
   3.620257e+01   4.994593e+01
   7.650012e+01   4.948434e+00
   2.171917e+01   2.093157e+01
  -7.379504e+01   4.020796e+01
  -1.440804e+02   2.645556e+01
  -1.421729e+02  -6.037840e+01
   1.160409e+01  -1.191372e+02
   9.005357e+01  -6.555577e+01
   1.634806e+02  -2.980011e+01
   3.539052e+01   3.431246e+01
  -7.873863e+01   6.045049e+01
  -1.200070e+02  -2.170875e+01
  -4.459317e+01  -4.905315e+01
   5.863664e+01  -7.224536e+01
   5.162318e+01   1.225412e+01
   5.493242e+01   5.999552e+01
  -1.538981e+01   5.045780e+01
   5.156314e+01   2.517363e+00
   8.076022e+01  -3.966722e+00
   4.647086e+01   4.631042e+01
  -8.007312e+00   1.627269e+02
  -7.690200e+01   1.595237e+02
  -2.072967e+02   6.821978e+01
  -1.139683e+02  -7.818415e+01
  -2.682428e+01  -1.008573e+02
   3.739719e+01  -6.229997e+01
   5.053764e+01   1.373661e+01
  -6.056566e+01   1.204832e+01
  -1.475864e+02  -4.143631e+01
  -7.090437e+01  -1.023273e+02
   8.701981e+01  -1.356653e+02
   1.971384e+02  -1.067871e+02
   1.341044e+02   3.420937e+01
   1.604659e+01   5.806500e+01
  -7.515137e+01   5.704627e+01
  -8.029499e+01   1.806029e+01
   3.204671e+01  -3.500736e+01
   1.236078e+02   4.629193e+01
   5.056218e+01   1.511746e+02
  -9.902598e+01   1.731054e+02
  -1.660488e+02   3.492866e+01
  -1.434635e+02  -1.401169e+02
  -3.929541e+01  -1.905144e+02
   1.108464e+02  -1.343870e+02
   1.240928e+02   2.404112e+01
   8.293700e+01   7.732498e+01
   5.527247e+01   1.086178e+02
  -1.363310e+01  -2.516287e+01
  -3.447368e+01  -5.291452e+01
  -6.063519e+01  -2.484097e+01
   1.702532e+01   5.087145e+01
  -2.283993e+01  -5.696281e-01
  -6.914286e+01  -1.008090e+02
  -5.173023e+01  -1.174814e+02
   1.034608e+02  -1.036718e+02
   1.041122e+02  -1.729214e+01
   1.088569e+02   3.676759e+01
  -6.714751e+00   3.411395e+01
  -7.700979e+01   2.633284e+01
  -9.970009e+01   5.790935e+01
   8.769265e+00   1.404338e+00
   2.383342e+01  -7.945975e+01
  -5.019147e+01  -1.506285e+01
  -5.993528e+00  -2.373380e+01
  -2.543419e+01   1.573687e+01
   1.120846e+02  -3.809930e+00
   1.087221e+02  -1.283655e+00
  -1.025756e+01   5.442762e+01
  -1.025206e+02   1.237810e+02
  -1.668464e+02   3.560080e+01
  -1.593501e+02  -4.165473e+01
  -2.547523e+01  -1.646223e+02
   3.202383e+01  -1.497001e+02
   1.262650e+02  -1.218217e+02
   8.855222e+01  -1.484373e+01
   3.336246e+01   7.364596e+01
   6.756440e+00   1.012706e+01
   1.737027e+01   7.762707e+00
   8.177751e+01   9.133088e+01
   4.440766e+01   9.074672e+01
   1.010647e+01   6.460657e+01
  -1.230206e+02   1.212403e+01
  -1.005343e+02  -1.077546e+02
  -1.875253e+01  -9.223666e+01
   9.376858e+01  -1.594363e+01
   1.169048e+02   3.316128e+01
   2.535239e+01   1.071723e+02
  -5.832098e+01   7.012269e+01
  -1.116739e+02  -4.064450e+01
  -2.173845e+01  -4.682909e+01
  -5.306830e+00  -2.958920e+01
   3.387491e+01   1.614985e+01
  -1.099727e+01  -4.573330e+01
  -4.211489e+01   1.686111e+01
   1.632442e+01  -3.723915e+01
   7.394599e+01  -6.095120e+01
   9.589868e+01  -5.807829e+01
   7.179146e+01   1.741679e+01
  -1.348196e+01   8.589901e+01
  -6.172489e+01   8.492962e+01
  -6.226599e+01  -1.495198e+01
  -9.368931e+00  -1.031460e+02
   4.828143e+00  -6.406053e+01
   4.903385e+01  -3.070836e+01
   5.202263e+01   5.988449e+01
   1.870906e+01   2.359471e+01
  -5.407701e+01   8.971166e+00
  -3.739702e+01   2.097116e+01
  -1.479740e+01   5.066771e+00
  -1.338973e+01  -7.696945e+00
  -1.977243e+01  -2.964319e+00
   1.738358e+00  -4.919359e+01
   1.742608e+01  -7.412628e+01
   6.112167e+01  -2.579633e+01
   6.211186e+01   2.286415e+01
   1.554713e+01   6.391490e+01
  -5.395849e+01   1.781690e+01
  -6.031446e+01  -4.901728e+01
  -2.065097e+01  -4.524139e+01
   3.211301e+01  -1.440973e+01
   5.031633e+01   5.537417e+01
   6.746002e+01   6.611077e+01
  -7.451275e+01   4.317710e+01
  -1.870825e+01   3.257190e+01
  -6.266149e+01   2.086117e+00
   4.946741e+01   2.259636e+01
   2.358657e+01   3.389126e+01
  -4.040172e+01   4.888285e+01
  -7.218398e+01  -1.449127e+01
