
 $NMID
 id='ANONYMOUS ', fmtdat='(2E16.6)'
 volume=1.0
 tramp=1.0
 $END
   3.756523e+03  -2.611091e+02
   2.574171e+03   2.138745e+03
  -1.801874e+02   2.247405e+03
  -1.527063e+03   7.803797e+02
  -9.864737e+02  -2.165486e+02
   5.210370e+02  -3.725766e+02
   7.228483e+02   3.282106e+02
  -4.394126e+01   8.427944e+02
  -6.398632e+02   5.901779e+02
  -7.629864e+02   2.597407e+01
  -4.252544e+02  -5.345165e+02
   5.723954e+01  -7.247127e+02
   4.152666e+02  -1.320769e+02
   3.587757e+02   5.135685e+02
  -1.397846e+02   6.283205e+02
  -4.582184e+02  -5.382535e+00
  -2.868963e+02  -5.829772e+02
   2.353088e+02  -6.376413e+02
   4.400004e+02  -1.485131e+02
   3.808829e+02   2.339347e+02
   1.158676e+02   3.480493e+02
  -1.381204e+02   2.740524e+02
  -1.552784e+02  -2.349053e+00
   1.610912e+02   1.904734e+01
   3.940528e+02   1.562449e+02
   1.054660e+02   3.653030e+02
  -4.706952e+02   2.501070e+02
  -7.524007e+02  -1.112309e+02
  -2.937349e+02  -5.027354e+02
   3.577056e+02  -3.083929e+02
   6.680856e+02   1.070207e+02
   3.205182e+02   4.328944e+02
  -2.866891e+02   4.233583e+02
  -4.632371e+02   1.656894e+02
  -3.569247e+02  -1.744390e+02
  -6.553168e+01  -3.379103e+02
   1.298850e+02  -1.622911e+02
   6.889564e+01   1.364489e+02
  -1.495900e+02   3.441497e+02
  -3.188048e+02  -8.110811e+01
  -1.469888e+02  -6.351109e+02
   2.912741e+02  -5.396963e+02
   4.307793e+02  -2.250730e+01
   1.439924e+02   4.094267e+02
  -1.868752e+02   1.578263e+02
  -2.802017e+02  -3.114970e+02
   1.145042e+02  -4.994643e+02
   4.770763e+02  -1.432196e+02
   5.911785e+02   3.187917e+02
   1.751262e+02   4.727796e+02
  -2.914649e+02   2.947147e+02
  -5.759055e+02  -9.912364e+00
  -3.575555e+02  -2.506345e+02
   7.724651e+01  -3.170123e+02
   3.404095e+02  -1.027156e+02
   2.614968e+02   7.163606e+01
  -1.021165e+02   6.172056e+01
  -1.015546e+02  -8.377115e+01
   1.519890e+02  -1.277613e+02
   2.463941e+02   5.463178e+01
   1.568956e+02   2.192193e+02
  -1.089512e+02   2.155944e+02
  -2.871540e+02   1.608925e+02
  -1.507043e+02  -6.076460e+01
   5.829933e+01  -2.627028e+02
   2.366690e+02  -2.938089e+02
   3.299041e+02  -1.859925e+02
   2.605969e+02   4.834245e+01
   1.102137e+02   3.567274e+02
  -3.425932e+01   2.946271e+02
  -8.603225e+01   1.046378e+02
  -1.784426e+01   8.470673e+01
  -1.012151e+02   1.023786e+02
  -1.890879e+02   8.980347e+01
  -2.270262e+02  -9.744021e+01
  -1.758563e+02  -2.588060e+02
   4.442620e+01  -1.865202e+02
   2.103088e+02   1.633009e+01
   1.901046e+02   2.535173e+02
  -1.075866e+01   2.626497e+02
  -2.190211e+02   8.223987e+01
  -3.047320e+02  -1.772644e+02
  -1.434461e+02  -3.085821e+02
   5.741621e+01  -2.287861e+02
   1.935196e+02  -1.302909e+02
   1.207124e+02  -7.560744e+01
   1.371463e+02  -7.188069e+01
   2.391039e+02  -6.740263e+01
   3.608411e+02   1.030884e+02
   2.932056e+02   2.342564e+02
  -4.315392e+00   3.657567e+02
  -3.605643e+02   4.170545e+02
  -4.466177e+02   1.706489e+02
  -3.250733e+02  -7.145876e+01
  -6.510945e+01  -2.722558e+02
   9.770728e+01  -2.287258e+02
   4.504587e+01  -2.934008e+01
  -1.413221e+02   9.052750e+01
  -1.877344e+02  -1.211566e+00
  -3.216532e+01  -1.775808e+02
   1.274920e+02  -1.972737e+02
   1.434513e+02   5.837634e+01
  -3.247669e+01   1.617412e+02
  -1.776383e+02   2.108309e+01
  -1.839520e+02  -2.899772e+02
   2.715338e+01  -3.296891e+02
   1.873915e+02  -1.589089e+02
   3.205709e+02   3.882032e+01
   2.500816e+02   2.268020e+02
   9.251720e+01   2.399294e+02
  -1.279060e+02   1.541427e+02
  -1.692624e+02   2.742838e+01
  -4.377262e+01   3.164933e+01
   9.698938e+01   1.386430e+00
  -1.281217e+01   1.352326e+02
  -1.355691e+02   9.595495e+01
  -1.498480e+02   5.323581e+01
  -1.517208e+00  -5.705673e+01
   8.570499e+01   2.176994e+01
   5.523883e+01   6.077062e+01
  -1.002751e+02   9.380081e+01
  -2.778834e+02  -1.000958e+01
  -2.986276e+02  -1.351892e+02
  -7.483207e+01  -2.452839e+02
   1.601140e+02  -3.271172e+02
   2.443696e+02  -1.260959e+02
   1.058388e+02   5.025530e+00
  -1.086482e+01   1.279676e+02
  -3.761385e+01  -5.812335e+01
   8.559369e+01  -1.395157e+02
   1.848121e+02  -2.206671e+01
   2.087716e+02   1.023780e+02
   8.603092e+01   1.398761e+02
  -4.726938e+01   1.478545e+02
  -1.228075e+02   4.319204e+01
  -6.221965e+01  -2.634243e+01
   2.199190e+01  -3.035747e+00
   5.257348e+01   4.232110e+01
  -6.237814e+01   9.826754e+01
  -1.912627e+02  -2.291002e+00
  -1.917518e+02  -1.157555e+02
  -2.777891e+01  -1.693618e+02
   1.396652e+02  -1.384341e+02
   1.483881e+02  -9.157349e+00
   5.855706e+01   1.193286e+02
  -7.086332e+01   4.385147e+01
  -7.236919e+01  -1.005292e+01
  -2.492143e+01  -3.665014e+01
  -9.681829e+00   5.012079e+00
  -3.647781e+01   3.225765e+01
  -8.519091e+01   3.435022e+01
  -1.280288e+02  -8.911431e+01
  -6.684423e+00  -1.415093e+02
   1.516685e+02  -1.990459e+02
   1.686269e+02  -7.010496e+01
   1.884508e+02   6.379192e+01
   3.856951e+01   1.860047e+02
  -7.627565e+01   1.438654e+02
  -1.006138e+02   5.702015e+01
  -1.141406e+02  -1.474088e+01
  -2.672575e+01  -7.978174e+00
  -3.893327e+01  -6.789349e+00
  -1.136067e+02   3.165761e+01
  -6.876759e+01  -4.125202e+01
   2.075554e+01  -1.254366e+02
   5.635747e+01  -6.938145e+01
   9.139227e+01   4.070682e+01
  -7.427604e+01   1.074348e+02
  -1.653960e+02   7.357618e+01
  -2.016702e+02  -6.181799e+01
  -9.258369e+01  -1.764393e+02
   7.878740e+01  -2.201415e+02
   2.756927e+02  -1.260818e+02
   2.329511e+02   6.782342e+01
   1.082533e+02   1.439180e+02
  -8.053901e+00   1.128736e+02
  -5.671758e+01   5.757334e+01
  -4.495894e+01   8.505339e+01
  -1.643942e+01   9.571175e+01
  -7.884230e+01   8.467872e+01
  -1.635224e+02   5.160761e+00
  -1.446919e+02  -1.287456e+02
  -5.424849e+01  -2.743513e+02
   8.752379e+01  -1.392904e+02
   1.211079e+02  -3.085439e+01
   1.173461e+02   9.354301e+01
   2.929790e+01   1.715052e+02
  -9.215017e+01   8.087656e+01
  -6.011283e+01  -4.029516e+01
  -3.951921e+00  -6.928021e+01
   3.951564e+01  -2.754682e+01
  -2.887040e+01  -4.435278e+01
  -1.169767e+02   1.628491e+01
  -2.302360e+01  -2.977171e+00
   8.327295e+01  -4.663044e+01
   1.404464e+02  -1.168104e+01
   1.399681e+02   2.174665e+01
   6.505813e+00   1.217303e+02
  -7.390148e+01   7.385528e+01
  -1.356031e+02  -7.517290e+00
  -6.320953e+01  -8.829971e+01
   4.684016e+01  -5.771839e+00
   7.580895e+01   4.606829e+00
   6.484486e+00   7.063330e+01
  -5.120190e+01   9.147913e+01
  -3.980993e+01  -8.453333e+00
  -4.280386e+01  -6.152069e+01
   2.382058e+01  -4.205976e+01
  -3.144110e+01   1.008915e+00
  -4.001866e+01  -6.514675e+00
  -4.938926e+01  -5.229828e+01
   2.681126e+01  -1.490706e+02
   5.555188e+01  -1.792820e+02
   1.569182e+02  -5.063319e+01
   1.291822e+02   1.108877e+02
  -8.744192e+00   1.268367e+02
  -7.675548e+01   6.128442e+01
  -6.942926e+01  -2.640719e+01
   3.941734e+01  -5.389742e+01
   1.356126e+02   1.644679e+01
   1.022415e+02   9.449505e+01
  -9.876764e+01   1.110135e+02
  -2.040712e+02   8.555084e+01
  -1.157375e+02   8.832004e+00
  -5.051427e+01  -7.702051e+01
   5.851442e+01  -7.040803e+01
   6.036729e+01   1.374108e+01
  -5.669200e+00   3.214757e+01
  -1.248608e+02  -4.820961e+01
  -3.292219e+01  -1.195082e+02
   7.438263e+01  -1.512591e+02
   9.877874e+01  -1.990008e+01
   1.190014e+02   1.236997e+02
   3.296404e+01   1.703675e+02
  -8.418976e+01   1.538308e+02
  -1.508972e+02   1.149991e+01
  -6.832342e+01  -1.277321e+02
  -4.740744e+01  -1.003887e+02
   1.229390e+01  -1.894136e+01
   8.784607e+01  -3.506855e+00
   2.380613e+01   1.512345e+01
   5.021640e+01   3.270735e+01
   2.914026e+01   1.568551e+01
   4.475574e+01   1.307446e+02
   6.441744e+01   1.120922e+02
  -1.027051e+02   5.740252e+01
  -1.341651e+02  -2.803848e+01
  -1.284268e+02  -3.453424e+01
   1.043848e+01  -6.531357e+01
   1.134966e+02  -6.110058e+01
   6.088968e+01  -3.165807e+01
  -1.570754e+01   1.698374e+01
  -5.903779e+01   4.878764e+01
   1.130584e+01   3.823622e+01
   4.027632e+01  -1.158827e+01
   3.037685e+01  -2.071251e+01
  -6.198231e+01  -2.979999e+01
  -1.123261e+02  -4.889336e+01
  -3.410281e+01  -6.033830e+01
   1.022692e+02  -1.383611e+02
   1.594061e+02  -9.618013e+01
   1.359501e+02   4.526303e+01
   4.304683e+01   1.673615e+02
  -8.846362e+01   1.491770e+02
  -1.073574e+02   1.116468e+02
  -7.379138e+01   1.347934e+01
  -1.075017e+01  -2.957517e+01
   3.021670e+00   4.477967e+01
  -6.657420e+00  -2.499749e+01
  -2.171816e+01  -5.754591e+01
  -2.164861e+01  -4.581910e+01
   3.361345e+01  -4.706869e+01
   7.286720e+01   1.907671e+01
   8.534877e+01   1.083530e+02
   3.185750e+01   1.022923e+02
  -4.799714e+01  -2.031438e+01
  -1.149494e+02  -8.890046e+01
  -5.009563e+01  -1.080668e+02
   5.763716e+01  -3.107149e+00
   9.023553e+01   5.819826e+00
   2.881522e+01   5.865122e+01
   2.346365e+01   2.836792e+01
  -3.557532e+01   2.674780e+01
   1.287156e+01  -1.899829e+01
   9.852098e+01   7.727698e-01
   9.352939e+00   1.919268e+01
  -8.844449e+01   3.312157e+01
  -1.225641e+02   3.158834e+01
  -7.897951e+01  -3.182900e+01
  -1.861112e+01  -6.891327e+01
   4.793709e+01  -5.567531e+01
   4.446813e+01   4.302449e+01
   2.944689e+01   5.063466e+01
  -4.436987e+01   3.432976e+01
   9.578323e+00  -7.405023e+00
  -5.404235e+01  -3.318724e+01
  -2.559514e+01   4.089723e+00
   4.557775e+01   8.900204e+00
   5.182886e+01   4.345894e+01
   2.179580e+01  -1.947798e+00
   5.612766e+00  -2.057034e+01
  -3.130014e+01   3.026150e+01
   5.202326e+01   5.099229e+01
  -1.513792e+01   6.256076e+01
  -4.963324e+01   1.913706e+01
  -4.087220e+01  -6.087409e+01
  -1.576245e-01  -8.168348e+01
   3.773111e-01  -1.957557e+01
   8.271852e+01   5.076028e+01
   6.617203e+01   6.612772e+01
  -5.433630e+01   5.409147e+01
  -1.206145e+02   7.343906e-01
  -3.773644e+01  -4.187455e+00
   3.324549e+01  -3.974311e+01
   5.152616e+01  -5.733969e+01
   3.660982e+01   2.267577e+00
   4.651375e+00   4.027162e+01
  -3.938089e+01  -4.272584e+00
   3.110331e+01  -3.156812e+01
   8.000265e+01  -2.846428e+01
