
 $NMID
 id='ANONYMOUS ', fmtdat='(2E16.6)'
 volume=1.0
 tramp=1.0
 $END
  -3.083864e+03  -1.052805e+02
  -2.505385e+03  -1.802871e+03
   1.814596e+02  -2.010898e+03
   1.267338e+03  -1.088430e+03
   9.326521e+02   4.758061e+00
  -3.204933e+02   3.054424e+02
  -5.100955e+02  -1.996877e+02
   1.757052e+01  -6.160456e+02
   4.861544e+02  -5.704222e+02
   6.370944e+02  -1.571975e+01
   4.289864e+02   5.764924e+02
  -7.613493e+01   6.270301e+02
  -3.389423e+02   1.651684e+02
  -2.686911e+02  -4.738508e+02
   1.037667e+02  -5.868941e+02
   3.537780e+02  -1.983987e+01
   1.672863e+02   4.479268e+02
  -1.629811e+02   5.385313e+02
  -4.240245e+02   1.273516e+02
  -3.277511e+02  -2.119893e+02
  -1.022660e+02  -2.810706e+02
   1.280836e+02  -2.152745e+02
   1.410440e+02  -4.632918e+01
  -1.321695e+02   2.485877e+00
  -3.307339e+02  -1.604221e+02
  -7.922529e+01  -3.894426e+02
   3.997635e+02  -2.708137e+02
   6.474399e+02   1.477451e+02
   2.768164e+02   3.505864e+02
  -3.293878e+02   2.025861e+02
  -5.989540e+02  -1.490208e+02
  -2.208918e+02  -3.372937e+02
   1.789576e+02  -3.934959e+02
   4.358517e+02  -1.560396e+02
   3.260611e+02   1.362261e+02
   1.057764e+02   3.092866e+02
  -1.061883e+02   1.832102e+02
  -7.369199e+01  -1.506401e+02
   1.024801e+02  -2.941975e+02
   2.907695e+02   2.697748e+01
   1.193808e+02   4.838262e+02
  -2.564716e+02   5.146120e+02
  -3.503916e+02  -2.079379e+00
  -2.247108e+02  -3.308705e+02
   1.896996e+02  -2.100955e+02
   2.881429e+02   2.706505e+02
  -8.674685e+01   4.743218e+02
  -4.059712e+02   8.344816e+01
  -4.673178e+02  -3.317137e+02
  -1.164946e+02  -4.602416e+02
   2.717919e+02  -3.077061e+02
   4.811827e+02   3.302940e+01
   3.222196e+02   2.761345e+02
  -5.818807e+01   2.617825e+02
  -3.547138e+02   5.047715e+01
  -1.813346e+02  -6.377149e+01
   8.274800e+01  -3.071462e+01
   8.784241e+01   8.934094e+01
  -1.229799e+02   1.010045e+02
  -2.690282e+02  -4.984971e+01
  -1.902092e+02  -2.525986e+02
   1.033366e+02  -2.021734e+02
   2.915689e+02  -1.495044e+02
   2.255722e+02   5.402953e+01
  -1.658925e+01   2.539872e+02
  -2.057133e+02   3.329047e+02
  -2.788630e+02   1.906584e+02
  -2.494960e+02  -1.109189e+02
  -2.416120e+01  -2.797620e+02
   4.002844e+01  -2.846688e+02
   5.986516e+01  -1.170599e+02
   3.930792e+01  -6.400906e+01
   6.479841e+01  -8.137863e+01
   1.932525e+02  -2.868469e+01
   2.172919e+02   3.136408e+01
   1.392071e+02   2.629171e+02
  -2.427816e+01   1.671613e+02
  -1.445497e+02   1.707421e+01
  -1.288630e+02  -1.870019e+02
   4.089398e+01  -2.459224e+02
   2.322041e+02  -5.688879e+01
   2.997929e+02   1.107982e+02
   7.790353e+01   2.604484e+02
  -1.851755e+01   2.463646e+02
  -1.276535e+02   9.829873e+01
  -9.397872e+01   7.559521e+01
  -1.449188e+02   8.685722e+01
  -2.390068e+02   7.499517e+01
  -3.216638e+02  -2.981430e+01
  -2.683773e+02  -2.423018e+02
  -1.215449e+01  -3.617422e+02
   2.882700e+02  -2.685036e+02
   3.984844e+02  -1.202942e+02
   2.786446e+02   2.226151e+01
   7.621610e+01   2.380328e+02
  -7.410078e+01   1.786290e+02
  -5.929510e+01  -3.617064e+00
   1.235984e+02  -4.804373e+01
   1.324746e+02   1.471571e+01
  -1.036869e+01   1.762984e+02
  -1.233897e+02   1.370078e+02
  -1.360260e+02  -4.302941e+01
   3.902699e+01  -1.419220e+02
   1.333825e+02  -9.330695e+00
   1.134010e+02   2.230885e+02
  -3.803615e+00   2.882874e+02
  -1.409028e+02   1.761893e+02
  -2.914369e+02  -3.103523e+01
  -2.769376e+02  -1.695044e+02
  -1.007229e+02  -2.645542e+02
   8.827265e+01  -1.256403e+02
   1.390593e+02   4.370248e+00
   3.429268e+01   1.221786e+01
  -6.925315e+01  -6.047291e+01
   2.776324e+00  -8.680388e+01
   9.626583e+01  -8.950113e+01
   1.491647e+02   2.685414e+01
   3.897011e-01   5.089343e+01
  -6.927644e+01  -1.873463e+01
  -4.045448e+01  -3.109735e+01
   1.008193e+02  -6.647689e+01
   2.492908e+02   1.426483e+01
   2.505971e+02   1.236350e+02
   7.296427e+01   2.588774e+02
  -1.542084e+02   2.582948e+02
  -2.050039e+02   1.299429e+02
  -1.386136e+02  -6.385476e+01
  -1.500820e+01  -8.730482e+01
   3.524316e+01   8.253060e+00
  -1.326474e+01   1.098335e+02
  -1.769588e+02  -1.708273e+00
  -1.909284e+02  -7.363205e+01
  -5.223563e+01  -1.372047e+02
   8.045398e+01  -1.163475e+02
   1.010078e+02  -1.749436e+01
   4.334121e+01  -1.063031e+00
  -5.624534e+01  -6.624057e+00
  -6.296197e+01  -8.598921e+01
   9.492696e+01  -1.015270e+02
   2.181509e+02   9.265139e+00
   1.639878e+02   9.928617e+01
   2.621724e+01   1.831813e+02
  -1.093503e+02   1.423702e+02
  -1.406876e+02   5.113453e+01
  -6.276512e+01  -7.186785e+01
   5.613374e+01  -6.996634e+01
   7.090290e+01  -4.774313e+01
   1.817262e+01   4.302052e+01
  -1.818047e+01  -2.447255e+01
   9.338317e+00  -2.553913e+01
   6.259822e+01  -1.153289e+01
   1.388494e+02   9.773555e+01
  -2.507830e+00   1.417891e+02
  -7.457091e+01   1.869378e+02
  -1.994232e+02   2.804475e+01
  -1.712975e+02  -1.166471e+02
  -5.819191e+01  -1.928362e+02
   7.328180e+01  -1.836865e+02
   1.149717e+02  -2.710920e+01
   1.212801e+01   2.277630e+01
   1.031260e+01  -1.566986e+00
   7.957489e+01   2.387380e+01
   4.863972e+00  -2.574896e+01
   4.647645e+01   2.243151e+01
  -2.059184e+01   9.055386e+01
  -1.079978e+02   7.547687e+01
  -1.092719e+02  -1.946732e+01
   4.914981e+00  -8.018325e+01
   1.316279e+02  -7.514237e+01
   1.965476e+02   1.476487e+01
   5.392572e+01   1.483262e+02
  -1.062060e+02   1.488581e+02
  -2.246704e+02   9.925807e+01
  -2.106692e+02  -1.156495e+02
  -1.007799e+02  -1.264354e+02
  -3.218962e+00  -9.668874e+01
   5.998601e+01  -8.410478e+01
   1.062520e+02  -9.302929e+01
   2.435579e+01  -1.001880e+02
   2.315504e+01  -9.495719e+01
   1.357847e+02   4.540132e+01
   1.260373e+02   1.308929e+02
   5.237125e+01   1.745685e+02
  -9.781475e+01   1.163559e+02
  -1.304193e+02   6.013081e+01
  -1.476006e+02  -6.642059e+01
  -2.467864e+01  -1.153759e+02
   5.497301e+01  -4.109669e+01
   7.418893e+01  -1.052711e+01
   1.133875e+01   6.745606e+01
  -5.981904e+00   2.339750e+01
   1.568925e+01   3.146296e+01
   9.973144e+01   3.521631e+01
   6.665408e+01   3.839865e+01
  -6.430483e+01   3.481150e+01
  -1.905639e+02  -8.408455e+00
  -1.176345e+02  -9.533826e+01
  -5.061538e+01  -1.051500e+02
   7.723070e+01  -9.031275e+01
   1.109218e+02  -4.203978e+01
   4.052274e+01   1.390807e+01
  -2.669371e+01   1.553801e+01
  -4.365703e+01  -1.953452e+01
  -1.553114e+01  -5.414684e+01
   4.220145e+01  -2.618273e+01
   4.969456e+01  -1.681375e+01
   8.794588e+01   5.937941e+01
   1.169546e+01   2.861784e+01
   6.445631e+01  -2.975496e+01
   4.703598e+01   1.005747e+01
   5.605085e+01   1.158773e+01
  -6.273675e+01   1.584681e+02
  -1.156586e+02   1.753499e+02
  -1.451210e+02  -7.011914e+00
  -1.339556e+02  -6.243759e+01
  -2.980937e+01  -5.343109e+01
   1.018814e+02  -5.038010e+01
   3.091366e+01  -6.482642e+01
  -3.637338e+01   3.769353e+01
  -9.597167e+01   8.043545e+00
  -6.578144e+01  -8.930365e+01
   9.689199e+01  -1.041517e+02
   1.798167e+02  -1.083721e+02
   1.284192e+02   4.156468e+01
   7.300298e+01   5.238469e+01
  -5.388487e+01   5.533129e+01
  -4.166803e+01   3.052653e+01
   4.543768e+01  -1.737635e+01
   9.613353e+01   8.990478e+00
   3.136945e+01   1.190993e+02
  -6.246228e+01   6.632044e+01
  -1.406847e+02   7.566964e+01
  -9.683578e+01  -4.582270e+01
  -1.591753e+01  -1.696450e+02
   5.397060e+01  -7.965935e+01
   7.851063e+01   3.148217e+01
   9.072863e+01   1.174896e+02
  -5.700237e+01   9.277881e+01
  -4.552217e+01   2.207999e+01
  -4.281130e+01  -2.990149e+01
  -2.754283e+01  -3.472568e+01
  -9.241402e+00   7.095153e+00
  -2.384159e+01  -1.080072e+01
  -3.753014e+01  -1.092292e+02
  -5.261203e+01  -1.060340e+02
   5.934658e+00  -7.963320e+01
   1.195683e+02   3.066136e+01
   1.305251e+02   3.038355e+01
   2.522194e+01   5.219838e+01
  -6.410475e+01   1.635430e+01
  -7.378537e+01   4.088633e+01
  -4.176596e+01  -1.904422e+01
   1.198732e+01  -3.364519e+01
   2.070495e+01  -1.333476e+01
   1.312429e-01  -8.967613e+00
   1.537556e+01   2.221628e+01
   1.141043e+02  -2.283782e+01
   1.084660e+02   2.508927e+01
   5.763895e+01   9.866669e+01
  -7.817578e+01   1.103500e+02
  -1.900601e+02   9.959623e+01
  -1.261085e+02  -5.401847e+01
  -1.380455e+01  -1.340055e+02
   6.719379e+01  -1.133795e+02
   7.945543e+01  -9.970508e+01
   4.476828e+01   6.035953e+00
   4.817154e+00   1.902496e+01
  -5.557740e+00  -1.947357e+01
   2.688333e+01   5.175624e+00
   6.480785e+01   4.929468e+01
   6.361459e-01   7.567705e+01
  -9.892456e+00   5.533425e+01
  -8.164262e+01  -1.005687e+01
  -1.017220e+02  -9.695025e+01
  -1.419840e+01  -7.986897e+01
   9.232712e+01  -1.510524e+01
   9.301485e+01   4.223844e+01
   2.221476e+01   9.422226e+01
  -4.953259e+01   4.680359e+01
  -8.201946e+01   4.121566e+01
  -7.170609e+01  -2.767659e+01
   3.610869e+01  -6.953600e+01
   4.347241e+01  -4.829914e+01
  -1.169318e+01   6.959828e+00
  -6.469951e+01   1.158292e+00
  -3.107491e+01  -3.756514e+01
   6.281380e+01  -5.408332e+01
   9.914145e+01  -8.278386e+01
   8.818130e+01   1.586895e+01
   1.675749e+00   1.172236e+02
  -1.477620e+01   5.108352e+01
  -5.847703e+01   5.367844e+01
  -5.815199e+00  -1.535886e+01
  -3.048894e+01  -6.023720e+01
   1.999363e+01   2.893428e+00
   2.724164e+01   4.967698e+00
  -5.532761e+00   8.246182e+00
  -2.840269e+01  -6.403574e+00
  -6.685630e+01  -5.288038e+01
   1.292020e+01   1.873514e+01
   8.263055e+00   5.037985e+01
   2.230589e+01  -9.628173e+00
  -2.009401e+00  -5.082175e+01
   2.196580e+01   4.652458e+00
   1.833321e+01   2.053350e+00
   2.237654e+01   5.086283e+01
   2.653086e+01   7.255378e+01
  -2.594817e+01   3.137984e+01
  -2.061380e+01  -2.578062e+01
  -3.791930e+01  -5.851422e+01
   3.089561e+01   6.381985e+00
   8.195442e+01   2.809351e+01
   5.951031e+01   5.231743e+01
   1.787279e+01   1.003325e+02
  -7.148768e+01   6.371337e+01
  -5.008243e+01   1.594957e+01
   6.889171e+00  -2.551390e+01
   1.409691e+01  -3.571032e+01
  -4.544203e+01   2.788232e+01
  -1.094057e+02   1.346894e+01
