
 $NMID
 id='ANONYMOUS ', fmtdat='(2E16.6)'
 volume=1.0
 tramp=1.0
 $END
   3.247485e+03   1.323685e+02
   2.298512e+03   1.741937e+03
   8.643201e+01   1.908728e+03
  -1.111895e+03   1.150760e+03
  -1.034114e+03   1.508794e+02
  -7.474655e+01  -2.799025e+02
   3.508826e+02   1.245283e+02
   7.201699e+01   4.274570e+02
  -4.156258e+02   5.715049e+02
  -6.332311e+02   1.088039e+02
  -4.297522e+02  -4.890510e+02
  -1.006137e+01  -5.840227e+02
   2.668387e+02  -1.764961e+02
   1.950898e+02   4.086226e+02
  -7.916295e+01   5.096213e+02
  -3.267134e+02   7.259034e+01
  -2.900863e+02  -4.636693e+02
   3.680771e+01  -6.135422e+02
   4.319894e+02  -3.499638e+02
   4.392303e+02   2.430929e+02
   1.439730e+02   3.190821e+02
  -6.149773e+01   2.255862e+02
  -7.996168e+01   4.864924e+01
   1.342649e+02   1.540567e+02
   2.045675e+02   2.802536e+02
  -4.985023e+00   3.524372e+02
  -4.289984e+02   1.141449e+02
  -5.726991e+02  -1.279085e+02
  -1.778066e+02  -2.901242e+02
   3.005021e+02  -1.427268e+02
   4.531771e+02   1.376986e+02
   1.295853e+02   3.352497e+02
  -2.261187e+02   2.770981e+02
  -4.616520e+02   1.110849e+02
  -3.063907e+02  -1.021714e+02
  -4.170772e+01  -2.739140e+02
   1.111037e+01  -1.145275e+02
  -5.389986e+01   1.912803e+01
  -1.684314e+02   1.372480e+02
  -1.659516e+02  -1.331658e+02
   5.805451e+01  -4.034429e+02
   2.107488e+02  -3.223131e+02
   2.171060e+02  -3.108546e+01
   7.241855e+01   2.420908e+02
  -1.026030e+02   1.295683e+02
  -7.458109e+01  -2.350577e+02
   2.061045e+02  -4.284411e+02
   3.918123e+02  -1.719975e+01
   3.971898e+02   3.146124e+02
   9.215326e+01   4.418255e+02
  -2.637006e+02   2.276792e+02
  -4.123222e+02  -2.466785e+01
  -3.634202e+02  -1.587663e+02
   4.937085e+01  -2.192989e+02
   2.451775e+02  -6.471060e+01
   1.734749e+02   3.591844e+01
   7.797289e+00   5.827366e+01
  -8.732288e+01  -7.621386e+01
   8.112906e+01  -6.422327e+01
   1.797335e+02   6.454930e+00
   1.385667e+02   1.686194e+02
  -1.817482e+02   2.385756e+02
  -3.521386e+02   1.232104e+02
  -2.063314e+02  -1.298280e+02
   6.471827e+01  -3.304198e+02
   2.781854e+02  -2.776770e+02
   3.123684e+02  -1.262418e+02
   2.313573e+02   1.393022e+02
   2.997169e+01   3.196345e+02
  -4.609363e+01   2.728812e+02
  -4.650717e+00   1.953044e+02
  -2.095521e+01   1.152012e+02
  -1.651024e+02   8.477916e+01
  -2.349563e+02  -2.463262e+00
  -2.188846e+02  -1.685600e+02
  -7.130906e+01  -2.100939e+02
   1.133379e+02  -1.807613e+02
   1.733521e+02   6.518949e+01
   1.174202e+02   2.223647e+02
  -6.646545e+01   2.541568e+02
  -2.018264e+02   1.301899e+01
  -2.386840e+02  -1.527447e+02
  -1.151605e+02  -2.710529e+02
   4.723757e+01  -2.226422e+02
   1.815370e+02  -1.109073e+02
   1.133871e+02  -6.724763e+01
   1.407004e+02  -6.014103e+01
   2.550517e+02  -1.909084e+01
   4.203581e+02   9.836143e+01
   2.961570e+02   2.366123e+02
   8.419900e+00   3.724396e+02
  -3.934813e+02   3.499608e+02
  -4.576357e+02   2.030950e+02
  -3.281642e+02  -9.313213e+01
  -1.811007e+01  -2.192455e+02
   6.799214e+01  -1.883470e+02
  -1.134670e+01  -5.348896e+01
  -8.167856e+01   3.710640e+01
  -1.264404e+02  -4.699388e+01
  -8.330173e+00  -1.505765e+02
   9.297369e+01  -9.633512e+01
   1.197112e+02   3.634162e+01
  -3.510593e+01   1.246661e+02
  -1.074378e+02  -1.306835e+01
  -1.013989e+02  -2.319134e+02
  -1.517338e+01  -3.652059e+02
   2.282911e+02  -1.609855e+02
   3.434351e+02   1.440951e+02
   2.386558e+02   2.809368e+02
   5.864053e+01   2.154324e+02
  -1.293635e+02   1.194591e+02
  -1.646276e+02  -1.020922e+01
   1.249885e+01   3.530542e+01
   7.056088e+01   3.227693e+01
  -2.860490e+01   8.018113e+01
  -1.331722e+02   6.947162e+01
  -1.137535e+02   2.274918e+00
  -1.278769e+01  -5.119194e+01
   1.156708e+02   2.749380e+01
   9.038251e+00   6.226931e+01
  -1.081278e+02   6.400182e+01
  -2.664660e+02  -5.487379e+01
  -2.571167e+02  -2.069030e+02
  -9.484208e+00  -2.395076e+02
   2.157726e+02  -1.882622e+02
   2.224216e+02  -7.691978e+01
   1.205927e+02   2.979411e+01
   1.632836e+01   9.342946e+01
  -4.384131e+01   2.250895e+01
   1.019271e+01  -4.569651e+01
   1.289345e+02  -2.628037e+01
   2.125068e+02   1.336186e+02
   5.366186e+01   1.728490e+02
  -9.784131e+01   1.179128e+02
  -1.182207e+02   2.275421e+01
  -8.711951e+01  -3.700130e+01
   8.208828e+01   1.979932e+01
   8.306481e+00   7.839336e+01
  -5.588548e+01   9.547189e+01
  -1.588890e+02  -7.378370e+00
  -1.411917e+02  -1.742446e+02
  -2.627086e+01  -1.967134e+02
   1.668299e+02  -1.353399e+02
   1.721524e+02  -2.605970e+01
   2.824899e+01   7.786776e+01
  -8.501036e+01   1.051709e+02
  -6.884738e+01   4.338803e+01
  -1.334241e+01  -1.520439e+01
   2.450625e+01  -6.555850e-01
  -9.047139e+00   1.524911e+01
  -9.314508e+01   9.721269e+00
  -1.129594e+02  -1.250566e+02
   3.887049e+01  -1.675901e+02
   1.822739e+02  -1.983187e+02
   2.454850e+02   4.909091e+01
   1.313374e+02   1.511209e+02
  -3.027472e+01   2.024376e+02
  -8.804378e+01   1.643599e+02
  -1.319234e+02   5.144165e+01
  -2.569898e+01  -5.980311e+01
  -3.490702e+01   1.630420e+00
  -6.719701e+01  -4.208862e+00
  -8.453702e+01  -1.251040e+01
  -5.536586e+01  -4.775062e+01
   5.694438e+01  -6.092863e+01
   9.573038e+01  -6.850936e+01
   1.093073e+02   3.382711e+01
   3.685736e+01   9.425854e+01
  -1.587933e+02   4.141765e+01
  -1.910503e+02  -1.796123e+01
  -4.354360e+01  -1.685018e+02
   1.718835e+02  -1.655023e+02
   2.427674e+02  -4.019081e+01
   2.359582e+02   8.979858e+01
   6.510911e+01   1.633330e+02
  -8.355153e+01   1.294300e+02
  -6.264077e+01   3.262108e+01
  -7.040761e+01   9.677823e+01
  -6.523612e+01   4.520083e+01
  -8.914622e+01   4.757076e+01
  -1.127270e+02  -2.045266e+01
  -1.380175e+02  -1.571176e+02
   2.320834e+01  -1.602208e+02
   1.241849e+02  -9.650999e+01
   1.440287e+02   4.126330e+01
   7.246529e+01   1.095522e+02
   2.731394e+01   1.550900e+02
  -5.846655e+01   5.751353e+01
  -3.940292e+01  -2.183556e+01
  -1.036608e+01  -3.748586e+01
   5.400613e+01  -2.912333e+01
  -3.615492e+01  -4.421491e+01
  -7.691077e+01   1.033728e+01
  -1.591150e+01  -5.586994e+01
   9.128957e+01  -4.920703e+01
   1.024481e+02  -7.331519e-01
   1.382715e+02   6.051670e+01
   2.242247e+00   4.637027e+01
  -9.692564e+01   5.253285e+01
  -1.467266e+02  -1.936140e+01
  -3.278482e+01  -2.531493e+01
   5.916451e+01  -2.728944e+01
   9.777297e+01   3.131911e+01
   1.051856e+01   7.432175e+01
  -5.435047e+00   7.754902e+01
  -6.729131e+01  -5.077149e+00
  -6.452830e+01  -2.546098e+01
  -3.445378e+01  -8.704398e+01
  -2.454714e+01  -2.577084e+01
  -1.341223e+02  -8.235751e+00
  -1.845862e+01  -8.314606e+01
   7.616583e+01  -2.006780e+02
   1.803666e+02  -1.638976e+02
   1.649980e+02  -2.022867e+01
   1.265690e+02   9.051132e+01
  -2.034106e+01   1.493919e+02
  -8.915849e+01   7.320219e+01
  -4.582016e+01  -4.776407e+01
   1.955027e+01  -4.909915e+00
   1.574425e+02   4.736344e+01
   4.182306e+01   1.350926e+02
  -9.826011e+01   1.220005e+02
  -1.299774e+02   3.996029e+01
  -8.892943e+01  -1.047811e+02
  -4.835495e+01  -8.610254e+01
   3.733632e+01  -4.164852e+01
   3.541862e+01  -1.594555e+01
  -5.261554e+01   5.481968e+01
  -5.384174e+01  -2.672436e+01
  -2.848459e+01  -1.443850e+02
   8.922457e+01  -1.272233e+02
   1.378619e+02  -6.568989e+01
   6.966676e+01   1.196807e+02
   4.124093e+01   2.378570e+02
  -9.141559e+01   1.246733e+02
  -9.923075e+01   1.066612e+01
  -1.167414e+02  -1.306306e+02
   1.225716e+01  -7.757305e+01
   7.308981e+01  -1.606259e+01
   6.209682e+01   2.561150e+01
   4.793819e+01  -1.376450e+01
  -3.791621e-01  -2.227750e+01
   2.094065e+01   6.189322e+00
   3.768661e+01   1.028568e+02
   3.595314e+01   9.985223e+01
  -6.772427e+01   4.515659e+01
  -1.241802e+02  -4.038388e+01
  -1.202336e+02  -8.876705e+01
  -2.105103e+01  -6.240297e+01
   7.319217e+01  -1.623486e+01
   1.106118e+02  -2.017115e+00
   1.934356e+01   1.858950e+01
  -4.595070e+01   2.022883e+01
  -7.891569e+00  -1.946643e+01
   1.183965e+01  -7.937461e+01
   4.560221e+01  -2.681645e-01
  -2.841434e+01   5.085394e+01
  -8.674208e+01  -2.261835e+01
  -6.741618e+01  -6.968320e+01
   1.338987e+02  -1.191918e+02
   1.757284e+02  -3.865192e+01
   1.926217e+02   8.396982e+01
   6.919230e+01   1.883788e+02
  -6.435462e+01   1.520659e+02
  -1.058365e+02   9.027046e+01
  -1.269958e+02  -5.552825e+00
  -2.217116e+01  -3.221246e+01
   6.813952e+00  -4.951576e+01
   2.174603e+01  -1.009894e+01
  -6.309032e+01  -5.314733e+01
  -9.806258e+00  -1.360873e+02
   1.298943e+01  -7.660214e+01
   8.180063e+01   1.005991e+01
   1.055007e+02   9.058572e+01
   5.475262e+01   1.170074e+02
  -6.298174e+01   2.934865e+01
  -7.468009e+01  -5.636555e+01
  -7.021837e+00  -1.318609e+02
   7.885531e+01  -6.407356e+01
   1.199847e+02   2.888859e+01
   4.375438e+01   8.249544e+01
  -3.562279e+01   4.641742e+01
  -1.610282e+01  -6.899432e+00
   4.094057e+01   1.884725e+01
   6.582605e+01   2.074658e+01
  -2.379261e+01   2.077443e+01
  -6.231915e+01   3.304225e+01
  -1.232883e+02   2.885055e+01
  -7.686437e+01  -2.093444e+01
   8.870631e+00  -8.666150e+01
   6.256504e+01  -3.979878e+01
   4.674191e+01  -1.879445e+00
   1.709359e+01   7.166378e+01
  -4.801299e+01   7.821729e+01
  -5.501918e+01  -1.124496e+01
  -3.553100e+01  -4.095061e+01
   3.277196e+01  -4.608820e+01
   4.752686e+01   2.872103e+01
   7.416852e+01   2.663185e+01
  -1.325393e+01  -1.454131e+01
   8.968797e+00  -4.425589e+00
   1.812497e+00   9.066395e+00
   1.387756e+01   7.269250e+00
   2.442942e+01   8.215101e+01
  -4.850120e+01   2.706661e+01
  -5.903894e+01   1.934873e+01
  -4.700475e-01  -9.652392e+01
   6.006270e+01  -4.760493e+01
   1.130335e+02   3.028874e+01
   1.333822e+01   7.915380e+01
  -3.092592e+01   5.130101e+01
  -1.056662e+02  -8.211182e-01
  -7.235747e+01  -1.469046e+01
   6.137459e+00  -4.062231e+01
   5.161853e+01  -3.858069e+01
   6.209022e+01  -4.465342e+00
  -6.475361e+00   1.231481e+01
  -5.729993e+01   2.500665e+00
   3.733895e+01   8.000555e+00
   9.308488e+01  -3.617423e+00
