
 $NMID
 id='ANONYMOUS ', fmtdat='(2E16.6)'
 volume=1.0
 tramp=1.0
 $END
   2.844943e+03  -4.126160e+01
   1.921681e+03   1.232145e+03
  -5.415596e+01   1.589059e+03
  -7.867348e+02   1.283172e+03
  -7.637655e+02   2.840847e+02
  -9.027002e+01  -8.524603e+01
   2.047040e+02   1.089628e+01
   1.384501e+02   3.621792e+02
  -2.857956e+02   4.390666e+02
  -5.329115e+02   1.569787e+02
  -3.892956e+02  -3.201342e+02
  -4.736096e+01  -5.632408e+02
   2.375332e+02  -2.165913e+02
   1.717904e+02   2.929203e+02
   1.524363e+01   4.450289e+02
  -3.312253e+02   9.143369e+01
  -3.252548e+02  -3.672657e+02
   6.122713e+01  -5.158525e+02
   4.253443e+02  -2.999941e+02
   4.622151e+02   9.598530e+01
   1.498457e+02   2.686552e+02
  -8.204528e+01   1.804280e+02
   1.109439e+01   1.157766e+02
   1.739285e+02   7.565677e+01
   2.384498e+02   1.989104e+02
   4.574309e+01   3.039735e+02
  -3.408738e+02   1.131495e+02
  -4.388259e+02  -8.406359e+01
  -1.362151e+02  -2.603554e+02
   2.873369e+02  -1.576459e+02
   4.449676e+02   6.265100e+01
   2.195528e+02   2.768338e+02
  -2.197292e+02   2.410530e+02
  -3.404029e+02   9.839335e+01
  -3.135329e+02  -8.862188e+01
  -5.276873e+01  -2.448238e+02
   6.342894e+01  -1.513326e+02
  -5.286018e+01   6.405178e+01
  -1.179670e+02   1.057582e+02
  -1.375938e+02  -1.595904e+02
  -7.096594e+01  -4.440298e+02
   1.876725e+02  -3.510282e+02
   2.593330e+02  -9.728093e+00
   6.457512e+01   2.311889e+02
  -1.710767e+02   1.073279e+02
  -1.153640e+02  -1.944231e+02
   8.909949e+01  -2.892103e+02
   3.272828e+02   2.172401e+00
   3.978617e+02   3.116999e+02
   1.130441e+02   3.329344e+02
  -2.126070e+02   2.257251e+02
  -3.363525e+02  -5.429248e+01
  -2.870468e+02  -1.631070e+02
  -1.703235e+01  -1.658926e+02
   2.550654e+02  -1.238018e+02
   2.030629e+02   5.897040e+00
   1.263188e+01   9.413571e-01
  -1.383095e+01  -8.638727e+01
   1.111775e+02  -6.178535e+01
   1.991762e+02   1.034569e+02
   4.175143e+01   1.017711e+02
  -1.104327e+02   2.228781e+02
  -2.973886e+02   8.779883e+01
  -2.176455e+02  -4.424503e+01
  -1.304374e+00  -2.638602e+02
   1.940431e+02  -3.263501e+02
   3.133636e+02  -1.150305e+02
   2.068109e+02   1.189740e+02
   4.472725e+01   2.613130e+02
   3.379618e+01   2.659782e+02
  -2.889952e+01   1.760494e+02
  -9.858023e+01   8.595745e+01
  -7.954724e+01   9.804261e+01
  -2.078880e+02   4.468183e+01
  -1.841997e+02  -1.025580e+02
  -4.639071e+01  -2.204313e+02
  -8.884001e+00  -1.384518e+02
   1.423245e+02   4.073368e+01
   1.049817e+02   2.100904e+02
  -3.131260e+01   2.120060e+02
  -2.225401e+02   5.686115e+01
  -2.788741e+02  -1.197078e+02
  -1.732537e+02  -2.957786e+02
   1.246705e+01  -2.166547e+02
   1.169620e+02  -1.361955e+02
   1.147284e+02  -7.458541e+01
   1.380079e+02  -4.340017e+01
   2.103144e+02  -2.327622e+01
   3.750983e+02   9.786292e+01
   2.494927e+02   2.720801e+02
   3.464422e+01   4.008299e+02
  -2.713944e+02   3.707645e+02
  -3.745095e+02   1.054625e+02
  -2.058895e+02  -1.013493e+02
  -1.131737e+00  -1.865107e+02
   9.103309e+01  -1.598738e+02
   4.068510e+01  -4.829087e+01
  -8.818338e+01   6.679443e+01
  -9.548136e+01  -9.541416e+00
  -1.093083e+01  -1.019071e+02
   3.986054e+01  -5.422402e+01
   3.765869e+01   4.358040e+01
   1.457336e+01   9.440435e+01
  -1.595787e+02   4.602299e+01
  -1.691692e+02  -1.918616e+02
  -4.940633e+01  -2.783801e+02
   1.977864e+02  -1.321908e+02
   2.766029e+02   1.151022e+00
   2.167573e+02   2.284092e+02
   5.384421e+01   2.984680e+02
  -1.424314e+02   6.046952e+01
  -1.299384e+02   2.447517e+01
  -5.059876e+01  -8.850976e+00
   5.337254e+01   4.802929e+01
  -9.160518e+00   1.092296e+02
  -4.858190e+01   3.244047e+01
  -8.493145e+01  -2.577436e+01
  -2.378567e+01  -5.301436e+01
   5.820506e+01  -1.005480e+00
  -8.089633e+00   6.189739e+01
  -8.091222e+01   3.606563e+01
  -2.472948e+02   7.926772e+00
  -2.282658e+02  -1.383933e+02
  -1.522696e+01  -2.004332e+02
   2.053095e+02  -1.522333e+02
   2.152040e+02  -1.006985e+02
   1.343735e+02   6.068997e+01
   3.888252e+01   5.309902e+01
  -7.134368e+01   7.998908e+00
   3.302852e+01  -6.007247e+01
   1.314306e+02  -4.120235e+01
   1.740686e+02   8.301232e+01
   6.158137e-01   1.746966e+02
  -7.485708e+01   7.876387e+01
  -1.023468e+02  -5.413013e+00
  -3.367596e+01  -8.153293e+01
   5.272149e+01   4.445568e+01
   2.448676e+01   5.804743e+01
  -7.513127e+01   9.631375e+01
  -1.647077e+02   2.674918e+01
  -1.580193e+02  -8.285466e+01
  -2.616483e+01  -1.842640e+02
   1.257520e+02  -1.131357e+02
   1.805679e+02  -1.416700e+00
   4.371696e+01   8.832413e+01
  -4.238100e+01   8.945817e+01
  -1.061762e+02  -3.299350e+00
   2.180957e+01  -3.566135e+01
  -1.428307e+01   3.477686e+01
   1.909454e+01  -1.423028e+00
  -8.928086e+01  -1.897622e+01
  -6.799858e+01  -7.513317e+01
   6.561620e-02  -1.504601e+02
   9.087683e+01  -6.857081e+01
   1.857576e+02  -2.834067e+01
   1.581854e+02   8.431694e+01
   5.665634e+01   1.993227e+02
  -6.020645e+01   8.489755e+01
  -6.542309e+01   4.392170e+01
  -4.804761e+01  -3.141665e+01
  -1.558479e+01  -5.137244e+01
  -6.690894e+01   3.483985e+01
  -9.676983e+01  -2.635602e+01
  -3.986368e+01  -2.539190e+01
   3.597381e+01  -1.035960e+02
   1.057407e+02  -7.111085e+01
   5.829389e+01   7.365806e+00
  -4.474977e+01   6.479083e+01
  -9.412966e+01   6.225632e+01
  -1.809975e+02  -5.344971e+01
  -8.916488e+01  -1.817130e+02
   7.846710e+01  -1.819620e+02
   2.328202e+02  -5.090615e+01
   2.042368e+02   3.755974e+01
   1.246182e+02   1.383358e+02
  -4.681355e+00   1.074254e+02
  -3.629448e+01   9.614013e+01
  -4.074201e+01   1.964674e+01
  -7.528617e+01   3.668829e+01
  -8.603740e+01   5.963479e+01
  -1.024108e+02  -6.855325e+01
  -5.524417e+01  -9.198145e+01
   4.883898e+00  -2.075812e+02
   4.887304e+01  -1.491252e+02
   1.310823e+02   1.264520e+01
   1.185808e+02   6.714811e+01
   4.002190e+01   7.981574e+01
  -7.946502e+01   7.336332e+01
  -5.923143e+01   2.892434e+00
  -3.521167e+00  -8.990420e+00
   5.229769e+01  -4.566563e+01
  -3.775854e+01   1.325342e+01
  -5.516912e+01   5.203906e+00
   2.675181e+01  -3.351049e+01
   7.530293e+00  -4.745031e+01
   1.277391e+02   1.240929e+01
   1.307869e+02   4.086583e+01
   2.088191e+01   5.189784e+01
  -1.253712e+02   5.240370e+01
  -1.153694e+02   2.754270e+01
  -5.296478e+01  -3.120699e+01
   4.143882e+01  -2.469349e+01
   1.058849e+02   3.237075e+01
   7.288449e+00   4.771851e+01
  -4.960904e+01   2.291928e+01
  -7.031376e+01  -7.697630e+00
  -8.082636e+01  -4.611927e+01
  -7.899843e+00  -1.440234e+01
  -3.298352e+01  -4.730174e+01
  -2.973007e+01   2.193272e+01
  -1.500712e+01  -8.157193e+01
   1.987720e+01  -1.300080e+02
   6.510245e+01  -1.444609e+02
   1.691572e+02  -9.282817e+00
   9.459343e+01   1.039489e+02
   3.196377e+01   1.444181e+02
  -1.055010e+02   5.376971e+01
  -9.620780e+01  -3.071841e+01
   3.391583e+01  -1.289896e+01
   9.439474e+01   3.571184e+01
   8.179842e+01   1.123042e+02
  -8.912441e+01   7.076552e+01
  -1.935807e+02   4.679308e+01
  -1.489014e+02  -1.949971e+01
  -5.935501e+01  -6.938328e+01
   8.650090e+01  -1.791246e+01
   4.621686e+01  -1.470126e+01
  -1.342712e+01   4.406390e+01
  -5.527583e+01   1.505606e+01
  -4.310433e+01  -6.295967e+01
   5.852413e+01  -1.169772e+02
   7.831966e+01  -4.287956e+01
   1.054044e+02   5.534650e+01
   3.669299e+00   1.561959e+02
  -3.645834e+01   1.097167e+02
  -5.940070e+01   6.048724e-01
  -4.807348e+01  -5.835960e+01
   5.981421e+00  -7.688168e+01
   3.978347e+01   1.343784e+01
   4.633676e+01   2.347162e+01
  -2.293130e+01   1.186983e+01
  -4.890985e+00  -2.846363e+01
   2.491250e+01  -7.844702e+00
   4.366033e+01   1.067979e+02
   3.264621e+01   7.796689e+01
  -2.311213e+01   2.587027e+01
  -1.223247e+02   8.417286e+00
  -7.456636e+01  -5.071019e+01
  -5.763004e+01  -3.240748e+01
   1.985432e+01   9.896161e-01
   4.676879e+01  -4.769475e+01
   1.293858e+01   1.742285e+01
  -4.308213e+01   3.750647e+01
   2.278103e+01   4.497876e+01
   8.201020e-02  -1.263926e+01
   1.025155e+01  -4.145835e-01
  -9.576893e+01  -1.449589e+01
  -8.044860e+01  -3.600137e+01
  -4.715288e+01  -7.578535e+01
   9.035176e+01  -3.605466e+01
   1.591397e+02  -4.497543e+01
   1.405577e+02   5.607039e+01
   5.966309e+01   1.171752e+02
  -7.603823e+01   1.444184e+02
  -1.356994e+02   7.741406e+01
  -6.630408e+01  -2.095583e+01
  -4.379940e+01  -4.845322e+01
  -1.972519e+01  -3.408770e+01
  -2.092981e+01   1.510746e+01
  -2.756494e+01  -5.300185e+01
  -1.457684e+01  -9.653589e+01
  -5.203087e+00  -3.131905e+01
   7.573318e+01  -3.867784e+01
   7.385830e+01   6.552076e+01
   1.250602e+01   8.609109e+01
  -4.222819e+01  -1.921285e+01
  -5.576946e+01  -7.910813e+01
  -3.529935e+01  -1.322452e+02
   6.790132e+01  -5.610312e+01
   9.805831e+01   2.917911e+01
   5.675516e+01   7.291976e+01
  -2.760753e+01  -7.451637e+00
  -2.756919e+01   1.324178e+01
   4.539883e+01   4.668083e+00
   4.651041e+01  -3.198908e+01
   1.797594e+01   1.351657e+01
  -7.226549e+01   7.227576e+01
  -9.147064e+01   4.236359e+01
  -4.006743e+01  -1.696168e+01
   5.054823e+01  -6.579596e+01
   5.367054e+01  -4.419984e+01
   2.810401e+01   1.471264e+01
   2.768792e+01   1.705353e+01
  -2.317073e+01   2.640410e+01
  -1.372295e+01  -4.424129e+00
  -2.905561e+01  -7.115456e+01
  -3.315445e+01   1.541171e+01
   5.140533e+01  -1.640537e+01
   4.514219e+01   4.310931e+01
   2.930990e+01   1.627769e+01
  -2.198778e+01  -5.386714e+01
  -1.017765e+01  -1.662583e+01
  -4.981032e+01   3.329866e+01
  -2.653069e+01   7.735092e+01
  -3.738559e+01   1.671038e+01
  -3.897118e+01  -2.947989e+01
  -7.445359e+00  -1.051275e+02
   3.069988e+01  -1.272595e+01
   4.390949e+01   3.814649e+01
   5.398571e+01   7.824679e+01
  -2.241973e+01   4.467501e+00
  -8.870562e+01  -6.958941e-01
  -1.981393e+01  -5.575658e+00
   6.144826e+01   3.666838e+01
   4.988895e+01  -3.250905e+01
   6.925884e+01   1.676838e+01
  -3.862702e+01  -7.745325e+00
  -9.295596e+00  -1.839100e+01
   3.156596e+01  -2.030831e+01
   7.709885e+01   3.644086e+00
