
 $NMID
 id='ANONYMOUS ', fmtdat='(2E16.6)'
 volume=1.0
 tramp=1.0
 $END
  -4.461511e+03  -2.029842e+02
  -2.440062e+03  -3.014990e+03
   9.684259e+02  -2.741572e+03
   1.998552e+03  -6.391715e+02
   6.993392e+02   8.554317e+02
  -7.687018e+02   4.699633e+02
  -9.791127e+02  -6.331609e+02
   1.039516e+02  -1.213873e+03
   9.982463e+02  -7.949622e+02
   1.013028e+03   2.130056e+02
   4.028711e+02   9.991928e+02
  -3.889927e+02   8.709584e+02
  -7.091943e+02   1.404803e+01
  -3.717548e+02  -8.059051e+02
   3.568725e+02  -7.387061e+02
   6.639034e+02   6.783016e+01
   2.148572e+02   7.815014e+02
  -3.964325e+02   5.432169e+02
  -5.663275e+02  -1.112733e+01
  -3.132699e+02  -3.906452e+02
   9.384988e+01  -4.154717e+02
   2.780979e+02  -2.461600e+02
   1.604475e+02   4.620365e+01
  -1.077207e+02   1.305755e+02
  -4.561197e+02  -1.930808e+01
  -2.422533e+02  -4.320020e+02
   4.544519e+02  -4.138278e+02
   8.392256e+02  -2.937407e+00
   4.652133e+02   5.374108e+02
  -3.865190e+02   4.411443e+02
  -7.801414e+02  -3.961647e+01
  -3.835401e+02  -4.768820e+02
   2.636591e+02  -5.326770e+02
   5.041676e+02  -2.149164e+02
   4.011992e+02   1.992048e+02
   5.010201e+01   4.845569e+02
  -2.753407e+02   2.636384e+02
  -1.916707e+02  -2.095743e+02
   2.118468e+02  -4.661755e+02
   4.470613e+02   2.211269e+01
   2.492588e+02   7.095056e+02
  -3.398470e+02   7.041439e+02
  -6.319846e+02  -4.352159e+01
  -3.239133e+02  -5.882053e+02
   3.202714e+02  -3.483108e+02
   4.035144e+02   3.345850e+02
  -6.518558e+01   5.870612e+02
  -5.456307e+02   1.367699e+02
  -6.390342e+02  -4.264090e+02
  -1.198602e+02  -6.019016e+02
   4.084722e+02  -3.337945e+02
   6.054923e+02   3.637652e+01
   3.891591e+02   4.199309e+02
  -1.680998e+02   3.778525e+02
  -4.725407e+02   2.295838e+01
  -2.428076e+02  -2.861322e+02
   1.527610e+02  -1.050160e+02
   1.464252e+02   1.980690e+02
  -2.105769e+02   2.079585e+02
  -3.909116e+02  -1.213769e+02
  -1.322756e+02  -3.611856e+02
   2.406272e+02  -2.703132e+02
   3.584501e+02  -7.069087e+00
   1.900364e+02   1.198487e+02
  -1.668072e+01   2.351493e+02
  -2.386503e+02   3.024605e+02
  -3.500605e+02   2.176773e+02
  -2.755954e+02  -1.606109e+02
  -1.100042e+02  -3.888963e+02
   1.425283e+02  -3.507495e+02
   1.447913e+02  -7.062557e+01
   1.036309e+01   7.256139e+01
  -6.457085e+01  -7.778204e+01
   1.691915e+02  -1.338787e+02
   2.487391e+02   5.924559e+01
   1.518529e+02   2.127365e+02
  -9.732075e+01   2.434394e+02
  -2.417457e+02   2.795186e+01
  -2.040742e+02  -2.263608e+02
   3.703924e+01  -2.822143e+02
   2.471334e+02  -1.325697e+02
   3.647111e+02   7.912275e+01
   1.848619e+02   3.525924e+02
  -7.787860e+01   3.046049e+02
  -2.382476e+02   1.325183e+02
  -1.611468e+02  -2.608643e+00
  -8.075235e+01   4.632071e+01
  -2.052353e+02   1.049691e+02
  -3.357465e+02  -8.111660e+01
  -3.403832e+02  -3.131986e+02
   2.210873e+01  -3.890433e+02
   3.191044e+02  -3.683877e+02
   4.441803e+02  -1.962928e+02
   2.877838e+02   1.211501e+02
   5.661971e+01   2.976853e+02
  -1.365816e+02   1.881221e+02
  -1.428662e+02   1.489260e+01
   9.291476e+01  -9.002960e+01
   2.421358e+02   1.099434e+01
   3.850214e+01   2.373862e+02
  -1.567931e+02   2.117153e+02
  -1.801399e+02  -3.730636e+01
  -3.176571e+00  -1.826071e+02
   2.048736e+02  -3.427292e+01
   1.379308e+02   2.379232e+02
  -2.587824e+01   3.226352e+02
  -2.338704e+02   1.613672e+02
  -3.111203e+02  -8.554051e+01
  -2.622367e+02  -1.610026e+02
  -8.842913e+01  -2.317729e+02
   1.256345e+02  -1.509214e+02
   1.939213e+02  -2.266017e+01
   7.116176e+01   3.406664e+01
  -5.502120e+01  -8.897496e+00
  -1.632942e+01  -1.305158e+02
   1.053896e+02  -1.143654e+02
   1.575200e+02   3.156756e+01
   1.910751e+01   6.954396e+01
  -5.797557e+01   2.857455e+01
  -5.608899e+01  -1.139867e+02
   9.463489e+01  -1.007730e+02
   2.119391e+02  -1.311242e+01
   2.232980e+02   1.172908e+02
   6.797193e+01   2.300886e+02
  -1.819571e+02   2.375556e+02
  -2.641577e+02   1.457613e+02
  -1.481034e+02  -2.371761e+01
   5.144422e+01  -1.216114e+02
   1.020845e+02   1.290507e+01
  -9.989565e+00   1.038789e+02
  -2.106317e+02   3.244702e+01
  -1.877133e+02  -9.549762e+01
  -3.480441e+01  -1.928544e+02
   8.157720e+01  -1.580325e+02
   1.667854e+02  -5.338623e+01
   3.319490e+01   3.334613e+01
  -2.631501e+01   2.795773e+01
  -6.595171e+01  -9.329270e+01
   4.874564e+01  -9.151785e+01
   1.882649e+02  -1.976280e+01
   2.055935e+02   8.682942e+01
   4.858822e+01   1.571898e+02
  -1.348397e+02   1.491713e+02
  -2.138086e+02   3.992242e-01
  -9.987582e+01  -1.077618e+02
   9.757860e+01  -1.147299e+02
   9.240551e+01  -1.122437e+00
   8.570783e+00   4.155015e+01
  -1.687279e+01  -1.865395e+01
   2.466638e+01  -4.158394e+01
   1.446412e+01   1.095116e+01
   1.411841e+02   1.221623e+02
   1.781034e+01   1.234013e+02
  -1.265864e+02   1.023485e+02
  -1.897034e+02   3.903379e+00
  -2.141811e+02  -1.502541e+02
  -2.142460e+01  -2.677044e+02
   1.147085e+02  -1.761703e+02
   1.523560e+02  -3.371233e+01
   9.320580e+01   2.138066e+01
  -3.351518e+00   4.725327e+01
   1.309607e+01  -1.912571e+01
   7.625477e+01  -2.108282e+01
   7.859181e+01   2.453973e+01
  -5.607494e+01   6.619748e+01
  -6.771191e+01   8.407087e+01
  -5.300871e+01  -1.532963e+01
  -3.714338e+01  -1.135075e+02
   1.250403e+02  -9.890839e+01
   1.780528e+02   1.460160e+01
   1.068349e+02   1.571893e+02
  -9.474726e+01   2.216463e+02
  -1.923125e+02   8.211442e+01
  -2.761422e+02  -4.800394e+01
  -1.727145e+02  -1.673064e+02
  -1.277931e+01  -1.571386e+02
   8.444568e+01  -8.755612e+01
   4.684841e+01  -6.323560e+01
   9.333501e+01  -1.040481e+02
   9.515359e+01  -4.350138e+01
   1.157580e+02   7.954425e+00
   1.282928e+02   1.135795e+02
   1.400473e+01   2.078427e+02
  -6.200047e+01   1.173401e+02
  -1.917702e+02   2.922668e+01
  -1.251146e+02  -1.129811e+02
   2.643052e+00  -1.297298e+02
   5.502410e+01  -7.289411e+01
   5.592394e+01   2.472362e+01
   1.902854e+01   1.831057e+01
   7.334391e+00   3.244432e+01
   2.257626e+01  -2.630607e+01
   7.933492e+01   2.146337e+01
  -3.695547e+00   3.657375e+01
   1.936405e+00   4.733296e+01
  -1.329849e+02   2.509812e+01
  -1.069312e+02  -8.791974e+00
  -2.328167e+00  -3.532020e+01
   5.205747e+01  -4.517796e+01
   1.108989e+02  -1.443464e+01
   2.857353e+01   1.359163e+01
  -6.066102e+01   3.118702e+01
  -5.070551e+01  -3.728299e+01
  -3.390303e+01  -9.710700e+01
   4.152372e+01  -5.911867e+01
   5.595510e+01   1.016891e+01
   6.547969e+01   2.458463e+01
   3.100898e+01   3.548410e+01
   7.147303e+01   4.008841e+01
   1.052933e+02   1.770792e+01
   4.199798e+01   8.721662e+01
  -3.521684e+01   1.386548e+02
  -1.215693e+02   1.353997e+02
  -1.338556e+02   5.505929e+01
  -1.138914e+02  -1.107513e+02
  -8.743496e+00  -1.025505e+02
   1.215484e+02  -3.834757e+01
   2.083770e+01   1.967759e+01
  -2.739934e+01  -1.638871e+01
  -8.511145e+01  -1.656507e+01
  -7.131757e+01  -6.920187e+01
   4.571976e+01  -5.073741e+01
   1.346894e+02  -7.347802e+01
   1.615411e+02   1.709750e+01
   3.821107e+01   3.336300e+01
  -7.715358e+01   5.644448e+01
  -5.241059e+01   1.409509e+00
   2.453496e+01  -2.006482e+01
   4.116194e+01   2.749850e+01
   1.271853e+01   1.340656e+02
  -8.452480e+01   1.150620e+02
  -1.673464e+02   8.870664e+01
  -9.584992e+01  -1.138826e+02
  -4.352776e+01  -2.004366e+02
   7.301492e+01  -1.322723e+02
   1.177719e+02  -1.875954e+01
   3.647312e+01   1.249791e+02
  -1.027703e+01   9.428266e+01
  -3.616575e+01   6.888822e+01
  -3.856385e+01  -1.004170e+01
  -4.030737e+01  -4.449782e+00
  -5.914749e+01   6.501517e+00
  -7.743618e+00  -1.935275e+01
  -4.309085e+00  -9.442855e+01
  -3.189866e+01  -1.100429e+02
   1.585019e+01   8.212469e+00
   1.096778e+02   4.239679e+01
   1.480325e+02   2.747185e+01
   1.971309e+01   4.628987e+01
  -7.198255e+01   3.961379e+01
  -6.841071e+01   1.262999e+01
  -4.997540e-01  -3.519615e+01
  -5.946797e+00   2.319588e-01
  -3.049847e+01   1.062486e+01
  -6.695212e+01   4.390560e+01
  -2.593168e+01  -1.091879e+01
   6.408105e+01   4.806877e+01
   8.102440e+01   3.559962e+01
   1.626360e+00   9.061981e+01
  -1.401395e+02   1.072422e+02
  -1.442404e+02   4.919992e+01
  -1.410514e+02  -4.326587e+01
  -1.409710e+01  -1.603359e+02
   9.129374e+01  -1.205560e+02
   6.545123e+01  -3.343152e+00
   7.583990e+01   1.287769e+01
   2.602837e+01   5.281909e+01
   3.788882e+01  -3.388261e+00
   4.380003e+01   6.482318e+00
  -1.254137e+01   4.652205e+01
   7.641123e+00   5.836401e+01
  -3.766756e+01   6.040863e+01
  -7.585350e+01  -1.093588e+01
  -6.449554e+01  -1.397847e+02
   1.427427e+01  -1.523120e+02
   9.265680e+01  -3.546319e+01
   3.895493e+01   8.486538e+01
   4.212541e+01   1.236629e+02
  -2.285729e+01   9.376389e+01
  -7.105713e+01  -2.323464e+01
   5.601922e+00  -1.790435e+01
   2.931273e+01  -6.803793e+01
   6.031879e+01  -2.475020e+01
  -5.499352e+01  -3.234547e+01
  -4.810384e+01   1.676810e+01
   1.295992e+01   7.238776e+00
   7.058591e+01  -5.955367e+01
   1.267435e+02  -5.444475e+01
   7.326573e+01   7.720069e+00
  -1.700945e+01   5.074710e+01
  -4.231595e+01   3.738827e+01
  -4.265028e+01   1.655698e+01
   8.978074e+00  -6.590340e+01
   4.353431e+01  -3.560719e+01
   2.183181e+01   2.585211e+01
   1.771898e+01   7.793241e+01
  -2.221570e+01   3.047384e+01
  -2.120678e+01  -1.714968e+01
  -4.513651e+01   1.291125e+01
  -3.390795e+01   1.105918e+01
  -2.438832e+01  -1.149606e+01
   3.090637e+01   2.824695e+01
   2.532680e+01  -4.160659e+01
   5.481151e+01  -4.387074e+01
   6.092598e+01  -1.934884e+01
   3.581276e+01   3.664246e+01
   2.652643e+01   5.885574e+01
  -4.030439e+01   1.337098e+01
  -8.123690e+01  -5.103580e+01
  -4.520901e+01  -6.169384e+01
   1.012290e+02  -2.227967e+01
   1.013782e+02   5.188864e+01
   7.696805e+01   2.501882e+01
  -2.290404e+01   5.990980e+01
  -8.837924e+01   6.258040e+01
  -2.078232e+01   1.188547e+01
   6.025897e+00  -2.524676e+01
   5.221515e+01   1.049313e+01
  -2.040529e+01   6.349834e+01
  -8.792197e+01   5.017012e+01
