
 $NMID
 id='ANONYMOUS ', fmtdat='(2E16.6)'
 volume=1.0
 tramp=1.0
 $END
   4.807964e+03   1.878037e+02
   2.750666e+03   2.719470e+03
  -8.356701e+02   2.842312e+03
  -2.174749e+03   7.790937e+02
  -1.002376e+03  -6.632899e+02
   7.920235e+02  -6.076937e+02
   8.832761e+02   5.493886e+02
  -3.083084e+01   1.091088e+03
  -8.733181e+02   7.656293e+02
  -9.259946e+02  -9.539947e+01
  -4.226044e+02  -9.052338e+02
   2.894032e+02  -8.596748e+02
   6.433909e+02  -1.012734e+02
   3.446900e+02   7.750730e+02
  -2.889493e+02   7.389374e+02
  -5.915952e+02  -6.673347e+01
  -2.490139e+02  -7.425057e+02
   3.788629e+02  -6.619818e+02
   6.728925e+02  -5.184403e+01
   3.889203e+02   3.724242e+02
   8.593260e+00   4.124651e+02
  -2.333164e+02   2.587620e+02
  -1.921505e+02  -3.811002e+01
   1.421113e+02  -1.027008e+02
   3.843456e+02   1.010385e+02
   2.215099e+02   4.285241e+02
  -4.666956e+02   3.835383e+02
  -8.215295e+02  -6.989683e+01
  -3.718528e+02  -5.345240e+02
   4.502360e+02  -4.849339e+02
   7.156408e+02   7.921608e+01
   3.775469e+02   5.332560e+02
  -2.970071e+02   5.237108e+02
  -5.767263e+02   1.654678e+02
  -4.541186e+02  -2.236191e+02
  -3.485648e+01  -4.371874e+02
   2.061454e+02  -2.197781e+02
   1.743803e+02   2.306680e+02
  -2.163812e+02   4.234635e+02
  -4.398151e+02  -3.554841e+01
  -2.518715e+02  -7.427659e+02
   3.079078e+02  -6.568630e+02
   5.675464e+02  -3.670737e+01
   2.981030e+02   5.640737e+02
  -3.470422e+02   3.033627e+02
  -4.148412e+02  -3.119142e+02
   1.245772e+02  -5.114573e+02
   5.949835e+02  -1.313025e+02
   5.899691e+02   4.484832e+02
   8.005687e+01   5.657234e+02
  -4.544656e+02   3.456311e+02
  -6.028445e+02  -1.435521e+02
  -3.651877e+02  -4.110868e+02
   2.109466e+02  -3.646995e+02
   4.603690e+02  -4.271914e+01
   2.401305e+02   1.936524e+02
  -2.033430e+02   9.129800e+01
  -1.288705e+02  -1.915793e+02
   1.497057e+02  -1.752140e+02
   3.600728e+02   3.734993e+01
   1.560477e+02   3.428824e+02
  -2.063608e+02   1.871913e+02
  -2.761360e+02   5.434647e+01
  -1.698638e+02  -1.071155e+02
   3.389790e+01  -2.215076e+02
   2.265051e+02  -2.751867e+02
   3.655339e+02  -2.533415e+02
   2.789050e+02   1.465071e+02
   6.179383e+01   4.339035e+02
  -6.546309e+01   3.139352e+02
  -1.231285e+02   1.306618e+02
  -1.348529e+01  -1.476465e+01
   8.492016e+00   9.473683e+01
  -2.117482e+02   1.342833e+02
  -2.825586e+02  -2.373664e+00
  -2.155412e+02  -2.548897e+02
   7.532148e+01  -2.926438e+02
   2.364559e+02  -4.394441e+01
   1.957286e+02   2.443419e+02
  -2.653072e+01   3.317896e+02
  -2.797605e+02   1.626522e+02
  -3.084470e+02  -1.644724e+02
  -1.994362e+02  -4.089450e+02
   1.291928e+02  -2.984554e+02
   2.058758e+02  -8.574306e+01
   1.588551e+02  -1.126884e+01
   6.446918e+01  -2.468973e+01
   2.381709e+02  -1.067537e+02
   3.973338e+02   4.168669e+01
   3.304193e+02   2.909057e+02
  -1.857343e-03   4.745776e+02
  -3.650681e+02   3.664554e+02
  -5.349580e+02   1.843491e+02
  -3.238263e+02  -1.408208e+02
  -7.616864e+01  -2.846257e+02
   1.287511e+02  -2.363132e+02
   9.801584e+01  -3.745733e+01
  -1.142153e+02   7.551817e+01
  -3.005379e+02   2.056627e-02
  -5.999650e+01  -2.128112e+02
   1.531500e+02  -2.235036e+02
   2.181284e+02   6.751289e+01
  -4.012496e+01   1.944925e+02
  -1.982356e+02   5.353646e+01
  -1.577393e+02  -2.041773e+02
   1.554722e+01  -3.409321e+02
   2.314995e+02  -1.664705e+02
   3.303240e+02   6.363151e+01
   2.837758e+02   2.179258e+02
   9.040874e+01   2.336599e+02
  -9.952258e+01   2.105482e+02
  -1.762634e+02   5.984778e+01
  -2.823378e+01   1.122065e+01
   8.509835e+01   3.354221e+01
   3.964399e+01   1.298188e+02
  -1.286316e+02   7.829026e+01
  -2.135397e+02  -6.104522e+00
  -6.497680e+01  -9.680072e+01
   5.302617e+01  -7.676073e+00
   5.671358e+01   6.642235e+01
  -1.294151e+02   7.463005e+01
  -2.869796e+02   4.271004e+01
  -2.487709e+02  -1.282400e+02
  -7.876440e+01  -2.578381e+02
   1.928385e+02  -2.793346e+02
   3.026475e+02  -1.001788e+02
   1.960551e+02   8.545630e+01
  -3.208504e+01   1.325404e+02
  -5.804436e+01   1.390720e+01
   1.241230e+01  -1.005701e+02
   1.851814e+02  -5.749921e+01
   2.596348e+02   8.025302e+01
   1.224198e+02   1.990955e+02
  -9.528093e+01   1.331001e+02
  -1.649256e+02   6.102214e+01
  -7.435313e+01  -4.453126e+01
   2.149435e+01  -2.704235e+00
   1.391086e+01   6.666551e+01
  -6.434575e+01   1.259773e+02
  -1.864957e+02   8.727937e+01
  -2.032275e+02  -1.173860e+02
  -1.390206e+01  -2.315527e+02
   1.452237e+02  -1.512649e+02
   2.087662e+02  -3.112721e+00
   5.770717e+01   9.624282e+01
  -8.801622e+01   8.026807e+01
  -1.012813e+02   2.436527e+01
  -1.456890e+01  -5.699699e+01
   9.258861e+00  -2.801356e+01
   1.148253e+01   5.117060e+00
  -7.877849e+01  -3.716048e+01
  -6.663060e+01  -5.024926e+01
  -6.361780e+00  -1.084708e+02
   1.269921e+02  -1.659295e+02
   2.290708e+02  -3.734142e+01
   2.263420e+02   1.142646e+02
   3.882300e+01   2.268921e+02
  -1.238178e+02   1.643669e+02
  -1.294618e+02   3.700109e+01
  -4.518760e+01  -5.702046e+01
  -4.349917e+01  -1.874181e+01
  -7.200296e+01   2.105742e+01
  -4.773392e+01  -3.613246e+01
  -4.822900e+01  -5.978740e+01
   5.248226e+01  -6.500826e+01
   9.795407e+01  -5.710871e+01
   8.476482e+01   2.124845e+01
  -3.699125e+01   1.236930e+02
  -1.027341e+02   1.076635e+02
  -1.757104e+02  -6.609247e+01
  -1.025986e+02  -1.712948e+02
   1.378811e+02  -2.220137e+02
   2.368899e+02  -6.268348e+01
   2.754237e+02   1.118285e+02
   7.405630e+01   2.177245e+02
  -5.291016e+01   1.625205e+02
  -4.450063e+01   1.122422e+02
  -8.894112e+01   5.685352e+01
  -3.293738e+01   1.057471e+02
  -8.131661e+01   8.670091e+01
  -1.052864e+02   2.834615e+00
  -1.274356e+02  -1.414201e+02
   1.371931e+01  -2.405948e+02
   6.559863e+01  -2.162856e+02
   2.028314e+02  -1.918342e+01
   1.401579e+02   1.552643e+02
  -8.031874e+00   1.592469e+02
  -6.208526e+01   1.219140e+02
  -5.897393e+01  -3.840160e+01
  -1.276213e+01  -4.103761e+01
   2.904486e+01  -3.598257e+01
  -1.509726e+01  -3.851484e+01
  -3.221700e+01   1.377516e+01
  -3.838350e+01  -5.611581e+00
   4.143138e+01  -2.736496e+01
   1.645244e+02   2.175993e+01
   1.821539e+02   5.277870e+01
  -1.518723e+01   7.882364e+01
  -1.302370e+02   1.023002e+02
  -1.205847e+02  -2.919079e+01
  -5.753104e+01  -9.720143e+01
   6.771576e+01  -8.627254e+00
   7.381977e+01  -5.649077e+00
  -2.250477e+01   9.604356e+01
   8.107187e+00   8.549274e+01
  -6.660258e+01  -1.205724e+00
  -5.087927e+01  -4.617706e+00
  -4.842119e+01  -3.867854e+01
  -3.603133e+00   2.890043e+01
  -1.374702e+00  -7.389349e+00
  -3.253097e+01  -7.893067e+01
   6.928386e+01  -1.654376e+02
   1.150566e+02  -1.169957e+02
   1.673151e+02  -7.192111e+01
   1.806365e+02   8.351142e+01
  -5.838307e+01   1.310260e+02
  -6.244889e+01   7.436119e+01
  -8.824257e+01   6.015775e+00
   5.623769e+01   2.286547e+01
   1.626173e+02   8.139308e+01
   6.128502e+01   8.363653e+01
  -9.096358e+01   9.389157e+01
  -1.828541e+02   4.106004e+01
  -1.267598e+02  -6.523116e+00
  -4.442968e+01  -6.064185e+01
   7.492930e+01  -9.798571e+01
   3.520403e+01  -1.722162e+01
  -3.036181e+01   1.609596e+01
  -8.808784e+01  -7.333052e+00
  -6.226225e+01  -1.017588e+02
   8.192635e+01  -1.382884e+02
   1.391378e+02  -4.535636e+01
   1.558005e+02   1.596589e+02
   5.817594e+01   1.865642e+02
  -7.383707e+01   1.374277e+02
  -1.233153e+02   2.537621e+00
  -5.023168e+01  -7.668015e+01
   3.469139e+01  -1.015191e+02
  -8.574576e+00  -3.784294e+01
   4.429651e+01   4.690553e+01
   2.282750e+00  -1.342620e+01
   1.683299e+01  -3.219857e+01
   2.122448e+01   2.622046e+01
   8.334122e+01   6.634147e+01
   2.877351e+01   1.084341e+02
  -4.320798e+01   1.940506e+01
  -9.841574e+01  -2.025126e+01
  -1.262022e+02  -6.553207e+01
  -5.642397e+00  -4.074619e+01
   1.110677e+02  -3.310836e+00
   7.836612e+01  -3.124499e+01
  -1.298520e+01  -8.741236e+00
  -7.703211e+01   6.529521e+01
   1.197852e+01   5.172752e+01
   3.133421e+01   4.011541e+01
   2.675641e+01   1.703070e+01
  -7.061588e+01   4.625942e-01
  -7.828720e+01  -2.262117e+00
   8.486595e+00  -9.113740e+01
   8.554326e+01  -1.318414e+02
   1.951937e+02  -7.982467e+00
   1.422400e+02   8.559871e+01
   1.940529e+01   1.504541e+02
  -6.543898e+01   1.425409e+02
  -1.404391e+02   8.092172e+01
  -7.726515e+01  -2.280886e+00
  -1.118069e+01  -1.826587e+01
  -3.293718e+01   1.866682e+01
  -1.713902e+01  -8.387934e-01
  -2.618570e+01  -6.603312e+01
   5.685282e+00  -7.726607e+01
   6.752192e+01  -4.133587e+01
   9.482940e+01   2.336015e+01
   5.079846e+01   8.122224e+01
  -8.802301e+00   1.085677e+02
  -8.784292e+01  -5.716826e+00
  -9.003019e+01  -9.925996e+01
  -1.584203e+01  -9.743578e+01
   6.318218e+01  -8.524317e+01
   9.718609e+01   2.307369e+01
   1.670934e+01   6.430782e+01
  -7.007145e+01   4.695712e+01
  -4.185495e+01  -4.302026e-01
   3.127202e+01   4.339670e+01
   5.097198e+01  -1.945685e+01
  -1.813027e+01  -5.094254e+00
  -4.999006e+01   5.895910e+01
  -9.568099e+01   3.767532e+01
  -5.760804e+01  -1.466853e+01
   1.071119e+01  -8.356435e+01
   5.399166e+01  -8.981535e+01
   6.200305e+01  -3.015240e+00
  -3.380059e+01   2.039892e+01
  -3.682030e+01   4.826532e+01
  -3.601394e+01  -2.187342e+01
  -8.567509e+00  -1.824049e+01
  -2.002049e+00  -7.393643e+01
   1.378817e+01  -3.352846e+01
   3.267641e+01   5.446156e+01
   2.808380e+01  -9.015141e+00
  -2.270281e+01  -3.628333e+01
   9.148176e+00   2.488836e+01
   1.896533e+01   8.154704e+01
  -3.991638e+01   5.513236e+01
  -5.905348e+01   3.200506e+01
  -4.810564e+01  -9.214399e+01
  -3.641273e+01  -7.964240e+01
   5.366894e+01  -2.249679e+01
   4.047508e+01   5.874643e+01
   4.022270e+01   9.097930e+01
  -8.580839e+01   2.754502e+01
  -7.970062e+01  -2.986257e+01
  -1.237234e+01  -3.126005e+01
   8.489821e+00  -1.551321e+01
   1.304942e+02  -7.151830e+01
   5.315885e+01   2.195618e+01
  -4.258875e+01   2.222963e+01
  -5.725178e+01  -1.471226e+01
   2.915201e+01  -3.666249e+01
   1.117587e+02  -1.711539e+01
