
 $NMID
 id='ANONYMOUS ', fmtdat='(2E16.6)'
 volume=1.0
 tramp=1.0
 $END
  -3.938185e+03   9.864439e+01
  -2.422013e+03  -2.214848e+03
   1.488963e+02  -2.408780e+03
   1.417718e+03  -1.058208e+03
   9.823908e+02   1.863001e+02
  -3.484065e+02   2.989596e+02
  -6.059472e+02  -3.134805e+02
   3.489971e+01  -7.527646e+02
   5.605685e+02  -6.431588e+02
   7.096030e+02  -3.911360e+01
   4.464694e+02   5.723658e+02
  -1.712684e+02   6.963887e+02
  -4.216073e+02   8.123570e+01
  -3.243628e+02  -5.281350e+02
   1.464824e+02  -5.558782e+02
   4.230554e+02  -2.104646e+01
   2.359601e+02   5.115046e+02
  -2.471609e+02   5.727457e+02
  -4.866757e+02   1.583530e+02
  -3.526767e+02  -1.817878e+02
  -8.097520e+01  -3.421096e+02
   1.165357e+02  -2.300358e+02
   1.044731e+02  -1.013375e+01
  -1.170033e+02  -2.286001e+01
  -3.180962e+02  -1.389131e+02
  -5.801019e+01  -3.285130e+02
   4.618734e+02  -2.444486e+02
   6.976012e+02   1.854249e+02
   2.689234e+02   4.033166e+02
  -3.821939e+02   2.987943e+02
  -6.427199e+02  -5.218785e+01
  -2.608667e+02  -3.745061e+02
   2.369169e+02  -4.080078e+02
   4.580676e+02  -1.715220e+02
   3.114354e+02   1.622626e+02
   1.163293e+02   3.423435e+02
  -5.189255e+01   1.707921e+02
  -3.429535e+01  -1.564993e+02
   8.527969e+01  -2.303767e+02
   2.941169e+02   6.589990e+01
   1.269336e+02   5.313341e+02
  -1.796324e+02   4.499890e+02
  -4.148151e+02   1.100934e+01
  -1.786421e+02  -3.440768e+02
   1.600477e+02  -1.864442e+02
   2.675050e+02   3.170767e+02
  -8.843215e+01   4.391650e+02
  -4.858291e+02   5.307277e+01
  -4.873507e+02  -3.725678e+02
  -1.741851e+02  -4.896819e+02
   3.163801e+02  -2.424823e+02
   5.114859e+02   7.022419e+01
   3.405689e+02   1.948275e+02
  -4.561987e+01   2.317323e+02
  -3.006238e+02   7.621095e+01
  -2.096886e+02  -1.350804e+02
   6.490356e+01  -2.986488e+01
   5.491673e+01   9.993588e+01
  -1.234590e+02   8.870329e+01
  -3.014938e+02  -4.891712e+01
  -1.307684e+02  -3.145566e+02
   1.660991e+02  -2.210113e+02
   2.916513e+02  -6.109899e+01
   1.956038e+02   6.829302e+01
  -8.086603e+01   2.324154e+02
  -2.133324e+02   2.212020e+02
  -3.396789e+02   1.561177e+02
  -2.643081e+02  -9.776957e+01
  -5.466915e+01  -3.385429e+02
   7.179782e+01  -3.049266e+02
   5.124697e+01  -1.505020e+02
   2.853322e+01  -5.141642e+01
   4.834038e+01  -1.136610e+02
   2.117505e+02  -9.861104e+01
   1.705949e+02   6.256075e+01
   1.370582e+02   2.374224e+02
  -8.821614e+01   2.193584e+02
  -1.771320e+02   2.352047e+01
  -9.895869e+01  -2.589381e+02
   6.854513e+01  -2.351882e+02
   2.571867e+02  -7.192182e+01
   3.001349e+02   1.557628e+02
   1.605730e+02   3.361128e+02
  -5.429667e+01   2.259016e+02
  -1.694745e+02   7.543285e+01
  -1.256825e+02   1.137376e+01
  -1.395579e+02   5.105729e+01
  -2.545850e+02   5.354752e+01
  -3.652173e+02  -9.223439e+01
  -2.916367e+02  -3.031278e+02
  -8.366690e+00  -3.710200e+02
   3.338531e+02  -3.797551e+02
   4.101753e+02  -1.297428e+02
   2.908520e+02   1.250739e+02
   3.318255e+01   2.662906e+02
  -9.727797e+01   1.909934e+02
  -5.975595e+01  -1.064225e+01
   1.231715e+02  -7.826624e+01
   1.518688e+02  -1.943306e+01
   3.634961e+01   1.912263e+02
  -1.045937e+02   1.250471e+02
  -1.411829e+02  -9.940286e+01
   3.466850e+01  -1.455034e+02
   1.311407e+02   1.861666e+01
   1.590220e+02   1.766411e+02
  -2.670609e+01   3.051884e+02
  -2.015806e+02   1.861645e+02
  -3.266932e+02  -5.744961e+01
  -2.386348e+02  -2.210770e+02
  -8.898335e+01  -2.931152e+02
   1.068714e+02  -1.479144e+02
   1.358561e+02  -8.697768e+00
   9.797926e+01  -1.962597e+00
  -2.951980e+01  -4.996647e+01
  -3.631415e+00  -1.322978e+02
   1.030093e+02  -5.681206e+01
   1.136752e+02   1.557997e+01
   3.919266e+01   6.537683e+01
  -4.001784e+01  -3.478910e+01
  -3.149546e+01  -4.390643e+01
   1.617676e+02  -9.398249e+01
   2.343376e+02  -3.798463e+00
   2.208432e+02   1.355318e+02
   1.346101e+01   2.594771e+02
  -2.109148e+02   2.009449e+02
  -2.305876e+02   5.180240e+01
  -1.058561e+02  -4.574181e+01
  -1.577771e+01  -4.473874e+01
   4.421661e+01   5.453562e+00
  -6.830177e+01   1.038225e+02
  -1.774602e+02  -1.237878e+01
  -1.830029e+02  -9.797996e+01
  -5.772013e+01  -2.035299e+02
   1.068778e+02  -1.289714e+02
   1.113483e+02   9.993135e-01
   1.598548e+01   1.635156e+00
   5.072415e+00  -9.252335e+00
  -2.788214e+01  -2.429483e+01
   1.132337e+02  -7.941993e+01
   1.738939e+02  -7.717147e+00
   1.753387e+02   9.214477e+01
   4.734294e+00   1.952240e+02
  -1.495800e+02   9.746918e+01
  -1.571715e+02  -5.764070e+00
  -3.893114e+01  -9.182670e+01
   1.009064e+02  -8.730677e+01
   9.395986e+01  -3.176755e+01
   8.686260e-01   3.884056e+01
  -1.603195e+01  -1.615714e+01
   2.040640e+01   1.499197e+01
   6.197746e+01   2.321908e+01
   1.056107e+02   1.038797e+02
  -2.673713e+00   1.590614e+02
  -1.477633e+02   1.787422e+02
  -1.909089e+02  -2.284891e+01
  -1.448551e+02  -1.684409e+02
  -4.546052e+01  -1.846377e+02
   9.457082e+01  -1.598512e+02
   9.954851e+01  -4.109978e+01
   4.736346e+01   1.846136e+01
   1.004201e+01  -2.182794e+01
   4.948999e+01  -1.914730e+00
   1.078040e+02   2.131530e+01
   2.695470e+01   4.756410e+01
  -3.596754e+00   8.955885e+01
  -9.261242e+01   6.435793e+01
  -9.373094e+01  -2.273267e+01
   5.180434e+01  -1.008895e+02
   1.542400e+02  -1.410059e+02
   1.821332e+02   3.307441e+01
   8.234408e+01   1.815943e+02
  -1.280571e+02   2.008138e+02
  -2.902895e+02   1.013686e+02
  -2.429502e+02  -1.580193e+02
  -1.291592e+02  -1.815708e+02
   3.221499e+01  -1.246753e+02
   8.019632e+01  -6.390565e+01
   5.439547e+01  -8.464314e+01
   7.392041e+01  -9.985071e+01
   4.706099e+01  -7.835242e+01
   1.201800e+02  -4.319388e+00
   1.668058e+02   1.353046e+02
  -5.833753e+00   2.143454e+02
  -8.168948e+01   1.611679e+02
  -1.781626e+02   3.305155e+01
  -1.054197e+02  -1.044114e+02
  -1.017031e+01  -1.319763e+02
   1.017858e+02  -1.143111e+02
   5.042602e+01  -9.873892e+00
  -2.896161e+01   3.006643e+01
  -2.574083e+01   3.480049e+01
  -1.234015e+01   1.391243e+01
   7.441801e+01   1.306133e+01
   3.101657e+01   3.241775e+01
  -7.423296e+01   4.280346e+01
  -8.926318e+01   2.101530e+01
  -1.420485e+02  -5.850780e+01
   2.612782e+01  -1.116679e+02
   6.682148e+01  -6.702095e+01
   1.289692e+02  -5.179787e+00
   5.992810e+01   3.492458e+01
  -9.924238e+00   4.836463e+01
  -4.863405e+01  -2.677087e+01
   1.458848e+00  -2.044019e+01
  -6.924056e+00  -5.276283e+01
   6.424998e+01   3.016242e+01
   4.248737e+01   6.122763e+01
   2.156235e+01   2.940470e+01
   8.233324e+01  -1.905321e+00
   3.531858e+01   1.638065e+01
   5.624909e+01   5.144997e+01
  -4.159740e+01   8.918741e+01
  -9.165766e+01   1.586987e+02
  -1.671852e+02   3.085521e+01
  -1.266125e+02  -5.164014e+01
   3.134416e+01  -1.189484e+02
   7.292379e+01  -8.794590e+01
   7.009809e+01  -5.786442e+00
  -6.446907e+01   8.929214e+00
  -9.328967e+01  -1.154883e+01
  -4.829221e+01  -9.917383e+01
   5.887138e+01  -1.099311e+02
   1.662183e+02   1.117878e+01
   1.217937e+02  -2.315943e+00
   5.121172e+01   3.323743e+01
  -4.930922e+01   6.079130e+01
  -4.258014e+01   1.228287e+01
   6.194260e+01   6.284875e-01
   9.196358e+01  -3.109585e+01
   2.929224e+01   1.178870e+02
  -7.365550e+01   1.282369e+02
  -1.492763e+02   3.484494e+01
  -1.215417e+02  -1.145173e+02
   5.206659e+00  -1.659410e+02
   8.935966e+01  -6.463480e+01
   9.705863e+01   2.646722e+01
   7.515831e+01   1.326253e+02
   3.514897e+01   1.075242e+02
  -3.869560e+01   4.626063e+01
  -5.596173e+01   2.594672e+00
  -1.006915e+01   1.660270e+01
  -2.887251e+01   3.421463e+01
  -1.474534e+01   1.135040e+01
  -3.971937e+01  -8.922071e+01
  -2.711044e+01  -8.689297e+01
   8.199886e+01  -2.061884e+01
   1.354940e+02   1.976456e+00
   1.064712e+02   8.048889e+01
   1.374413e+01   2.976549e+01
  -4.841537e+01   2.461527e+01
  -7.097175e+01   2.710248e+01
  -3.289876e+01  -1.346318e+01
   3.201403e+01  -2.705522e+01
   2.966688e+01   4.363484e+00
   7.547712e+00  -6.904198e+00
   1.073926e+01  -3.790403e+01
   7.975208e+01   3.723056e+01
   9.461160e+01   2.057619e+01
  -2.905798e+01   8.956729e+01
  -1.109230e+02   1.443606e+02
  -1.127324e+02   5.326426e+01
  -1.622449e+02  -3.381845e+01
  -4.436861e+01  -1.379303e+02
   9.875263e+01  -1.145143e+02
   1.556254e+02  -7.351544e+01
   8.795688e+01   4.929966e+01
   5.067605e+01   9.329886e+01
   3.347340e+01   2.736057e+01
  -1.942511e+01  -7.385293e+00
  -2.200711e+00   6.313341e+01
   1.809704e+01   1.131455e+02
  -5.226694e+01   4.623889e+01
  -5.620470e+01  -4.681333e+00
  -1.046873e+02  -9.956962e+01
  -3.087548e+01  -9.636745e+01
   9.052846e+01  -2.727763e+01
   9.226683e+01   5.420230e+01
   8.260051e-01   9.912659e+01
  -5.270831e+01   5.759734e+01
  -1.063980e+02  -3.289580e+01
  -4.480234e+01  -4.949276e+01
   2.097632e+01  -5.780474e+01
   2.722428e+01  -4.275172e+01
  -6.667641e+01  -8.007991e+00
  -5.919145e+01   2.365593e+01
  -2.581443e+01  -1.157060e+01
   6.574929e+01  -7.682332e+01
   8.920801e+01  -7.950555e+01
   6.250566e+01  -4.113799e+01
  -1.122541e+01   9.163794e+01
  -5.045365e+01   4.609687e+01
  -3.584675e+01  -1.620063e+01
  -2.581895e+01   2.319037e+01
   1.733967e+01  -4.770157e+01
   3.486883e+00  -2.708188e+00
   2.834832e+01   5.402206e+01
  -3.187113e-01   1.832595e+01
  -5.523204e+01  -3.777286e+01
  -4.695201e+01  -6.514547e-01
  -3.555857e+01   1.945202e+01
   3.801776e+01  -1.810062e+01
   6.437915e+01  -2.654053e+01
  -2.384259e+00  -3.998008e+01
   2.298336e+01  -3.993384e+01
   2.650240e+01  -1.222715e+01
   2.037597e+01   4.012060e+01
   5.762957e+01   5.662271e+01
  -4.908886e+01   4.385095e+01
  -7.092326e+01  -2.588266e+01
  -4.802092e+00  -3.303625e+01
   4.047959e+01  -4.083769e+01
   8.142087e+01   2.030394e+01
   5.652312e+01   2.932555e+01
  -4.632491e+01   6.820869e+01
  -9.155325e+01   4.461359e+01
   9.668098e-02   1.074488e+01
   6.369977e+01  -3.095352e+01
   1.102284e+01   5.579176e+01
  -3.313825e+01   2.036189e+01
  -9.701850e+01   1.508333e+01
