
 $NMID
 id='ANONYMOUS ', fmtdat='(2E16.6)'
 volume=1.0
 tramp=1.0
 $END
   3.510444e+03   1.659691e+02
   1.978019e+03   2.163321e+03
  -2.483965e+02   2.289465e+03
  -1.588345e+03   1.053810e+03
  -8.642318e+02  -1.393138e+02
   2.490459e+02  -2.043184e+02
   4.905339e+02   3.033934e+02
   3.655809e+01   6.679238e+02
  -4.891919e+02   6.274835e+02
  -7.307307e+02   1.753665e+01
  -4.278060e+02  -6.770929e+02
   1.329727e+02  -7.277498e+02
   4.150673e+02  -1.407069e+02
   3.119217e+02   4.607204e+02
  -1.478099e+02   6.004844e+02
  -4.245310e+02   7.387502e+01
  -2.841527e+02  -5.281907e+02
   2.527572e+02  -5.844701e+02
   4.753619e+02  -1.177699e+02
   3.945199e+02   2.581439e+02
   5.412721e+01   3.232481e+02
  -1.844978e+02   2.643143e+02
  -1.387700e+02   4.025374e+01
   1.340070e+02  -1.804484e+01
   2.780821e+02   2.572842e+02
   1.153764e+01   3.215199e+02
  -5.304657e+02   3.108614e+02
  -6.556172e+02  -1.595945e+02
  -2.570969e+02  -4.674582e+02
   3.631851e+02  -3.495749e+02
   6.172765e+02   7.743809e+01
   2.328689e+02   4.183560e+02
  -3.106487e+02   4.407665e+02
  -4.913108e+02   1.182160e+02
  -3.537266e+02  -1.673633e+02
  -1.105533e+02  -3.687238e+02
   4.171985e+01  -2.135747e+02
   5.763731e+01   1.711851e+02
  -2.326120e+02   2.642749e+02
  -3.423210e+02  -1.119976e+02
  -6.703411e+01  -5.745871e+02
   2.568155e+02  -5.545548e+02
   3.726177e+02   5.527842e+00
   1.398310e+02   4.225402e+02
  -2.283118e+02   2.083844e+02
  -2.021097e+02  -3.456061e+02
   1.352161e+02  -3.772933e+02
   4.496263e+02  -5.697004e+01
   5.151521e+02   3.493358e+02
   1.388133e+02   5.446442e+02
  -3.454587e+02   3.020318e+02
  -5.526175e+02  -2.121788e+01
  -3.350091e+02  -3.338777e+02
   1.439607e+02  -3.120742e+02
   3.391282e+02  -1.393332e+02
   2.194700e+02   6.351863e+01
  -4.543256e+01   2.665061e+01
  -9.057777e+01  -7.530037e+01
   1.371642e+02  -1.474867e+02
   2.348765e+02   1.236248e+02
   8.696859e+01   2.085789e+02
  -1.795377e+02   2.034386e+02
  -3.009849e+02   1.164006e+02
  -2.069371e+02  -9.297284e+01
   7.275432e+00  -2.395706e+02
   2.477002e+02  -2.988859e+02
   3.436235e+02  -1.365047e+02
   2.739966e+02   1.853451e+02
   5.982692e+01   3.280435e+02
  -2.147454e+01   3.306030e+02
  -2.229469e+01   8.867211e+01
  -4.381048e+01   2.349394e+01
  -1.277164e+02   1.155881e+02
  -1.932374e+02   1.193221e+02
  -2.502817e+02  -9.295438e+01
  -1.196077e+02  -2.234836e+02
   8.459196e+01  -2.085616e+02
   1.617216e+02   1.030889e+01
   1.760003e+02   2.500659e+02
  -2.775543e+01   2.623307e+02
  -2.745176e+02   9.313766e+01
  -3.049411e+02  -1.406005e+02
  -2.019578e+02  -2.995425e+02
   2.619523e+00  -2.852182e+02
   2.197474e+02  -1.148618e+02
   1.557912e+02  -2.779863e+00
   1.482681e+02  -8.846460e+01
   2.607455e+02  -9.836009e+00
   3.487520e+02   1.234343e+02
   2.386844e+02   2.881186e+02
  -4.975653e+01   3.928982e+02
  -3.745226e+02   3.534830e+02
  -3.566107e+02   1.631158e+02
  -2.778372e+02  -8.757938e+01
  -3.500809e+01  -2.587177e+02
   1.390382e+02  -1.940696e+02
   7.077375e+01  -2.671630e+01
  -1.080543e+02   4.516529e+01
  -1.779932e+02   1.115826e+01
   2.199499e+01  -1.567950e+02
   1.530975e+02  -1.199952e+02
   1.369563e+02   3.933388e+01
  -3.926522e+01   1.573811e+02
  -1.538374e+02  -3.220857e+01
  -1.421325e+02  -2.461687e+02
   5.638106e+01  -3.046167e+02
   2.428691e+02  -1.811564e+02
   3.151891e+02   5.124227e+01
   2.756567e+02   3.011221e+02
   4.675228e+01   2.536024e+02
  -1.180865e+02   1.207027e+02
  -1.872556e+02   1.545012e+01
  -2.864528e+01  -3.880167e+01
   5.648552e+01   5.952159e+01
  -1.482024e+00   6.886518e+01
  -1.377376e+02   8.382459e+01
  -1.375895e+02  -4.178651e+01
  -6.619754e+01  -4.293675e+01
   8.351073e+01  -2.091624e+01
   3.490056e+01   8.694122e+01
  -1.084413e+02   1.122322e+02
  -2.715892e+02   8.651108e+00
  -2.492640e+02  -1.551972e+02
  -1.067552e+01  -2.756032e+02
   1.813080e+02  -2.671777e+02
   2.521432e+02  -1.149418e+02
   1.352831e+02   3.462612e+01
  -7.240324e+00   7.614570e+01
  -1.718019e+01  -1.097738e+01
   2.482027e+01  -8.600330e+01
   1.674242e+02  -6.247972e+01
   2.156534e+02   1.317728e+02
   3.970494e+01   1.862487e+02
  -1.411286e+02   1.476000e+02
  -1.499002e+02   3.251531e+01
  -6.645268e+01  -2.961359e+01
   4.587680e+01   5.531878e+01
   7.652775e+01   8.760003e+01
  -6.726211e+01   1.422717e+02
  -2.512786e+02   2.740783e+01
  -2.080244e+02  -8.248929e+01
  -3.828725e+01  -2.146144e+02
   1.530284e+02  -1.844277e+02
   1.684825e+02  -1.028975e+01
   5.065928e+01   1.274565e+02
  -4.410590e+01   1.171223e+02
  -1.286447e+01  -2.204521e+01
  -1.305606e+01  -1.962152e+01
   2.378293e+01  -2.003970e+00
  -2.389811e+01   2.050080e+01
  -6.916206e+01   1.623026e+01
  -1.463271e+02  -1.277529e+02
  -1.998801e+01  -2.035649e+02
   1.105307e+02  -1.480656e+02
   2.241113e+02  -2.758169e+01
   1.773916e+02   1.467938e+02
   7.073371e+01   2.123304e+02
  -1.171996e+02   1.251871e+02
  -1.339331e+02   1.392832e+01
  -9.165445e+01  -5.251145e+01
  -3.330872e+01  -1.840759e+01
  -6.641697e+01  -1.795170e+01
  -6.640006e+01   2.394286e+01
  -4.605044e+01  -6.892490e+01
   5.248050e+01  -6.536378e+01
   1.144939e+02  -6.049268e+01
   5.306107e+01   7.337697e+01
  -5.577241e+01   1.261610e+02
  -1.230605e+02   8.984666e+01
  -1.950035e+02  -1.027848e+02
  -1.210501e+02  -2.092143e+02
   1.022233e+02  -2.195882e+02
   2.467126e+02  -7.293418e+01
   2.310348e+02   9.992413e+01
   8.898662e+01   1.555969e+02
  -1.095422e+01   1.375509e+02
  -8.389198e+01   8.201621e+01
  -9.355230e+01   4.337860e+01
  -4.094876e+01   7.505218e+01
  -4.019604e+01   6.437230e+01
  -1.244890e+02  -5.553025e+01
  -7.864662e+01  -1.233650e+02
  -1.824772e+01  -1.873827e+02
   1.131497e+02  -1.638944e+02
   1.854590e+02  -8.235437e+00
   9.947399e+01   1.228441e+02
  -7.726239e+00   1.758068e+02
  -7.158798e+01   1.009139e+02
  -8.242529e+01  -1.995302e+01
  -2.573366e+00  -4.996423e+01
   2.072825e+01  -3.826338e+01
  -5.364542e+00   1.013335e+01
  -6.962986e+01  -2.099816e+00
  -5.714930e+01  -7.167882e+01
   5.824504e+01  -1.528657e+01
   1.470512e+02  -1.453372e+01
   1.480863e+02   7.264018e+01
   1.568081e+01   8.197633e+01
  -9.751663e+01   3.689120e+01
  -1.348666e+02   1.148168e+01
  -9.920220e+01  -7.051766e+01
   8.787726e+01  -3.817335e+01
   7.610286e+01   5.311714e+01
   3.368967e+01   9.035009e+01
  -5.226966e+01   7.079206e+01
  -5.299387e+01   2.666590e+01
  -7.346337e+01  -2.588644e+01
  -4.353909e+01  -3.820205e+01
  -5.608771e+01   3.185476e+01
  -4.627030e+01  -3.278155e+01
  -1.639134e+01  -5.319592e+01
   2.898288e+01  -1.130438e+02
   1.225915e+02  -1.282216e+02
   1.186214e+02  -1.047077e+01
   9.569709e+01   5.347960e+01
   5.366764e+00   1.076117e+02
  -7.222435e+01   7.195258e+01
  -2.788703e+01  -3.581648e+01
   5.414623e+01  -2.111721e+01
   1.361669e+02   4.317106e+01
   7.296817e+01   6.656760e+01
  -8.633823e+01   1.069431e+02
  -2.196882e+02   3.496370e+01
  -1.240655e+02  -4.042206e+01
  -1.301964e+01  -6.245842e+01
   5.406130e+01  -1.113390e+02
   6.269399e+01  -2.904410e+01
  -5.639288e+01   2.311724e+01
  -4.345108e+01   1.467016e+01
  -6.209881e+00  -9.169412e+01
   7.194998e+01  -1.106292e+02
   1.518938e+02  -6.141680e+01
   1.050239e+02   9.964823e+01
   3.644412e+00   1.804987e+02
  -7.526356e+01   1.203504e+02
  -9.233583e+01  -2.346406e+01
  -5.934685e+01  -1.336785e+02
  -1.359747e+01  -1.140789e+02
   1.037920e+01  -5.629093e+01
   4.149932e+01   8.444073e+01
   4.204684e+01  -4.205211e+00
   2.075250e+01   7.134298e+00
   5.750458e+01   5.388381e+01
   5.465151e+01   8.759365e+01
   1.584249e+01   1.107949e+02
  -5.386675e+01   4.646710e+01
  -1.094197e+02  -6.529841e+01
  -1.095448e+02  -7.419836e+01
  -2.449224e+00  -3.793497e+01
   5.606255e+01  -1.086022e+01
   6.814805e+01  -3.997055e+01
   1.107394e+01   1.844537e+01
  -8.288893e+01   1.416096e+01
  -1.920281e+01   5.448583e+01
  -3.158776e+01  -1.234771e+01
   3.383437e+01  -3.581617e+01
  -3.621493e+01   1.149308e+01
  -1.000911e+02  -2.824431e+01
   4.700247e+00  -7.921193e+01
   7.626094e+01  -1.261090e+02
   1.580276e+02  -8.551848e+01
   1.375220e+02   5.809448e+01
   4.525762e+01   1.771118e+02
  -9.455613e+01   1.088910e+02
  -7.946806e+01   7.299522e+01
  -6.011939e+01  -4.449759e+01
  -1.966880e+01  -5.017135e+00
   4.182491e+01  -2.366118e+00
  -1.393573e+01  -5.445016e+00
  -2.327061e+01  -4.344124e+01
  -4.802993e+01  -8.272310e+01
   8.852959e+00  -1.045320e+02
   6.218787e+01   3.572821e+01
   9.723251e+01   9.319515e+01
  -2.819938e+00   8.750002e+01
  -8.090525e+01   4.398070e+00
  -1.344527e+02  -3.006752e+01
  -3.531492e+01  -9.295010e+01
   8.683218e+01  -4.567252e+01
   1.063163e+02  -2.365858e+01
   4.974971e+01   3.719681e+01
  -7.604133e+01   3.873363e+00
  -1.819300e+01  -1.346535e+01
   4.070573e+01  -1.381652e+01
   6.684565e+01  -7.724725e+00
  -1.717359e+01   8.629285e+00
  -8.404510e+01   7.081459e+00
  -1.188857e+02   5.002937e+01
  -8.891745e+01  -1.490728e+01
   1.257265e+00  -6.310277e+01
   9.601397e+00  -8.182560e+01
   5.381105e+01  -5.073348e+01
  -1.264955e+01   7.722968e+01
   1.220358e+00   6.254900e+01
  -6.327331e+00  -4.417615e+01
  -7.172229e+01  -2.881309e+01
  -1.586020e+01  -2.156412e+01
   5.501655e+01   2.270650e+01
   3.514438e+01   9.298931e+00
   1.217795e+01  -7.898995e+00
   1.742247e+01   1.924253e+01
  -3.703843e+01  -1.119477e+01
  -6.899151e+00  -7.226044e+00
  -4.504092e+01   2.577513e+01
  -5.817161e+01  -1.175803e+01
  -3.471529e+01  -3.022245e+01
  -1.650844e+01  -9.162548e+01
   6.250549e+01  -3.665074e+01
   4.807270e+01   4.493904e+01
   2.174520e+01   4.481799e+01
  -2.887101e+01   3.084898e+01
  -4.394869e+01   1.856473e+01
  -4.521474e+01  -3.238210e+01
   3.806918e+01  -6.547000e+01
   8.370037e+01   7.990780e-01
   5.351080e+01   6.194103e+00
  -2.082839e+01  -8.703073e+00
  -3.873127e+01   5.044035e+01
   2.644075e+01  -3.323683e+01
   6.532839e+01  -5.487667e+00
