
 $NMID
 id='ANONYMOUS ', fmtdat='(2E16.6)'
 volume=1.0
 tramp=1.0
 $END
  -3.450557e+03  -7.903599e+02
  -2.000604e+03  -2.456500e+03
   4.521841e+02  -2.023221e+03
   1.471981e+03  -8.890603e+02
   6.238754e+02   4.663668e+01
  -2.058774e+02   1.238484e+02
  -3.689202e+02  -2.473597e+02
   1.965475e+02  -6.210025e+02
   6.352170e+02  -5.673566e+02
   7.409464e+02   6.088656e+01
   3.365657e+02   5.672176e+02
  -1.352451e+02   6.922522e+02
  -4.184382e+02   1.230322e+02
  -1.989252e+02  -4.802146e+02
   1.799354e+02  -5.358817e+02
   4.449262e+02  -6.078949e+01
   2.117483e+02   4.899058e+02
  -1.690558e+02   5.719335e+02
  -4.400795e+02   1.399080e+02
  -3.999457e+02  -2.464253e+02
  -1.126915e+02  -3.538792e+02
   1.721326e+02  -2.426561e+02
   7.890238e+01  -1.281367e+01
  -1.799134e+02  -1.056453e+02
  -3.724968e+02  -3.237250e+02
  -4.272523e+01  -3.896492e+02
   5.821849e+02  -1.823483e+02
   6.396699e+02   2.263097e+02
   2.114030e+02   4.160945e+02
  -3.719209e+02   2.655995e+02
  -6.256518e+02  -1.174394e+02
  -1.787182e+02  -4.273577e+02
   3.561128e+02  -3.773370e+02
   4.833808e+02  -1.053345e+02
   2.778628e+02   1.722289e+02
   5.393965e+01   3.412571e+02
  -7.611022e+01   1.441013e+02
   1.194042e+01  -1.653252e+02
   2.441826e+02  -2.258678e+02
   2.518342e+02   1.887728e+02
  -1.088881e+01   5.810516e+02
  -2.565203e+02   4.611351e+02
  -3.473001e+02  -9.170093e+01
  -3.413718e+01  -3.584770e+02
   2.270629e+02  -1.013738e+02
   2.286210e+02   3.950056e+02
  -1.104122e+02   4.531755e+02
  -4.848217e+02   6.740524e+00
  -5.351638e+02  -4.108300e+02
  -1.427074e+02  -5.074531e+02
   2.654256e+02  -2.468923e+02
   5.211610e+02   6.513775e+01
   2.903037e+02   2.690059e+02
  -4.586447e+01   2.519005e+02
  -3.377325e+02   1.002651e+02
  -2.048763e+02  -2.403396e+01
   4.893791e+01   2.302413e+01
   3.718207e+01   8.440963e+01
  -1.622594e+02   6.542362e+01
  -2.333242e+02  -1.195548e+02
  -9.034271e+01  -1.935912e+02
   1.517642e+02  -2.496335e+02
   4.138481e+02  -9.147200e+01
   2.182007e+02   1.256578e+02
   8.640664e+00   2.775948e+02
  -2.460058e+02   3.422456e+02
  -4.046143e+02   1.403328e+02
  -2.429911e+02  -2.013098e+02
   7.818313e+00  -3.528874e+02
   5.354970e+01  -2.757295e+02
   1.793861e+01  -1.366305e+02
   3.302243e+01  -6.844213e+01
   1.056945e+02  -1.550988e+02
   2.664148e+02  -7.817057e+01
   2.650033e+02   1.590419e+02
   6.302760e+01   2.796339e+02
  -1.332476e+02   1.745539e+02
  -2.235754e+02  -1.209320e+01
  -1.292513e+02  -2.825037e+02
   6.512121e+01  -3.053746e+02
   2.448083e+02  -3.597644e+01
   3.903685e+02   2.233487e+02
   1.644724e+02   2.849976e+02
  -2.063058e+01   2.937754e+02
  -1.454767e+02   1.147595e+02
  -1.492727e+02   4.889206e+01
  -1.973395e+02   7.622123e+01
  -2.569264e+02   2.669512e+01
  -4.272419e+02  -1.569205e+02
  -2.669137e+02  -2.653017e+02
   6.644986e+01  -4.494427e+02
   3.954885e+02  -4.274470e+02
   4.388403e+02  -2.369630e+02
   2.968919e+02   1.144829e+02
  -1.399655e+01   2.631886e+02
  -9.924547e+01   1.984123e+02
  -2.656904e+01   2.416013e+00
   1.050119e+02  -3.853210e+01
   1.681756e+02   2.012023e+01
   1.185858e+01   1.452623e+02
  -1.302833e+02   8.874999e+01
  -1.270081e+02  -8.025175e+01
   3.183257e+01  -1.457311e+02
   1.792749e+02  -2.689410e+01
   1.551180e+02   2.757831e+02
  -4.963731e+01   3.245025e+02
  -2.561527e+02   1.649548e+02
  -2.993532e+02  -9.877431e+01
  -2.867758e+02  -2.312124e+02
  -6.904290e+01  -2.661662e+02
   1.210406e+02  -1.719129e+02
   1.705738e+02   7.329962e+00
   6.301791e+01   2.606801e+01
  -4.707843e+01  -9.522441e+01
  -2.635574e+01  -1.584811e+02
   9.848895e+01  -1.276576e+02
   1.324283e+02   8.317311e+00
   5.147763e+01   5.009873e+01
  -4.624536e+01   2.595883e+01
  -1.652240e+01  -9.713338e+01
   1.909391e+02  -8.795905e+01
   2.895435e+02   8.051967e+01
   2.628207e+02   1.391003e+02
   9.552070e+00   3.151347e+02
  -1.877718e+02   2.195817e+02
  -2.195566e+02   8.505353e+01
  -1.610234e+02  -5.349246e+01
   6.233919e+00  -1.149179e+02
   5.856028e+01  -2.080638e+01
  -8.705682e+01   1.297401e+02
  -2.053914e+02   2.790687e+01
  -1.717199e+02  -1.281549e+02
  -7.015869e+01  -1.909373e+02
   9.108801e+01  -1.435849e+02
   1.157218e+02  -5.823658e+01
   3.168976e+01  -1.030991e+01
  -5.523905e+01  -6.403868e+00
  -4.829746e+01  -9.351153e+01
   1.023446e+02  -9.938539e+01
   2.274718e+02  -1.112180e+01
   1.875727e+02   1.526467e+02
   4.430920e+00   2.310740e+02
  -1.418363e+02   1.811014e+02
  -1.276020e+02  -2.261104e+01
  -5.129721e+01  -1.255192e+02
   9.060773e+01  -1.124111e+02
   8.461683e+01  -4.939902e+01
  -2.585710e+01   5.298540e+01
  -2.132915e+01   4.172224e+01
   3.576238e+01  -4.322521e+01
   4.069754e+01   1.107585e+00
   1.085898e+02   7.286476e+01
   5.305818e+00   2.007232e+02
  -1.461164e+02   1.089295e+02
  -2.576661e+02  -8.192788e+00
  -2.225470e+02  -1.694530e+02
  -3.809671e+01  -2.528103e+02
   1.442812e+02  -1.969616e+02
   1.369823e+02  -1.246463e+01
   7.124420e+01   7.624029e+01
   1.727472e+01   3.447560e+01
   4.794294e+01  -1.453395e+01
   5.958532e+01  -6.019337e+01
  -1.334734e+01   7.660031e+01
  -2.830631e+01   8.206921e+01
  -1.524250e+02   1.689888e+01
  -8.441031e+01  -2.212315e+01
  -4.462879e+00  -1.138049e+02
   1.695881e+02  -5.797802e+01
   2.627370e+02   5.885643e+01
   9.290157e+01   2.028485e+02
  -1.153129e+02   2.500021e+02
  -2.923068e+02   7.279915e+01
  -2.684200e+02  -8.988375e+01
  -5.500705e+01  -2.094937e+02
   8.185452e+01  -1.520948e+02
   1.073870e+02  -8.356769e+01
   9.158087e+01  -9.551278e+01
   4.846521e+01  -7.571792e+01
   1.068181e+02  -8.302795e+01
   1.223221e+02   5.237727e+00
   1.367047e+02   1.146637e+02
  -1.743893e+01   2.257704e+02
  -1.179598e+02   1.782677e+02
  -2.160540e+02  -1.667220e+01
  -1.290473e+02  -1.158895e+02
  -8.893323e-01  -1.101496e+02
   9.673114e+01  -8.398819e+01
   6.293813e+01  -6.521134e+00
  -3.884261e+00   9.430679e+01
  -4.469697e+01   5.801277e+01
   3.134404e+01   4.138779e+01
   7.991217e+01   7.804301e+01
   2.804916e+01   5.221427e+01
  -7.762555e+01   3.399715e+01
  -1.478057e+02   1.394559e+01
  -1.479162e+02  -4.077052e+01
   2.879046e+01  -1.109541e+02
   1.531955e+02  -7.327252e+01
   1.432305e+02  -1.699401e+01
   2.690391e+00   4.384705e+01
  -2.870631e+01   2.469206e+01
  -9.626607e+01  -4.307785e+01
  -4.488620e+00  -7.842005e+01
   7.671478e+01  -7.120119e+01
   4.511411e+01  -4.505138e+00
   6.653124e+01   5.639018e+01
   4.069815e+01   4.007193e+01
   5.924895e+01  -3.258596e+01
   7.222094e+01  -2.276699e+01
   2.736411e+01   7.933059e+01
  -9.149067e+00   1.616008e+02
  -1.681905e+02   1.676524e+02
  -1.381595e+02   2.776530e+01
  -1.072215e+02  -1.387610e+02
   2.280862e+01  -9.398791e+01
   9.744514e+01  -5.105713e+01
   5.089744e+01   3.275548e+01
  -3.713527e+01  -6.693793e+00
  -1.377706e+02  -1.572162e+01
  -8.943105e+01  -1.059321e+02
   7.320675e+01  -1.011371e+02
   1.896314e+02  -1.723865e+01
   1.355141e+02  -3.003151e+00
   3.196867e+01   7.207379e+01
  -8.582315e+01   6.658146e+01
  -6.214910e+01   2.988722e+01
   2.933979e+01  -4.850910e+01
   5.886846e+01   1.941939e+01
   5.170162e+01   1.374391e+02
  -7.844301e+01   1.713712e+02
  -1.161534e+02   5.403220e+01
  -1.364023e+02  -1.228180e+02
  -2.101797e+01  -1.602760e+02
   6.094227e+01  -1.797003e+02
   9.979995e+01   1.039550e+01
   6.299834e+01   1.239091e+02
  -3.302294e+01   1.501742e+02
  -5.993747e+01   3.484793e+01
  -3.260793e+01  -1.443139e+01
  -3.970138e+01   2.230406e+01
   2.579294e+01  -1.991828e+01
  -6.289997e+01   8.567512e+00
  -4.303867e+01  -7.244865e+01
  -1.004499e+01  -9.095497e+01
   4.757407e+01  -4.507698e+01
   1.120295e+02   4.782304e+01
   1.098742e+02   6.758739e+01
   9.111530e+00   5.898792e+01
  -7.330051e+01   2.737743e+01
  -9.183471e+01  -3.216466e+01
  -1.717147e+01   1.555352e+01
   1.677448e+01  -2.644528e+01
  -1.739711e+01   2.611215e+01
  -2.074643e+01   4.352299e+01
   2.449320e+01  -1.301355e-01
   6.709788e+01   2.307834e-01
   8.248560e+01   3.660528e+01
  -1.600732e+01   6.981195e+01
  -1.001971e+02   1.058451e+02
  -1.904024e+02   7.692745e+01
  -1.615522e+02  -7.102587e+01
  -2.416258e+01  -1.448579e+02
   6.887350e+01  -1.438788e+02
   9.054402e+01  -4.907491e+01
   5.460465e+01   2.329248e+01
   2.457180e+01   2.493627e+01
  -3.300656e+01   5.791844e+00
   3.102067e+01  -2.089725e+00
   2.859698e+01   7.553410e+01
  -4.886876e+00   1.139862e+02
  -4.165726e+01   8.700260e+01
  -4.930247e+01   3.852607e+00
  -9.153726e+01  -7.636515e+01
  -3.486624e+01  -9.395642e+01
   6.996039e+01   3.158895e+01
   9.784387e+01   3.050655e+01
   5.385734e+01   1.058153e+02
  -2.815117e+01   9.661349e+01
  -1.147134e+02  -1.260956e+01
  -9.492513e+00  -3.939982e+01
   2.141339e+00  -2.463115e+01
   4.611721e+01  -4.761975e+01
  -1.993474e+01  -8.520609e+00
  -8.900904e+01   9.589754e+00
  -3.276901e+01  -4.957490e+01
   1.011184e+02  -8.512220e+01
   1.352174e+02  -6.144417e+01
   4.670876e+01   3.643170e+00
  -1.888199e+01   6.952200e+01
  -9.022079e+01   1.140519e+02
  -3.564834e+01  -1.408801e+01
   7.572260e+00  -7.239254e+01
   2.569259e+01  -1.302995e+01
   4.128716e+01  -5.040337e+00
   1.954702e+01   4.728971e+01
  -4.036431e+00   2.209529e+01
  -1.039279e+02  -3.063247e+01
  -6.305399e+01  -2.934963e+01
  -3.690545e+01   1.962955e+01
   1.637807e+01   2.927254e+01
   3.004082e+01  -3.601564e+01
   1.388579e+01  -8.844601e+00
   2.614028e+01  -4.852013e+01
   4.041610e+00   1.607015e+01
   3.320060e+01   5.096021e+01
   3.342569e+01   6.687279e+01
  -1.492225e+01  -9.013627e+00
  -4.089439e+01  -2.540201e+01
  -1.998327e+01  -7.965433e+01
   5.139136e+01  -3.300052e+01
   1.086473e+02  -4.878701e+00
   6.875066e+01   4.109702e+01
  -9.687909e+00   1.436196e+01
  -5.476070e+01  -1.007387e+01
   2.768553e+01   9.075181e+00
  -2.108290e+00  -2.948662e+01
   2.926601e+01   2.338365e+01
  -1.876737e+00   2.360297e+01
  -1.079683e+02   1.690900e+01
