
 $NMID
 id='ANONYMOUS ', fmtdat='(2E16.6)'
 volume=1.0
 tramp=1.0
 $END
  -3.714996e+03  -5.403262e+02
  -2.130356e+03  -2.256993e+03
   4.198950e+02  -2.233971e+03
   1.515028e+03  -9.937756e+02
   9.663509e+02   9.130256e+01
  -2.041754e+02   2.941759e+02
  -5.696437e+02  -1.835083e+02
  -3.076228e+01  -7.234378e+02
   6.466051e+02  -6.411962e+02
   6.759510e+02   4.179759e+01
   4.385851e+02   6.631702e+02
  -1.142249e+02   7.600152e+02
  -4.759555e+02   1.162760e+02
  -2.760405e+02  -5.609307e+02
   1.578353e+02  -6.455630e+02
   4.697834e+02   7.333658e-01
   2.029450e+02   6.057761e+02
  -2.045249e+02   6.325316e+02
  -5.044693e+02   1.571196e+02
  -3.727333e+02  -2.914781e+02
  -7.742005e+01  -4.129970e+02
   1.647976e+02  -2.363377e+02
   1.086098e+02  -2.241743e+01
  -1.914034e+02  -5.186282e+01
  -3.364026e+02  -2.390810e+02
  -4.531960e+01  -3.841839e+02
   4.384575e+02  -1.870317e+02
   6.416914e+02   2.172723e+02
   2.749549e+02   4.907782e+02
  -3.876014e+02   2.821869e+02
  -5.635406e+02  -7.250590e+01
  -1.893504e+02  -3.869601e+02
   3.013717e+02  -3.420227e+02
   5.082843e+02  -1.237189e+02
   3.123220e+02   1.362174e+02
   8.485304e+01   3.792335e+02
  -1.384630e+02   1.312313e+02
  -5.806366e+01  -1.492753e+02
   1.493171e+02  -1.730806e+02
   2.840565e+02   1.532489e+02
   8.817059e+01   5.625661e+02
  -2.983715e+02   4.453051e+02
  -3.665062e+02   2.280776e+01
  -5.497727e+01  -3.932571e+02
   2.069178e+02  -1.291351e+02
   2.071398e+02   3.348086e+02
  -1.514025e+02   4.059820e+02
  -4.702318e+02   3.854467e+01
  -4.547540e+02  -4.236375e+02
  -1.040323e+02  -4.956520e+02
   3.374411e+02  -2.350318e+02
   4.921759e+02   9.128384e+01
   2.759079e+02   3.077228e+02
  -1.242045e+02   2.800871e+02
  -3.120038e+02   7.591436e+01
  -1.517419e+02  -7.826402e+01
   6.185086e+01  -3.924354e+01
   4.476855e+01   6.902772e+01
  -1.100050e+02   1.220119e+02
  -2.420287e+02  -7.684087e+01
  -1.130064e+02  -2.182079e+02
   1.433728e+02  -2.881717e+02
   3.554109e+02  -8.840899e+01
   2.173693e+02   1.047432e+02
   1.470510e+00   2.902865e+02
  -3.589428e+02   3.538340e+02
  -3.679908e+02   1.298425e+02
  -2.109353e+02  -1.932629e+02
  -1.074693e+02  -3.864544e+02
   8.293094e+01  -3.328431e+02
   1.035324e+02  -1.183684e+02
  -1.864520e+01  -1.504870e+01
   9.306875e+01  -7.491303e+01
   1.979466e+02  -2.047728e+01
   2.263061e+02   1.070234e+02
   8.291312e+01   2.128167e+02
  -1.029844e+02   2.125252e+02
  -1.953015e+02  -2.745314e+01
  -1.518887e+02  -2.580420e+02
   3.562022e+01  -2.319293e+02
   2.617004e+02  -3.707598e+01
   3.000843e+02   1.590697e+02
   1.893326e+02   3.039724e+02
  -2.500756e+01   2.762281e+02
  -2.139841e+02   8.964456e+01
  -1.386609e+02   8.024833e+01
  -1.332770e+02   5.621177e+01
  -2.290254e+02  -1.453645e+01
  -3.916339e+02  -1.211469e+02
  -2.797258e+02  -2.665175e+02
   2.349275e+01  -3.884053e+02
   3.563557e+02  -3.987857e+02
   4.790949e+02  -1.460557e+02
   2.526503e+02   1.408942e+02
   2.149761e+01   2.580834e+02
  -9.660490e+01   2.012959e+02
  -8.760491e+00   3.861572e+01
   1.344118e+02  -2.119223e+00
   1.346572e+02   2.010902e+01
  -1.933496e+01   1.568046e+02
  -1.785208e+02   9.612950e+01
  -9.878358e+01  -1.108601e+02
   5.369157e+01  -1.716113e+02
   1.812115e+02  -1.233855e+01
   1.147168e+02   2.839718e+02
  -5.141048e+01   3.307620e+02
  -2.382287e+02   1.676989e+02
  -3.231309e+02  -8.209364e+01
  -2.431755e+02  -2.547129e+02
  -3.660183e+01  -2.640525e+02
   9.826248e+01  -5.303986e+01
   1.473929e+02   3.725800e+01
   4.799172e+01   2.945291e+00
  -6.093709e+01  -7.698678e+01
   6.346444e+00  -9.341578e+01
   1.139481e+02  -3.895596e+01
   1.589724e+02   2.617915e+01
   5.030512e+01   6.740501e+01
  -9.830858e+01   4.406686e+00
  -7.478985e+01  -5.980916e+01
   1.232919e+02  -6.294021e+01
   2.697834e+02   2.081031e+01
   2.362858e+02   1.771911e+02
  -8.416057e+00   2.660028e+02
  -1.977041e+02   2.383072e+02
  -2.639068e+02   7.961432e+01
  -1.307453e+02  -5.516784e+01
   2.246575e+01  -7.390466e+01
   9.514351e+01  -1.462759e+01
  -8.377757e+01   4.645887e+01
  -1.837819e+02  -1.550979e+01
  -1.997415e+02  -1.595447e+02
  -1.996626e+01  -1.941766e+02
   9.337276e+01  -8.881033e+01
   1.211586e+02   3.007734e+01
   3.755268e+01   1.968202e+01
  -6.233768e+01   8.443524e+00
  -3.798656e+01  -1.041550e+02
   6.451884e+01  -9.143982e+01
   1.808368e+02  -7.515218e+00
   1.620054e+02   1.507351e+02
  -1.274670e+01   1.761809e+02
  -1.404236e+02   1.380558e+02
  -1.697597e+02   2.391642e+00
  -5.237063e+01  -8.964984e+01
   6.279021e+01  -5.192976e+01
   9.625550e+01  -1.886393e+01
  -1.870346e+01   5.588444e+01
  -2.713886e+01  -1.673598e+01
  -6.206869e+00  -2.170495e+01
   8.993726e+01   1.470838e+01
   8.843171e+01   1.340253e+02
  -6.648736e+00   1.692958e+02
  -1.298564e+02   1.412041e+02
  -1.623285e+02   4.028147e+01
  -1.669315e+02  -1.955556e+02
  -2.642479e+01  -2.288840e+02
   1.315725e+02  -8.307617e+01
   9.193535e+01  -2.076372e+00
   8.492846e+01   2.095075e+01
   4.292798e+01   9.986447e+00
  -5.948931e-01  -2.581078e+01
   8.113514e+01  -2.578459e+01
   5.158766e+01   7.166579e+01
  -7.217482e+01   9.923623e+01
  -1.382850e+02   3.397816e+01
  -1.006905e+02  -4.439850e+01
   5.563784e+01  -1.124482e+02
   1.332145e+02  -5.388080e+01
   2.181681e+02   9.729683e+01
   5.240044e+01   2.013239e+02
  -1.289861e+02   2.234128e+02
  -2.296970e+02   4.131420e+01
  -2.214241e+02  -1.245696e+02
  -6.757133e+01  -1.778167e+02
   6.879159e+01  -1.090204e+02
   8.697413e+01  -5.105577e+01
   5.106764e+01  -6.130761e+01
   4.296744e+01  -1.014233e+02
   8.632566e+01  -1.163751e+02
   1.541115e+02   2.869112e+01
   1.185567e+02   1.340982e+02
   2.357545e+01   2.134070e+02
  -8.399855e+01   1.362738e+02
  -1.618242e+02  -2.796212e+01
  -1.053689e+02  -1.357352e+02
  -1.103916e+00  -1.394752e+02
   8.039071e+01  -3.256777e+01
   5.054539e+01  -1.400191e+00
  -2.403485e+01   2.432591e+01
  -1.304552e-01   2.613987e+00
   5.140129e+01   2.416931e+01
   1.241657e+02   1.264409e+01
   5.823277e+01   5.695796e+01
  -4.423911e+01  -1.243623e+01
  -1.654426e+02  -3.663734e+01
  -1.471958e+02  -6.955587e+01
   1.197371e+01  -1.055522e+02
   1.644231e+02  -8.657678e+01
   1.562374e+02  -1.243472e+00
   7.281534e+01   8.111685e+01
  -4.152389e+01   2.845134e+01
  -4.755662e+01  -1.580539e+01
  -1.093348e+01  -9.095406e+01
   6.054666e+01   1.467304e+01
   8.013229e+01   1.154071e+01
   4.687868e+01   3.354239e+01
   3.344209e+01   5.002706e+01
   9.286338e+01  -4.523843e+01
   6.603390e+01   1.320669e+01
   1.579301e+01   8.943718e+01
  -2.583676e+01   9.719935e+01
  -1.652696e+02   1.202549e+02
  -1.714484e+02   3.864165e+01
  -1.144136e+02  -7.925135e+01
   5.588613e+00  -9.777755e+01
   4.222021e+01  -6.547997e+01
   4.961132e+01   8.698777e+00
  -5.895996e+01   1.154746e+01
  -1.106716e+02  -7.343328e+01
  -4.360766e+01  -1.009968e+02
   8.860113e+01  -9.278493e+01
   1.806324e+02  -3.765760e+00
   1.159653e+02   4.642745e+01
   1.076444e+01   9.688456e+01
  -7.900080e+01   9.308833e+01
  -7.248044e+01   1.047632e+01
   5.239820e+01  -2.136565e+01
   1.053448e+02   5.885329e+01
   1.589650e+01   1.101135e+02
  -5.616710e+01   1.363363e+02
  -1.849283e+02   6.602292e+01
  -1.339240e+02  -9.295368e+01
   7.405968e+01  -1.953455e+02
   8.702583e+01  -1.261276e+02
   1.116895e+02   4.706404e+01
   2.060462e+01   8.067252e+01
  -3.998167e+01   7.881153e+01
  -5.573488e+01   2.449057e+01
  -6.558862e+01  -3.910360e+01
   4.171893e+00  -2.228868e+01
  -7.379645e+00  -1.782649e+01
  -1.666444e+01  -5.740128e+01
  -2.390528e+01  -1.074854e+02
  -3.860230e+01  -9.726529e+01
   6.388871e+01  -3.054759e+01
   1.159350e+02   2.186983e+01
   1.166200e+02   1.740629e+01
  -1.189914e+01   3.576476e+01
  -1.164030e+02   1.061367e+01
  -1.191241e+02  -1.171766e+00
   9.983355e+00  -7.256329e+01
   5.113923e+01  -3.413291e+01
   2.511335e+01  -1.853180e+01
   2.694708e+00   6.722233e+01
  -1.437858e+01  -1.005554e+01
   5.613219e+01  -4.884856e+01
   9.441260e+01   2.019635e+01
   6.975811e+01   4.882350e+01
  -1.033638e+02   1.066295e+02
  -1.709854e+02   5.054131e+01
  -1.617338e+02  -7.013704e+01
  -2.553954e+01  -1.375046e+02
   6.526165e+01  -1.672008e+02
   1.337293e+02  -6.830006e+01
   8.387374e+01   7.299944e+01
   4.111803e+01   2.995282e+01
  -4.779318e+01   2.654195e+01
  -4.086963e+01   2.450350e+01
   4.645425e+01   6.264303e+01
   2.724262e+01   1.105215e+02
  -4.275276e-01   6.897403e+01
  -7.380842e+01  -1.170858e+01
  -9.412622e+01  -1.018224e+02
  -6.681187e+00  -9.862408e+01
   9.625707e+01  -2.152879e+01
   7.595633e+01   8.920779e+01
   4.569478e+01   8.991471e+01
  -5.600702e+01   8.768914e+01
  -8.964311e+01  -1.969511e+00
  -6.280478e+01  -5.544111e+01
   4.947356e+01  -9.186515e+01
   4.122142e+01  -2.683124e+01
  -2.797283e+01  -4.480044e+01
  -6.827902e+01   3.625409e+01
   7.570655e+00  -5.944585e+01
   1.569897e+02  -4.797447e+01
   7.917060e+01  -6.962992e+01
   7.262470e+01   1.911091e+01
  -2.611622e+01   8.312657e+01
  -4.940052e+01   8.737876e+01
  -7.751382e+01  -2.331081e+01
  -1.971324e+01  -7.328246e+01
   2.224496e+00  -3.513115e+01
   6.016886e+01   8.240793e+00
   5.890145e+01   7.377931e+01
   3.255118e+01   7.452405e+01
  -5.251710e+01  -4.423022e+01
  -3.508836e+01  -3.112226e+01
  -7.942391e+00  -1.703987e+01
  -2.613214e+01  -1.531852e+01
  -3.134773e-01   4.362880e+01
   3.065327e+01  -4.269812e+01
  -1.514530e+01  -4.041223e+01
   1.895708e+01  -1.921709e+01
   4.509021e+01   1.724085e+01
   1.026280e+01   9.312104e+01
  -5.528901e+01   1.095830e+01
  -6.395923e+01  -3.921157e+01
  -2.654537e+01  -7.514596e+01
   3.728652e+01  -6.365960e+00
   5.882632e+01   2.599855e+01
   5.368602e+01   3.846912e+01
  -3.695397e+01   5.220309e+01
  -4.138956e+01   4.217319e+01
  -5.444231e+01   7.807239e+00
   2.899729e+01   1.689759e+01
   4.552698e+01   7.064292e+00
   5.203639e+00   4.334583e+01
  -7.491786e+01   3.102037e+01
