
 $NMID
 id='ANONYMOUS ', fmtdat='(2E16.6)'
 volume=1.0
 tramp=1.0
 $END
  -2.871108e+03  -6.001637e+02
  -1.203568e+03  -2.160123e+03
   9.438033e+02  -1.763026e+03
   1.481275e+03  -3.368016e+02
   6.955391e+02   5.300351e+02
  -4.932573e+02   2.798876e+02
  -6.107082e+02  -3.608818e+02
   1.387073e+02  -7.578317e+02
   7.126142e+02  -4.514473e+02
   6.343039e+02   2.278352e+02
   1.701844e+02   6.701540e+02
  -2.227890e+02   6.576589e+02
  -4.830485e+02   3.796650e+01
  -2.288832e+02  -5.477971e+02
   2.053124e+02  -5.145714e+02
   3.746522e+02   5.167733e+01
   1.676899e+02   5.107972e+02
  -3.114290e+02   4.712651e+02
  -4.317920e+02  -5.864688e+01
  -2.599118e+02  -2.512490e+02
   4.871956e+01  -3.208181e+02
   2.176267e+02  -1.740179e+02
   8.931156e+01   2.322388e+01
  -5.188337e+01   6.167841e+01
  -2.769450e+02  -1.307393e+02
  -8.778075e+01  -3.271420e+02
   3.975196e+02  -2.543767e+02
   5.577107e+02   1.070656e+02
   2.730525e+02   3.129481e+02
  -2.706501e+02   3.163790e+02
  -5.510809e+02  -6.306403e+00
  -1.733301e+02  -3.621954e+02
   2.042690e+02  -3.328162e+02
   4.568647e+02  -2.018943e+02
   2.391838e+02   1.783765e+02
   2.174279e+01   3.685897e+02
  -2.147040e+02   1.529021e+02
  -1.183996e+02  -1.846807e+02
   1.513823e+02  -3.154288e+02
   3.706302e+02   4.132034e+01
   1.476680e+02   4.970171e+02
  -2.498261e+02   5.342335e+02
  -5.067556e+02   1.967105e+01
  -1.560135e+02  -4.719293e+02
   2.616230e+02  -2.095802e+02
   2.382410e+02   2.062029e+02
  -1.113637e+02   4.169861e+02
  -3.712689e+02   3.880693e+01
  -3.574089e+02  -2.920839e+02
  -7.665607e+01  -4.082434e+02
   3.212644e+02  -2.157946e+02
   4.273857e+02   5.292505e+01
   2.228946e+02   2.860845e+02
  -1.458279e+02   2.613255e+02
  -3.846557e+02   1.591537e+01
  -1.593702e+02  -1.950668e+02
   1.272482e+02  -5.708544e+01
   9.837837e+01   1.107835e+02
  -9.678788e+01   1.083788e+02
  -2.202933e+02  -1.009824e+02
  -7.415594e+01  -1.977366e+02
   1.831055e+02  -1.790279e+02
   2.310810e+02  -1.560899e+01
   1.007082e+02   3.033784e+01
  -4.597013e+01   1.376684e+02
  -1.753412e+02   2.198143e+02
  -1.999037e+02   1.318316e+02
  -2.258165e+02  -1.279258e+02
  -4.282187e+01  -3.029920e+02
   7.883818e+01  -2.872190e+02
   1.062537e+02  -1.233617e+02
   2.871898e+01   3.811255e+01
  -7.050573e+00  -8.826707e+01
   1.078208e+02  -7.501443e+01
   1.764220e+02   4.280522e+01
   1.066523e+02   1.558776e+02
  -5.149085e+01   2.172171e+02
  -1.681884e+02  -2.785548e+00
  -1.494576e+02  -1.509539e+02
   3.458351e+01  -2.103369e+02
   2.262300e+02  -6.009268e+01
   2.259273e+02   1.621300e+02
   1.145671e+02   2.204236e+02
  -1.097737e+02   1.973825e+02
  -1.729821e+02   1.036474e+02
  -1.203473e+02  -1.738897e+01
  -8.529532e+01   2.535033e+01
  -1.704213e+02   2.086966e+01
  -3.117042e+02  -1.370556e+02
  -1.476252e+02  -2.389318e+02
   2.954855e+01  -2.761053e+02
   2.916782e+02  -2.292486e+02
   3.244926e+02  -1.535395e+02
   2.334773e+02   9.833997e+01
   5.892062e+00   2.050833e+02
  -9.400796e+01   2.022240e+02
  -6.051209e+01   7.773178e+00
   1.047168e+02  -6.671539e+01
   1.395329e+02   3.935798e+01
   1.708425e+01   1.502228e+02
  -1.090730e+02   7.711828e+01
  -1.330978e+02  -4.630423e+01
   1.491457e+01  -1.171357e+02
   1.520229e+02   1.013186e+01
   6.766076e+01   1.571216e+02
  -4.722840e+01   2.142371e+02
  -1.758203e+02   1.006064e+02
  -2.077068e+02  -3.447267e+01
  -1.827279e+02  -1.462455e+02
  -9.124468e+01  -1.752269e+02
   1.310993e+02  -9.107818e+01
   1.423583e+02  -1.209989e+00
   4.188826e+01   6.166097e+01
  -2.984444e+01  -1.969055e+01
  -2.532284e+01  -1.195437e+02
   9.304434e+01  -6.395640e+00
   1.204209e+02   2.187862e+01
   1.858010e+01   4.875720e+01
  -2.982629e+01  -2.529495e+01
  -1.181989e+01  -1.988171e+01
   6.736695e+01  -2.883868e+01
   1.787092e+02   4.891756e+01
   1.178433e+02   8.277410e+01
   1.727091e+00   1.610975e+02
  -9.757160e+01   1.341756e+02
  -2.200034e+02   4.838016e+01
  -1.006342e+02  -2.977101e+01
  -1.030529e+01  -6.766569e+01
   4.229138e+01  -2.660598e+01
  -5.225329e+01   3.542866e+01
  -1.616190e+02   1.481464e+01
  -7.458754e+01  -8.086952e+01
  -4.034020e+01  -1.014830e+02
   3.816054e+01  -5.912402e+01
   7.969735e+01  -5.004476e+01
   2.425844e+01  -5.845617e+00
   3.829391e+01   2.724601e+01
  -2.288094e+01  -3.260951e+01
   3.174946e+01  -2.926400e+01
   1.106489e+02   3.698173e+01
   1.159806e+02   9.917550e+01
   4.972701e+00   1.630578e+02
  -7.463554e+01   1.045624e+02
  -1.592769e+02   1.834345e+01
  -4.891885e+01  -7.863779e+01
   8.095716e+01  -7.364942e+01
   4.426263e+01  -5.154793e-01
  -2.294782e+01   7.131293e+00
   8.228574e+00   5.016556e+01
  -2.153043e+01   8.010818e+00
   8.090132e+01   4.881058e+01
   5.037269e+01   6.159582e+01
  -1.851961e-01   9.014172e+01
  -8.140405e+01   9.362584e+01
  -1.654462e+02   1.594944e+01
  -1.285072e+02  -6.597481e+01
   2.577156e+01  -2.032792e+02
   9.493488e+01  -1.069025e+02
   7.004017e+01  -5.782082e+00
   3.889360e+00   1.983364e+01
   1.422462e+01   3.042408e+01
  -3.297498e+01  -6.061814e+01
   6.628799e+01  -1.828439e+01
   6.564131e+01   3.826788e+01
  -5.140206e+01   3.875518e+01
  -7.212347e+01   1.961174e+01
  -5.935990e+01  -3.282019e+01
   2.082088e+01  -1.198968e+02
   1.017549e+02  -8.054351e+01
   1.312824e+02   1.093123e+02
   3.990353e+01   1.046811e+02
  -1.168355e+02   1.709581e+02
  -2.053275e+02   1.048005e+02
  -2.073604e+02  -7.833666e+01
  -3.404793e+01  -1.632579e+02
   3.173875e+00  -6.242697e+01
   8.786903e+01  -4.298090e+01
   5.183564e+01  -6.452416e+01
   8.778723e+01  -8.862802e+01
   9.105197e+01  -6.167572e+01
   9.076678e+01   2.474379e+00
   9.515824e+01   1.521732e+02
  -4.673300e+00   1.163129e+02
  -4.350263e+01   4.955271e+01
  -1.179392e+02  -3.322809e+01
  -6.000267e+01  -8.201737e+01
   1.813653e+01  -1.240881e+02
   3.790174e+01  -5.863889e+01
   5.948923e+01  -4.778006e+01
   3.189366e+01  -1.097367e+01
  -3.181083e+01   4.241795e+01
   1.087735e+00   7.633663e+01
   8.460644e+01   1.769171e+01
   3.506900e+01   2.571763e+01
  -6.202162e+01   2.462705e+01
  -1.077319e+02   1.489951e+01
  -1.072528e+02  -3.590740e+01
  -7.076132e-02  -8.079488e+01
   7.616706e+01  -4.751801e+01
   8.116903e+01   1.471737e+01
   3.450056e+01   6.680357e+01
  -9.913559e+01   4.585662e+00
  -6.717000e+01  -2.424706e+01
  -2.676753e+01  -6.226805e+01
   5.892611e+01  -1.344151e+01
   2.200050e+01   3.162147e+00
   7.713426e+00   3.521530e+01
   7.016950e+01   5.638295e+01
   2.105278e+01  -7.236059e+00
   3.484819e+01   1.897280e+01
   4.298678e+01   8.209959e+01
  -5.336741e+01   9.653957e+01
  -1.145725e+02   1.046303e+02
  -6.891856e+01  -6.907328e+00
  -4.799189e+01  -6.157294e+01
   7.974638e+00  -9.107123e+01
   2.679383e+01  -4.141333e+01
   2.342598e+01   4.965795e+01
  -3.966375e+01   2.087600e+01
  -7.239410e+01  -6.190453e+01
  -5.335659e+01  -7.536600e+01
   6.986467e+01  -2.922332e+01
   1.101891e+02  -3.434160e+01
   1.115895e+02   4.210455e+01
   1.507523e+01   7.478359e+01
  -4.428012e+01   2.201380e+01
  -6.167066e+01   4.963913e+00
   4.816511e+01  -2.373617e+01
   7.678060e+01   2.736803e+01
  -2.943536e+01   8.819178e+01
  -8.814013e+01   8.277822e+01
  -1.442321e+02   4.228105e+01
  -5.270682e+01  -8.582916e+01
  -9.533376e+00  -7.998702e+01
   4.656290e+01  -8.895189e+01
   9.165619e+01  -9.782485e+00
   4.376938e+01   5.306987e+01
  -5.146022e+00   1.180547e+02
  -2.311917e+01  -8.153735e+00
  -3.909105e+01  -5.723790e+01
  -5.527323e+00   7.746819e+00
  -2.545605e-01  -3.398055e+00
   1.358302e+01  -1.892318e+01
  -2.291996e+01  -4.795268e+01
  -7.638883e+01  -7.569464e+01
   4.905193e+01  -9.931670e+00
   1.134892e+02   5.025173e+01
   7.352558e+01   8.538625e+01
   2.637344e+01   3.169737e+00
  -6.034952e+01  -3.692580e+01
  -3.276000e+01  -1.053166e+01
   1.372297e+01  -1.790914e+01
   2.547121e+01  -3.905573e+01
   1.485214e+00  -3.312754e+01
  -3.436438e+01  -3.255707e+01
   6.016415e+00  -8.177783e+00
   2.860241e+01   3.623195e+01
   6.078872e+01   2.406730e+00
  -1.279879e+01   4.585610e+01
  -9.417009e+01   5.193003e+01
  -1.577232e+02   4.202590e+01
  -1.209099e+02  -1.067981e+02
   1.904848e+01  -1.222611e+02
   3.915728e+01  -8.934348e+01
   8.788071e+01  -1.161464e+01
   9.104319e+01   2.049371e+01
   8.225809e+00   2.934569e+01
  -2.179405e+01  -5.851683e-01
   3.981691e+00   4.046815e+01
  -3.169223e+01   3.391636e+01
  -4.066939e+01   5.641410e+01
  -5.516627e+01   5.552614e+01
  -5.785489e+01  -5.704473e+00
  -1.007783e+01  -5.672034e+01
   1.462235e+01  -4.104823e+01
   9.146157e+01  -1.936734e+01
   4.864099e+01   7.332168e+01
   2.500875e+01   9.738199e+01
  -1.351581e+01   1.872062e+01
  -6.191711e+01  -1.327684e+01
  -6.773141e+00  -3.214197e+01
   6.728153e+01  -4.388979e+01
   6.222503e+00  -2.278426e+01
  -1.092893e+01  -3.772391e+01
  -4.420761e+01   7.157629e+00
  -3.512318e+01  -3.441575e+01
   1.067635e+02  -5.228524e+01
   8.069631e+01  -2.364647e+01
   1.283439e+01   1.064734e+00
  -1.098534e+01   5.247606e+01
  -4.275237e+01   5.985477e+01
  -2.152415e+01   1.800158e+01
  -1.055060e+00  -5.116139e+01
   1.315763e+01  -6.857878e+01
   2.621777e+01   2.056300e+01
   2.001790e+01   2.314141e+01
  -7.728052e+00   2.831851e+00
  -3.017299e+00  -3.787377e+01
  -5.959096e+01  -5.466848e+01
  -2.457349e+01  -5.828710e+01
   1.633323e+01   7.794497e+00
  -2.996156e+00  -1.186116e+01
  -1.663525e+00  -5.776422e+00
   3.584808e+01  -3.668953e+01
   8.075890e+01   3.044477e+01
  -3.571090e+00   2.271435e+01
  -2.882423e+01   3.393217e+01
  -1.084847e+02   6.810803e+01
  -1.631907e+01  -7.689022e+01
  -3.724082e+01  -9.616193e+01
   3.508122e+01   1.095803e+01
   5.652842e+01   6.019589e+01
   6.102605e+01   5.901748e+00
  -3.534476e+01   2.143501e+00
  -5.037476e+01   1.664313e+01
  -2.305624e+01   1.331872e+01
   7.988762e+00   1.550350e+01
   1.858587e+01  -1.571070e+01
  -2.657658e+01   2.276253e+01
  -7.416868e+01   8.238851e+00
