
 $NMID
 id='ANONYMOUS ', fmtdat='(2E16.6)'
 volume=1.0
 tramp=1.0
 $END
   4.359522e+03   2.033761e+02
   2.109787e+03   2.478505e+03
  -5.029229e+02   2.761572e+03
  -1.710653e+03   9.399575e+02
  -7.938346e+02  -1.876224e+02
   3.594151e+02  -3.062198e+02
   5.844125e+02   3.824763e+02
  -5.348679e+01   7.781558e+02
  -7.468717e+02   6.969453e+02
  -8.217404e+02  -9.898586e+01
  -4.071423e+02  -7.644763e+02
   1.799370e+02  -8.764582e+02
   5.484537e+02  -1.570006e+02
   2.808831e+02   5.984371e+02
  -2.007438e+02   6.311049e+02
  -5.572446e+02   4.024420e+01
  -3.553050e+02  -5.851277e+02
   1.812891e+02  -6.280678e+02
   5.873233e+02  -1.848224e+02
   4.475768e+02   3.344337e+02
   5.923782e+01   4.113049e+02
  -1.796364e+02   2.714103e+02
  -1.327177e+02   5.790286e+01
   1.531007e+02   4.453639e+01
   3.882025e+02   2.431373e+02
   1.265703e+02   4.810965e+02
  -5.570958e+02   2.886305e+02
  -7.801533e+02  -2.096320e+02
  -3.220864e+02  -5.147589e+02
   4.313870e+02  -3.390575e+02
   6.420748e+02   5.584705e+01
   2.664876e+02   4.585920e+02
  -2.601315e+02   5.072487e+02
  -5.650694e+02   1.651375e+02
  -3.995030e+02  -2.050465e+02
  -9.567574e+01  -4.367076e+02
   1.791582e+02  -2.906572e+02
   7.032584e+01   2.103395e+02
  -2.219606e+02   3.163928e+02
  -3.597653e+02  -1.443144e+02
  -1.097272e+02  -6.675507e+02
   3.577814e+02  -6.548512e+02
   4.790522e+02  -4.276154e+00
   1.510772e+02   4.956974e+02
  -2.427209e+02   2.724695e+02
  -2.900879e+02  -3.515645e+02
   1.658467e+02  -4.603877e+02
   5.774694e+02  -1.248049e+02
   5.651484e+02   4.865576e+02
   1.761652e+02   5.703587e+02
  -3.663339e+02   2.841284e+02
  -5.962613e+02  -1.088469e+02
  -3.765643e+02  -3.407598e+02
   1.231875e+02  -2.614638e+02
   3.948695e+02  -6.411110e+01
   2.340417e+02   9.943053e+01
  -9.344040e+01   4.967177e+01
  -9.510115e+01  -1.305672e+02
   1.505514e+02  -1.124365e+02
   2.805108e+02   8.233270e+01
   9.774727e+01   2.706199e+02
  -2.242855e+02   2.388395e+02
  -3.342649e+02   8.926465e+01
  -2.188842e+02  -1.030186e+02
   5.663026e+01  -2.831089e+02
   2.617564e+02  -3.725127e+02
   3.431827e+02  -1.992926e+02
   3.032742e+02   1.471380e+02
   2.791855e+01   4.662012e+02
  -9.794408e+01   3.365750e+02
  -9.668433e+01   1.754876e+02
  -1.717605e+01   7.276339e+01
  -9.773588e+01   8.765858e+01
  -2.520972e+02   1.004306e+02
  -2.655722e+02  -1.410190e+02
  -1.228678e+02  -2.898822e+02
   1.157771e+02  -2.169953e+02
   2.325079e+02  -2.879704e-02
   1.541078e+02   2.741667e+02
  -3.896489e+01   2.390802e+02
  -2.724310e+02   6.198302e+01
  -3.431401e+02  -1.872265e+02
  -1.608893e+02  -3.538931e+02
   1.811295e+01  -3.365151e+02
   1.952024e+02  -1.516785e+02
   1.892431e+02  -9.932927e+01
   1.636674e+02  -5.942455e+01
   2.872720e+02  -7.025890e+01
   4.323701e+02   1.166027e+02
   3.088580e+02   3.123894e+02
  -2.974812e+01   5.026836e+02
  -4.464059e+02   5.036290e+02
  -5.424082e+02   1.509077e+02
  -3.161717e+02  -1.000474e+02
  -3.580846e+01  -2.920871e+02
   1.010921e+02  -2.705999e+02
   6.439976e+01  -3.200826e+01
  -1.316891e+02   5.068488e+01
  -1.903978e+02  -1.320661e+01
  -2.093802e+00  -1.474197e+02
   9.843877e+01  -1.433967e+02
   1.196741e+02   7.628656e+01
  -1.982568e+01   1.422969e+02
  -2.194426e+02   2.807007e+01
  -1.178709e+02  -2.909201e+02
   2.607875e+01  -3.803683e+02
   2.061217e+02  -2.322902e+02
   3.288654e+02   8.990630e+01
   2.413248e+02   3.171471e+02
   1.147652e+02   2.811006e+02
  -1.645964e+02   1.016179e+02
  -2.085283e+02   4.155975e+01
  -3.806294e+01   1.139191e+00
   6.639940e+01   3.771228e+01
   6.228543e+01   1.131880e+02
  -1.084159e+02   9.246160e+01
  -1.534683e+02  -4.545016e+01
  -3.742556e+01  -1.127572e+02
   7.586239e+01   2.023186e+01
   5.552829e+01   3.707895e+01
  -1.646788e+02   5.610866e+01
  -2.984534e+02   1.260365e+01
  -2.619520e+02  -2.019706e+02
   9.140908e+00  -2.782659e+02
   1.898433e+02  -2.794309e+02
   2.880667e+02  -1.091656e+02
   1.499769e+02   4.893512e+01
  -6.187804e+01   9.650887e+01
  -7.657977e+01   2.891520e+01
   5.705401e+01  -1.265523e+02
   2.479990e+02  -3.220798e+01
   1.924993e+02   1.616277e+02
   9.807858e+01   1.822114e+02
  -1.009406e+02   1.382876e+02
  -1.733338e+02   6.756785e+00
  -6.002123e+01  -5.858341e+01
   5.172750e+01  -4.790064e+01
   1.945328e+01   1.226798e+02
  -8.352884e+01   1.311066e+02
  -2.217693e+02   2.505949e+01
  -1.571047e+02  -1.129867e+02
  -3.164681e+00  -2.103884e+02
   1.894229e+02  -1.504273e+02
   1.908253e+02   3.030267e+01
   8.103235e+01   1.152041e+02
  -3.587577e+01   1.004060e+02
  -5.268212e+01   4.033584e+01
   1.772349e+01  -1.260335e+01
   3.024949e+00  -3.170431e+01
  -2.121842e+01   1.396444e+01
  -9.416244e+01   3.597108e+01
  -1.225855e+02  -9.650364e+01
  -5.534074e+01  -1.834216e+02
   1.382017e+02  -1.904309e+02
   2.564292e+02   5.293316e+00
   2.146319e+02   1.928975e+02
   9.095603e+01   2.581733e+02
  -1.427051e+02   2.033812e+02
  -1.257299e+02   1.658512e+01
  -8.158792e+01  -4.030094e+01
  -6.158537e+01  -3.614835e+01
  -3.074973e+01  -1.561218e+01
  -9.480308e+01  -1.598997e+01
  -6.939725e+01  -7.733495e+01
   2.899019e+01  -8.344525e+01
   8.770354e+01  -4.679924e+01
   8.353677e+01   4.112000e+01
   1.762586e+01   1.105232e+02
  -1.633068e+02   1.223772e+02
  -2.357997e+02  -8.359799e+01
  -6.157995e+01  -2.488781e+02
   1.242942e+02  -2.466615e+02
   3.111757e+02  -6.519130e+01
   2.447755e+02   1.022044e+02
   9.942158e+01   1.633960e+02
  -2.773941e+01   1.084065e+02
  -1.065272e+02   9.103119e+01
  -6.607815e+01   5.278736e+01
  -4.557962e+01   1.041368e+02
  -8.879357e+01   7.624797e+01
  -1.148214e+02  -6.776889e+01
  -1.916528e+02  -1.587164e+02
  -6.065377e-01  -2.264933e+02
   1.149854e+02  -2.160345e+02
   1.665922e+02  -1.534243e+01
   1.440628e+02   8.560952e+01
   3.461504e+01   1.910792e+02
  -6.354994e+01   6.265970e+01
  -7.747100e+01  -2.569902e+01
  -2.350176e+01  -7.872046e+01
   2.545079e+01  -2.497480e+01
  -2.622533e+01  -1.913498e+01
  -8.717687e+01   1.511566e+01
  -3.912874e+01  -5.847109e+01
   8.688135e+01  -1.931510e+01
   1.854876e+02   2.221996e+01
   1.886451e+02   7.251779e+01
  -4.429959e+01   1.027032e+02
  -1.843967e+02   7.872735e+01
  -1.416006e+02  -7.344387e+00
  -3.887463e+01  -6.728793e+01
   5.230083e+01  -2.291837e+01
   1.259036e+02   2.961569e+01
   2.070778e+00   9.953661e+01
  -6.263565e+01   1.462346e+01
  -6.946536e+01  -1.002356e+01
  -4.781113e+01  -1.019646e+02
  -6.981264e+01  -2.039466e+01
  -9.512331e+01   2.728316e+01
  -9.313022e+01   2.604304e+01
  -7.656450e+00  -6.516476e+01
   1.208404e+01  -1.435717e+02
   1.607411e+02  -1.389721e+02
   1.745544e+02  -7.512193e+01
   1.759467e+02   1.454020e+02
  -8.109095e+00   1.554118e+02
  -8.612278e+01   9.700402e+01
  -6.705261e+01  -3.672324e+01
   9.825447e+01  -2.250520e+01
   1.565207e+02   9.401598e+01
   7.468491e+01   1.106762e+02
  -9.147411e+01   1.395575e+02
  -1.800957e+02   5.338399e+01
  -1.486857e+02  -6.629908e+01
   1.047863e+01  -8.289618e+01
   5.104477e+01  -8.061364e+01
   8.253904e+01  -9.215360e+00
  -5.166373e+01   6.670662e+01
  -9.140798e+01  -4.583655e+01
  -7.204255e+01  -9.485415e+01
   1.087185e+02  -1.665774e+02
   1.997485e+02  -9.350070e+01
   1.388137e+02   9.394836e+01
   4.865269e+01   1.906551e+02
  -9.864294e+01   1.790652e+02
  -1.109437e+02   1.255580e+01
  -7.895236e+01  -1.387475e+02
   3.149495e+01  -1.171801e+02
   7.861288e+01  -5.597665e+01
   8.376148e+01   6.068647e+01
   1.423517e+01   4.590215e+01
   7.958359e+00  -1.829463e+01
   7.325571e+01  -1.069045e+01
   5.911930e+01   1.024101e+02
   2.206640e+01   1.453416e+02
  -5.927625e+01   5.140978e+01
  -1.443423e+02  -3.128046e+01
  -1.539534e+02  -1.503586e+02
  -4.382295e+01  -8.186513e+01
   8.532247e+01  -5.212123e+01
   9.666476e+01  -1.918264e+01
   3.319233e+01   1.816358e+01
  -1.319540e+01   3.471199e+01
  -2.483593e+01  -1.282057e+01
   4.844640e+00  -5.647427e+00
  -4.272691e+01   1.241860e+01
  -5.108881e+01  -2.004453e+01
  -1.181350e+02   5.973432e+00
  -4.532749e+01  -7.937423e+01
   1.434795e+02  -1.193935e+02
   1.824886e+02  -5.158849e+01
   1.841686e+02   4.760024e+01
   4.517459e+01   1.893323e+02
  -9.589652e+01   2.143367e+02
  -9.287654e+01   3.418127e+01
  -1.120746e+02  -5.624524e+01
  -6.844726e+01  -4.490677e+01
   8.071496e+01  -1.125529e+01
  -4.879928e+01  -3.082502e+01
  -2.778583e+01  -9.737599e+01
  -4.205740e+01  -8.161324e+01
   1.385156e+01  -7.471327e+01
   3.036852e+01   1.054670e+01
   7.988915e+01   9.693719e+01
   6.111383e+01   1.171404e+02
  -1.617373e+02   1.166990e+01
  -1.238292e+02  -8.409561e+01
  -3.481551e+01  -1.336832e+02
   4.809192e+01  -9.026884e+01
   1.272941e+02   1.628106e+01
   3.858304e+01   7.839566e+01
  -4.328233e+01   3.204654e+01
  -5.275226e+01   4.095703e+01
  -8.941898e+00  -1.572186e+01
   8.045325e+01  -1.221381e+01
   2.180042e+01   1.079518e+01
  -8.053582e+01   7.852887e+01
  -1.112691e+02   8.193833e+01
  -6.615864e+01  -3.880068e+01
   7.233607e-01  -8.687045e+01
   6.928021e+01  -9.012685e+01
   7.619104e+00  -5.098881e+01
   3.032533e+01   5.601174e+01
   9.372303e+00   2.432288e+01
  -1.788739e+01   2.072608e+01
  -3.460566e+01  -7.174728e+01
  -8.054624e+00  -3.279844e+01
   6.414209e+01   1.698240e+01
   2.963128e+01   6.282885e+01
  -1.066595e+01   3.413206e+01
  -7.095211e+00  -5.221917e+01
  -2.852196e+01  -1.994054e+01
   3.778598e+01   7.636979e+01
   3.457779e+01   7.154724e+01
  -3.784320e+01  -7.686955e-01
  -3.346783e+01  -2.866836e+01
   3.575511e+01  -1.000324e+02
   9.353640e+01  -3.619276e+01
   7.784763e+01   3.012983e+01
   2.927311e+01   6.035214e+01
  -8.476536e+01   6.712565e+01
  -1.307908e+02   1.096252e+01
  -2.878637e+01  -5.662278e+01
   2.285422e+01  -6.916255e+01
   5.729454e+01  -8.732943e+00
   1.124293e+01   5.102104e+01
  -6.985805e+01   5.018510e+01
  -5.823038e+01  -2.664580e+01
   2.936727e+01  -2.572614e+01
   7.143059e+01  -4.022036e+01
