
 $NMID
 id='ANONYMOUS ', fmtdat='(2E16.6)'
 volume=1.0
 tramp=1.0
 $END
   3.353869e+03   5.445419e+02
   2.058821e+03   2.025489e+03
  -1.418123e+02   2.099827e+03
  -1.326024e+03   1.173580e+03
  -1.114287e+03   9.769813e+01
  -7.101104e+01  -2.907537e+02
   4.495007e+02   1.332895e+02
   2.580436e+00   6.516292e+02
  -4.785593e+02   6.514359e+02
  -6.521528e+02  -1.456009e+01
  -4.292342e+02  -5.883706e+02
   1.144224e+02  -6.191308e+02
   3.648004e+02  -1.721199e+02
   2.357482e+02   4.582533e+02
  -1.463232e+02   5.874086e+02
  -4.448468e+02   1.093247e+02
  -2.598731e+02  -5.122485e+02
   2.206421e+02  -6.379659e+02
   4.661729e+02  -1.825305e+02
   3.615217e+02   2.032115e+02
   9.712171e+01   3.663580e+02
  -9.317154e+01   2.492822e+02
  -7.764226e+01   3.676441e+01
   1.544048e+02   6.126445e+01
   3.414715e+02   2.587666e+02
  -2.340668e+01   3.445857e+02
  -4.702476e+02   1.483414e+02
  -6.459607e+02  -1.768020e+02
  -1.891297e+02  -4.084255e+02
   4.071796e+02  -2.348535e+02
   4.968726e+02   1.374539e+02
   2.414106e+02   3.884656e+02
  -2.700594e+02   3.523769e+02
  -4.418659e+02   1.188987e+02
  -3.484650e+02  -1.604836e+02
  -8.129279e+01  -3.170713e+02
  -1.841227e+01  -1.244672e+02
  -2.953316e+01   9.347162e+01
  -2.003158e+02   1.510791e+02
  -2.161634e+02  -1.551761e+02
   1.496804e+01  -5.570964e+02
   2.445478e+02  -5.200765e+02
   3.204717e+02  -3.920297e+01
   7.578581e+01   3.693387e+02
  -1.409865e+02   8.504428e+01
  -2.160688e+02  -2.546730e+02
   1.097560e+02  -4.417801e+02
   4.133214e+02  -5.090834e+01
   4.518939e+02   3.706337e+02
   1.814351e+02   5.357662e+02
  -3.058520e+02   2.956973e+02
  -5.321892e+02  -7.978713e+01
  -3.285535e+02  -2.145904e+02
   1.452196e+01  -2.028096e+02
   3.330437e+02  -1.137362e+02
   2.466032e+02   1.329195e+01
   4.201852e+01   1.395987e+01
  -2.829423e+01  -6.134404e+01
   8.043741e+01  -8.487088e+01
   2.202346e+02   5.892506e+01
   1.079133e+02   1.609427e+02
  -1.927446e+02   2.444876e+02
  -3.549776e+02   8.698595e+01
  -2.511126e+02  -1.192461e+02
  -3.508545e+01  -3.209525e+02
   3.084431e+02  -3.688762e+02
   2.991626e+02  -1.726659e+02
   2.357408e+02   2.115040e+02
   6.490551e+01   4.137879e+02
  -2.654578e+01   3.196836e+02
  -7.094828e+01   1.619857e+02
  -3.129081e+01   3.850650e+01
  -1.134081e+02   1.102932e+02
  -2.139577e+02  -8.369181e+00
  -2.233963e+02  -1.465262e+02
  -7.220836e+01  -2.629109e+02
   3.841105e+01  -1.858495e+02
   2.216776e+02   4.961287e+01
   1.046370e+02   1.969111e+02
  -5.701949e+01   2.773013e+02
  -2.539069e+02   6.252262e+01
  -3.195980e+02  -1.913164e+02
  -1.788975e+02  -3.263219e+02
   1.140434e+02  -2.419201e+02
   1.616691e+02  -1.128423e+02
   1.048384e+02  -4.585922e+01
   1.495622e+02  -6.024180e+01
   2.628248e+02   5.918117e+00
   3.889591e+02   1.220403e+02
   3.148438e+02   3.372845e+02
  -6.433317e+01   4.440437e+02
  -4.025855e+02   3.938095e+02
  -4.824538e+02   1.889381e+02
  -2.061156e+02  -9.469727e+01
  -1.261254e+01  -2.422890e+02
   1.001828e+02  -2.040603e+02
   2.348930e+01  -5.259923e+00
  -1.418568e+02   4.963054e+01
  -1.369855e+02  -4.296626e+01
  -1.214997e+01  -1.286187e+02
   1.187563e+02  -7.738623e+01
   1.094129e+02   1.003478e+02
  -1.066135e+01   1.421469e+02
  -1.792753e+02  -2.752427e+01
  -1.411218e+02  -2.407479e+02
   3.055895e+01  -3.231563e+02
   2.606255e+02  -1.972080e+02
   3.438480e+02   8.236458e+01
   2.918210e+02   2.884021e+02
   5.467823e+01   3.086197e+02
  -1.191423e+02   1.393704e+02
  -1.505738e+02  -5.097204e+01
  -6.056077e+01  -5.601404e+00
   7.778894e+01   6.911107e+01
   9.132822e-02   1.171519e+02
  -1.407950e+02   3.883302e+01
  -1.445930e+02  -2.897670e+01
  -5.450464e+01  -3.531115e+01
   5.913807e+01   1.209796e+01
   5.970970e+01   9.041187e+01
  -1.484200e+02   7.956006e+01
  -3.112771e+02  -1.957441e+01
  -2.791385e+02  -1.471209e+02
  -3.294425e+01  -2.431322e+02
   2.118840e+02  -2.621978e+02
   2.935425e+02  -1.010658e+02
   1.326398e+02   5.627592e+01
  -3.411782e+01   6.289411e+01
  -5.889369e+01   2.315491e+01
   4.395801e+01  -8.193621e+01
   1.976776e+02   2.747918e+01
   1.755562e+02   1.164674e+02
   1.380194e+02   1.875763e+02
  -1.254132e+02   1.212899e+02
  -1.628408e+02   1.520330e+01
  -5.469941e+01  -1.852385e+01
   6.483290e+01   3.067413e+01
   3.922098e+01   5.681184e+01
  -8.903043e+01   1.120478e+02
  -2.523034e+02   2.864492e+01
  -1.916707e+02  -1.168439e+02
  -1.780750e+01  -2.128491e+02
   1.651085e+02  -1.084198e+02
   1.694401e+02  -2.639837e+01
   5.379885e+01   5.962765e+01
  -9.669565e+01   9.024003e+01
  -8.897843e+01   2.005580e+01
   4.819879e+01  -2.673627e+01
   4.277842e+01   1.027186e+01
   2.023548e+01   3.756483e+01
  -8.876387e+01  -4.618199e+00
  -1.093625e+02  -8.979593e+01
  -3.548769e+00  -1.716141e+02
   1.224622e+02  -1.422346e+02
   2.347316e+02   2.969876e-01
   1.551428e+02   1.315622e+02
   4.893008e+01   1.800405e+02
  -6.229919e+01   1.470172e+02
  -1.169513e+02   6.875412e+01
  -3.312772e+01  -3.146470e+01
  -4.034289e+01  -1.236405e+01
  -8.806623e+01   2.566841e+01
  -6.224915e+01   8.520406e+00
  -3.551588e+01  -8.013621e+01
   6.007496e+01  -1.501697e+02
   1.282024e+02  -7.446935e+01
   1.081476e+02   3.414267e+01
  -8.744326e+00   1.392981e+02
  -2.012771e+02   1.066264e+02
  -2.136459e+02  -8.509078e+01
  -7.287171e+01  -2.578220e+02
   1.229962e+02  -2.060016e+02
   3.081610e+02  -1.303881e+02
   2.505916e+02   6.071352e+01
   9.939473e+01   1.445210e+02
  -5.587114e+01   1.332245e+02
  -5.788417e+01   3.378260e+01
  -5.555356e+01   7.278323e+01
  -1.091140e+01   9.835793e+01
  -1.024545e+02   6.969915e+01
  -1.540685e+02  -2.102396e+01
  -1.277632e+02  -1.467233e+02
  -5.275665e+01  -2.226805e+02
   1.106057e+02  -1.441329e+02
   1.874135e+02  -6.730119e-01
   9.015142e+01   1.375164e+02
   1.638282e+01   1.552129e+02
  -1.274140e+02   1.031473e+02
  -5.318130e+01  -4.306181e+01
   4.046268e+01  -8.601007e+01
   6.222046e+01  -1.802769e+01
  -1.026596e+01  -5.130696e+00
  -1.005826e+02  -6.732071e+01
  -5.600022e+01  -5.307647e+01
   6.260879e+01  -3.127857e+00
   1.960143e+02  -4.247131e+01
   1.379018e+02   6.656541e+01
  -5.168187e+00   1.271316e+02
  -1.676081e+02   4.528927e+01
  -1.767262e+02   3.110123e+01
  -3.619070e+01  -6.299746e+01
   9.382296e+01  -7.757532e+01
   1.098774e+02   2.835341e+01
   5.130260e+01   8.059645e+01
  -5.094726e+01   1.082107e+02
  -6.757447e+01  -4.796385e+01
  -7.129464e+01  -2.764314e+01
  -8.069086e+01  -3.565450e+01
  -3.455591e+01  -1.080900e+01
  -5.562182e+01   6.150220e+00
  -8.123599e+01  -5.808823e+01
   2.819611e+01  -1.337199e+02
   1.072762e+02  -1.170300e+02
   1.976799e+02  -4.918317e+00
   1.634602e+02   1.165313e+02
   1.890027e+01   8.649441e+01
  -7.122261e+01   6.959000e+01
  -8.198433e+01  -3.951121e+01
   6.049680e+01  -4.354180e+01
   1.262093e+02  -3.058048e+01
   6.864412e+01   1.076090e+02
  -7.990996e+01   7.335308e+01
  -1.812386e+02   7.989875e+01
  -1.788327e+02  -7.304434e+01
  -5.991716e+01  -7.247784e+01
   3.781895e+01  -5.713769e+01
   4.171491e+01   1.153088e+01
  -2.812604e+01   3.643959e+01
  -9.668229e+01   6.065047e+00
  -3.262614e+01  -1.278513e+02
   9.248662e+01  -1.439668e+02
   1.533530e+02  -1.121261e+02
   1.218569e+02   1.086530e+02
   1.496836e+00   2.052072e+02
  -7.768723e+01   1.406545e+02
  -1.215256e+02  -2.333618e+01
  -3.982741e+01  -1.595437e+02
   1.138560e+01  -1.109732e+02
   4.927999e+01   4.272067e+00
   5.888889e+01   2.076823e+01
   2.599315e+01   3.128529e+01
   8.059109e+00   1.855930e+00
   3.412916e+01  -9.097683e+00
   2.436170e+01   1.035353e+02
   3.205933e+01   1.130057e+02
   1.217761e+01   6.064279e+01
  -1.222284e+02  -7.034874e+01
  -1.146197e+02  -3.380658e+01
  -1.987486e+01  -2.207195e+01
   5.871461e+01  -4.030115e+01
   8.092469e+01   2.664839e+01
  -7.758253e+00   3.006634e+01
  -8.060592e+01  -1.639952e+01
  -2.065584e+01  -1.514487e+01
  -1.489239e+01   2.949695e+00
   5.173249e+00  -5.709859e+00
  -5.679481e+01  -7.245600e+00
  -8.235857e+01   1.642588e+01
  -1.080721e+01  -8.265210e+01
   9.899241e+01  -9.384743e+01
   2.193232e+02  -8.437403e+01
   1.468775e+02   5.352731e+01
   4.290182e+01   1.907721e+02
  -9.643061e+01   1.268070e+02
  -1.327479e+02   5.603992e+01
  -7.531820e+01  -3.491606e+01
   8.974120e+00  -1.714425e+01
   2.307869e+01  -1.341917e+01
   3.718264e+00   1.112326e+00
  -4.935233e+01  -7.892902e+01
  -2.612552e+01  -1.148456e+02
   2.189724e+01  -7.711614e+01
   5.297676e+01   1.037737e+01
   8.439533e+01   9.242268e+01
  -1.779420e+01   1.280817e+02
  -8.001192e+01   2.541829e+01
  -8.626831e+01  -1.274618e+02
  -4.959536e+01  -1.201393e+02
   5.363221e+01  -5.545729e+01
   1.082592e+02  -2.310163e+01
   7.123116e+01   6.909620e+01
  -5.122953e+01   6.850028e+01
  -2.421599e+01   1.962696e+01
   3.866811e+01   2.643182e+00
   6.826850e+01  -2.309628e+01
   1.921300e+01   2.312903e+01
  -1.025683e+02   4.321516e+01
  -1.502669e+02   1.015252e+02
  -2.795161e+01  -1.962373e+01
   2.798315e+01  -8.975067e+01
   3.083083e+01  -1.138483e+02
   6.087232e+01  -5.570123e+00
   2.594499e+01   3.750202e+01
  -3.523491e+01   3.240630e+01
  -1.726381e+01  -6.756769e+00
  -1.500495e+01  -4.532967e+01
  -3.431118e+00  -2.461963e+01
   6.385274e+01   2.505727e+01
   3.513318e+01   4.033853e+01
   1.164827e+01  -1.342420e+01
   1.182984e+01  -5.051845e+01
   3.168140e+00  -1.121622e+01
   1.363276e+01   2.868631e+01
   3.556290e+01   3.771394e+01
  -4.589747e+01   1.120353e+01
  -3.685024e+01  -5.199956e+01
  -1.784879e+01  -9.915739e+01
   5.617494e+01   6.216632e+00
   5.033659e+01   5.186309e+01
  -2.418634e-01   7.100411e+01
  -3.104101e+01   5.781032e+01
  -1.064108e+02  -1.662267e+01
  -6.380531e+01  -6.535534e+01
   8.625922e+01  -4.686254e+01
   2.662161e+01  -1.153467e+01
   4.403855e+01  -3.134644e+01
  -1.892284e+01  -1.961101e+01
  -6.045938e+01   4.142066e+00
   1.790504e+01  -6.646558e+01
   9.341298e+01  -2.252964e+01
