
 $NMID
 id='ANONYMOUS ', fmtdat='(2E16.6)'
 volume=1.0
 tramp=1.0
 $END
   1.461537e+03   5.445574e+02
   6.348945e+02   1.063117e+03
  -4.284107e+02   9.848513e+02
  -7.793317e+02   6.328657e+02
  -5.705701e+02  -4.185718e+01
   1.428801e+01  -1.594461e+02
   1.435285e+02   9.484465e+01
  -1.019010e+02   2.941932e+02
  -2.139664e+02   1.897191e+02
  -2.579519e+02  -2.282292e+01
  -6.062500e+01  -2.791706e+02
   9.361119e+01  -2.762858e+02
   1.223577e+02  -1.057123e+02
   1.045554e+02   2.005495e+02
  -6.687393e+01   2.545246e+02
  -1.318986e+02  -7.632645e+00
  -9.076845e+00  -2.306683e+02
   9.461900e+01  -2.329596e+02
   2.290256e+02  -7.309101e+01
   1.765212e+02   1.125790e+02
   7.225720e+01   1.859017e+02
  -2.660517e+01   1.619565e+02
  -2.666144e+01   9.772262e+01
   3.120837e+01   1.029357e+02
   8.177293e+01   1.812201e+02
  -5.984674e+01   1.303148e+02
  -2.342843e+02   2.047631e+01
  -3.764355e+02  -1.318023e+02
  -9.449160e+01  -1.725969e+02
   1.776245e+02  -5.449830e+01
   1.634684e+02   1.127944e+02
   7.348015e+01   1.930493e+02
  -1.319237e+02   1.931138e+02
  -1.735001e+02   3.197354e+01
  -1.604432e+02  -8.268453e+01
  -5.561909e+01  -2.044149e+02
  -6.957940e+00  -1.031150e+02
  -6.037340e+01   3.602258e+00
  -7.649670e+01   9.445761e+01
  -9.273010e+01  -6.218630e+01
   6.592592e+01  -2.791395e+02
   1.212396e+02  -1.763462e+02
   1.725443e+02   2.618336e+01
  -2.384212e+00   1.695456e+02
  -9.836977e+01   6.787421e+01
  -5.570071e+01  -1.520491e+02
   1.051273e+02  -1.694675e+02
   2.242293e+02   4.257125e+01
   1.483496e+02   2.802547e+02
   2.644373e+01   2.521251e+02
  -1.877209e+02   8.587595e+01
  -2.579943e+02  -9.484510e+01
  -1.324039e+02  -1.395946e+02
   4.069204e+01  -8.660295e+01
   1.786600e+02   1.672076e+01
   1.567086e+02   6.420737e+01
   2.388311e+01   2.876091e+01
  -5.094787e+01  -6.768252e+01
   2.440249e+01   6.416136e+00
   7.186055e+01   9.066153e+01
   4.811498e+01   1.381937e+02
  -1.380674e+02   1.387427e+02
  -1.652600e+02   8.826896e+00
  -1.313553e+02  -6.444000e+01
   1.797134e+01  -7.958611e+01
   1.738306e+02  -1.484662e+02
   1.905003e+02  -8.678527e+01
   1.039878e+02   6.243897e+01
   9.012143e+00   2.124710e+02
   1.595855e+01   1.869484e+02
  -4.063689e+01   1.540809e+02
  -4.350771e+01   4.136301e+01
  -6.373636e+01   2.427323e+01
  -8.092023e+01  -3.963147e+01
  -1.124580e+02  -1.052246e+02
  -2.354900e+00  -1.185852e+02
   4.593314e+01  -9.283684e+01
   4.011007e+01   1.671593e+01
   3.600110e+01   1.112532e+02
  -8.571932e+01   8.900573e+01
  -1.089125e+02  -4.991679e+00
  -1.479829e+02  -9.706402e+01
  -7.431046e+01  -1.099256e+02
   5.450239e+01  -1.249685e+02
   7.520741e+01  -6.587916e+01
   7.921777e+01  -5.273066e+01
   7.121249e+01  -4.590275e+01
   1.563352e+02   2.890581e+01
   1.856197e+02   1.059788e+02
   1.043377e+02   1.564538e+02
  -5.374000e+01   1.871134e+02
  -2.235003e+02   1.397269e+02
  -2.520566e+02   9.720979e+01
  -1.543977e+02  -6.507219e+01
   2.413313e+01  -1.451008e+02
   9.940558e+01  -1.265084e+02
  -8.791853e+00  -1.015665e+02
  -9.279083e+01   1.997121e+01
  -3.739836e+01  -4.615858e+01
   3.890767e+01  -6.329464e+01
   9.808631e+01   2.539077e+01
   1.201287e+01   3.685647e+01
  -3.765286e+00   6.131028e+01
  -8.350447e+01  -2.462744e+01
  -2.334810e-01  -1.268836e+02
   3.624208e+01  -1.945281e+02
   1.292096e+02  -8.677704e+01
   1.192895e+02   9.392014e+01
   9.848731e+01   1.399379e+02
   4.081946e+01   1.275795e+02
  -2.833603e+01   6.668805e+01
  -4.479057e+01  -2.557262e+01
  -2.221373e+01   3.404775e+01
  -1.017013e+01   8.544405e+01
  -9.091007e+00   4.733101e+01
  -1.102738e+02  -3.606596e+01
  -5.608308e+01  -1.919594e+01
  -1.562166e+01  -1.122983e+00
   1.378908e+00   1.863715e+01
   2.710814e+01   3.732990e+01
  -1.031692e+02  -2.692158e+00
  -1.598860e+02  -8.939511e+01
  -9.072335e+01  -1.132515e+02
  -9.813188e+00  -9.437587e+01
   7.799938e+01  -1.025855e+02
   1.182090e+02  -4.460623e+01
   7.704166e+01   1.334488e+01
  -3.043528e+01   3.427626e+01
  -2.620366e+01  -8.053376e+00
   1.436355e+00   5.101724e+00
   1.106027e+02   1.089929e+00
   1.033242e+02   1.071256e+02
   4.083347e+01   9.094081e+01
  -5.074267e+01   4.692070e+01
   9.413146e+00   1.428632e+00
  -2.383604e+01   7.266789e+00
   3.082214e+01   3.093858e+01
   1.313056e+00   5.567053e+01
  -5.038529e+01   4.956564e+01
  -6.114876e+01  -1.885639e+01
  -9.124439e+01  -6.427637e+01
   4.439027e+01  -1.031252e+02
   6.852993e+01  -3.073943e+01
   1.093065e+02   2.014194e+01
   6.883711e+01   2.332007e+01
  -6.237021e+01   6.604086e+01
  -3.787159e+01   4.468436e+01
   1.639109e+01  -6.134450e+00
   1.314128e+01  -1.181094e+00
   8.735448e+00  -5.615923e+00
  -5.465257e+01  -5.468734e+01
  -4.845373e+01  -7.292982e+01
   2.695790e+01  -9.673188e+01
   1.029446e+02  -5.147624e+01
   1.109577e+02   1.540824e+01
   4.378652e+01   6.190947e+01
  -3.410580e+01   1.053942e+02
  -3.040819e+01   6.270453e+01
  -6.588618e+01   7.932264e+00
  -4.388469e+01  -1.178466e+01
  -2.687975e+01   1.524803e+01
  -3.717719e+01  -2.163611e+01
  -4.065961e+01   1.699818e+01
  -5.316150e+01  -7.489294e+01
   4.390422e+01  -5.086153e+01
   1.098215e+02  -4.177672e+01
   4.880117e+01   3.823566e+01
  -1.660974e+01   7.636706e+01
  -1.088764e+02   3.784637e+01
  -6.001893e+01  -6.018422e+01
  -2.993026e+01  -1.511035e+02
   9.776627e+01  -9.512897e+01
   1.591452e+02   1.281381e+00
   1.602621e+02   7.608852e+01
   2.947848e+00   7.929694e+01
  -2.669442e+01   6.538389e+01
  -5.635444e+01   4.949290e+01
  -7.238887e+01   4.469801e+01
  -2.453670e+01   5.110368e+01
  -5.743235e+01   8.536373e+00
  -2.610808e+01  -2.680372e+01
  -4.836519e+01  -1.158494e+02
   1.904013e+00  -7.896923e+01
   5.056913e+01  -7.787740e+01
   2.663438e+01   6.129913e+00
   6.648945e+01   1.102679e+02
   3.924807e+01   8.961238e+01
  -7.492610e+01   7.863205e+01
  -2.942022e+01   1.732334e+01
   1.518359e+00  -1.819847e+01
  -1.900474e+01  -2.715724e+01
   1.961853e+01  -1.101848e+01
  -3.408367e+01   1.439764e+01
  -6.179719e+01  -2.703509e-01
   6.460532e+01  -2.108624e+01
   1.054809e+02  -2.320892e+01
   5.517692e+01   2.364891e+01
   1.682041e+01   1.674900e+01
  -1.725722e+01   1.916661e+01
  -8.206940e+01  -3.440471e+01
  -3.399975e+01  -3.579978e+01
   3.161714e+01  -3.801932e+00
   6.691748e+01   4.894924e+01
   3.752662e+01   1.331645e+01
  -1.530577e+01   5.973416e+01
  -6.621600e+01  -1.017883e+01
  -1.884393e+01  -2.635395e+01
  -3.707001e+01  -4.132689e+01
  -7.013017e+01  -1.283242e+01
  -4.731733e+01  -4.852404e+01
   6.308456e+00  -6.321855e+01
   2.272891e+01  -5.918353e+01
   5.116429e+01  -3.935363e+01
   9.064600e+01  -3.270643e+01
   5.304057e+01   6.570578e+01
   9.560672e+00   2.874600e+01
  -4.462359e+01   2.858369e+01
  -4.003552e+01   1.577216e+01
   6.404867e+01   7.400495e+00
   4.373932e+01   2.743899e+01
   5.061460e+01   6.820585e+01
  -2.669966e+01  -1.702936e+01
  -7.215690e+01  -1.040578e+01
  -1.095983e+02  -3.032482e+01
  -1.922545e+01  -1.091714e+01
   2.849448e+01  -1.771764e+01
  -5.445907e+01   2.097740e+01
   7.808790e+00  -2.360398e+01
  -5.813601e+01  -5.401931e+01
  -5.107488e+00  -8.568824e+01
   6.668763e+01  -5.532503e+01
   1.050842e+02  -1.980649e+01
   6.306297e+01   1.025418e+02
  -1.481923e+01   1.010796e+02
  -5.090352e+01   3.669380e+01
  -4.843560e+01   2.333748e+01
   9.086078e+00  -4.934787e+01
   2.666364e+01  -6.952328e+01
   4.135929e+01   3.848580e+00
  -9.048009e+00  -9.135769e+00
   5.573214e+00   2.805501e+01
   9.760935e+00  -6.657235e+00
  -9.927342e+00   3.197260e+01
   2.170066e+01   4.431844e+01
   2.479867e+01   1.137160e+02
   6.489872e+00  -2.765037e+01
  -6.310015e+01  -4.861934e+01
  -9.170282e+01  -5.589745e+01
   3.701080e+01  -6.612550e+00
   3.985124e+01  -4.739597e+01
   4.885401e+01  -2.338535e+01
   1.714541e+01   2.683195e+01
  -3.029179e+01   3.714325e+00
   1.397428e+01   2.422134e+01
  -1.099454e+01  -2.643642e+00
  -2.417607e+01  -8.689810e+00
  -1.697454e+01  -2.040387e+01
  -5.236678e+01   5.779100e+00
  -2.413422e+00  -7.335773e+00
   5.846602e+01  -7.202347e+01
   1.137742e+02  -1.138204e+01
   7.115506e+01   5.435774e+01
  -2.197159e+01   7.707036e+01
  -3.912835e+01   8.904855e+01
  -8.639995e+01  -2.366969e+01
  -5.731847e+01  -1.835294e+01
  -4.870858e+00  -6.574633e+01
  -2.039002e+00   2.679865e+01
   8.219157e+00  -2.224636e+01
   2.457712e+01  -2.354200e+01
   3.035415e+01  -4.116435e+01
   2.364393e+01   1.898242e+00
   5.464076e+01  -1.891650e+00
   3.632944e+01   5.575991e+01
   3.528432e+00   6.801841e+01
  -4.552593e+01   1.860846e+01
  -1.413941e+01  -7.743526e+01
   1.178891e+00  -8.748601e+01
   4.760248e+01  -2.395343e+01
   7.584742e+01   1.106279e+01
  -2.428234e+01   5.161485e+01
  -1.684575e+01   2.393677e+01
   2.048734e+01   2.984106e+01
   8.992361e+00  -3.190611e+01
   7.105708e+01   9.993210e+00
   5.033436e+01   1.735030e+01
  -9.506442e+01   1.960383e+01
  -3.284487e+01   4.188228e+01
  -6.258175e+01  -1.410182e+01
  -2.314462e+00  -9.089137e-01
   4.574028e+01  -1.277529e+01
   6.543709e+01  -1.281125e+01
   1.295717e+01   4.025131e+01
  -3.477389e+01   2.143537e+01
  -6.947304e+00  -1.584475e+01
  -2.001348e+01  -3.370916e+01
   3.876516e+00  -1.751828e+01
  -1.636681e+01   3.126370e+00
  -2.576298e+01   3.759654e+01
   2.556151e+01   1.235657e+01
   2.258965e+01  -2.997391e+01
  -3.563553e+01  -3.221728e+00
   2.043198e+01  -5.993176e+01
  -1.762737e+01   3.628725e+00
   9.503263e+00  -3.224267e+01
   3.141457e+01  -5.316802e+01
   6.188521e+00  -4.978193e+01
   1.187412e+01   2.403941e+01
   9.977162e+00   2.847575e+01
   1.153529e+01   5.662677e+01
  -3.080235e+01   1.171736e+01
  -9.494961e+01  -3.017950e+01
  -3.483379e+01  -1.957324e+01
   1.685355e+01  -1.461889e+01
   4.404301e+01  -1.713087e+01
   1.926141e+01  -2.848682e+01
  -1.592577e+01  -1.795328e+01
   1.871422e+01   1.384182e+01
  -1.080704e+01  -1.769016e+01
   4.631742e+01   4.978190e+00
