
 $NMID
 id='ANONYMOUS ', fmtdat='(2E16.6)'
 volume=1.0
 tramp=1.0
 $END
   3.952811e+03   1.757598e+02
   2.201553e+03   2.227571e+03
  -5.139088e+02   2.562109e+03
  -1.951516e+03   1.072693e+03
  -1.198933e+03  -4.904847e+02
   2.883121e+02  -4.068682e+02
   6.103618e+02   2.992196e+02
  -6.711194e+01   8.684366e+02
  -7.044294e+02   6.737673e+02
  -8.352645e+02  -7.020630e+01
  -4.513223e+02  -7.660219e+02
   1.681942e+02  -8.068308e+02
   5.438600e+02  -1.955520e+02
   3.869346e+02   6.021698e+02
  -2.151671e+02   7.051132e+02
  -5.263357e+02   6.492540e+01
  -2.730069e+02  -6.300424e+02
   2.833261e+02  -6.090370e+02
   5.488680e+02  -9.751681e+01
   4.931806e+02   3.233563e+02
   5.740344e+01   4.550916e+02
  -1.865579e+02   2.926977e+02
  -2.026690e+02   7.543668e+01
   4.985141e+01  -3.750076e+01
   3.197092e+02   1.629876e+02
   1.196661e+02   3.709396e+02
  -5.068583e+02   2.769362e+02
  -7.975820e+02  -1.674696e+02
  -3.851261e+02  -5.344745e+02
   3.508818e+02  -3.961284e+02
   6.762735e+02   3.477261e+01
   2.743804e+02   4.301258e+02
  -3.002762e+02   4.368869e+02
  -5.581626e+02   1.624990e+02
  -3.901753e+02  -2.503812e+02
  -1.062318e+02  -4.499578e+02
   1.119730e+02  -2.492156e+02
   9.305020e+01   1.595714e+02
  -1.089534e+02   3.141085e+02
  -3.603679e+02  -4.189882e+01
  -2.021111e+02  -5.791478e+02
   2.702642e+02  -6.688561e+02
   5.321026e+02  -2.174310e+01
   2.350486e+02   4.364828e+02
  -2.513796e+02   2.585728e+02
  -2.426888e+02  -2.578906e+02
   7.626737e+01  -4.641555e+02
   5.266362e+02  -1.196769e+02
   5.327019e+02   3.902965e+02
   1.463367e+02   5.691407e+02
  -3.555491e+02   2.891812e+02
  -6.088662e+02  -1.093582e+02
  -3.605174e+02  -3.774796e+02
   8.460824e+01  -3.415481e+02
   4.353858e+02  -6.458675e+01
   2.082044e+02   1.406893e+02
  -5.733278e+01   8.039644e+01
  -9.134633e+01  -8.062492e+01
   1.350510e+02  -1.525831e+02
   3.085702e+02   7.306320e+01
   1.494877e+02   2.866091e+02
  -2.219129e+02   2.387558e+02
  -3.755604e+02   9.799038e+01
  -2.260841e+02  -7.268050e+01
   2.184282e+01  -2.251125e+02
   2.898669e+02  -3.203869e+02
   3.636646e+02  -1.629719e+02
   2.255845e+02   1.631689e+02
   5.029084e+01   4.562956e+02
  -7.583056e+01   4.129155e+02
  -1.313432e+02   1.351835e+02
  -6.264682e+01   5.006202e+01
  -1.155775e+02   1.075675e+02
  -2.309954e+02   7.793682e+01
  -2.289408e+02  -6.714008e+01
  -1.379623e+02  -2.584419e+02
   1.114125e+02  -1.991837e+02
   1.885574e+02  -2.642476e+01
   1.734240e+02   2.446469e+02
  -2.003188e+01   2.570932e+02
  -2.513727e+02   9.193650e+01
  -3.127674e+02  -2.229012e+02
  -1.545125e+02  -2.984708e+02
   1.423238e+02  -3.099962e+02
   1.962357e+02  -1.306771e+02
   1.311751e+02   7.159595e+00
   1.251049e+02  -5.841231e+00
   2.563956e+02  -7.165393e+01
   3.756031e+02   1.021476e+02
   3.060388e+02   2.982421e+02
  -7.510165e+01   4.125886e+02
  -3.755732e+02   4.485068e+02
  -4.895617e+02   2.549015e+02
  -3.469598e+02  -1.239608e+02
  -5.372811e+01  -3.142689e+02
   1.369968e+02  -2.681424e+02
   6.846459e+01  -5.431575e+01
  -1.521019e+02   9.312154e+01
  -1.631316e+02  -4.395265e+01
  -1.176537e+01  -1.558012e+02
   1.373192e+02  -1.307842e+02
   1.681784e+02   4.670467e+01
  -8.723471e+01   1.441021e+02
  -1.540877e+02  -3.716771e+01
  -1.339975e+02  -2.297138e+02
   5.618969e+01  -3.617886e+02
   2.266623e+02  -1.559257e+02
   3.174484e+02   8.560555e+01
   3.286541e+02   2.501665e+02
   1.029460e+02   2.282565e+02
  -1.045519e+02   2.110822e+02
  -1.880752e+02   5.213788e+00
  -5.983833e+01  -2.338448e+01
   7.996526e+01   3.565857e+01
   2.608798e+01   1.118143e+02
  -1.114201e+02   8.739557e+01
  -1.669226e+02  -3.447550e+01
  -2.702827e+01  -8.310682e+01
   3.965190e+01   5.445200e+00
   3.154684e+01   8.767815e+01
  -1.366447e+02   9.924757e+01
  -2.360560e+02  -2.942667e+01
  -2.856164e+02  -1.795721e+02
  -6.326467e+01  -2.481191e+02
   1.846591e+02  -2.591562e+02
   2.336625e+02  -1.334889e+02
   1.534696e+02   6.760871e+01
  -9.872165e+00   1.094541e+02
  -4.121380e+01   1.262620e+01
   5.785470e+01  -6.601199e+01
   2.008446e+02  -6.793223e+01
   2.792928e+02   8.658446e+01
   9.266997e+01   2.045975e+02
  -1.202663e+02   1.753596e+02
  -1.268985e+02   1.034575e+01
  -7.167965e+01  -3.432038e+01
   5.289812e+01   3.552913e+01
   4.721964e+01   6.768940e+01
  -8.610742e+01   1.031412e+02
  -1.689483e+02   3.269791e+01
  -1.597322e+02  -1.739762e+02
  -4.797458e+01  -2.189543e+02
   1.589687e+02  -1.549807e+02
   2.280032e+02   6.946136e+00
   4.488188e+01   1.069162e+02
  -1.162343e+02   9.744878e+01
  -6.780680e+01   1.675317e+01
  -3.369467e+01   4.224510e+00
   2.510122e+01  -2.662270e+01
  -1.599610e+01   8.931754e-01
  -6.192881e+01  -2.930585e+01
  -7.087757e+01  -9.922218e+01
  -2.777651e+01  -1.521927e+02
   1.248984e+02  -1.819462e+02
   2.572234e+02   6.255971e+00
   2.021938e+02   1.778318e+02
   4.664994e+01   2.301079e+02
  -1.745219e+02   1.519843e+02
  -1.142832e+02   2.599181e+01
  -1.232778e+01  -4.893114e+01
   3.554754e+00  -4.570247e+00
  -6.032955e+01   2.671311e+01
  -7.962640e+01   1.435593e+01
  -6.966659e+01  -6.238860e+01
   6.119091e+01  -6.528996e+01
   1.034060e+02  -1.182230e+01
   9.168801e+01   1.625181e+01
   1.219570e+01   1.394704e+02
  -1.469350e+02   1.045835e+02
  -1.878617e+02  -4.639762e+01
  -1.186306e+02  -2.208578e+02
   7.982977e+01  -2.209782e+02
   2.839835e+02  -6.676681e+01
   2.818332e+02   1.227998e+02
   1.048491e+02   1.277725e+02
  -2.370611e+01   1.339542e+02
  -5.881856e+01   9.754827e+01
  -6.434995e+01   9.988288e+01
  -5.251480e+01   1.303216e+02
  -1.057149e+02   9.623807e+01
  -1.332118e+02  -2.161942e+01
  -8.205610e+01  -1.720837e+02
  -1.504584e+01  -2.250806e+02
   9.147395e+01  -1.617603e+02
   1.547276e+02  -2.369858e+01
   1.325204e+02   1.635512e+02
   1.781675e+01   1.301282e+02
  -6.504949e+01   1.073546e+02
  -7.844401e+01   3.946551e+01
  -8.283426e+00  -4.569074e+01
   1.590258e+01  -5.883385e+01
  -1.782055e+01  -1.933889e+00
  -9.127212e+01  -3.517336e+01
  -3.026506e+01  -4.149793e+01
   7.200302e+01  -8.637873e+01
   1.700640e+02   1.659712e+01
   1.415981e+02   9.072424e+01
  -1.497264e+00   7.551747e+01
  -1.350516e+02   9.493251e+01
  -1.662452e+02   7.440270e+00
  -4.512846e+01  -3.668955e+01
   4.170869e+01  -1.681755e+01
   9.387944e+01   2.932788e+01
  -1.350639e+01   7.116528e+01
  -9.464562e+01   5.238147e+01
  -1.322326e+02   4.350341e+01
  -5.539032e+01  -7.844849e+01
  -4.222642e+01  -1.772444e+01
  -5.140709e+01   3.250694e+01
  -6.720097e+01   3.665964e+01
  -4.959578e+01  -8.314043e+01
   3.900193e+01  -1.316365e+02
   1.369857e+02  -1.293008e+02
   1.249096e+02  -3.177928e+01
   7.730626e+01   9.819289e+01
  -2.553579e+01   1.203575e+02
  -9.929565e+01   8.674856e+01
  -3.058762e+01  -1.534765e+01
   7.967632e+01  -6.670248e+01
   1.405494e+02   3.427897e+01
   4.324101e+01   1.516451e+02
  -7.186907e+01   9.734210e+01
  -1.551323e+02   5.428822e+01
  -1.834997e+02  -3.124473e+01
  -3.498217e+01  -1.050615e+02
   8.505076e+01  -5.059909e+01
   3.427636e+01   4.672461e+00
  -1.947236e+01   2.926490e+01
  -1.231933e+02  -4.076300e+01
  -4.864092e+01  -1.596377e+02
   1.162435e+02  -1.916183e+02
   1.944608e+02  -6.979717e+01
   1.058987e+02   1.154248e+02
  -3.178753e+01   1.377915e+02
  -1.064568e+02   1.229404e+02
  -7.382169e+01  -1.552070e+00
  -2.203383e+01  -1.363383e+02
   3.792009e+01  -9.714801e+01
   6.169241e+01  -3.036769e+01
   6.543271e+01   1.485468e+01
   4.162288e+01  -1.669975e+01
   2.962154e+01  -2.732474e+01
   4.617663e+00   4.731678e+01
   8.535690e+01   8.725889e+01
  -3.479662e+00   1.472517e+02
  -6.195619e+01   5.865253e+01
  -9.651835e+01  -3.853803e+01
  -1.168331e+02  -9.898908e+01
  -4.808914e+01  -8.448974e+01
   7.905761e+01  -2.324448e+01
   1.032499e+02  -1.371171e+01
   2.906029e+00   3.334340e+01
  -4.571134e+01  -2.022444e+01
  -7.456816e+00   3.621037e+01
   6.851325e+01  -2.897644e+01
   3.270915e+00  -3.926563e+01
  -4.829650e+01   2.310053e+01
  -9.339948e+01  -2.373245e+01
  -3.576685e+01  -6.921809e+01
   1.391006e+02  -1.275652e+02
   2.361346e+02  -4.270771e+01
   1.417252e+02   7.890635e+01
   3.398170e+01   1.711627e+02
  -8.943390e+01   1.405133e+02
  -1.290456e+02   3.216262e+01
  -9.822105e+01  -1.593738e+00
  -3.539485e+01  -5.683738e+01
  -5.792204e+01  -2.732630e+00
   3.535629e-01   2.000937e+01
  -3.241269e+01  -4.175499e+01
  -3.308961e+01  -1.048817e+02
   2.390478e+01  -5.577878e+01
   9.940656e+01   1.551935e+01
   9.669479e+01   1.060632e+02
   1.428626e+01   8.947455e+01
  -2.490732e+01   2.551471e+01
  -9.206415e+01  -7.728712e+01
  -2.465075e+01  -8.914487e+01
   4.427579e+01  -7.614163e+01
   1.155984e+02   2.795262e+01
   2.530074e+01   5.060374e+01
  -4.042589e+01   2.354702e+01
  -4.292353e+01   2.949271e+01
   4.897836e+01   4.955282e+00
   9.015116e+01   4.007367e+01
   8.637606e+00   5.981280e+01
  -6.931443e+01   3.979643e+01
  -1.128996e+02   4.165393e+01
  -6.546918e+01   6.328675e+00
   1.488728e+01  -3.207193e+01
   1.588012e+00  -1.353755e+02
   2.938657e+01   1.608474e+01
   2.994864e+01   2.799277e+01
  -5.338494e+01   2.011877e+01
  -3.538460e+01  -1.882833e+01
  -5.819968e+01  -7.623625e+01
   4.288498e+01  -3.184879e+01
  -1.523380e+01  -1.152658e+01
   4.447024e+01  -8.163530e+00
   1.708902e+01  -1.275567e+01
  -4.568048e+01  -4.957175e+01
  -7.146286e+00  -2.042574e+01
   5.701354e+00   2.558485e+01
   9.755773e+00   4.141762e+01
  -5.230423e+00   6.215462e+00
  -4.934739e+01  -4.265684e+01
  -2.880498e+01  -2.727412e+01
   3.084936e+01  -2.500602e+01
   6.240247e+01   9.836328e+00
   4.395121e+01   9.171425e+01
  -6.137297e+01   7.424134e+01
  -1.149699e+02   1.555745e+00
  -2.629536e+01  -4.979037e+01
   3.580745e+01  -1.953657e+01
   5.101443e+01  -1.837659e+01
  -1.610138e+01   2.793722e+01
  -6.148289e+01   1.336677e+01
  -6.329032e+00  -2.157602e+01
   6.250084e+01  -1.297323e+01
   7.167916e+01   2.039857e+01
