
 $NMID
 id='ANONYMOUS ', fmtdat='(2E16.6)'
 volume=1.0
 tramp=1.0
 $END
  -4.688879e+03  -3.846998e+02
  -2.389548e+03  -3.041638e+03
   8.201945e+02  -2.940503e+03
   2.364658e+03  -1.079486e+03
   1.031393e+03   7.660063e+02
  -6.283864e+02   6.082712e+02
  -9.197716e+02  -3.372133e+02
   2.573229e+01  -1.192220e+03
   9.168156e+02  -8.366801e+02
   1.037962e+03   1.311288e+02
   5.059512e+02   1.004497e+03
  -2.762596e+02   9.904185e+02
  -7.271384e+02   1.615599e+02
  -4.396541e+02  -7.832340e+02
   3.027972e+02  -8.099877e+02
   6.342512e+02   9.573078e+00
   2.923331e+02   7.119613e+02
  -3.613809e+02   6.724101e+02
  -7.095294e+02   1.076629e+02
  -4.663330e+02  -4.370304e+02
   2.497512e+01  -4.656633e+02
   3.113590e+02  -2.780952e+02
   2.077799e+02  -1.049910e+01
  -6.459364e+01   8.637627e+01
  -4.106242e+02  -1.647192e+02
  -1.879531e+02  -4.033435e+02
   4.756965e+02  -3.746369e+02
   9.071867e+02   1.024897e+02
   4.727530e+02   6.034788e+02
  -3.730456e+02   5.434579e+02
  -7.436265e+02  -1.967340e+01
  -3.474434e+02  -5.261630e+02
   2.960150e+02  -5.740869e+02
   6.701859e+02  -2.163377e+02
   4.340972e+02   3.040257e+02
   1.150002e+02   4.848995e+02
  -1.857915e+02   3.037296e+02
  -2.003452e+02  -1.673078e+02
   1.357234e+02  -4.502756e+02
   4.526418e+02  -5.225691e+01
   2.395594e+02   6.695365e+02
  -3.908513e+02   7.374119e+02
  -6.796392e+02   6.332435e+01
  -3.537589e+02  -5.732380e+02
   2.794642e+02  -3.358822e+02
   3.551413e+02   2.835677e+02
  -7.866913e+01   5.001316e+02
  -5.882155e+02   1.263312e+02
  -5.760075e+02  -4.600050e+02
  -1.378296e+02  -6.214965e+02
   4.065465e+02  -3.551765e+02
   6.543893e+02   9.858936e+01
   4.059191e+02   4.529675e+02
  -1.379487e+02   4.118751e+02
  -4.508768e+02   8.500562e+01
  -3.097368e+02  -2.307160e+02
   1.129324e+02  -1.609876e+02
   1.725413e+02   1.614292e+02
  -1.533057e+02   1.550224e+02
  -3.713147e+02  -1.038638e+02
  -1.422578e+02  -2.849139e+02
   2.471900e+02  -2.544528e+02
   3.605390e+02  -5.273297e+01
   1.486926e+02   1.260264e+02
   1.165874e+00   2.116654e+02
  -2.424144e+02   3.028311e+02
  -4.096281e+02   1.924070e+02
  -3.178005e+02  -1.517177e+02
  -7.482565e+01  -4.800794e+02
   1.096971e+02  -4.394487e+02
   1.527708e+02  -1.491931e+02
   6.419293e+01   6.146786e+00
   1.021136e+02  -1.259079e+02
   1.518268e+02  -1.414677e+02
   2.381562e+02   8.107754e+01
   2.021634e+02   2.829159e+02
  -6.406306e+01   2.364166e+02
  -2.150093e+02  -9.461257e+00
  -1.794852e+02  -2.307847e+02
   2.416479e+00  -3.159368e+02
   2.858809e+02  -1.506647e+02
   3.627493e+02   1.603286e+02
   2.287351e+02   3.452796e+02
  -1.207688e+02   3.322144e+02
  -2.628489e+02   1.489934e+02
  -1.732969e+02   2.976731e+01
  -9.061373e+01   4.048226e+01
  -2.591799e+02   3.869881e+01
  -3.846007e+02  -1.240393e+02
  -3.757564e+02  -3.188302e+02
   5.328679e+01  -4.555951e+02
   4.217940e+02  -3.734903e+02
   6.159894e+02  -2.244146e+02
   3.817044e+02   1.381057e+02
   7.126776e+01   2.949156e+02
  -1.252116e+02   2.892281e+02
  -1.069739e+02   1.752087e+01
   1.501217e+02  -1.262430e+02
   2.088913e+02  -3.033129e+00
   4.621875e+01   2.275041e+02
  -1.713822e+02   1.627536e+02
  -1.430653e+02  -9.642860e+00
   3.010601e+01  -1.983554e+02
   1.887928e+02  -1.123203e+01
   1.663653e+02   2.177743e+02
  -2.646108e+01   3.543089e+02
  -2.457783e+02   2.194853e+02
  -3.649675e+02  -8.720979e+01
  -3.018404e+02  -2.984728e+02
  -1.115933e+02  -2.924708e+02
   1.243159e+02  -1.616056e+02
   1.815404e+02   1.516312e+00
   3.354363e+01   2.385102e+01
  -4.074141e+01  -4.807260e+01
  -3.212813e+01  -1.325034e+02
   1.437227e+02  -9.960037e+01
   1.819023e+02  -2.517042e+01
   7.474882e+01   6.674861e+01
  -4.920549e+01   6.154775e+01
  -1.492482e+00  -6.653455e+01
   1.336415e+02  -1.004049e+02
   2.301864e+02  -2.957276e+01
   2.718288e+02   1.376677e+02
   9.863572e+01   2.353274e+02
  -1.804489e+02   2.488517e+02
  -2.912440e+02   1.432280e+02
  -1.752186e+02  -2.608739e+01
   5.673400e-01  -7.245901e+01
   8.035300e+01   1.213799e+01
   3.282621e+01   1.042541e+02
  -1.996162e+02   8.245022e+01
  -2.457895e+02  -1.310648e+02
  -6.682745e+01  -2.287686e+02
   1.491827e+02  -1.778487e+02
   1.875179e+02  -3.294591e+01
   7.305457e+01   4.552568e+01
  -2.318461e+01  -3.067810e+01
  -2.393584e+01  -6.361526e+01
   1.114282e+02  -6.210526e+01
   1.983468e+02  -6.066427e+01
   2.127586e+02   1.460833e+02
   3.600741e+01   2.377755e+02
  -1.793631e+02   1.823727e+02
  -2.529023e+02   8.322905e+00
  -9.694356e+01  -1.442741e+02
   7.307591e+01  -1.361298e+02
   9.904089e+01  -2.853304e+01
  -2.824324e+01   2.974428e+01
  -2.751500e+01   4.274101e+01
   1.919113e+01  -4.877057e+00
   7.400132e+01  -1.257803e+01
   9.408193e+01   7.904528e+01
  -2.236064e+01   1.779485e+02
  -1.599083e+02   1.545415e+02
  -2.224239e+02   1.790001e+01
  -2.045151e+02  -1.171056e+02
  -8.953569e+00  -2.451939e+02
   9.676078e+01  -1.765358e+02
   1.319115e+02  -6.690778e+01
   6.011083e+01   7.717775e+01
   3.891549e+01   4.940748e+01
   8.187194e+01  -1.866392e+01
   6.626157e+01  -1.497494e+01
   4.917515e+01   5.347400e+01
  -4.431665e+01   9.289089e+01
  -1.300685e+02   2.696740e+01
  -1.244651e+02  -2.585744e+01
  -1.169699e+01  -1.344507e+02
   1.532053e+02  -4.622105e+01
   1.848599e+02   5.913171e+01
   7.649161e+01   2.578157e+02
  -9.770382e+01   2.548082e+02
  -3.123962e+02   8.118289e+01
  -2.548765e+02  -1.114766e+02
  -1.259324e+02  -1.624329e+02
   6.731348e+01  -1.457116e+02
   8.867923e+01  -1.176408e+02
   1.097865e+02  -8.659058e+01
   6.977900e+01  -1.104968e+02
   1.223677e+02  -5.056571e+01
   1.123346e+02   3.842280e+01
   9.473759e+01   1.887120e+02
  -1.401167e+01   2.038364e+02
  -7.694300e+01   1.688031e+02
  -2.135214e+02   3.865175e+01
  -1.687952e+02  -1.390926e+02
  -4.964159e+01  -1.505422e+02
   7.092090e+01  -9.320661e+01
   6.827561e+01   2.547706e+01
   3.307353e+01   5.937209e+01
   1.527086e+01   5.586856e+01
   4.485030e+01  -1.731582e+01
   8.749021e+01   1.619709e+01
   3.990229e+01   6.495418e+01
  -2.340060e+01   2.683220e+01
  -1.529951e+02  -3.267756e+01
  -1.522655e+02  -5.736464e+01
  -4.906475e+01  -4.922467e+01
   1.306703e+02  -1.052315e+02
   1.356219e+02   2.655453e+00
   4.630464e+01   4.402200e+01
  -4.052791e+01   6.431067e+00
  -7.596591e+01  -6.356665e+01
   9.094247e+00  -5.620643e+01
   4.171561e+01  -8.204257e+01
   4.549661e+01   2.702252e+01
   5.348463e+01   7.973283e+01
   3.774799e+01   2.466171e+01
   7.486309e+01   6.324276e+00
   7.564180e+01   9.879530e+00
   7.586714e+01   8.685243e+01
  -6.653275e+01   1.107847e+02
  -1.136609e+02   9.776572e+01
  -1.612626e+02  -3.326831e+01
  -9.529436e+01  -9.485010e+01
   3.900141e+01  -1.100482e+02
   6.607055e+01  -5.400077e+01
   8.344178e+01   6.100510e+01
  -9.408511e+01  -1.475213e+00
  -1.453669e+02  -9.906659e+01
  -5.999503e+01  -1.170837e+02
   7.576391e+01  -1.138552e+02
   1.929873e+02  -7.424224e+01
   1.597609e+02   4.129570e+01
   4.595354e+01   7.539488e+01
  -3.372658e+01   7.019249e+01
  -1.634715e+01   3.954622e+01
   3.146655e+01  -3.068108e+01
   1.730052e+02   1.176102e+01
   3.012431e+01   1.440189e+02
  -1.251529e+02   1.452680e+02
  -1.773207e+02   3.899020e+01
  -1.707794e+02  -8.273326e+01
  -8.400833e+00  -1.728475e+02
   1.019776e+02  -1.221391e+02
   9.048848e+01   9.052445e+00
   2.293685e+01   1.363890e+02
  -2.296104e+01   1.085658e+02
  -1.122153e+01   1.945709e+01
  -4.994925e+01  -4.906995e+01
  -5.815055e+01   8.027504e+00
  -2.425915e+01   3.806142e+01
  -9.989365e-01  -4.859031e+01
  -3.122346e+01  -1.028671e+02
   1.490147e-01  -1.352981e+02
   6.044655e+01  -6.419936e+01
   1.297059e+02   6.500510e+01
   1.479549e+02   6.219513e+01
   7.355676e+00   4.190548e+01
  -9.999531e+01   3.067332e+01
  -1.006974e+02  -1.118894e+01
   3.425407e+01  -4.972854e+01
   3.055867e+01  -1.111388e+01
   5.936580e+01  -5.630774e+00
  -5.465238e+01   1.908781e+00
   3.185043e+01   1.472444e+01
   7.081601e+01   1.765911e+01
   1.051819e+02   1.093454e+01
   1.481590e+00   8.289355e+01
  -1.484477e+02   1.382626e+02
  -2.081401e+02   4.231570e+00
  -1.877708e+02  -6.845426e+01
  -6.917077e+01  -1.994557e+02
   1.338990e+02  -1.480475e+02
   1.026656e+02  -1.364826e+01
   3.101104e+01   4.322787e+01
   4.832181e+01   4.367933e+01
  -1.651856e+01   1.748715e+01
   5.070269e+00  -1.709254e+01
   3.744373e+01   3.877896e+01
  -1.059612e+01   1.107980e+02
   1.936972e+01   6.136585e+01
  -9.211331e+01  -4.897598e+01
  -4.185285e+01  -9.274733e+01
   2.631381e+00  -6.323132e+01
   5.669509e+01  -9.051121e+00
   1.108767e+02   1.210628e+02
   1.301950e+01   1.201907e+02
  -5.517714e+01   6.616033e+01
  -8.968157e+01  -2.378756e+01
  -1.945664e+01  -2.952348e+01
   1.298988e+01  -3.837785e+01
   3.121971e+01  -3.579471e+01
  -2.633793e+01  -1.992289e+01
  -7.189397e+01  -3.093641e+01
  -2.868682e+01  -3.243093e+01
   8.697046e+01  -9.526215e+01
   1.229612e+02  -3.658112e+01
   6.100948e+01   2.632266e+01
   2.542509e+01   9.585491e+01
  -1.435585e+01   5.404407e+01
  -2.419659e+01  -7.946339e+00
  -2.335549e+01   1.287798e+00
   6.376594e+00  -8.043012e+01
  -1.861429e+00   5.118619e+00
   1.286665e+01   5.881029e+01
  -5.000548e+01  -2.569525e+01
  -6.649410e+01  -2.390357e+01
   1.150747e+01  -8.415723e+01
  -1.487066e+01   1.141354e+01
   2.745594e+01   3.956255e+01
   5.215416e+01   1.501031e+01
  -2.796593e+01  -4.821564e+01
   4.292190e+01   2.284707e+01
   6.229560e+01   4.969376e+01
   3.078306e+01   5.413036e+01
  -1.332402e+01   4.638456e+01
  -1.407830e+01  -3.109961e+01
  -6.517815e+01  -9.917478e+01
   2.368620e+01  -4.415617e+01
   3.700152e+01  -4.587608e+01
   1.354477e+02  -1.329263e+00
   8.982217e+01   7.406290e+01
  -1.694391e+01  -2.369923e+01
  -1.008525e+02   5.341211e+01
  -3.315091e+01  -3.248070e+01
   3.765598e+01   2.001942e+01
   6.687036e+01   3.925742e+01
  -2.991779e+01   3.645292e+01
  -8.443610e+01   4.208847e+01
