
 $NMID
 id='ANONYMOUS ', fmtdat='(2E16.6)'
 volume=1.0
 tramp=1.0
 $END
   4.766974e+03   1.770517e+02
   2.595638e+03   2.405267e+03
  -9.274983e+02   3.169515e+03
  -2.203683e+03   8.485969e+02
  -9.367597e+02  -6.089571e+02
   5.388467e+02  -4.943209e+02
   9.029246e+02   4.262899e+02
   2.001894e+01   1.156300e+03
  -7.999239e+02   8.361598e+02
  -1.064115e+03  -5.524423e+01
  -4.318889e+02  -9.404004e+02
   3.163270e+02  -9.371797e+02
   6.703819e+02  -1.466424e+02
   4.373210e+02   8.256368e+02
  -2.611801e+02   8.006405e+02
  -7.300418e+02   2.318829e+01
  -2.830692e+02  -7.463585e+02
   3.574981e+02  -7.252197e+02
   6.406128e+02  -1.708528e+02
   4.402823e+02   3.361058e+02
  -1.627180e+01   4.829570e+02
  -2.086009e+02   3.216084e+02
  -2.195859e+02   4.393460e+01
   6.105977e+01  -7.878530e+01
   4.604293e+02   8.101801e+01
   2.073933e+02   4.969243e+02
  -4.552386e+02   3.736156e+02
  -9.108474e+02  -6.610526e+01
  -5.257980e+02  -5.410677e+02
   4.031678e+02  -4.931224e+02
   7.445264e+02   5.236062e+01
   3.936038e+02   5.534281e+02
  -2.986150e+02   5.699424e+02
  -6.081426e+02   1.997984e+02
  -4.306981e+02  -2.395980e+02
  -1.133023e+02  -5.173334e+02
   2.306160e+02  -3.504055e+02
   1.367230e+02   1.913723e+02
  -2.422761e+02   4.582733e+02
  -4.783245e+02   2.674167e+01
  -2.368430e+02  -6.776987e+02
   3.356161e+02  -7.727630e+02
   6.099121e+02  -2.980194e+01
   3.433134e+02   5.251587e+02
  -2.666346e+02   3.980213e+02
  -3.912006e+02  -2.604576e+02
   5.572271e+01  -5.428936e+02
   5.785157e+02  -1.368884e+02
   6.049260e+02   4.624227e+02
   2.048285e+02   6.382306e+02
  -3.259242e+02   3.350256e+02
  -6.678002e+02  -4.296961e+01
  -4.100547e+02  -4.229756e+02
   1.754263e+02  -4.557599e+02
   5.405726e+02  -5.911289e+01
   2.767862e+02   2.115071e+02
  -1.009916e+02   1.155703e+02
  -1.870600e+02  -1.245230e+02
   1.517369e+02  -2.239336e+02
   3.510814e+02   9.913163e+01
   1.545203e+02   2.784266e+02
  -2.269579e+02   2.869301e+02
  -3.158191e+02   3.785381e+01
  -2.086827e+02  -1.114411e+02
   6.353280e+01  -2.387746e+02
   2.132935e+02  -3.785991e+02
   3.466175e+02  -2.440316e+02
   3.451104e+02   1.109001e+02
   1.028260e+02   4.623223e+02
  -8.579109e+01   4.768859e+02
  -1.174867e+02   1.422723e+02
  -4.693940e+01  -2.565838e+01
  -6.419739e+01   6.722012e+01
  -2.328412e+02   9.623776e+01
  -3.267792e+02  -5.903959e+01
  -1.752502e+02  -2.663640e+02
   2.905029e+01  -2.762433e+02
   2.249982e+02  -3.899938e+01
   1.889953e+02   2.699014e+02
   5.814958e+00   3.133137e+02
  -3.035721e+02   1.087814e+02
  -3.899330e+02  -2.228733e+02
  -1.821177e+02  -3.807617e+02
   1.189805e+02  -3.320723e+02
   2.382971e+02  -1.563809e+02
   1.821904e+02   2.605693e+01
   1.191855e+02  -4.071113e+01
   2.680439e+02  -8.273249e+01
   4.522329e+02  -7.128810e+00
   3.702518e+02   2.992021e+02
   4.662541e+01   4.812483e+02
  -4.448937e+02   4.249499e+02
  -5.508756e+02   2.297046e+02
  -3.806466e+02  -1.187822e+02
  -7.698790e+01  -3.001958e+02
   1.204361e+02  -2.878826e+02
   9.301600e+01  -2.482526e+01
  -1.322072e+02   1.686861e+02
  -2.285025e+02  -2.142729e+01
  -5.584845e+01  -2.134523e+02
   1.637776e+02  -1.976327e+02
   2.037595e+02   8.097997e+01
  -2.554917e+01   1.854988e+02
  -2.388781e+02   3.177233e+01
  -1.807930e+02  -2.262488e+02
   5.010516e+01  -3.371247e+02
   2.219473e+02  -2.251905e+02
   3.546415e+02   9.068460e+01
   2.951576e+02   2.560253e+02
   1.467712e+02   2.789914e+02
  -6.849437e+01   2.063008e+02
  -1.675638e+02   1.741061e+01
  -7.787967e+01  -1.418099e+01
   5.720313e+01   1.740666e+01
   4.693403e+01   8.072821e+01
  -1.146745e+02   1.054722e+02
  -1.760013e+02  -6.249114e+01
  -9.556402e+01  -8.907348e+01
   1.016356e+02  -3.009512e+01
   3.001888e+01   9.929141e+01
  -1.606025e+02   9.850013e+01
  -3.017235e+02  -4.919548e+01
  -2.879767e+02  -1.498614e+02
  -9.758931e+01  -2.380069e+02
   2.191165e+02  -2.794573e+02
   3.007563e+02  -1.590590e+02
   2.290794e+02   5.446087e+01
  -3.778520e+01   9.675113e+01
  -1.035890e+02   3.355570e+01
   4.941195e+01  -1.065099e+02
   1.925807e+02  -3.944760e+01
   2.355717e+02   7.850799e+01
   7.302827e+01   2.405149e+02
  -5.609970e+01   1.153668e+02
  -1.631371e+02   1.354473e+01
  -1.083602e+02  -2.066995e+01
   4.732535e+01  -4.416507e+01
   5.074337e+01   8.379892e+01
  -3.881583e+01   1.273422e+02
  -2.190080e+02   2.239039e+01
  -1.762989e+02  -8.416460e+01
  -4.725274e+01  -2.298259e+02
   1.631977e+02  -1.922090e+02
   2.057046e+02  -8.620661e+00
   7.589050e+01   1.203975e+02
  -4.438481e+01   7.155413e+01
  -7.113476e+01   4.587698e+01
   1.210965e+00   1.809272e+00
   4.657919e+01  -3.502714e+01
  -4.458140e+01  -1.906622e+01
  -7.260804e+01   4.687395e+00
  -9.369193e+01  -7.796160e+01
  -4.075297e+01  -1.550318e+02
   1.013786e+02  -1.527225e+02
   2.595880e+02  -2.275316e+01
   2.102208e+02   1.347374e+02
   5.115278e+01   2.879336e+02
  -9.242128e+01   1.568995e+02
  -1.667231e+02   8.556168e+00
  -8.867515e+01  -5.863790e+01
  -5.405228e+01  -4.705841e+01
  -5.845618e+01  -3.316866e+01
  -1.286719e+02  -3.503401e+01
  -7.411894e+01  -2.550464e+01
   3.385401e+01  -6.814874e+01
   7.196206e+01  -6.835675e+01
   1.079998e+02   1.262146e+01
  -1.525242e+01   9.993558e+01
  -2.116988e+02   9.735088e+01
  -2.020195e+02  -2.346420e+01
  -1.369419e+02  -2.574600e+02
   7.401115e+01  -2.371843e+02
   2.900330e+02  -1.301899e+02
   2.932987e+02   9.320507e+01
   1.394247e+02   1.958739e+02
  -5.386502e+01   1.587212e+02
  -1.427513e+02   6.553054e+01
  -7.285602e+01   9.512179e+01
  -5.011363e+01   8.487532e+01
  -1.190489e+02   6.759438e+01
  -1.433689e+02  -4.410294e+01
  -1.249444e+02  -1.234428e+02
  -2.959211e+01  -2.581471e+02
   9.355259e+01  -2.448291e+02
   2.053674e+02  -3.688389e+01
   1.320562e+02   1.530970e+02
   4.860963e+01   1.839731e+02
  -4.518642e+01   1.074971e+02
  -5.222049e+01   1.646928e+01
  -2.915950e+01  -7.566948e+01
   1.323123e+00  -1.827964e+01
  -8.520742e+00  -5.253666e+00
  -8.915456e+01  -2.085050e+01
  -6.227397e+01  -5.983606e+01
   9.376958e+01  -3.196485e+00
   2.195453e+02  -4.144111e+01
   1.350361e+02   9.700600e+01
   3.011836e+01   4.875537e+01
  -1.203911e+02   6.224316e+01
  -1.457266e+02  -3.598354e+01
  -7.307745e+01   8.256977e-01
   7.177216e+01  -7.983099e-01
   1.124603e+02   3.455165e+01
   2.835873e+01   6.514549e+01
  -4.431517e+01   7.063756e+01
  -1.065701e+02   9.445242e-01
  -4.067254e+01  -3.293736e+01
  -6.450197e+01  -3.204821e+01
  -6.000261e+01  -4.282282e+01
  -6.802947e+01  -6.083449e+00
  -2.774054e+00  -1.057814e+02
   3.880975e+01  -1.400679e+02
   9.248823e+01  -1.375160e+02
   1.647354e+02  -4.023163e+01
   1.197375e+02   6.619064e+01
   1.842181e+01   1.511797e+02
  -1.068396e+02   9.365066e+01
  -8.324353e+01  -2.219627e+00
   9.073298e+01   1.986723e+00
   9.406992e+01   6.360739e+01
   7.693961e+01   1.087716e+02
  -1.046029e+02   5.962189e+01
  -1.969657e+02   8.045770e+01
  -2.238333e+02  -3.851071e+01
  -3.393376e+01  -6.769277e+01
   4.525291e+01  -7.535737e+01
   6.763079e+01   1.502866e+01
  -4.934372e+01   1.312166e+01
  -1.172280e+02  -4.153044e+00
  -7.997937e+00  -1.446661e+02
   1.145305e+02  -1.422738e+02
   1.756415e+02  -6.654382e+01
   1.741177e+02   1.511315e+02
  -2.191626e+00   2.457148e+02
  -8.544770e+01   9.443568e+01
  -1.090869e+02   1.500185e-01
  -4.106720e+01  -1.298522e+02
   1.580446e+01  -7.083575e+01
   3.992982e+01  -2.511492e+01
   6.576395e+01  -2.190226e+01
  -2.459545e+01  -6.267875e+00
  -9.882031e+00  -4.203696e+01
   2.051335e+01  -1.365354e+01
   3.763494e+01   9.455596e+01
   2.490172e+01   7.264869e+01
  -7.576839e+01   3.796556e+01
  -1.543289e+02  -7.726572e+01
  -1.126932e+02  -7.869116e+01
  -3.508802e+01  -2.939320e+01
   1.118158e+02  -1.344612e+00
   1.026251e+02  -2.725747e+00
   2.861950e+01  -5.352832e+01
  -4.501971e+01   1.555086e+01
  -1.136226e+01   1.320568e+01
   1.615479e+01  -8.829455e+00
  -5.291422e+01   4.513152e+00
  -4.407625e+01  -3.691139e+01
  -9.689886e+01  -4.254911e+01
   1.928810e+01  -8.508385e+01
   1.194806e+02  -1.709451e+02
   2.169537e+02  -1.042216e+02
   1.964417e+02   1.182246e+02
   1.374901e+00   1.771123e+02
  -1.260695e+02   1.621271e+02
  -1.269951e+02   4.184007e+01
  -1.058809e+02  -5.459727e+01
  -4.082578e+01  -6.195144e+01
   3.589175e+01  -1.200918e+01
  -1.401826e+01   1.284454e+01
  -4.114978e+01  -8.125400e+01
  -4.832287e+01  -1.188703e+02
   2.047516e+01  -7.482709e+01
   4.112118e+01   7.371241e+00
   5.577463e+01   1.378523e+02
   1.992583e+01   1.365751e+02
  -7.096695e+01   2.194943e+01
  -1.260523e+02  -9.506382e+01
  -3.086499e+01  -1.129587e+02
   7.742498e+01  -3.790232e+01
   1.391494e+02   1.187475e+01
   5.519647e+01   5.763431e+01
  -3.627608e+01   6.726598e+01
  -1.034016e+02   3.237827e+01
   4.752070e+01   9.405592e+00
   8.795288e+01   2.919212e+01
   2.286620e+01   1.786678e+00
  -1.104012e+02   9.303977e+01
  -1.217506e+02   8.193054e+01
  -6.101669e+01  -3.288914e+01
  -2.553591e+01  -5.855951e+01
   3.940950e+01  -1.225267e+02
  -3.030801e+01   1.449895e+01
  -1.006302e+01   7.730543e+01
  -5.605589e+01   6.410021e+01
  -5.173351e+01  -4.777873e+01
  -2.949881e+01  -3.995492e+01
  -2.757836e+01  -3.186295e+01
   2.127823e+01   4.932446e+01
   4.957287e+01   5.480478e+01
  -1.863680e-02  -5.718309e+00
   1.046782e+01  -3.921800e+01
  -6.447432e+00  -2.129508e+01
   3.696798e+01   6.873286e+01
   2.901850e+00   4.187153e+01
  -1.177334e+01   2.094977e+01
  -3.438632e+01  -1.014034e+01
   3.154795e+01  -7.048163e+01
   5.422978e+01  -3.947353e+00
   7.144946e+01   4.309633e+01
   4.628797e+01   3.440924e+01
  -6.084988e+01   2.194027e+01
  -1.064139e+02  -1.127145e+01
  -4.320006e+01  -1.063407e+02
   1.958380e+01  -9.317852e+01
   8.983951e+01  -1.955836e+01
   2.611911e+01   6.059562e+00
  -2.526758e+01  -1.748383e+01
  -8.562544e+01  -4.580708e+01
   1.451427e+01  -3.814957e+00
   9.698204e+01  -5.080417e+01
