
 $NMID
 id='ANONYMOUS ', fmtdat='(2E16.6)'
 volume=1.0
 tramp=1.0
 $END
   3.333953e+03  -2.117143e+02
   2.014730e+03   1.744146e+03
  -1.324594e+02   2.164354e+03
  -1.586603e+03   1.146026e+03
  -9.564918e+02  -3.260422e+02
   1.477808e+02  -4.663181e+02
   5.618617e+02   1.933414e+02
   8.594408e+01   6.984521e+02
  -5.084804e+02   6.851280e+02
  -7.009414e+02   1.048578e+01
  -4.849210e+02  -5.567689e+02
   1.709508e+02  -7.019512e+02
   4.410746e+02  -1.075378e+02
   3.222057e+02   5.030124e+02
  -9.915450e+01   6.170152e+02
  -4.542880e+02   6.309900e+01
  -2.595347e+02  -4.715122e+02
   1.925578e+02  -6.287466e+02
   4.949072e+02  -2.291456e+02
   3.699909e+02   2.592733e+02
   1.248133e+02   3.108306e+02
  -1.814595e+02   1.975055e+02
  -1.199984e+02   3.624234e+01
   5.500776e+01  -1.082378e+01
   2.867419e+02   6.987048e+01
   1.337295e+02   3.383680e+02
  -3.386619e+02   1.727520e+02
  -6.077730e+02  -1.338711e+02
  -3.088935e+02  -3.650407e+02
   3.069180e+02  -3.426970e+02
   4.870964e+02   5.355485e+01
   2.594555e+02   3.499288e+02
  -2.124622e+02   4.068498e+02
  -5.213827e+02   2.135164e+02
  -3.247890e+02  -1.663377e+02
  -8.154573e+01  -3.440740e+02
   1.144616e+02  -2.655324e+02
   7.741046e+01   1.160443e+02
  -9.821269e+01   2.807405e+02
  -2.995475e+02  -3.294780e+01
  -1.708817e+02  -5.122300e+02
   2.112043e+02  -5.643676e+02
   4.148915e+02  -4.866068e+01
   2.032970e+02   3.271799e+02
  -1.791268e+02   2.431815e+02
  -3.301110e+02  -2.253824e+02
   1.384883e+01  -4.404696e+02
   4.336156e+02  -9.579820e+01
   5.389883e+02   3.284030e+02
   1.934323e+02   4.675329e+02
  -2.879184e+02   3.106798e+02
  -4.968017e+02  -1.250004e+01
  -3.437664e+02  -2.095194e+02
   8.562437e+01  -2.222350e+02
   3.082787e+02  -1.076296e+02
   2.075066e+02   9.494568e+01
  -8.799387e+01   1.148615e+02
  -1.006615e+02  -9.520004e+01
   9.685504e+01  -9.948364e+01
   2.433960e+02   5.334025e+01
   1.921318e+02   2.027166e+02
  -1.522650e+02   2.084125e+02
  -2.980237e+02   1.524609e+02
  -2.634585e+02  -1.728766e+01
   5.768093e+01  -1.431472e+02
   2.053337e+02  -2.606600e+02
   2.887998e+02  -1.859327e+02
   2.407080e+02   1.403177e+02
   7.603108e+01   3.821067e+02
  -1.038438e+02   3.105229e+02
  -5.572877e+01   1.225903e+02
  -2.816611e+01   5.744360e+00
  -1.402594e+02   7.208277e+01
  -1.846177e+02   1.285221e+02
  -2.315572e+02  -8.202323e+01
  -7.399230e+01  -2.012720e+02
   7.974152e+01  -1.654776e+02
   1.552071e+02   1.951755e+00
   1.528664e+02   1.835443e+02
  -3.908902e+01   2.021024e+02
  -2.073981e+02   7.911437e+01
  -2.656306e+02  -1.648760e+02
  -1.483080e+02  -2.916104e+02
   1.065540e+02  -2.455348e+02
   1.457319e+02  -1.104986e+02
   1.266485e+02  -2.356311e+01
   8.158647e+01  -5.553755e+01
   1.689699e+02  -4.684599e+01
   3.611742e+02   5.057228e+01
   2.884643e+02   2.415479e+02
  -1.575860e+01   3.804528e+02
  -2.481847e+02   2.931561e+02
  -4.509743e+02   2.037052e+02
  -2.900228e+02  -7.901995e+01
  -6.533710e+00  -2.543584e+02
   1.291380e+02  -1.746704e+02
   4.431523e+01  -1.920211e+01
  -7.677162e+01   5.228201e+01
  -1.300728e+02  -3.618100e+01
  -7.755223e+01  -1.492377e+02
   8.806434e+01  -1.260207e+02
   1.120966e+02   5.875275e+01
  -3.321944e+01   1.110276e+02
  -1.451123e+02  -9.553598e-01
  -1.101980e+02  -1.957011e+02
  -9.601713e+00  -3.000597e+02
   2.519244e+02  -1.700330e+02
   2.806485e+02   6.172578e+01
   2.239483e+02   2.073351e+02
   9.913587e+01   2.297356e+02
  -1.221924e+02   1.109113e+02
  -1.628288e+02   6.223863e+01
   7.097675e+00  -2.388921e+01
   1.950369e+01   4.854630e+01
   1.034449e+01   7.402136e+01
  -7.325538e+01   6.098069e+01
  -1.372328e+02  -6.182266e+00
  -4.797433e+01  -2.245852e+01
   7.100272e+01   1.106864e+01
   5.504609e+01   4.530579e+01
  -7.968523e+01   7.805404e+01
  -2.382933e+02  -3.901039e+01
  -2.092976e+02  -9.879307e+01
  -2.668011e+01  -2.594337e+02
   2.013362e+02  -1.961847e+02
   2.103716e+02  -9.814679e+01
   1.371299e+02  -2.129129e+01
  -1.867537e+01   1.187054e+02
  -7.165759e+01  -6.097577e+01
   3.610224e+01  -1.363192e+02
   1.212436e+02  -8.292454e+01
   1.643702e+02   7.131762e+01
   3.904662e+01   1.970540e+02
  -7.559329e+01   1.331307e+02
  -8.759801e+01   8.881151e+00
  -8.150133e+01  -5.688771e+01
   1.683129e+01   2.807000e+01
   3.640382e+01   9.671474e+01
  -8.043993e+01   6.968328e+01
  -1.825040e+02   4.190009e+01
  -1.874166e+02  -1.413308e+02
  -4.060545e+01  -1.473749e+02
   1.396325e+02  -1.439045e+02
   1.534858e+02  -1.697005e+01
   7.126034e+01   8.900888e+01
  -6.633044e+01   8.617143e+01
  -8.775101e+01   4.344323e+01
  -8.975595e+00  -2.247634e+01
   1.635816e+01   3.116462e+01
  -2.933251e+00  -4.100845e-02
  -6.260938e+01   1.506908e+01
  -7.082733e+01  -5.509598e+01
   1.246824e+00  -1.721396e+02
   1.437613e+02  -1.603777e+02
   2.325701e+02  -1.494261e+01
   1.358608e+02   1.335679e+02
   3.463087e+01   1.490768e+02
  -6.303087e+01   1.390179e+02
  -1.258817e+02   6.186668e+01
  -4.859708e+01  -2.834450e+01
  -1.310684e+01  -6.564397e+01
   8.481820e-02   2.046197e+00
  -5.902638e+01   3.777446e+01
  -7.854202e+01  -8.696959e+01
   7.601574e+01  -1.090035e+02
   1.011268e+02  -1.876236e+01
   8.603859e+01   6.651511e+01
  -4.803398e+00   1.308714e+02
  -1.358838e+02   6.670872e+01
  -2.043802e+02  -2.500510e+01
  -1.213724e+02  -1.912327e+02
   1.173648e+02  -2.651480e+02
   2.439437e+02  -9.394372e+01
   2.462733e+02   6.490597e+01
   1.142449e+02   1.623128e+02
   3.499290e+00   8.804493e+01
  -1.007161e+02   4.646182e+01
  -4.459879e+01   8.236709e+01
  -5.187691e+01   8.071123e+01
  -7.138392e+01   7.483442e+01
  -1.244771e+02   7.556005e+00
  -7.355291e+01  -1.567308e+02
  -3.251303e+01  -1.921162e+02
   9.838896e+01  -1.415245e+02
   1.732395e+02  -3.300438e+01
   1.123370e+02   7.263585e+01
   5.111164e+01   1.578399e+02
  -9.720059e+01   3.361531e+01
  -5.489479e+01   3.103032e+01
   1.564524e+01  -3.418136e+01
   7.717760e+00  -2.212384e+01
  -5.887206e+01  -7.419523e+00
  -8.739927e+01   5.997991e-01
  -6.220776e+01  -1.094167e+01
   1.002214e+02  -3.772264e+01
   1.218690e+02   3.105332e+01
   1.349783e+02   4.109207e+01
   1.433624e+01   5.359060e+01
  -1.383088e+02   1.585254e+01
  -1.020010e+02   4.485818e+01
  -5.788867e+01  -2.206358e+01
   6.715918e+01  -5.330372e+01
   6.931794e+01  -2.568721e+01
   1.125867e+01   1.334462e+01
  -4.983917e+01   5.520565e+01
  -8.369735e+01   1.266336e+01
  -5.298643e+01  -9.455565e+00
  -6.499813e+01  -3.146619e+01
  -2.301460e+01  -3.358039e+01
  -6.225892e+01  -3.997011e+01
  -4.841853e+01  -6.050692e+01
   5.556537e+00  -1.681804e+02
   6.235024e+01  -1.021889e+02
   1.325411e+02  -6.195920e+01
   1.191058e+02   9.381379e+01
  -2.473448e+01   1.022320e+02
  -5.063251e+01   9.485329e+01
  -7.798929e+01   1.657127e+01
   3.734295e+01  -3.651992e+01
   1.093068e+02  -2.028716e+01
   3.360198e+01   9.008720e+01
  -8.296035e+01   9.357000e+01
  -1.715460e+02   5.561076e+01
  -1.190128e+02  -3.230081e+01
  -6.202012e+01  -8.598138e+01
   1.299331e+02  -6.742715e+01
   4.415658e+01  -1.649044e+01
  -5.018917e+01   1.224423e+01
  -5.398903e+01  -4.849950e+01
  -3.182358e+01  -1.102725e+02
   1.002734e+02  -1.065693e+02
   1.706688e+02  -8.166759e+01
   7.025050e+01   1.116887e+02
   5.036545e+01   1.820044e+02
  -7.810241e+01   5.990134e+01
  -1.097948e+02  -3.876343e+01
  -8.556726e+01  -7.974012e+01
   5.956484e+01  -1.093137e+02
   4.864456e+01   1.200985e+01
   2.488879e+01   7.616110e-01
   2.576807e+01   2.725494e+01
   1.335205e+00  -3.820207e+01
   1.471767e+01   3.977035e+01
   4.127004e+01   7.192256e+01
   2.121508e+01   8.464321e+01
  -2.297893e+01   2.433094e+01
  -1.217842e+02   6.947527e-01
  -1.151867e+02  -7.042017e+01
  -1.684379e+01  -4.702568e+01
   8.520599e+01  -3.114001e+01
   5.966510e+01  -1.211989e+01
  -3.915791e+01   1.825685e+00
  -3.311546e+01   2.880276e+01
  -1.467539e+01   4.071027e+01
  -1.543374e+01  -3.218466e-01
  -2.856645e+00  -2.096529e+01
  -8.334872e+01   1.310910e+01
  -1.091299e+02   1.290770e+01
   3.032898e+01  -7.743503e+01
   8.435834e+01  -9.834696e+01
   1.622036e+02  -3.256838e+01
   1.225509e+02   5.375201e+01
  -5.350974e+00   1.425464e+02
  -6.037909e+01   9.877754e+01
  -9.365015e+01   6.778180e+01
  -6.179645e+01   9.936266e+00
  -2.351877e+01  -6.615814e+01
   6.242921e+00  -3.890910e+00
   2.226103e+01   2.225094e+01
  -5.132079e+01  -4.199831e+00
   1.712839e+00  -8.205891e+01
   3.931854e+01  -7.636178e+01
   3.511827e+01   4.827261e+01
   7.801357e+01   5.010580e+01
   6.773123e+00   9.404584e+01
  -1.083447e+02   6.645035e+00
  -1.278700e+02  -5.783422e+01
  -8.922718e+01  -1.267444e+02
   5.761702e+01  -4.144356e+01
   6.946660e+01  -4.060686e+00
   2.532333e+01   3.191508e+01
  -2.591842e+01   2.035735e+01
   2.462615e+00   2.074839e+01
   1.068544e+01  -1.207283e+01
   1.093093e+02   2.465176e+01
  -3.215356e+01   6.700646e+01
  -8.319722e+01   1.842550e+01
  -1.309782e+02   5.202264e+01
  -3.680083e+01   1.202166e+01
  -1.022854e+01  -1.050946e+02
   6.010686e+01  -5.898871e+01
   1.174156e+02  -1.404597e+01
   2.089691e+01   6.381092e+01
  -1.032455e+01   9.268622e+01
  -3.805421e+00  -3.328274e+01
  -2.096155e+01  -5.922219e+01
  -2.863183e+00  -2.660056e+01
   1.211246e+01  -5.162042e+01
   3.812378e+00  -1.693757e+01
   3.622262e+01   3.161141e+01
   2.043530e+01  -3.734483e+00
   1.962282e+01   1.045992e+01
   1.145030e+01   2.952821e+01
  -2.057611e-01   1.421688e+01
  -4.394124e+01  -8.423779e+00
  -3.622767e+01  -4.397226e+01
  -6.257118e+01  -4.540283e+01
   5.363560e+01  -2.229251e+00
   1.000152e+02   5.498427e+01
   4.659740e+00   6.962533e+01
  -6.448047e+01   2.133469e+01
  -1.110656e+02  -8.274552e+00
  -6.794384e+01  -7.132617e+01
   1.604804e+01  -5.161015e+01
   4.940280e+01  -1.886740e+01
   5.985477e+01   5.664789e-01
  -1.749635e+01   6.139802e+00
  -3.401749e+01  -2.339571e+01
  -2.703934e+01  -1.449798e+01
   4.272880e+01  -3.081627e+00
