
 $NMID
 id='ANONYMOUS ', fmtdat='(2E16.6)'
 volume=1.0
 tramp=1.0
 $END
   3.217007e+03   2.679381e+02
   2.266606e+03   1.559594e+03
   4.294229e+01   1.984261e+03
  -1.298761e+03   1.439543e+03
  -1.156477e+03   1.720873e+02
  -1.081936e+02  -3.449145e+02
   4.210892e+02  -1.586181e+01
   1.150444e+02   6.473145e+02
  -4.340191e+02   6.401505e+02
  -6.494139e+02   1.418401e+02
  -5.637450e+02  -4.756601e+02
  -8.951470e+01  -6.691368e+02
   3.052231e+02  -2.660488e+02
   3.335942e+02   3.263827e+02
  -4.871116e+01   6.254623e+02
  -4.176281e+02   1.322876e+02
  -3.677316e+02  -4.235937e+02
   1.004890e+02  -6.435075e+02
   4.629299e+02  -3.516163e+02
   5.088034e+02   1.456488e+02
   1.570332e+02   3.439438e+02
  -1.305255e+02   2.754897e+02
  -8.464665e+01   1.447779e+02
   1.572734e+02   1.613898e+02
   2.266999e+02   2.852086e+02
   1.498447e+01   3.371809e+02
  -4.347101e+02   1.307361e+02
  -5.863984e+02  -1.802446e+02
  -2.825474e+02  -3.589208e+02
   2.722391e+02  -2.402376e+02
   4.811756e+02   9.763699e+01
   2.291443e+02   3.211360e+02
  -2.260314e+02   4.231248e+02
  -4.803283e+02   1.864049e+02
  -3.278404e+02  -1.156094e+02
  -1.506039e+02  -3.224123e+02
  -1.277635e+01  -2.358409e+02
  -3.152063e+01   4.954443e+01
  -6.872325e+01   1.684022e+02
  -2.021712e+02  -1.042323e+02
  -2.743430e+01  -4.785380e+02
   2.246496e+02  -5.374668e+02
   3.662901e+02  -1.908273e+01
   1.980916e+02   2.761319e+02
  -1.483969e+02   1.772416e+02
  -1.676506e+02  -2.231352e+02
   6.674158e+01  -3.659229e+02
   4.536583e+02  -3.979406e+01
   5.062299e+02   3.989389e+02
   1.547126e+02   4.162546e+02
  -2.704912e+02   2.933562e+02
  -4.922709e+02  -2.344721e+01
  -3.858499e+02  -2.121618e+02
  -9.319064e+00  -2.559317e+02
   2.698740e+02  -1.133355e+02
   1.880462e+02   5.222680e+01
  -7.092616e+00   1.740009e+01
  -6.570389e+01  -3.681108e+01
   1.019655e+02  -5.735564e+01
   2.425284e+02   3.077600e+01
   9.632268e+01   1.949639e+02
  -1.642371e+02   2.699975e+02
  -3.146883e+02   1.890098e+02
  -3.292246e+02  -3.976246e+01
   1.628245e+01  -2.478922e+02
   3.161975e+02  -3.300536e+02
   3.116504e+02  -1.966883e+02
   2.548795e+02   1.561507e+02
   4.127225e+01   4.054037e+02
  -5.042934e+01   3.532220e+02
  -9.299597e+00   2.205933e+02
  -1.040599e+01   7.400043e+01
  -1.690096e+02   1.276180e+02
  -2.489676e+02   9.418729e+01
  -2.379110e+02  -9.758134e+01
  -1.476723e+02  -2.205071e+02
   8.042652e+01  -1.968941e+02
   1.608007e+02   7.323300e+00
   1.358902e+02   2.273243e+02
  -6.000412e+01   2.172086e+02
  -2.107450e+02   4.415382e+01
  -3.282305e+02  -1.860751e+02
  -1.768807e+02  -2.358586e+02
   2.558039e+01  -2.638302e+02
   1.689650e+02  -1.569818e+02
   1.628755e+02  -1.204192e+02
   1.307867e+02  -1.073179e+02
   3.313035e+02  -4.238207e+01
   3.690617e+02   1.016164e+02
   3.184837e+02   2.669710e+02
  -3.694991e+01   4.499492e+02
  -3.397538e+02   3.900044e+02
  -4.947691e+02   1.855790e+02
  -2.905508e+02  -8.534769e+01
  -6.968437e+01  -2.370490e+02
   1.000586e+02  -2.073472e+02
   7.307520e+00  -7.127292e+01
  -1.214149e+02   4.105580e+01
  -1.374145e+02  -3.272016e+01
   4.900795e+00  -1.597905e+02
   9.595938e+01  -1.377421e+02
   1.126010e+02   1.534755e+01
  -2.846516e+01   1.650389e+02
  -1.723584e+02   1.079980e+01
  -1.291183e+02  -2.419936e+02
   5.035585e+00  -3.498514e+02
   2.197193e+02  -1.923836e+02
   3.313551e+02   8.199575e+01
   2.961683e+02   2.848445e+02
   1.047770e+02   2.439200e+02
  -1.240384e+02   1.685756e+02
  -1.190781e+02   2.901865e+01
   1.800884e+01   1.552270e+00
   9.515902e+01   1.018757e+02
  -4.691025e+01   1.296471e+02
  -1.119317e+02   8.919793e+01
  -1.770072e+02  -6.229920e+01
  -3.322399e+01  -5.936018e+01
   8.402934e+01   5.413490e+00
   5.391307e+01   3.950101e+01
  -1.295834e+02   8.941752e+01
  -3.194511e+02  -3.155875e+01
  -2.712343e+02  -1.924447e+02
  -7.111026e+01  -2.677125e+02
   2.374896e+02  -2.427134e+02
   2.981610e+02  -1.172660e+02
   1.683320e+02   5.526317e+01
  -4.251863e+01   8.344655e+01
  -9.410225e+01  -3.479779e+01
   6.173661e+01  -7.571329e+01
   1.993816e+02  -4.660686e+01
   1.543268e+02   1.018299e+02
   8.280651e+01   1.511118e+02
  -9.401185e+01   1.546319e+02
  -1.000067e+02   1.845735e+01
  -5.366944e+01  -3.049671e+01
   1.275460e+01   1.982043e+01
   2.352011e+01   1.408688e+02
  -7.788976e+01   1.169181e+02
  -1.971581e+02   2.902528e+01
  -1.871707e+02  -1.233067e+02
   1.682868e+01  -2.189088e+02
   1.533626e+02  -1.826527e+02
   2.142905e+02   7.251150e+00
   1.139176e+02   7.757167e+01
  -8.104391e+01   7.588494e+01
  -4.097163e+01   7.519215e+01
  -5.003180e+01  -1.413556e+00
   3.990417e+01   1.723667e+01
  -2.814700e+01   1.110613e+01
  -9.181583e+01  -2.281185e+01
  -1.124673e+02  -7.841198e+01
  -2.764320e+01  -2.102424e+02
   1.452549e+02  -1.877352e+02
   2.463299e+02  -4.421300e+00
   2.017585e+02   1.522713e+02
   3.531886e+01   2.595020e+02
  -8.451029e+01   1.447081e+02
  -1.583503e+02   5.457404e+01
  -7.352371e+01  -3.717855e+01
  -5.452348e+01  -2.986786e+01
   4.533114e-01   1.246974e+01
  -8.401414e+01   1.605762e+01
  -8.643667e+01  -5.345989e+01
  -8.206631e+00  -1.494987e+02
   1.053992e+02  -8.164267e+01
   8.642293e+01   4.270096e+01
   8.641738e+00   1.308401e+02
  -1.372572e+02   8.319844e+01
  -1.564898e+02  -6.714035e+01
  -6.155451e+01  -2.427855e+02
   1.862430e+02  -2.253405e+02
   2.948748e+02  -1.012244e+02
   2.556672e+02   1.052295e+02
   1.049185e+02   1.665372e+02
  -3.829004e+01   1.596035e+02
  -5.549244e+01   1.123508e+02
  -9.360068e+01   7.281248e+01
  -6.962690e+01   1.491993e+02
  -8.826839e+01   9.680718e+01
  -1.414011e+02  -4.199935e+01
  -1.379274e+02  -1.273188e+02
  -6.849171e+01  -2.107003e+02
   1.029045e+02  -2.223863e+02
   1.979937e+02  -1.968309e+01
   1.112463e+02   1.587360e+02
  -2.223829e+01   1.740321e+02
  -8.762731e+01   8.352111e+01
  -6.045505e+01   1.034185e+01
  -5.605481e+00  -5.763589e+01
   7.028721e+01  -3.604205e+00
  -7.361259e+00  -2.187687e+01
  -9.536524e+01  -6.425167e+01
  -2.900678e+01  -3.057208e+01
   8.294075e+01  -6.073628e+01
   1.823998e+02   1.054269e+01
   1.496892e+02   5.212116e+01
   4.783393e+01   1.221528e+02
  -1.016436e+02   8.389622e+01
  -1.542734e+02  -1.851779e+01
  -2.783860e+01  -6.586863e+01
   6.851450e+01  -4.097649e+01
   7.515083e+01   4.652172e+01
   1.523244e+01   8.155619e+01
  -5.802437e+01   8.425160e+01
  -2.273571e+01   4.644905e+01
  -8.485569e+01  -4.509939e+01
  -7.132980e+01  -4.284376e-01
  -7.679341e+01   2.533360e+01
  -1.026439e+02   1.344232e+01
  -4.822694e+01  -7.280821e+01
   5.345529e+01  -1.319001e+02
   1.205228e+02  -1.170158e+02
   1.621465e+02  -2.662633e+01
   9.221944e+01   8.121003e+01
   2.798089e+01   1.431843e+02
  -1.025034e+02   8.961246e+01
  -6.014765e+01   1.074905e+01
   5.717270e+01  -2.171613e+01
   1.130623e+02  -7.768317e-01
   6.742490e+01   9.232034e+01
  -7.554275e+01   9.615225e+01
  -1.944410e+02   9.110469e+01
  -1.528911e+02   1.324224e+01
  -1.653503e+01  -9.440277e+01
   4.597685e+01  -4.723814e+01
   5.484602e+01  -5.178277e+01
  -4.566576e+01  -1.038161e+00
  -1.560492e+02  -2.387992e+01
  -5.895884e+01  -1.546455e+02
   7.036592e+01  -2.051212e+02
   1.334903e+02  -1.095482e+02
   1.164579e+02   7.165358e+01
   5.659098e+01   2.124224e+02
  -1.536768e+00   1.348634e+02
  -9.834005e+01   1.839558e+01
  -2.772334e+01  -1.272456e+02
   2.078650e+01  -1.253454e+02
   7.877781e+01  -4.073895e+00
   3.690850e+01   1.611808e+01
   1.200007e+01  -4.974785e+00
   1.231890e+01  -2.847653e+01
   3.249189e+01   2.020546e+01
   3.102465e+01   1.010721e+02
   4.423656e+01   1.115120e+02
  -6.905452e+01   5.570807e+01
  -1.148081e+02  -1.210309e+01
  -1.206078e+02  -5.045649e+01
  -5.700975e+01  -3.709260e+01
   3.847159e+01  -6.001453e+01
   6.864624e+01  -4.209402e+01
   4.962266e+01   1.877064e+01
  -4.515999e+01   4.014904e+01
  -2.105621e+01   4.513291e+01
   3.497799e+01  -2.710243e+01
   1.171938e+01  -2.173718e+01
  -3.309691e+01  -2.258226e+01
  -1.168521e+02  -5.750620e+01
   3.171369e+01  -8.725837e+01
   8.160213e+01  -1.110030e+02
   1.714440e+02  -1.782534e+01
   1.890765e+02   3.130930e+01
   2.793005e+01   1.616614e+02
  -5.143278e+01   1.220915e+02
  -1.399496e+02   6.595599e+01
  -1.188126e+02  -2.337188e+01
  -8.454373e+01  -4.473183e+01
  -2.311068e+01  -2.502563e+00
  -1.416640e+01  -3.597890e+01
  -3.559143e+01  -6.261647e+01
  -3.996598e+01  -8.071621e+01
   5.042140e-01  -1.009371e+02
   1.175179e+02  -2.112165e+01
   9.681264e+01   1.159929e+02
   2.312318e+01   8.453458e+01
  -6.181004e+01   3.487972e+01
  -1.204222e+02  -2.581325e+01
  -3.099790e+01  -1.086402e+02
   6.142340e+01  -6.654526e+01
   9.776332e+01   6.255827e+01
   8.777563e+01   7.014755e+01
  -3.221092e+01   6.236822e+01
  -9.453375e+01   3.291972e+01
   4.384719e+01  -2.542630e+01
   6.641379e+01   1.227482e+01
   2.481108e+01   1.853532e+01
  -7.269986e+01   7.088568e+01
  -1.041052e+02   6.620316e+01
  -5.167851e+01   1.527568e+01
   4.227828e+01  -6.691401e+01
   6.989525e+01  -5.866343e+01
   6.296834e+01   1.164382e+01
   2.891601e+00   7.027213e+01
  -2.817251e+01   3.901864e+01
  -6.725897e+01  -2.736404e+01
  -7.341109e+01  -3.600850e+01
  -2.842154e+01  -3.636142e+01
   2.202765e+01   3.466060e+00
   3.965533e+01   1.489053e+01
   4.289916e+01   4.842511e+01
  -3.972005e+01  -4.733947e+01
   3.379862e+01  -9.303089e+00
  -1.358474e+01   3.210397e+01
   6.633329e-01   6.702472e+01
  -4.145380e+01   4.129556e+01
  -4.955686e+01   3.662027e+00
  -6.310219e+00  -3.458040e+01
   7.273592e+01  -5.835299e+01
   5.160537e+01   5.179920e+01
   2.518489e+01   9.868303e+01
  -5.742374e+01   2.055755e+01
  -9.445107e+01   3.824747e+00
  -7.388044e+01  -3.459504e+01
   4.982251e+01  -7.347655e+01
   9.390697e+01  -2.018839e+01
  -1.553900e+01  -2.424962e+01
  -1.300486e+01   4.358692e+01
  -3.620202e+01   7.981901e+00
   2.104768e+01  -3.881101e+01
   8.855337e+01  -2.216623e+00
