
 $NMID
 id='ANONYMOUS ', fmtdat='(2E16.6)'
 volume=1.0
 tramp=1.0
 $END
  -3.714671e+03  -3.849692e+02
  -2.427955e+03  -1.783941e+03
   2.974799e+02  -2.368036e+03
   1.703409e+03  -1.377415e+03
   1.146402e+03   2.178215e+02
  -1.176504e+02   4.677142e+02
  -6.117181e+02  -8.842162e+01
  -3.900647e+01  -7.573665e+02
   5.989685e+02  -6.823896e+02
   7.389488e+02   3.191396e+00
   4.709978e+02   6.153395e+02
  -3.608205e+01   7.700102e+02
  -4.029633e+02   2.034197e+02
  -3.718093e+02  -5.147941e+02
   1.413505e+02  -5.733936e+02
   4.995335e+02  -8.499883e+01
   3.327953e+02   5.256574e+02
  -1.736943e+02   6.109203e+02
  -4.822994e+02   1.863537e+02
  -4.370352e+02  -2.820981e+02
  -1.444936e+02  -4.575259e+02
   2.061217e+02  -2.636370e+02
   1.834877e+02  -1.287751e+02
  -1.149281e+02  -9.962193e+01
  -2.520102e+02  -1.972771e+02
  -1.073872e+02  -2.774114e+02
   4.260008e+02  -2.015832e+02
   6.678342e+02   1.478526e+02
   3.695854e+02   3.974690e+02
  -3.051217e+02   3.828603e+02
  -5.494052e+02  -9.219986e+01
  -3.240701e+02  -4.315255e+02
   2.482480e+02  -4.338513e+02
   5.083555e+02  -1.651322e+02
   3.563930e+02   1.400783e+02
   1.256742e+02   3.966613e+02
  -6.654297e+01   2.554717e+02
  -5.736581e+01  -1.567315e+02
   9.027148e+01  -3.274657e+02
   2.862033e+02   1.000000e+02
   1.357413e+02   5.835785e+02
  -2.507252e+02   6.159564e+02
  -4.904298e+02  -1.522425e+01
  -2.103903e+02  -3.767719e+02
   1.974960e+02  -2.404135e+02
   2.799583e+02   3.155740e+02
  -5.794431e+01   4.244054e+02
  -4.756279e+02   9.973155e+01
  -5.935204e+02  -3.266663e+02
  -2.105018e+02  -5.149579e+02
   2.824136e+02  -3.481572e+02
   5.569338e+02   3.434578e+01
   3.963590e+02   2.756934e+02
  -2.385889e+01   3.069606e+02
  -4.046355e+02   9.470936e+01
  -1.584502e+02  -8.692984e+01
   6.444273e+01  -1.063714e+01
   1.396636e+02   8.123597e+01
  -1.247328e+02   1.334682e+02
  -2.856199e+02  -7.207815e+01
  -1.749102e+02  -2.396494e+02
   2.067237e+02  -2.885648e+02
   3.290573e+02  -1.088946e+02
   2.430635e+02   3.815757e+01
  -1.341422e+01   2.505185e+02
  -2.503865e+02   3.156994e+02
  -3.488624e+02   2.400207e+02
  -2.831437e+02  -1.054268e+02
  -6.361608e+01  -4.160227e+02
   5.524972e+01  -3.783050e+02
   9.764161e+01  -2.052421e+02
   7.645653e+01  -3.202425e+01
   1.092135e+02  -1.221950e+02
   2.481758e+02  -1.321835e+02
   2.271089e+02   9.590925e+01
   1.457621e+02   2.349906e+02
  -1.063651e+02   2.282251e+02
  -1.922259e+02   3.227697e+01
  -1.712338e+02  -2.271843e+02
  -1.678351e+01  -2.465187e+02
   2.610570e+02  -9.123125e+01
   3.586956e+02   2.238253e+02
   1.624676e+02   2.944089e+02
  -5.588433e+01   3.052145e+02
  -1.765135e+02   1.560769e+02
  -1.399492e+02   5.914622e+01
  -1.162541e+02   1.176581e+02
  -2.239295e+02   3.911128e+01
  -4.017082e+02  -4.765102e+01
  -3.418264e+02  -3.100084e+02
   6.439825e+01  -3.945677e+02
   3.043666e+02  -3.835317e+02
   4.731304e+02  -2.483321e+02
   3.203496e+02   1.124895e+02
   5.227139e+01   2.411221e+02
  -1.330458e+02   2.279887e+02
  -3.966128e+01   4.008788e+01
   1.178834e+02  -6.692661e+01
   1.336897e+02   3.022556e+01
   3.949694e+01   1.515208e+02
  -1.642505e+02   1.229370e+02
  -1.206593e+02  -9.675321e+01
   4.941586e+01  -1.564653e+02
   1.824292e+02  -2.812160e+01
   1.607614e+02   2.853365e+02
  -2.648271e+01   3.752671e+02
  -2.526934e+02   1.751165e+02
  -3.629730e+02   1.058557e+00
  -3.703943e+02  -2.235257e+02
  -8.549058e+01  -2.706086e+02
   7.761307e+01  -1.696185e+02
   1.109834e+02  -2.556948e+01
   5.685274e+01   3.147636e+01
  -7.229728e+01  -8.096858e+01
  -2.329777e+01  -1.158772e+02
   7.990646e+01  -8.918040e+01
   1.671672e+02   1.080320e+00
   2.237820e+01   4.966442e+01
  -8.075962e+01   3.108641e+00
  -5.034152e+01  -9.623973e+01
   1.753826e+02  -9.076269e+01
   2.728603e+02  -7.587354e+00
   2.951310e+02   1.314514e+02
   7.727438e+01   2.329429e+02
  -1.780882e+02   2.878461e+02
  -2.552116e+02   1.148203e+02
  -1.506282e+02  -3.904140e+01
   1.712213e+01  -1.162405e+02
   8.433009e+01   3.880880e+01
  -2.237366e+00   8.720585e+01
  -1.600809e+02   6.534744e+01
  -1.472406e+02  -1.363977e+02
  -7.872340e+01  -1.442086e+02
   6.045514e+01  -1.293665e+02
   9.985481e+01  -2.114615e+01
   1.007222e+01   1.853362e+01
  -4.924844e+01   1.992596e+01
  -1.105246e+01  -9.352967e+01
   8.748773e+01  -9.186493e+01
   1.680366e+02  -2.050142e+01
   2.082984e+02   1.379649e+02
   3.528194e+01   2.063779e+02
  -1.373216e+02   1.645938e+02
  -1.750295e+02   8.354449e+00
  -9.015358e+01  -7.975416e+01
   7.508818e+01  -1.142765e+02
   9.353439e+01  -1.492404e+01
  -4.545043e-01   4.073367e+01
  -3.623674e+01  -4.456212e+00
   4.162954e+01  -5.690213e+00
   7.258368e+01  -4.248983e+00
   9.846585e+01   4.782127e+01
   3.062018e+01   1.592703e+02
  -1.011411e+02   1.331842e+02
  -2.427124e+02   2.457713e+01
  -2.219012e+02  -1.399658e+02
  -3.004265e+01  -2.315437e+02
   1.058552e+02  -1.414702e+02
   1.522166e+02  -8.529974e+01
   6.689027e+01   5.340160e+01
   4.123510e+01   2.680642e+01
   7.325062e+01  -1.882794e+00
   1.386481e+02  -5.439713e+01
   9.861724e+01   4.458006e+01
  -3.895873e+01   7.208282e+01
  -8.397242e+01   9.001144e+01
  -1.228619e+02  -9.766673e+00
  -2.741394e+01  -1.660669e+02
   1.464929e+02  -1.418496e+02
   2.209789e+02   4.314619e+01
   6.675254e+01   1.482499e+02
  -1.227811e+02   1.787774e+02
  -2.883456e+02   1.063768e+02
  -2.275446e+02  -7.418342e+01
  -1.334572e+02  -1.967236e+02
   6.784705e+01  -1.669882e+02
   1.046278e+02  -5.537343e+01
   8.526285e+01  -1.014869e+02
   4.797769e+01  -9.672564e+01
   8.138678e+01  -1.307712e+02
   1.294324e+02   3.361934e+01
   1.380744e+02   1.730144e+02
   3.353616e+01   2.219951e+02
  -8.964320e+01   1.538595e+02
  -1.408378e+02   1.298993e+01
  -1.041539e+02  -1.260689e+02
  -8.630413e+00  -1.485252e+02
   5.298699e+01  -6.716030e+01
   1.683457e+01   2.040896e+01
   3.749240e+01   2.467547e+01
   3.431709e+00  -4.265524e+01
   1.348092e+01   1.898081e+01
   1.218448e+02  -1.698890e+01
  -1.739805e+00   6.652328e+01
  -2.977336e+01   1.384420e+00
  -1.785236e+02  -4.291395e+01
  -1.576283e+02  -5.052128e+01
   1.733380e+01  -7.000271e+01
   1.299516e+02  -5.566796e+01
   1.443991e+02  -5.390984e+00
   2.892278e+01   3.116910e+01
  -1.081850e+02   1.676882e+01
  -1.238028e+02  -4.787911e+00
  -3.512738e+01  -9.767732e+01
   8.774139e+01  -2.960357e+01
   5.418725e+01   2.473206e+01
   5.696664e+01   3.443570e+01
   4.598008e+01   3.795158e+01
   4.874407e+01  -1.256279e+01
   3.718149e+01  -1.369096e+00
   3.857055e+01   8.827258e+01
  -3.000954e+01   1.587061e+02
  -1.351954e+02   1.047664e+02
  -1.480735e+02   7.011923e+01
  -1.050237e+02  -7.463378e+01
  -4.508746e+01  -1.383370e+02
   7.689858e+01  -1.003054e+02
   5.238824e+01   5.438951e+00
  -3.159003e+01  -3.009178e-01
  -8.060416e+01  -4.205207e+01
  -9.077414e+01  -6.729586e+01
   7.802023e+01  -8.956589e+01
   1.760303e+02  -8.033987e+01
   1.631323e+02   1.656196e+01
   3.933734e+01   7.755470e+01
  -5.884036e+01   3.443391e+01
  -3.916906e+01   3.269783e+00
   3.829580e+01  -6.982955e+00
   1.238581e+02   5.302038e+01
   4.633457e+01   1.179846e+02
  -7.749622e+01   1.519191e+02
  -1.681294e+02   9.069043e+01
  -1.469128e+02  -9.271334e+01
  -4.022179e+01  -1.691550e+02
   8.525674e+01  -1.666917e+02
   9.234854e+01  -9.288225e+00
   6.123875e+01   1.028435e+02
  -5.084968e+01   7.331386e+01
  -4.790549e+01   6.575090e+01
  -7.911573e+01  -4.653108e+01
  -4.430296e+01  -1.309541e+01
   3.311918e+00   1.306879e+01
  -3.592966e+01  -4.493334e+01
  -7.079954e+01  -7.750210e+01
  -1.747079e+01  -1.234525e+02
   1.832755e+01  -3.246111e+01
   1.303887e+02   4.670082e+01
   1.433518e+02   4.256813e+01
   1.457820e+01   6.599153e+01
  -1.061525e+02   4.953943e+01
  -9.605956e+01   2.218688e+01
  -3.879600e+01  -5.060693e+00
   4.195192e+01  -7.953035e+01
   5.167402e+01  -4.862656e+01
  -1.983905e+01  -1.976927e+01
   9.643184e-01   1.791304e+01
   5.428121e+01   3.992944e+01
   1.436070e+02   1.926190e+01
   2.351919e+01   1.152121e+02
  -1.335329e+02   1.454219e+02
  -2.384943e+02   4.235995e+01
  -1.468396e+02  -7.639177e+01
  -2.001263e+01  -1.699052e+02
   4.543164e+01  -1.729652e+02
   1.305944e+02  -9.140629e+01
   6.012178e+01  -4.126250e+00
   4.869315e+01   5.084654e+01
   2.972113e+01   3.948189e+01
   9.928814e+00   1.929329e+01
   3.728530e+00   6.050195e+01
   3.615759e+01   8.057441e+01
   1.395249e+00   8.600700e+01
  -7.365274e+01  -1.019752e+01
  -7.314097e+01  -1.280395e+02
  -1.174303e+01  -8.711774e+01
   3.602601e+01  -2.211625e+01
   1.431333e+02   3.007872e+01
   3.390680e+01   1.347717e+02
  -7.225116e+01   9.012280e+01
  -1.036626e+02  -1.110593e+01
  -3.973408e+01  -6.662163e+01
   6.538395e+01  -6.962933e+01
   7.455653e+01  -3.741522e+01
  -8.343723e+00   6.160708e+01
  -7.298817e+01   1.954433e+01
  -3.341216e+01  -2.911072e+01
   4.068870e+01  -3.252027e+01
   9.845490e+01  -7.419171e+01
   7.250563e+01   3.899710e+01
   3.740602e-01   8.062050e+01
  -7.556560e+01   8.339523e+01
  -5.468258e+01   6.235608e+00
  -1.527252e+01  -5.306560e+01
   8.303362e+00  -2.156828e+01
   4.010840e+01   3.818119e+01
   2.473504e+01   6.604012e+01
   2.891182e+01   3.637551e+01
  -3.149070e+01   2.664448e+01
  -4.205790e+01  -5.396174e+01
  -2.446149e+01   6.555147e+00
   2.978421e+00   1.369182e+01
   1.337606e+01   1.165792e+01
  -6.759988e+00  -4.171158e+01
  -2.429051e+01  -4.237535e+01
  -2.217878e+01  -9.640373e+00
   7.706001e+01   1.937227e+01
   2.611050e+00   6.504068e+01
  -6.457499e+01   3.385946e+01
  -8.755400e+01  -5.037615e+01
  -5.895624e+00  -8.185841e+01
   5.428753e+01  -4.381010e+01
   7.774395e+01   4.742577e-02
   5.122706e+01   6.151140e+01
  -4.143453e+00   2.425391e+01
  -5.880039e+01   1.826580e+01
  -1.299131e+01  -2.330788e+00
   3.094896e+01  -2.225465e+01
   4.332408e+01  -2.785922e+01
   2.800437e+01   1.968666e+01
  -9.919216e+01  -1.528270e+01
