
 $NMID
 id='ANONYMOUS ', fmtdat='(2E16.6)'
 volume=1.0
 tramp=1.0
 $END
  -4.375970e+03  -2.541464e+01
  -2.559944e+03  -3.052974e+03
   9.244999e+02  -2.856270e+03
   2.408886e+03  -8.666801e+02
   1.057319e+03   7.389327e+02
  -6.666985e+02   6.836307e+02
  -1.046748e+03  -4.130711e+02
  -1.868931e+01  -1.181975e+03
   9.859484e+02  -8.935224e+02
   1.034547e+03   1.310786e+02
   4.461314e+02   9.497733e+02
  -3.081867e+02   1.007194e+03
  -7.073977e+02   1.604431e+02
  -4.455851e+02  -8.142759e+02
   3.028681e+02  -8.274910e+02
   6.639093e+02  -6.152351e+00
   3.415851e+02   7.130279e+02
  -3.923893e+02   6.752640e+02
  -5.762915e+02   1.231042e+02
  -3.378787e+02  -4.052307e+02
   2.018423e+01  -4.937738e+02
   3.014245e+02  -3.117887e+02
   3.280149e+02   4.436007e+01
  -9.871879e+01   1.780003e+02
  -4.694047e+02  -7.315979e+01
  -2.254832e+02  -4.578978e+02
   4.920727e+02  -4.444028e+02
   9.137639e+02   2.967457e+01
   4.751850e+02   6.003170e+02
  -4.007305e+02   5.202620e+02
  -8.839399e+02  -1.133088e+01
  -3.484086e+02  -5.228664e+02
   2.691467e+02  -6.096323e+02
   6.143863e+02  -2.352373e+02
   4.883573e+02   2.858426e+02
   6.398522e+01   5.250918e+02
  -2.657297e+02   3.575138e+02
  -2.586862e+02  -2.068181e+02
   1.688197e+02  -4.872767e+02
   4.957014e+02  -2.273406e+01
   2.992448e+02   7.122301e+02
  -3.962423e+02   7.366228e+02
  -6.731765e+02   2.443036e+01
  -2.579900e+02  -6.052190e+02
   3.186223e+02  -3.746147e+02
   4.132107e+02   3.229930e+02
  -7.437197e+00   5.921307e+02
  -6.278613e+02   1.552499e+02
  -6.580370e+02  -4.039813e+02
  -1.737949e+02  -6.420357e+02
   3.822831e+02  -4.185460e+02
   6.963044e+02   3.544234e+01
   4.189528e+02   4.257094e+02
  -1.703425e+02   4.386572e+02
  -5.058275e+02   3.475060e+01
  -2.281410e+02  -2.178801e+02
   1.300750e+02  -1.316658e+02
   1.820915e+02   1.600616e+02
  -2.318746e+02   2.608499e+02
  -3.528491e+02  -5.549327e+01
  -1.540391e+02  -3.308915e+02
   1.242749e+02  -3.172031e+02
   2.969776e+02  -9.699863e+01
   2.149327e+02   9.250894e+01
  -2.837823e+00   2.052006e+02
  -1.719160e+02   3.726376e+02
  -3.349385e+02   2.043703e+02
  -3.074987e+02  -1.465176e+02
  -8.391189e+01  -4.437809e+02
   1.302838e+02  -4.281637e+02
   1.004417e+02  -7.601167e+01
   6.256894e+01   6.738831e+01
   2.510614e+01  -8.376960e+01
   1.314262e+02  -1.764613e+02
   2.821755e+02   4.447977e+01
   1.914299e+02   3.034095e+02
  -5.282662e+01   2.632751e+02
  -2.364015e+02   9.809498e+00
  -1.985349e+02  -2.495046e+02
   4.302830e+00  -3.483069e+02
   2.939977e+02  -1.648745e+02
   3.802664e+02   1.322718e+02
   1.839556e+02   3.716999e+02
  -1.123299e+02   3.188010e+02
  -3.032880e+02   1.314873e+02
  -1.109574e+02   1.387035e+01
  -6.726350e+01   4.409908e+01
  -2.020030e+02   5.563719e+01
  -4.129335e+02  -5.453388e+01
  -3.363472e+02  -2.613032e+02
  -7.614780e+01  -4.508475e+02
   4.038366e+02  -4.598267e+02
   4.982755e+02  -1.911291e+02
   3.563496e+02   1.464840e+02
   7.753186e+01   2.787021e+02
  -9.154054e+01   3.351016e+02
  -1.137539e+02   3.188274e+01
   9.246938e+01  -1.648900e+02
   2.210642e+02   3.667746e+01
   1.025124e+02   2.012491e+02
  -2.074789e+02   1.684744e+02
  -2.047543e+02  -9.200549e+01
  -1.632434e+01  -2.470854e+02
   2.141826e+02  -7.796491e+01
   1.976505e+02   2.914747e+02
  -8.085887e+01   3.257322e+02
  -2.175443e+02   2.287051e+02
  -3.312745e+02  -3.951387e+01
  -2.801976e+02  -2.870750e+02
  -1.111122e+02  -2.836085e+02
   1.247448e+02  -1.675540e+02
   2.106129e+02  -2.092135e+01
   6.653456e+01   1.475876e+01
  -7.815175e+01  -6.678511e+01
  -8.950327e+01  -1.476731e+02
   1.283965e+02  -1.150155e+02
   1.788508e+02   2.022349e-01
   8.390197e+01   1.094272e+02
  -7.832672e+01   3.632696e+01
  -7.518288e+01  -9.706552e+01
   1.323721e+02  -5.633242e+01
   3.070176e+02  -2.186111e+00
   3.109074e+02   5.488766e+01
   9.576969e+01   2.882997e+02
  -1.669310e+02   2.668954e+02
  -3.651892e+02   1.614989e+02
  -1.825974e+02  -2.872398e+01
   1.429986e+01  -1.110498e+02
   8.914874e+01  -3.078907e+01
  -2.139035e+01   7.010349e+01
  -2.126466e+02   8.106588e+01
  -1.939961e+02  -6.589469e+01
  -2.517794e+01  -1.904566e+02
   1.026054e+02  -1.964022e+02
   1.594853e+02  -1.942878e+01
   7.337425e+01   2.114728e+01
  -1.003475e+01   1.948794e+01
  -8.180793e+01  -9.584175e+01
   6.293485e+01  -1.052004e+02
   1.577011e+02  -4.575507e+01
   2.203879e+02   1.407841e+02
   1.885295e+01   2.224274e+02
  -1.748046e+02   1.979450e+02
  -2.096987e+02   2.002549e+01
  -4.756842e+01  -1.628820e+02
   4.064010e+01  -1.286394e+02
   4.810087e+01  -5.547700e+01
   4.115971e+01   1.199662e+01
  -1.544664e+01   2.705773e+01
  -1.111732e+01  -1.939454e+01
   4.514885e+01   1.099616e+01
   8.491498e+01   1.080011e+02
   4.592386e+01   1.810933e+02
  -1.232759e+02   1.559408e+02
  -2.451571e+02   2.259476e+01
  -2.361861e+02  -1.070373e+02
  -2.226381e+01  -2.384796e+02
   1.370524e+02  -1.783790e+02
   1.249202e+02  -6.350855e+01
   9.648697e+01   7.682722e+01
   5.719007e+01   2.564917e+01
   8.287925e+01  -4.809733e+00
   8.368674e+01  -3.486192e+01
   7.140400e+01   3.549389e+01
  -4.842974e+01   9.792419e+01
  -7.646303e+01   3.627188e+01
  -7.961760e+01  -4.037991e+00
   3.849158e+00  -8.441079e+01
   1.324729e+02  -8.164037e+01
   2.179012e+02   5.569664e+01
   1.440847e+02   2.467538e+02
  -9.777274e+01   2.728058e+02
  -3.050680e+02   6.427996e+01
  -2.714953e+02  -1.036857e+02
  -1.119007e+02  -2.121264e+02
   8.097654e+01  -1.986149e+02
   1.079367e+02  -1.179267e+02
   7.314691e+01  -1.685881e+01
   6.105143e+01  -8.004439e+01
   1.126428e+02  -6.762982e+01
   1.388860e+02   5.801537e+01
   1.690232e+02   9.683304e+01
  -1.586623e+01   2.904236e+02
  -1.446521e+02   2.138895e+02
  -1.903967e+02   1.065076e+01
  -1.064803e+02  -1.276339e+02
  -2.343628e+01  -1.719871e+02
   7.407964e+01  -5.561565e+01
   7.247309e+01   5.664865e+00
   4.240164e+01   4.068005e+01
  -1.919535e+01   2.509271e+01
   2.709898e+01  -1.793671e-01
   7.265529e+01   3.682128e+01
   6.433464e+01   2.047497e+01
  -6.381066e+01   4.023086e+01
  -1.171729e+02   2.908942e+01
  -1.755473e+02  -4.942929e+01
  -2.081491e+01  -7.195040e+01
   1.060336e+02  -5.471263e+01
   1.461162e+02  -1.262989e+01
   5.218111e+01   6.158718e+01
  -5.462192e+01   4.774984e+01
  -1.148053e+02   4.769808e+00
  -2.974193e+01  -5.300764e+01
   2.436037e+01  -1.143994e+01
   5.482864e+01  -1.010557e+01
   5.213642e+01   9.993151e+00
   3.277700e+01   4.110550e+01
   5.301118e+01   2.127767e+01
   6.667876e+01  -1.166043e-01
   3.840248e+01   3.993376e+01
  -2.355898e+01   1.970798e+02
  -1.154621e+02   1.165503e+02
  -1.776056e+02   5.294062e+01
  -1.160322e+02  -1.364070e+02
  -2.062188e+01  -1.213660e+02
   1.072149e+02  -5.948588e+01
   4.109858e+01   2.399076e+01
  -5.476011e+01   2.468247e+01
  -1.692660e+02  -2.264514e+01
  -1.155450e+02  -8.077676e+01
   8.294245e+01  -7.740807e+01
   1.975297e+02  -5.007958e+01
   1.395624e+02   3.085973e+01
   1.637268e+01   1.176864e+02
  -6.234111e+01   5.137455e+01
  -3.889684e+01   2.185381e+01
   2.676066e+01  -4.236259e+01
   7.551549e+01   2.399674e+01
   2.070078e+01   1.043710e+02
  -5.835257e+01   1.688562e+02
  -1.807130e+02   3.579208e+01
  -1.404320e+02  -1.348100e+02
  -5.441646e+01  -2.094910e+02
   1.091368e+02  -1.470024e+02
   1.248412e+02  -2.278619e+01
   6.264100e+01   1.471350e+02
  -3.635756e+00   1.059133e+02
  -8.298065e+01   9.411691e+00
  -8.101627e+00  -5.586058e+01
  -2.139943e+01   3.497343e+00
  -1.998258e+01   2.296513e+01
  -3.296812e-01  -3.834085e+01
  -1.743219e+01  -7.660752e+01
  -5.183973e+01  -1.081272e+02
   7.769288e+01  -3.184811e+01
   1.125113e+02   1.426926e+01
   9.064762e+01   8.045119e+01
  -1.310738e+00   1.001414e+02
  -9.771955e+01   2.996387e+01
  -8.325879e+01   4.224645e+01
  -2.974346e+01  -8.364521e+00
   4.889438e+01  -1.590822e+01
  -1.368976e+01  -1.876089e+01
   5.439920e+00  -1.603008e+01
   3.712565e+01  -1.950639e+01
   1.080559e+02   1.456804e+01
   8.989050e+01   1.034756e+01
   5.592145e+01   8.849337e+01
  -1.095093e+02   9.793323e+01
  -1.954211e+02   6.985034e+01
  -1.317291e+02  -5.946322e+01
  -3.571697e+01  -1.838228e+02
   8.968145e+01  -1.078798e+02
   1.480684e+02  -2.584096e+01
   8.837622e+01  -2.717160e+00
   4.586530e+01  -9.761940e+00
   2.756324e+00  -5.022301e+01
   2.102569e+01   3.871126e+00
   3.306360e+01   5.438583e+01
   2.507024e+01   7.294389e+01
  -8.238689e+01   5.949529e+01
  -7.435282e+01  -4.460555e+01
  -6.586081e+01  -1.020621e+02
   1.075241e+00  -1.135458e+02
   9.305507e+01  -2.198106e+01
   9.524058e+01   9.022944e+01
   1.974542e+01   6.501869e+01
  -7.915643e+01   5.868309e+01
  -1.129786e+02  -8.882664e+00
   6.018162e+00  -1.271392e+01
   4.712650e+01  -2.944817e+01
   1.411285e+01  -1.671811e+01
  -3.129375e+01   1.300008e+01
  -7.868805e+01  -2.186821e+01
  -8.502679e+00  -1.666602e+00
   6.405233e+01  -4.378894e+01
   8.948573e+01  -7.090716e+01
   4.007512e+01   3.506166e-01
   2.677864e+01   8.486939e+01
  -4.561852e+01   9.293599e+01
  -3.297832e+01  -2.414987e+01
  -1.279190e+01  -3.282692e+01
   1.342638e+01  -1.027228e+01
   5.116286e+01   1.524204e+01
   3.599023e+01   3.831990e+01
  -4.385252e-01   1.207187e+01
  -4.546066e+01   1.443981e+01
  -8.979835e+01   2.154896e-01
  -5.108743e+01  -6.679015e+00
   1.746974e+00   1.869909e+01
  -2.638457e+01  -3.286569e+01
  -1.176043e+00  -2.399230e+01
  -3.250610e+01  -5.377250e+01
   6.624460e+01   1.108617e+01
   3.372651e+01   2.186039e+01
  -2.588112e+01   8.340633e+01
  -3.755999e+01   4.092082e+01
  -3.972516e+01  -4.052430e+01
  -2.893888e+01  -6.080627e+01
   7.291214e+01  -4.371847e+01
   1.116709e+02   2.699797e+01
   5.068629e+01   3.290348e+01
   6.669493e+00   2.945154e+01
  -7.287475e+01   1.405440e+00
  -3.997552e+01  -7.656327e+00
   5.221548e+01  -2.394920e+01
   2.990627e+01   3.430619e+01
  -6.260108e+01   1.020098e+01
  -6.985262e+01   5.618377e+00
