
 $NMID
 id='ANONYMOUS ', fmtdat='(2E16.6)'
 volume=1.0
 tramp=1.0
 $END
   4.338556e+03  -2.499207e+01
   2.816121e+03   2.467442e+03
  -7.800669e+02   2.711113e+03
  -2.115633e+03   1.033340e+03
  -1.040054e+03  -5.927541e+02
   6.627151e+02  -6.950680e+02
   9.273116e+02   3.906740e+02
   7.035436e+01   1.197493e+03
  -7.600775e+02   8.838058e+02
  -9.968750e+02  -6.565615e+01
  -5.007074e+02  -8.568782e+02
   2.326396e+02  -8.625921e+02
   6.460143e+02  -1.373153e+02
   4.482450e+02   7.592312e+02
  -2.551910e+02   8.625023e+02
  -6.110725e+02   9.195371e+01
  -3.244981e+02  -6.732523e+02
   2.635759e+02  -6.947820e+02
   6.334065e+02  -1.139899e+02
   4.366814e+02   3.603286e+02
   7.757042e+01   4.996907e+02
  -2.562068e+02   3.160484e+02
  -1.972613e+02   2.647597e+01
   1.273635e+02  -1.165593e+02
   4.264154e+02   4.709033e+01
   2.332345e+02   4.466098e+02
  -4.646525e+02   4.158437e+02
  -8.286703e+02   5.326225e+00
  -5.017284e+02  -5.448549e+02
   3.738651e+02  -5.399830e+02
   7.455152e+02   6.541201e+01
   3.733793e+02   5.254152e+02
  -2.431404e+02   5.462787e+02
  -5.959112e+02   2.832162e+02
  -4.233165e+02  -1.292152e+02
  -9.174257e+01  -4.686169e+02
   2.135110e+02  -3.339756e+02
   1.912568e+02   2.533953e+02
  -1.480674e+02   5.064041e+02
  -4.738081e+02   1.373019e+01
  -1.759865e+02  -6.753615e+02
   3.510715e+02  -7.430735e+02
   5.977529e+02   1.093508e+01
   2.993926e+02   5.471374e+02
  -2.436950e+02   3.223124e+02
  -4.103785e+02  -2.969872e+02
   5.352487e+01  -5.571929e+02
   5.701620e+02  -9.550763e+01
   6.255298e+02   3.728789e+02
   2.182157e+02   5.974454e+02
  -3.968834e+02   3.482032e+02
  -6.903025e+02  -5.578144e+01
  -4.342300e+02  -3.698580e+02
   1.127468e+02  -3.633343e+02
   4.784965e+02  -4.016756e+01
   2.412246e+02   1.668125e+02
  -5.695119e+01   1.205743e+02
  -1.650089e+02  -1.108644e+02
   1.410032e+02  -2.267345e+02
   3.568811e+02   7.778752e+01
   1.585010e+02   3.657070e+02
  -1.718961e+02   2.616751e+02
  -3.520000e+02   1.159058e+02
  -2.524793e+02  -3.791269e+01
   2.369743e+01  -2.099357e+02
   2.548188e+02  -3.765988e+02
   3.356361e+02  -3.058700e+02
   3.388373e+02   1.585005e+02
   4.365305e+01   4.527127e+02
  -1.029922e+02   3.863313e+02
  -1.258820e+02   1.087231e+02
  -2.318427e+01   1.233422e+00
  -3.719483e+01   1.408894e+02
  -2.165017e+02   1.451676e+02
  -3.554007e+02  -7.312143e+01
  -2.201329e+02  -2.848958e+02
   3.938644e+01  -3.112228e+02
   2.729659e+02  -2.126969e+01
   2.212507e+02   2.503418e+02
   6.439304e+01   2.864476e+02
  -2.531422e+02   1.227163e+02
  -3.844033e+02  -1.439185e+02
  -1.782806e+02  -3.659804e+02
   5.328786e+01  -3.189881e+02
   2.347058e+02  -1.395885e+02
   1.778364e+02  -9.676538e+00
   1.126193e+02  -3.258494e+01
   2.578349e+02  -1.107298e+02
   4.581088e+02   3.295998e+01
   4.142433e+02   2.651653e+02
   2.062892e+01   4.711775e+02
  -3.471475e+02   4.766753e+02
  -4.777104e+02   2.063802e+02
  -4.104243e+02  -1.222194e+02
  -5.268336e+01  -2.925119e+02
   1.414107e+02  -2.479536e+02
   9.022019e+01  -5.134824e+01
  -1.677992e+02   1.257081e+02
  -2.174341e+02  -2.878129e+01
  -5.104196e+01  -2.093224e+02
   1.577793e+02  -1.910841e+02
   1.675511e+02   4.005203e+01
   3.893966e+01   2.020329e+02
  -1.813755e+02   2.475691e+01
  -1.713661e+02  -2.255389e+02
   3.384729e+01  -3.485024e+02
   2.525892e+02  -2.275796e+02
   3.354547e+02   1.573808e+01
   3.310976e+02   1.993244e+02
   1.718634e+02   2.542362e+02
  -9.920312e+01   2.095969e+02
  -1.734865e+02   6.933842e+01
  -1.140149e+02  -3.323352e+01
   6.613522e+01  -2.684554e+01
   1.080553e+01   1.130998e+02
  -1.041258e+02   1.500506e+02
  -1.638114e+02  -2.124039e+01
  -6.241332e+01  -2.688388e+01
   8.093675e+01  -3.021852e+01
   1.737864e+01   8.201804e+01
  -9.729182e+01   1.230259e+02
  -2.419803e+02   4.378664e+01
  -3.173875e+02  -1.410533e+02
  -4.750068e+01  -2.428517e+02
   1.933112e+02  -2.667905e+02
   3.194702e+02  -1.337699e+02
   2.388854e+02   3.807999e+01
  -3.702495e+01   1.109701e+02
  -7.000251e+01   3.773509e+01
   2.218425e+01  -1.012390e+02
   1.452581e+02  -7.246405e+01
   2.256578e+02   9.353535e+01
   6.183727e+01   2.186650e+02
  -9.447452e+01   1.805609e+02
  -1.581967e+02   6.237242e+01
  -1.109816e+02  -8.493529e+01
   6.794635e+01   1.086589e+01
  -2.177849e+01   8.503198e+01
  -7.444229e+01   1.208244e+02
  -1.735772e+02   4.438529e+01
  -1.897161e+02  -8.807629e+01
  -5.764368e+01  -2.093924e+02
   1.743087e+02  -1.766500e+02
   1.673602e+02  -4.858670e+01
   6.108378e+01   1.069892e+02
  -7.242593e+01   1.477546e+02
  -1.240755e+02  -3.145074e+01
  -2.071713e+01  -2.386025e+01
   3.077422e+01  -7.589398e+00
   7.173422e-01  -1.311204e+01
  -4.725925e+01  -9.154271e+00
  -7.358892e+01  -1.228767e+02
  -3.477252e+01  -1.158014e+02
   1.353008e+02  -1.669992e+02
   2.613355e+02  -2.277261e+01
   2.221139e+02   1.590382e+02
   8.083348e+01   2.663450e+02
  -1.325281e+02   1.820473e+02
  -1.693630e+02   7.006652e+01
  -1.111939e+02  -3.187258e+01
  -5.768999e+01  -1.554370e+01
  -8.893016e+01  -4.693292e+00
  -7.449396e+01   6.780602e+00
  -3.443097e+00  -5.933893e+01
   5.716451e+01  -1.056113e+02
   1.332130e+02  -3.184008e+01
   8.397667e+01   5.776458e+01
  -3.566242e+01   9.751045e+01
  -1.985018e+02   7.838007e+01
  -2.188332e+02  -4.750733e+01
  -1.545012e+02  -2.246623e+02
   1.083433e+02  -2.856476e+02
   2.646952e+02  -1.173708e+02
   3.130743e+02   4.232812e+01
   1.242439e+02   1.764290e+02
   2.339160e+01   1.111110e+02
  -1.159598e+02   6.919773e+01
  -1.353407e+02   8.557024e+01
  -9.871116e+01   8.374472e+01
  -9.128006e+01   9.737429e+01
  -1.353229e+02  -4.316022e+01
  -1.268859e+02  -1.536432e+02
   8.040166e+00  -2.266184e+02
   7.854813e+01  -2.079431e+02
   1.569581e+02  -5.355769e+01
   1.257734e+02   1.200819e+02
   4.122333e+01   1.879214e+02
  -5.624237e+01   9.899810e+01
  -3.091323e+01   4.404013e+00
   1.371558e+00  -4.311466e+01
   1.285573e+01  -3.381741e+00
  -8.604518e+00  -4.039684e+01
  -1.400524e+02  -1.161448e-02
  -5.657430e+01  -4.784974e+01
   5.758480e+01  -3.628129e+01
   1.800425e+02  -3.090611e+01
   1.452233e+02   1.271795e+01
   4.014139e+01   1.048331e+02
  -1.167850e+02   9.745514e+01
  -1.506294e+02   4.925519e+01
  -8.712621e+01  -2.464903e+01
   1.250139e+02  -4.746324e+01
   1.036130e+02   1.582602e+01
   1.635461e+01   8.217373e+01
  -3.301469e+01   6.345191e+01
  -4.199251e+01   1.250084e+01
  -1.418245e+01  -5.531824e+01
  -3.569108e+01  -1.151132e+01
  -5.960340e+01   1.915485e+01
  -9.455136e+01  -4.372616e+01
  -1.482057e+01  -7.542361e+01
   1.052704e+01  -1.503346e+02
   1.214919e+02  -1.311125e+02
   1.527227e+02  -3.138039e+01
   1.459085e+02   9.101131e+01
   3.876352e+01   1.266017e+02
  -8.507436e+01   7.448664e+01
  -4.512421e+01  -3.675948e+01
   2.621197e+01  -3.977853e+01
   1.683206e+02   5.698951e+01
   1.057346e+02   1.155094e+02
  -8.355053e+01   6.856958e+01
  -1.835410e+02   7.682204e+01
  -1.838735e+02  -3.196750e+00
  -6.106797e+01  -7.261031e+01
   2.096961e+01  -5.026677e+01
   2.835437e+01  -4.764559e+01
  -5.031751e+01   2.173457e+01
  -1.676585e+02  -5.679790e+01
  -1.063590e+01  -9.180743e+01
   3.468671e+01  -1.580948e+02
   1.902443e+02  -4.955392e+01
   1.663778e+02   5.429355e+01
   5.572910e+01   1.886607e+02
  -9.723098e+01   1.592528e+02
  -1.042866e+02  -3.721031e+01
  -5.937509e+01  -1.205737e+02
  -2.104651e+01  -1.055364e+02
   4.265073e+01  -6.520382e+01
   6.463784e+01   2.484970e+01
   2.137921e+01   3.657516e+01
  -1.010867e+01  -1.666547e+01
   4.382151e+01   3.872307e+01
   5.444575e+01   8.822602e+01
   4.495244e+01   8.497369e+01
  -7.441766e+01   3.542955e+01
  -1.248691e+02   9.005487e+00
  -9.630681e+01  -8.954250e+01
  -2.536771e+01  -5.952967e+01
   1.113216e+02  -3.716548e+01
   9.736361e+01   4.321440e+00
  -4.118349e+00  -4.984897e+00
  -3.319151e+01   2.248501e+01
  -9.643848e+00  -2.837627e+01
  -2.079662e+01   7.403828e+00
  -8.098735e+01  -2.961917e+01
  -1.104907e+02  -7.323877e+00
  -8.336936e+01  -3.246147e+01
  -9.102553e+00  -5.661691e+01
   5.787849e+01  -1.236319e+02
   2.049180e+02  -3.561565e+01
   1.397947e+02   6.493002e+01
   5.641943e+01   1.712339e+02
  -5.185075e+01   1.452070e+02
  -1.150321e+02   9.284249e+01
  -1.000565e+02   1.140753e+01
  -1.817974e+01   1.630595e+01
   1.239585e+01  -2.922060e+01
   3.486751e+01  -9.656418e+00
  -2.041986e+01  -3.664468e+01
  -2.854940e+01  -9.319403e+01
   2.910881e+01  -7.576901e+01
   5.309400e+01   1.435295e+01
   7.448017e+01   9.170273e+01
  -1.780563e+00   1.398848e+02
  -5.681645e+01   8.179163e+00
  -1.106518e+02  -6.454969e+01
  -3.963107e+01  -8.161773e+01
   8.631499e+01  -9.063549e+01
   6.647618e+01  -1.037214e+01
   5.320785e+01   2.309074e+01
  -1.576874e+01   4.033541e+01
  -8.301453e+01   1.322992e+01
   8.741330e-01  -3.076996e+01
   6.636499e+01  -1.527469e+01
  -4.906598e+00   2.111780e+01
  -9.345684e+01   7.568564e+01
  -1.198214e+02   8.814074e+01
  -4.317064e+01   2.143016e+01
   2.843164e+01  -1.045371e+02
   8.230738e+01  -8.247895e+01
   1.125426e+00   2.285003e+01
   1.462000e+01   2.725628e+01
  -2.240974e+01   2.362187e+01
  -3.898801e+01  -6.246870e+01
   1.626101e+00  -4.745006e+01
   3.341803e+01  -1.533045e+01
   9.912945e+00  -1.473969e+01
   1.896338e+01   3.756851e+01
   4.595583e+01   3.549538e+01
  -6.357021e-01   4.476862e+00
   1.327896e+00   2.160163e+01
  -5.714570e+00   2.479866e+01
   4.939000e+00   2.586371e+01
  -1.739460e+01   8.500254e+00
  -2.786541e+01  -4.789117e+01
  -9.550185e+00  -8.676309e+01
   7.483956e+01  -3.617434e+01
   7.401921e+01   7.022019e+01
  -8.551578e+00   6.305247e+01
   4.522991e-01   2.838692e+01
  -8.663168e+01   3.816799e+00
  -5.606151e+01   1.789424e+01
   2.133437e+01  -9.573961e+01
   5.748826e+01  -1.582729e+01
   3.864236e+01  -4.085939e+00
  -5.626940e+01  -1.085954e+01
  -3.657571e+01  -1.504816e+01
   6.841822e+01  -2.832074e+01
   9.059441e+01   5.196276e+00
