
 $NMID
 id='ANONYMOUS ', fmtdat='(2E16.6)'
 volume=1.0
 tramp=1.0
 $END
  -3.625094e+03   1.114500e+02
  -2.134478e+03  -1.802261e+03
   1.054285e+02  -2.079606e+03
   1.575236e+03  -1.056429e+03
   7.648854e+02   1.657829e+02
  -2.010873e+02   4.614374e+02
  -6.424267e+02  -1.674223e+02
  -1.414529e+02  -8.002420e+02
   5.766935e+02  -7.301037e+02
   7.414372e+02  -9.399668e+01
   4.627155e+02   6.039875e+02
  -4.298685e+01   7.679718e+02
  -4.297967e+02   1.990098e+02
  -3.285151e+02  -5.431582e+02
   1.647042e+02  -6.247822e+02
   5.279236e+02  -1.182007e+02
   3.095209e+02   5.120229e+02
  -2.088775e+02   6.350756e+02
  -4.902414e+02   2.088163e+02
  -4.129449e+02  -2.606954e+02
  -1.382845e+02  -3.732495e+02
   1.686869e+02  -2.215019e+02
   1.147811e+02  -3.834274e+01
  -1.543058e+02   1.076818e+01
  -3.348017e+02  -1.857838e+02
  -7.550583e+01  -3.689835e+02
   3.840931e+02  -2.648605e+02
   6.497762e+02   8.596478e+01
   3.078296e+02   3.560722e+02
  -3.558964e+02   3.435375e+02
  -6.026311e+02  -1.015854e+02
  -2.901749e+02  -4.324014e+02
   2.784013e+02  -4.270256e+02
   4.982982e+02  -2.064476e+02
   4.095737e+02   1.883456e+02
   7.778856e+01   3.759628e+02
  -7.929647e+01   2.223067e+02
  -9.821647e+01  -1.314369e+02
   1.007731e+02  -2.516338e+02
   2.821120e+02   4.803033e+01
   6.949732e+01   5.529256e+02
  -2.571529e+02   5.386940e+02
  -3.884312e+02   3.441653e+01
  -2.470622e+02  -3.194619e+02
   1.894803e+02  -1.970623e+02
   3.541817e+02   3.211172e+02
  -1.430080e+01   4.201205e+02
  -4.726313e+02   8.698011e+01
  -5.833807e+02  -3.896295e+02
  -1.901459e+02  -5.276815e+02
   3.115467e+02  -3.362518e+02
   5.336446e+02   4.066350e+00
   3.801905e+02   2.938347e+02
  -7.223685e+01   3.225681e+02
  -3.267094e+02   6.831167e+01
  -2.025740e+02  -1.259518e+02
   9.774963e+01  -5.063438e+01
   1.369124e+02   7.157942e+01
  -4.965551e+01   1.398734e+02
  -2.614317e+02  -3.845084e+01
  -1.361735e+02  -2.389755e+02
   1.476101e+02  -2.155649e+02
   3.305022e+02  -9.354527e+01
   2.558920e+02   1.178999e+02
  -2.927978e+01   2.980792e+02
  -2.490932e+02   3.335720e+02
  -3.953057e+02   1.820856e+02
  -2.778425e+02  -1.344849e+02
  -8.711052e+01  -3.970702e+02
   3.973606e+01  -3.437818e+02
   3.790373e+01  -1.662113e+02
   1.836342e+01  -1.768799e+01
   7.042040e+01  -1.086306e+02
   2.075845e+02  -1.078712e+02
   2.938055e+02   5.488726e+01
   1.695657e+02   2.783140e+02
  -1.105152e+02   2.323969e+02
  -2.298767e+02   4.835018e+01
  -1.725239e+02  -2.470109e+02
  -1.647875e+01  -2.761216e+02
   2.884185e+02  -5.796387e+01
   3.385189e+02   1.332833e+02
   1.788853e+02   2.890086e+02
  -5.758017e+01   2.985232e+02
  -1.867366e+02   1.821367e+02
  -1.089648e+02   7.653952e+01
  -9.610225e+01   7.733088e+01
  -2.583830e+02   2.930921e+01
  -3.775930e+02  -7.071888e+01
  -2.869072e+02  -2.871260e+02
  -6.868740e+00  -3.797554e+02
   3.973456e+02  -4.773529e+02
   4.844022e+02  -2.099104e+02
   3.259454e+02   7.564977e+01
   6.262362e+01   2.562173e+02
  -1.351659e+02   2.197389e+02
  -4.776877e+01   8.286949e+00
   1.230297e+02  -6.010302e+01
   1.614723e+02   2.837693e+01
   4.440007e+01   1.610946e+02
  -1.480114e+02   1.964606e+02
  -1.239533e+02  -6.224554e+00
   1.443866e+01  -1.314968e+02
   1.885960e+02  -5.757521e+01
   1.302319e+02   1.890443e+02
  -8.901315e+00   3.149030e+02
  -2.122256e+02   2.544363e+02
  -3.327672e+02  -2.600377e+01
  -2.685968e+02  -2.513633e+02
  -8.921567e+01  -2.377860e+02
   1.120375e+02  -1.157631e+02
   1.617029e+02  -2.636880e+01
   3.566204e+01   3.577387e+01
  -8.545846e+01  -4.960493e+01
  -1.904894e+01  -1.402330e+02
   1.036094e+02  -1.122781e+02
   1.832468e+02   3.040601e+01
   5.528089e+01   9.675719e+01
  -7.973928e+01   1.558342e+01
  -7.579357e+01  -8.164898e+01
   1.501520e+02  -8.508657e+01
   3.165128e+02   2.309620e+01
   2.964678e+02   7.005054e+01
   8.003724e+01   2.395592e+02
  -1.453684e+02   2.804261e+02
  -2.307212e+02   1.084856e+02
  -1.902410e+02  -2.615123e+01
   8.835504e+01  -9.443337e+01
   6.618052e+01   2.302096e+01
  -5.860441e+01   1.119718e+02
  -1.796615e+02   6.373521e+01
  -1.437605e+02  -9.434883e+01
  -7.608079e+01  -2.019222e+02
   5.735209e+01  -1.395466e+02
   1.203953e+02  -5.745743e+01
   6.372507e+01   4.350822e+01
  -2.125042e+01  -1.993852e+01
  -4.611706e+01  -8.918783e+01
   6.007290e+01  -1.419262e+02
   1.970921e+02  -3.064567e+01
   2.161222e+02   1.073141e+02
   2.316830e+01   2.307938e+02
  -1.436324e+02   1.856072e+02
  -1.886777e+02   3.348109e+01
  -6.836572e+01  -8.237662e+01
   8.174259e+01  -1.051379e+02
   5.163221e+01  -2.883229e+01
  -5.677210e+00   4.053312e+01
  -4.337526e+01   2.042533e+00
   5.574947e+00  -3.476324e+01
   4.429355e+01   2.426331e+01
   7.887955e+01   5.358505e+01
   3.764929e+01   1.379518e+02
  -1.096021e+02   1.308688e+02
  -2.439137e+02   2.676349e+01
  -1.991025e+02  -1.480284e+02
  -6.758328e+01  -2.014279e+02
   9.303012e+01  -1.675460e+02
   9.342143e+01  -5.158068e+01
   6.862336e+01   1.216405e+01
   1.770455e+01   6.813265e+00
   1.844489e+01  -1.721376e+01
   5.205386e+01  -4.826390e+01
   4.131306e+01   9.527987e+01
   3.426485e+00   1.360750e+02
  -6.747290e+01   1.685908e+01
  -8.520406e+01  -5.037379e+01
  -1.196417e+01  -1.380965e+02
   1.823149e+02  -9.485867e+01
   1.972945e+02   3.003594e+01
   1.175149e+02   1.884684e+02
  -4.930555e+01   2.111401e+02
  -2.656773e+02   1.029755e+02
  -2.536727e+02  -2.001068e+01
  -8.766345e+01  -1.769586e+02
  -6.868937e+00  -1.783279e+02
   9.822959e+01  -1.191824e+02
   3.957381e+01  -4.848239e+01
   2.276420e+01  -5.998351e+01
   9.253024e+01  -1.116392e+02
   1.168795e+02  -5.209043e+00
   1.381631e+02   1.112511e+02
   4.221530e+01   1.947507e+02
  -9.651885e+01   1.592881e+02
  -1.869005e+02   1.948079e+01
  -9.272343e+01  -1.374044e+02
  -8.271054e+00  -1.590107e+02
   6.579112e+01  -1.401937e+02
   6.975189e+01  -3.635120e+01
  -1.823724e+01   8.539406e+01
  -2.066406e+00   4.326444e+01
   2.572116e+01   1.986459e+01
   7.493058e+01   3.266764e+01
   5.296189e+00   1.809164e+01
  -8.666016e+01  -1.363190e+01
  -1.636355e+02  -1.581580e+01
  -1.067790e+02  -6.196537e+01
   4.691182e+00  -8.839876e+01
   1.017073e+02  -7.370342e+01
   1.381189e+02   8.622356e-02
   6.268034e+01   2.244355e+01
  -4.843169e+01   5.503725e+01
  -7.671196e+01  -2.389658e+00
  -9.758828e+00  -5.885357e+01
   1.630897e+01  -6.200868e+01
   7.198034e+01  -1.809785e+01
   6.448280e+01   2.907514e+01
   5.104315e+01   4.603323e+01
   5.761911e+01  -2.933726e+01
   6.086050e+01   4.096742e+00
   9.615790e+01   9.564799e+01
  -5.965429e+01   1.345603e+02
  -1.015366e+02   1.120319e+02
  -1.509149e+02   5.897995e+01
  -1.435112e+02  -9.149787e+01
  -3.626505e+01  -1.099250e+02
   7.824230e+01  -5.882303e+01
   9.638029e+01   3.422485e+01
  -7.371813e+01   2.308571e+01
  -8.992234e+01  -1.102633e+01
  -5.451735e+01  -7.282227e+01
   4.425304e+01  -1.401595e+02
   1.781068e+02  -9.297098e+01
   1.343904e+02   8.344881e+00
   3.819939e+01   8.388903e+01
  -5.425607e+01   1.021352e+02
  -5.838838e+01   1.485449e+00
   3.712064e+01  -2.778180e+01
   1.031935e+02   6.484428e+00
   6.313486e+00   1.652483e+02
  -7.346523e+01   1.382487e+02
  -1.482278e+02   9.873096e+01
  -1.525475e+02  -8.321227e+01
  -3.471053e+01  -2.315410e+02
   5.842759e+01  -1.189191e+02
   1.017113e+02   6.894349e+00
   7.123054e+01   1.049881e+02
  -3.195565e+01   9.920285e+01
  -7.604792e+01  -2.023982e+01
  -2.222479e+01  -2.570338e+01
  -2.260409e+00   1.452096e+00
   2.734623e+01   7.763334e+00
  -2.422442e+01   1.859770e+01
  -6.329957e+01  -6.781322e+01
  -8.626281e+01  -1.277370e+02
   5.643159e+01  -6.125272e+01
   1.654961e+02   4.805525e+01
   1.420139e+02   2.230762e+01
   3.806824e+01   1.946469e+01
  -6.243012e+01   5.245770e+01
  -8.103943e+01   1.215630e+01
  -1.945561e+01  -2.579839e+01
   4.691424e+01  -4.441712e+01
   4.308501e+01  -1.288522e+01
  -3.152255e+01  -3.905095e+00
   1.796056e+00   2.975256e+01
   2.444147e+01   1.475742e+01
   1.224938e+02  -1.580567e+01
   3.387474e+01   9.489468e+01
  -8.617432e+01   1.296613e+02
  -1.346119e+02   6.434353e+01
  -1.436332e+02  -4.918834e+01
   8.788361e+00  -1.447037e+02
   4.319870e+01  -1.538995e+02
   1.561915e+02  -3.153301e+01
   1.216242e+02  -9.063252e+00
   4.914864e+01   8.193638e+01
  -2.660736e+01  -4.745335e+00
   1.287782e+01   1.084383e+01
   3.587426e+01   3.684595e+01
   4.744225e+01   1.056742e+02
  -2.873741e+01   7.928848e+01
  -9.305184e+01  -1.246128e+01
  -7.751714e+01  -1.099025e+02
  -5.119617e+01  -1.275043e+02
   6.357108e+01  -1.777741e+01
   1.325026e+02   4.297740e+01
  -7.090162e-01   6.080275e+01
  -3.384254e+01   8.613349e+01
  -1.215718e+02  -2.516344e+01
  -8.011269e+01  -8.882432e+01
  -7.433379e+00  -4.830623e+01
   4.825510e+01  -4.415013e+01
  -6.590063e+00   1.105014e+01
  -3.000734e+01   1.984686e+01
  -1.357020e+01   1.034042e+01
   5.938817e+01  -5.175382e+01
   1.220218e+02  -4.639812e+01
   8.306688e+01  -1.678216e+01
   2.549669e+01   8.567610e+01
  -9.549538e+01   8.996002e+01
  -4.113757e+01   2.424069e+01
  -1.180906e+01  -3.757449e+01
   3.523034e+01  -4.671527e+01
   3.540434e+01  -1.001625e+01
   2.889946e+01   5.058633e+01
   9.482396e+00   4.897231e+01
  -3.330224e+01  -2.574094e+01
  -7.866909e+01  -1.502338e+01
   2.033776e+00  -2.250082e+01
   3.299535e+01  -3.027388e+01
   4.009722e+01   4.206667e+00
   7.287729e+00  -2.569971e+01
  -1.092773e+00  -1.162414e+01
  -7.216901e+00  -4.931244e+01
   5.805464e+01  -9.669022e+00
  -1.259569e+01   5.963475e+01
  -6.473407e+01   5.057887e+01
  -5.910339e+01  -2.138146e+01
  -7.771773e+00  -3.337495e+01
   5.786592e+01  -5.831152e+01
   8.151215e+01  -1.060241e+01
   4.001615e+01   4.048806e+01
   1.792615e-02   3.448439e+01
  -5.641615e+01   2.764643e+01
  -3.283313e+01   3.568483e+01
   2.291100e+00  -1.424038e+01
   4.519102e+01   8.902353e+00
  -1.410981e+01   5.428881e+01
  -8.876809e+01   1.907066e+01
