
 $NMID
 id='ANONYMOUS ', fmtdat='(2E16.6)'
 volume=1.0
 tramp=1.0
 $END
   4.280020e+03  -1.008422e+02
   2.724333e+03   2.165320e+03
  -5.415362e+02   2.614767e+03
  -2.032592e+03   1.047790e+03
  -9.646420e+02  -5.161605e+02
   6.813007e+02  -6.081091e+02
   9.908270e+02   3.779655e+02
   7.890873e+01   1.130757e+03
  -8.099640e+02   8.141302e+02
  -9.587426e+02  -9.173016e+01
  -4.584265e+02  -8.544788e+02
   3.266802e+02  -8.941601e+02
   6.210533e+02  -7.990188e+01
   3.938067e+02   7.210800e+02
  -2.588309e+02   7.830804e+02
  -6.479118e+02  -3.364980e+01
  -3.264957e+02  -6.718329e+02
   3.535045e+02  -6.701948e+02
   6.608823e+02  -1.147486e+02
   4.201014e+02   3.609062e+02
   8.905265e-02   4.558235e+02
  -2.439450e+02   3.202771e+02
  -2.604459e+02   3.573075e+01
   1.075929e+02  -1.017983e+02
   4.036672e+02   9.483222e+01
   2.233479e+02   4.256215e+02
  -4.863211e+02   3.837361e+02
  -8.647512e+02  -1.073452e+02
  -3.797642e+02  -5.773517e+02
   4.015683e+02  -4.309470e+02
   8.092221e+02   6.163604e+01
   3.804877e+02   4.498989e+02
  -2.956873e+02   5.864688e+02
  -6.455257e+02   2.553640e+02
  -4.167277e+02  -2.532567e+02
  -9.112406e+01  -4.842750e+02
   2.450474e+02  -2.757402e+02
   1.638944e+02   2.598542e+02
  -2.110629e+02   4.662109e+02
  -5.222211e+02  -4.377752e+01
  -2.555393e+02  -7.920561e+02
   3.698729e+02  -7.445953e+02
   5.964593e+02   2.117790e+01
   2.847779e+02   6.076530e+02
  -3.197073e+02   3.664310e+02
  -3.724630e+02  -3.518099e+02
   4.974842e+01  -5.675927e+02
   5.650002e+02  -1.707676e+02
   6.515292e+02   4.309556e+02
   2.061516e+02   6.521014e+02
  -4.080635e+02   4.053120e+02
  -7.252824e+02  -5.954190e+01
  -3.655753e+02  -4.046187e+02
   1.174290e+02  -3.598705e+02
   4.237479e+02  -6.846256e+01
   1.936952e+02   1.988779e+02
  -1.787490e+02   9.071414e+01
  -1.312704e+02  -1.800471e+02
   8.372268e+01  -1.764719e+02
   3.483893e+02   1.176758e+02
   1.321437e+02   3.525113e+02
  -1.573994e+02   2.790615e+02
  -3.473757e+02   7.541894e+01
  -1.820371e+02  -4.118625e+01
   2.337835e+01  -2.659466e+02
   1.995279e+02  -3.898699e+02
   3.701191e+02  -2.645866e+02
   3.148465e+02   1.346410e+02
   8.831209e+01   4.233741e+02
  -1.016843e+02   4.215402e+02
  -1.533119e+02   1.582900e+02
   5.977971e+00  -3.329132e+01
   1.520408e+01   1.099025e+02
  -1.766468e+02   1.979498e+02
  -2.952575e+02  -4.498351e+00
  -2.099640e+02  -2.759037e+02
   5.992001e+01  -2.668846e+02
   2.272909e+02  -2.974148e+01
   2.195468e+02   2.848309e+02
   9.252211e+00   2.805649e+02
  -2.638365e+02   1.376630e+02
  -3.816923e+02  -2.193327e+02
  -1.976874e+02  -4.084469e+02
   1.000571e+02  -3.144549e+02
   2.085983e+02  -1.508133e+02
   1.574396e+02  -1.611386e+01
   7.236188e+01  -5.397941e+01
   1.810515e+02  -8.593931e+01
   4.097301e+02  -4.466719e+01
   4.075010e+02   3.008353e+02
   2.780316e+00   4.737908e+02
  -3.150143e+02   4.540610e+02
  -5.126769e+02   2.640185e+02
  -3.807284e+02  -9.504443e+01
  -9.518385e+01  -2.895986e+02
   1.330893e+02  -2.817165e+02
   9.826978e+01  -9.512407e+01
  -8.561803e+01   1.007956e+02
  -1.894090e+02  -4.631695e+00
  -6.432216e+01  -2.036534e+02
   1.751021e+02  -1.666139e+02
   1.648002e+02   4.256909e+01
  -7.328307e+01   2.018174e+02
  -1.778234e+02   3.646622e+00
  -1.827103e+02  -2.598722e+02
   2.565520e+01  -3.653164e+02
   1.998914e+02  -2.212547e+02
   3.526912e+02   8.142763e+01
   2.358224e+02   1.865480e+02
   1.103831e+02   2.984660e+02
  -1.232944e+02   2.151116e+02
  -1.777587e+02   2.834408e+01
  -4.700562e+01   1.191640e+01
   4.621290e+01   4.484999e+01
  -4.178563e+00   9.436483e+01
  -1.079173e+02   8.237830e+01
  -2.137661e+02  -1.922321e+01
  -5.824301e+01  -1.030523e+02
   6.274392e+01   1.700436e+01
   7.628909e+01   5.138679e+01
  -1.104356e+02   9.896430e+01
  -2.873518e+02  -3.459124e+01
  -2.720210e+02  -5.822833e+01
  -1.203865e+02  -2.142547e+02
   1.624434e+02  -2.352635e+02
   2.762093e+02  -1.492112e+02
   1.728830e+02   3.879298e+01
  -4.063056e+01   8.589695e+01
  -1.161031e+02  -2.072135e+01
   2.602575e+01  -6.419170e+01
   1.892325e+02  -6.541990e+01
   1.968674e+02   9.612387e+01
   7.531362e+01   2.105730e+02
  -8.568075e+01   2.066954e+02
  -1.643790e+02   6.910693e+01
  -8.767078e+01  -3.494699e+01
   2.975217e+01  -3.631957e+01
   4.039739e+01   5.561333e+01
  -5.661916e+01   1.184690e+02
  -1.796219e+02  -1.538973e+01
  -1.952917e+02  -1.262375e+02
  -7.965174e+01  -2.528755e+02
   1.894114e+02  -1.746265e+02
   1.470370e+02  -4.473838e+01
   1.059106e+02   9.611913e+01
  -8.996429e+01   1.303286e+02
  -1.177640e+02   1.696173e+01
  -3.494612e+01  -2.928472e+00
  -2.408750e+01  -1.494020e+01
   2.871704e+01   3.242159e+01
  -6.383383e+01   1.307318e+01
  -3.838622e+01  -1.016100e+02
  -6.383252e+01  -1.252214e+02
   9.060391e+01  -1.961902e+02
   2.522630e+02  -8.404720e+01
   2.248446e+02   1.887047e+02
   9.489947e+01   2.253177e+02
  -1.187498e+02   1.641106e+02
  -1.062424e+02   2.175404e+01
  -6.965909e+01  -3.952205e+01
  -4.434017e+01  -4.581706e+01
  -4.703073e+01   9.206564e+00
  -1.173488e+02   9.181985e+00
  -3.479962e+01  -2.785530e+01
   6.258733e+01  -7.745940e+01
   8.999174e+01  -7.053174e+01
   6.947834e+01   2.118660e+01
   5.428287e+00   9.257491e+01
  -1.402028e+02   6.180335e+01
  -2.094152e+02  -4.881432e+01
  -1.562091e+02  -2.105805e+02
   1.428631e+02  -2.225524e+02
   3.046450e+02  -1.013552e+02
   2.197570e+02   1.460190e+02
   1.067193e+02   1.919271e+02
  -3.104186e+01   1.478299e+02
  -9.443059e+01   6.853764e+01
  -1.392759e+02   4.795036e+01
  -2.697839e+01   7.818603e+01
  -8.051358e+01   7.143695e+01
  -1.485297e+02  -3.483513e+01
  -1.349964e+02  -1.481933e+02
  -1.895485e+01  -2.374602e+02
   1.018630e+02  -1.467218e+02
   1.785908e+02  -4.589163e+01
   1.400190e+02   1.202492e+02
  -3.768314e+00   1.654527e+02
  -4.687859e+01   7.032269e+01
  -4.011700e+01  -1.342887e+01
  -5.094413e+01  -4.779556e+01
  -5.326106e+00  -1.840751e+01
  -2.766960e+01  -1.872817e+01
  -1.199726e+02  -4.656761e+01
  -4.361076e+01  -3.963706e+01
   7.407781e+01  -3.936456e+01
   1.309638e+02  -2.237391e+01
   1.454484e+02   9.098921e+01
   9.870920e-01   9.889144e+01
  -1.983038e+02   4.734758e+01
  -1.480288e+02   7.816879e+00
  -6.353642e+01  -5.386818e+01
   6.431948e+01   3.913478e+00
   3.193563e+01  -1.916448e+01
   6.171756e+00   6.560417e+01
  -3.929212e+01   4.773494e+01
  -3.010328e+01   1.277202e+01
  -5.127673e+01  -6.955113e+01
  -4.210811e+01  -4.070998e+01
  -1.182744e+02  -8.639522e-01
  -7.383320e+01  -1.203593e+01
  -6.993367e+01  -7.332428e+01
  -1.872788e+00  -1.261388e+02
   9.605607e+01  -1.671982e+02
   1.793010e+02  -8.344858e+01
   1.187557e+02   3.795071e+01
   4.896711e+01   1.262546e+02
  -1.049722e+02   5.244867e+01
  -6.773414e+01  -8.763688e+00
   3.637530e+01   1.251533e+01
   1.721000e+02   4.750167e+01
   7.069311e+01   1.181343e+02
  -1.028542e+02   1.061746e+02
  -1.575035e+02   8.908930e+01
  -1.930673e+02  -6.704523e+00
  -7.344616e+01  -1.121639e+02
   1.445485e+01  -8.828563e+01
   2.106383e+01   1.070812e+01
  -4.756805e+01   1.801423e+01
  -9.971834e+01  -5.078481e+01
  -1.453376e+01  -9.639327e+01
   7.831734e+01  -1.892526e+02
   1.529984e+02  -4.226929e+01
   1.039154e+02   7.512334e+01
   2.500296e+01   1.924950e+02
  -9.805853e+01   1.570999e+02
  -1.332185e+02   1.777542e+01
  -1.009625e+02  -1.122570e+02
   1.821348e+01  -1.184560e+02
   6.054053e+01  -6.169812e+00
   5.912898e+01   2.020434e+01
   8.695057e+00  -4.495700e+01
   1.681250e+00  -6.942954e+01
   5.093090e+01   4.920711e+01
   8.844831e+01   7.327280e+01
   4.192767e+01   1.331922e+02
  -1.812696e+01   3.058257e+01
  -1.330748e+02  -2.586082e+00
  -1.604634e+02  -6.688848e+01
  -4.179283e+01  -9.645254e+01
   8.056433e+01  -3.868958e+01
   5.400949e+01  -3.320646e+01
   3.652937e+01  -8.539167e+00
  -4.587419e+01  -1.040153e+01
  -1.646396e+00   2.175487e+01
   4.945971e+00   1.774274e+01
  -2.822887e+00   1.193665e+01
  -1.019153e+02  -2.002423e+01
  -9.980055e+01  -1.037173e+01
  -1.173580e+01  -5.004279e+01
   9.181984e+01  -8.982296e+01
   1.665315e+02  -7.025530e+01
   1.288033e+02   8.968226e+01
   4.020576e+01   1.490257e+02
  -4.685560e+01   1.621783e+02
  -1.460427e+02   5.903535e+01
  -9.135173e+01  -2.871728e+01
  -3.047584e+01  -4.984965e+01
  -2.804643e+01   1.551626e+01
  -4.561148e+01  -5.775174e+00
  -4.603183e+01  -8.238698e+01
  -1.888585e+01  -9.786566e+01
   5.453246e+01  -6.974528e+01
   1.013079e+02  -2.409687e+01
   1.266332e+02   9.851373e+01
   7.776093e+00   1.236784e+02
  -1.112300e+02   5.022864e+01
  -8.559096e+01  -6.950403e+01
  -3.661513e+01  -7.098158e+01
   7.145558e+01  -6.786828e+01
   1.286476e+02  -1.628686e+01
   5.147421e+01   6.810415e+01
  -3.442041e+01   7.105127e+01
  -5.431594e+01   1.144283e+01
   4.210309e+01   1.351468e+01
   9.005313e+01   1.817411e+01
   3.649479e+01   2.594745e+01
  -6.010943e+01   7.976686e+01
  -1.218962e+02   6.608711e+01
  -4.143676e+01   3.953055e+00
  -3.131927e+00  -6.502458e+01
   5.956312e+01  -6.959139e+01
   1.456232e+01   1.740742e+01
  -2.882975e+01   5.171289e+01
  -1.634019e+01   1.358013e+01
  -2.677346e+01  -1.729972e+01
   4.131057e+01   1.660487e+01
   6.059998e+00  -5.309352e+01
   5.938774e+01   3.417372e+00
   6.862889e+01   6.087733e+00
   2.406152e+01  -3.113541e+00
   5.713046e+00  -5.267832e+01
  -6.801666e+00  -2.515787e+00
   2.101160e+01   6.136608e+01
  -2.750910e+01   5.959997e+01
  -3.371254e+01   1.080942e+00
  -1.371261e+01  -3.177995e+01
  -2.852305e+01  -7.896823e+01
   7.553299e+01  -8.538744e+00
   5.198964e+01   4.874987e+01
   1.452221e+01   8.884602e+01
  -4.546814e+01   4.079422e+01
  -9.476461e+01   1.275656e+01
  -5.389933e+01  -2.445284e+01
   5.115172e+01  -5.999415e+01
   8.404121e+01  -4.052624e+01
   7.266275e+01   2.987306e+01
  -1.498496e+01  -8.559999e+00
  -6.414260e+01  -5.600443e+01
   4.925588e+01  -4.922312e+01
   9.031385e+01  -2.493698e+01
