
 $NMID
 id='ANONYMOUS ', fmtdat='(2E16.6)'
 volume=1.0
 tramp=1.0
 $END
   4.146470e+03  -5.162369e+01
   2.739426e+03   2.374049e+03
  -6.964435e+02   2.712326e+03
  -2.208647e+03   8.442802e+02
  -9.918731e+02  -6.448956e+02
   4.268508e+02  -7.640188e+02
   9.108325e+02   3.353647e+02
  -3.268942e+00   1.063644e+03
  -8.501043e+02   8.095461e+02
  -8.997624e+02  -7.142338e+01
  -5.076546e+02  -8.717342e+02
   2.460831e+02  -8.751913e+02
   7.468822e+02  -1.859841e+02
   4.511938e+02   6.775376e+02
  -2.642472e+02   7.777546e+02
  -6.149796e+02  -2.948671e+01
  -2.965622e+02  -6.759054e+02
   2.774559e+02  -6.178947e+02
   6.215839e+02  -1.874007e+02
   4.018884e+02   3.709319e+02
  -2.639605e+01   4.591535e+02
  -2.435177e+02   2.536440e+02
  -2.632378e+02   2.438477e+00
   4.347516e+01  -1.255163e+02
   4.014806e+02   1.443938e+02
   1.218904e+02   3.946358e+02
  -4.467674e+02   3.692756e+02
  -8.240943e+02  -4.383502e+01
  -4.405093e+02  -5.466529e+02
   3.413256e+02  -4.857395e+02
   7.794159e+02   1.562670e+01
   3.572614e+02   5.146635e+02
  -3.093456e+02   5.392862e+02
  -5.818639e+02   1.594383e+02
  -4.269127e+02  -2.447875e+02
  -8.300005e+01  -4.737619e+02
   2.047784e+02  -2.443116e+02
   2.175722e+02   2.351040e+02
  -1.000197e+02   3.891803e+02
  -4.117916e+02   6.425817e+00
  -2.158663e+02  -6.809121e+02
   2.950751e+02  -7.069973e+02
   5.571726e+02  -5.105915e+01
   2.754950e+02   5.748863e+02
  -2.928243e+02   3.187699e+02
  -3.858109e+02  -2.977336e+02
   6.062370e+01  -5.767289e+02
   5.390534e+02  -1.227021e+02
   5.746586e+02   4.307142e+02
   1.246580e+02   5.460963e+02
  -3.983569e+02   3.127623e+02
  -6.256219e+02  -5.459086e+01
  -3.501952e+02  -3.572533e+02
   2.420761e+02  -3.721046e+02
   4.030685e+02  -7.994365e+01
   2.965549e+02   1.910365e+02
  -5.547292e+01   1.324747e+02
  -1.321757e+02  -1.454148e+02
   1.532002e+02  -1.669742e+02
   3.101102e+02   6.647734e+01
   2.036966e+02   2.793910e+02
  -1.899014e+02   2.677481e+02
  -3.263813e+02   7.917474e+01
  -1.949954e+02  -6.984649e+01
   8.090004e+00  -2.656778e+02
   2.227297e+02  -2.637728e+02
   3.313961e+02  -2.583196e+02
   3.536722e+02   1.337988e+02
   7.395311e+01   4.536313e+02
  -1.152983e+02   3.695344e+02
  -1.580083e+02   1.079157e+02
  -4.587424e+01  -1.960246e+01
  -5.300037e+01   7.718549e+01
  -1.647526e+02   1.670379e+02
  -2.781400e+02  -8.003217e+01
  -1.970397e+02  -2.674171e+02
   7.966994e+01  -2.372734e+02
   2.272664e+02  -3.570245e+01
   1.566913e+02   2.403440e+02
  -4.885314e+00   3.026471e+02
  -2.478089e+02   9.227970e+01
  -3.898993e+02  -1.714273e+02
  -2.038177e+02  -3.648740e+02
   6.531469e+01  -2.942901e+02
   2.195100e+02  -1.287495e+02
   1.359196e+02  -1.821819e+01
   1.196199e+02  -2.541756e+01
   2.520455e+02  -1.984461e+01
   3.648624e+02   4.288575e+01
   2.996673e+02   3.115139e+02
   9.846923e-01   3.844575e+02
  -3.436879e+02   3.917888e+02
  -4.868250e+02   1.741001e+02
  -2.946318e+02  -8.305347e+01
  -6.038291e+01  -2.858802e+02
   1.308003e+02  -2.688963e+02
   9.833064e+01  -4.661565e+01
  -9.424932e+01   1.258289e+02
  -2.061020e+02   2.918058e+01
  -7.508184e+01  -1.805918e+02
   1.453867e+02  -1.895775e+02
   2.082427e+02   2.567789e+01
  -2.091665e+01   1.532559e+02
  -2.132260e+02   3.083328e+01
  -1.733773e+02  -2.481200e+02
   5.456967e+01  -3.402263e+02
   2.437324e+02  -1.861053e+02
   3.084780e+02   8.300606e+01
   2.430288e+02   2.745147e+02
   7.364891e+01   2.125684e+02
  -1.432681e+02   1.567640e+02
  -1.665178e+02  -5.875143e+00
  -5.181112e+01  -4.614623e+01
   6.830375e+01   1.279615e+01
   3.720862e+01   8.323356e+01
  -1.024711e+02   6.687919e+01
  -1.552166e+02  -2.231207e+01
  -6.741739e+01  -4.038121e+01
   1.154598e+02   1.747602e+01
   4.163161e+01   7.689411e+01
  -1.114313e+02   6.881915e+01
  -2.733821e+02  -1.610136e+01
  -2.729310e+02  -1.932427e+02
  -4.268592e+01  -2.992341e+02
   1.947486e+02  -2.446159e+02
   2.618798e+02  -7.199100e+01
   1.347160e+02   5.116770e+01
  -1.674719e+01   9.343232e+01
  -8.406628e+01   2.138276e+01
   4.198208e+01  -7.023942e+01
   1.900131e+02  -3.471502e+01
   1.767128e+02   6.076122e+01
   6.202300e+01   2.392625e+02
  -1.352533e+02   1.302088e+02
  -1.875693e+02  -1.662725e+01
  -8.726562e+01  -7.271951e+01
   4.290970e+01  -2.189847e+01
   2.336407e+01   9.286984e+01
  -8.493921e+01   1.014567e+02
  -2.155321e+02  -5.612688e+00
  -2.060152e+02  -1.525829e+02
  -1.111552e+01  -1.924858e+02
   1.863249e+02  -2.071658e+02
   2.423890e+02  -1.381532e+01
   5.590877e+01   1.764993e+02
  -5.937365e+01   1.212472e+02
  -8.148982e+01   3.622117e+01
  -3.849677e+01  -3.767048e+01
  -9.903632e+00   1.966355e+01
  -1.307609e+01  -1.039020e+01
  -9.633638e+01  -2.407874e+01
  -8.737616e+01  -6.281617e+01
  -1.484623e+01  -1.937526e+02
   1.036512e+02  -1.916637e+02
   2.184030e+02  -5.747078e+01
   1.594489e+02   1.539999e+02
   2.006337e+01   2.534899e+02
  -1.288964e+02   1.891086e+02
  -1.762532e+02  -8.703774e+00
  -7.994132e+01  -8.062326e+01
  -6.602853e+01  -6.689068e+01
  -4.646499e+01   3.855042e+01
  -9.094228e+01   4.227403e+01
  -7.143507e+00  -5.549969e+01
   5.375746e+01  -7.508081e+01
   8.021033e+01  -4.541340e+01
   5.243012e+01   6.042902e+01
  -3.181192e+01   1.080563e+02
  -1.127966e+02   8.998178e+01
  -1.999081e+02  -3.379486e+01
  -1.198689e+02  -1.784318e+02
   1.139213e+02  -2.278213e+02
   2.701928e+02  -8.393474e+01
   2.664300e+02   8.369612e+01
   7.895698e+01   1.805630e+02
  -4.923334e+01   1.397655e+02
  -1.350228e+02   1.063381e+02
  -5.728537e+01   6.556671e+01
  -1.076121e+02   1.004967e+02
  -4.087538e+01   6.606178e+01
  -1.217572e+02  -6.623006e+01
  -8.086108e+01  -1.367087e+02
  -3.880764e+01  -2.305439e+02
   1.076068e+02  -1.662204e+02
   1.639845e+02  -5.817255e+01
   1.317429e+02   1.701895e+02
   1.938898e+01   1.687352e+02
  -6.986876e+01   7.345265e+01
  -6.817958e+01   6.956526e+00
  -3.422086e+01  -5.903919e+01
  -5.791345e+00  -4.197472e+01
  -5.213278e+01  -2.387884e+01
  -6.836046e+01  -7.120516e+01
   1.305211e+00  -3.302359e+01
   5.101742e+01   1.902653e+01
   1.190276e+02   1.090974e+01
   1.614638e+02   1.011881e+01
  -4.773721e+00   6.757342e+01
  -1.227835e+02   6.822632e+01
  -1.443765e+02   1.748205e+01
  -3.602600e+01  -1.661076e+01
   6.986752e+01  -4.541384e+01
   8.615733e+01   1.035702e-01
   2.828749e+01   6.007423e+01
  -6.794330e+01   7.282746e+01
  -4.773380e+01  -9.969736e+00
  -4.315071e+01  -5.159393e+01
  -7.679476e+01  -6.529584e+01
  -3.249812e+01  -1.269489e+01
  -3.107739e+01  -9.290220e+00
  -1.485891e+01  -6.161909e+01
   1.957795e+01  -1.370278e+02
   1.082066e+02  -1.412380e+02
   1.662676e+02  -4.510851e+01
   1.245394e+02   9.536031e+01
   3.805893e+01   1.311120e+02
  -2.000533e+01   4.761541e+01
  -1.688298e+01  -3.056289e+01
   3.205567e+01  -2.505449e+01
   1.515648e+02   8.604368e+01
   7.150018e+01   9.841287e+01
  -1.751748e+01   8.840279e+01
  -2.051929e+02   6.974833e+01
  -1.950447e+02  -2.913525e+01
  -3.545259e+01  -8.886057e+01
   9.119552e+01  -5.667093e+01
   6.160352e+01   1.375727e+01
  -1.983571e+01   1.980664e+01
  -1.289930e+02  -3.131833e+01
  -1.713488e+01  -8.848400e+01
   5.178293e+01  -1.795324e+02
   1.766650e+02  -2.602630e+01
   1.475330e+02   1.433277e+02
   1.013775e+01   2.326177e+02
  -1.055339e+02   1.546671e+02
  -9.535887e+01   3.018890e+01
  -6.678971e+01  -9.177712e+01
  -1.704290e+01  -6.711507e+01
   1.822565e+01   1.308205e+00
   8.523223e+01   6.221809e+01
   2.807428e+01  -5.794446e+00
  -1.202300e+00  -1.930875e+01
   2.230618e+01   5.406949e+01
   4.465616e+01   9.640476e+01
   7.880119e+01   1.214825e+02
  -4.737400e+01  -2.023655e+01
  -1.360912e+02  -3.729611e+01
  -1.389488e+02  -1.393504e+02
  -7.289212e+01  -4.262390e+01
   8.400688e+01  -1.023079e+01
   1.010491e+02  -2.770889e+01
   2.174584e+01   2.249978e+01
  -3.179009e+01   4.697080e+01
  -6.066449e+01   1.311321e+01
   1.482274e+00  -2.868158e+00
  -7.245969e+01   1.273229e+01
  -7.929999e+01  -2.618779e+01
  -1.112006e+02  -2.792794e+01
   1.952920e+01  -7.071015e+01
   1.726946e+02  -1.137125e+02
   1.989850e+02  -1.715532e+01
   1.471558e+02   6.662657e+01
   1.725118e+01   1.526323e+02
  -9.388990e+01   1.423447e+02
  -4.589905e+01   1.007919e+02
  -1.074459e+02  -5.347060e+01
  -4.562136e+01  -6.905779e+01
  -8.667224e+00  -1.174363e+01
   1.580193e+01  -2.297027e+01
  -6.672092e+00  -8.084643e+01
  -1.511463e+01  -9.701529e+01
   1.027783e+02  -3.493681e+01
   4.152920e+01   4.196745e+01
   2.436598e+01   7.999800e+01
   4.598806e+01   1.146948e+02
  -1.359511e+01   8.051932e+00
  -6.153542e+01  -5.963608e+01
  -4.837702e+01  -1.092416e+02
   6.629539e+01  -8.521348e+01
   7.598282e+01   2.769576e+01
   6.241542e+01   4.657255e+01
  -4.933967e+01   9.260182e+01
  -2.756649e+01   5.151504e+01
   4.127113e+01   4.735629e+01
   6.235909e+01  -2.513116e+01
   3.181419e+01   3.376980e+01
  -7.230341e+01   7.156304e+01
  -1.512617e+02   4.513710e+01
  -6.144211e+01  -1.330817e+01
   3.007570e+01  -6.977720e+01
   5.202844e+00  -3.825618e+01
   5.871512e+01   8.480633e+00
  -2.591167e+00   4.043261e+01
  -1.128101e+01  -9.190422e+00
  -7.369989e+01   3.343895e+01
  -4.573668e+01  -5.270755e+01
  -5.304664e+00  -5.067546e+01
   8.050420e+01  -2.144952e+01
   5.266122e+01   3.430519e+01
  -4.525899e+00   2.668093e+01
  -3.449346e+01   1.737250e+00
  -3.869332e+01  -2.600986e+01
  -5.365417e+00   5.838807e+01
  -5.336763e+01   1.785501e+01
   7.645048e+00   1.984410e+01
  -5.710992e+01  -3.179165e+01
  -2.374736e+00  -3.433010e+01
   7.604949e+01  -4.418968e+01
   1.796692e+01   3.176168e+01
   2.870619e+01   3.616146e+01
  -7.578418e+01   8.420025e+01
  -1.369814e+02   3.350606e+00
  -7.416558e+01  -3.611123e+01
   2.845105e+01  -3.117167e+01
   6.153868e+01  -1.690355e+01
   3.125375e+01   5.153520e+01
  -5.162884e+01  -2.829122e+01
  -2.174487e+01  -1.001696e+01
   2.516134e+01  -3.934181e+01
   8.426009e+01   7.295785e+00
