
 $NMID
 id='ANONYMOUS ', fmtdat='(2E16.6)'
 volume=1.0
 tramp=1.0
 $END
   4.072419e+03   1.283622e+02
   2.356660e+03   2.571313e+03
  -8.321736e+02   2.813737e+03
  -2.125744e+03   9.241758e+02
  -1.003653e+03  -5.629386e+02
   7.626644e+02  -5.649476e+02
   8.480397e+02   4.619846e+02
  -6.381460e+01   1.108310e+03
  -8.609039e+02   8.311525e+02
  -9.217326e+02  -1.539217e+02
  -4.489766e+02  -8.859789e+02
   2.677315e+02  -8.469483e+02
   6.301834e+02  -1.526268e+02
   3.783429e+02   7.455858e+02
  -2.515530e+02   7.476188e+02
  -6.201012e+02  -1.447644e+01
  -2.877762e+02  -6.786556e+02
   2.909409e+02  -5.661475e+02
   5.870653e+02  -5.760285e+01
   3.531703e+02   3.711594e+02
  -7.283003e-01   4.022916e+02
  -3.078704e+02   2.846292e+02
  -2.221197e+02  -1.028556e+01
   2.292095e+01  -1.413667e+02
   4.683042e+02   6.935272e+01
   1.544869e+02   4.746636e+02
  -5.226405e+02   4.186671e+02
  -8.023435e+02   1.717409e+01
  -4.455136e+02  -5.970046e+02
   3.976670e+02  -4.923086e+02
   8.228158e+02   4.750472e+01
   3.454598e+02   4.555179e+02
  -2.913055e+02   4.809226e+02
  -5.960123e+02   2.107238e+02
  -4.095433e+02  -2.270892e+02
  -9.734282e+01  -4.625032e+02
   2.398637e+02  -3.131578e+02
   1.818357e+02   2.542134e+02
  -1.778456e+02   3.897177e+02
  -4.699690e+02  -1.991590e+01
  -3.235862e+02  -6.869858e+02
   2.717199e+02  -6.660435e+02
   6.395463e+02  -1.072871e+01
   2.861215e+02   5.643878e+02
  -3.331947e+02   3.287346e+02
  -3.583524e+02  -3.310191e+02
   4.389996e+01  -5.314307e+02
   5.630168e+02  -7.591686e+01
   5.442017e+02   3.864995e+02
   1.286450e+02   5.946274e+02
  -4.129008e+02   3.384842e+02
  -6.055302e+02  -1.602575e+02
  -3.459348e+02  -4.199222e+02
   1.935340e+02  -3.619994e+02
   4.920837e+02  -2.339442e+00
   2.229538e+02   2.343978e+02
  -1.156765e+02   1.395734e+02
  -1.188372e+02  -1.834474e+02
   1.377377e+02  -2.203283e+02
   3.880203e+02   8.915227e+01
   1.529147e+02   3.254520e+02
  -1.347135e+02   2.579141e+02
  -3.475062e+02   8.551206e+01
  -1.902286e+02  -8.142313e+01
   1.488944e+01  -2.514881e+02
   2.466470e+02  -2.844764e+02
   3.642946e+02  -2.347008e+02
   3.210866e+02   1.652333e+02
   8.062890e+01   4.268141e+02
  -1.188987e+02   3.444925e+02
  -9.298827e+01   8.651904e+01
   1.463043e+01  -8.371115e+00
  -3.625220e+01   6.801184e+01
  -1.573537e+02   1.386395e+02
  -2.983324e+02  -1.169877e+01
  -1.646096e+02  -2.800906e+02
   9.611581e+01  -2.230849e+02
   2.126570e+02  -3.427787e+01
   2.668376e+02   2.206438e+02
   3.557028e+01   2.913131e+02
  -2.702922e+02   1.498841e+02
  -3.553725e+02  -1.272504e+02
  -1.281301e+02  -3.923919e+02
   1.010941e+02  -2.892941e+02
   2.188672e+02  -1.185497e+02
   1.748841e+02  -1.597756e+00
   6.482079e+01   5.506624e+00
   2.163135e+02  -3.567530e+01
   3.969535e+02  -8.957377e-01
   3.469487e+02   2.634357e+02
   5.556642e+01   4.155153e+02
  -3.366346e+02   3.987461e+02
  -4.885336e+02   1.813510e+02
  -3.973598e+02  -6.964206e+01
  -6.635195e+01  -2.757844e+02
   1.934940e+02  -2.343824e+02
   7.145518e+01  -3.694119e+01
  -8.280607e+01   7.694529e+01
  -2.151566e+02  -3.701293e+01
  -4.701712e+01  -2.148631e+02
   1.326361e+02  -1.715224e+02
   1.669086e+02   5.980829e+01
  -3.978675e+01   2.435924e+02
  -1.839043e+02   3.943252e+01
  -2.048396e+02  -2.624503e+02
  -2.075059e+01  -3.620028e+02
   2.232910e+02  -2.040599e+02
   3.314474e+02   4.247356e+01
   2.802555e+02   2.123582e+02
   8.699098e+01   2.581988e+02
  -1.443237e+02   1.702734e+02
  -1.853055e+02   4.342794e-01
  -6.241630e+01  -6.889937e+01
   2.784197e+01  -1.490548e+01
  -4.108775e+01   1.057924e+02
  -1.564259e+02   8.304080e+01
  -1.672147e+02  -2.292300e+01
  -5.201251e+01  -6.254873e+01
   9.209021e+01  -2.092736e+01
   7.962654e+01   5.156105e+01
  -9.702734e+01   9.432301e+01
  -2.744544e+02   3.226806e+01
  -2.452572e+02  -1.373600e+02
  -7.297546e+01  -2.371589e+02
   2.105361e+02  -2.555765e+02
   2.826336e+02  -1.306029e+02
   1.589553e+02   7.450681e+01
  -9.681103e+00   1.048110e+02
  -1.122355e+02   5.109686e+01
   3.704406e+01  -1.017750e+02
   2.169806e+02  -7.740251e+01
   2.472337e+02   7.033655e+01
   9.720600e+01   2.144745e+02
  -7.638711e+01   1.561007e+02
  -1.406837e+02   7.966924e+01
  -6.982013e+01  -5.544358e+01
   3.853143e+01  -5.250718e+01
   7.834562e+01   5.777735e+01
  -3.182350e+01   1.058561e+02
  -2.265156e+02   5.247779e+01
  -1.699385e+02  -7.199756e+01
  -4.248664e+01  -2.248073e+02
   1.177711e+02  -1.713879e+02
   1.867905e+02  -2.152850e+01
   7.814739e+01   1.027567e+02
  -2.503270e+01   7.819307e+01
  -5.535279e+01   1.622668e+01
   1.993706e+00   1.087113e+01
   1.482281e+01   5.094433e+00
  -1.949941e+01   3.455520e+01
  -7.324047e+01   1.675288e+01
  -8.937413e+01  -4.912276e+01
  -1.169913e+01  -1.333226e+02
   1.360231e+02  -1.588933e+02
   2.375318e+02  -2.053344e+01
   2.321793e+02   8.879610e+01
   2.224385e+01   2.374891e+02
  -1.094181e+02   1.246019e+02
  -1.370723e+02  -1.113475e+01
  -5.507970e+01  -7.227406e+01
  -4.111048e+00  -8.496750e+01
  -2.889292e+01   2.926661e+01
  -9.653272e+01  -1.177588e+01
  -5.047846e+01  -2.005564e+01
   5.076578e+01  -8.605563e+01
   1.531968e+02  -6.666813e+01
   4.838810e+01   2.274852e+01
  -3.147674e+01   1.001269e+02
  -9.585785e+01   7.705715e+01
  -2.400643e+02  -4.948743e+01
  -1.151314e+02  -2.292456e+02
   1.399808e+02  -2.247015e+02
   2.487080e+02  -1.239446e+02
   2.759893e+02   8.309162e+01
   1.432141e+02   1.862806e+02
  -7.386536e+01   1.640286e+02
  -1.221733e+02   7.348267e+01
  -5.425063e+01   4.114215e+01
  -7.788053e+01   3.942310e+01
  -1.002031e+02   7.097556e+01
  -1.247336e+02   9.606544e+00
  -8.205240e+01  -1.236680e+02
  -4.179022e+01  -2.312653e+02
   1.262097e+02  -1.765266e+02
   1.847363e+02  -2.234993e+01
   1.378778e+02   1.342146e+02
   8.731548e+01   1.588933e+02
  -7.778952e+01   9.205669e+01
  -3.463305e+01   1.236093e+01
  -5.217566e+01  -7.927416e+01
   1.529047e+01  -9.067313e+00
  -2.087464e+01  -1.753106e+01
  -9.370249e+01  -1.307545e+01
  -3.803526e+01  -3.831312e+01
   1.542539e+01  -1.106798e+00
   1.585809e+02  -1.519197e+01
   1.223472e+02   2.529948e+01
   4.981559e+01   8.093445e+01
  -1.248352e+02   4.547016e+01
  -1.372210e+02   5.992769e-01
  -5.664689e+01   5.742273e+00
   9.279233e+01  -2.063570e+01
   7.858917e+01  -6.942491e+00
  -1.301166e+01   6.698158e+01
  -2.048996e+01   5.773458e+01
  -4.847654e+01   5.918290e+01
  -1.178329e-01  -2.839044e+01
  -1.951629e+01  -5.915026e+01
  -7.341003e+01  -2.257519e+01
  -4.169416e+01  -7.330715e+00
  -5.304353e+01  -5.784339e+01
   2.146796e+01  -1.106080e+02
   9.958643e+01  -1.185950e+02
   1.390827e+02  -7.011649e+01
   1.201231e+02   6.414051e+01
  -3.886328e+01   1.229211e+02
  -4.626711e+01   3.546677e+01
  -3.934221e+01   4.302260e+00
   2.929134e+01  -4.006739e+01
   1.319215e+02   7.448156e+01
   7.551650e+01   8.328068e+01
  -7.109803e+01   8.182142e+01
  -1.482350e+02   7.937583e+01
  -1.642827e+02  -3.199063e+01
  -3.558865e+01  -9.208799e+01
   6.687305e+01  -3.321115e+01
   4.116195e+01  -3.422199e+01
  -5.117363e+01   4.251553e+01
  -8.091662e+01  -1.039203e+01
   1.877538e+01  -1.155694e+02
   1.031958e+02  -1.305775e+02
   1.637234e+02  -5.922291e+01
   1.448373e+02   1.048928e+02
   4.422646e+00   1.690410e+02
  -1.023796e+02   1.397186e+02
  -1.279476e+02  -2.917122e+01
  -6.105143e+01  -1.118713e+02
   3.310093e+01  -1.329660e+02
   6.420634e+01   2.371407e+01
   5.599216e+01   8.407620e-02
  -3.948507e+00   1.839406e+01
   6.125691e+00  -6.324780e+01
   5.170803e+01  -9.668446e-01
   1.761339e+01   7.040732e+01
   3.988158e+01   8.642278e+01
  -3.745149e+01   4.639910e+01
  -1.556209e+02  -4.931276e+01
  -8.370335e+01  -6.549917e+01
   2.341219e+00  -6.408723e+01
   7.169310e+01  -9.915013e+00
   5.937734e+01  -1.972644e+01
   3.937044e+01   4.246926e+01
  -6.477840e+00   5.722190e+01
   2.677333e+01   5.470263e+01
   1.532110e+01  -2.807114e+01
   2.401644e+01  -2.580767e+01
  -6.989817e+01  -7.054571e+01
  -8.680188e+01  -2.929479e+01
   1.319178e+01  -7.159612e+01
   1.087122e+02  -8.650250e+01
   2.001427e+02  -6.628787e+01
   8.005902e+01   7.255700e+01
   6.059167e+01   1.444703e+02
  -4.845427e+01   1.366924e+02
  -6.856138e+01   5.313023e+01
  -5.675608e+01  -8.173024e+00
  -1.788020e+01  -3.531724e+01
   7.203474e+00  -3.443233e+01
   2.564178e+01  -1.952551e+01
  -6.042525e+01  -4.113300e+01
  -3.914363e+01  -6.598653e+01
   7.997817e+01  -8.256793e+01
   8.846591e+01   3.608413e+01
   7.117082e+01   1.137158e+02
   1.855209e+01   6.965193e+01
  -1.161690e+02  -2.517879e+01
  -1.167984e+02  -8.505326e+01
  -2.220643e+01  -7.231500e+01
   9.950946e+00  -8.187067e+01
   8.103144e+01  -1.504244e+01
   9.801973e+00   8.767736e+01
  -1.366970e+01   4.730420e+01
  -7.106665e+00   3.601048e+01
   9.191317e+00  -1.647383e+01
   6.611598e+01  -4.745066e+01
   2.522660e+01   2.080295e+01
  -4.432087e+01   6.402142e+01
  -1.164708e+02   5.959270e+01
  -4.675942e+01  -1.168938e+01
   2.107784e+01  -8.465923e+01
   5.023841e+01  -2.806516e+01
   8.714365e+00   1.257399e+01
   1.938215e+01   4.689827e+01
  -7.612454e+00   6.304305e+01
  -5.902389e+00  -1.544069e+01
  -3.453605e+01  -6.345077e+01
   3.314183e+01  -2.803947e+01
   5.744543e+01   7.315366e+00
   3.362998e+01   1.047262e+01
  -1.137818e+01   6.726071e+01
  -3.348629e+01   1.133841e+00
   1.336717e+01  -2.317478e+01
   1.623246e+01   5.069522e+01
  -1.613956e+00   5.664046e+01
  -2.981308e+01   1.350177e+01
  -2.486872e+01  -6.397014e+01
  -7.064242e+00  -8.234504e+01
   5.454383e+01  -2.962567e+01
  -1.067187e+01   4.445376e+01
   1.668860e+01   3.415141e+01
  -5.404957e+01   4.344011e+01
  -6.099504e+01  -9.911998e+00
  -1.647180e+01  -5.131012e+01
   5.110349e+01  -4.273857e+01
   6.141301e+01  -2.579382e+01
  -1.305382e+01  -7.225242e+00
  -3.306000e+01   7.447539e+00
  -1.449614e+01  -1.347241e+01
   2.204261e+01  -7.661813e+01
   9.505827e+01   6.838647e-01
