
 $NMID
 id='ANONYMOUS ', fmtdat='(2E16.6)'
 volume=1.0
 tramp=1.0
 $END
  -3.305044e+03   3.935266e+02
  -2.241882e+03  -1.734390e+03
  -8.879093e+01  -1.847923e+03
   1.287538e+03  -9.988488e+02
   1.018576e+03  -1.159156e+02
   8.751429e+01   1.795284e+02
  -4.094215e+02  -2.311938e+02
   1.157266e+02  -6.724357e+02
   5.279359e+02  -5.597933e+02
   6.897520e+02  -7.809406e+01
   3.603741e+02   5.427367e+02
   9.847107e+00   7.074771e+02
  -3.013240e+02   2.019732e+02
  -2.130378e+02  -4.789839e+02
   1.654679e+02  -5.144395e+02
   4.329231e+02  -4.685376e+01
   2.851787e+02   5.007279e+02
  -1.755025e+02   5.904206e+02
  -5.712546e+02   2.053973e+02
  -4.281489e+02  -2.078183e+02
  -7.932391e+01  -2.963338e+02
   6.544957e+01  -2.472571e+02
   1.039514e+02  -9.979865e+01
  -2.612674e+02  -1.020765e+02
  -3.344748e+02  -2.832388e+02
  -2.107903e-01  -3.990960e+02
   5.207355e+02  -2.206525e+02
   6.040508e+02   1.114272e+02
   2.522141e+02   3.202664e+02
  -2.832414e+02   2.377700e+02
  -5.116862e+02  -6.761817e+01
  -1.741076e+02  -3.981923e+02
   2.510415e+02  -3.573170e+02
   4.691106e+02  -1.689250e+02
   3.227758e+02   1.687988e+02
   6.698647e+01   3.536663e+02
  -4.402051e+01   1.745384e+02
   1.332182e+01  -6.919110e+01
   1.271815e+02  -1.680069e+02
   1.499181e+02   2.064031e+02
   7.052947e+01   5.354736e+02
  -2.234564e+02   5.001963e+02
  -3.642444e+02   2.158731e+01
  -1.526013e+02  -4.009273e+02
   1.701540e+02  -1.413103e+02
   1.720459e+02   3.063374e+02
  -1.183309e+02   4.200102e+02
  -4.515748e+02   3.742088e+01
  -5.209811e+02  -3.892913e+02
  -1.145841e+02  -4.966788e+02
   3.158651e+02  -2.714030e+02
   5.006285e+02   5.887666e+01
   3.352334e+02   3.020805e+02
  -7.317946e+01   1.989619e+02
  -3.024719e+02   1.011386e+02
  -2.415836e+02  -4.355695e+01
  -7.536921e+00  -2.988956e+01
   8.551613e+01   6.106370e+01
  -5.910918e+01   3.607519e+01
  -2.373150e+02  -5.749008e+01
  -1.558573e+02  -2.169917e+02
   9.684935e+01  -2.271672e+02
   3.129453e+02  -1.417257e+02
   2.454437e+02   1.186587e+02
  -3.677049e+01   3.060334e+02
  -2.843721e+02   3.000908e+02
  -3.869542e+02   1.781538e+02
  -2.419251e+02  -1.573310e+02
  -7.260178e+01  -4.007675e+02
   3.814927e+01  -3.101814e+02
   1.958070e+01  -1.762203e+02
   1.714349e+01  -1.139160e+02
   1.353953e+02  -1.307055e+02
   2.547536e+02  -4.152586e+01
   2.177337e+02   1.332516e+02
   6.099822e+01   2.583135e+02
  -8.085430e+01   2.041340e+02
  -1.897277e+02  -3.570378e+01
  -1.382504e+02  -2.669610e+02
   7.250261e+01  -2.584972e+02
   2.845280e+02  -7.446564e+01
   3.386045e+02   2.006156e+02
   1.897736e+02   2.773260e+02
  -6.549379e+01   2.749158e+02
  -1.785560e+02   1.604114e+02
  -2.241794e+02   8.005360e+01
  -1.859940e+02   1.321745e+02
  -2.498770e+02   6.063511e+00
  -3.942528e+02  -9.541190e+01
  -2.821620e+02  -3.666218e+02
   8.227122e+01  -3.814854e+02
   3.786037e+02  -3.200169e+02
   5.083866e+02  -1.985822e+02
   2.572458e+02   1.031234e+02
  -3.617551e+00   2.356240e+02
  -9.807751e+01   1.797331e+02
   1.630706e+01   2.355791e+01
   9.111992e+01  -7.197592e+01
   9.845762e+01   9.409769e+01
   2.836416e-01   1.674409e+02
  -9.499069e+01   1.357683e+02
  -9.326524e+01  -6.279430e+01
   2.270705e+01  -8.322128e+01
   1.978109e+02   2.457256e+01
   1.310771e+02   2.047202e+02
  -6.978797e+01   3.365480e+02
  -2.930671e+02   1.857472e+02
  -3.541490e+02  -6.164483e+01
  -2.230808e+02  -2.434268e+02
  -3.900739e+01  -2.410178e+02
   1.465252e+02  -9.487781e+01
   1.333599e+02  -4.591000e+01
   1.753264e+01   1.948359e+01
  -6.996461e+01  -4.726273e+01
   2.058509e+01  -1.157687e+02
   1.415426e+02  -5.327627e+01
   1.228861e+02  -9.609502e+00
  -7.646859e-01   1.607053e+01
  -6.720743e+01  -4.224014e+01
  -3.494160e+01  -9.590183e+01
   1.283278e+02  -1.062317e+02
   3.156314e+02   3.994054e+01
   2.808891e+02   2.577323e+02
  -1.571386e+01   2.599969e+02
  -2.284270e+02   2.081862e+02
  -2.763623e+02   8.777524e+01
  -1.349263e+02  -6.252813e+01
   1.238883e+01  -9.569141e+01
   7.008700e+01  -9.563178e+00
  -1.012869e+02   9.424796e+01
  -1.759892e+02   3.356371e+01
  -2.025283e+02  -8.174978e+01
  -5.336583e+01  -1.338811e+02
   9.947325e+01  -1.141235e+02
   1.022993e+02  -3.606795e+01
   3.909926e+01   3.648892e+01
  -1.240701e+01  -6.724036e+01
  -3.244572e+01  -1.221595e+02
   7.467033e+01  -1.081539e+02
   1.632966e+02   6.467282e+00
   1.448410e+02   1.287822e+02
  -2.067325e+01   2.112561e+02
  -1.552994e+02   1.495822e+02
  -1.792964e+02   1.720003e+01
   1.319143e+01  -8.686642e+01
   6.064989e+01  -5.785113e+01
   1.024020e+02  -6.995614e+00
   4.034147e+01  -6.265525e-01
   2.433548e+01  -1.067463e+01
   3.418682e+01  -5.147797e+01
   8.813121e+01   2.958930e+01
   8.540561e+01   7.863229e+01
  -5.692626e+01   1.860217e+02
  -1.733072e+02   1.426529e+02
  -2.727626e+02   4.792017e+00
  -1.949599e+02  -1.559013e+02
  -3.052840e+01  -2.156859e+02
   1.026773e+02  -1.365628e+02
   1.070041e+02  -4.928401e+01
   7.396248e+01   6.566199e+01
   6.570448e+01   3.994748e+01
   6.224678e+01  -9.832136e+00
   1.044472e+02   3.033627e+01
   1.042882e+01   5.285355e+01
  -8.771783e+01   8.795201e+01
  -1.475037e+02   6.609627e+01
  -1.115503e+02  -7.536926e+01
   1.325759e+01  -7.970011e+01
   2.162590e+02  -8.767333e+01
   1.929618e+02   9.241975e+01
   4.619127e+01   2.198207e+02
  -1.201215e+02   2.404944e+02
  -2.955091e+02   1.041115e+02
  -2.721305e+02  -6.146531e+01
  -9.049522e+01  -1.791174e+02
   2.612594e+01  -1.236236e+02
   1.040945e+02  -7.795708e+01
   4.917057e+01  -9.731705e+01
   6.130197e+01  -6.226625e+01
   1.010774e+02  -6.304762e+01
   1.277790e+02   3.656456e+01
   1.329398e+02   1.817233e+02
   2.365785e+01   2.759030e+02
  -1.117302e+02   2.039031e+02
  -2.196503e+02   4.285211e+00
  -1.274195e+02  -1.217879e+02
  -9.992728e+00  -1.628940e+02
   6.947147e+01  -8.788560e+01
   8.264842e+01   2.077181e+01
  -3.699551e+01   7.008069e+01
  -4.423977e+01   5.788514e+01
   2.927616e+01   1.650532e+01
   1.150678e+02   2.212742e+01
   4.731786e+01   3.546779e+01
  -8.508095e+01   7.162553e+00
  -1.778718e+02  -1.091155e+01
  -1.410531e+02  -7.511039e+01
  -2.502211e+01  -1.060812e+02
   1.616498e+02  -5.657525e+01
   1.485379e+02   2.717972e+01
   2.267010e+01   4.154045e+01
  -7.906829e+01   3.439899e+01
  -8.894386e+01  -1.172070e+01
  -2.892119e+01  -1.376986e+02
   2.964112e+01  -7.634471e+01
   6.768980e+01  -6.866573e-02
   7.383992e+01   6.012711e+01
   3.864194e+01   6.096865e+01
   5.133769e+01   4.027007e+01
   6.101799e+01  -5.150628e+00
   7.262313e+01   4.720726e+01
  -5.415961e+01   1.775759e+02
  -1.452528e+02   1.355425e+02
  -1.658884e+02   3.606272e+01
  -1.010704e+02  -8.660395e+01
  -5.589472e+00  -1.011205e+02
   6.783526e+01  -7.755325e+01
   8.322651e+01   3.598887e+01
  -6.443308e+01   2.415325e+01
  -1.050704e+02  -6.620410e+01
  -4.393723e+01  -8.997936e+01
   9.240843e+01  -1.160276e+02
   1.815997e+02  -5.239147e+01
   1.703299e+02   7.366210e+01
   2.066086e+01   7.679730e+01
  -1.336344e+02   8.401403e+01
  -7.137962e+01  -5.243978e+01
   4.647487e+01  -3.445035e+01
   6.904493e+01  -4.427264e+00
   2.360916e+01   9.238074e+01
  -6.319708e+01   1.518360e+02
  -1.755324e+02   5.919199e+01
  -1.108637e+02  -9.868375e+01
   1.584731e+01  -2.207891e+02
   1.157805e+02  -1.351139e+02
   9.979223e+01   3.573711e+01
   1.111385e+01   1.737021e+02
   2.412730e+01   1.075559e+02
  -3.213774e+01  -1.770499e+01
   1.247691e+01   1.954764e+01
  -1.170926e+01  -2.408682e+01
   7.359685e+00   2.262752e+01
  -3.632770e+01  -9.681601e+00
  -7.576674e+01  -7.309749e+01
   1.910402e+01  -8.750284e+01
   6.052485e+01  -5.217088e+01
   1.260633e+02   1.737502e+01
   1.281298e+02   6.008332e+01
   3.870862e+00   7.310319e+01
  -1.075092e+02   1.460362e+01
  -9.887873e+01   1.641660e+00
  -6.030998e-01   3.291427e+00
   2.438093e+01  -2.535872e+01
  -2.142109e+01  -1.755713e+01
  -1.886951e+01  -1.473110e+01
  -4.079086e+01  -2.889326e+00
   8.909313e+01  -2.666686e+01
   1.154071e+02   3.220992e+01
  -2.322943e+01   6.875735e+01
  -1.170496e+02   1.209211e+02
  -2.270215e+02   5.826131e+01
  -1.407209e+02  -4.495787e+01
  -6.194537e+00  -1.473854e+02
   1.250455e+02  -1.609631e+02
   1.115877e+02  -7.549746e+01
   9.874679e+01   4.709302e+01
   5.004095e+01   1.632799e+01
   4.689211e+01   1.233461e+01
   1.305877e+01   2.539404e+01
   2.304178e+01   5.019743e+01
  -2.654651e+01   3.808200e+01
  -4.487370e+01   8.453786e+01
  -6.346236e+01  -1.342719e+01
  -1.339820e+02  -1.175399e+02
  -2.185927e+01  -1.356747e+02
   2.541905e+01  -2.525433e+01
   1.075514e+02   1.106385e+02
  -1.912418e+01   6.370702e+01
  -3.093940e+01   7.434418e+01
  -1.573584e+02   1.201196e+01
  -4.548455e+01  -8.033706e+01
   4.429776e+01  -6.183625e+01
   5.474458e+01  -7.851273e+01
  -6.477791e+01   2.295754e+01
  -7.255952e+01  -3.965110e+00
  -5.632932e+00  -4.605386e+01
   1.014297e+02  -7.543764e+01
   1.429382e+02  -3.624397e+01
   6.092817e+01   1.834831e+01
  -3.472541e+01   5.162079e+01
  -5.421399e+01   4.131104e+01
  -9.361286e+00   2.682486e+00
  -1.041763e+01  -4.267496e+01
   2.501772e+01  -3.815851e+01
   5.185367e+01   3.515513e+01
  -4.513294e-01   5.043594e+01
  -2.920144e+01   2.680200e+01
  -6.977442e+00  -2.848605e+01
   9.311360e+00  -3.094261e+01
   1.319060e+01   3.115872e+01
   1.402916e+01   7.380966e+01
  -4.102885e+01  -9.588804e+00
   5.721143e+00  -6.967843e+01
   1.530060e+01  -2.627562e+01
  -5.982012e+00  -9.720024e+00
   4.098324e+01   6.081551e+00
  -3.778905e+01   7.993813e+01
  -7.657733e+01   7.007092e+01
  -6.003307e+01  -1.927022e-01
  -4.187448e+01  -4.883911e+01
   7.885465e+01  -2.259734e+01
   1.194512e+02   6.039904e+01
   6.565634e+01   2.569017e+01
  -6.819163e+01   7.799622e+01
  -1.068786e+02  -3.195880e+00
  -3.105641e+01   8.436908e+00
   4.433911e+01  -2.064069e+01
  -5.752813e+00   3.902046e+01
  -9.212907e+01   5.432700e+01
  -8.473106e+01   2.224121e+01
