
 $NMID
 id='ANONYMOUS ', fmtdat='(2E16.6)'
 volume=1.0
 tramp=1.0
 $END
   3.700681e+03  -2.080638e+02
   2.224529e+03   1.819255e+03
  -5.556237e+01   1.960376e+03
  -1.484455e+03   1.265836e+03
  -9.933543e+02  -1.938821e+02
   2.268123e+02  -3.625058e+02
   5.410235e+02   2.782553e+02
   1.904622e+01   7.067423e+02
  -5.822416e+02   7.540719e+02
  -7.747886e+02   2.265142e+00
  -3.939307e+02  -6.042464e+02
   1.064193e+02  -8.065772e+02
   3.951321e+02  -1.618746e+02
   2.686178e+02   5.315293e+02
  -1.506231e+02   6.204067e+02
  -4.754623e+02  -2.331278e+01
  -2.322612e+02  -5.669022e+02
   2.637002e+02  -6.603615e+02
   5.712800e+02  -1.767681e+02
   4.355716e+02   2.647451e+02
   6.571383e+01   3.834617e+02
  -1.054800e+02   1.905687e+02
  -1.257877e+02   1.061548e+02
   1.569012e+02   6.292039e+01
   3.261168e+02   2.478430e+02
   2.733852e+01   4.098127e+02
  -5.125846e+02   2.738724e+02
  -6.659491e+02  -7.865221e+01
  -2.858698e+02  -4.006876e+02
   3.148942e+02  -3.296446e+02
   5.612820e+02   7.063718e+01
   2.464466e+02   4.273691e+02
  -2.876976e+02   3.928896e+02
  -5.019141e+02   1.360384e+02
  -3.813216e+02  -1.713458e+02
  -9.243283e+01  -3.319189e+02
   8.478300e+01  -2.028648e+02
   2.222847e+01   4.392596e+01
  -6.150188e+01   1.767647e+02
  -2.324531e+02  -3.570674e+01
  -1.564770e+02  -5.823860e+02
   2.230114e+02  -5.376391e+02
   3.695932e+02  -6.758212e+01
   1.888737e+02   4.095183e+02
  -1.890403e+02   1.787619e+02
  -2.309403e+02  -2.896314e+02
   7.522672e+01  -4.800056e+02
   4.959065e+02  -6.999558e+01
   5.596369e+02   3.954219e+02
   1.856227e+02   5.870412e+02
  -3.216631e+02   3.283110e+02
  -5.947791e+02  -3.827796e+01
  -3.629549e+02  -3.304934e+02
   1.235502e+02  -2.534828e+02
   2.993669e+02  -6.339921e+01
   1.833986e+02   4.698986e+01
  -3.062302e+01   7.056898e+01
  -1.019526e+02  -9.029450e+01
   1.364895e+02  -1.537781e+02
   2.962408e+02   7.032651e+01
   1.264941e+02   2.008066e+02
  -1.437648e+02   2.627626e+02
  -3.691805e+02   9.922199e+01
  -2.027035e+02  -1.113480e+02
   5.039180e+01  -2.947646e+02
   2.963765e+02  -2.907019e+02
   3.838305e+02  -1.406167e+02
   2.443009e+02   1.527744e+02
   7.861416e+01   3.672939e+02
  -7.158755e+01   2.812666e+02
  -4.175132e+01   2.007161e+02
  -4.108600e+01   9.501506e+01
  -1.405600e+02   1.441735e+02
  -1.946812e+02   1.055101e+02
  -2.266344e+02  -7.618398e+01
  -7.637840e+01  -2.662306e+02
   9.487443e+01  -2.034738e+02
   2.432537e+02   1.374245e-02
   1.463182e+02   2.609728e+02
  -6.597308e+01   2.514356e+02
  -2.738201e+02   6.605646e+01
  -3.461192e+02  -2.239877e+02
  -2.048338e+02  -3.253858e+02
   2.517826e+01  -2.897350e+02
   1.959353e+02  -1.007055e+02
   1.612004e+02  -5.004031e+01
   1.484458e+02  -6.334010e+01
   3.021576e+02  -5.049088e+01
   4.650055e+02   1.188070e+02
   3.168845e+02   3.410753e+02
  -2.974238e+01   4.066202e+02
  -3.291287e+02   3.424274e+02
  -5.200267e+02   2.266646e+02
  -2.867407e+02  -1.570195e+02
  -5.721171e+01  -2.743098e+02
   5.439231e+01  -2.343531e+02
   7.340352e+00  -8.135564e+00
  -1.543406e+02   6.924426e+01
  -1.236702e+02  -2.512373e+01
  -2.951848e+01  -1.484993e+02
   1.379462e+02  -1.490636e+02
   1.375977e+02   4.534568e+01
  -7.439483e+00   8.921238e+01
  -1.843992e+02  -1.111585e+00
  -1.759719e+02  -2.510449e+02
   6.126672e+01  -3.569929e+02
   1.925634e+02  -1.807225e+02
   3.557902e+02   7.224682e+01
   2.974238e+02   2.507354e+02
   5.280116e+01   2.944808e+02
  -1.238407e+02   1.407432e+02
  -1.471987e+02   1.623997e+01
  -6.633143e+01  -1.381022e+00
   3.805776e+01   5.592690e+01
  -3.072989e+00   1.079345e+02
  -1.412271e+02   7.780003e+01
  -1.571869e+02   1.318201e+01
  -3.884884e+01  -1.762505e+01
   7.821464e+01   1.251129e+01
   3.413595e+01   6.786093e+01
  -1.782598e+02   6.938271e+01
  -3.518982e+02  -1.911711e+00
  -2.729221e+02  -1.235630e+02
  -3.949928e+01  -2.436011e+02
   1.831810e+02  -2.046181e+02
   2.272186e+02  -1.374812e+02
   1.536926e+02   5.345034e+01
  -3.544762e+01   1.263978e+02
  -7.746703e+01   1.504500e+00
   8.437570e+01  -6.341515e+01
   1.501607e+02   3.184319e+00
   1.766972e+02   1.080389e+02
   6.146210e+01   1.614760e+02
  -6.029426e+01   1.515356e+02
  -8.778494e+01   5.012312e+01
  -5.017974e+01  -5.128728e+01
   2.883723e+01   1.955512e+01
  -1.397845e+01   1.116191e+02
  -1.052885e+02   6.933189e+01
  -1.868246e+02  -3.591024e+01
  -1.733965e+02  -1.077858e+02
   3.215352e+01  -2.013708e+02
   1.556150e+02  -1.416478e+02
   1.866205e+02   8.644976e+00
   6.807228e+01   1.367023e+02
  -6.546379e+01   1.186467e+02
  -6.930189e+01   1.564667e+01
  -1.823423e+01   4.678395e+01
  -1.392811e+01   1.592724e+01
  -4.005082e+01   3.250967e+01
  -8.403760e+01  -1.362277e+01
  -8.133283e+01  -1.179852e+02
   4.835247e+01  -1.606445e+02
   1.639900e+02  -1.435782e+02
   1.937756e+02   4.320872e-01
   2.351940e+02   1.376253e+02
   5.293080e+01   2.192168e+02
  -7.831414e+01   1.751825e+02
  -9.265888e+01   1.259362e+01
  -6.160748e+01  -6.460320e+01
  -4.179622e+01  -5.105185e+01
  -7.046789e+00   1.645262e+01
  -6.919312e+01   2.538582e+01
  -4.838032e+01  -5.352323e+01
   2.746994e+01  -9.956291e+01
   1.180493e+02  -3.622457e+01
   1.066775e+02   5.864344e+01
  -3.801939e+00   1.070185e+02
  -2.084562e+02   7.243155e+01
  -2.422138e+02  -9.251845e+01
  -1.240145e+02  -2.027676e+02
   7.373440e+01  -2.240716e+02
   2.821896e+02  -9.278939e+01
   2.731738e+02   1.136753e+02
   6.164372e+01   1.747307e+02
  -1.273003e+01   1.183035e+02
  -8.271927e+01   8.590594e+01
  -9.697799e+01   7.593912e+01
  -3.981868e+01   7.412613e+01
  -6.063524e+01   7.380055e+01
  -9.806300e+01  -8.294311e+00
  -1.579099e+02  -1.193290e+02
  -5.295522e+01  -2.760124e+02
   7.656882e+01  -1.865163e+02
   2.118780e+02  -2.583394e+01
   1.431005e+02   1.168780e+02
   3.081490e+00   1.398358e+02
  -7.467180e+01   9.948990e+01
  -3.706403e+01  -1.643997e+01
   4.633181e+00  -6.484335e+01
   4.669547e+01  -7.153444e+01
  -1.112063e+01  -8.739480e+00
  -9.320465e+01   3.399047e+01
  -3.515374e+01  -4.998432e+01
   9.043950e+01  -2.051219e+01
   1.388324e+02  -2.483348e+01
   1.334670e+02   7.487681e+01
  -2.140690e+01   9.062176e+01
  -1.664983e+02   5.998202e+01
  -1.513336e+02   2.840952e+00
  -6.484670e+01  -1.211050e+01
   6.585248e+01  -6.839454e+01
   1.300922e+02   2.617209e+00
   3.493015e+01   5.771890e+01
  -6.039344e+01   9.943477e+01
  -5.851480e+01   6.686871e+00
  -6.793508e+01  -7.654514e+01
  -3.459673e+01  -7.837453e+01
  -4.403237e+01   8.040929e+00
  -4.951522e+01  -8.441514e+00
  -2.508423e+01  -7.532717e+01
   6.816313e+01  -1.706672e+02
   1.313050e+02  -1.178436e+02
   1.567075e+02  -3.646300e+01
   8.428228e+01   1.144864e+02
  -1.881559e+01   8.327313e+01
  -7.349697e+01   5.862661e+01
  -8.174326e+01   2.541857e+01
   5.331510e+01  -2.803652e+01
   1.328820e+02   3.412157e+01
   1.254458e+02   1.397739e+02
  -8.793686e+01   8.260722e+01
  -2.020207e+02   7.526289e+01
  -1.713599e+02  -3.681320e+01
  -6.155406e+01  -9.953923e+01
   1.051426e+02  -6.421984e+01
   3.963215e+01   1.537535e-02
  -2.132931e+01   1.220370e+01
  -1.061179e+02  -2.506008e+01
  -7.092615e+01  -1.504020e+02
   9.313444e+01  -1.677447e+02
   1.762915e+02  -3.921662e+01
   1.335304e+02   8.552502e+01
  -1.645251e+01   1.738963e+02
  -2.900392e+01   1.314571e+02
  -1.066731e+02  -1.865391e+01
  -8.955304e+01  -1.176740e+02
   3.217603e+01  -1.130530e+02
   3.794360e+01  -2.691189e+01
   3.572412e+01   6.277428e+01
   4.149114e+01  -1.559939e+01
  -5.900294e-01  -2.772517e+01
   3.150901e+01   3.318389e+01
   5.991125e+01   7.703186e+01
   4.093831e+01   9.980248e+01
  -5.669378e+01   4.224151e+01
  -1.409227e+02  -3.706126e+01
  -1.109760e+02  -5.724933e+01
  -7.714390e+00  -3.256061e+01
   7.672841e+01  -2.965995e+01
   1.035226e+02  -6.161700e+00
   3.405515e+01  -1.479657e+01
  -5.825349e+01   7.000105e+01
  -5.409953e+01   9.608096e+00
   2.538251e+01  -4.688195e+01
   6.827631e+00   7.239408e-01
  -6.227930e+01   3.010406e+01
  -9.827939e+01  -4.909477e+01
  -3.117671e+00  -9.534334e+01
   1.505070e+02  -1.295987e+02
   1.780877e+02  -5.734420e+01
   1.781540e+02   5.588315e+01
   1.003114e+02   1.064390e+02
  -9.029025e+01   1.484757e+02
  -1.242865e+02   3.131324e+01
  -7.323236e+01  -4.049621e+01
  -2.936606e+01  -8.225797e+01
  -2.351624e-01  -1.521539e+01
   2.268826e+00   1.863487e+00
  -5.323891e+01  -3.673633e+01
  -1.881083e+01  -5.930142e+01
   3.006201e+01  -9.260857e+01
   7.824166e+01   1.492472e+01
   8.713929e+01   1.389300e+02
   6.439660e+01   1.781545e+02
  -4.610288e+01   3.167796e+01
  -1.002143e+02  -3.189350e+01
   1.568928e+01  -1.121537e+02
   1.108578e+02  -9.665794e+01
   9.860880e+01  -1.161599e+01
   6.806158e+01   3.518625e+01
  -5.504022e+01   8.515120e+01
  -5.520926e+01   3.648076e+00
   2.106113e+01  -2.681933e+00
   5.918916e+01   4.381477e+00
   2.059610e+01   3.075725e+01
  -5.349246e+01   8.741441e+01
  -1.041474e+02   6.729419e+01
  -7.817012e+01  -2.436872e+01
   5.480865e+00  -4.156258e+01
   4.936346e+01  -8.617722e+01
   2.431019e+01  -1.590110e+01
   4.751463e+01   3.974696e+01
  -4.395255e+01   5.198722e+01
  -5.798715e+01   2.919704e+01
   4.369893e+00  -6.991629e+01
  -3.082283e+01  -6.613238e+01
   7.325540e+01   2.248854e+01
   3.440410e+01   5.240406e+01
   1.125699e+01  -9.924000e+00
   2.787133e+01  -6.105234e+01
   2.970777e+01  -2.903298e+01
   3.059398e+01   7.194392e+01
   3.294782e+01   7.394366e+01
  -3.146561e+01   2.610582e+01
  -5.782394e+01  -6.309790e+00
  -2.817256e+01  -5.024940e+01
   2.491553e+01   1.580394e+01
   4.209808e+01   6.227136e+01
   4.940802e+01   1.153334e+02
  -3.405777e+01   3.831344e+01
  -7.388254e+01  -2.357778e-01
  -6.524983e+01  -9.438782e+01
   7.826409e+01  -6.030559e+01
   4.119218e+01  -8.900436e+00
   2.094085e+01   1.531166e+00
  -5.748705e+01  -2.983382e+01
  -5.873102e+01   1.079836e+01
   5.423658e+01  -8.195264e+00
   6.061871e+01   4.081244e+00
