
 $NMID
 id='ANONYMOUS ', fmtdat='(2E16.6)'
 volume=1.0
 tramp=1.0
 $END
   3.287111e+03   2.213728e+02
   1.920761e+03   1.892454e+03
  -4.613743e+02   2.052434e+03
  -1.490159e+03   7.554798e+02
  -7.117795e+02  -2.685270e+02
   3.003170e+02  -3.610933e+02
   5.534715e+02   2.953931e+02
  -6.434685e+00   7.640151e+02
  -6.827726e+02   5.013666e+02
  -6.402240e+02  -2.969346e+01
  -3.752457e+02  -6.353699e+02
   1.739438e+02  -7.047017e+02
   3.846968e+02  -1.378168e+02
   2.880743e+02   4.668461e+02
  -1.919796e+02   5.444461e+02
  -4.297740e+02  -2.612636e+01
  -2.317516e+02  -5.269107e+02
   2.065556e+02  -4.877758e+02
   4.659882e+02  -7.885268e+01
   2.947383e+02   2.487306e+02
   6.726694e+01   3.478373e+02
  -1.979932e+02   1.880923e+02
  -1.309230e+02   6.253711e+00
   1.213300e+02  -5.958914e+01
   2.992494e+02   2.044685e+02
   3.877923e+01   3.587640e+02
  -4.237266e+02   2.559090e+02
  -5.736058e+02  -1.309273e+02
  -2.726901e+02  -4.731123e+02
   3.257292e+02  -2.398261e+02
   5.389858e+02   1.014807e+02
   1.792308e+02   3.707408e+02
  -2.454313e+02   3.186944e+02
  -4.488980e+02   9.764218e+01
  -3.063850e+02  -2.029307e+02
  -4.957041e+01  -3.340124e+02
   1.295789e+02  -1.685167e+02
   2.352354e+01   1.554064e+02
  -1.719082e+02   2.707330e+02
  -3.044295e+02  -8.799878e+01
  -6.994182e+01  -5.257271e+02
   3.588757e+02  -4.361092e+02
   4.325606e+02  -1.992761e+01
   6.979933e+01   4.181339e+02
  -2.229027e+02   1.705709e+02
  -2.164190e+02  -3.087572e+02
   1.041142e+02  -3.869794e+02
   4.293268e+02  -2.269712e+01
   4.415498e+02   3.028986e+02
   1.487841e+02   4.644991e+02
  -2.609755e+02   2.761678e+02
  -4.664976e+02  -9.815757e+01
  -2.793549e+02  -2.932291e+02
   1.174618e+02  -2.438863e+02
   3.329247e+02   2.044708e+01
   1.693219e+02   8.122700e+01
  -6.499780e+01   8.104683e+01
  -8.073781e+01  -7.677578e+01
   7.460401e+01  -9.093692e+01
   2.274004e+02   8.804556e+01
   8.761126e+01   2.173229e+02
  -1.522884e+02   1.956789e+02
  -2.422705e+02   7.695038e+01
  -1.860251e+02  -7.857526e+01
   1.260584e+01  -2.266617e+02
   1.922197e+02  -1.928954e+02
   2.806324e+02  -1.624290e+02
   2.354555e+02   1.263807e+02
   3.202542e+01   3.416380e+02
  -1.070947e+02   2.591990e+02
  -8.897801e+01   1.143758e+02
  -1.364102e+01   6.751624e+01
  -4.027070e+01   1.077338e+02
  -1.630957e+02   4.229773e+01
  -2.744769e+02  -4.875959e+01
  -7.653900e+01  -2.646643e+02
   7.553529e+01  -1.637803e+02
   1.663642e+02   5.964866e+01
   1.371969e+02   2.404736e+02
  -4.065741e+01   2.221653e+02
  -2.312325e+02   7.143647e+01
  -2.377045e+02  -1.563889e+02
  -1.954240e+02  -2.803135e+02
   8.681738e+01  -2.469876e+02
   2.056891e+02  -6.808510e+01
   1.179635e+02  -2.488903e+01
   8.344612e+01  -2.435810e+01
   2.149177e+02  -1.709012e+01
   3.401955e+02   1.198308e+02
   2.680130e+02   2.411059e+02
  -5.783676e+01   3.317614e+02
  -3.635169e+02   3.227187e+02
  -4.859020e+02   1.367805e+02
  -2.880666e+02  -9.128616e+01
  -2.216011e+01  -2.461255e+02
   1.190077e+02  -2.268330e+02
   2.634866e+00  -7.982867e-02
  -8.131310e+01   9.178749e+01
  -8.442013e+01  -1.573172e+01
  -1.749318e+01  -1.197717e+02
   1.337177e+02  -9.121520e+01
   9.079231e+01   1.087200e+02
  -1.540469e+01   1.168968e+02
  -1.343087e+02   2.930829e+01
  -1.180421e+02  -2.181055e+02
   3.934054e+01  -3.259046e+02
   2.266712e+02  -1.309446e+02
   2.207607e+02   1.038102e+02
   2.209740e+02   1.993148e+02
   4.056021e+01   2.330479e+02
  -1.142692e+02   1.308882e+02
  -1.334088e+02  -2.890608e+00
  -4.109194e+01  -2.616475e+01
   3.185389e+01   6.233269e+01
  -2.809360e+01   3.810353e+01
  -9.630947e+01   6.520265e+01
  -1.196937e+02  -5.087581e+01
  -1.010885e+01  -1.652853e+01
   8.668533e+01   1.167913e+01
   5.769515e+01   1.106918e+02
  -1.174452e+02   6.508929e+01
  -2.081294e+02  -1.277134e+01
  -2.043208e+02  -8.409724e+01
  -5.011804e+01  -2.337429e+02
   2.143489e+02  -1.805090e+02
   2.022348e+02  -1.222748e+02
   1.278267e+02   1.231204e+01
  -9.766061e+00   1.064431e+02
  -8.497330e+01  -1.285227e+01
  -1.717639e+01  -7.178879e+01
   1.513458e+02  -7.292597e+01
   1.812291e+02   9.688249e+01
   7.846617e+01   1.436206e+02
  -1.206586e+02   1.329057e+02
  -1.114010e+02   3.644743e+01
  -3.332439e+01  -3.850169e+00
   2.336678e+01  -1.010602e+01
  -3.968606e+01   6.619235e+01
  -1.270155e+02   1.182723e+02
  -2.399946e+02   4.304126e+01
  -1.528070e+02  -9.808153e+01
   9.094654e+00  -1.922427e+02
   1.343211e+02  -1.469106e+02
   1.393350e+02  -7.700846e+00
   4.600214e+01   8.861060e+01
  -4.248703e+01   1.176625e+02
  -6.916889e+01   6.413102e+01
   2.643954e+01  -4.566461e+00
   1.414588e+01  -5.624508e+01
  -1.752550e+01  -2.914021e+00
   1.578410e+01  -1.214874e+01
  -4.875168e+01  -7.732112e+01
  -2.889691e+01  -1.739485e+02
   1.340745e+02  -1.439845e+02
   2.396280e+02   1.833760e+01
   1.732528e+02   1.101595e+02
  -3.194992e+01   1.915954e+02
  -1.390737e+02   1.353979e+02
  -1.070760e+02   1.688341e+01
  -5.518753e+01  -6.626370e+01
  -2.349138e+01   7.890767e-01
  -4.288737e+01  -1.259092e+01
  -7.560645e+01  -2.379153e+01
  -7.252346e+01  -3.273689e+01
   9.389694e+00  -9.872967e+01
   1.124456e+02  -5.274879e+01
   5.402260e+01   4.495676e+01
   1.394648e+01   1.465001e+02
  -1.399971e+02   4.665712e+01
  -2.191419e+02  -9.535308e+01
  -3.247163e+01  -1.978994e+02
   9.646618e+01  -1.794946e+02
   1.893957e+02  -5.608112e+01
   1.950529e+02   4.627213e+01
   8.780474e+01   1.641212e+02
  -4.300119e+01   1.425508e+02
  -7.811840e+01   5.642174e+01
  -3.538422e+01   7.049815e+01
  -4.776462e+01   7.989627e+01
  -9.651382e+01   1.797003e+01
  -1.282232e+02  -5.534008e+01
  -1.081534e+02  -1.695731e+02
   1.399955e+01  -2.017359e+02
   1.444026e+02  -1.018544e+02
   1.835464e+02  -4.150270e+01
   1.004500e+02   1.015392e+02
   1.058134e+01   1.468895e+02
  -7.656158e+01   3.842392e+01
  -1.089488e+02  -8.436370e+00
  -1.584667e+00  -1.732038e+01
  -1.323486e+01  -4.553045e+01
  -3.072355e+01  -1.722096e+01
  -1.051473e+02   2.073495e+01
  -7.711786e+01  -1.533882e+01
   7.128877e+01  -1.591453e+01
   1.384151e+02   3.221810e+00
   1.089640e+02   6.556237e+01
  -5.833847e+00   1.641556e+01
  -6.577546e+01   6.701383e+01
  -1.023892e+02   5.387419e+00
  -3.984312e+01  -2.932948e+01
   7.894760e+01  -1.031607e+01
   4.831207e+01   7.490215e-01
  -1.198144e+01   8.643133e+01
  -4.634299e+01   1.079689e+02
  -6.390766e+01   4.407592e+00
  -8.095488e+00  -8.308500e+01
  -9.854173e+00  -4.776862e+01
  -3.872270e+01   1.692215e+00
  -5.356985e+01  -1.898736e+01
  -6.564869e+01  -5.672905e+01
   7.582486e+01  -1.068554e+02
   1.252513e+02  -8.751359e+01
   1.705913e+02  -1.952755e+01
   1.038651e+02   5.778568e+01
  -1.172560e+01   8.707216e+01
  -6.775446e+01   5.988819e+01
  -6.711442e+01  -1.807851e+01
   4.176857e+01  -1.912522e+01
   9.281348e+01   5.914136e+01
   3.986279e+00   7.728823e+01
  -7.589932e+01   1.078263e+02
  -1.511837e+02   2.460270e+01
  -1.725726e+02  -5.792676e+01
  -1.254178e+01  -7.580068e+01
   6.072670e+01  -3.170330e+01
   7.096410e+01  -1.333513e+01
  -6.769039e+01   1.601192e+01
  -8.762609e+01  -1.880835e+01
  -2.621929e+01  -8.014961e+01
   5.349002e+01  -1.178558e+02
   1.107587e+02  -3.126451e+01
   9.651761e+01   8.730682e+01
  -3.145524e+01   1.872446e+02
  -6.968958e+01   1.034119e+02
  -9.283025e+01  -1.670996e+01
  -3.327919e+01  -1.235739e+02
   3.864098e+01  -1.009341e+02
   5.514948e+01  -6.271661e+00
   3.852319e+01   6.715102e+01
   2.912677e+01   4.388834e+00
   2.161991e+01   1.203290e+01
  -1.479350e+01   1.301123e+01
   4.513859e+01   5.499324e+01
  -1.205155e+01   9.507068e+01
  -2.061797e+01  -4.237775e+00
  -8.287641e+01  -2.448489e+01
  -1.154152e+02  -8.720163e+01
   1.422353e+01  -4.361916e+01
   8.175815e+01  -1.209828e+01
  -8.132672e+00  -6.884669e+00
   1.358763e+01  -2.535387e+01
  -3.011381e+01  -1.271320e+01
  -3.434513e+01  -2.659118e+01
   6.184683e+00  -2.183493e+01
   2.255106e+01  -2.927088e+01
  -6.989603e+01  -1.020261e+01
  -5.782721e+01  -3.265935e+01
  -2.203071e+01  -6.342250e+01
   9.547536e+01  -1.484701e+02
   1.978035e+02  -6.298770e+01
   1.598791e+02   1.833413e+01
  -3.546526e+01   9.675147e+01
  -6.981719e+01   1.107240e+02
  -1.322710e+02   7.068950e+01
  -6.520265e+01   4.695344e+00
   1.970695e+01  -2.405979e+01
  -3.725688e+01   2.003201e+00
  -1.989333e+00   3.039065e-02
  -8.169141e+01  -1.388004e+01
   2.688556e+01  -8.100012e+01
   1.240169e+01  -7.467856e+01
   7.559644e+01   2.556900e+01
   7.840884e+01   5.746177e+01
   3.306127e+01   6.473856e+01
  -7.437519e+01   7.274459e+01
  -3.100688e+01  -8.150301e+00
  -3.365474e+01  -7.206096e+01
   6.241337e+01  -3.682010e+01
   4.674639e+01  -2.022417e+01
   3.175968e+01   5.833957e+01
  -5.878651e+00   9.538429e+01
  -3.931778e+01   4.041027e+01
   1.533240e+01   3.113165e-01
   5.114612e+01   2.750835e+01
  -1.403344e+01   6.019150e+01
  -5.189096e+01   2.247890e+01
  -9.883802e+01   1.118267e+01
  -4.601385e+01  -2.443913e+01
   1.573013e+01  -5.287351e+01
   3.014786e+01  -5.422647e+01
   9.408459e+00   8.783938e+00
  -3.720475e+01   4.864193e+01
  -2.872025e+01   2.057757e+00
  -2.329061e+01  -4.114627e+01
   1.561124e+01  -1.926562e+01
   1.706493e+01  -1.058980e+01
   4.423921e+01  -4.300458e+01
   3.645219e+01   5.433737e+01
  -9.778489e+00  -2.190405e+01
  -9.835326e+00  -1.536006e+01
   8.762046e+00  -3.576964e+01
   3.807978e+01   1.741519e+01
  -4.778606e+00   6.748754e+01
  -5.026676e+01   8.922337e+00
  -7.229733e+01  -2.239905e+01
  -3.340619e+01  -4.082491e+01
   4.595976e+00   4.509327e+00
   7.685045e+01   1.720049e+01
  -3.095756e+01   3.696333e+01
  -4.081273e+01  -7.476150e+00
  -5.143503e+01   2.336843e+00
  -2.702138e+01  -5.597862e+01
   2.162666e+01  -7.755957e+01
   6.086530e+01   8.388729e+00
   1.725959e+01   1.556504e+01
  -5.297969e+01   3.304915e+01
  -2.644092e+01  -3.599556e+01
   3.074883e+01  -4.458921e+01
   9.086306e+01   5.138228e+00
