
 $NMID
 id='ANONYMOUS ', fmtdat='(2E16.6)'
 volume=1.0
 tramp=1.0
 $END
  -1.764837e+03  -2.274526e+01
  -1.009195e+03  -7.563791e+02
  -1.532086e+02  -1.052325e+03
   3.940223e+02  -5.022244e+02
   3.124143e+02  -2.238546e+02
  -8.678888e+01  -9.446925e+01
  -1.529515e+02  -1.131753e+02
   2.059509e+01  -2.079992e+02
   2.384744e+02  -2.141065e+02
   2.505809e+02   7.564412e+01
   1.795196e+02   2.525630e+02
   6.851529e+01   2.732555e+02
  -1.476822e+02   8.544502e+01
  -1.193550e+02  -2.622151e+02
   1.091588e+02  -2.205461e+02
   1.775992e+02   8.521711e+00
   1.331005e+02   2.336753e+02
  -6.445695e+01   3.384175e+02
  -2.094693e+02   1.784974e+02
  -2.331587e+02  -1.388176e+02
  -6.647077e+01  -1.536585e+02
   5.322072e+01  -1.193747e+02
  -1.396878e+01  -4.499641e+01
  -1.230932e+02  -5.734557e+01
  -1.824503e+02  -1.758722e+02
   4.473276e+01  -2.022186e+02
   2.385142e+02  -3.862152e+01
   3.458417e+02   1.045205e+02
   4.745440e+01   2.007299e+02
  -1.791668e+02   7.956868e+01
  -2.529712e+02  -1.355675e+02
  -2.168908e+01  -1.837245e+02
   1.495706e+02  -1.429245e+02
   2.440462e+02  -1.352196e+01
   1.479264e+02   9.154465e+01
   2.925652e+00   1.336783e+02
  -1.410036e+01   1.128545e+02
   9.431040e+01  -3.317345e+01
   8.910384e+01  -4.855666e+01
   8.082044e+01   5.304807e+01
   9.141120e+00   1.884528e+02
  -1.528679e+02   1.546207e+02
  -1.739577e+02  -6.915865e+01
  -3.597291e+01  -1.719936e+02
   1.017856e+02   1.379114e+01
   4.679447e+01   2.060251e+02
  -9.449354e+01   1.702242e+02
  -2.319255e+02  -2.264271e+01
  -2.358914e+02  -1.127796e+02
  -8.428517e+01  -2.431219e+02
   1.920071e+02  -1.050517e+02
   2.191393e+02   6.263342e+01
   2.026366e+02   7.251347e+01
  -2.657713e+00   6.624612e+01
  -1.524300e+02   5.655650e+01
  -1.085947e+02   4.439138e+01
   2.464122e+00   6.617112e+00
   4.427745e+01   7.522921e+01
  -1.121446e+02  -2.372514e+00
  -1.180221e+02  -1.176651e+02
  -3.758258e+01  -1.176786e+02
   9.232544e+01  -1.395557e+02
   1.888440e+02  -5.568768e+01
   1.489059e+02   9.612448e+01
  -8.279612e+00   1.655493e+02
  -2.447945e+02   2.022146e+02
  -1.728409e+02   3.527704e+01
  -1.522131e+02  -1.026093e+02
   5.569683e+01  -2.128806e+02
   3.292209e+01  -1.339870e+02
  -2.204473e+00  -1.251812e+02
   8.150261e+00  -4.550428e+01
   1.227552e+02  -7.755625e+01
   1.766219e+02   2.987348e+01
   1.054200e+02   1.091016e+02
   3.585021e+00   1.118815e+02
  -1.354016e+02   6.014441e+01
  -1.046701e+02  -4.398362e+01
  -4.458327e+01  -1.685175e+02
   4.064898e+01  -1.038277e+02
   1.026052e+02   1.222310e+00
   1.629485e+02   1.261729e+02
   1.222837e+02   1.467911e+02
  -4.288405e+01   1.350851e+02
  -7.174563e+01   1.082954e+02
  -4.641516e+01   5.355874e+01
  -4.802467e+01   4.550685e+01
  -1.672997e+02  -5.982885e+00
  -1.926026e+02  -1.296976e+01
  -1.363670e+02  -1.446288e+02
   1.592616e+01  -2.622191e+02
   1.566810e+02  -1.894399e+02
   2.737745e+02  -8.644205e+01
   1.227531e+02   8.275122e+01
   3.700413e+00   8.317027e+01
  -2.460693e+01   8.638107e+01
   5.981764e+00  -2.683019e+01
   8.891755e+01   1.111738e+01
   4.741375e+01   3.105498e+01
   2.709728e+01   1.087170e+02
  -7.565119e+01   2.903473e+01
  -5.400711e+01  -7.497466e+00
   1.264518e+01  -1.982868e+01
   1.040584e+02   2.978478e+01
   6.430924e+01   1.570628e+02
  -5.766872e+01   1.725779e+02
  -1.342190e+02   1.401065e+02
  -1.620054e+02  -7.386279e+01
  -1.084867e+02  -1.579229e+02
  -1.212202e+01  -1.534105e+02
   5.211187e+01  -1.074096e+02
   1.150112e+02  -2.247411e+01
   5.039644e+01   5.013677e+00
   1.282966e+01  -5.886947e+01
   1.191359e+01  -5.569982e+01
   9.185645e+01  -8.333114e-01
   4.704193e+01   4.811674e+01
  -9.037985e+00   5.527289e+00
  -1.919752e+01  -2.991077e+01
  -2.555968e+00  -6.734293e+01
   1.035189e+02  -2.034672e+01
   1.828502e+02   6.552407e+01
   1.564877e+02   1.198171e+02
  -2.141869e+01   1.794873e+02
  -1.977379e+02   1.359037e+02
  -1.534188e+02   8.083839e+01
  -4.465060e+01  -4.027263e+01
   5.440933e+01  -3.108310e+01
  -1.536167e+01   8.755169e+00
  -3.771533e+01   2.393327e+01
  -1.106823e+02   2.191024e+01
  -1.153618e+02  -7.411672e+01
  -5.587943e+01  -7.174120e+01
   9.800150e+01  -5.820768e+01
   7.623687e+01  -2.522653e+01
   1.145305e+01   2.935031e+01
  -3.812802e+01  -2.522506e+01
  -5.354468e+01  -7.281819e+01
   8.678929e+01  -9.207591e+01
   1.039353e+02  -4.752263e+00
   9.182794e+01   5.406055e+01
  -3.507855e+01   9.103249e+01
  -6.733866e+01   5.644138e+01
  -6.593852e+01   6.980223e+00
  -2.335706e+01  -5.041262e+01
   6.046864e+00  -6.488373e+01
   3.324486e+01   4.284475e+00
   4.270317e+01   2.396312e+01
  -4.561323e+01  -6.668902e+00
  -6.761940e+00  -1.250457e+01
   1.815521e+01   1.345851e+01
   5.200650e+01   7.077052e+01
  -7.524278e+00   1.124742e+02
  -1.033532e+02   5.150536e+01
  -1.407178e+02  -2.446936e+01
  -1.155584e+02  -9.069515e+01
  -1.187737e+01  -1.513287e+02
   1.004731e+02  -8.124581e+01
   5.974340e+01  -7.467898e+00
   1.304910e+01   4.581726e+01
   2.501628e+01   2.937831e+01
   2.208878e+01  -9.924191e+00
   8.508118e+01   3.184492e+01
  -7.631524e+00   7.248054e+01
  -1.634034e+01   8.275180e+01
  -1.585193e+01   3.475444e+01
   7.115534e+00  -3.678285e+01
   6.306035e+00  -6.471157e+01
   1.003800e+02  -8.160435e+01
   1.086926e+02   9.135862e+01
   2.404018e+01   1.080359e+02
  -8.319312e+01   9.065419e+01
  -1.133935e+02   2.015602e+01
  -1.783606e+02  -1.300016e+02
  -5.955235e+01  -7.358199e+01
   9.861486e+00  -1.004810e+02
   8.009816e+00  -3.012207e+01
   4.932374e+01  -4.749843e+01
   2.639313e+01  -2.405936e+01
   5.932812e+01  -3.609263e+01
   4.789164e+01   4.500179e+01
   7.989109e+01   1.333103e+02
   4.116335e+01   1.327872e+02
  -4.121391e+01   5.195816e+01
  -1.120602e+02  -1.206559e+01
  -4.897451e+01  -1.148178e+02
   2.984257e+01  -6.849101e+01
   7.685421e+01  -5.140948e+01
   3.964537e+01   1.552952e+01
  -8.129839e+00   1.861720e+01
  -4.110697e+01  -7.613008e-01
  -7.891366e+00  -5.864197e+00
   1.821274e+01   1.889777e+01
   7.820502e+00   1.584991e+01
  -1.726810e+01   3.608850e+01
  -7.041865e+01   2.225905e+00
  -1.065946e+02  -7.726932e+01
  -3.230564e+01  -8.245286e+01
   8.561121e+01  -4.991522e+01
   7.861973e+01  -4.091289e+01
   2.839037e+01   4.041620e+01
   7.805069e+00  -6.045810e+00
  -4.901779e+01  -6.229175e+01
   1.216645e+01  -7.212606e+01
   1.188335e+01  -5.392667e+01
   4.176597e+01   1.303574e+01
   3.389377e+01  -9.248974e-01
   2.989227e+01   1.200649e+01
   3.723677e+01  -6.048728e+00
  -3.010720e+00   3.718425e+01
   9.718196e+00   4.380070e+01
  -3.783845e+01   5.387647e+01
  -7.271769e+01   2.624065e+01
  -1.129994e+02   7.266519e-01
  -9.441055e+01  -7.775244e+01
  -8.855015e-01  -1.224009e+02
   3.742566e+01  -1.275552e+01
   5.828327e+01   1.758503e+01
  -6.698127e+01   3.281215e+01
  -4.901240e+01  -6.036144e+01
  -6.108611e+01  -7.507720e+01
   4.252938e+01  -4.894285e+01
   9.575819e+01   6.372514e+00
   8.902342e+01  -1.969150e+01
   1.871306e+01   6.917170e+01
  -2.196351e+01   3.807995e+01
  -2.374905e+01   2.699085e+01
   1.841530e+01  -2.800646e+01
   5.323213e+01   4.499852e+00
   2.117319e+01   6.598613e+01
  -8.071698e+01   7.485489e+01
  -5.348300e+01   1.161549e+01
  -7.180909e+01  -5.396826e+01
  -1.703434e+01  -7.000374e+01
   5.394944e+01  -1.095209e+02
   4.890480e+01  -9.111127e+00
   5.697807e+01   4.879787e+01
  -5.942739e+00   8.079471e+01
  -4.398429e+01   3.179548e+01
  -3.380919e+01   1.526806e+01
  -1.593174e+01   2.558877e+01
   1.393383e+01   3.749490e+01
  -3.290101e+00  -1.698470e+01
  -7.053826e+01  -4.663502e+01
  -9.135551e+00  -5.707078e+01
  -7.391996e+00   9.902850e+00
   1.090703e+02   2.913060e+01
   6.533797e+01   4.231477e+01
  -1.150177e+01   3.329088e+01
  -7.635019e+01   2.111679e+01
  -7.048851e+00   3.335109e+01
  -2.610630e+01  -1.130429e+01
   3.209999e+01  -1.957599e+01
   4.543921e+01   1.019404e+01
  -6.618700e+00   3.178680e+01
  -9.823321e+00  -4.304406e+01
   2.364722e+01   8.417302e+00
   6.342238e+01   2.036865e+01
   1.406075e+01   1.018501e+02
  -2.582411e+01   1.018853e+02
  -1.177968e+02   4.949809e+01
  -1.284370e+02   2.343412e+01
  -5.478578e+01  -6.287806e+01
   5.395479e+01  -1.076957e+02
   9.238720e+01  -5.262361e+01
   4.302632e+01   1.072005e+00
   6.124316e+00  -6.003564e+00
   1.497493e+01  -4.272378e+01
   8.779094e+00  -6.368878e+00
  -2.394244e+01   5.395298e+01
   2.619711e+01   7.088651e+01
   4.082067e+00   2.286825e+01
  -5.948852e+00  -5.461994e+01
  -4.043320e+01  -4.674152e+01
   6.988095e+00  -6.378023e+01
   3.506742e+01  -3.405566e+01
   3.828902e+01   4.851618e+01
  -4.517132e+01   5.945155e+01
  -4.670830e+01   4.854393e+01
  -6.815841e+01  -1.536263e+01
  -2.903251e+01  -4.896902e+01
   5.398389e+01  -2.376428e+01
   1.687069e+01  -3.437849e+00
  -1.591494e+01   2.669948e+01
  -2.955142e+01  -7.208856e+00
  -1.635229e+01  -3.976141e+01
   1.468127e+01  -2.663341e+01
   6.333228e+01   4.007084e+00
   3.229447e+01   3.377255e+01
  -3.147995e+01   2.388827e+01
  -3.912375e+01   3.558475e+00
  -1.442188e+01   7.416052e+00
   2.530086e+01  -3.163313e+01
   3.411093e+00   3.035081e+00
   3.675243e+01   3.133103e+01
  -8.266113e+00   3.737464e+01
   3.771701e+01  -1.610388e+01
   8.479787e+00   1.145739e+01
   2.203338e+00  -4.727479e+00
   4.918400e+00   1.692807e+01
  -9.990273e+00   2.122764e+01
   2.709715e+01   3.075753e+01
   3.180167e+01  -2.184389e+01
  -2.416891e+01  -3.528164e+01
   9.729806e+00  -2.935675e+00
   3.047388e+01   4.729992e+01
  -1.715997e+01   4.544990e+01
  -3.391151e+01   1.230626e+01
  -5.053324e+01  -2.541196e+01
   1.153976e+01  -5.258265e+01
   2.205094e+01  -1.245700e+01
   6.023828e+01   2.783828e+01
   4.488130e+01   4.077211e+01
  -2.604999e+01   1.561707e+01
  -4.058849e+01   1.835642e+00
  -2.159108e+01   4.091645e+01
   3.510814e+01  -5.575152e+00
   4.438660e+01   1.465774e+01
  -1.062481e+01   3.593887e+01
  -3.476470e+01   1.870840e+01
