
 $NMID
 id='ANONYMOUS ', fmtdat='(2E16.6)'
 volume=1.0
 tramp=1.0
 $END
  -2.406415e+03   1.307458e+02
  -1.806116e+03  -1.125221e+03
  -1.487470e+02  -1.648789e+03
   8.922420e+02  -1.183774e+03
   6.488085e+02  -1.176252e+02
   1.361699e+02   3.039837e+01
  -2.364938e+02  -7.268630e+01
   3.345323e+01  -3.789832e+02
   3.573449e+02  -4.420838e+02
   5.299114e+02  -8.526055e+01
   3.577031e+02   3.612221e+02
   4.212772e+01   4.699069e+02
  -2.516780e+02   1.729318e+02
  -9.352246e+01  -2.904834e+02
   1.047145e+02  -3.811605e+02
   2.977679e+02  -3.855591e+01
   2.474949e+02   4.758199e+02
  -7.047716e+01   5.348557e+02
  -3.886475e+02   2.742677e+02
  -3.692366e+02  -1.116609e+02
  -5.998511e+01  -2.622104e+02
  -5.907035e+00  -1.998507e+02
  -2.641066e+01   1.501638e+01
  -2.023819e+02  -1.292089e+02
  -1.977453e+02  -2.475188e+02
   3.604603e+01  -3.003741e+02
   4.009335e+02  -1.471435e+02
   4.930847e+02   1.589102e+02
   9.006126e+01   2.940635e+02
  -2.364315e+02   1.972155e+02
  -4.605728e+02  -1.250004e+02
  -1.549599e+02  -2.758419e+02
   2.521948e+02  -2.399462e+02
   3.832431e+02  -9.678481e+01
   2.525900e+02   9.405710e+01
   7.726329e+01   1.737686e+02
   3.180071e+01   1.250605e+02
   1.235366e+02  -6.837038e+01
   1.753379e+02  -7.815085e+01
   1.116727e+02   1.950692e+02
  -2.081457e+01   2.866069e+02
  -2.062496e+02   2.931384e+02
  -2.265694e+02  -3.983973e+01
   2.794009e+01  -1.852360e+02
   7.831449e+01  -1.045468e+02
   1.294650e+00   2.159091e+02
  -1.367363e+02   3.079026e+02
  -4.078162e+02   3.398119e+01
  -3.720805e+02  -2.789129e+02
  -5.333949e+01  -3.961664e+02
   2.431641e+02  -1.898313e+02
   4.064612e+02   4.695208e+01
   2.396709e+02   1.596538e+02
  -2.775284e+01   1.519645e+02
  -2.363395e+02   5.494443e+01
  -1.854369e+02   9.987551e+00
  -2.554183e+01   2.751928e+01
   7.266063e+01   3.822264e+01
  -3.660919e+01   3.127525e+01
  -1.479542e+02  -3.566006e+01
  -9.074580e+01  -1.052423e+02
   1.019630e+02  -2.264925e+02
   2.727383e+02  -9.606219e+01
   2.389992e+02   1.081621e+02
  -6.060417e-01   3.109839e+02
  -2.924915e+02   2.987513e+02
  -2.945490e+02   1.817528e+01
  -1.485692e+02  -1.387445e+02
   1.241017e+01  -2.589248e+02
   3.517801e+01  -1.983029e+02
   1.037778e+01  -1.213331e+02
   2.886928e+01  -1.227870e+02
   1.276764e+02  -7.604436e+01
   2.333656e+02   8.539622e+00
   1.766430e+02   1.358444e+02
   9.317444e+01   2.052217e+02
  -7.319072e+01   1.544077e+02
  -1.590063e+02  -5.864787e+01
  -5.984839e+01  -2.262019e+02
   9.065401e+01  -1.979932e+02
   2.258688e+02  -5.308322e+00
   2.452736e+02   1.463716e+02
   1.880522e+02   2.192257e+02
  -8.202456e+01   2.125748e+02
  -1.353179e+02   1.411231e+02
  -1.154503e+02   1.423798e+01
  -1.090165e+02   5.893142e+01
  -2.329930e+02   2.062989e+01
  -3.517524e+02  -8.317561e+01
  -2.900160e+02  -2.461119e+02
   9.533225e+01  -3.890265e+02
   3.503388e+02  -3.251610e+02
   4.202100e+02  -1.356079e+02
   2.273832e+02   6.688150e+01
   2.152189e+01   1.961431e+02
  -1.288081e+02   1.346163e+02
   2.495275e+01  -3.862950e+00
   8.240620e+01  -4.636950e+01
   7.756288e+01   6.835286e+01
  -1.118618e+01   1.602758e+02
  -1.045548e+02   7.542627e+01
  -6.418342e+01  -3.690687e+01
   2.205216e+00  -1.025702e+02
   1.437259e+02   2.840824e+01
   7.784591e+01   1.935576e+02
  -6.670481e+01   3.104551e+02
  -1.983561e+02   1.676885e+02
  -3.142775e+02  -7.107173e+01
  -1.990891e+02  -2.222290e+02
  -4.654813e+01  -2.106195e+02
   6.671789e+01  -9.001166e+01
   1.507607e+02   4.093059e+01
   3.507399e+01   3.001508e+01
  -4.538566e+01  -3.949402e+01
  -1.511039e+01  -7.326348e+01
   1.514176e+02  -5.036310e+01
   1.256300e+02   5.670213e+01
   2.753791e+00  -8.860065e+00
  -6.247381e+01  -2.493403e+01
   1.091362e+01  -1.040213e+02
   1.304621e+02  -9.244643e+01
   2.700738e+02   9.909250e+00
   1.545352e+02   1.745414e+02
  -1.139685e+01   2.771407e+02
  -2.002600e+02   1.708221e+02
  -2.215962e+02  -9.119665e+00
  -1.280814e+02  -5.718592e+01
   3.769488e+01  -7.345546e+01
   7.840377e+01   2.404989e+01
  -4.389303e+01   9.982018e+01
  -1.451928e+02  -1.426569e+01
  -1.575399e+02  -6.291485e+01
  -7.459504e+01  -1.824106e+02
   6.144822e+01  -8.499537e+01
   1.198385e+02  -3.650400e+00
   8.405146e+00   5.926306e+01
  -8.148527e+01  -2.371445e+01
  -2.708459e+01  -9.231242e+01
   1.145482e+02  -1.804611e+02
   1.907539e+02   4.360148e+01
   1.677192e+02   1.228557e+02
  -1.419425e+01   1.551097e+02
  -1.521498e+02   1.199726e+02
  -1.332200e+02  -2.555502e+01
  -6.792391e+01  -4.991637e+01
   3.589544e+01  -6.227409e+01
   6.552728e+01  -1.953958e+01
   2.359308e+00   4.635107e+01
  -3.910425e+01  -5.351555e+00
  -4.228403e+00  -7.054230e+01
   6.983573e+01  -5.123765e+01
   1.117035e+02   7.852495e+01
   4.240101e+01   2.038897e+02
  -1.280946e+02   1.383387e+02
  -2.103353e+02  -3.948230e+01
  -1.659574e+02  -1.334568e+02
  -1.484950e+01  -1.340441e+02
   7.662295e+01  -1.223023e+02
   1.108927e+02   5.742680e+00
   5.653892e+01   3.052991e+01
   2.150134e+01   4.261661e+01
   7.087611e+01  -1.575874e+01
   8.441809e+01   5.540044e+00
   4.741538e+01   7.820869e+01
  -6.002232e+01   1.048171e+02
  -1.379797e+02   4.350145e+01
  -1.259667e+02  -4.834241e+01
   6.438159e-01  -1.619004e+02
   1.539706e+02  -1.119146e+02
   1.796355e+02   6.919518e+01
   1.011472e+02   1.817830e+02
  -1.346255e+02   2.192569e+02
  -2.460000e+02   5.471207e+01
  -1.375679e+02  -6.078597e+01
  -8.595706e+01  -1.547038e+02
   3.167798e+01  -1.457706e+02
   5.311860e+01  -6.967478e+01
   3.323923e+01  -7.611029e+01
   3.807953e+01  -1.002299e+02
   4.935453e+01  -8.612696e+01
   1.403856e+02   4.205006e+01
   9.560642e+01   1.251693e+02
   1.869085e+01   2.202615e+02
  -9.247341e+01   9.367331e+01
  -1.171771e+02  -3.435820e+01
  -7.881865e+01  -1.002886e+02
   3.602137e+01  -1.443091e+02
   7.096597e+01  -4.470684e+01
   6.170612e+01   6.013399e+00
  -1.284876e+01   5.132128e+01
  -5.335137e+01   3.741864e+01
  -4.213212e+00   9.839397e+00
   7.709541e+01   9.502011e+00
   7.448709e+01   1.436761e+01
  -5.515616e+01  -1.263733e+01
  -1.553866e+02  -2.842874e+01
  -1.263037e+02  -8.301723e+01
   6.069488e+01  -6.523459e+01
   1.215248e+02  -5.321666e+01
   1.071373e+02   2.196852e+01
   3.283141e+01   4.098623e+01
  -8.323339e+01   2.746270e+01
  -8.557390e+01  -1.812973e+01
   1.073319e+01  -6.012998e+01
   4.949614e+01  -4.289598e+01
   5.595319e+01   2.088461e+01
   5.948188e+01   5.206197e+01
   1.581213e+01  -1.890540e+01
   9.943766e+01  -1.734009e+01
   8.512602e+01  -1.223137e+01
   8.458441e+00   7.410384e+01
  -5.867686e+01   1.193154e+02
  -1.705877e+02   1.396934e+02
  -1.668006e+02   2.138023e+01
  -1.211761e+02  -1.275930e+02
  -2.668109e+00  -1.009144e+02
   9.734081e+01  -4.082544e+01
   8.439512e+01  -6.698408e+00
  -1.169231e+01   3.627211e+01
  -8.190109e+01   2.664944e+00
  -6.739253e+01  -7.331533e+01
   5.992358e+01  -1.007814e+02
   1.757715e+02  -1.888237e+01
   1.098699e+02   5.204076e+01
   2.443645e+00   5.433180e+01
  -1.012325e+02   7.838650e+01
  -3.080348e+01  -3.893399e+01
  -5.092578e+00   6.903776e+00
   6.220596e+01   4.869553e+01
   3.411420e+01   9.432646e+01
  -7.004349e+01   1.409588e+02
  -1.209310e+02   8.162294e+01
  -9.706480e+01  -7.696777e+01
   9.423682e+00  -1.623529e+02
   6.229912e+01  -9.759975e+01
   3.345412e+01   3.211200e+01
  -3.794705e+00   1.002471e+02
  -3.387718e+01   7.198355e+01
  -5.519423e+01  -5.787855e+01
  -1.274439e+01  -2.574925e+01
   2.939028e+01  -1.204640e+01
  -5.766974e+00   4.897520e+01
  -3.424661e+01  -2.127025e+00
  -6.102495e+01  -8.824675e+01
  -1.713123e+01  -7.781421e+01
   4.888102e+01  -2.139885e+01
   1.025593e+02  -1.278223e+00
   1.212103e+02   1.113880e+02
   7.896865e+00   9.218719e+01
  -1.029094e+02   1.526097e+01
  -4.854754e+01  -2.068487e+01
   2.542083e+00   1.986189e+01
   3.358838e+01  -6.487664e+01
   8.622405e+00   1.819769e+01
   2.190875e+01   9.298942e+00
   3.181557e+01  -6.394910e+00
   1.568300e+01   3.639429e+01
   6.901398e+01   3.192832e+00
  -9.901947e+00   5.361051e+01
  -1.408315e+02   8.644224e+01
  -1.558697e+02   4.873190e+01
  -1.080186e+02  -3.509876e+00
  -4.616162e+01  -1.380387e+02
   4.741407e+01  -1.433024e+02
   8.526720e+01  -2.307848e+01
   2.655125e+01   1.300845e+01
  -2.332073e+01   4.543748e+01
   3.343041e+01   1.973629e+01
   3.839699e-02  -1.379420e+01
  -9.091704e+00   5.710651e+01
   1.571069e+01   7.595182e+01
  -6.069044e+01   1.797631e+01
  -5.393672e+01  -1.043493e+00
  -7.130300e+01  -5.923511e+01
  -6.219405e+00  -9.835093e+01
   2.299349e+01  -5.818846e+01
   9.913302e+01   6.172349e+01
   4.229220e+01   6.999131e+01
  -3.986271e+01   5.385761e+01
  -9.937183e+01  -2.723116e+01
  -1.442214e+01  -6.976317e+01
   3.234841e+01  -5.281412e+01
   4.845664e+01   6.245155e+00
  -3.340602e+01  -2.754171e+01
  -1.809566e+01   3.105134e+00
  -3.205075e+01  -1.961074e+01
   4.180826e+01  -5.510730e+01
   8.975807e+01  -3.916307e+01
   3.080418e+01  -1.327516e+00
  -6.282100e+00   6.697144e+01
  -3.277196e+01   7.388890e+01
  -4.595925e+01   5.800005e+01
  -3.470491e+00   1.494738e+01
   3.878219e+01  -5.692305e+01
  -1.817090e+01   2.911567e+00
   1.597824e+01   5.367469e+01
   1.000753e+01   6.699356e+01
  -1.947563e+01  -2.536072e+01
  -2.089488e+01  -1.365095e+01
  -3.509851e+01  -4.636004e+01
  -7.897289e+01  -1.380717e+01
   5.256194e+01  -8.084865e-01
   7.373592e+00  -4.058414e+01
  -1.111054e+01  -2.855289e+01
   2.690594e+01  -2.897841e+00
   5.425743e+01   3.113134e+01
   3.006253e+01   2.930205e+01
  -1.953323e+01   5.110578e+01
  -6.145135e+01  -2.690106e+01
  -3.290463e+01  -5.260823e+01
   4.003318e+01   2.269546e+01
   7.283487e+01   3.937801e+01
   5.004271e+01   3.058320e+01
  -5.123161e+01   2.529277e+01
  -6.024933e+01   1.354652e+01
   2.097519e+01  -3.177073e+01
   3.399802e+01  -2.688731e+01
   1.385829e-01   2.858443e+01
   7.561558e+00   5.271374e+01
  -1.140274e+02  -7.717885e+00
