
 $NMID
 id='ANONYMOUS ', fmtdat='(2E16.6)'
 volume=1.0
 tramp=1.0
 $END
  -2.557976e+03   7.022003e+02
  -2.349149e+03  -1.451619e+03
  -3.392197e+02  -2.064364e+03
   9.751803e+02  -1.418501e+03
   1.122375e+03  -5.038565e+02
   2.390612e+02   1.747943e+02
  -3.106168e+02   1.589683e+02
  -1.336423e+02  -3.662419e+02
   2.525669e+02  -5.315712e+02
   5.064397e+02  -1.582761e+02
   4.748694e+02   3.767394e+02
   8.485826e+01   5.459413e+02
  -3.046824e+02   2.421488e+02
  -2.434628e+02  -2.968921e+02
  -1.135163e+01  -4.462748e+02
   3.370846e+02  -1.458642e+02
   3.584343e+02   4.206997e+02
  -1.341655e+01   6.238165e+02
  -4.693144e+02   3.800150e+02
  -4.461087e+02  -1.783189e+02
  -2.031991e+02  -3.781032e+02
   6.489150e+01  -1.756036e+02
  -2.774225e+01  -8.688302e+01
  -1.194304e+02  -1.811643e+02
  -2.228837e+02  -3.049771e+02
   1.578924e+01  -2.812439e+02
   3.415351e+02  -1.332247e+02
   4.817295e+02   1.511794e+02
   1.470663e+02   2.626713e+02
  -1.765814e+02   1.369872e+02
  -4.702882e+02  -1.658643e+02
  -1.774609e+02  -2.874738e+02
   2.391606e+02  -3.043760e+02
   4.109602e+02  -8.523817e+01
   2.729997e+02   1.406774e+02
   1.262098e+02   2.146033e+02
   5.065596e+01   1.616692e+02
   9.962132e+01   1.513186e+01
   1.366620e+02  -1.093412e+02
   1.062570e+02   1.524760e+02
   1.324260e+01   3.581811e+02
  -1.859748e+02   3.369587e+02
  -2.529453e+02   3.162444e+01
  -8.345267e+01  -2.613151e+02
   9.715655e+01  -1.249735e+02
   1.348416e+02   2.150751e+02
  -1.396816e+02   3.481323e+02
  -4.137568e+02   2.540082e+01
  -4.436551e+02  -3.439050e+02
  -1.056458e+02  -4.686506e+02
   2.619368e+02  -2.409807e+02
   4.485010e+02   2.719416e+01
   3.121970e+02   2.670354e+02
  -4.159713e+01   2.021966e+02
  -2.510755e+02   1.190616e+02
  -2.311675e+02   2.392003e+01
  -1.138854e+01  -1.727061e+01
   5.414051e+01   1.208723e+01
  -1.160064e+02   2.270030e+01
  -1.920438e+02  -3.756492e+01
  -8.372564e+01  -1.042521e+02
   1.099401e+02  -2.413612e+02
   3.579858e+02  -1.375429e+02
   2.459164e+02   1.184545e+02
  -1.414301e+01   3.641986e+02
  -3.115678e+02   3.701819e+02
  -3.400652e+02   1.728045e+02
  -1.987834e+02  -1.595075e+02
  -7.601997e+01  -3.676531e+02
  -5.034465e+00  -3.146637e+02
   4.075812e+01  -1.727100e+02
   9.331704e+00  -1.344519e+02
   1.670419e+02  -1.038990e+02
   2.474166e+02  -4.394258e+01
   2.251294e+02   1.246648e+02
   4.359716e+01   2.864467e+02
  -1.055494e+02   1.704977e+02
  -2.210724e+02  -3.652567e+01
  -1.263091e+02  -2.210945e+02
   5.658042e+01  -2.291564e+02
   2.645166e+02  -4.152360e+01
   2.833652e+02   1.730246e+02
   1.821177e+02   2.574295e+02
   8.947756e+00   2.641904e+02
  -1.290495e+02   1.729718e+02
  -1.158097e+02   1.084843e+02
  -1.745351e+02   9.579391e+01
  -2.779942e+02   2.421335e+01
  -4.681164e+02  -1.704918e+02
  -2.974994e+02  -3.258872e+02
   1.440611e+02  -4.199907e+02
   3.573480e+02  -3.887810e+02
   4.114181e+02  -1.092929e+02
   2.556426e+02   1.366971e+02
  -3.807890e+01   1.686207e+02
  -1.044457e+02   1.656491e+02
  -3.615606e+01   1.566736e+01
   7.846858e+01  -5.555243e+01
   9.883632e+01   3.796518e+01
   3.326752e+01   1.660569e+02
  -1.002456e+02   1.254132e+02
  -8.270811e+01  -7.471788e+01
   1.300220e+01  -1.350535e+02
   1.397421e+02   4.752342e+01
   1.064757e+02   2.209819e+02
  -1.297496e+01   3.451397e+02
  -2.738930e+02   1.901999e+02
  -3.615047e+02  -9.824092e+01
  -2.222856e+02  -2.552819e+02
  -3.928202e+01  -2.570399e+02
   1.387528e+02  -1.425347e+02
   1.112828e+02   8.653041e+00
   4.784685e+00   3.160892e+01
  -6.772889e+01  -4.915826e+01
   6.125298e+01  -1.001628e+02
   1.064321e+02  -6.967058e+01
   1.419474e+02   1.985598e+01
  -2.686368e+01   7.408698e+01
  -1.166387e+02  -3.454032e+01
  -5.474818e+01  -7.681874e+01
   1.447550e+02  -7.501728e+01
   3.068346e+02   3.687855e+01
   2.420776e+02   2.251264e+02
  -2.122289e+01   2.770549e+02
  -2.209136e+02   1.875430e+02
  -2.644887e+02   5.923735e+01
  -1.087056e+02  -4.110727e+01
   9.799054e+01  -7.882933e+01
   6.140472e+01  -2.642519e+01
  -3.348271e-01   7.040151e+01
  -1.818735e+02   7.460003e+01
  -1.686994e+02  -8.770872e+01
  -2.389428e+01  -1.576650e+02
   1.069178e+02  -1.151470e+02
   9.987996e+01  -2.717680e+01
   4.209635e+01   4.706706e+01
  -5.243974e+01  -1.869394e+01
  -7.915123e+01  -1.163267e+02
   1.039645e+02  -1.164844e+02
   1.916848e+02  -6.903068e+00
   1.668409e+02   1.637043e+02
   8.991851e+00   2.261669e+02
  -1.746490e+02   1.577077e+02
  -1.588168e+02  -1.580100e+01
  -5.956311e+01  -9.292798e+01
   1.416675e+01  -6.930987e+01
   3.952342e+01   3.344758e+01
  -4.286158e+01   3.171918e+01
  -5.132539e+01  -4.483322e+01
   3.017975e+01  -1.995635e+01
   1.268091e+02  -2.152072e+01
   1.148303e+02   1.215781e+02
  -2.410914e+00   1.752364e+02
  -1.530975e+02   1.301541e+02
  -2.418832e+02  -2.187168e+01
  -1.855413e+02  -1.686480e+02
  -3.630029e+01  -1.928968e+02
   1.035078e+02  -1.180212e+02
   1.316278e+02  -4.907636e+01
   7.848137e+01   3.363004e+01
   2.850437e+01   5.219774e+01
   4.830013e+01  -2.971373e+01
   8.000771e+01  -3.109389e+01
   8.373030e+01   1.084876e+02
  -3.063610e+01   1.040009e+02
  -1.455032e+02   1.061967e+02
  -8.459358e+01  -8.554677e+01
   1.904475e+01  -1.723983e+02
   1.478387e+02  -7.854878e+01
   2.137866e+02   7.552285e+01
   3.285615e+01   2.757848e+02
  -1.075415e+02   1.983992e+02
  -2.734974e+02   8.678955e+01
  -1.945458e+02  -8.047204e+01
  -7.418564e+01  -1.849310e+02
   2.160477e+01  -1.379323e+02
   7.640417e+01  -5.731558e+01
   3.570626e+01  -9.711538e+01
   1.023467e+02  -1.156648e+02
   9.444295e+01  -7.296959e+01
   1.673327e+02   2.273188e+01
   1.112512e+02   1.675748e+02
   4.301796e+01   1.886802e+02
  -1.070236e+02   1.286959e+02
  -1.748098e+02  -1.135004e+01
  -6.897550e+01  -1.207908e+02
  -6.553886e+00  -1.685635e+02
   7.596350e+01  -2.591490e+01
   1.916432e+01   1.758703e+01
  -2.541693e+01   6.084254e+01
  -7.537140e+01   3.647319e+01
  -5.341147e+00   9.550857e-01
   8.393372e+01   6.928309e+01
   1.231643e+01   4.711973e+01
  -8.912620e+01   4.391971e+01
  -1.734671e+02  -2.565373e+00
  -1.238966e+02  -8.886391e+01
   5.984151e+01  -7.883230e+01
   1.424093e+02  -7.813228e+01
   1.496836e+02   1.448897e+01
   3.140001e+01   7.315359e+01
  -8.062337e+01   7.378337e+01
  -7.498507e+01   7.696919e-01
  -4.480713e+01  -7.594531e+01
   8.288795e+01  -1.036418e+02
   4.318067e+01   3.018759e+00
   8.221533e+01   7.459641e+01
   7.718462e+01   4.959933e+01
   7.692908e+01   8.264217e+00
   4.555870e+01   1.620619e+00
   7.524566e+01   5.060123e+01
  -4.482035e+01   1.737971e+02
  -1.533001e+02   1.390505e+02
  -1.944194e+02   3.070243e+01
  -1.135973e+02  -6.770340e+01
  -2.512361e+01  -7.219686e+01
   1.025576e+02  -3.783206e+01
   4.025936e+01   2.037975e+01
  -8.427311e+01   4.094970e+01
  -1.403255e+02  -4.727324e+01
  -7.301252e+01  -8.584092e+01
   5.403547e+01  -1.003212e+02
   1.806816e+02  -6.098135e+01
   1.613571e+02   7.290022e+01
   3.391064e+01   7.721598e+01
  -7.225572e+01   6.393863e+01
  -5.366659e+01  -1.217737e+01
   2.214141e+01  -1.833241e+01
   9.297874e+01   1.167791e+01
   4.355733e+01   7.759696e+01
  -1.001039e+02   1.600652e+02
  -1.481509e+02   6.544656e+01
  -1.175526e+02  -1.056239e+02
  -4.045740e+00  -1.776787e+02
   9.003910e+01  -1.311206e+02
   1.330120e+02   2.878471e+01
  -2.442972e-01   1.682968e+02
  -1.659680e+01   8.207967e+01
  -3.101338e+01   1.679432e+01
   4.892564e+00  -3.572352e+01
  -1.219970e+01   3.698474e+01
  -3.748884e+01  -2.501773e+00
  -6.255737e+01  -4.109661e+01
  -2.659045e+01  -5.775959e+01
  -4.939735e+01  -1.360178e+02
   9.617884e+01  -3.727030e+01
   1.447832e+02  -4.021840e+00
   1.540253e+02   6.341490e+01
  -4.885553e+00   3.912563e+01
  -6.509087e+01   4.079945e+00
  -3.848866e+01  -3.072659e+01
  -1.198380e+01  -3.257762e+01
  -1.125138e+01  -3.523727e+01
   1.617752e+00  -7.730544e+00
  -4.159949e+01  -2.573158e+01
   5.345833e+00   2.180138e+01
   4.784723e+01   3.290895e+01
   2.163469e+01   6.779228e+01
   1.371518e+01   8.873380e+01
  -1.462040e+02   9.318203e+01
  -1.862069e+02   6.971033e+01
  -1.443038e+02  -7.358106e+01
  -3.191422e+01  -1.595390e+02
   8.023278e+01  -1.439180e+02
   1.114387e+02  -5.123245e+01
   1.032259e+02   3.029667e+01
   6.272457e+01   6.432480e+01
   5.886605e+01   5.929164e+01
   2.168842e+01   6.049225e+01
  -7.592849e+00   2.575201e+01
   3.280233e+01   7.242948e+01
  -3.246792e+01   8.630218e+01
  -9.493322e+01  -1.891877e+01
  -7.806512e+01  -9.255313e+01
  -2.274258e+01  -1.195712e+02
   2.806677e+01  -2.070776e+01
   9.503456e+01   7.068729e+01
  -4.127598e+00   1.049532e+02
  -8.709096e+01   8.502279e+01
  -1.369011e+02  -1.259452e+01
  -1.746070e+01  -8.489102e+01
  -8.627692e-01  -6.874667e+01
   5.363983e+01  -2.027950e+01
  -5.305935e+00   1.529892e+01
  -7.255369e+01  -3.124951e+01
   1.362602e+01  -3.230583e+01
   1.014367e+02  -4.215539e+01
   1.354240e+02  -4.386570e+01
   7.728831e+01   5.169255e+01
  -1.507123e+01   8.418234e+01
  -6.489255e+01   4.952734e+01
  -7.233622e+01   3.356232e+01
   9.660534e+00  -3.944653e+01
   5.235466e+01  -2.522512e+01
   7.795356e+01   1.519553e+01
   4.379274e+01   4.401164e+01
  -3.210259e+01   1.909400e+01
  -1.736018e+01   5.601391e+00
  -5.962280e+01  -6.481851e+01
   2.106546e+00  -1.059451e+00
  -1.517831e+01   1.450880e+01
   8.559719e+00  -4.203128e+01
  -4.810457e+01  -2.820878e+01
   3.056410e+01  -4.722890e+01
   2.615774e+01   6.107025e+00
   5.886179e+01   4.079031e+01
   1.548447e+00   4.985492e+01
  -3.019933e-01   4.133799e+01
  -6.019922e+01  -2.936807e+01
  -2.991918e+01  -7.783481e+01
   6.772275e+01  -5.106279e+01
   8.086892e+01   3.255345e+00
   6.519346e+01   4.390024e+01
   1.832458e+01   3.661162e+01
  -5.103252e+01   3.323479e+01
  -4.338302e+01   2.939061e+00
  -5.401231e+00  -3.553514e+01
   9.724077e+00  -1.685317e+01
   4.309412e+00   1.664509e+01
  -9.654510e+01  -2.118062e+01
