
 $NMID
 id='ANONYMOUS ', fmtdat='(2E16.6)'
 volume=1.0
 tramp=1.0
 $END
  -3.316960e+03   3.629864e+02
  -1.879366e+03  -1.291801e+03
   5.287193e+01  -1.586529e+03
   1.013536e+03  -1.046869e+03
   8.633831e+02  -1.447074e+02
   2.961404e+01  -2.799207e+01
  -2.182613e+02  -1.193484e+02
   2.500381e+01  -3.713577e+02
   4.102719e+02  -3.368675e+02
   4.806441e+02  -6.866128e+00
   2.009678e+02   3.434128e+02
  -3.478284e+01   5.424063e+02
  -2.229398e+02   1.070564e+02
  -1.407931e+02  -2.543627e+02
   1.603458e+02  -3.666848e+02
   2.614394e+02  -7.379147e+01
   1.832168e+02   3.845555e+02
  -1.131944e+02   4.512367e+02
  -3.342726e+02   1.576781e+02
  -3.128306e+02  -1.245665e+02
  -7.817139e+01  -1.879189e+02
   1.070267e+01  -1.943790e+02
  -4.040606e-01  -1.191394e+02
  -1.727200e+02  -1.054601e+02
  -1.683722e+02  -2.181763e+02
   5.541473e+01  -2.900380e+02
   3.702466e+02  -1.396293e+02
   4.898691e+02   1.548551e+02
   1.044300e+02   3.172576e+02
  -2.582978e+02   1.463439e+02
  -3.766206e+02  -8.226719e+01
  -1.217197e+02  -2.936090e+02
   1.922299e+02  -2.448297e+02
   3.412409e+02  -8.580578e+01
   2.423848e+02   1.176983e+02
   3.177154e+01   2.306093e+02
  -2.361676e+01   1.747910e+02
   8.165178e+01  -2.965933e+01
   1.442814e+02  -9.640629e+01
   1.121732e+02   1.224560e+02
  -1.784007e+00   4.403975e+02
  -2.554964e+02   3.438194e+02
  -2.633869e+02  -7.936925e+01
  -7.920177e+01  -2.706017e+02
   1.717794e+02  -7.873349e+01
   1.157162e+02   3.036462e+02
  -1.500614e+02   2.818332e+02
  -3.732800e+02  -1.108181e+01
  -3.696574e+02  -3.322909e+02
  -9.286233e+01  -3.632284e+02
   2.784422e+02  -1.902816e+02
   3.598130e+02   2.306758e+01
   1.837728e+02   1.948787e+02
  -6.406693e+01   1.881289e+02
  -1.975324e+02   1.713207e+01
  -1.575213e+02  -3.016266e+00
  -1.204338e+01   3.294975e+00
   1.825029e+01   7.021605e+01
  -1.036971e+02   6.752468e+01
  -2.272437e+02  -1.234558e+02
  -1.141044e+02  -1.679074e+02
   1.668413e+02  -1.564040e+02
   3.367106e+02  -1.068160e+02
   1.761848e+02   9.375061e+01
  -2.587192e+01   2.223948e+02
  -2.544070e+02   2.870556e+02
  -2.845661e+02   1.050101e+02
  -1.474323e+02  -1.203363e+02
  -6.408303e+00  -2.384028e+02
   2.859755e+01  -2.460826e+02
  -3.986602e+00  -1.179818e+02
   5.704762e+01  -1.331496e+02
   1.175489e+02  -1.247353e+02
   2.134118e+02  -5.474299e+01
   1.651780e+02   7.782888e+01
   1.907372e+01   2.304710e+02
  -1.063547e+02   1.535686e+02
  -1.320636e+02  -5.252585e+01
  -3.377317e+01  -1.921038e+02
   8.104282e+01  -1.668299e+02
   2.419528e+02  -3.069440e+01
   1.777885e+02   1.345859e+02
   1.162843e+02   1.920364e+02
  -5.446613e+01   2.079312e+02
  -1.246917e+02   1.132695e+02
  -9.353707e+01   5.593847e+01
  -1.303802e+02   2.810356e+01
  -2.430729e+02   4.274850e+01
  -2.920192e+02  -9.580249e+01
  -2.431483e+02  -1.911176e+02
   7.919257e+01  -3.553345e+02
   3.501610e+02  -3.202074e+02
   4.095247e+02  -6.630324e+01
   1.752945e+02   8.595998e+01
  -6.674637e+01   1.855521e+02
  -8.279473e+01   1.243027e+02
   1.014594e+01   9.493685e+00
   8.513343e+01  -2.770647e+01
   1.500512e+02   6.666657e+01
   3.836930e+00   9.255594e+01
  -1.071040e+02   1.034740e+02
  -9.634682e+01  -3.423131e+01
   3.742314e+01  -1.205789e+02
   1.751115e+02   8.859034e+00
   1.145981e+02   1.839052e+02
  -5.011203e+01   2.936260e+02
  -1.842288e+02   1.396230e+02
  -3.312321e+02  -8.853549e+01
  -2.191377e+02  -2.230737e+02
  -2.455733e+01  -2.224100e+02
   1.162129e+02  -1.150445e+02
   1.052771e+02  -3.663025e+00
   3.058698e+01   2.179904e+01
  -4.168129e+01  -5.802799e+01
   3.428137e+01  -9.991004e+01
   1.133629e+02  -1.244116e+01
   1.456168e+02   1.875616e+01
   2.472355e+01   2.958255e+01
  -7.118016e+01   5.256138e+00
  -4.141266e+01  -9.573305e+01
   1.166875e+02  -8.142523e+01
   2.363283e+02   1.070539e+01
   2.469323e+02   1.487369e+02
   4.305897e-01   2.516056e+02
  -1.841650e+02   1.390071e+02
  -2.411820e+02   3.346137e+01
  -7.821747e+01  -2.267254e+01
   1.883091e+01  -1.046642e+02
   4.670584e+01  -1.480560e+01
  -7.987621e+01   6.759233e+01
  -1.622662e+02   1.421294e+00
  -1.304348e+02  -9.657024e+01
  -2.762273e+01  -1.876810e+02
   1.120109e+02  -8.509505e+01
   1.035709e+02  -2.074034e+01
   5.929226e+01   3.030098e+01
  -3.013676e+01  -1.967528e+01
  -5.161514e+00  -1.404883e+02
   9.381705e+01  -1.113062e+02
   2.167802e+02   3.169311e+01
   1.114034e+02   9.291830e+01
  -2.920465e+01   1.228514e+02
  -1.657000e+02   7.624297e+01
  -1.284466e+02   3.820894e+01
  -4.757554e+01  -7.014645e+01
   7.339499e+01  -4.064470e+01
   7.078399e+01  -4.451388e+01
  -2.515578e+01   1.072037e+01
  -2.716087e+01   3.087692e+01
   3.080367e+01  -4.709954e+01
   8.364219e+01  -3.359815e+01
   5.858479e+01   8.210254e+01
   2.831918e+00   1.396947e+02
  -1.237157e+02   1.379165e+02
  -1.516072e+02  -5.680534e+01
  -1.373295e+02  -1.133342e+02
  -2.347581e+01  -1.829971e+02
   8.959025e+01  -1.152550e+02
   1.236567e+02  -2.618981e+01
   6.967465e+01   1.793639e+01
   1.818552e+01   6.382832e+00
   6.228616e+01   1.980901e+00
   7.628959e+01  -4.237294e+01
   5.688250e+01   1.342959e+01
  -6.594705e+01   7.737468e+01
  -6.178565e+01   4.976093e+01
  -1.080496e+02  -3.916241e+01
  -1.629404e+01  -8.667460e+01
   1.408982e+02  -6.190457e+01
   1.895486e+02   8.235729e+01
   6.515936e+01   1.818308e+02
  -1.497757e+02   1.807342e+02
  -2.314463e+02   1.006931e+01
  -1.556947e+02  -5.681804e+01
  -1.140877e+02  -7.447593e+01
   4.583142e+01  -1.048077e+02
   3.460745e+01  -2.222332e+01
   7.252582e+01  -4.310426e+01
   2.113335e+01  -1.285340e+02
   5.559015e+01  -7.221791e+01
   1.244794e+02   1.695612e+01
   3.639653e+01   1.407917e+02
   2.511833e+01   1.762359e+02
  -8.851545e+01   1.223856e+02
  -1.358556e+02  -4.460140e+00
  -1.847382e+01  -8.744004e+01
   3.087273e+00  -1.105896e+02
   8.148571e+01  -5.794510e+01
   4.560670e+01   2.872705e+01
  -1.165512e+01   4.087596e+01
  -2.542554e+01   2.414511e+01
   6.184218e+01  -4.526130e+00
   8.660804e+01   2.983268e+01
   3.317868e+01   3.332702e+01
  -7.910341e+01   1.656460e+01
  -1.894568e+02   3.451627e+00
  -1.369099e+02  -4.926960e+01
  -2.261452e+01  -1.101653e+02
   1.269015e+02  -5.731141e+01
   1.233426e+02   6.252152e+00
   1.748924e+01   3.331403e+01
  -5.581309e+01   1.171432e+01
  -5.471493e+01  -2.732840e+01
   1.083583e+01  -9.996156e+01
   5.191654e+01  -6.382845e+01
   8.567096e+01   1.940508e+01
   3.614033e+01   4.020333e+01
   5.613766e+01   1.197097e+01
   2.815416e+01  -3.586821e+00
   7.795095e+01  -9.973902e+00
   5.760375e+01   6.556150e+01
  -6.378201e+00   1.276262e+02
  -1.176443e+02   1.252474e+02
  -1.476247e+02  -1.435003e+01
  -9.753452e+01  -8.232440e+01
  -5.037158e+01  -1.067668e+02
   1.120797e+02  -6.872569e+01
   3.921380e+01  -4.932763e+00
  -1.180211e+02  -2.524117e+00
  -1.154139e+02  -6.727658e+01
  -2.360180e+01  -1.392874e+02
   7.225487e+01  -7.825281e+01
   1.596769e+02  -5.262507e+01
   8.530638e+01   4.708754e+01
   4.135935e+01   9.346860e+01
  -7.553182e+01   5.244922e+00
  -7.192309e+01   7.752091e+00
   2.587819e+01  -3.355086e+01
   6.185877e+01   2.824421e+01
   5.334437e+01   1.141735e+02
  -6.424139e+01   1.307434e+02
  -1.607339e+02   2.718336e+01
  -9.485478e+01  -8.749907e+01
  -1.174909e+00  -1.613759e+02
   9.193081e+01  -9.125772e+01
   9.150976e+01  -1.147002e+01
   3.198072e+01   1.658415e+02
  -1.096238e-01   9.201910e+01
  -3.945838e+01   2.314111e+01
  -3.019104e+01  -2.239030e+01
   1.738270e+01   1.986327e+01
  -2.248556e+01   4.608587e+01
  -1.979456e+01  -2.575864e+00
  -1.068071e+01  -9.642922e+01
  -4.835249e+01  -8.142275e+01
   1.098948e+01  -2.394028e+01
   1.429996e+02   3.955805e+01
   8.290091e+01   6.986960e+01
  -1.065831e+01   3.039705e+01
  -8.385334e+01   2.547378e+01
  -4.343346e+01  -8.272963e+00
  -7.053500e+00  -1.931267e+01
   5.029025e+00   2.352767e+01
  -6.226493e+00  -1.041491e+01
  -2.516504e+01   1.776434e+01
  -6.603605e+00   5.605786e+01
   3.117420e+01  -2.029620e+01
   4.915891e+01   3.720176e+01
   3.067193e+01   8.074102e+01
  -1.158369e+02   7.686575e+01
  -1.211892e+02  -1.865897e+01
  -1.277137e+02  -8.105921e+01
  -3.282095e+01  -1.333996e+02
   9.918713e+01  -1.593436e+02
   1.103092e+02  -5.899065e+01
   1.115939e+02  -3.043066e+01
   4.950141e+01   3.424559e+01
   6.824352e+00  -2.051051e+01
   4.832958e+00   2.038754e+01
   2.633020e+01   1.438624e+01
   1.550696e+01   9.910473e+01
  -1.439797e+01   5.255956e+01
  -8.918318e+01  -9.436041e+00
  -5.260175e+01  -9.660109e+01
   2.697517e+01  -7.927200e+01
   7.187787e+01   2.015356e+00
   9.322247e+01   1.901574e+01
   1.037073e+01   1.286216e+02
  -8.831827e+00   1.022380e+01
  -8.172168e+01  -3.819366e+00
  -2.629995e+01  -2.724533e+01
   2.252595e+01  -4.039028e+01
   2.885174e+01  -2.392096e+01
  -4.898699e+01   7.478033e+00
  -4.101462e+01  -1.807390e+01
  -4.301583e+01  -3.702575e+01
   8.997703e+01  -1.152011e+01
   9.553843e+01  -5.450420e+01
   3.698618e+00   2.704280e+01
   1.260018e+01   5.950705e+01
  -2.709454e+01   5.086578e+01
  -3.662541e+01   3.649521e+01
  -2.315271e+01  -6.219885e+00
  -4.426006e-01  -4.129381e+01
   3.405617e+01   2.090559e+01
  -8.888833e+00   1.321311e+01
   2.340314e+00   4.331260e+01
  -1.042703e+01  -3.841555e+01
  -3.245368e+01  -1.412044e+01
  -9.470766e+00  -1.532669e+01
   3.273113e+00   2.608731e+01
  -2.377794e-01   3.705782e+00
   1.873181e+01  -2.194852e+00
   3.679844e+01  -3.393518e+01
   4.092245e+01  -2.759171e+01
   8.998143e+00   3.627928e+01
   5.499197e+00   4.591331e+01
  -2.020348e+01   1.551045e+01
  -6.343040e+01  -2.938134e+01
  -5.114689e-01  -2.322088e+01
   4.734690e+01  -1.964882e+01
   7.038456e+01   1.929681e+01
   3.522394e+01   8.173008e-01
  -2.970739e+01   6.702330e+01
  -5.446355e+01   2.863896e+01
  -3.700454e+01  -3.729746e+00
   1.210502e+01  -4.808391e+01
   4.806726e+01   2.483360e+01
  -2.402778e+01   3.773817e+01
  -3.894863e+01  -2.345086e+01
