
 $NMID
 id='ANONYMOUS ', fmtdat='(2E16.6)'
 volume=1.0
 tramp=1.0
 $END
  -1.852656e+03  -1.422280e+02
  -9.321187e+02  -1.154682e+03
   1.037366e+02  -1.300179e+03
   8.867002e+02  -4.422055e+02
   4.908462e+02  -5.017599e+01
  -7.853133e+01   9.234541e+01
  -1.776910e+02  -3.700962e+01
   1.010734e+02  -2.085511e+02
   2.085921e+02  -1.832509e+02
   3.098968e+02  -4.803976e+00
   1.176249e+02   2.590975e+02
  -8.556511e+00   3.354964e+02
  -8.791138e+01   6.239505e+01
  -9.652210e+01  -2.907005e+02
   1.340034e+02  -2.164583e+02
   1.776355e+02   1.884487e+01
   8.303532e+01   2.418920e+02
  -1.143504e+02   2.752770e+02
  -2.426725e+02   6.531282e+01
  -2.088263e+02  -1.268948e+02
  -5.494434e+01  -1.704085e+02
   2.452485e+01  -1.260553e+02
   3.921716e+01  -7.996824e+01
  -6.317399e+01  -9.193686e+01
  -7.927113e+01  -1.568649e+02
   2.297083e+01  -2.050671e+02
   2.373403e+02   5.230782e+00
   3.008553e+02   1.598818e+02
   1.975912e+00   2.234218e+02
  -2.898015e+02   7.106968e+01
  -2.027744e+02  -1.218644e+02
  -4.243845e+01  -2.024619e+02
   1.634806e+02  -1.966760e+02
   1.663873e+02  -3.463723e+01
   1.389437e+02   1.088815e+02
   2.154721e+01   1.147936e+02
  -1.975045e+01   7.278407e+01
   8.448544e+01  -2.317987e+01
   1.215242e+02  -7.360460e+01
   1.332826e+02   1.337183e+02
  -2.082997e+01   2.601394e+02
  -2.091671e+02   2.654812e+02
  -1.464726e+02  -4.464482e+01
  -6.562218e+01  -2.245606e+02
   1.232563e+02  -4.259348e+01
   5.662666e+01   2.466251e+02
  -9.816710e+01   2.408442e+02
  -2.281805e+02  -4.366463e+01
  -2.130411e+02  -2.175661e+02
  -3.801884e+01  -2.665573e+02
   2.080935e+02  -1.437684e+02
   2.781733e+02   6.411554e+01
   1.289145e+02   1.376150e+02
  -2.006879e+01   9.095903e+01
  -1.836930e+02  -4.568039e+01
  -1.076980e+02   3.245450e+00
   1.759952e+01   1.514697e+01
   3.875377e+01   2.386779e+01
  -4.178765e+01   2.026528e+01
  -1.705734e+02  -8.511091e+01
  -3.181077e+01  -1.170442e+02
   9.063556e+01  -5.713018e+01
   1.458235e+02  -9.417101e+00
   8.287837e+01   5.389964e+01
  -4.118656e+01   7.047403e+01
  -1.369979e+02   1.581403e+02
  -1.980386e+02   4.544983e+01
  -6.012341e+01  -6.788637e+01
   1.086013e-01  -1.794310e+02
   1.678178e+01  -1.969989e+02
   4.693430e+01  -9.631080e+01
   4.281142e+01  -5.163232e+01
   1.179842e+02  -2.612852e+01
   1.708378e+02  -3.675234e+01
   1.102700e+02   7.707988e+01
   4.551954e+01   1.410442e+02
  -8.866455e+01   8.126347e+01
  -9.996943e+01  -3.728708e+01
  -1.020529e+02  -1.809018e+02
   7.431022e+01  -8.663890e+01
   1.504858e+02  -1.373126e+00
   1.023079e+02   1.583526e+02
   1.094008e+02   1.260029e+02
  -1.956533e+01   1.495944e+02
  -1.438502e+02   1.427856e+01
  -7.241593e+01   4.147825e+01
  -5.501532e+01   2.169230e+01
  -1.423714e+02   1.374508e+01
  -2.140426e+02  -6.006298e+01
  -1.228905e+02  -1.889495e+02
   8.227355e+01  -2.172607e+02
   2.236169e+02  -1.492964e+02
   2.593210e+02  -2.325388e+01
   9.583042e+01   6.168323e+01
  -1.082001e+01   6.242600e+01
  -7.006465e+01   8.269134e+01
  -1.122556e+01  -1.419684e+00
   7.212476e+01   3.598525e+00
   8.841968e+01   4.988482e+01
   2.240744e+01   1.174750e+02
  -8.487963e+01   4.203828e+01
  -6.557210e+01  -8.341672e+01
   2.984716e+01  -8.769261e+01
   1.007917e+02   2.061663e+01
   8.997113e+01   1.641884e+02
  -5.585854e+01   1.758524e+02
  -1.478846e+02   8.558552e+01
  -2.350836e+02  -5.094078e+01
  -1.422693e+02  -1.371363e+02
  -2.566919e+01  -1.198171e+02
   7.252324e+01  -3.880891e+01
   8.839051e+01  -4.888152e+00
   1.893613e+01   4.940442e+01
  -3.460132e+01  -4.431309e+01
   3.735021e+01  -7.807655e+01
   7.195717e+01  -2.288220e+01
   5.761905e+01  -2.624780e+01
  -1.193628e+01   2.163239e+01
  -4.635147e+01   1.073672e+01
  -3.918142e+01  -6.273457e+01
   9.511972e+01  -7.834068e+01
   2.151860e+02   2.553213e+01
   1.295934e+02   1.260062e+02
  -6.116532e+01   1.402779e+02
  -1.379100e+02   1.220798e+02
  -1.385414e+02   8.162535e+01
  -3.484980e+01  -1.872847e+00
   2.877633e+01  -5.230542e+01
   2.649447e+01  -1.403929e+01
  -5.273175e+01   5.166531e+01
  -1.143766e+02   4.752987e+01
  -6.374184e+01  -8.313795e+01
   2.450245e+01  -1.000447e+02
   4.956773e+01  -5.066222e+01
   7.281224e+01  -2.013530e+01
   2.681318e+01   3.741679e+01
  -4.343251e+01  -8.400195e+00
   2.815354e+01  -6.458296e+01
   8.814272e+01  -9.124140e+01
   1.472552e+02  -2.485233e+01
   9.542726e+01   1.105391e+02
  -1.577821e+01   9.587188e+01
  -1.069786e+02   4.783218e+01
  -1.095846e+02  -3.217694e+01
  -3.174987e+01  -6.056327e+01
   5.355175e+01  -8.816502e+01
   3.668175e+01  -3.115394e+01
  -1.804384e+00   4.844373e+01
  -1.524070e+01   5.476912e+00
   1.006839e+01  -1.431202e+01
   5.467921e+01   1.095290e+01
   6.657021e+01   8.156496e+01
  -1.337546e+00   1.133382e+02
  -1.050929e+02   5.518892e+01
  -1.293261e+02  -7.678563e+01
  -9.170826e+01  -1.254580e+02
  -1.415416e+01  -1.225587e+02
   4.664620e+01  -7.431542e+01
   8.247289e+01  -1.020791e+00
  -3.700081e+01   4.718152e+01
  -4.490057e+00   2.987910e+01
   6.112972e+01  -4.036630e+00
   5.592895e+01  -3.417724e+01
   1.025294e+01   3.385949e+01
  -3.745256e+01   2.700476e+01
  -8.529967e+01  -2.412555e+00
  -2.415999e+01   1.416877e+00
   1.792600e+01  -5.214544e+01
   1.154566e+02  -3.311413e+01
   1.664468e+02   4.120241e+01
   8.184856e+00   1.092022e+02
  -4.341179e+01   1.264329e+02
  -1.770130e+02   1.827994e+01
  -9.747529e+01  -2.604551e+01
  -2.980979e+01  -7.496230e+01
   4.105137e+01  -5.798488e+01
   3.223129e+01  -5.375543e+01
   2.835290e+01  -6.020060e+01
   2.647744e+01  -5.275885e+01
   8.047660e+01  -7.504771e+01
   3.154886e+01  -1.146068e+01
   4.373605e+01   1.334893e+02
   1.503031e+01   1.238400e+02
  -6.310940e+01   5.467221e+01
  -1.021057e+02  -7.958328e+01
  -2.067293e+01  -6.923617e+01
   1.581866e+01  -7.830278e+01
   1.528280e+01  -8.171121e+00
   3.986164e+01   7.862928e+00
  -1.295704e+01   1.210238e+01
  -5.205547e+01   1.623658e+01
  -4.334448e+01   3.177177e+01
   4.833230e+01  -3.220080e+01
   2.537774e+01   1.524514e+01
  -6.106243e+01   7.048412e+00
  -5.439238e+01  -3.819309e+01
  -7.559208e+01  -2.993354e+01
   2.113556e+01  -5.481099e+01
   2.451052e+01  -1.589973e+01
   9.378988e+01   1.140125e+01
   1.863787e+01   1.028993e+01
  -3.327564e+01   4.791476e+01
  -1.776112e+01  -2.867018e+01
  -6.673274e+00  -6.049417e+00
   1.794613e+01  -4.433939e+01
   4.153646e+01  -1.532270e+01
   1.100951e+01   3.065279e+01
   1.015317e+01  -3.707253e+00
   2.211563e+01   3.949177e+01
  -6.315423e+00   7.157244e+01
   3.017552e+01   2.397519e+01
  -4.946452e+01   8.087995e+01
  -7.221095e+01   1.125946e+02
  -8.469168e+01   6.046589e+00
  -6.368118e+01  -6.571069e+01
   1.626470e+01  -5.539798e+01
   4.903555e+01  -3.242550e+01
   1.045939e+01  -9.233639e+00
  -4.194298e+01  -9.145577e+00
  -4.601662e+00  -3.867984e+01
  -4.614233e+01  -4.061605e+01
  -2.605356e+00  -3.757362e+01
   1.254628e+02  -5.212296e+01
   1.216034e+02   7.241083e+01
  -1.889015e+01   4.795777e+01
  -6.198341e+01  -2.829531e+01
  -3.039084e+01   5.201976e+00
   2.533262e+01   9.521449e+00
   7.208783e+01   6.639004e+00
  -6.802707e+00   9.103584e+01
  -7.180654e+01   6.447078e+01
  -7.573287e+01   4.310865e+01
  -8.105731e+01  -4.653656e+01
  -2.178395e+01  -1.305565e+02
  -4.802847e+00  -6.359174e+01
   4.846005e+01   4.770055e+01
   6.509723e+01   7.359334e+01
   1.350806e+01   1.714913e+01
   3.166214e+00  -2.878107e+01
  -2.788563e+01   8.403702e-01
  -2.825397e+01  -5.716873e+00
  -2.779833e+01   1.388075e+01
   9.162719e+00  -2.714884e+01
  -5.479020e+01  -7.085792e+01
  -2.306739e+01  -3.279275e+01
   2.537301e+01  -1.303782e+01
   7.374040e+01   8.006829e+01
   3.942678e+01  -3.920628e+00
   6.610090e+01   9.414066e+00
  -2.854862e+01   7.419363e+01
  -6.427906e+01   2.005673e+01
  -3.952014e+01  -1.298731e+01
   1.669346e+01   1.649438e+01
  -1.181137e-01   1.989641e+01
   1.524997e+01   9.265046e+00
   2.456254e+01   1.220157e+01
   2.910925e+01  -3.368916e+01
   3.176810e+01  -1.260467e+01
   1.392145e+00   7.611838e+01
  -3.393157e+01   6.061340e+01
  -9.792743e+01  -3.887658e-02
  -2.287870e+01  -2.613739e+01
   1.689650e+01  -8.858653e+01
   6.118862e+01  -4.804820e+01
   7.879198e+01  -1.450670e+01
   5.011613e+01  -2.221494e+01
   6.084038e+00   5.493622e+01
  -1.927913e+01   2.356857e+01
  -4.448185e+00  -1.731127e+01
   1.679663e+01   2.494378e+00
  -1.119970e+01   4.551424e+01
   4.843572e+00   2.323096e+01
  -3.901617e+01  -4.044035e+01
  -4.664122e+01  -3.461139e+01
  -1.252379e+01  -9.341768e+01
   4.898619e+01  -1.000682e+01
   2.662261e+01   5.082497e+01
   7.290856e+00   3.198341e+01
  -4.258048e+01   1.544878e+01
  -1.330441e+01  -1.651572e+01
  -2.436645e+01  -1.641423e+01
  -7.821100e+00  -5.367789e+01
   2.158414e+01  -3.868055e+01
  -3.170650e+00   6.747291e+00
  -6.030021e+01   8.660796e+00
  -3.267863e+01   1.174381e+01
   3.381946e+01  -1.663821e+01
   5.867052e+01  -5.898566e+01
   2.045310e+01  -4.390909e+01
   2.326104e+01   3.374838e+01
  -4.340061e+01   2.925848e+01
  -1.810912e+01   4.968904e+01
  -5.603499e+00   6.720150e+00
  -8.304923e+00   2.859607e+00
   3.808960e+01  -3.098083e+01
  -3.458709e+01   1.490082e+01
  -6.037815e+00   1.956497e+01
  -4.498420e+01  -2.132282e+01
  -4.952805e+01  -5.694551e+00
  -3.816544e+01  -1.419292e+01
  -3.699757e+01   3.143747e+00
  -1.926570e+01  -5.362072e+00
   2.251914e+01  -1.225302e+01
   1.595915e+01  -2.660235e+01
   2.332456e+00  -1.905636e+01
   1.909029e+01   3.288956e+01
  -2.263537e+01   3.690459e+01
  -9.252098e+00   2.651082e+01
   2.505486e+00  -4.451487e+00
   1.019106e+01  -1.362532e+01
   2.162664e+01   1.272885e+00
   3.758188e+01   2.084753e+01
   1.163196e+01  -1.216929e+01
  -2.593613e+01   8.345673e+00
   1.897177e+01  -1.604036e+01
  -1.614830e+01  -2.844874e-01
   3.118100e+01  -4.120930e+01
   5.007566e+01  -1.211825e+01
  -5.000126e+01   1.405119e+01
   1.514729e+00   2.701060e+00
