
 $NMID
 id='ANONYMOUS ', fmtdat='(2E16.6)'
 volume=1.0
 tramp=1.0
 $END
   1.098130e+03   1.940355e+02
   7.346767e+02   5.242344e+02
  -1.663121e+02   6.508590e+02
  -2.109361e+02   3.861296e+02
  -1.512008e+02   5.096914e+01
   2.774519e+01   9.781989e+01
   1.200745e+02   5.221952e+01
  -1.022283e+02   8.104477e+01
  -8.545774e+01   6.054471e+01
  -2.051300e+02  -9.321459e+00
  -1.318419e+02  -8.958230e+01
  -1.457236e+01  -2.138159e+02
  -4.826744e+00  -1.757282e+01
   1.087981e+01   1.442075e+02
  -5.368241e+01   6.884868e+01
  -1.021632e+02   1.666174e+01
  -3.788977e+00  -1.541120e+02
   6.309168e+01  -1.106517e+02
   1.431820e+02  -3.584530e+01
   1.371822e+02   6.251678e+01
   6.022315e+01   7.041407e+01
   4.183210e+01   1.077198e+02
   1.755599e+01   5.816294e+01
   6.792542e+01   5.088108e+01
  -3.904338e+01   1.143402e+02
   1.646829e+00   9.239529e+01
  -1.266902e+02   2.683306e+01
  -2.145272e+02  -1.018219e+02
  -2.309458e+00  -6.831329e+01
   1.173697e+02  -2.885607e+00
   9.845025e+01   9.140351e+01
  -2.303324e+01   1.332974e+02
  -8.826173e+01   7.752635e+01
  -1.660913e+02  -1.508556e+01
  -9.194081e+01  -5.611829e+01
  -7.189132e+01  -9.339126e+01
  -4.341643e+01  -8.672692e+01
  -5.213012e+01  -8.131996e+01
  -4.300787e+01   7.828366e+01
  -1.711038e+01  -6.368774e+01
   1.944758e+01  -1.399195e+02
   9.753312e+01  -1.658526e+02
   2.485183e+01   5.512483e+01
  -1.651609e+01   8.654021e+01
  -4.512702e+01  -1.685921e+01
  -9.964257e+00  -1.473727e+02
   1.065721e+02  -1.038235e+02
   1.088814e+02   4.560830e+01
   9.834654e+01   1.435440e+02
   3.319663e+01   1.407002e+02
  -9.690169e+01   4.645522e+01
  -1.366474e+02  -8.924149e+01
  -5.108297e+01  -8.452500e+01
   3.981228e+01  -6.645031e+01
   8.711074e+01  -3.565948e+01
   8.424633e+01  -3.170099e+00
  -3.061230e+00  -2.248322e+01
   2.921362e+01  -4.444862e+01
   2.993033e+01   1.881515e+01
   5.999152e+01   5.352227e+01
  -3.857213e+01   2.842538e+01
  -4.484946e+01   4.577059e+01
  -1.397108e+02  -1.835066e+01
  -2.947590e+01   1.550745e+01
   7.965692e+01  -5.944841e+01
   9.422492e+01  -1.132455e+02
   1.100127e+02  -3.832388e+00
   8.681345e+01   3.803154e+01
  -4.238427e+01   1.034959e+02
   8.261541e+00   3.963055e+01
   4.385568e+01   7.511671e+01
   1.531642e+01   3.465590e+01
  -6.199525e+01   2.310626e+01
  -8.426608e+01  -8.956655e+00
  -5.951331e+01  -6.059386e-01
   2.614748e+01  -7.328616e+01
   8.960370e+01  -9.158683e+00
   8.544471e+01   1.601109e+01
   5.263331e+01   8.523356e+01
  -4.436216e+01   6.389833e+01
  -5.640385e+01  -3.315985e+00
  -1.002455e+02  -1.204381e+02
  -3.934553e+01  -2.982251e+01
   2.366316e+00  -9.838494e+01
   3.916614e+01  -2.790941e+01
   2.211338e+01  -5.240412e+01
   7.140149e+01  -2.950665e+01
   1.053744e+02  -6.146397e+00
   1.682380e+02   1.143935e+02
   4.041045e+01   1.218702e+02
  -4.274274e+01   1.168581e+02
  -1.104270e+02   8.077584e+01
  -1.256260e+02   1.770763e+00
  -1.643859e+01  -6.419786e+01
   3.210030e+01  -4.078060e+01
  -6.357349e+00  -3.900069e+01
  -2.088425e+01  -6.070384e+01
  -5.467611e+01   2.478068e+01
  -3.171664e+01   3.109697e-01
  -2.622559e+01  -3.619328e+01
   1.825366e+01  -1.114389e+01
   4.792924e+00   3.747845e+01
  -3.623660e+01   3.390160e+01
  -8.807104e+01  -7.400566e+00
   3.629138e+01  -7.708587e+01
   6.586686e+01  -3.588810e+01
   7.673374e+01  -3.760509e+01
   1.156631e+02   2.358839e+01
   4.098632e+01   9.629161e+01
   3.032651e+01   4.626794e+01
  -5.831800e+01  -2.896482e+01
  -4.148607e+01   2.477303e+01
  -5.774915e+01   3.632658e+00
  -3.105095e-01   8.432000e+01
  -1.771246e+01   7.783147e+01
  -3.918933e+01  -3.958701e+00
  -1.606916e+01  -5.510113e+00
   4.657155e+01  -3.852018e+01
   1.595084e+01   1.968337e+01
   2.487729e+01   5.365194e+01
  -7.780675e+01   3.148190e+01
  -8.297713e+01  -6.030457e+01
  -6.675499e+01  -8.017650e+01
   4.198535e+01  -6.654425e+01
   8.938195e+01  -2.633510e+01
   8.263620e+01   6.767380e+00
   2.566275e+01   5.193534e+00
  -4.585624e+01  -2.856146e+00
  -9.073515e+00   1.014548e+01
   4.696096e+01  -3.334719e+00
   5.289502e+01   1.265528e+01
   4.069748e+01   2.750581e+01
   2.240253e+01   6.289218e+01
  -2.300337e+01   4.167568e+00
  -3.886867e+01   4.865447e+00
  -1.733145e+01  -4.274369e-01
  -2.462204e+01   6.210282e+01
  -2.484849e+01   2.814646e+01
  -3.373321e+01  -1.411569e+01
  -4.305696e+01  -4.664319e+00
  -4.045085e+01  -1.057084e+01
   2.599632e+01  -5.607255e+01
   9.108258e+01  -3.515801e+01
   3.245609e+01   1.725178e+01
   6.536903e+01   5.630780e+01
  -3.061352e+01  -1.322960e+01
   3.556185e+00  -5.077199e+01
  -2.176773e+01  -3.603046e+01
  -3.300136e+01   5.235207e+00
  -3.923358e+01  -4.321137e-01
  -2.064259e+01  -3.077818e+01
  -2.515597e+01  -7.703024e+01
   2.494126e+01  -5.232564e+01
   7.948842e+01  -4.038931e+01
   9.459898e+01   5.276519e+01
   1.586090e+01   7.416858e+01
   4.202576e+01   5.500949e+01
  -4.384206e+01   3.651843e+01
  -2.326129e+01   1.630036e+01
  -1.733239e+01  -1.171298e+01
   1.999850e+01  -6.882874e+01
  -1.029857e+01   3.361223e+00
  -2.685214e+00  -1.677074e+01
  -5.202122e+00  -3.511655e+01
   4.373897e+00   3.220544e+01
   2.764793e+01  -1.402763e+01
   5.403275e+01   4.672042e+01
  -1.689210e+01   3.696187e+01
  -7.144328e+01   7.635665e+00
  -9.065545e+01  -6.194957e+01
   2.212273e+01  -4.473563e+01
   7.312482e+01  -4.747547e+01
   9.493858e+01   1.630256e+01
   5.787805e+01   5.721484e+01
   9.305099e+00   5.759491e+01
   7.272661e+00   2.921236e+01
  -2.266943e+01   7.036305e+00
  -4.046329e+01   1.975237e+01
  -4.610625e+01   1.363498e+01
  -3.306974e+00   3.859896e+01
  -3.377656e+01   6.192431e+00
   4.539590e+00  -2.937786e+01
   1.811833e+00  -6.311235e+01
   4.085943e+01  -2.790943e+00
   1.045858e+02   1.528448e+01
   2.241118e+01   4.953849e+01
  -1.306931e+00   5.082852e+01
   3.412187e+00   5.568642e+00
   2.330939e+01  -1.985602e+01
  -3.082858e+01  -1.772088e+01
   1.118784e+01  -5.041943e+01
   2.309978e+01  -1.853305e+01
  -7.666917e+00   3.001283e+01
   6.903160e+00   3.026950e+01
   2.488636e+01  -1.238812e+01
   5.176507e+01   3.914913e+01
  -2.573829e+01  -8.032098e+00
  -1.243754e-01   3.803738e+01
  -2.248721e+01   1.703074e+00
  -7.676825e+01  -1.156922e+01
  -1.973635e+00  -3.431391e+01
   2.171875e+01  -3.634967e+01
   4.127316e+01   4.295287e+00
   2.254033e+01   4.015374e+01
  -3.224578e+01   3.257697e+01
  -2.001155e+01  -1.366552e+01
  -3.068788e+01  -4.552157e+01
   5.357519e+00  -4.269042e+01
  -2.152258e+01   7.586595e+00
  -1.724632e+01  -7.742911e+01
  -4.747643e+01  -4.673655e+00
   2.044168e+01  -6.860553e+01
   5.803078e+01  -2.376326e+01
   8.842182e+01  -8.977880e+00
   4.749987e+01   4.480770e+01
   9.988781e+00   2.976816e+01
  -1.321930e+01   4.907931e+01
  -4.159614e+01   3.672589e+01
   1.907031e+00   1.891133e+01
   1.760203e+01   4.754554e+01
   2.378939e+01   3.511366e+01
   6.125139e+00   4.210820e+01
  -1.051397e+02  -1.774938e+01
  -8.973831e+01  -2.616772e+01
  -4.071287e+01  -3.710981e+01
   2.683472e+01  -4.749924e-01
   2.806221e+00  -4.437215e+01
  -2.835240e+01  -9.445559e+00
   1.002837e+01  -3.666217e+01
  -2.633627e+01  -7.240149e+01
   2.795963e+01  -5.057619e+01
   8.897079e+01  -8.469121e+00
  -5.262460e+00   2.748770e+01
   9.179704e+00   7.448543e+01
   1.351509e+01   3.271025e+01
  -1.344282e+01  -1.768545e+01
   1.693570e+01  -5.562491e+01
   2.029397e+01  -1.252036e+01
   2.903648e+01   2.839091e+00
   7.913483e+00   7.881797e+00
   4.233356e+01  -2.079183e+01
   2.695105e+01  -2.027705e+01
   4.269596e+01   1.058779e+01
   3.420790e+01   6.047050e+01
  -2.399137e+01   1.435158e+01
  -4.032239e+01  -1.470024e+01
  -8.951285e+01   3.297426e+01
  -9.961995e+00   3.967708e+00
   4.391320e+01   2.957853e+01
   5.182878e+01  -4.454980e+01
   5.532924e+01   3.110808e+01
  -1.191626e+01   1.301885e+01
  -7.359846e+00   3.858459e+01
   8.826639e+00  -8.687628e+00
   6.972112e+01  -3.415637e+01
   3.796757e+00  -2.009565e+01
  -5.214151e+00   5.802028e+00
  -2.317133e+01  -2.825690e+00
   2.498578e+01  -5.823205e+00
   4.094447e+01  -3.889304e+01
   2.024429e+01  -2.604099e+00
   4.375893e+01   1.194877e+01
   2.196547e-01   2.238652e+01
  -2.083322e+01   5.865333e+01
  -1.821725e+01   3.446989e+01
  -2.298868e+01  -1.196022e+01
   6.289050e+00  -3.185945e+01
  -2.758252e+01  -3.883565e+01
   3.291068e+01   6.790128e+00
   1.381173e+01  -1.282401e+01
  -1.386178e+01  -5.047745e+01
   9.259056e+00  -7.134787e+00
   2.183699e+01   4.361861e+01
   3.703656e+00   6.557581e+01
  -3.943547e+00   1.003478e+02
  -2.940311e+01   4.792668e+01
  -2.255869e+01   1.746021e+01
   3.214796e+01  -3.324536e+01
   6.008752e+01  -3.880301e+01
   4.924737e+01  -1.488012e+01
   2.090351e+01   5.092040e+01
   6.278038e+00   9.125183e+00
  -1.353307e+01   3.065021e+01
  -5.027107e-01  -1.377462e+01
   3.315933e+01   8.695203e+00
   3.235592e+00   2.744687e+01
   1.131483e+00   2.012522e+01
  -1.383468e+01   6.139835e+01
  -3.138846e+01   1.207002e+01
   1.327507e+01  -3.888523e+01
  -1.035867e+01  -2.647875e+01
   1.023948e+01   4.637905e+00
  -4.172665e+01   4.451975e+01
  -1.484253e+01  -3.632357e+00
  -4.031458e+01  -1.922251e+01
   3.423529e+00   1.449378e+01
   1.553882e+01  -2.222726e+01
   4.499530e+01  -4.365670e+00
   4.294052e+01   1.304340e+01
   2.445777e+01   3.130487e+01
   1.722872e+00  -5.025184e+00
   2.364210e+01  -2.576623e+00
   4.916660e+00   4.055349e+01
   5.446689e+00   2.697736e+01
   6.049946e+00  -1.426607e+01
   2.898960e+00  -1.757477e+01
   2.022542e+01   2.347616e+01
   1.715432e+01   5.066899e+01
   5.179568e+00  -2.426795e+01
  -5.075850e+00   1.213800e+01
  -4.440648e+01   3.729282e+01
   2.399402e+01  -1.065872e+01
  -3.548512e+01  -1.056393e+01
   1.511883e+01   2.184830e+01
   1.708322e+01  -7.377763e+00
   1.379159e+01  -1.754632e+01
  -6.840492e+00  -9.607327e+00
  -2.393319e+00   4.374906e+00
  -5.887272e-01   6.897109e+00
   6.377525e+01  -9.154783e+00
