
 $NMID
 id='ANONYMOUS ', fmtdat='(2E16.6)'
 volume=1.0
 tramp=1.0
 $END
  -1.076752e+03  -2.652884e+01
  -3.936287e+02  -4.318302e+02
  -3.227838e+01  -3.349888e+02
   3.618191e+01  -1.678710e+02
   1.153537e+02  -9.620165e+01
  -3.525260e+01   4.886583e+01
  -7.390564e+01  -7.905012e+01
  -2.462312e+01  -1.633425e+02
   1.101722e+02  -8.960742e+01
   1.200874e+02  -9.706269e+00
   7.510682e+01   7.947425e+01
   2.446595e+01   1.503062e+02
   6.297591e+00   1.248092e+01
  -5.686504e+00  -8.014328e+01
   7.668479e+01  -9.421954e+01
   7.470896e+01   3.108103e+01
   5.652534e+01   1.103391e+02
  -6.647835e+01   9.768625e+01
  -6.824774e+01  -8.788570e+00
  -6.037912e+01  -2.940788e+01
  -7.118527e+01  -7.792434e+01
  -3.747573e+01  -4.172070e+01
   2.323427e+01   1.055907e+01
  -6.695719e+01  -9.007710e+01
  -1.123357e+02  -7.213120e+01
   3.004972e+01  -6.057928e+01
   1.086422e+02   3.951760e+01
   9.004918e+01   3.109184e+01
   6.219765e+01   2.214289e+01
  -8.385551e+01   2.104277e+00
  -2.918731e+01  -8.712722e+01
  -1.263631e+01  -5.630443e+01
   6.936333e+01  -4.189208e+01
   7.839542e+01   3.809217e+01
   6.307824e+01  -3.873265e+01
   2.423261e+01   4.355865e+00
   1.359867e+01   4.796188e+01
   2.441156e+01   2.068244e+01
   3.081511e+01  -5.410635e+00
   1.685610e+01   4.279888e+01
  -2.365397e+00   4.920098e+01
  -1.072933e+01  -1.295086e+01
  -1.640130e+01   8.858470e+00
   2.375261e+01   1.744443e+01
   1.324631e+01   6.281863e+01
  -2.930485e+01   6.307219e+01
  -9.134116e+01   8.189376e+01
  -8.062910e+01  -2.405788e+01
  -1.136416e+02  -6.659648e+01
  -5.238935e+01  -8.581809e+01
   8.244463e+01  -3.697456e+01
   4.239655e+01   3.462609e+01
   1.344489e+01   6.436966e+01
   1.987460e+01   1.901252e+01
  -3.936198e+01   1.830790e+01
  -3.999107e+01   5.196841e+01
  -3.088519e+01   2.701967e+01
  -8.145912e+01  -2.341328e+00
  -1.566227e+01   8.191489e+00
  -4.378407e+01  -7.456392e+00
   3.611273e+00  -8.295094e+01
   5.332249e+01  -6.843291e+01
   7.668691e+01  -6.537195e+00
  -2.203246e+01  -8.216768e+00
   9.912109e+00   4.160342e+01
  -5.342689e+01   3.550138e+01
  -4.525187e+01   2.981924e+01
  -8.978894e+00  -9.343935e+01
   3.464722e+00  -1.643359e+01
  -1.544015e+01  -1.992620e+01
  -6.630896e+01  -1.628255e+00
  -1.144327e+00  -1.084033e+02
   1.547883e+01  -4.043588e+01
   3.910037e+01   1.408375e+01
   4.841179e+01   4.189172e+01
  -2.570398e+01   6.329815e+01
  -2.643922e+01   2.925864e+01
  -9.035304e+00  -3.188730e+01
   1.810619e+01  -3.210864e+01
   3.111443e+00  -5.740300e+01
   5.570863e+01   1.442803e+01
  -1.776517e+01   6.010746e+01
   1.427232e+01   2.223168e+00
   1.013921e+01  -2.606459e+01
   9.242925e+00   2.103403e+01
  -1.945462e+01  -1.946795e+01
  -1.872411e+01   3.955695e+01
  -7.206073e+01  -3.367951e-01
  -9.565863e+01  -3.855611e+01
  -3.580120e+01  -7.160668e+01
   1.360637e+01  -9.130280e+01
   7.621506e+01  -4.736468e+01
   8.741903e+01  -1.576041e+01
   5.172779e+01   5.129291e+01
   5.580853e+01   7.578490e+01
   8.057885e+00   3.531923e+01
  -4.970348e+00  -2.317346e+01
  -1.203786e+01  -4.538698e+00
   5.237680e+01  -1.085976e+01
  -2.529495e+01   2.044856e+01
  -2.834800e+01   2.943540e+01
  -1.879161e+01   5.437108e+00
   2.342304e+01  -1.068408e+01
  -1.060685e+01   2.027905e+01
  -7.208208e+00   2.114610e+01
  -8.966112e+00   8.349546e+01
  -3.318347e+01   6.658232e+01
  -7.787189e+01   4.650024e+01
  -4.885269e+01  -3.721959e+01
  -6.277351e+01  -2.546751e+01
   2.484113e+01  -4.731680e+01
   2.742550e+01  -3.331980e+01
   1.853609e+01  -1.194581e+01
   2.735340e+01  -1.727361e+01
   1.002170e+01  -4.782953e+01
   3.680438e+01   5.523704e+00
   1.074137e+01   2.423791e+01
  -1.006567e+01   3.820041e+01
  -1.394498e+01   6.082247e+00
   2.184015e+01  -4.813032e+01
  -5.048927e+00   4.395357e+01
   2.050472e+01   1.467112e+01
   4.483705e+01   5.653966e+01
  -2.027277e+01   4.653185e+01
  -1.970047e+01   3.067754e+01
  -4.842020e+01   1.905302e+01
   1.327345e+01   1.512133e+01
  -8.037241e+00   2.961029e+01
   1.312966e+01   6.245729e+00
   3.343612e+00   1.891024e+01
  -5.149589e+01  -3.926910e+01
  -1.657064e+01  -1.901294e+00
  -4.050376e+01  -2.929505e+01
   1.894747e+00   5.639003e+00
   8.494543e+00   1.131573e+01
   9.571126e+00   4.136339e+00
  -1.003705e+01   1.435107e+01
  -7.363878e+00  -5.767646e+01
   6.901135e+00  -1.395955e+01
  -1.644594e+01  -3.877033e+01
   2.650667e+01   3.175951e+01
  -1.071198e+01   2.690259e+01
   5.870065e+00   5.734247e+01
  -3.346984e+01  -4.522731e+01
   4.121533e+01  -1.708500e+01
  -6.511633e+00  -9.715950e+00
  -2.627683e+01   1.487773e+01
  -4.655171e+00  -4.889629e+00
  -3.836944e+01   3.552472e-02
   2.364378e+00  -6.247783e+01
  -1.005160e+01   5.113393e+00
   1.466562e+01   1.315894e+01
   2.841717e+00  -8.219817e-01
  -2.392345e+01   3.071908e+01
  -5.606648e+01  -2.676999e+01
  -1.487661e+01  -6.033965e+01
   4.209327e+01  -3.300030e+01
  -3.932998e+00  -4.349677e+01
   1.554240e+01   9.538361e+00
   1.100813e+01   1.857355e+01
  -7.499043e+00   2.626692e+00
   3.552399e+01  -1.469964e+01
   4.579446e+00  -1.428147e+01
   2.560166e+01   3.578483e+00
   2.324260e+01   3.839612e+01
  -4.840179e+01  -2.802220e+00
  -1.216580e+01  -4.222394e-01
  -7.221865e-01  -4.361846e+01
   8.212848e+01  -1.790957e+01
   3.456533e+01   1.443188e+01
  -2.626091e+01   5.499926e+01
  -3.426004e+01   5.962267e+01
  -5.149656e+01   8.405646e+00
  -3.395284e+01  -5.815140e+01
  -3.017892e+00  -2.701404e+01
  -1.439671e+01   8.250980e+00
   4.393454e+01  -3.007109e+00
  -9.696132e+00  -2.708282e+01
   6.341131e+00  -4.542459e+00
   6.854275e+00  -1.345807e+01
   3.203586e+01   3.476553e+01
  -1.398236e+01   3.902739e+01
  -2.738178e+01   3.256527e+01
  -2.530704e+00  -7.659515e+00
   9.561346e+00  -4.847567e+01
   1.110759e+01  -4.250903e+01
   2.612604e+01  -1.500107e+01
   1.128711e+01   2.068017e-01
   3.179542e+01   7.884631e+00
   1.483626e+01   1.372297e+01
   3.431866e+00  -4.563377e+01
   5.840535e+00  -4.484228e+01
   1.226077e+01   2.261023e+01
   3.401030e+01  -3.254026e+00
  -1.555854e+01   1.155191e+01
   7.718083e+00  -1.658138e+01
  -1.872280e+01   5.636550e-01
   2.365777e+01  -2.816603e+01
  -2.900367e+01  -5.147440e+00
  -1.705669e+01   4.971127e+00
  -3.539226e+00  -2.225460e+00
  -1.556871e+01  -2.316377e+01
   5.863661e+00  -1.488562e+01
   1.042347e+01  -2.769540e+01
   2.397956e+01  -4.105058e-03
   8.244827e+00  -4.473787e+00
  -7.242494e+00   5.367447e+00
   5.041770e+00  -2.753312e+01
   1.360060e+01   2.151505e+01
   3.172350e+00   4.135455e+01
   4.489466e+01   7.315222e+01
  -9.421493e+00   9.349180e+00
  -3.954216e+01   5.227450e+01
  -2.515293e+01  -4.027334e+01
  -1.701552e+01  -4.341334e+01
   2.908768e+01  -2.415558e+01
   6.091876e+01   1.936871e+00
  -1.072007e+01  -1.668960e+01
  -3.788854e+00  -4.957797e+01
   1.242543e+00  -8.691855e+00
  -9.200721e+00  -3.194025e+01
   2.588706e+01   1.241570e+01
   3.326223e+01   2.122503e+01
   4.583573e+01   2.978023e+01
  -1.291383e+01   2.493808e+01
  -1.117539e+01   2.978743e+00
  -1.881723e+01  -3.293434e+01
  -1.731558e+01  -2.366942e+01
   2.384585e+00  -9.845809e+00
   1.785228e+01  -9.002662e+00
  -7.920213e+00  -6.628540e+00
  -4.023710e+01  -1.699795e+01
   5.532692e-01  -1.678076e+01
   2.811558e+01  -5.267316e+01
   4.154096e+01   3.291879e+01
  -6.621158e+00   1.404894e+01
  -2.144916e+01   3.452662e+01
  -4.223727e+00   4.475632e+01
   1.629723e+01  -2.972044e+01
  -1.199632e+01   3.385487e+01
  -6.138438e+00   3.108513e+01
  -1.900498e+00  -1.387243e+01
  -8.428464e+00   2.204893e+01
  -1.767709e+01  -5.611692e+01
   2.177330e+01  -3.230004e+01
   2.269741e+01   7.149978e+00
   1.874401e+01  -1.401831e+01
   3.098895e+01  -5.808559e+00
   9.821347e+00  -2.290930e+01
   3.975515e+01  -2.525900e+01
  -1.565137e+01  -2.837451e+01
  -1.541990e+01  -8.990748e+00
  -2.353756e+01  -4.208459e+01
   1.281824e+01  -1.231122e+01
   1.748272e+01  -1.632440e+00
  -1.010380e+00   5.209057e+00
   7.724784e+00   3.866172e+01
   9.698621e+00   4.172354e+01
   1.537096e+01  -1.128874e+01
   1.877155e+01   3.129395e+01
  -4.869044e+01   9.722430e+00
  -3.899838e+01   6.242373e+00
  -5.345889e+01  -4.032482e+01
   2.340104e+01  -2.644912e+01
   2.552210e+01   3.530251e+01
  -2.197703e+01   4.122389e+01
  -3.518746e-01  -4.490869e+01
  -7.989757e+00   1.508036e+01
   1.159580e+01   1.473945e+01
   1.709787e+01  -7.026898e-01
   3.596403e+01   2.735054e+01
   2.310818e+01   3.559376e+01
  -1.353037e+01  -2.922042e+01
  -3.242662e+01  -8.075973e+00
  -1.135221e+01   1.578918e+01
   5.040513e+00   3.573424e+01
   3.885233e+01  -2.085323e+00
  -3.455695e+00   1.854900e+01
  -2.493269e+01   1.905953e+01
  -1.258499e+01  -2.739281e+01
   7.701335e+00  -5.981113e+00
   8.106234e+01   7.090658e+00
   3.687689e+01  -1.868997e+01
   2.443480e+00  -1.155502e+00
   4.893658e+00   1.404102e+01
  -4.313084e+01   2.388239e-01
   3.183166e+01  -2.856561e+01
  -9.407514e+00   2.351057e+01
   4.011332e+01   2.118091e+01
   4.610132e+00   9.242380e+00
  -2.070747e+01   6.647543e+01
   3.026750e+01   1.477263e+01
   9.959497e+00   2.973500e-01
   3.314536e+00   2.207805e+01
  -8.633322e+00   1.379748e+01
  -1.115000e+01   1.917892e+01
   4.319418e+01   1.939001e+01
   4.158100e+01   3.678476e+00
   2.447119e+01   4.377447e+00
   5.475787e+00   4.147088e+00
  -2.580434e+01  -1.566651e+01
  -3.721373e+01   1.168547e+01
  -3.561221e+01   1.374044e+01
   3.308371e+01   1.118886e+01
   1.742825e+01   2.595130e+01
   3.468367e+01   3.441552e+01
  -1.653376e+01   3.241705e+01
   4.714055e+00   1.315723e+01
  -1.823868e+01   3.853780e+00
   6.546674e+00  -1.022666e+01
  -1.172337e+01  -2.191036e+01
   2.274710e+01  -8.664019e+00
  -7.741935e-01   6.102556e+00
  -2.642854e+01   5.449524e+00
  -9.425393e+00   4.040897e+00
  -5.772281e+00  -9.226063e+00
   1.436704e+00  -2.183885e+01
  -3.047194e+00   3.532134e+01
  -7.960532e+00  -1.264644e+00
  -4.170106e+01  -1.116469e+01
