
 $NMID
 id='ANONYMOUS ', fmtdat='(2E16.6)'
 volume=1.0
 tramp=1.0
 $END
  -2.308729e+03   2.547787e+02
  -1.808745e+03  -1.212790e+03
  -4.655714e+02  -1.571712e+03
   8.357371e+02  -1.103332e+03
   9.097342e+02  -2.328565e+02
   1.231598e+02   6.046550e+01
  -1.648254e+02  -7.003077e+01
   1.396446e+01  -3.025212e+02
   2.563731e+02  -4.912815e+02
   4.420039e+02  -1.888005e+02
   3.508894e+02   2.883652e+02
   1.329917e+02   4.656014e+02
  -2.086251e+02   2.105335e+02
  -2.207317e+02  -2.169398e+02
   1.182764e+01  -4.060591e+02
   2.498136e+02  -9.818193e+01
   2.948751e+02   3.301655e+02
  -4.637859e+01   6.116860e+02
  -4.427672e+02   2.774944e+02
  -4.158748e+02  -6.136221e+01
  -1.481603e+02  -3.115423e+02
   7.038958e+01  -2.156872e+02
   4.813273e+00  -1.013802e+02
  -2.201729e+02  -1.677337e+02
  -2.088925e+02  -3.208769e+02
   1.399046e+02  -2.208765e+02
   4.061307e+02  -1.676492e+01
   4.143570e+02   1.871495e+02
   1.399765e+02   2.609104e+02
  -2.630952e+02   6.188495e+01
  -3.180944e+02  -1.071420e+02
  -1.034383e+02  -2.574998e+02
   2.627451e+02  -2.118275e+02
   3.316192e+02  -1.565153e+01
   2.126982e+02   1.306219e+02
  -7.740533e+00   2.107249e+02
   7.314892e+01   5.451875e+01
   1.255117e+02  -1.055810e+01
   1.358228e+02  -2.544765e+01
   5.595144e+01   1.641955e+02
  -1.221470e+02   3.387673e+02
  -1.923573e+02   3.058520e+02
  -1.751472e+02   5.447198e+01
  -2.547185e+01  -1.620895e+02
   6.171986e+01  -5.864600e+01
   3.315018e+01   1.712377e+02
  -1.268414e+02   2.838654e+02
  -3.642087e+02   4.230019e+01
  -3.615243e+02  -3.295571e+02
  -8.751364e+01  -3.846474e+02
   2.507443e+02  -1.726608e+02
   3.993899e+02   3.564974e+01
   2.873608e+02   1.641456e+02
  -1.066940e+01   1.414021e+02
  -1.957238e+02   1.068255e+02
  -2.050208e+02   5.931038e+01
  -8.930475e+01   1.854882e+01
  -2.116357e+01   3.148997e+00
  -6.813759e+01  -1.670792e+01
  -1.863712e+02  -5.704937e+01
  -1.058445e+02  -9.368019e+01
   9.247282e+01  -2.481753e+02
   3.024566e+02  -1.385784e+02
   2.486162e+02   6.592532e+01
  -9.360519e+01   3.234998e+02
  -2.741710e+02   3.315279e+02
  -3.711746e+02   8.125149e+01
  -1.346218e+02  -1.812129e+02
   2.959383e+01  -3.360388e+02
  -4.911369e+01  -3.117990e+02
   4.436780e+00  -1.839408e+02
   7.213411e+01  -1.157700e+02
   1.470301e+02  -1.167050e+02
   2.179098e+02   1.903478e+01
   1.559216e+02   1.308480e+02
   6.129711e+01   2.377318e+02
  -9.441191e+01   1.009934e+02
  -1.060908e+02  -6.815938e+01
  -3.137953e+01  -2.357637e+02
   3.395219e+01  -1.711275e+02
   2.403073e+02  -4.387723e+01
   2.896683e+02   1.300141e+02
   1.058060e+02   2.083541e+02
  -6.359128e+01   2.324482e+02
  -1.358928e+02   1.291098e+02
  -1.150402e+02   5.262450e+01
  -1.714194e+02   7.044623e+01
  -2.324530e+02  -2.323047e+00
  -3.781726e+02  -1.283169e+02
  -2.505723e+02  -3.007956e+02
   4.574465e+01  -3.672660e+02
   3.656375e+02  -3.168707e+02
   4.035104e+02  -9.223198e+01
   2.411151e+02   7.659278e+01
  -9.687377e+00   1.723979e+02
  -2.023987e+01   1.234086e+02
   2.043811e+01   3.658140e+01
   1.169799e+02  -2.985068e+01
   1.055918e+02   8.452823e+01
   9.160324e+00   8.170737e+01
  -8.092823e+01   5.507845e+01
  -3.911283e+01  -4.983913e+01
   7.067619e+01  -9.778524e+01
   1.112923e+02   2.681259e+01
   1.556492e+02   2.323605e+02
   6.801208e+00   2.966529e+02
  -2.290462e+02   1.418669e+02
  -3.073272e+02  -5.633777e+01
  -2.748956e+02  -2.485861e+02
  -2.156297e+01  -2.184037e+02
   9.838844e+01  -1.096202e+02
   1.159485e+02   2.312707e+01
  -1.593771e+00   1.988735e+01
  -5.251071e+00  -8.232355e+01
   2.685433e+00  -1.095131e+02
   1.242676e+02  -5.121536e+00
   1.273544e+02   3.832992e+01
   5.161285e+01   3.903127e+01
  -1.010953e+02  -1.050149e+02
  -1.675686e+01  -1.184549e+02
   1.653450e+02  -3.135648e+01
   2.562937e+02   4.674886e+01
   2.505787e+02   2.110234e+02
  -1.361509e+01   2.605367e+02
  -2.112536e+02   2.082875e+02
  -2.644963e+02   5.106507e+01
  -1.461113e+02  -5.474112e+01
   1.572450e+01  -6.307279e+01
   4.572843e+01   2.027774e+01
  -5.797889e+01   4.252048e+01
  -1.529936e+02  -1.421431e+01
  -1.169689e+02  -1.347304e+02
   7.735264e-01  -1.042772e+02
   8.493316e+01  -9.499324e+01
   9.965934e+01  -1.870306e+01
  -1.158305e+01   3.254349e+01
  -7.719083e+01  -1.059430e+02
  -5.191592e+01  -6.566289e+01
   1.621756e+02  -9.810566e+01
   2.282650e+02   2.451982e+01
   2.070567e+02   1.245584e+02
   5.146495e+00   1.884715e+02
  -1.391393e+02   9.884596e+01
  -1.156808e+02   7.248266e+00
   4.082748e+00  -1.012406e+02
   9.296909e+01  -5.227844e+01
   8.124152e+01   2.896315e+01
  -2.125428e+01  -3.101730e+00
  -4.094048e+01   1.124204e+01
  -1.036268e+00  -1.157186e+01
   1.254040e+02  -4.827271e+01
   1.044998e+02   1.115525e+02
  -5.929833e+01   1.418500e+02
  -1.772293e+02   1.608054e+02
  -1.861568e+02  -3.515330e+01
  -1.388268e+02  -1.454410e+02
   1.375784e+01  -2.172942e+02
   1.049781e+02  -1.131095e+02
   1.057563e+02  -2.452505e+01
   8.171853e+01   5.408034e+01
   3.201214e+01  -2.571819e+01
   2.233509e+01  -7.158436e+01
   8.986308e+01   1.873962e+01
   5.767920e+01   7.196343e+01
  -4.722898e+01   1.013862e+02
  -1.502112e+02   7.916402e+01
  -1.016823e+02  -4.524932e+01
   2.088664e+01  -1.154357e+02
   2.016100e+02  -4.119915e+01
   1.587711e+02   1.390299e+02
   3.325137e+01   1.978177e+02
  -1.302834e+02   1.784065e+02
  -2.314736e+02   5.181003e+01
  -2.578749e+02  -1.072421e+02
  -7.987412e+01  -1.828704e+02
   2.387977e+01  -5.804992e+01
   7.847040e+01  -4.493097e+01
   6.494138e+01  -6.056073e+01
   2.865678e+01  -5.581423e+01
   9.686332e+01  -9.963186e+01
   1.115564e+02   1.609422e+01
   9.584876e+01   1.885145e+02
   5.175550e+01   2.174922e+02
  -1.055836e+02   1.177089e+02
  -1.345088e+02  -4.091139e+01
  -1.077927e+02  -1.327243e+02
   1.947177e+01  -1.504236e+02
   5.433088e+01  -9.434662e+01
   4.567087e+01   6.008342e+01
  -1.741628e+01   8.682768e+00
  -6.751336e+01   2.467729e+01
   7.332921e+00   3.771621e+01
   1.029287e+02   6.357067e+01
   6.573687e+01   2.079813e+01
  -8.015506e+01   5.724973e+01
  -1.984968e+02   2.702489e+01
  -1.330237e+02  -3.878040e+01
   3.188869e+01  -8.823676e+01
   1.557900e+02  -5.863461e+01
   1.318125e+02  -1.148580e+01
   4.854233e+01   4.493481e+01
  -6.935480e+01   4.507358e+01
  -4.825809e+01  -2.843484e+01
  -1.254944e+01  -7.668250e+01
   4.893006e+01  -7.720010e+01
   3.664378e+01  -7.929654e+00
   1.150386e+02   9.129543e+01
   7.434247e+01   3.871909e+01
   2.533377e+01   9.260255e+00
   5.742299e+01  -1.635103e+01
   5.830627e+01   5.665646e+01
  -3.440869e+00   1.520050e+02
  -1.453034e+02   1.382810e+02
  -2.039339e+02   3.099660e+01
  -1.561667e+02  -6.486008e+01
   1.950252e+01  -9.254177e+01
   8.549400e+01  -3.154952e+01
   1.708201e+01   3.095497e+01
  -9.671552e+01   4.246295e+01
  -1.484346e+02  -7.977982e+01
   1.091422e+00  -1.157903e+02
   9.109599e+01  -1.032956e+02
   1.861685e+02  -4.122400e+01
   1.404885e+02   1.923537e+01
   3.990850e+01   1.003831e+02
  -6.532843e+01   5.060825e+01
  -5.311612e+01   5.156578e+00
  -1.943577e+00  -3.484895e+01
   8.464237e+01   3.750987e+01
   6.181385e+01   1.153828e+02
  -6.600626e+01   1.254636e+02
  -1.038886e+02   1.631857e+01
  -9.606120e+01  -1.130548e+02
  -2.385785e+01  -1.691817e+02
   1.259491e+02  -1.208877e+02
   6.788328e+01   2.610907e+01
   2.286433e+01   1.278897e+02
  -4.471012e+01   7.165352e+01
  -8.783949e+01  -1.417185e+01
  -2.033985e+01  -3.236991e+01
  -1.641447e+01   1.794502e+01
  -2.253649e+01  -2.556198e+00
   4.056594e-02  -5.486826e+01
  -1.047229e+01  -4.843065e+01
   6.898612e+00  -7.192020e+01
   6.104672e+01  -5.769840e+00
   1.457756e+02   1.416729e+01
   1.286488e+02   6.736024e+01
   3.359282e+01   7.320675e+01
  -7.241937e+01   1.375901e+01
  -6.882000e+01   4.618998e+01
  -7.649619e+00  -4.233951e+01
   1.464669e+01  -3.853676e+01
  -1.512288e+01  -1.083985e+01
  -3.614084e+01  -8.164623e+00
   1.159885e+01  -5.234433e+00
   4.953728e+01   2.583811e+01
   6.909943e+01   2.048600e+01
   2.299788e+01   4.394467e+01
  -8.599138e+01   1.187252e+02
  -2.056302e+02   6.356736e+01
  -1.379076e+02  -4.845256e+01
  -4.923194e+01  -1.126930e+02
   5.046424e+01  -1.402989e+02
   1.490138e+02  -4.088464e+01
   1.132308e+02   3.245493e+01
  -1.056276e+01   6.656930e+01
   1.134336e+01   1.575249e+01
   2.031900e+01  -1.331782e+01
   3.888808e+01   7.857889e+01
   6.082428e+00   7.453743e+01
  -7.637167e+01  -2.392481e+01
  -7.584982e+01  -3.910477e+01
  -9.283749e+01  -1.144898e+02
  -2.279392e+01  -1.013865e+02
   1.463093e+01  -2.507202e+01
   9.565872e+01   3.293010e+01
   7.072766e+01   8.399948e+01
  -5.676508e+01   8.976740e+01
  -1.065710e+02  -2.542663e+01
  -2.283362e+01  -6.641904e+01
   5.715951e+01  -4.722586e+00
   3.518013e+01  -5.860182e+01
   7.942823e+00   1.508197e+01
  -7.446616e+01   7.247716e+00
   1.171796e+00   4.715554e+00
   5.253668e+01  -4.048991e+01
   1.270679e+02  -3.405971e+01
   7.618110e+01   1.778065e+00
   5.806766e+00   5.811952e+01
   1.522879e+01   8.120664e+01
  -5.650485e+01   7.282068e+00
   1.292099e+01  -5.481292e+01
   2.034329e+01  -7.319894e+01
   4.812795e+01  -4.428752e+00
   6.308241e+01   1.603962e+01
  -6.112098e+00   4.676081e+01
   3.931548e+00  -3.288119e+01
  -2.799230e+01   1.241252e+01
  -2.164055e+01  -2.967118e+01
   1.307033e+01  -3.522501e+00
  -8.357895e+00   3.506074e+01
  -3.513858e+01   2.012713e+01
   3.641646e+01  -7.404007e+01
   3.490789e+01  -3.539433e+01
   6.470099e+01   4.422595e+01
   2.218931e+01   7.867668e+01
  -4.050544e+01   6.794238e+01
  -7.601042e+01   1.008223e+00
  -6.871602e+01  -4.415832e+01
   6.627257e+01  -4.949118e+01
   8.899249e+01   2.585048e+01
   6.373432e+01   1.718372e+01
   1.764473e+00   3.803161e+01
  -5.172955e+01   9.218059e+00
  -6.088984e+01  -2.088031e+01
   3.003484e+00  -4.029548e+01
  -8.626702e+00  -6.778463e+00
   4.465837e+00  -3.483223e-01
  -8.025031e+01   2.915859e+01
