
 $NMID
 id='ANONYMOUS ', fmtdat='(2E16.6)'
 volume=1.0
 tramp=1.0
 $END
  -2.705058e+03  -2.708560e+02
  -1.474082e+03  -1.183268e+03
   1.391972e+02  -1.619286e+03
   7.090353e+02  -8.450352e+02
   5.216293e+02  -1.790112e+02
  -9.413261e+01   4.531559e+00
  -1.475170e+02  -1.887827e+02
   1.286261e+01  -1.926394e+02
   3.053097e+02  -3.068721e+02
   3.938218e+02  -4.895502e+01
   3.026746e+02   2.921019e+02
   9.413129e+01   3.730604e+02
  -1.695129e+02   1.263114e+02
  -1.794939e+02  -2.808186e+02
   7.698015e+01  -4.070335e+02
   2.325939e+02  -1.013314e+01
   1.659856e+02   3.114422e+02
  -2.960779e+01   4.536703e+02
  -2.808235e+02   2.142648e+02
  -3.020975e+02  -9.981882e+01
  -1.343649e+02  -2.541804e+02
   3.266528e+01  -1.862639e+02
   1.502960e+01  -5.340109e+01
  -1.741989e+02  -1.472942e+02
  -2.363447e+02  -2.938358e+02
   1.258850e+02  -3.182209e+02
   4.276230e+02  -6.693577e+00
   4.810813e+02   2.213587e+02
   1.430995e+02   2.845146e+02
  -2.786636e+02   5.570322e+01
  -2.816725e+02  -2.293224e+02
  -5.446415e+01  -2.605236e+02
   2.598425e+02  -1.973567e+02
   3.383343e+02  -6.050831e+01
   2.020842e+02   1.010134e+02
   4.358806e+01   2.007277e+02
   1.566274e+01   7.214559e+01
   1.058269e+02  -1.365583e+02
   1.906284e+02  -5.325043e+01
   1.236630e+02   1.888987e+02
  -5.970176e+01   3.975865e+02
  -2.057023e+02   2.686281e+02
  -2.310144e+02  -5.663928e+01
  -4.211261e+01  -2.266296e+02
   9.965266e+01  -6.843609e+01
   3.258780e+01   2.445816e+02
  -8.294611e+01   2.649728e+02
  -3.504114e+02   3.763741e+01
  -3.285715e+02  -2.883591e+02
  -1.574219e+02  -4.349573e+02
   2.055667e+02  -1.756297e+02
   4.111616e+02   7.408148e+01
   1.473531e+02   1.603289e+02
  -1.547674e+01   1.461286e+02
  -1.796341e+02   7.232821e+01
  -1.432723e+02   5.875020e+01
  -3.070276e+01  -1.530664e-01
  -2.223739e+01   5.570532e+01
  -1.267732e+02   1.490529e+01
  -1.398277e+02  -9.511278e+01
  -8.138310e+01  -1.789419e+02
   9.167300e+01  -1.866607e+02
   2.864399e+02  -1.100190e+02
   2.012276e+02   3.891569e+01
   2.490206e+01   2.446165e+02
  -2.186437e+02   2.629877e+02
  -3.449085e+02   1.531034e+02
  -1.204154e+02  -1.467495e+02
  -1.101730e+01  -2.963731e+02
   5.297833e+01  -1.770969e+02
   8.070163e+00  -1.075319e+02
   1.244465e+01  -1.222786e+02
   7.714092e+01  -8.566862e+01
   1.801582e+02  -3.534605e+01
   2.217010e+02   1.188727e+02
   7.856382e+01   2.163937e+02
  -8.294015e+01   1.473696e+02
  -8.549688e+01  -1.859851e+01
  -8.916458e+01  -1.199733e+02
   2.066914e+01  -1.843214e+02
   1.748477e+02  -2.260524e+01
   2.649815e+02   1.324337e+02
   8.998125e+01   1.948808e+02
  -1.681449e+01   2.103420e+02
  -1.544094e+02   8.361389e+01
  -9.860080e+01   4.316199e+01
  -1.539874e+02   7.914558e+01
  -2.571512e+02  -2.906759e+00
  -3.010413e+02  -5.813123e+01
  -2.005149e+02  -1.951664e+02
  -4.422405e+00  -2.961094e+02
   3.653887e+02  -3.361980e+02
   3.606492e+02  -1.204776e+02
   1.904081e+02   7.245058e+01
  -5.896560e+01   2.241075e+02
  -5.139253e+01   1.574101e+02
  -1.268024e+01  -1.353454e+01
   9.725389e+01  -2.851587e+01
   1.030039e+02   4.258852e+01
   2.325205e+00   1.333831e+02
  -7.811974e+01   6.768074e+01
  -7.399917e+01  -9.078786e+01
  -2.021249e+01  -1.075166e+02
   9.771096e+01   1.174227e+01
   1.150894e+02   1.671912e+02
   2.172374e+01   2.599576e+02
  -1.756776e+02   1.629235e+02
  -2.885776e+02   1.342930e+01
  -2.906478e+02  -2.071490e+02
  -6.433498e+01  -2.495660e+02
   1.211017e+02  -1.169584e+02
   1.261292e+02   8.491684e+00
   6.736516e+00  -1.249214e+01
  -6.490219e+01  -5.656619e+01
  -4.188089e+00  -9.004943e+01
   1.263655e+02  -3.338053e+01
   1.124523e+02   2.501891e+01
   6.636856e+01   4.752602e+01
  -1.016347e+02   2.143504e+01
  -3.528650e+01  -5.018261e+01
   1.240399e+02  -9.756232e+01
   2.758367e+02  -5.868506e+01
   2.255522e+02   1.560125e+02
  -2.677056e+00   2.428971e+02
  -1.818311e+02   2.209201e+02
  -2.587022e+02   1.117253e+02
  -1.460617e+02  -4.398946e+01
   5.955237e+01  -1.014886e+02
   6.985381e+01  -2.041239e+01
  -2.069011e+00   9.335381e+01
  -1.901317e+02   6.704244e+01
  -1.102074e+02  -6.498521e+01
  -5.372276e+01  -1.656036e+02
   5.873231e+01  -9.758162e+01
   9.069047e+01  -1.584002e+01
   3.444153e+01   5.007709e+01
  -8.780124e+01  -1.736800e+01
  -4.451001e+01  -8.365571e+01
   9.131702e+01  -1.317625e+02
   1.950394e+02  -1.868442e+01
   1.626891e+02   4.887343e+01
   2.048591e+01   1.588393e+02
  -1.291095e+02   8.032224e+01
  -1.546902e+02   3.274756e+00
  -1.545543e+01  -2.349044e+01
   4.879498e+01  -9.258018e+01
   4.456590e+01   1.010653e+01
   1.636537e+01   3.902301e+01
  -3.002180e+01  -2.829481e+01
  -2.224607e+01   2.057422e+01
   6.478609e+01  -3.167241e+00
   1.037723e+02   7.279883e+01
   7.382573e+00   1.389237e+02
  -1.272453e+02   1.146910e+02
  -1.915133e+02  -7.983796e+00
  -1.362652e+02  -1.125744e+02
  -5.457152e+01  -1.564996e+02
   1.200499e+02  -1.080176e+02
   6.966833e+01  -1.221737e+01
   2.607207e+01   1.133598e+01
   3.276800e+01   4.652113e+01
   8.897046e+01  -1.865835e+01
   7.871890e+01  -1.963353e+01
   5.889519e+01   5.215924e+01
  -6.173737e+01   6.630622e+01
  -1.235292e+02   6.970273e+01
  -8.513567e+01  -4.728081e+01
   3.850467e+00  -1.163133e+02
   1.390513e+02  -6.968994e+01
   1.721141e+02   4.718104e+01
   8.731543e+01   1.818391e+02
  -1.405418e+02   1.473147e+02
  -1.972308e+02   1.620070e+00
  -2.062636e+02  -8.556037e+01
  -4.980026e+01  -1.340215e+02
  -2.181722e+01  -8.671491e+01
   8.904389e+01  -3.581562e+01
   2.532092e+01  -6.772346e+01
   7.541654e+01  -9.532134e+01
   5.777956e+01  -7.455590e+01
   1.204322e+02  -2.995697e+01
   1.073156e+02   9.032881e+01
   3.498037e+01   2.119738e+02
  -1.259950e+02   1.182810e+02
  -1.551984e+02  -1.627941e+01
  -8.600339e+01  -1.206893e+02
   1.404515e+01  -1.051166e+02
   5.122856e+01  -5.684106e+01
   2.553213e+01  -1.004331e+00
  -3.665916e+01   4.941749e+01
  -4.461522e+01   4.172991e+01
   2.782747e+01  -2.363455e+01
   9.810803e+01   5.337216e-01
   1.393618e+01   2.611783e+01
  -4.363747e+01   6.078708e+01
  -2.110628e+02  -2.576103e+01
  -1.315196e+02  -6.188986e+01
   7.907338e+00  -7.630211e+01
   8.160098e+01  -4.216727e+01
   1.387110e+02   4.492087e+01
   5.629238e+01   1.017626e+01
  -6.343217e+01   2.792482e+01
  -3.158578e+01  -1.845316e+01
  -2.651178e+01  -2.242488e+01
   3.997974e+01  -6.258465e+01
   4.947865e+01  -4.590977e+00
   4.653132e+01   3.789511e+01
   8.687642e+01   9.244270e+01
   3.390122e+01   1.437986e+01
   4.311827e+01  -7.348837e+00
   4.342368e+01   2.781199e+01
   2.135462e+01   9.143726e+01
  -9.728965e+01   1.412542e+02
  -1.785017e+02   1.881041e+01
  -1.459323e+02  -9.584504e+01
  -8.786439e-01  -7.854562e+01
   2.321418e+01  -7.794975e+01
   4.590712e+01   1.066569e+01
  -3.468762e+01  -2.387897e+00
  -1.196710e+02  -6.614911e+00
  -4.634047e+01  -5.837486e+01
   4.669298e+01  -7.407933e+01
   1.636894e+02  -3.060694e+01
   1.006090e+02   8.321242e+00
   4.237426e+01   4.034354e+01
  -3.133936e+01   5.040047e+01
  -4.191143e+01   5.848594e+01
  -1.201863e+01  -2.660781e+01
   8.196054e+01  -2.099547e+01
   4.745274e+01   5.803361e+01
  -6.476278e+01   1.222121e+02
  -1.580971e+02   5.249463e+01
  -1.165821e+02  -4.379477e+01
   2.546748e+00  -1.468333e+02
   3.419127e+01  -1.307859e+02
   6.912079e+01   1.205137e+01
   5.070795e+01   7.843479e+01
  -4.604459e+00   7.885584e+01
  -2.795770e+01   5.008531e+01
  -1.919130e+01  -4.863602e+01
  -5.668446e+01  -1.817832e+01
   3.346688e+01   3.548212e+01
  -2.545665e+01  -1.940103e+01
  -3.591687e+01  -5.403336e+01
  -4.023857e+01  -7.312038e+01
   1.640736e+01  -8.650758e+00
   8.930475e+01   2.331783e+01
   3.288223e+01   5.017849e+01
   4.385410e+01   3.504586e+01
  -6.370629e+01   6.922629e+00
  -6.304329e+01   2.830674e+00
   3.014285e+01  -1.558611e+01
   3.560304e+01  -1.191306e+01
   2.895222e+01   1.600910e+01
  -4.209580e+01   2.468302e+01
   2.135492e+01  -2.247250e+00
   6.690155e+01   8.706841e+00
   5.921753e+01   5.938375e+00
   4.198269e+01   3.083156e+01
  -8.970982e+01   1.196084e+02
  -1.787780e+02   6.707044e+01
  -7.524386e+01  -5.188242e+01
  -3.068566e+01  -1.207497e+02
   6.255121e+01  -8.060960e+01
   7.151547e+01  -6.374745e+01
   6.945077e+01   2.619804e+01
   1.635533e+01  -3.552510e+00
   2.066669e+01  -2.043220e+00
   8.691649e+00  -8.067051e+00
   5.291203e+01   5.777339e+01
  -2.364996e+00   6.664396e+01
  -9.425565e+00   2.883125e+01
  -3.545862e+01  -3.451277e+01
  -8.758504e+01  -6.703825e+01
  -2.875172e+01  -7.372196e+01
   4.743514e+01  -1.559594e+01
   6.315571e+01   5.331701e+01
   3.107781e+01   7.756283e+01
  -4.523468e+01   2.707836e+01
  -4.976048e+01  -1.048587e+01
  -4.785189e+01  -1.560154e+01
   7.740904e+01  -6.676933e+01
  -2.218880e+01   8.118681e+00
  -3.101900e+01   1.673379e+01
  -7.119743e+01   1.696646e+01
  -1.700124e+01   2.665429e+01
   4.304860e+01  -7.200626e+01
   8.557720e+01  -3.615751e-01
   8.880135e+01   3.294885e+01
   4.289142e+00   5.631033e+01
  -3.614900e+01   1.025620e+02
  -4.525984e+01   2.978552e+01
  -4.853121e+01  -1.477077e+01
   1.447383e+01  -1.933945e+01
  -7.972738e-01   4.736028e+01
   1.833503e+01   3.329111e+01
   2.205740e+01   5.140327e+01
  -1.895157e+01  -4.677458e+00
  -9.789243e+01  -1.079642e+01
  -1.997126e+01  -1.437073e+01
  -8.497456e+00   2.487841e+01
   2.395108e+01   3.487459e+00
   5.062999e+01  -2.560916e+01
  -2.181617e+01  -4.416877e+01
   3.036492e+00  -6.829493e+00
   1.777457e+01   4.536205e+01
   8.217761e-01   8.528430e+01
  -4.620743e+01   2.501581e+01
  -9.883215e+00  -2.558749e+01
  -1.373276e+01  -1.122363e+01
   4.393503e+01  -2.550641e+01
   8.657837e+01  -1.698426e+01
   3.140180e+01  -1.742789e+01
   8.597080e+00   4.581996e+01
  -6.127673e+01   1.210528e+01
   6.835098e+00  -8.070087e+00
   2.424265e+01   3.849848e+01
   2.318324e+01   8.817926e+00
   9.940854e+00   6.961652e+01
  -5.026377e+01   3.490528e+01
