
 $NMID
 id='ANONYMOUS ', fmtdat='(2E16.6)'
 volume=1.0
 tramp=1.0
 $END
   2.722805e+03  -2.489413e+02
   1.798478e+03   1.126345e+03
   2.121388e+02   1.529652e+03
  -7.311413e+02   8.877824e+02
  -5.006080e+02   3.112092e+02
  -1.587301e+02  -2.582521e+01
   1.028479e+02   7.847433e+01
   6.032475e+01   2.280257e+02
  -2.712715e+02   3.203838e+02
  -3.810066e+02   1.009925e+02
  -3.953118e+02  -2.178811e+02
  -1.207617e+02  -4.363750e+02
   8.777483e+01  -2.005544e+02
   2.285376e+02   2.226923e+02
  -2.133154e+01   4.235870e+02
  -2.176221e+02   1.029496e+02
  -2.667826e+02  -3.126743e+02
   4.830839e+01  -4.649353e+02
   3.241029e+02  -2.835673e+02
   3.795922e+02   5.091009e+01
   1.309180e+02   2.537996e+02
  -8.376364e+01   2.050878e+02
   2.811060e+01   4.794740e+01
   1.326440e+02   1.557377e+02
   2.224862e+02   2.959639e+02
  -8.759764e+01   2.130110e+02
  -3.673027e+02   1.013871e+02
  -5.160910e+02  -1.756948e+02
  -6.264008e+01  -2.352748e+02
   2.251510e+02  -1.462878e+02
   2.972513e+02   1.221529e+02
   1.759590e+02   2.700157e+02
  -2.493865e+02   2.454138e+02
  -3.163402e+02   5.627713e+01
  -2.164954e+02  -9.485271e+01
  -6.290843e+01  -1.972512e+02
   9.591925e+00  -9.443623e+01
  -1.039610e+02   8.303220e+01
  -1.382874e+02   1.239821e+02
  -1.299772e+02  -1.705963e+02
   7.111839e+01  -3.787397e+02
   2.049650e+02  -2.473196e+02
   1.922136e+02   8.499372e+00
   3.462023e+01   1.606438e+02
  -8.562418e+01   8.175053e+01
  -6.860186e+01  -1.820906e+02
   4.347569e+01  -3.004362e+02
   3.053354e+02  -8.744787e+01
   3.445683e+02   2.257138e+02
   1.116380e+02   4.276661e+02
  -1.514042e+02   1.432308e+02
  -2.991558e+02  -5.873424e+01
  -1.993230e+02  -1.776602e+02
   3.506721e+01  -1.229990e+02
   1.897359e+02  -7.507277e+01
   2.155220e+02   1.769604e+01
   6.102458e+01  -1.096970e+01
   2.172169e+01  -6.555745e+01
   9.812563e+01  -2.543062e+01
   1.787899e+02   2.840698e+01
   7.717561e+01   1.273911e+02
  -8.016151e+01   1.765335e+02
  -2.480968e+02   1.524869e+02
  -2.028862e+02  -4.992698e+01
   1.384589e+01  -2.431036e+02
   2.236602e+02  -2.963478e+02
   3.424418e+02  -1.095821e+02
   1.476419e+02   9.456340e+01
   3.692897e+01   2.970673e+02
  -1.983762e+01   1.912386e+02
   3.594052e+01   1.220085e+02
  -4.951946e+01   9.843777e+01
  -1.241581e+02   8.030754e+01
  -2.196543e+02   4.782647e+01
  -1.450848e+02  -1.311482e+02
  -5.932054e+01  -1.853411e+02
   5.290958e+01  -1.515148e+02
   1.363822e+02   2.654498e+01
   9.470456e+01   1.710631e+02
  -3.781763e+01   1.980927e+02
  -1.674792e+02   3.108945e+01
  -2.233726e+02  -1.360675e+02
  -1.154302e+02  -1.991978e+02
   3.519106e+01  -1.924297e+02
   8.328428e+01  -9.573658e+01
   8.295938e+01  -2.267296e+01
   1.151767e+02  -6.108719e+01
   2.582309e+02  -4.322476e+01
   3.057943e+02   1.119010e+02
   2.416930e+02   2.320216e+02
   1.731730e+01   2.785356e+02
  -2.572520e+02   3.311017e+02
  -3.518347e+02   1.083250e+02
  -2.353908e+02  -7.784731e+01
   1.364068e+01  -2.076331e+02
   8.751585e+01  -1.721938e+02
   3.594201e+01  -5.096348e+01
  -7.264594e+01   3.889541e+01
  -9.155196e+01   2.924882e+01
  -5.438622e-01  -3.961593e+01
   6.924461e+01  -1.197578e+02
   6.014270e+01   5.442075e+01
  -9.324405e+00   4.808354e+01
  -1.068127e+02  -1.753698e+01
  -9.794828e+01  -8.383831e+01
  -3.967504e+01  -2.442572e+02
   2.023383e+02  -1.948904e+02
   2.960893e+02  -1.827436e+01
   2.781272e+02   2.444270e+02
   6.945238e+01   2.354077e+02
  -6.398092e+01   1.235989e+02
  -1.030227e+02   1.414129e+01
  -8.295479e+00  -3.892077e+01
  -1.800852e+01   6.374186e+01
   4.654298e+00   4.902165e+01
  -1.059265e+02   8.265674e+01
  -1.200727e+02   2.937986e+01
  -3.629676e+01  -6.839622e+01
   3.604360e+01   2.214590e+01
   5.436955e+01   5.386714e+01
  -8.965798e+01   6.611097e+01
  -2.729130e+02   2.159251e+01
  -1.834370e+02  -1.143909e+02
  -2.535159e+01  -1.901742e+02
   1.928838e+02  -1.820300e+02
   2.126250e+02  -3.264135e+01
   7.721815e+01   3.606142e+01
  -2.284406e+01   9.543311e+01
  -5.529006e+01  -5.361581e+01
   3.962731e+01  -6.508187e+01
   1.312532e+02  -5.431370e+01
   1.412828e+02   5.206326e+01
   2.863940e+01   1.491680e+02
  -1.078302e+02   1.203455e+02
  -4.968111e+01   2.589242e+01
  -6.646602e+01  -4.769315e+01
   1.865315e+01   5.097575e+01
   2.182291e+01   1.924020e+01
  -9.546935e+01   9.795658e+01
  -1.443663e+02  -2.133633e+01
  -1.265225e+02  -9.489665e+01
  -2.907990e+01  -1.911295e+02
   9.032357e+01  -1.145543e+02
   1.291193e+02   3.280175e+01
   5.964541e+01   8.089884e+01
  -3.036154e+01   9.171309e+01
  -5.732774e+01   2.434285e+01
   2.712485e+00  -4.846836e+01
   3.503229e+01  -5.872086e+01
  -1.258853e+00   3.302363e+01
  -6.660064e+01   2.668032e+01
  -9.848197e+01  -8.065518e+01
   2.429753e+01  -1.582313e+02
   1.436733e+02  -1.138713e+02
   1.615593e+02   2.926117e+01
   1.306519e+02   8.949045e+01
  -1.276915e+01   1.275010e+02
  -8.316053e+01   1.018501e+02
  -5.877600e+01   2.010374e+01
  -5.079251e+01  -6.672925e+01
  -4.659462e+01  -1.541177e+01
  -7.676318e+01   4.500419e+01
  -6.538072e+01   2.155443e+00
  -2.174995e+01  -6.909815e+01
   2.701625e+01  -8.708569e+01
   7.896448e+01  -5.411932e+01
   4.532106e+01   6.270074e+00
  -6.000797e+00   1.128364e+02
  -1.242869e+02   5.023919e+01
  -1.368402e+02  -2.206402e+01
  -5.228323e+01  -1.406452e+02
   4.374393e+01  -1.512055e+02
   1.742196e+02  -5.787712e+01
   1.896182e+02   3.723987e+01
   6.250541e+01   1.227931e+02
  -6.043399e+00   1.534666e+02
  -4.168234e+01   5.797991e+01
  -5.980546e+01   5.835766e+01
  -1.253489e+01   6.227139e+01
  -4.190918e+01   8.346814e+01
  -9.506341e+01  -9.783014e+00
  -1.131585e+02  -5.586756e+01
   2.429886e+00  -2.077064e+02
   1.912147e+01  -1.235992e+02
   1.082434e+02  -1.240064e+01
   8.914800e+01   9.628186e+01
   6.845042e+00   1.159784e+02
  -2.910230e+01   7.093031e+01
  -3.463086e+01  -1.441155e+01
   1.112207e+01  -3.156197e+01
   2.687903e+01  -3.264095e+01
  -2.255575e+01   2.060845e+01
  -7.637170e+01  -3.038137e+01
  -3.487255e+01  -6.052089e+01
   4.196494e+01  -1.243775e+01
   1.663230e+02  -5.165722e+00
   1.462501e+02   4.136038e+01
  -2.247494e+01   1.041452e+02
  -1.098673e+02   7.331157e+01
  -7.279117e+01   2.629663e+01
  -6.421137e+01  -3.663146e+01
   3.603521e+01  -7.049716e+00
   4.706456e+01  -2.240842e+01
   1.096781e+01   6.331249e+01
  -3.688059e+01   6.588147e+01
  -4.449662e+01   1.060387e+01
  -7.857166e+01  -5.029058e+01
  -6.718809e+01  -2.645596e+00
  -1.066756e+02  -1.069378e+01
  -5.771025e+01  -1.148912e+01
  -3.079342e+01  -3.226969e+01
   1.867651e+01  -1.472268e+02
   9.312735e+01  -1.140277e+02
   1.387119e+02  -7.403268e+01
   1.043242e+02   5.989394e+01
  -1.819369e+00   6.804274e+01
  -7.494691e+01   6.092031e+01
  -9.305202e+00   1.604852e+01
   7.714467e+01  -1.619629e+01
   9.682689e+01   4.046375e+01
   4.712347e+01   9.350817e+01
  -7.312776e+01   7.599958e+01
  -1.130886e+02   1.986909e+01
  -1.523820e+02   4.491010e+01
  -2.167633e+01  -5.632221e+01
   8.849090e+01  -4.677944e+01
   5.513794e+01   2.848453e+00
  -7.095745e+01   5.376870e+01
  -3.695433e+01   2.519424e+01
  -7.709166e+01  -1.208880e+02
   5.355719e+01  -1.569232e+02
   1.291463e+02  -4.491028e+01
   1.317572e+02   7.028827e+01
   2.900285e+01   1.382803e+02
  -6.532025e+01   8.133288e+01
  -1.018848e+02  -9.161874e+00
  -7.638455e+00  -1.130325e+02
   2.392091e+01  -9.688992e+01
   4.001997e+01  -1.983075e+01
   3.936977e+01  -3.126503e+01
   4.024247e+01   3.909137e+00
   1.884359e+01   1.486933e+01
  -4.050582e+00   2.410194e+01
   8.385101e+01   1.003606e+02
   3.415147e+01   6.955712e+01
  -1.546440e+01   1.418631e+01
  -9.766680e+01  -4.782174e+01
  -4.520044e+01  -5.907714e+01
  -2.166848e+01  -5.609241e+01
   6.481888e+01  -1.215314e+01
   7.524221e+01  -6.838287e+00
  -1.887880e+00  -1.707424e+01
   1.702220e+01   1.996371e+01
   2.309148e+01  -2.803640e+01
  -3.796510e-01  -3.940870e+01
  -8.145494e+00  -8.115789e+00
  -2.318769e+01  -9.306560e+00
  -5.105764e+01  -8.097170e+00
   1.108813e+01  -1.110827e+01
   7.178514e+01  -8.406334e+01
   1.570600e+02  -3.238155e+01
   1.271448e+02   4.732990e+01
   3.305137e+01   8.517665e+01
  -7.295194e+01   1.649691e+02
  -9.370477e+01   1.100780e+02
  -3.814256e+01   1.819568e+01
  -3.099623e+01   4.168963e+00
   3.097337e+01   1.101989e+01
   9.208152e+00  -4.461041e+01
  -6.016765e+01  -8.286876e+00
  -4.352272e+01  -3.446527e+01
  -1.673866e+01  -4.849940e+01
   5.490822e+01   1.132991e+01
   9.532782e+01   5.451213e+01
   5.152719e+01   9.690571e+01
  -1.913777e+01   5.226855e+01
  -3.208739e+01  -5.176937e+01
  -4.834940e+01  -8.377393e+01
   2.889886e+01  -7.321589e+01
   7.902635e+01   2.031281e+01
   5.041143e+01   3.285986e+01
  -4.025008e+01   4.375602e+01
  -2.906338e+01   1.254702e+01
   2.765677e+01   9.453061e+00
   7.802626e+01  -5.233315e+01
   5.444984e+01   2.109743e+01
  -3.320574e+01   4.178429e+01
  -1.102003e+02   4.820430e+01
  -4.458085e+01  -1.333020e+01
   2.579448e+01  -6.489921e+01
   7.678237e+01  -6.571645e+01
   6.367884e+01  -2.773463e+01
   1.925648e+01   3.521997e+01
  -2.370292e+01   6.187010e+01
  -3.095496e+01  -1.362648e+01
  -4.926635e+01  -5.794285e+01
  -2.370183e+01  -1.977236e+01
  -2.583345e+01  -3.391593e+00
   5.203885e+01   1.952793e+01
   2.840765e+01   6.285928e-01
   1.236087e+01   1.873580e+01
   2.679580e+01   2.633122e+01
  -1.977733e+01   4.528283e+01
   1.727349e+01   6.258593e+01
  -7.648032e+00   8.385089e+00
  -1.150582e+01  -1.073586e+01
  -3.101301e+01  -5.563648e+01
   2.427444e+01  -8.653892e+00
   4.357611e+01   5.215349e+00
   1.558289e+01  -2.348586e+01
  -2.371823e+01   3.313954e+01
  -7.196470e+01  -4.162901e+01
  -4.189515e+01  -4.674777e+01
  -2.432080e+01  -5.081287e+01
   5.241247e+01  -3.295828e+01
   1.362027e+01  -4.655758e+01
  -2.134447e+01  -1.654105e+01
   6.516452e+00   1.046802e+01
   2.169207e+01   4.703168e+00
   6.930788e+01  -3.882582e+01
