
 $NMID
 id='ANONYMOUS ', fmtdat='(2E16.6)'
 volume=1.0
 tramp=1.0
 $END
   1.915450e+03   2.065559e+01
   1.168991e+03   1.186340e+03
  -2.639299e+02   1.311829e+03
  -8.905741e+02   2.242063e+02
  -4.558819e+02  -1.568283e+02
   7.833806e+01  -1.511887e+02
   3.243140e+02   1.107686e+02
  -5.342498e+01   3.839215e+02
  -2.787095e+02   2.129086e+02
  -3.919006e+02   3.577505e+01
  -2.237904e+02  -3.460979e+02
  -9.746930e+00  -3.965238e+02
   1.959275e+02  -1.303243e+02
   1.537206e+02   3.016802e+02
  -1.238464e+02   2.948961e+02
  -2.195285e+02   2.127424e+01
  -1.343709e+02  -2.911268e+02
   1.291351e+02  -2.973397e+02
   2.173715e+02  -8.703559e+01
   1.977965e+02   1.351538e+02
   6.950774e+01   1.769577e+02
  -8.085621e+01   1.732392e+02
  -4.710851e+01   9.009092e+01
   4.325628e+01   3.623654e+01
   1.429432e+02   1.034990e+02
  -1.278195e+01   2.014143e+02
  -2.735016e+02   9.102458e+01
  -3.291665e+02  -1.088155e+02
  -1.239077e+02  -2.426057e+02
   1.421137e+02  -1.556286e+02
   1.981205e+02   3.799948e+01
   9.121825e+01   1.619197e+02
  -1.197254e+02   1.479137e+02
  -2.050479e+02   1.011554e+02
  -1.458157e+02  -4.576525e+01
  -6.494007e+01  -1.463130e+02
   4.035014e+01  -9.515386e+01
   4.796538e+01  -3.435031e+00
  -5.985760e+01   1.195509e+02
  -1.305714e+02  -1.064729e+02
  -3.307243e+01  -2.957871e+02
   1.645708e+02  -2.599811e+02
   2.456915e+02   2.813290e+01
   7.498381e+01   1.807386e+02
  -1.062768e+02   6.374363e+01
  -8.987203e+01  -1.759972e+02
   6.731855e+01  -1.862925e+02
   1.945205e+02   2.828737e+01
   1.882116e+02   2.425481e+02
   2.941044e+01   2.746355e+02
  -2.194780e+02   1.315643e+02
  -2.222341e+02  -1.207489e+02
  -1.376763e+02  -2.036084e+02
   3.667932e+01  -1.046104e+02
   1.997880e+02  -2.406808e+01
   1.289244e+02   2.199445e+01
  -3.730675e+01   1.408107e+01
  -3.234617e+01  -3.239067e+01
   7.895594e+01  -2.338342e+01
   5.825815e+01   5.683750e+01
  -1.101897e+01   8.296033e+01
  -2.411019e+01   8.029433e+01
  -1.503021e+02   5.358408e+01
  -9.714307e+01  -6.576086e+01
  -1.101130e+01  -9.588499e+01
   1.081679e+02  -1.240129e+02
   1.797160e+02  -6.967636e+01
   1.149265e+02   6.037412e+01
   6.739887e+01   1.203425e+02
  -4.167267e+01   1.429628e+02
  -7.135299e+01   1.056411e+02
  -8.720222e+00   2.305826e+01
  -3.004251e+01  -4.730856e+00
  -6.416253e+01   4.011976e+01
  -9.150537e+01  -3.396817e+00
  -7.153087e+01  -8.224616e+01
   1.755073e+01  -9.566404e+01
   6.419396e+01  -3.316408e+01
   5.595630e+01   1.456114e+02
  -5.224825e+01   1.089212e+02
  -1.483896e+02  -2.268329e+00
  -1.505699e+02  -9.323331e+01
  -4.686724e+01  -2.045800e+02
   2.486829e+01  -1.680658e+02
   9.901562e+01  -7.986726e+01
   7.424638e+01  -6.496787e+01
   9.927856e+01  -4.013881e+01
   1.123223e+02  -2.955639e+01
   1.686702e+02   5.709552e+01
   6.946166e+01   1.345555e+02
  -4.885108e+01   1.787879e+02
  -2.143193e+02   1.205882e+02
  -2.018670e+02   9.069610e+01
  -1.963881e+02  -1.905415e+01
  -2.375088e+01  -1.383779e+02
   8.022177e+01  -9.019510e+01
   4.085705e+01  -7.106800e+01
  -1.659568e+01   6.246861e+00
  -5.054567e+01  -2.167464e+01
   2.490224e+00  -1.103812e+02
   6.549095e+01  -1.078325e+02
   7.581011e+01   2.555661e+01
  -4.087207e+01   7.654977e+01
  -1.002706e+02   2.594216e+01
  -9.017984e+01  -1.338463e+02
   1.826086e+01  -1.413476e+02
   9.189708e+01  -5.712035e+01
   1.979436e+02   4.908685e+01
   1.139015e+02   1.459704e+02
   3.889216e+01   1.194601e+02
  -6.956377e+01   5.330811e+01
  -8.176390e+01  -2.896974e+00
  -5.593630e+01  -3.861473e+00
  -1.922761e+01   9.097506e+01
  -6.927875e-02   8.582273e+01
  -4.930826e+01   4.211500e+01
  -9.522183e+01  -6.155083e+00
  -5.856504e+01  -5.156781e+01
  -1.694834e+01   3.829131e-01
   3.769200e+00   1.048145e+01
  -7.330321e+01   3.903034e+01
  -1.659432e+02   2.768237e+00
  -8.936749e+01  -5.399312e+01
  -1.435738e+01  -1.403305e+02
   1.179092e+02  -9.806733e+01
   8.525158e+01  -2.057546e+01
   7.058045e+01   6.849588e+01
  -1.895098e+01   4.322303e+01
  -3.951971e+01   3.974781e+01
   6.285436e+01  -3.466280e+01
   7.232284e+01  -4.266513e+01
   8.689841e+01   5.181653e+01
   1.596588e+01   1.107823e+02
  -6.989259e+01   3.339480e+01
  -4.426764e+01   4.305032e+01
  -5.743483e+01  -1.918151e+01
  -2.625758e+01   2.505853e+01
  -3.203136e+01   5.274043e+01
  -8.907876e+01   8.683603e+00
  -6.381713e+01  -1.780208e+01
  -5.388146e+01  -8.006344e+01
   3.290745e+01  -1.066742e+02
   8.796252e+01  -4.490990e+01
   1.031834e+02  -7.430838e+00
   1.900797e+01   1.682386e+01
  -2.493105e+01   2.029433e+01
  -2.675336e+01   1.722200e+01
   2.836783e+01  -3.113126e+01
   1.196193e+01   2.424813e+00
  -2.595598e+01   1.911661e+01
  -5.433097e+01  -2.352303e+01
  -2.301389e+01  -5.482956e+01
   2.303522e+01  -8.925885e+01
   8.843471e+01  -4.556901e+01
   1.083922e+02   4.379193e+01
   1.095605e+02   8.897974e+01
  -3.818522e+01   1.172116e+02
  -4.463124e+01   2.678857e+01
  -5.222667e+01  -2.552242e+01
   2.457941e-01  -3.028271e+01
   2.736431e+01   3.902318e+01
  -3.194306e+01   6.889370e+00
  -6.191869e+01  -2.236803e+00
  -1.127938e+01  -2.424941e+01
   9.837756e+00  -3.141382e+01
   4.635346e+01  -4.579024e+01
   2.811083e+01   4.922557e+01
   4.197887e+00   6.065883e+01
  -6.282832e+01   6.617092e+00
  -7.913075e+01  -2.388652e+01
  -7.976819e+01  -8.130009e+01
   7.609313e+01  -6.807011e+01
   1.410634e+02  -2.910031e+01
   9.256127e+01   9.143828e+01
   5.022413e+00   9.357850e+01
   7.132217e+00   6.824870e+01
  -3.997445e+01   7.084297e+01
  -3.203718e+01   5.298371e+01
  -2.248331e+01   1.553215e+01
  -5.837902e+01   5.349748e+01
  -8.055050e+01   3.726285e-01
  -4.662853e+01  -1.002821e+02
   2.282253e+01  -1.240247e+02
   1.781085e+01  -8.676831e+01
   6.057352e+01   3.880972e+00
   2.020542e+01   4.307097e+01
  -2.147714e+01   5.853817e+01
  -2.595415e+01   1.743137e+01
  -4.185146e+01   3.179509e+01
   2.194416e+01  -1.079277e+00
   3.498455e+01  -3.104035e+01
  -9.205238e+00  -2.357398e+01
  -1.779197e+01   3.006297e+00
  -2.093779e+01  -4.260581e+01
   3.087020e+01  -1.118318e+01
   6.652083e+01   4.031639e+01
   6.609538e+01   3.587561e+00
  -2.655242e+01   6.730780e+01
  -7.026272e+01   9.841657e+00
  -6.423334e+01   3.746056e+01
  -4.964198e+01  -1.623505e+01
  -2.457058e+00  -3.438678e+01
   1.641244e+01  -1.778216e+01
   3.011115e+01   6.075032e+01
  -1.883483e+01   1.058770e+01
  -2.899766e+01   5.197380e+01
  -3.157360e+01  -3.377941e+01
  -4.696370e+00  -4.999973e+01
   5.291899e+00   1.625239e+01
  -1.162540e+01   3.416365e+01
   2.740865e+01  -6.992205e+00
   1.652101e+01  -4.788005e+01
   6.448200e+01  -7.713425e+01
   7.273926e+01   5.750217e-03
   5.428925e+01   9.682853e+01
  -2.523666e+01   4.516308e+01
  -5.005569e+01  -1.297154e+01
   3.446419e+01   2.736038e+01
   4.248029e+01   4.276772e+01
   5.927149e+01   4.623064e+01
   3.255891e+01   5.926873e+01
  -2.530304e+01   9.399152e+01
  -7.089513e+01   5.029933e+01
  -4.407855e+01  -4.055936e+01
  -8.592416e+00  -2.283338e+01
   5.205059e+01   2.279858e+00
   3.544827e+01  -1.066006e+01
  -3.549633e+01   4.885388e+01
  -1.709740e+01  -4.245967e+01
  -5.727181e+00  -9.164102e+01
   3.036556e+01  -9.313032e+01
   9.059099e+01  -2.446014e+01
   4.773041e+01   3.144129e+01
   5.968622e+01   8.346173e+01
  -1.519176e+01   5.059889e+01
  -4.166009e+01   1.781515e+00
   9.399485e+00  -4.096939e+01
  -3.042698e+01  -5.383860e+01
   3.610219e+01  -1.448233e+00
   5.891281e+01   1.560723e+01
   2.132621e+01  -4.205841e+00
  -1.007647e+01  -7.562734e+01
  -2.775250e+01   5.025317e+01
   5.603452e+01   7.418040e+01
  -2.591926e+00   5.776135e+01
  -5.385402e+00   2.129765e+01
  -7.397815e+01  -4.249719e+01
  -6.528313e+01  -3.032607e+01
   3.260693e+00  -4.932963e+01
   3.531738e+01  -2.593216e+01
   1.228776e+01  -2.638564e+01
   1.416453e+01  -1.007490e+01
  -1.532776e+01   2.387049e+01
  -3.095389e+01  -2.394806e+01
   5.144582e+01   1.294531e+01
  -8.715991e+00  -1.187035e+01
  -1.826733e+01   2.922461e+01
  -2.777014e+01  -1.188891e+01
  -7.045352e+00  -7.984132e+01
   3.679400e+01  -3.605046e+01
   8.320059e+01  -1.617811e+01
   9.708814e+01   9.839927e+00
  -5.461133e+00   5.882498e+01
  -1.211087e+01   9.564869e+01
  -3.617031e+01   5.175554e+01
  -1.571571e+01   1.100145e+01
   1.361450e+01  -7.485676e+01
   2.259623e+01  -1.495214e-01
  -2.055838e+01   1.962214e+01
   1.220579e+01  -3.916688e+01
   1.150493e+01   2.271192e+01
   2.109193e+01  -5.764642e+01
  -2.107419e+01   2.813691e+01
   2.411577e+01   4.261654e+01
   2.239818e+00   4.479967e+01
  -5.117609e+01  -2.856186e+00
  -4.226973e+01   8.846832e+00
  -1.716957e+01  -5.145607e+00
   3.887935e+01  -9.360147e+00
   3.840031e+01  -2.615064e+01
   5.537449e+00   2.513404e+01
   3.931698e+00   3.159995e+01
  -8.788663e+00   5.234499e+01
   3.094898e+00  -1.296928e+01
   4.027780e+01   1.948168e+00
  -3.442450e+01   3.103400e+00
  -2.576526e+01   3.579892e+01
  -2.225478e+01   4.944132e+01
  -1.735753e+01  -1.804892e+01
   2.201390e+01  -7.938349e+00
   2.546155e+01  -8.381322e+01
   3.152895e+01  -9.947919e+00
   2.380647e+01   7.040967e+00
  -9.302939e+00   4.961764e+01
  -5.706425e+00   2.728428e+01
  -2.592496e+01  -3.771261e+01
  -2.244988e+01  -8.823234e+00
   1.405586e+01   1.280626e+01
   4.515328e+01  -2.299378e+01
   2.538968e+01  -1.471535e+01
  -3.664179e+01   1.712739e+01
  -1.554271e+01  -1.131207e+01
  -4.638952e+01   1.005575e+01
  -4.316215e+01   3.234244e+01
   9.424579e+00   2.236133e+01
  -1.235467e+01  -1.427249e+01
   3.384355e+01  -4.513746e+01
   1.523214e+01   1.449414e+01
  -1.484291e+00   2.696593e+01
   4.461682e-01   4.228244e+01
  -3.298037e+01  -1.876042e+00
  -1.020027e+01   1.019760e+01
  -2.067866e+01  -3.511559e+01
  -4.523374e-03  -2.626604e+01
   5.054937e+01   3.365186e+01
   2.227918e+01   2.090579e+01
   4.778558e+00   4.568057e+01
  -1.471516e+01  -5.307991e+01
  -7.446493e+00  -4.396002e+01
   5.650004e+01  -5.064470e+01
