
 $NMID
 id='ANONYMOUS ', fmtdat='(2E16.6)'
 volume=1.0
 tramp=1.0
 $END
   9.380592e+02  -2.916953e+02
   6.383073e+02   1.808326e+02
   2.446618e+02   5.649489e+02
  -1.995154e+02   4.584003e+02
  -3.767048e+02   3.819563e+02
  -1.561410e+02  -1.194107e+00
   2.596257e+01  -9.787983e+01
   1.633794e+02  -2.160851e+01
   4.989869e+00   6.660502e+00
  -1.530831e+02   4.380608e+01
  -2.030777e+02  -5.269142e+01
  -3.468365e+01  -1.057390e+02
   3.468666e+00  -1.034835e+02
   1.146712e+02   9.485075e+00
   6.535769e+01   9.890031e+01
  -3.176887e+01   8.349737e+01
  -7.034986e+01  -7.902913e+01
  -1.733623e+01  -1.980848e+02
   1.021396e+02  -1.151768e+02
   1.318826e+02  -4.320047e+01
   5.578093e+01   7.716504e+01
  -2.724506e+01   1.459319e+02
   1.948995e-01   7.722839e+01
   2.833508e+01   8.046851e+01
   8.598572e+01   6.525653e+01
  -5.339592e+00   5.690066e+01
  -1.360239e+02  -5.628066e+00
  -1.128234e+02  -2.324966e+01
  -9.569613e+01  -1.041307e+01
   6.651743e+00  -1.468593e+01
   5.586469e+01   1.123496e+01
   4.270390e+01   7.862619e+01
  -3.438129e+01   7.807788e+01
  -4.549715e+01   6.697166e+00
  -6.327912e+01   2.236714e+01
  -9.739199e+01  -2.715614e+01
  -3.465552e+01  -1.725512e+01
  -9.461676e+00  -4.290883e+01
  -1.012958e+01  -7.321770e+01
   1.425933e+01   2.979360e+01
   4.091582e+01  -1.394031e+02
   1.976285e+01  -1.284592e+02
   8.254072e+01  -4.388183e+01
   9.718246e+01  -1.595650e+01
   3.126426e+01   4.229615e+01
  -4.061396e+01  -1.904004e+01
   2.515970e+01  -6.705805e+01
   7.016207e+01   1.528664e+01
   1.171705e+02   9.244951e+01
   6.726096e+01   7.590808e+01
   6.773435e+00   8.231118e+01
  -1.164033e+02   2.841041e+00
  -6.965377e+01  -7.511869e+01
  -4.388935e+01  -8.839388e+00
   4.582172e+01  -7.477103e+01
   4.176975e+01   2.221464e+01
   6.252091e+01  -4.781660e-01
  -1.654486e+01   4.880570e+01
   2.766361e+01   6.099129e+01
   4.929699e+01   5.685747e+01
   4.230362e+01   1.141805e+01
   1.766166e+01   6.849971e+01
  -9.953631e+01   2.775772e+01
  -6.234553e+01  -4.024111e+01
   2.855581e+01  -6.581832e+01
   1.248173e+02  -1.136511e+02
   8.756341e+01  -5.912065e+01
   6.799556e+01   1.669747e+01
   3.250522e+01   1.077709e+02
   2.536811e+01   1.327178e+02
   1.502916e+01   1.391323e+02
  -7.184007e+00   6.980435e+01
  -9.728202e+01   2.035299e+00
  -8.249661e+01  -2.076619e+01
  -3.759388e+01  -1.739024e+01
  -9.148856e+00  -5.254075e+01
   2.703850e+01   1.395336e+01
   1.745572e+01   7.985763e+00
  -3.643016e+00   4.843329e+01
   5.563614e+00  -5.004605e+00
  -5.610797e+01   1.051489e+01
  -6.605420e+01   6.219836e+00
  -7.380995e+01  -4.520537e+01
  -4.443064e+01  -9.266445e+01
   2.814664e+01  -7.548096e+01
   2.197239e+01   2.469872e+01
   4.445069e+01  -4.593432e+01
   7.062363e+01  -3.641208e+01
   6.785500e+01   5.162755e+01
   1.084285e+02   7.525472e+01
  -1.048339e+01   1.308687e+02
  -1.344751e+02   9.293620e+01
  -1.023623e+02   6.902257e+01
  -7.240840e+01   1.741802e+01
  -4.894337e+00  -8.151000e+01
  -4.897904e+01  -1.415294e+01
  -2.991780e+01  -2.834047e+01
  -2.521997e+01  -2.467974e+01
   8.587450e+00  -2.248668e+01
   2.019752e+01  -9.467578e+00
   2.011650e+00  -2.570975e+01
  -2.797994e+01   2.796744e+01
   1.523935e+00   1.810523e+01
  -2.390138e+01  -9.086436e+00
  -2.320402e+01  -4.494682e+01
   1.318928e+01  -1.054570e+02
   6.845703e+01  -4.672936e+01
   8.265294e+01   8.857525e+00
   7.790397e+01   6.095077e+01
  -6.221741e+00   4.778183e+01
  -4.071681e+01   5.503527e+01
  -4.464936e+01   2.388524e+01
  -5.422553e+01   4.710364e+00
  -4.039071e+01  -7.850701e+00
  -3.706911e+01  -8.490031e+00
   1.506503e+01  -1.823553e+01
  -4.451744e+01  -8.939912e+00
   4.964302e+01   9.110519e+00
   1.198007e+01   1.737558e+01
  -2.016041e+01  -1.408427e+01
  -3.434532e+01  -3.918932e+01
  -9.556494e+01   2.386254e+00
  -3.216106e+01  -6.295548e+01
   5.046181e-01  -4.986102e+01
   8.076526e+01  -3.835673e+01
   4.476008e+01  -2.430922e+01
   4.672463e+00  -3.054282e+01
   2.861981e+01  -2.234817e+01
   1.514754e+01  -3.916770e+01
   4.597818e+01   8.013258e+00
   5.647460e+01  -6.010617e+00
   2.939481e+01   1.524921e+01
   4.161297e+01   4.733995e+01
  -4.676702e+00  -5.924108e-01
  -2.261844e+01   3.368466e-01
  -2.109136e+01  -2.182781e+01
   1.136439e+01   2.937027e+01
  -4.145156e+00   4.756731e+00
  -5.243378e+01  -1.589325e+01
  -5.525926e+01  -5.166342e+01
  -1.400574e+01  -2.604106e+01
  -2.240933e-01  -3.589074e+01
   3.322683e+01   2.193426e+00
   3.739008e+01  -1.008444e+01
   7.686285e+00   1.424764e+01
   5.767330e+00  -2.358508e+01
   2.389749e+01   6.015767e+01
   6.732992e+00   5.400991e+00
  -1.251593e+01  -5.977557e+01
  -6.847852e+01   3.507957e+01
  -1.215538e+01  -1.422628e+01
  -4.616736e+01  -1.054827e+01
   3.269305e+01  -7.720806e+01
   2.517615e+01  -8.615936e+00
   1.044352e+01   3.189651e+01
   7.840998e+01   1.237983e+01
   4.600117e+01   9.487437e+01
  -5.392318e+01   3.100858e+01
  -4.066064e+01   1.730270e+01
  -1.702627e+01  -1.162525e+01
  -1.946277e+01  -2.371062e+01
  -2.532795e+01   1.708182e+01
  -4.089944e+01   4.807561e-01
   3.938631e+00  -5.324473e+01
   1.569314e+01  -3.769910e+01
   3.125825e+01  -1.406745e+01
   8.374060e+00   2.103355e+01
  -1.102145e+01   5.558682e+01
  -2.196528e+01   3.970696e+01
  -8.532914e+01   1.459358e+01
  -2.567518e+01  -7.108539e+01
   5.594238e+01  -6.271545e+01
   7.397987e+01  -3.806103e+01
   7.156676e+01   3.610784e+00
   1.540493e+01   5.241909e+01
   2.274381e-01   4.200370e+01
  -1.686232e+01   2.201357e+01
  -3.931564e+00   2.726116e+01
  -2.372330e+01   1.218329e+01
   3.460030e+01  -1.430686e+01
  -6.265905e+00   3.540692e+01
  -4.766151e+00  -4.618989e+01
  -8.391245e+00  -9.305162e+01
   1.551312e+01  -5.536856e+01
   2.619477e+01   6.745520e+00
   4.296171e+01  -1.617680e+01
   3.192659e+00   2.673059e+01
  -2.184135e+01   2.692270e+01
  -2.221299e+01   1.247441e+01
  -1.071186e+01   1.291526e+01
   2.235350e+01   2.632413e+00
  -2.401685e+01  -3.697286e+01
   4.242421e+01   9.511751e+00
  -4.784254e+01  -3.264607e+01
  -1.156674e+01  -9.335100e+00
   2.600632e+01   2.583503e+01
   8.328998e+01  -2.564732e+00
  -3.183727e+01   4.682943e+01
  -1.073023e+01   1.695043e+01
  -4.559696e+01  -1.828567e+01
  -1.343569e+01   1.696780e+01
  -7.956571e+00  -1.490142e+01
   2.059324e+01   4.292802e+00
   2.438018e+01   3.219888e+00
   1.927181e+01  -7.412190e-04
  -3.768615e+01   1.030727e+01
  -3.080392e+01  -9.364664e+00
  -3.236608e+01  -1.136139e+01
  -5.782744e+01  -2.400817e+01
  -4.807049e+01  -1.699327e+00
  -3.610958e+01  -4.347370e+01
   6.609112e+01  -4.153834e+01
   2.889240e+01  -6.498512e+01
   3.897535e+01  -2.230821e+01
   2.931018e+01   2.325699e+01
   7.569016e+00   2.657572e+01
   1.455531e+01   5.547336e+01
  -2.931637e+01   1.186264e+01
   2.357318e+01   2.548273e+01
   3.564092e+01   3.571634e+01
   8.643185e+00  -4.611815e+00
  -6.463156e+01   2.517764e+01
  -8.086755e+01  -2.704739e+01
  -8.907573e+00  -3.273084e+01
  -1.428681e+01  -4.781137e+01
   1.435282e+01  -2.589550e+01
   1.068845e+01  -3.108368e+01
  -1.170403e+01  -1.077094e+01
   6.022898e+00   4.676351e+01
   8.352979e+00  -4.157371e+00
  -1.736459e+01  -1.265294e+01
   5.794734e+01  -3.954190e+01
   7.368982e+00  -8.404861e-01
   2.165520e+01   9.808199e+00
   7.617884e+00   7.160837e+01
  -2.534164e+01  -2.389917e+01
  -1.733566e+01  -4.667653e+01
  -2.339631e+01   5.369133e+01
   4.772521e+01  -1.574818e+01
  -1.386660e+01  -5.824870e+00
   1.803928e+01  -1.525077e+01
   1.930276e+01   4.226926e+00
  -1.747515e+01  -6.859340e-01
   1.626394e+01   4.128403e+01
   1.318782e+01   3.412704e+01
   2.112234e+01   3.249120e+01
  -1.876616e+01  -4.784545e+01
  -5.604602e+01  -1.600138e+01
  -3.075818e+01  -3.002981e+01
   2.262408e+01  -8.644004e+00
   2.412904e+00   2.246447e+01
   5.356979e+01  -1.008001e+01
  -2.001877e+01  -1.575009e+01
   3.503920e+01   4.076228e+01
  -5.157094e+00   9.409927e+00
   8.646337e+00  -1.762530e+00
  -6.620973e+01   2.030773e+01
  -8.029345e+00   1.917948e+01
  -3.518314e+01  -1.501267e-02
   2.925832e+01  -4.916882e+01
   4.721489e+01  -8.686535e+00
   4.842840e+01   1.774862e+01
   3.924725e+00  -4.364721e+00
  -1.841533e+01   1.876702e+01
  -1.673499e+01   7.989098e+01
  -1.278337e+01  -1.662505e+01
   5.507774e+01  -4.751019e+01
   5.367280e+01   1.378778e+01
   3.473461e+00  -3.852822e+01
   1.260164e+00  -1.870942e+01
   2.044621e+01   5.605196e-01
   5.666592e+01  -3.265679e+01
   2.194779e+01  -5.549655e+01
   6.350881e+01   3.067509e+01
  -1.055976e+00   1.920421e+01
  -5.222747e+01   6.768641e+01
  -1.623927e+01   2.080618e+01
  -5.154044e+01   1.481903e+01
  -1.453051e-01   2.745596e+00
   2.418863e+01   8.135206e+00
   2.972318e+01  -3.981693e+01
   2.076973e+01  -3.905981e+00
  -5.560998e+01  -3.837293e+00
  -5.010503e+00  -2.926198e+01
   2.151564e+01  -2.524257e+01
   1.120010e+01  -1.101500e+01
  -9.117724e+00   4.727476e+01
  -3.455652e+01   3.698354e+01
  -3.086816e+01   3.298377e+01
  -2.222851e+01   1.857566e+01
   1.287033e+01  -2.362860e+01
   1.513846e+01   5.155016e+00
  -2.621021e+01   4.967937e+00
  -2.448117e+01  -9.414161e+00
  -2.488259e+01   1.330984e+01
   3.612301e+01   4.713711e+00
  -2.631032e+01  -2.264936e+01
  -2.316480e+01   1.336159e+01
   4.343070e+01   3.925407e+01
  -3.486104e+01  -3.527059e+00
  -9.854187e+00  -4.070721e+01
   2.193066e+01  -7.898027e+00
   1.631252e+01   3.584950e+01
  -1.427443e+01   5.512969e+01
  -3.659908e+01   2.593877e-01
   1.055029e+01  -2.726791e+01
  -4.357584e+01  -8.990776e+00
   4.506492e+00   5.205103e+00
   5.155827e+00   1.765097e+00
  -8.967239e+00   1.726306e+01
  -9.446674e+00   8.817214e+00
  -7.813331e+01  -1.439815e+01
   7.540209e+00  -6.945120e+01
  -4.208325e+00  -3.869750e+00
   4.548176e+01  -1.873162e+00
  -1.253215e+01  -1.480728e+01
  -2.431041e+00   8.046102e-01
  -2.945135e+01  -1.321899e+01
  -2.455014e+01  -2.982028e+00
   1.153078e+01  -7.110580e+00
