
 $NMID
 id='ANONYMOUS ', fmtdat='(2E16.6)'
 volume=1.0
 tramp=1.0
 $END
  -1.532749e+03  -2.899344e+02
  -8.334054e+02  -5.318083e+02
  -1.803498e+02  -9.557765e+02
   3.882364e+02  -7.853837e+02
   4.020002e+02  -2.192957e+02
   1.290034e+02   1.257545e+01
  -1.661492e+01  -8.091681e+01
  -2.691438e+01  -1.340328e+02
   1.301575e+02  -2.057416e+02
   1.783706e+02  -2.189909e+01
   1.811847e+02   1.630844e+02
   7.129033e+01   2.309514e+02
  -1.452168e+01   1.139778e+02
  -1.041377e+02  -7.390480e+01
  -4.676390e+01  -1.669756e+02
   1.076512e+02  -5.831111e+01
   8.727435e+01   1.725730e+02
  -6.529194e+01   2.752301e+02
  -1.691124e+02   1.229587e+02
  -2.070419e+02  -1.838413e+01
  -8.302647e+01  -1.573641e+02
   3.806234e+01  -1.891841e+02
   4.376015e+01  -7.969110e+01
  -9.409462e+01  -1.665751e+02
  -1.034982e+02  -1.861726e+02
   4.379649e+01  -1.397983e+02
   2.526128e+02   1.207880e+01
   2.591481e+02   1.811188e+02
   1.354321e+01   7.383586e+01
  -9.985101e+01  -2.691570e+01
  -3.631688e+01  -7.438505e+01
  -3.902273e+01  -6.634758e+01
   1.115600e+02  -7.890676e+01
   1.833915e+02   1.818740e+01
   9.208359e+01   5.744974e+01
   4.720305e+01   1.588678e+02
   2.391237e+01   5.840369e+01
   8.121635e+01  -8.378038e-01
   2.791091e+01  -3.431512e+01
  -6.545380e+00   1.099721e+02
  -1.894725e+01   1.982113e+02
  -3.557388e+01   1.783529e+02
  -1.555768e+02  -1.234778e+00
  -6.026394e+01  -1.104382e+01
   1.579039e+01  -3.220012e+01
   6.646193e+00   1.112999e+02
  -9.714898e+01   6.304058e+01
  -1.162680e+02  -2.767555e+01
  -1.980943e+02  -1.435582e+02
  -3.359811e+01  -1.734878e+02
   1.060968e+02  -7.276970e+01
   1.918092e+02   1.461152e+01
   7.859660e+01   1.119878e+02
   2.040690e+01   6.007781e+01
  -1.180719e+02   8.765129e+01
  -1.547153e+02   7.474379e+01
  -4.414090e+01  -1.745972e+00
  -2.497903e+01  -8.661446e+00
  -3.793083e+01  -3.342649e+01
  -4.667790e+01  -1.017248e+02
   1.116198e+01  -5.631058e+01
   3.313779e+01  -5.371811e+01
   1.084040e+02  -5.431968e+01
   1.455980e+02   3.630225e+01
  -6.433196e+01   1.021753e+02
  -1.624520e+02   1.734724e+02
  -1.715717e+02   5.344787e+01
  -3.996718e+01  -8.805958e+01
  -6.433779e+00  -1.135910e+02
  -2.160492e+01  -1.435421e+02
   3.641018e+01  -7.940691e+01
   4.523705e+01  -6.907624e+01
   8.435866e+01  -4.351595e+01
   1.161817e+02   5.332784e+01
   5.248808e+01   7.203516e+01
  -1.248004e-01   8.189057e+01
  -4.072936e+01   1.821353e+01
  -4.128439e+01   9.878963e+00
   6.353193e+00  -1.370907e+02
   6.914097e+01  -8.244495e+01
   8.557856e+01  -2.174957e+01
   7.435211e+01   7.239291e+01
   3.788582e+01   1.344658e+02
   9.253486e+00   1.562124e+02
  -7.037736e+01   1.129706e+02
  -4.858688e+01   3.290376e+01
  -1.099496e+02   2.518262e+01
  -7.356203e+01  -3.949464e+01
  -1.428417e+02  -5.690654e+01
  -1.163947e+02  -1.771661e+02
   1.888248e+01  -1.948268e+02
   2.284440e+02  -1.663002e+02
   2.143142e+02  -6.174593e+01
   1.188692e+02   3.649570e+01
  -2.764529e+00   6.465701e+01
   3.339322e+00   1.153543e+02
   2.304640e+01   3.626963e+01
   4.977016e+01   5.235187e+01
  -5.572990e-01   4.163010e+01
  -3.130275e+01   3.888708e+01
  -1.810749e+01  -3.310699e+01
  -2.499367e+01  -5.269840e+01
   2.003473e+01  -2.810763e+01
   7.605249e+00   1.594869e+01
   2.656111e+01   8.972852e+01
  -4.981142e+01   1.014901e+02
  -9.829293e+01   6.580952e+01
  -1.207187e+02  -4.036387e+01
  -1.343559e+02  -1.480198e+02
  -1.342717e+01  -1.689677e+02
   2.452179e+01  -6.188325e+01
   4.065241e+01  -4.027348e+01
   1.095143e+01  -1.898977e-01
  -7.702288e+00  -5.260972e+01
   1.828692e+01  -3.454744e+01
   2.905253e+01   1.128773e-01
   5.698685e+01  -3.439080e+01
   1.013845e+00   2.777040e+01
  -4.506508e+01  -6.392520e+01
   5.322870e+00  -6.466062e+00
   7.483135e+01  -1.343241e+01
   1.558436e+02  -2.453564e+01
   1.091465e+02   5.446755e+01
  -3.107003e+01   1.186316e+02
  -1.221283e+02   1.084135e+02
  -1.480520e+02   1.749298e+01
  -6.246720e+01  -2.359398e+01
   3.757057e+01  -3.063277e+01
  -2.064336e+00  -2.251670e+01
   3.718871e+01   1.100569e+01
  -7.099269e+01   1.168979e+01
  -1.212477e+02  -4.520350e+01
  -6.136263e+01  -9.122979e+01
   5.751135e+01  -4.065658e+01
   6.096140e+01  -3.021669e+01
   1.109011e+01  -1.091508e+01
  -4.146100e+01  -5.902649e+01
   3.134114e+01  -8.669939e+00
   4.340183e+01  -4.124678e+01
   6.161654e+01   1.228148e+01
   6.129210e+01   7.347552e+01
   9.329910e+00   1.003784e+02
  -3.956914e+01   6.476428e+01
  -8.306728e+01   7.878669e+00
  -1.386443e+01  -1.018539e+01
   4.279878e+01  -4.024102e+01
   3.353454e+01   4.891946e+00
  -5.578934e+00  -2.227333e+01
  -1.885236e+00  -2.004021e+00
   3.163197e+01  -3.072491e+01
   3.539294e+01   2.086585e+00
   4.303669e+01   1.750736e+01
   6.547061e+00   5.825595e+01
  -5.422510e+01   6.935446e+01
  -1.119566e+02  -2.394331e+01
  -6.148095e+01  -4.280292e+01
   5.388178e-01  -8.007930e+01
   4.317444e+01  -6.440338e+01
   5.798604e+01  -1.380975e+01
   4.696477e+01   6.069620e+01
  -2.117373e+00   1.653753e+01
   2.944757e+01  -2.137252e+01
   6.298002e+01  -2.267544e+01
   3.566391e+01   3.057965e+01
  -6.665055e+00   2.498079e+00
  -6.644965e+01   2.895394e+01
  -3.867169e+01  -1.126462e+01
  -6.304898e-01  -1.136382e+02
   8.126782e+01  -4.466169e+01
   6.993893e+01   2.846392e+01
   1.223489e+01   7.848435e+01
  -8.341875e+01   5.065547e+01
  -1.118385e+02   1.645122e+01
  -4.939088e+01  -4.242811e+01
  -4.458476e+01  -6.301700e+01
   4.201919e+01  -4.631346e+01
   3.186227e+01  -5.834396e+01
   2.241289e+01  -4.260832e+01
   6.510483e+01  -2.015869e+01
   1.035668e+02  -2.491932e+01
   7.253293e+01   2.068977e+00
   3.837837e+01   2.488753e+01
   3.154164e+01   1.286229e+02
  -3.434132e+01   6.801606e+01
  -5.001765e+01   2.437511e+01
  -2.508072e+01  -6.160433e+01
   1.416432e+01  -6.998656e+01
   3.012143e+01  -2.083812e+01
   3.586035e+01   5.253335e-02
   1.151931e+01   1.701511e+01
   4.229639e+00   4.197561e+01
   5.586115e+01   3.726712e+01
   7.369945e+01  -6.859718e+00
   5.238908e+00   1.043677e+00
  -4.013609e+01   1.672043e+01
  -5.696326e+01  -1.979734e+01
  -1.052308e+02  -7.229793e+01
   1.414552e+00  -6.202382e+01
   8.554266e+01  -3.207169e+01
   6.833133e+01   4.583242e+01
   2.759550e+01   7.499488e+00
  -1.915393e+01  -4.070885e+00
  -6.646728e+00  -3.931284e+01
  -6.181137e+00  -1.943216e+01
   4.132719e+01  -2.673651e+01
   4.456392e+01   2.250576e+01
   1.751053e+01  -6.693514e+00
   9.173237e+01   6.128445e+01
  -4.334456e+00  -1.543641e+01
   2.224566e+01   2.982237e+01
   6.615642e+00   6.759093e+01
  -1.859748e+01   9.599410e+01
  -3.593112e+01   3.039398e+01
  -6.359014e+01   4.852393e+00
  -5.244662e+01  -5.850400e+01
  -2.065062e+00  -6.496985e+01
   4.644645e+01  -4.919628e+01
  -9.636169e+00   3.976192e+00
  -8.560907e+00   5.214301e+01
  -7.059175e+01  -5.426247e+01
  -2.456013e+01  -2.974077e+01
   7.514022e+01  -3.839101e+01
   8.663645e+01   1.028402e+01
   6.713239e+01   4.432862e+01
  -1.377647e+01   2.653196e+01
  -4.794258e+01   3.206165e+01
   1.862886e+01   1.384483e+01
   2.066080e+01   6.256525e+01
   1.189166e+01   3.091240e+00
   5.290041e+00   1.631408e+01
   9.548049e+00   4.209549e+01
  -7.656548e+01   2.704164e+01
  -4.152070e+01  -3.525529e+01
  -1.553537e+00  -3.646996e+01
   6.931538e+00  -7.257977e+01
   4.574073e+01   3.165329e+01
   5.081374e+01   4.337723e+01
  -8.820613e-01   3.140754e+01
  -2.768097e+01  -6.496175e+00
  -7.746299e+01   4.914254e+00
   1.145600e+01   4.360526e+00
   3.456693e+01   1.913657e+01
  -1.494952e+01   1.772391e+01
  -4.170440e+01   1.188941e+01
  -2.951559e+01  -5.630730e+01
   3.670644e+01  -2.860469e+01
   3.357684e+01  -6.253797e+00
   3.970498e+01  -3.315499e+00
  -1.704785e+00   2.697813e+01
  -5.642435e+01   7.256310e+00
  -5.674786e+01   1.797184e+01
  -1.833591e+01   4.014258e+01
   4.616147e+01   7.566319e+00
   1.752625e+01  -1.272705e+01
  -5.104423e+00  -1.722116e+01
   6.557418e+00  -3.956852e+00
  -1.611965e+01  -1.075716e+01
   5.382155e+01  -1.011190e+01
  -7.517364e+00   1.939174e+01
  -4.371815e+01   1.926560e+01
  -9.869863e+01   7.619015e+01
  -8.841316e+01  -1.908551e+01
  -1.803252e+01  -5.090508e+01
   3.560300e+01  -1.271252e+02
   4.503309e+01  -1.918746e+01
   7.308651e+01  -7.403463e-01
   2.045579e+01   2.015626e+01
   6.164708e+01   1.089408e+01
   2.333474e+01  -1.982790e+01
   2.805539e+01   1.800846e+01
  -1.587007e+01   2.704356e+01
  -3.074926e+01   1.785171e+01
  -5.134035e+01  -1.374707e+01
  -5.533997e+01  -2.854284e+01
   5.206283e+00  -8.280363e+01
   7.715104e+01  -1.906461e+00
  -3.773829e+00   7.114184e+01
   4.812979e+01   4.590066e+01
  -2.434847e+01   4.444476e+01
  -5.969409e+01  -2.171448e+01
  -2.123073e+01  -3.534114e+01
   3.861364e+01  -4.833710e+01
   3.238580e+01   1.295942e+01
   2.715355e+01   3.795309e+01
  -1.352833e+01  -2.432456e+01
   1.051198e+00  -2.028955e+01
   5.622805e+01  -3.067606e+01
   6.485727e+01  -3.438800e+01
   4.527043e+01  -3.205861e+00
  -2.065718e+01   1.617290e+01
  -8.921789e+01   4.204740e+01
  -4.854798e+01   7.885928e+00
   4.518309e+01  -6.535204e+01
   1.436993e+01  -2.056027e+01
  -1.601370e+01   4.429535e+00
   7.573139e-02   2.116048e+01
   1.503689e+01   2.425908e+01
  -1.527512e+01  -3.342435e+00
  -4.413677e+01  -3.855461e-01
   8.535964e+00  -1.665788e+01
  -4.766813e+01   4.142021e+01
   4.323022e+01   1.916576e+01
  -1.770107e+01   2.071163e+01
  -2.202558e+01  -2.516357e+01
  -5.979365e+00  -9.065110e+00
  -2.957306e+01   3.695054e+01
  -7.338849e+00   1.434015e+01
   2.179425e-02   2.007947e+01
  -9.498250e+00   3.518771e+01
  -3.410286e+01  -2.027353e+01
   3.806259e+00  -1.042499e+01
   5.749254e+01  -3.009606e+01
   2.301116e+01   9.815699e+00
  -3.874136e+01   2.495110e+01
  -4.744329e+01   3.298115e+01
  -5.046681e+01   7.600689e-01
  -2.018675e+01   1.002894e+01
   5.261332e+01   1.414310e+01
   1.481577e+01   1.625009e+01
  -4.398756e+01   2.379543e+01
