
 $NMID
 id='ANONYMOUS ', fmtdat='(2E16.6)'
 volume=1.0
 tramp=1.0
 $END
   2.087501e+03   4.351414e+02
   9.024364e+02   1.071952e+03
   1.751775e+02   1.390023e+03
  -5.275038e+02   8.361244e+02
  -5.415718e+02   2.762586e+02
  -3.462176e+01  -6.734038e+01
   1.455749e+02   1.082927e+02
   6.587306e+01   1.411725e+02
  -1.817902e+02   3.060166e+02
  -2.930695e+02   7.699108e+01
  -3.431998e+02  -1.895843e+02
  -2.282602e+01  -2.754863e+02
   1.005129e+02  -1.374526e+02
   8.769847e+01   1.810377e+02
  -4.119657e+01   2.694772e+02
  -1.158976e+02   3.982367e+01
  -1.199491e+02  -2.580867e+02
   5.868319e+01  -3.438151e+02
   2.444456e+02  -1.522780e+02
   2.798765e+02   4.262672e+01
   1.132588e+02   1.903703e+02
  -7.909400e+01   1.832102e+02
  -3.718721e+00   8.685734e+01
   1.333779e+02   1.146266e+02
   1.132911e+02   2.075481e+02
  -6.320685e+01   2.268332e+02
  -3.377631e+02  -3.320875e+01
  -2.947073e+02  -1.630439e+02
  -8.981290e+01  -1.433829e+02
   1.825509e+02  -2.343528e+01
   1.375646e+02   1.250590e+02
   3.573291e+01   1.271279e+02
  -1.694414e+02   1.253777e+02
  -2.070082e+02   6.243950e+01
  -1.530067e+02  -6.203841e+01
  -6.256057e+01  -1.743653e+02
  -7.953934e+01  -9.965922e+01
  -8.886384e+01  -1.934787e+00
  -1.251926e+02   1.085659e+02
  -9.672517e+01  -1.693319e+02
   1.174114e+02  -2.613204e+02
   1.376445e+02  -2.183304e+02
   1.646683e+02   5.596943e+01
  -4.470709e+01   1.184966e+02
  -2.023410e+01   3.740969e+01
  -1.776501e+01  -1.824341e+02
   7.825909e+01  -1.471098e+02
   2.383921e+02   1.858928e+01
   2.211851e+02   2.572765e+02
   1.077789e+02   2.764256e+02
  -1.183740e+02   1.437193e+02
  -3.024387e+02  -1.532688e+01
  -1.490686e+02  -1.596192e+02
  -1.748177e+01  -2.631143e+01
   1.422374e+02  -3.470626e+01
   1.654295e+02   4.898325e+01
   7.013796e+01   2.970919e+01
   3.236442e+01  -3.178819e-01
   2.246742e+01   2.007625e+01
   1.134050e+02   3.817774e+01
   4.896373e+01   7.581347e+01
  -5.188528e+01   1.556908e+02
  -1.438365e+02   1.412875e+02
  -1.452554e+02  -3.754024e+01
   1.067988e+01  -1.987348e+02
   1.963217e+02  -2.401732e+02
   1.962668e+02  -7.621699e+01
   8.285182e+01   1.270667e+02
   1.236602e+01   1.975550e+02
  -5.952210e+00   1.389978e+02
  -8.227381e+00   8.219128e+01
  -5.216964e+01   8.433254e+01
  -1.150733e+02   2.926660e+01
  -1.515556e+02   6.855992e+00
  -1.455975e+02  -1.217496e+02
  -9.228910e+00  -1.330563e+02
   5.302370e+01  -6.113567e+01
   8.229797e+01   5.625682e+01
   5.268184e+01   1.572431e+02
  -5.748431e+01   1.386169e+02
  -1.398861e+02   2.961751e+01
  -2.009282e+02  -7.531654e+01
  -6.790554e+01  -1.403883e+02
   3.750649e+01  -1.367895e+02
   1.001856e+02  -9.684983e+01
   5.879594e+01  -1.508358e+01
   7.161171e+01  -7.733638e+01
   1.802569e+02   2.045355e+00
   2.032203e+02   1.118431e+02
   1.643848e+02   2.059669e+02
  -2.128644e+01   2.101274e+02
  -2.697389e+02   2.338167e+02
  -3.104979e+02   6.943416e+01
  -1.467533e+02  -6.132651e+01
   2.437560e+01  -1.286682e+02
  -2.192380e+01  -7.618803e+01
   1.472845e+01  -4.069403e+01
  -7.159841e+01  -4.625949e+00
  -8.778018e+01  -4.931418e+01
   3.706371e+01  -4.956904e+01
   6.878145e+01   1.187239e+01
   4.099882e+01   2.969888e+01
   7.828706e-01   3.625676e+01
  -6.889033e+01  -1.582168e+00
  -5.281411e+01  -1.462707e+02
   2.979208e+01  -1.454039e+02
   1.391430e+02  -1.391957e+02
   2.286114e+02   3.329158e+01
   1.896067e+02   1.984263e+02
   2.802882e+01   1.976688e+02
  -5.895284e+01   2.778785e+01
  -5.558013e+01  -6.069658e+01
  -7.656438e+01  -1.366384e+01
   4.938497e+01   4.424114e+01
  -3.530490e+01   5.448046e+01
  -5.286216e+01  -4.854421e+00
  -4.610413e+01  -2.628535e+01
  -3.720407e+01  -5.635520e+01
   8.393459e+01   4.807870e+00
   2.940792e+01   5.541576e+01
  -8.369813e+01   3.412304e+01
  -1.724588e+02   2.634413e+01
  -1.816906e+02  -1.307856e+02
  -1.946615e+01  -1.489060e+02
   1.737007e+02  -1.289880e+02
   1.760543e+02  -4.076393e+01
   6.782977e+01   9.508465e+00
   9.339529e+00   3.855951e+01
  -4.515650e+01  -1.245440e+01
  -3.319445e+01  -6.375216e+01
   1.073776e+02   1.657016e+00
   6.142036e+01   7.742648e+01
   2.189710e+01   9.671322e+01
  -6.145854e+01   6.054467e+01
  -3.607593e+01   9.931572e-01
  -1.533601e+01   6.985796e+00
   3.059883e+01   4.869213e+01
   4.198865e-01   1.639476e+01
  -8.048936e+01   1.091347e+02
  -1.365865e+02  -3.705233e+01
  -8.165887e+01  -5.565795e+01
   1.994800e+01  -9.910139e+01
   1.292574e+02  -3.992073e+01
   1.081094e+02   4.678511e-01
   2.888279e+01   6.335708e+01
  -2.115641e+00   5.491623e+01
  -6.229460e+01   1.300093e+01
  -7.361081e+00  -2.419599e+01
   3.509070e+01  -3.002393e+00
   1.342814e+01  -1.867737e+01
  -6.015167e+01   8.275882e+00
  -4.117646e+01  -3.960605e+01
   1.191337e+01  -1.100399e+02
   8.263503e+01  -1.131760e+02
   1.628661e+02   4.822379e+01
   8.472089e+01   1.053433e+02
   2.897512e+01   1.178571e+02
  -5.675738e+01   6.183540e+01
  -5.114681e+01   2.236209e+01
  -2.981881e+01  -6.949665e+01
  -7.608159e+01  -3.296549e+01
  -5.955183e+01  -3.949422e+00
  -3.218557e+01   1.011341e+01
  -8.473309e+00  -4.936188e+01
   4.280803e+01  -5.796378e+01
   1.018427e+02  -4.097809e+01
   9.406384e+01  -1.603382e+01
  -1.458643e+01   8.489049e+01
  -1.191583e+02   5.608271e+01
  -9.648515e+01  -3.632739e+01
  -7.663466e+01  -1.478502e+02
   1.001951e+02  -9.276763e+01
   1.720474e+02   1.791234e+01
   1.687298e+02   1.294858e+02
   5.490466e+01   7.259242e+01
  -5.336111e+01   6.684894e+01
  -3.643121e+01   8.446427e+01
  -4.134659e+01   8.553887e+01
  -6.495002e+01   7.106477e+01
  -8.140386e+01   3.394102e+01
  -8.121293e+01  -2.029794e+01
  -6.248382e+01  -7.536648e+01
  -4.914330e+01  -1.567474e+02
   5.669374e+01  -5.824550e+01
   6.905153e+01  -4.635810e+01
   7.087815e+01   5.843044e+01
  -3.015812e+00   7.796168e+01
  -4.098366e+01   6.274623e+01
  -6.772266e+01   2.878777e+01
  -1.160964e+01   1.256134e+01
   3.215156e+01  -2.200078e+01
  -4.549779e+01   3.142301e+01
  -7.731221e+01  -2.636558e+01
   5.263541e+00   1.091351e+01
   4.833172e+01  -1.267869e+00
   1.234868e+02   2.545391e+01
   8.576746e+01   7.340265e+01
  -3.621499e+00   2.874735e+01
  -7.623242e+01   1.672290e+01
  -5.489076e+01   1.077168e+01
  -4.120565e+01   9.389886e+00
   3.850682e+01   1.816521e+01
   9.341413e+01  -1.661932e+01
   6.853116e+00   2.328694e+01
   2.031609e-01   5.205023e+01
  -5.574952e+00  -6.372203e+00
  -4.330656e+01  -2.166545e+01
  -5.840560e+01  -9.298486e+00
  -1.288874e+01   1.221946e+01
  -3.441661e+00   1.236341e+01
  -8.982310e+00  -2.986451e+01
  -9.902681e+00  -7.801414e+01
   7.057795e+01  -9.349797e+01
   1.252115e+02  -1.386877e+01
   6.247558e+01   4.253124e+01
  -3.176677e-02   5.191834e+01
  -2.376370e+01   4.635824e+01
  -6.024133e+01  -4.384433e+00
   4.927908e+00   4.464642e+00
   5.538283e+01   3.173211e+01
   1.801809e+01   3.937086e+01
  -3.783906e+01   5.063809e+01
  -9.983298e+01   3.283522e+01
  -8.620136e+01  -4.969774e+01
   2.260908e+00  -4.369356e+01
   3.708003e+01  -6.354878e+01
   2.065486e+01  -1.780542e+01
  -3.714534e+01   1.484546e+01
  -3.473352e+00   4.521233e+00
  -4.133417e+01  -7.918308e+01
   3.683064e+01  -7.238387e+01
   1.257870e+02  -7.597641e+01
   6.656250e+01   4.564472e+01
   1.484636e+01   9.697580e+01
  -4.809081e+01   8.664112e+01
  -5.652899e+01  -3.226484e+01
  -2.364999e+01  -7.229551e+01
  -3.282016e+00  -6.190180e+01
  -2.300371e+01   1.945337e+01
   1.161736e+01   1.052282e+01
   1.275913e+01   2.043453e+00
   3.561576e+01   2.597541e+01
   3.041661e-01  -2.339154e+01
   3.347504e+01   1.490365e+01
   3.859885e+01   6.489861e+01
  -4.076919e+01   2.342790e+01
  -6.898996e+01   5.283019e+00
  -5.816703e+01  -3.575547e+01
  -1.561439e+01  -8.762101e+00
   6.770279e+01  -3.021325e+01
   5.099811e+01   4.012649e+01
   2.226168e+00  -4.362050e+01
  -1.809527e+01   2.457224e+01
  -4.060950e-02  -8.234101e-01
   5.278725e+01   1.248500e+01
  -3.858222e+00   1.845712e+01
  -6.692421e+01   7.865993e+00
  -8.483628e+01  -1.761926e+01
   1.004623e+00  -7.125098e+01
   5.945627e+01  -7.539830e+01
   1.211643e+02  -3.430755e+01
   6.326347e+01   2.749198e+01
   4.034024e+01   1.007134e+02
  -6.463265e+01   8.798071e+01
  -7.799471e+01   3.278863e+01
  -6.826229e+01  -7.030446e+00
  -1.729828e+01  -2.220413e+01
  -1.719016e+01  -6.770984e+00
  -5.638505e+00  -1.585562e+01
  -1.798342e+01  -2.495640e+01
   1.105035e+01  -8.126649e+01
  -1.204359e+00  -3.729666e+01
   6.457467e+01  -2.387641e+00
   5.620324e+01   7.631036e+01
  -6.468956e-01   7.942251e+01
  -8.355314e+00   3.747976e+01
  -4.207061e+01  -2.846231e+01
   5.444806e+00  -3.558622e+01
   3.830073e+01  -7.953163e+01
   7.011688e+01   6.151092e+01
   4.367852e+01   4.053930e+01
  -3.703278e+01   7.027440e+01
  -6.554008e+01   6.295765e+01
  -1.700759e+01   1.124156e+01
   2.311812e+01   4.879494e-02
   2.578183e+01  -2.004563e+01
  -1.527870e+01   4.812609e+01
  -4.825206e+01   2.556736e+01
  -5.332223e+01  -2.264953e+01
   1.616678e+01  -3.905769e+01
   5.649567e+01  -3.388627e+01
   2.968694e+01   1.039828e+01
  -1.889152e+01   5.197285e+01
  -6.200981e-01   6.125411e+00
  -2.075586e+01  -1.623418e+01
   2.560976e+01  -9.180582e+00
  -3.085978e+01  -1.710274e+01
  -7.696266e+00  -1.344354e+01
   4.952226e+01   4.212367e+01
   1.572391e+00   7.412612e+00
  -3.492886e+01  -1.616679e+01
  -1.308800e+01  -2.516058e+01
   2.631381e+00  -2.663491e+01
   1.229787e+01   4.727504e+01
  -5.998110e+00   9.600712e+00
  -5.209829e+00  -9.397742e+00
   9.187807e+00  -4.773502e+00
   2.074428e+01  -1.885040e+01
   9.592271e+01   5.150939e+00
   4.355109e+01   3.416305e+01
  -1.230299e+01   4.380409e+01
  -3.032629e+01   2.024823e+01
   2.891053e+00  -5.787179e+01
   1.352480e+01  -2.306817e+01
   4.227024e+01   8.382450e+00
   2.792054e+01   1.824054e+01
  -4.604379e+00   1.827110e+01
  -6.098351e+01  -2.181280e+00
   1.101642e+01   3.101864e+01
   4.157583e+01  -1.469708e+01
