
 $NMID
 id='ANONYMOUS ', fmtdat='(2E16.6)'
 volume=1.0
 tramp=1.0
 $END
   5.379399e+07   1.579593e+06
   3.151701e+07   3.380553e+07
  -7.811728e+06   3.602385e+07
  -2.653304e+07   1.366674e+07
  -1.569018e+07  -6.641377e+06
   3.176262e+06  -8.832506e+06
   9.398433e+06   1.097973e+06
   2.686102e+06   9.332410e+06
  -5.953494e+06   9.052487e+06
  -9.289175e+06   1.907179e+06
  -6.630387e+06  -6.162158e+06
  -5.813537e+05  -8.409164e+06
   3.970145e+06  -2.506623e+06
   2.486837e+06   5.490579e+06
  -3.719955e+06   6.413312e+06
  -7.551842e+06  -1.356456e+06
  -4.105093e+06  -9.901166e+06
   3.857672e+06  -1.127607e+07
   9.845575e+06  -5.409828e+06
   1.028645e+07   2.319831e+06
   6.021269e+06   7.370654e+06
   3.289922e+05   8.165183e+06
  -2.828028e+06   5.544832e+06
  -1.521497e+06   2.563818e+06
   1.251918e+06   2.374850e+06
   7.682326e+04   4.297218e+06
  -5.594405e+06   4.151009e+06
  -9.562836e+06   1.114825e+05
  -6.712599e+06  -4.291871e+06
   6.999032e+04  -4.930665e+06
   3.884371e+06  -2.296350e+06
   2.433605e+06   2.707129e+05
  -8.475972e+05   1.108190e+06
  -2.540985e+06   4.105018e+05
  -2.198811e+06  -1.684796e+06
  -4.402270e+05  -4.029813e+06
   1.941687e+06  -3.636006e+06
   3.009753e+06   3.517006e+05
   1.379322e+06   3.564341e+06
  -8.349800e+05   1.633775e+06
  -1.851933e+05  -2.606344e+06
   2.493611e+06  -2.273997e+06
   2.332097e+06   3.092494e+06
  -2.338918e+06   5.811909e+06
  -6.511453e+06   8.263734e+05
  -4.676774e+06  -6.694058e+06
   1.983255e+06  -8.069145e+06
   7.182247e+06  -2.129886e+06
   6.710949e+06   4.456221e+06
   1.776080e+06   5.934695e+06
  -3.431589e+06   2.662109e+06
  -5.195428e+06  -1.509864e+06
  -2.412152e+06  -3.417870e+06
   2.319742e+06  -2.107972e+06
   4.361228e+06   9.423198e+05
   1.863535e+06   2.636112e+06
  -1.675117e+06   1.288102e+06
  -1.725877e+06  -1.021992e+06
   1.189262e+06  -9.325691e+05
   2.350720e+06   1.570044e+06
  -5.070192e+05   3.155615e+06
  -4.321728e+06   1.741922e+06
  -5.038164e+06  -1.304445e+06
  -2.183105e+06  -3.821099e+06
   1.919114e+06  -5.084061e+06
   5.121474e+06  -4.606845e+06
   6.148462e+06  -1.492086e+06
   4.341681e+06   3.272964e+06
   7.271063e+05   6.094646e+06
  -1.871502e+06   4.673635e+06
  -1.678182e+06   1.285267e+06
  -2.193894e+05  -8.671841e+04
  -1.968181e+05   1.043799e+06
  -1.821045e+06   1.665406e+06
  -2.880192e+06   1.328766e+04
  -1.948973e+06  -2.133133e+06
   1.230763e+05  -2.238715e+06
   1.680771e+06  -1.569344e+05
   1.692931e+06   2.204291e+06
  -9.714211e+04   2.985863e+06
  -2.840590e+06   1.535231e+06
  -4.377004e+06  -1.369673e+06
  -3.008142e+06  -3.799243e+06
   1.817160e+05  -4.086189e+06
   2.264154e+06  -2.543297e+06
   2.152521e+06  -1.062834e+06
   1.795005e+06  -6.846993e+05
   2.951813e+06  -4.637285e+05
   4.357003e+06   8.284113e+05
   3.461497e+06   2.850315e+06
   4.921711e+04   4.179600e+06
  -3.351232e+06   3.879746e+06
  -4.312513e+06   2.018075e+06
  -2.676859e+06  -5.498108e+05
  -1.644336e+05  -2.300697e+06
   1.214430e+06  -1.913053e+06
   5.670586e+05   7.258365e+04
  -1.154909e+06   1.296075e+06
  -1.930687e+06   3.514822e+05
  -8.767978e+05  -1.237393e+06
   5.721795e+05  -1.124460e+06
   4.641764e+05   3.949040e+05
  -1.032597e+06   7.378696e+05
  -1.839781e+06  -1.211097e+06
  -6.854492e+05  -3.444969e+06
   1.525047e+06  -3.466644e+06
   3.137186e+06  -1.204550e+06
   3.387445e+06   1.441205e+06
   2.343358e+06   2.863743e+06
   4.342154e+05   2.706680e+06
  -1.312927e+06   1.468883e+06
  -1.625020e+06   1.837034e+05
  -5.010902e+05  -5.846146e+04
   3.488169e+05   7.733101e+05
  -4.409231e+05   1.340969e+06
  -1.930601e+06   5.401386e+05
  -2.036200e+06  -9.296778e+05
  -3.694619e+05  -1.433015e+06
   1.201069e+06  -5.617301e+05
   9.152990e+05   4.805031e+05
  -8.596687e+05   5.412083e+05
  -2.237883e+06  -3.345430e+05
  -1.795466e+06  -1.417224e+06
   2.709621e+05  -2.033498e+06
   2.394706e+06  -1.658962e+06
   2.839652e+06  -2.220441e+05
   1.207492e+06   1.308500e+06
  -9.668175e+05   1.490780e+06
  -1.574719e+06   1.492204e+05
  -1.665396e+05  -1.097137e+06
   1.561221e+06  -7.112450e+05
   1.735471e+06   8.284713e+05
   3.229225e+05   1.689785e+06
  -1.120149e+06   9.872755e+05
  -1.278384e+06  -3.255714e+05
  -2.475164e+05  -7.943391e+05
   8.034702e+05  -3.922830e+04
   7.224130e+05   1.090585e+06
  -6.266059e+05   1.438271e+06
  -2.065569e+06   5.008747e+05
  -2.050998e+06  -1.124021e+06
  -3.420623e+05  -2.124817e+06
   1.503028e+06  -1.641935e+06
   1.764049e+06  -1.794936e+05
   4.984297e+05   8.946955e+05
  -6.876547e+05   8.088487e+05
  -6.592471e+05   6.343552e+04
   1.183715e+05  -3.823553e+05
   5.184598e+05  -2.224112e+05
   1.538481e+05   7.007125e+04
  -4.365041e+05  -6.608611e+04
  -5.179850e+05  -6.764125e+05
   2.252386e+05  -1.201045e+06
   1.426660e+06  -8.845487e+05
   2.115455e+06   4.693075e+05
   1.449287e+06   2.018467e+06
  -2.780126e+05   2.471685e+06
  -1.683318e+06   1.418000e+06
  -1.734288e+06  -1.565889e+05
  -8.764639e+05  -9.449091e+05
  -3.197381e+05  -7.024952e+05
  -4.692990e+05  -2.565156e+05
  -6.127893e+05  -3.306173e+05
  -7.014426e+04  -7.704508e+05
   9.093655e+05  -9.016069e+05
   1.488452e+06  -3.081221e+05
   1.069054e+06   7.633123e+05
  -2.782645e+05   1.498724e+06
  -1.783711e+06   1.066366e+06
  -2.290645e+06  -5.424304e+05
  -1.117189e+06  -2.167447e+06
   1.073426e+06  -2.389489e+06
   2.609315e+06  -1.001862e+06
   2.390404e+06   7.127305e+05
   9.658580e+05   1.385842e+06
  -2.182604e+05   9.772471e+05
  -4.194660e+05   5.309590e+05
  -1.212267e+05   7.696542e+05
  -1.500936e+05   1.320384e+06
  -7.129016e+05   1.289206e+06
  -1.322397e+06   2.906752e+05
  -1.338610e+06  -1.136818e+06
  -5.234225e+05  -1.949955e+06
   6.707211e+05  -1.454600e+06
   1.314524e+06   2.907454e+04
   8.026871e+05   1.322933e+06
  -4.210891e+05   1.414109e+06
  -1.182499e+06   3.975387e+05
  -8.071625e+05  -7.120663e+05
   1.394998e+05  -1.082487e+06
   5.489731e+05  -7.856803e+05
   8.852247e+04  -4.285474e+05
  -4.327032e+05  -3.571280e+05
  -5.080478e+04  -3.948338e+05
   1.172241e+06  -1.890974e+05
   2.091591e+06   3.851721e+05
   1.627260e+06   1.090978e+06
  -6.345069e+04   1.455877e+06
  -1.639280e+06   1.123314e+06
  -1.872354e+06   2.476342e+05
  -8.413668e+05  -5.106796e+05
   2.759468e+05  -5.684070e+05
   5.190833e+05  -2.713765e+04
   1.649620e+04   4.244059e+05
  -4.626544e+05   2.529593e+05
  -4.832891e+05  -3.607324e+05
  -2.355634e+05  -7.488307e+05
  -8.024776e+04  -4.943261e+05
  -1.419673e+05   9.940191e+04
  -2.962704e+05   3.008523e+05
  -2.775201e+05  -2.422802e+05
   1.692390e+05  -1.008612e+06
   9.425964e+05  -1.068492e+06
   1.389089e+06  -1.424622e+05
   8.433247e+05   9.559753e+05
  -4.509605e+05   1.149606e+06
  -1.290766e+06   3.103868e+05
  -7.376424e+05  -6.039322e+05
   7.303436e+05  -6.479953e+05
   1.623139e+06   1.297131e+05
   1.015619e+06   9.011737e+05
  -5.104791e+05   1.002701e+06
  -1.541815e+06   4.632000e+05
  -1.259432e+06  -2.177285e+05
  -1.284835e+05  -5.288878e+05
   6.690159e+05  -2.625518e+05
   3.849894e+05   3.088892e+05
  -6.121031e+05   5.221283e+05
  -1.211002e+06  -1.087779e+05
  -6.629166e+05  -1.225520e+06
   6.398482e+05  -1.734081e+06
   1.539238e+06  -8.787281e+05
   1.272651e+06   8.009320e+05
   1.725366e+05   1.839978e+06
  -7.835185e+05   1.311113e+06
  -9.428166e+05  -1.997226e+05
  -4.164880e+05  -1.228554e+06
   2.450969e+05  -9.856143e+05
   5.772175e+05  -7.333696e+04
   4.688841e+05   3.945387e+05
   1.636306e+05   1.419677e+05
   5.195504e+04  -9.547635e+04
   2.823838e+05   3.119913e+05
   5.035275e+05   1.001914e+06
   1.715488e+05   1.106382e+06
  -7.430853e+05   3.873942e+05
  -1.501770e+06  -5.052443e+05
  -1.291988e+06  -8.808152e+05
  -1.749636e+05  -7.200154e+05
   8.792397e+05  -4.156540e+05
   1.010113e+06  -1.670349e+05
   3.710193e+05   6.527798e+04
  -1.519622e+05   2.297923e+05
  -4.469223e+04   2.046647e+05
   2.650976e+05   9.588842e+04
   5.230279e+04   1.380015e+05
  -6.764254e+05   2.359328e+05
  -1.075198e+06  -2.749930e+04
  -4.427730e+05  -7.222646e+05
   8.771033e+05  -1.201503e+06
   1.763378e+06  -7.525281e+05
   1.452591e+06   4.636304e+05
   2.637747e+05   1.446735e+06
  -8.120962e+05   1.401583e+06
  -1.087419e+06   5.419793e+05
  -6.691700e+05  -2.430215e+05
  -1.357985e+05  -3.711574e+05
   6.664675e+04  -7.494232e+04
  -8.488799e+04   8.638655e+03
  -2.972977e+05  -3.838748e+05
  -2.371159e+05  -8.324270e+05
   1.925730e+05  -6.972684e+05
   6.971817e+05   1.260416e+05
   7.536177e+05   9.810876e+05
   1.169896e+05   1.064461e+06
  -7.717327e+05   2.571771e+05
  -1.059025e+06  -7.433668e+05
  -3.511491e+05  -1.125268e+06
   7.407357e+05  -6.955507e+05
   1.153929e+06   8.889970e+04
   5.427833e+05   6.452109e+05
  -3.065678e+05   7.032018e+05
  -4.047028e+05   3.732454e+05
   2.436194e+05   5.959662e+03
   6.647046e+05  -3.442298e+04
   1.500155e+05   3.210906e+05
  -8.560910e+05   6.843793e+05
  -1.307999e+06   5.271970e+05
  -7.899028e+05  -2.035214e+05
   1.099673e+05  -8.960697e+05
   5.890927e+05  -8.746335e+05
   4.525431e+05  -1.671840e+05
   5.666429e+04   4.888165e+05
  -2.497733e+05   4.511978e+05
  -3.611057e+05  -1.440957e+05
  -2.559444e+05  -5.956582e+05
   5.795317e+04  -4.489198e+05
   4.023535e+05   4.543511e+04
   4.875990e+05   3.023701e+05
   2.466667e+05   1.090159e+05
  -3.769242e+04  -1.645577e+05
  -8.129604e+04  -6.411972e+04
   2.573805e+04   3.584798e+05
  -3.655752e+04   5.812550e+05
  -3.262228e+05   2.437597e+05
  -4.847423e+05  -3.829198e+05
  -1.757484e+05  -6.685785e+05
   4.173673e+05  -3.258729e+05
   6.890412e+05   2.870241e+05
   2.620559e+05   5.876394e+05
  -5.290106e+05   3.713998e+05
  -9.141234e+05  -8.208974e+04
  -4.920339e+05  -3.930369e+05
   3.073070e+05  -4.176985e+05
   6.640349e+05  -2.390810e+05
   2.678660e+05  -1.677812e+04
  -3.436886e+05   7.962491e+04
  -4.147535e+05  -5.385042e+04
   1.622703e+05  -2.906257e+05
   7.466753e+05  -2.754043e+05
