
 $NMID
 id='ANONYMOUS ', fmtdat='(2E16.6)'
 volume=1.0
 tramp=1.0
 $END
   2.894341e+07  -2.739765e+06
   2.069149e+07   1.326679e+07
   8.191593e+05   1.923236e+07
  -1.246785e+07   1.230757e+07
  -1.051641e+07   5.974134e+05
  -4.649212e+05  -5.366483e+06
   5.840564e+06  -2.184690e+06
   4.116844e+06   4.734667e+06
  -1.525082e+06   7.506411e+06
  -5.317886e+06   3.346712e+06
  -4.709323e+06  -3.302399e+06
  -9.240487e+05  -5.620563e+06
   2.465359e+06  -1.491005e+06
   2.195194e+06   4.343622e+06
  -1.543759e+06   5.453657e+06
  -4.780702e+06   5.774120e+05
  -3.759349e+06  -5.440104e+06
   9.551066e+05  -7.167208e+06
   5.208209e+06  -3.838643e+06
   5.729269e+06   9.897140e+05
   3.042218e+06   3.666980e+06
   2.613879e+05   3.488304e+06
  -1.554348e+05   2.309727e+06
   1.389053e+06   2.187717e+06
   2.066045e+06   3.371450e+06
  -4.339512e+05   4.160220e+06
  -4.868625e+06   2.793676e+06
  -7.021474e+06  -3.813006e+05
  -4.276956e+06  -2.967202e+06
   9.213467e+05  -2.955802e+06
   3.496354e+06  -7.458754e+05
   1.452394e+06   1.454820e+06
  -2.230637e+06   1.754101e+06
  -3.553392e+06  -7.008263e+04
  -1.833530e+06  -2.581278e+06
   5.731585e+05  -3.601005e+06
   1.539533e+06  -1.953311e+06
   9.454369e+05   9.245828e+05
  -7.004983e+04   1.890208e+06
  -3.553690e+05  -2.856327e+05
   5.419518e+05  -2.852336e+06
   1.882911e+06  -2.156398e+06
   2.006641e+06   1.443008e+06
   3.795467e+04   3.585836e+06
  -2.535638e+06   1.372815e+06
  -2.891428e+06  -2.859853e+06
   2.003521e+04  -4.411098e+06
   3.883436e+06  -1.742495e+06
   5.084689e+06   2.277855e+06
   2.315934e+06   4.043494e+06
  -2.081714e+06   2.657446e+06
  -4.321921e+06  -1.280372e+05
  -2.705570e+06  -2.009646e+06
   8.662926e+05  -1.818671e+06
   2.857390e+06  -1.273935e+05
   1.678047e+06   1.263116e+06
  -8.085216e+05   9.701178e+05
  -1.571385e+06  -4.872130e+05
   6.087221e+04  -1.255501e+06
   1.763701e+06  -3.502405e+05
   1.154551e+06   1.221208e+06
  -1.339308e+06   1.711816e+06
  -3.025403e+06   4.564982e+05
  -1.959286e+06  -1.750589e+06
   1.142422e+06  -3.438884e+06
   3.844417e+06  -3.289613e+06
   4.318587e+06  -9.422641e+05
   2.695337e+06   2.331348e+06
   5.558607e+05   4.261004e+06
  -6.427038e+05   3.698598e+06
  -7.547180e+05   1.880954e+06
  -7.425580e+05   8.700452e+05
  -1.384125e+06   9.819561e+05
  -2.318515e+06   6.918846e+05
  -2.465233e+06  -8.843982e+05
  -1.259131e+06  -2.476138e+06
   6.819244e+05  -2.199753e+06
   2.017144e+06   1.704242e+04
   1.704183e+06   2.254424e+06
  -1.816058e+05   2.627022e+06
  -2.330111e+06   9.878518e+05
  -3.079322e+06  -1.255934e+06
  -1.884537e+06  -2.551781e+06
   6.672494e+04  -2.400799e+06
   1.110374e+06  -1.514214e+06
   1.014937e+06  -9.413777e+05
   1.121536e+06  -9.600041e+05
   2.353994e+06  -8.371596e+05
   3.665320e+06   2.419435e+05
   3.110392e+06   2.103864e+06
   3.121222e+05   3.570565e+06
  -2.775481e+06   3.471841e+06
  -3.768827e+06   1.670389e+06
  -2.203331e+06  -7.174036e+05
   1.789844e+05  -2.054744e+06
   1.251801e+06  -1.487903e+06
   4.329565e+05   1.686566e+05
  -1.042843e+06   1.086991e+06
  -1.533860e+06   3.546205e+05
  -6.262057e+05  -9.316454e+05
   5.661932e+05  -9.957188e+05
   6.641757e+05   2.913155e+05
  -4.997311e+05   1.103821e+06
  -1.712489e+06  -6.268054e+04
  -1.592880e+06  -2.389235e+06
   1.207638e+05  -3.542066e+06
   2.351620e+06  -2.236118e+06
   3.533811e+06   5.005028e+05
   2.794387e+06   2.534246e+06
   6.770775e+05   2.653766e+06
  -1.191877e+06   1.373929e+06
  -1.480164e+06   1.440722e+05
  -4.412003e+05  -2.669845e+04
   3.527775e+05   6.436627e+05
  -2.067724e+05   1.089282e+06
  -1.448961e+06   5.728548e+05
  -1.735953e+06  -5.108432e+05
  -5.026312e+05  -1.087680e+06
   9.627554e+05  -6.105085e+05
   9.663161e+05   3.583845e+05
  -6.333966e+05   7.692756e+05
  -2.201126e+06   1.135659e+05
  -2.020169e+06  -1.164765e+06
  -4.429445e+04  -2.059454e+06
   2.056293e+06  -1.774169e+06
   2.511409e+06  -4.051073e+05
   1.109954e+06   9.807785e+05
  -6.786849e+05   1.206500e+06
  -1.183758e+06   1.934398e+05
  -1.187569e+05  -8.398907e+05
   1.277272e+06  -6.684033e+05
   1.574815e+06   5.427797e+05
   5.323280e+05   1.444491e+06
  -8.003299e+05   1.091212e+06
  -1.192713e+06  -1.988156e+04
  -4.095819e+05  -6.210598e+05
   6.011037e+05  -1.134636e+05
   6.415043e+05   8.788381e+05
  -5.122641e+05   1.245896e+06
  -1.779386e+06   4.789927e+05
  -1.805767e+06  -8.988888e+05
  -4.083347e+05  -1.801362e+06
   1.157181e+06  -1.510267e+06
   1.503781e+06  -3.188438e+05
   5.528911e+05   7.189239e+05
  -5.191219e+05   7.862530e+05
  -6.588115e+05   7.536218e+04
   2.075989e+04  -5.070552e+05
   5.865156e+05  -3.773707e+05
   3.987454e+05   1.224955e+05
  -2.700110e+05   2.080138e+05
  -5.867729e+05  -3.839624e+05
  -4.636668e+03  -1.040848e+06
   1.151552e+06  -8.903957e+05
   1.871807e+06   2.711596e+05
   1.362443e+06   1.674035e+06
  -1.197503e+05   2.212979e+06
  -1.431674e+06   1.453032e+06
  -1.662409e+06   4.074960e+04
  -9.989240e+05  -9.133519e+05
  -3.543938e+05  -8.881459e+05
  -2.628614e+05  -3.638217e+05
  -3.825345e+05  -1.779538e+05
  -8.619603e+04  -5.545814e+05
   6.958748e+05  -8.782670e+05
   1.335881e+06  -4.431222e+05
   1.110528e+06   6.596962e+05
  -9.149705e+04   1.490254e+06
  -1.537412e+06   1.138404e+06
  -2.104924e+06  -3.304069e+05
  -1.186179e+06  -1.821001e+06
   6.769221e+05  -2.153968e+06
   2.140257e+06  -1.125664e+06
   2.218364e+06   3.536912e+05
   1.131678e+06   1.175384e+06
  -4.134496e+04   1.057547e+06
  -4.806063e+05   6.425164e+05
  -2.950241e+05   6.419562e+05
  -1.649594e+05   1.014830e+06
  -5.106843e+05   1.064143e+06
  -1.069499e+06   2.933730e+05
  -1.196396e+06  -9.426589e+05
  -5.373280e+05  -1.693757e+06
   5.372933e+05  -1.309322e+06
   1.173268e+06  -6.936894e+04
   8.187121e+05   1.055994e+06
  -1.853235e+05   1.261271e+06
  -9.002052e+05   5.525702e+05
  -7.465849e+05  -3.798062e+05
  -8.276737e+04  -8.558923e+05
   2.665086e+05  -7.571555e+05
  -1.084923e+04  -4.588998e+05
  -3.619283e+05  -3.295493e+05
  -4.099777e+04  -3.598686e+05
   9.609253e+05  -2.538402e+05
   1.773329e+06   1.895069e+05
   1.487676e+06   8.149882e+05
   1.333777e+05   1.206911e+06
  -1.250763e+06   1.041855e+06
  -1.591483e+06   3.965777e+05
  -8.175657e+05  -2.621497e+05
   1.497949e+05  -4.493489e+05
   4.204904e+05  -1.134096e+05
  -2.191867e+03   2.810754e+05
  -4.402081e+05   2.151073e+05
  -4.246429e+05  -2.956258e+05
  -1.308038e+05  -6.700710e+05
   9.326157e+03  -4.297636e+05
  -1.394733e+05   1.691263e+05
  -3.391592e+05   3.650475e+05
  -2.780078e+05  -1.908474e+05
   1.593637e+05  -9.295332e+05
   7.726684e+05  -9.635989e+05
   1.080742e+06  -1.270798e+05
   6.568726e+05   7.956893e+05
  -3.353330e+05   9.292778e+05
  -1.038350e+06   2.326542e+05
  -6.570495e+05  -5.319043e+05
   5.857806e+05  -6.307770e+05
   1.492066e+06  -2.207839e+04
   1.089916e+06   7.292189e+05
  -3.010758e+05   1.011618e+06
  -1.382625e+06   6.379231e+05
  -1.230985e+06  -5.791706e+04
  -1.944553e+05  -4.925454e+05
   5.694089e+05  -3.184382e+05
   3.209558e+05   2.164790e+05
  -5.645665e+05   4.292439e+05
  -1.055579e+06  -1.256388e+05
  -5.327997e+05  -1.088044e+06
   6.080353e+05  -1.505920e+06
   1.375663e+06  -7.600490e+05
   1.151014e+06   6.995984e+05
   2.107794e+05   1.651138e+06
  -6.494320e+05   1.257699e+06
  -8.746096e+05  -6.979010e+04
  -4.973907e+05  -1.072933e+06
   8.771280e+04  -9.498651e+05
   4.864330e+05  -1.321993e+05
   5.013048e+05   3.541747e+05
   2.252918e+05   1.510923e+05
   1.493165e+04  -1.137566e+05
   1.597466e+05   2.032616e+05
   4.510428e+05   8.445454e+05
   2.901011e+05   1.004096e+06
  -5.413117e+05   4.031456e+05
  -1.374359e+06  -3.923440e+05
  -1.275420e+06  -7.396472e+05
  -1.980302e+05  -6.169104e+05
   8.421947e+05  -3.896113e+05
   9.247174e+05  -2.161360e+05
   2.728545e+05  -8.659433e+03
  -1.552811e+05   1.994752e+05
   5.452005e+04   2.380058e+05
   3.305959e+05   1.371404e+05
   1.266859e+04   1.232936e+05
  -6.928225e+05   1.857738e+05
  -9.397715e+05  -1.741778e+04
  -2.759456e+05  -5.967088e+05
   8.256173e+05  -1.026372e+06
   1.467643e+06  -6.576146e+05
   1.177474e+06   4.096094e+05
   2.382505e+05   1.287564e+06
  -6.485380e+05   1.237186e+06
  -9.392399e+05   4.474046e+05
  -6.087653e+05  -2.506582e+05
  -8.970097e+04  -3.192495e+05
   1.343071e+05  -3.834880e+03
  -5.029031e+04   7.789511e+04
  -3.220926e+05  -3.065499e+05
  -2.730679e+05  -7.332324e+05
   1.678675e+05  -6.003539e+05
   6.330650e+05   1.579803e+05
   6.318292e+05   9.050023e+05
   3.002732e+04   9.187997e+05
  -7.237121e+05   1.535905e+05
  -9.189719e+05  -7.104097e+05
  -2.803204e+05  -9.760519e+05
   6.460351e+05  -5.655376e+05
   9.756719e+05   7.114024e+04
   4.505854e+05   4.897457e+05
  -2.391843e+05   5.476236e+05
  -2.717466e+05   3.278209e+05
   2.951084e+05   3.840238e+04
   6.079415e+05  -3.206826e+04
   1.139914e+05   2.616522e+05
  -7.406373e+05   6.395345e+05
  -1.078713e+06   5.697332e+05
  -6.279957e+05  -8.668990e+04
   7.846381e+04  -7.619319e+05
   4.232728e+05  -7.618734e+05
   3.082381e+05  -1.072874e+05
   1.529964e+04   4.610822e+05
  -2.213910e+05   3.589796e+05
  -3.208088e+05  -1.927727e+05
  -2.287296e+05  -5.224861e+05
   5.421196e+04  -3.288123e+05
   3.505779e+05   6.291493e+04
   4.172352e+05   2.014307e+05
   2.243782e+05   4.393772e+04
  -5.065409e+03  -8.281609e+04
  -8.344214e+04   6.604555e+04
  -7.673667e+04   3.546480e+05
  -1.580583e+05   4.192627e+05
  -3.172624e+05   8.254362e+04
  -3.298028e+05  -4.072550e+05
  -3.664120e+04  -5.866978e+05
   3.964923e+05  -2.566456e+05
   5.607029e+05   2.840223e+05
   2.029729e+05   5.405626e+05
  -4.360962e+05   3.307350e+05
  -7.620266e+05  -8.266204e+04
  -4.207023e+05  -3.366548e+05
   2.574316e+05  -3.192766e+05
   5.549921e+05  -1.581079e+05
   1.763152e+05  -1.406026e+04
  -3.788843e+05   9.138755e+03
  -3.922221e+05  -1.260911e+05
   2.096866e+05  -3.041303e+05
   7.650258e+05  -2.453700e+05
