
 $NMID
 id='ANONYMOUS ', fmtdat='(2E16.6)'
 volume=1.0
 tramp=1.0
 $END
   3.088698e+07   1.924385e+06
   1.872261e+07   1.683504e+07
  -2.467529e+06   1.952107e+07
  -1.413171e+07   1.067090e+07
  -1.021135e+07  -5.360944e+05
   2.564008e+05  -5.242370e+06
   5.868172e+06  -1.601374e+06
   3.564328e+06   5.031511e+06
  -2.131713e+06   7.371302e+06
  -5.634245e+06   2.817096e+06
  -4.551924e+06  -4.046763e+06
  -3.812961e+05  -6.080075e+06
   2.902875e+06  -1.301150e+06
   2.091038e+06   4.831616e+06
  -1.978181e+06   5.521137e+06
  -4.886241e+06   3.348481e+04
  -3.194112e+06  -6.067297e+06
   1.912770e+06  -7.270336e+06
   6.020361e+06  -3.255168e+06
   5.980936e+06   1.987621e+06
   2.598611e+06   4.571655e+06
  -5.937514e+05   3.827231e+06
  -7.933435e+05   2.062452e+06
   1.370033e+06   1.899763e+06
   2.331548e+06   3.546645e+06
  -5.775769e+05   4.588788e+06
  -5.577402e+06   2.812165e+06
  -7.712462e+06  -9.999834e+05
  -4.364302e+06  -3.747936e+06
   1.405360e+06  -3.354897e+06
   4.088969e+06  -6.776665e+05
   1.758001e+06   1.773434e+06
  -2.338441e+06   2.086270e+06
  -3.923572e+06   2.062023e+04
  -2.075882e+06  -2.892593e+06
   7.772009e+05  -4.058490e+06
   2.003227e+06  -2.016395e+06
   1.111257e+06   1.378606e+06
  -3.970421e+05   2.310205e+06
  -7.099569e+05  -3.844316e+05
   6.028011e+05  -3.202082e+06
   2.110362e+06  -2.191267e+06
   1.862106e+06   1.680482e+06
  -4.355631e+05   3.505030e+06
  -2.717662e+06   7.541238e+05
  -2.438035e+06  -3.497682e+06
   7.498377e+05  -4.478683e+06
   4.337824e+06  -1.249502e+06
   5.106764e+06   2.871316e+06
   2.096434e+06   4.355843e+06
  -2.330343e+06   2.604734e+06
  -4.455564e+06  -3.962844e+05
  -2.639010e+06  -2.203984e+06
   1.052189e+06  -1.708488e+06
   2.935301e+06   1.954143e+05
   1.553299e+06   1.457321e+06
  -9.663880e+05   8.911822e+05
  -1.602820e+06  -5.985085e+05
   5.383038e+04  -1.169285e+06
   1.601709e+06  -2.222057e+05
   8.820008e+05   1.089221e+06
  -1.518441e+06   1.322457e+06
  -3.003108e+06   7.147032e+04
  -1.732991e+06  -1.992901e+06
   1.596365e+06  -3.576063e+06
   4.466090e+06  -3.267425e+06
   4.803040e+06  -6.178318e+05
   2.718518e+06   2.871301e+06
   1.937612e+05   4.670787e+06
  -9.576522e+05   3.788081e+06
  -7.654398e+05   1.852461e+06
  -6.517392e+05   1.001863e+06
  -1.516654e+06   1.236761e+06
  -2.688197e+06   7.964952e+05
  -2.811207e+06  -1.073597e+06
  -1.375477e+06  -2.829190e+06
   7.931402e+05  -2.468450e+06
   2.218123e+06   5.235740e+03
   1.807568e+06   2.483164e+06
  -3.177659e+05   2.863060e+06
  -2.646788e+06   9.356788e+05
  -3.298920e+06  -1.652121e+06
  -1.778836e+06  -3.006488e+06
   4.142927e+05  -2.590014e+06
   1.417988e+06  -1.424309e+06
   1.145835e+06  -8.030521e+05
   1.192021e+06  -8.991924e+05
   2.508847e+06  -7.534706e+05
   3.870673e+06   4.612487e+05
   3.199414e+06   2.411289e+06
   1.557336e+05   3.836241e+06
  -3.155358e+06   3.607746e+06
  -4.183877e+06   1.637144e+06
  -2.405522e+06  -9.076773e+05
   2.790149e+05  -2.285259e+06
   1.465371e+06  -1.593532e+06
   4.857840e+05   2.181052e+05
  -1.192878e+06   1.140383e+06
  -1.677326e+06   2.819117e+05
  -6.082199e+05  -1.072239e+06
   6.631746e+05  -1.068811e+06
   6.995463e+05   2.994153e+05
  -5.082355e+05   1.097119e+06
  -1.664550e+06  -1.318556e+05
  -1.490064e+06  -2.477379e+06
   2.066179e+05  -3.598278e+06
   2.428006e+06  -2.231713e+06
   3.655656e+06   6.021486e+05
   2.911435e+06   2.734043e+06
   6.645962e+05   2.849683e+06
  -1.338195e+06   1.441467e+06
  -1.614740e+06   9.726302e+04
  -4.718965e+05  -5.010544e+04
   3.475664e+05   7.068293e+05
  -2.922690e+05   1.140875e+06
  -1.583562e+06   5.084598e+05
  -1.804870e+06  -6.481724e+05
  -4.618197e+05  -1.175019e+06
   1.054201e+06  -6.038469e+05
   1.023854e+06   4.021987e+05
  -6.631158e+05   7.840474e+05
  -2.312778e+06   6.976773e+04
  -2.121770e+06  -1.268860e+06
  -6.539266e+03  -2.180490e+06
   2.250554e+06  -1.820563e+06
   2.702740e+06  -3.259316e+05
   1.125980e+06   1.108496e+06
  -8.145058e+05   1.246880e+06
  -1.284608e+06   1.154840e+05
  -6.704554e+04  -9.256083e+05
   1.410276e+06  -6.499885e+05
   1.649514e+06   6.532907e+05
   5.017968e+05   1.546214e+06
  -8.789491e+05   1.111897e+06
  -1.244649e+06  -6.569719e+04
  -4.013819e+05  -6.600505e+05
   6.446543e+05  -7.954522e+04
   6.449045e+05   9.798382e+05
  -6.121303e+05   1.322606e+06
  -1.943431e+06   4.346573e+05
  -1.901579e+06  -1.055500e+06
  -3.481228e+05  -1.952679e+06
   1.313050e+06  -1.553815e+06
   1.616305e+06  -2.653449e+05
   5.529875e+05   7.869328e+05
  -5.873795e+05   8.147826e+05
  -7.171794e+05   6.629391e+04
   1.070174e+04  -5.351652e+05
   6.174249e+05  -4.102445e+05
   4.394036e+05   9.837242e+04
  -2.489013e+05   1.912151e+05
  -5.768799e+05  -4.161394e+05
   4.437981e+04  -1.088219e+06
   1.265821e+06  -8.934297e+05
   1.989751e+06   3.756431e+05
   1.382267e+06   1.859472e+06
  -2.235744e+05   2.369860e+06
  -1.580224e+06   1.499896e+06
  -1.769556e+06  -7.029490e+03
  -1.054317e+06  -9.929062e+05
  -3.926952e+05  -9.641215e+05
  -2.938879e+05  -4.333438e+05
  -3.851751e+05  -2.383640e+05
  -4.522665e+04  -5.982028e+05
   7.761217e+05  -8.987018e+05
   1.432061e+06  -4.250940e+05
   1.169356e+06   7.303304e+05
  -1.331792e+05   1.579577e+06
  -1.677688e+06   1.158215e+06
  -2.238104e+06  -4.353686e+05
  -1.187992e+06  -1.989325e+06
   8.212432e+05  -2.255031e+06
   2.325953e+06  -1.094390e+06
   2.337929e+06   4.633236e+05
   1.164825e+06   1.273552e+06
  -5.609307e+04   1.116271e+06
  -5.169699e+05   6.951565e+05
  -3.552272e+05   7.176602e+05
  -2.526860e+05   1.098892e+06
  -6.155483e+05   1.108628e+06
  -1.165922e+06   2.519069e+05
  -1.243584e+06  -1.072758e+06
  -5.017122e+05  -1.846456e+06
   6.366014e+05  -1.385591e+06
   1.258048e+06  -2.534038e+04
   8.200639e+05   1.160983e+06
  -2.549063e+05   1.324598e+06
  -9.633757e+05   5.324546e+05
  -7.464211e+05  -4.383467e+05
  -3.338330e+04  -8.932945e+05
   3.106316e+05  -7.690294e+05
  -5.697617e+03  -4.818686e+05
  -3.791546e+05  -3.764677e+05
  -3.019716e+04  -3.915100e+05
   1.035595e+06  -2.184162e+05
   1.884439e+06   2.971615e+05
   1.548766e+06   9.397222e+05
   7.730686e+04   1.279583e+06
  -1.392415e+06   1.037725e+06
  -1.710417e+06   3.473450e+05
  -8.403868e+05  -3.070075e+05
   1.917203e+05  -4.627267e+05
   4.439383e+05  -9.729602e+04
  -3.268302e+04   3.062167e+05
  -4.881163e+05   2.176658e+05
  -4.417290e+05  -3.400034e+05
  -1.121810e+05  -7.453914e+05
   3.124974e+04  -4.797128e+05
  -1.433786e+05   1.793706e+05
  -3.650817e+05   3.952715e+05
  -2.882718e+05  -2.112751e+05
   2.062282e+05  -1.000377e+06
   8.748570e+05  -9.988765e+05
   1.174977e+06  -6.403557e+04
   6.669719e+05   9.064835e+05
  -4.198493e+05   9.798495e+05
  -1.141974e+06   1.867495e+05
  -6.872048e+05  -6.047313e+05
   6.522209e+05  -6.460062e+05
   1.592368e+06   3.255089e+04
   1.136026e+06   8.035583e+05
  -3.482743e+05   1.055034e+06
  -1.484813e+06   6.333016e+05
  -1.306963e+06  -9.589104e+04
  -1.934701e+05  -5.278108e+05
   6.157759e+05  -3.161810e+05
   3.283467e+05   2.521848e+05
  -6.365361e+05   4.443556e+05
  -1.143475e+06  -1.858448e+05
  -5.292410e+05  -1.212247e+06
   7.314988e+05  -1.611578e+06
   1.527554e+06  -7.638103e+05
   1.213696e+06   8.051331e+05
   1.584650e+05   1.787544e+06
  -7.420255e+05   1.325716e+06
  -9.251721e+05  -1.067991e+05
  -4.891920e+05  -1.161115e+06
   1.223805e+05  -1.002548e+06
   5.205051e+05  -1.180203e+05
   5.289028e+05   3.903333e+05
   2.426941e+05   1.594893e+05
   1.610727e+04  -1.171731e+05
   1.506266e+05   2.430448e+05
   4.434508e+05   9.340827e+05
   2.744988e+05   1.076449e+06
  -5.931531e+05   3.920947e+05
  -1.461677e+06  -4.782859e+05
  -1.341964e+06  -8.344515e+05
  -1.834977e+05  -6.689718e+05
   9.260630e+05  -3.956905e+05
   9.991812e+05  -1.986498e+05
   2.835986e+05   1.232495e+04
  -1.782682e+05   2.128086e+05
   5.883618e+04   2.435238e+05
   3.620245e+05   1.460378e+05
   8.706979e+03   1.399265e+05
  -7.631841e+05   1.871752e+05
  -1.016030e+06  -6.267950e+04
  -2.640759e+05  -6.791714e+05
   9.472517e+05  -1.083553e+06
   1.620213e+06  -6.299719e+05
   1.256194e+06   5.157009e+05
   2.017393e+05   1.404360e+06
  -7.576534e+05   1.298466e+06
  -1.042676e+06   4.386067e+05
  -6.548063e+05  -2.955527e+05
  -8.147639e+04  -3.551178e+05
   1.571207e+05  -1.140006e+04
  -4.517040e+04   7.811455e+04
  -3.297610e+05  -3.355741e+05
  -2.631417e+05  -7.952881e+05
   2.115827e+05  -6.427094e+05
   6.874527e+05   1.966070e+05
   6.506061e+05   1.015292e+06
  -1.325276e+04   1.009863e+06
  -8.044679e+05   1.407687e+05
  -9.728954e+05  -8.143782e+05
  -2.561566e+05  -1.075078e+06
   7.338679e+05  -5.815971e+05
   1.051943e+06   1.286328e+05
   4.516796e+05   5.552338e+05
  -2.963657e+05   5.763922e+05
  -3.088445e+05   3.278982e+05
   3.241236e+05   4.108086e+04
   6.595695e+05  -1.110687e+04
   1.075610e+05   2.916059e+05
  -8.247843e+05   6.567579e+05
  -1.175142e+06   5.554158e+05
  -6.592270e+05  -1.341971e+05
   1.246493e+05  -8.183002e+05
   4.941738e+05  -7.886753e+05
   3.452332e+05  -8.566271e+04
   7.125041e+02   5.064312e+05
  -2.629873e+05   3.786297e+05
  -3.503920e+05  -2.233687e+05
  -2.235253e+05  -5.757113e+05
   8.566962e+04  -3.537947e+05
   3.809914e+05   8.500792e+04
   4.310663e+05   2.390722e+05
   2.316797e+05   5.626802e+04
   9.522893e+03  -9.460027e+04
  -7.152734e+04   7.062183e+04
  -9.297105e+04   3.987389e+05
  -2.078133e+05   4.688775e+05
  -3.713232e+05   7.936539e+04
  -3.505067e+05  -4.740828e+05
  -1.172268e+04  -6.582634e+05
   4.467350e+05  -2.648304e+05
   5.995848e+05   3.416194e+05
   1.991728e+05   5.997949e+05
  -4.865044e+05   3.330191e+05
  -8.231878e+05  -1.320267e+05
  -4.385709e+05  -3.860693e+05
   3.021110e+05  -3.314507e+05
   6.176993e+05  -1.401642e+05
   1.913306e+05   3.682300e+03
  -4.224364e+05   5.920444e+03
  -4.334844e+05  -1.502971e+05
   2.328840e+05  -3.322629e+05
   8.401605e+05  -2.501135e+05
