
 $NMID
 id='ANONYMOUS ', fmtdat='(2E16.6)'
 volume=1.0
 tramp=1.0
 $END
   3.238710e+07   1.426858e+05
   2.002924e+07   1.863711e+07
  -3.072677e+06   2.144169e+07
  -1.528855e+07   9.956205e+06
  -1.013664e+07  -2.381020e+06
   1.099556e+06  -5.488466e+06
   5.914701e+06  -4.186083e+05
   2.629100e+06   5.471104e+06
  -2.920192e+06   6.464877e+06
  -5.703173e+06   2.027696e+06
  -4.411057e+06  -3.775681e+06
  -5.306415e+05  -5.541405e+06
   2.575119e+06  -1.530245e+06
   1.844525e+06   3.923152e+06
  -2.072459e+06   4.669992e+06
  -4.809440e+06  -3.390734e+05
  -3.013928e+06  -6.035257e+06
   1.967004e+06  -7.192740e+06
   5.951885e+06  -3.527574e+06
   6.258113e+06   1.424802e+06
   3.444154e+06   4.415684e+06
   9.222996e+04   4.550929e+06
  -1.226289e+06   2.977623e+06
   1.523479e+04   1.794479e+06
   1.393554e+06   2.295237e+06
  -1.481165e+05   3.405434e+06
  -4.213356e+06   2.740902e+06
  -6.603382e+06  -1.849511e+05
  -4.309046e+06  -2.948001e+06
   4.794751e+05  -3.145214e+06
   3.003062e+06  -1.176834e+06
   1.577277e+06   7.524610e+05
  -1.245248e+06   1.216064e+06
  -2.484996e+06   1.658253e+05
  -1.639386e+06  -1.739895e+06
   8.766758e+04  -3.079627e+06
   1.434951e+06  -2.184668e+06
   1.551136e+06   5.934804e+05
   4.367755e+05   2.191926e+06
  -5.276790e+05   4.766448e+05
   1.461560e+05  -2.219961e+06
   1.735968e+06  -1.758172e+06
   1.680947e+06   1.782635e+06
  -9.236092e+05   3.635987e+06
  -3.504409e+06   7.758193e+05
  -2.875060e+06  -3.781942e+06
   8.559988e+05  -4.848203e+06
   4.359236e+06  -1.448806e+06
   4.625079e+06   2.681397e+06
   1.605085e+06   3.928227e+06
  -2.170380e+06   2.094828e+06
  -3.750179e+06  -6.387637e+05
  -2.016791e+06  -2.125085e+06
   1.249203e+06  -1.522960e+06
   2.822966e+06   3.423185e+05
   1.372342e+06   1.532871e+06
  -9.840757e+05   8.724315e+05
  -1.302169e+06  -5.941021e+05
   4.608944e+05  -8.510330e+05
   1.573547e+06   4.553032e+05
   2.431831e+05   1.651556e+06
  -2.189807e+06   1.293107e+06
  -3.122663e+06  -3.514809e+05
  -1.592697e+06  -2.181940e+06
   1.249772e+06  -3.350535e+06
   3.592674e+06  -3.099124e+06
   4.162403e+06  -9.142826e+05
   2.753607e+06   2.267526e+06
   4.609796e+05   4.107634e+06
  -9.993652e+05   3.292003e+06
  -9.275225e+05   1.254160e+06
  -3.639610e+05   3.551038e+05
  -6.612733e+05   8.527013e+05
  -1.701265e+06   9.443930e+05
  -2.164782e+06  -3.779456e+05
  -1.286778e+06  -1.876711e+06
   3.336836e+05  -1.799740e+06
   1.498826e+06  -6.748391e+04
   1.370582e+06   1.785654e+06
  -1.194007e+05   2.245323e+06
  -2.075823e+06   9.869763e+05
  -2.955248e+06  -1.083684e+06
  -1.898078e+06  -2.544694e+06
   1.448670e+05  -2.552488e+06
   1.351218e+06  -1.564759e+06
   1.240421e+06  -7.657784e+05
   1.139456e+06  -6.479220e+05
   2.096901e+06  -5.192550e+05
   3.179632e+06   4.249522e+05
   2.607119e+06   1.968890e+06
   1.423187e+05   3.082146e+06
  -2.444183e+06   2.926263e+06
  -3.232350e+06   1.462391e+06
  -1.952155e+06  -5.225282e+05
   1.725446e+04  -1.752112e+06
   1.000810e+06  -1.356723e+06
   4.020734e+05   1.037305e+05
  -8.829029e+05   9.502597e+05
  -1.379467e+06   2.741082e+05
  -5.888615e+05  -8.695213e+05
   4.598226e+05  -8.488132e+05
   4.569325e+05   2.651323e+05
  -5.861333e+05   7.339635e+05
  -1.385823e+06  -4.790876e+05
  -9.103508e+05  -2.278169e+06
   6.117136e+05  -2.767658e+06
   2.141062e+06  -1.387628e+06
   2.748984e+06   7.398948e+05
   2.066996e+06   2.133704e+06
   4.572683e+05   2.137958e+06
  -1.000123e+06   1.136079e+06
  -1.241903e+06   1.290048e+05
  -3.750124e+05  -3.443736e+04
   2.795015e+05   5.641196e+05
  -2.586664e+05   9.619404e+05
  -1.340885e+06   4.361089e+05
  -1.493885e+06  -5.725114e+05
  -3.451588e+05  -9.980099e+05
   8.596299e+05  -4.677423e+05
   7.548268e+05   3.290759e+05
  -5.822100e+05   5.273987e+05
  -1.764321e+06  -7.052458e+04
  -1.531566e+06  -1.015405e+06
   7.569534e+04  -1.631873e+06
   1.767287e+06  -1.374589e+06
   2.130158e+06  -2.521464e+05
   9.185632e+05   9.102766e+05
  -6.588755e+05   1.067044e+06
  -1.094648e+06   1.286662e+05
  -1.072187e+05  -7.721774e+05
   1.130967e+06  -5.469613e+05
   1.316079e+06   5.436611e+05
   3.442652e+05   1.243137e+06
  -7.565011e+05   8.286162e+05
  -9.801459e+05  -1.305669e+05
  -2.643872e+05  -5.582663e+05
   5.559193e+05  -6.002321e+04
   5.419631e+05   7.842370e+05
  -4.549642e+05   1.069512e+06
  -1.533033e+06   3.891007e+05
  -1.535421e+06  -8.075422e+05
  -2.973019e+05  -1.562614e+06
   1.058028e+06  -1.252514e+06
   1.298552e+06  -1.984023e+05
   4.191316e+05   6.404836e+05
  -4.789751e+05   6.358568e+05
  -5.291504e+05   5.742599e+04
   4.699238e+04  -3.580821e+05
   4.389120e+05  -2.496212e+05
   2.309446e+05   6.921656e+04
  -2.685201e+05   6.014384e+04
  -4.362283e+05  -4.125267e+05
   8.392030e+04  -8.865509e+05
   1.022906e+06  -7.062803e+05
   1.586287e+06   2.936483e+05
   1.118677e+06   1.469829e+06
  -1.576837e+05   1.866404e+06
  -1.237584e+06   1.147618e+06
  -1.353491e+06  -3.951485e+04
  -7.557607e+05  -7.381668e+05
  -2.783390e+05  -6.408012e+05
  -2.916139e+05  -2.569782e+05
  -3.882438e+05  -2.051134e+05
  -5.799945e+04  -5.235733e+05
   6.353359e+05  -7.073926e+05
   1.121502e+06  -3.038476e+05
   8.727189e+05   5.624552e+05
  -1.390644e+05   1.191701e+06
  -1.318586e+06   8.823117e+05
  -1.751117e+06  -3.439189e+05
  -9.197653e+05  -1.584260e+06
   6.922338e+05  -1.805037e+06
   1.884789e+06  -8.477034e+05
   1.833209e+06   4.175540e+05
   8.420795e+05   1.013575e+06
  -9.422774e+04   8.129254e+05
  -3.576304e+05   4.765276e+05
  -1.740647e+05   5.682373e+05
  -1.336452e+05   9.284809e+05
  -4.892744e+05   9.323240e+05
  -9.511637e+05   2.291940e+05
  -1.008853e+06  -8.297152e+05
  -4.221011e+05  -1.452116e+06
   4.819218e+05  -1.101532e+06
   9.906567e+05  -1.759500e+04
   6.453119e+05   9.438737e+05
  -2.380099e+05   1.061866e+06
  -8.212089e+05   3.792363e+05
  -6.123718e+05  -4.281990e+05
   2.096935e+04  -7.639427e+05
   3.178655e+05  -6.102718e+05
   2.651761e+04  -3.538790e+05
  -3.161412e+05  -2.755393e+05
  -3.624558e+04  -3.013744e+05
   8.462781e+05  -1.754005e+05
   1.534671e+06   2.297139e+05
   1.238694e+06   7.567127e+05
   2.953656e+04   1.054573e+06
  -1.147419e+06   8.574644e+05
  -1.375672e+06   2.579316e+05
  -6.580312e+05  -3.016341e+05
   1.694079e+05  -4.011819e+05
   3.709547e+05  -5.693504e+04
   1.470326e+03   2.787806e+05
  -3.618986e+05   1.863153e+05
  -3.607005e+05  -2.621224e+05
  -1.426489e+05  -5.690454e+05
  -2.471104e+04  -3.711280e+05
  -1.102014e+05   1.097823e+05
  -2.530811e+05   2.710217e+05
  -2.215824e+05  -1.708178e+05
   1.313275e+05  -7.742072e+05
   6.829989e+05  -8.085236e+05
   9.809189e+05  -1.016139e+05
   5.930943e+05   7.011408e+05
  -3.159308e+05   8.242896e+05
  -9.278055e+05   2.103607e+05
  -5.556326e+05  -4.541602e+05
   5.225839e+05  -5.090822e+05
   1.240497e+06   3.949950e+04
   8.427453e+05   6.441257e+05
  -3.168337e+05   8.022591e+05
  -1.161343e+06   4.448547e+05
  -9.931501e+05  -1.039895e+05
  -1.314188e+05  -4.061820e+05
   4.914464e+05  -2.330611e+05
   2.791879e+05   2.090402e+05
  -4.719934e+05   3.786466e+05
  -9.049145e+05  -9.659804e+04
  -4.738792e+05  -9.260494e+05
   5.028430e+05  -1.292437e+06
   1.165604e+06  -6.514187e+05
   9.664336e+05   5.998175e+05
   1.526078e+05   1.392430e+06
  -5.695114e+05   1.025707e+06
  -7.230553e+05  -1.042906e+05
  -3.666789e+05  -9.147398e+05
   1.276537e+05  -7.708076e+05
   4.217627e+05  -8.281601e+04
   3.896438e+05   2.969895e+05
   1.584909e+05   1.156430e+05
   2.506670e+04  -8.344767e+04
   1.710018e+05   2.063691e+05
   3.784298e+05   7.362230e+05
   1.877332e+05   8.393691e+05
  -5.077025e+05   3.129050e+05
  -1.146889e+06  -3.574405e+05
  -1.026296e+06  -6.434558e+05
  -1.485548e+05  -5.317571e+05
   6.889814e+05  -3.225416e+05
   7.713254e+05  -1.545087e+05
   2.530503e+05   2.263108e+04
  -1.238649e+05   1.715620e+05
   8.221400e+03   1.755607e+05
   2.422796e+05   9.208343e+04
   2.485402e+04   1.053087e+05
  -5.504067e+05   1.694002e+05
  -8.035527e+05  -1.955502e+04
  -2.807946e+05  -5.290782e+05
   6.840460e+05  -8.880700e+05
   1.287821e+06  -5.570760e+05
   1.045320e+06   3.538381e+05
   1.985225e+05   1.091606e+06
  -5.827008e+05   1.049640e+06
  -8.096721e+05   3.916013e+05
  -5.112649e+05  -1.985146e+05
  -8.833537e+04  -2.762925e+05
   8.452887e+04  -3.160100e+04
  -5.105396e+04   3.594749e+04
  -2.475948e+05  -2.731101e+05
  -2.044387e+05  -6.232521e+05
   1.452712e+05  -5.171167e+05
   5.327097e+05   1.153306e+05
   5.514926e+05   7.561288e+05
   5.397908e+04   7.931578e+05
  -6.007489e+05   1.615513e+05
  -7.891920e+05  -5.840523e+05
  -2.487077e+05  -8.393453e+05
   5.555947e+05  -5.002220e+05
   8.479991e+05   6.663496e+04
   3.921819e+05   4.519032e+05
  -2.198739e+05   4.953858e+05
  -2.677562e+05   2.766974e+05
   2.184459e+05   1.690452e+04
   5.084370e+05  -2.618530e+04
   1.035789e+05   2.325563e+05
  -6.367155e+05   5.276384e+05
  -9.477102e+05   4.368056e+05
  -5.604808e+05  -1.160978e+05
   7.689788e+04  -6.599514e+05
   4.025133e+05  -6.488971e+05
   3.020119e+05  -1.048108e+05
   2.765581e+04   3.810743e+05
  -1.898703e+05   3.216019e+05
  -2.738224e+05  -1.370618e+05
  -1.924454e+05  -4.463680e+05
   4.754138e+04  -3.081338e+05
   3.009097e+05   4.476063e+04
   3.582423e+05   2.000898e+05
   1.864472e+05   5.954616e+04
  -1.408453e+04  -9.757570e+04
  -6.242296e+04   4.963119e+03
  -2.303173e+04   2.887723e+05
  -8.543941e+04   3.998179e+05
  -2.620097e+05   1.262061e+05
  -3.232428e+05  -3.212170e+05
  -7.972193e+04  -5.045122e+05
   3.270662e+05  -2.315810e+05
   4.975560e+05   2.313127e+05
   1.843687e+05   4.520992e+05
  -3.845656e+05   2.785285e+05
  -6.675403e+05  -6.880664e+04
  -3.628562e+05  -2.920176e+05
   2.270364e+05  -2.915971e+05
   4.873940e+05  -1.547767e+05
   1.753216e+05  -1.002814e+04
  -2.927801e+05   3.511960e+04
  -3.251225e+05  -7.430005e+04
   1.496788e+05  -2.406148e+05
   6.070771e+05  -2.097979e+05
