
 $NMID
 id='ANONYMOUS ', fmtdat='(2E16.6)'
 volume=1.0
 tramp=1.0
 $END
  -2.907556e+07   1.041720e+06
  -1.999986e+07  -1.349051e+07
  -3.582949e+05  -1.876829e+07
   1.254925e+07  -1.237107e+07
   1.062994e+07  -1.063190e+06
   6.313256e+05   5.317537e+06
  -5.926928e+06   2.532168e+06
  -4.408551e+06  -4.710953e+06
   1.402077e+06  -7.932058e+06
   5.443153e+06  -3.568466e+06
   4.767035e+06   3.621739e+06
   7.304166e+05   5.991482e+06
  -2.716671e+06   1.358236e+06
  -2.265277e+06  -4.871201e+06
   1.647719e+06  -5.866247e+06
   4.896436e+06  -6.033164e+05
   3.741049e+06   5.657744e+06
  -1.161022e+06   7.297036e+06
  -5.463858e+06   3.637460e+06
  -5.721253e+06  -1.439792e+06
  -2.636458e+06  -3.950154e+06
   1.825630e+05  -3.299870e+06
   1.097257e+05  -1.926866e+06
  -1.931080e+06  -2.217111e+06
  -2.489496e+06  -3.961230e+06
   6.683659e+05  -4.759093e+06
   5.623252e+06  -2.823734e+06
   7.673229e+06   8.772908e+05
   4.342592e+06   3.498226e+06
  -1.417761e+06   3.139565e+06
  -4.089531e+06   5.116034e+05
  -1.584451e+06  -1.952775e+06
   2.732020e+06  -2.164351e+06
   4.237520e+06   1.428348e+05
   2.048902e+06   3.140906e+06
  -9.225311e+05   4.106671e+06
  -1.879036e+06   1.904886e+06
  -7.973762e+05  -1.336979e+06
   4.785346e+05  -2.032582e+06
   4.909389e+05   6.539180e+05
  -7.653769e+05   3.337944e+06
  -2.111955e+06   2.348950e+06
  -2.067096e+06  -1.478257e+06
  -1.230419e+05  -3.568871e+06
   2.297305e+06  -1.257610e+06
   2.656600e+06   2.916971e+06
  -1.355455e+05   4.335832e+06
  -4.017823e+06   1.572921e+06
  -5.332009e+06  -2.525254e+06
  -2.473843e+06  -4.339519e+06
   2.238269e+06  -2.869444e+06
   4.682663e+06   1.148310e+05
   2.958333e+06   2.122308e+06
  -8.502915e+05   1.888087e+06
  -2.954534e+06   1.059959e+05
  -1.736482e+06  -1.297856e+06
   8.503758e+05  -9.691844e+05
   1.712271e+06   5.290408e+05
   8.858781e+04   1.384107e+06
  -1.774218e+06   5.872887e+05
  -1.366927e+06  -1.002087e+06
   1.133815e+06  -1.670520e+06
   3.016285e+06  -5.424973e+05
   1.988659e+06   1.753689e+06
  -1.397518e+06   3.586797e+06
  -4.371746e+06   3.365031e+06
  -4.718629e+06   7.474878e+05
  -2.700927e+06  -2.714757e+06
  -3.597827e+05  -4.613844e+06
   7.178256e+05  -3.952580e+06
   7.146053e+05  -2.131111e+06
   8.552273e+05  -1.155724e+06
   1.772639e+06  -1.182556e+06
   2.813017e+06  -6.433872e+05
   2.809663e+06   1.226034e+06
   1.310644e+06   2.961395e+06
  -9.137180e+05   2.536811e+06
  -2.367142e+06  -6.249863e+04
  -1.900132e+06  -2.617878e+06
   3.094121e+05  -2.947493e+06
   2.651454e+06  -9.515453e+05
   3.283334e+06   1.591924e+06
   1.822013e+06   2.860568e+06
  -2.530351e+05   2.476866e+06
  -1.213725e+06   1.452969e+06
  -1.017830e+06   9.374295e+05
  -1.175843e+06   1.054747e+06
  -2.582703e+06   9.102937e+05
  -4.023116e+06  -3.242200e+05
  -3.386796e+06  -2.384226e+06
  -2.671208e+05  -3.967044e+06
   3.187891e+06  -3.791973e+06
   4.282332e+06  -1.726351e+06
   2.441902e+06   9.321634e+05
  -3.203625e+05   2.333227e+06
  -1.503446e+06   1.608452e+06
  -4.797676e+05  -2.307493e+05
   1.216384e+06  -1.178373e+06
   1.701779e+06  -3.359923e+05
   6.306033e+05   1.055316e+06
  -6.822310e+05   1.103844e+06
  -7.750074e+05  -3.179752e+05
   4.871383e+05  -1.260382e+06
   1.840792e+06  -5.037317e+04
   1.810527e+06   2.528554e+06
  -3.633476e+03   3.930184e+06
  -2.528541e+06   2.584334e+06
  -3.958965e+06  -4.968420e+05
  -3.167693e+06  -2.863622e+06
  -7.456107e+05  -3.011892e+06
   1.377879e+06  -1.515691e+06
   1.671991e+06  -1.128024e+05
   4.901657e+05   4.101432e+04
  -3.788266e+05  -7.236170e+05
   2.467985e+05  -1.183441e+06
   1.593907e+06  -5.867184e+05
   1.891571e+06   5.868564e+05
   5.390900e+05   1.193820e+06
  -1.076337e+06   6.646762e+05
  -1.095607e+06  -4.092539e+05
   6.853601e+05  -8.821414e+05
   2.470963e+06  -1.477374e+05
   2.292202e+06   1.315479e+06
   5.515650e+04   2.327933e+06
  -2.324227e+06   1.967818e+06
  -2.809221e+06   4.059381e+05
  -1.201630e+06  -1.104181e+06
   7.835714e+05  -1.295560e+06
   1.294317e+06  -1.669508e+05
   8.806132e+04   9.288471e+05
  -1.434871e+06   7.051372e+05
  -1.737749e+06  -6.260668e+05
  -5.847916e+05  -1.607284e+06
   8.835824e+05  -1.215972e+06
   1.324029e+06   1.298896e+04
   4.629257e+05   6.819823e+05
  -6.548367e+05   1.135308e+05
  -6.869244e+05  -9.913373e+05
   6.076922e+05  -1.374162e+06
   1.998934e+06  -4.833516e+05
   1.985797e+06   1.050429e+06
   4.095827e+05   2.010289e+06
  -1.313281e+06   1.648665e+06
  -1.672252e+06   3.276371e+05
  -6.069101e+05  -8.042548e+05
   5.888241e+05  -8.691559e+05
   7.543456e+05  -7.177572e+04
  -8.973392e+03   5.912860e+05
  -6.751392e+05   4.488002e+05
  -4.947329e+05  -1.353127e+05
   2.632825e+05  -2.598589e+05
   6.468646e+05   3.991935e+05
   5.411756e+03   1.143199e+06
  -1.289434e+06   9.693027e+05
  -2.075888e+06  -3.390441e+05
  -1.476503e+06  -1.893555e+06
   1.827410e+05  -2.468760e+06
   1.624586e+06  -1.609198e+06
   1.868946e+06  -3.249432e+04
   1.132347e+06   1.048879e+06
   4.026160e+05   1.044422e+06
   2.687485e+05   4.518492e+05
   3.857765e+05   2.052708e+05
   7.220099e+04   5.986361e+05
  -7.803606e+05   9.644201e+05
  -1.496473e+06   4.851951e+05
  -1.248598e+06  -7.548455e+05
   1.082338e+05  -1.679200e+06
   1.733168e+06  -1.255942e+06
   2.347483e+06   4.048081e+05
   1.295869e+06   2.045111e+06
  -7.783948e+05   2.375250e+06
  -2.385668e+06   1.217788e+06
  -2.467577e+06  -4.130817e+05
  -1.271944e+06  -1.321468e+06
   3.825078e+04  -1.203015e+06
   5.625036e+05  -7.430223e+05
   3.865150e+05  -7.195154e+05
   2.370302e+05  -1.108476e+06
   5.935547e+05  -1.152128e+06
   1.187879e+06  -2.912173e+05
   1.306551e+06   1.083489e+06
   5.568933e+05   1.903814e+06
  -6.334809e+05   1.448835e+06
  -1.311037e+06   5.660668e+04
  -8.919510e+05  -1.181213e+06
   2.160486e+05  -1.392884e+06
   9.847185e+05  -6.115601e+05
   8.083371e+05   4.042617e+05
   9.144754e+04   9.266579e+05
  -2.805517e+05   8.318565e+05
   1.877481e+04   5.205624e+05
   3.917663e+05   3.842832e+05
   3.460669e+04   4.057030e+05
  -1.063455e+06   2.615895e+05
  -1.953740e+06  -2.496577e+05
  -1.635788e+06  -9.312489e+05
  -1.362169e+05  -1.327154e+06
   1.396908e+06  -1.118344e+06
   1.770097e+06  -4.169895e+05
   9.041725e+05   2.821282e+05
  -1.706090e+05   4.812672e+05
  -4.602668e+05   1.254569e+05
   2.250942e+04  -2.989981e+05
   5.055703e+05  -2.265939e+05
   4.626939e+05   3.411290e+05
   1.115282e+05   7.617780e+05
  -3.909390e+04   4.862285e+05
   1.567647e+05  -1.997499e+05
   3.961233e+05  -4.218571e+05
   3.090880e+05   2.144500e+05
  -2.059582e+05   1.042143e+06
  -8.834205e+05   1.052872e+06
  -1.188674e+06   9.644954e+04
  -6.906899e+05  -9.106285e+05
   4.016263e+05  -1.009532e+06
   1.155630e+06  -2.111018e+05
   7.186844e+05   6.161330e+05
  -6.613763e+05   6.917739e+05
  -1.669422e+06   3.938088e+03
  -1.223620e+06  -8.243571e+05
   3.338695e+05  -1.131467e+06
   1.553186e+06  -7.098753e+05
   1.385549e+06   7.206415e+04
   2.176179e+05   5.555457e+05
  -6.374761e+05   3.511785e+05
  -3.448535e+05  -2.449293e+05
   6.527942e+05  -4.590518e+05
   1.178018e+06   1.812139e+05
   5.524072e+05   1.240910e+06
  -7.396649e+05   1.664962e+06
  -1.569017e+06   8.039596e+05
  -1.269228e+06  -8.175269e+05
  -1.937150e+05  -1.854780e+06
   7.527440e+05  -1.400188e+06
   9.753217e+05   8.486024e+04
   5.432756e+05   1.204743e+06
  -1.003639e+05   1.064123e+06
  -5.394422e+05   1.423066e+05
  -5.654432e+05  -4.067308e+05
  -2.635904e+05  -1.745938e+05
  -1.293774e+04   1.293857e+05
  -1.510298e+05  -2.275404e+05
  -4.751059e+05  -9.529766e+05
  -3.177555e+05  -1.127346e+06
   5.945847e+05  -4.348512e+05
   1.529540e+06   4.712897e+05
   1.423495e+06   8.523871e+05
   2.074990e+05   6.900446e+05
  -9.649118e+05   4.175035e+05
  -1.042258e+06   2.261276e+05
  -2.908096e+05   7.891163e+03
   1.845443e+05  -2.191842e+05
  -7.390465e+04  -2.703053e+05
  -3.867069e+05  -1.653792e+05
  -4.904226e+03  -1.413303e+05
   7.998038e+05  -1.892334e+05
   1.049355e+06   4.972229e+04
   2.662235e+05   6.791375e+05
  -9.695863e+05   1.119954e+06
  -1.649527e+06   6.795387e+05
  -1.286253e+06  -5.055697e+05
  -2.261818e+05  -1.450223e+06
   7.544016e+05  -1.358039e+06
   1.064698e+06  -4.632713e+05
   6.794284e+05   3.050405e+05
   8.439330e+04   3.612875e+05
  -1.684432e+05  -4.686756e+03
   4.888479e+04  -9.576049e+04
   3.583673e+05   3.432483e+05
   2.927598e+05   8.245287e+05
  -2.085192e+05   6.640749e+05
  -7.105818e+05  -2.042034e+05
  -6.750327e+05  -1.043420e+06
   1.105420e+04  -1.031857e+06
   8.284755e+05  -1.387324e+05
   1.006799e+06   8.361236e+05
   2.751302e+05   1.101020e+06
  -7.440924e+05   6.027304e+05
  -1.081675e+06  -1.136661e+05
  -4.771690e+05  -5.512930e+05
   2.858370e+05  -5.901055e+05
   3.002894e+05  -3.512387e+05
  -3.453150e+05  -5.217370e+04
  -6.848911e+05   1.801549e+04
  -1.140417e+05  -2.941841e+05
   8.445993e+05  -6.964046e+05
   1.204693e+06  -6.142584e+05
   6.805948e+05   1.071447e+05
  -1.120624e+05   8.437284e+05
  -4.828449e+05   8.293084e+05
  -3.358194e+05   9.570405e+04
   1.721734e+03  -5.243864e+05
   2.627835e+05  -3.877217e+05
   3.582262e+05   2.374802e+05
   2.390637e+05   5.914750e+05
  -7.737587e+04   3.547767e+05
  -3.913800e+05  -8.630364e+04
  -4.528835e+05  -2.289365e+05
  -2.466154e+05  -4.697632e+04
  -6.858943e+03   8.432356e+04
   8.782263e+04  -9.336061e+04
   1.117583e+05  -4.090065e+05
   2.200263e+05  -4.578171e+05
   3.734725e+05  -6.122532e+04
   3.442057e+05   4.865191e+05
   8.861637e+02   6.666647e+05
  -4.594890e+05   2.710697e+05
  -6.124070e+05  -3.453381e+05
  -2.063145e+05  -6.176735e+05
   4.933111e+05  -3.539286e+05
   8.432395e+05   1.228465e+05
   4.566593e+05   3.899572e+05
  -3.002456e+05   3.392475e+05
  -6.252824e+05   1.469674e+05
  -1.873622e+05   4.886790e+03
   4.425234e+05   6.825647e+03
   4.457131e+05   1.657116e+05
  -2.525266e+05   3.471477e+05
  -8.826272e+05   2.582819e+05
