
 $NMID
 id='ANONYMOUS ', fmtdat='(2E16.6)'
 volume=1.0
 tramp=1.0
 $END
   4.042231e+07  -1.324373e+06
   2.629845e+07   2.201009e+07
  -2.391678e+06   2.699360e+07
  -1.871886e+07   1.369343e+07
  -1.324283e+07  -2.138772e+06
   9.064074e+05  -7.081098e+06
   7.634693e+06  -1.077259e+06
   3.861455e+06   6.843630e+06
  -3.345107e+06   8.633967e+06
  -7.221086e+06   3.025878e+06
  -5.762071e+06  -4.632638e+06
  -8.399819e+05  -7.074600e+06
   3.215177e+06  -1.971509e+06
   2.447501e+06   5.093893e+06
  -2.495162e+06   6.202673e+06
  -6.175530e+06  -1.216707e+05
  -4.151014e+06  -7.519047e+06
   2.126834e+06  -9.225387e+06
   7.327045e+06  -4.698491e+06
   7.850543e+06   1.560027e+06
   4.386444e+06   5.318721e+06
   3.162556e+05   5.504756e+06
  -1.176323e+06   3.709880e+06
   3.682074e+05   2.495126e+06
   1.881266e+06   3.228548e+06
  -2.799671e+05   4.492350e+06
  -5.480587e+06   3.491627e+06
  -8.469191e+06  -2.316197e+05
  -5.494425e+06  -3.683917e+06
   6.666983e+05  -3.909430e+06
   3.886911e+06  -1.377932e+06
   1.918057e+06   1.106529e+06
  -1.866929e+06   1.614308e+06
  -3.406414e+06   8.953500e+04
  -2.077128e+06  -2.419089e+06
   2.434718e+05  -3.996963e+06
   1.796262e+06  -2.717300e+06
   1.785979e+06   7.664988e+05
   4.768122e+05   2.650967e+06
  -5.510243e+05   4.279538e+05
   3.129956e+05  -2.947313e+06
   2.249037e+06  -2.344131e+06
   2.269879e+06   2.177952e+06
  -8.657558e+05   4.695628e+06
  -4.232865e+06   1.273660e+06
  -3.784697e+06  -4.516879e+06
   7.599577e+05  -6.119862e+06
   5.408760e+06  -2.017320e+06
   6.058187e+06   3.269842e+06
   2.265529e+06   5.050718e+06
  -2.750160e+06   2.840667e+06
  -4.958351e+06  -6.755513e+05
  -2.774238e+06  -2.697869e+06
   1.492461e+06  -2.058999e+06
   3.635714e+06   2.773387e+05
   1.862850e+06   1.883339e+06
  -1.200746e+06   1.161162e+06
  -1.738780e+06  -7.324087e+05
   5.056407e+05  -1.226947e+06
   2.122784e+06   3.632849e+05
   6.061774e+05   2.060530e+06
  -2.573927e+06   1.854753e+06
  -4.009117e+06  -1.831184e+05
  -2.182851e+06  -2.663544e+06
   1.516529e+06  -4.296487e+06
   4.592315e+06  -4.005757e+06
   5.306476e+06  -1.210745e+06
   3.501246e+06   2.847563e+06
   6.519389e+05   5.249214e+06
  -1.164931e+06   4.323742e+06
  -1.168178e+06   1.779462e+06
  -5.985476e+05   5.548470e+05
  -1.024558e+06   1.061224e+06
  -2.282552e+06   1.102916e+06
  -2.785059e+06  -6.067055e+05
  -1.598400e+06  -2.516471e+06
   5.249238e+05  -2.361454e+06
   2.028710e+06  -3.857653e+04
   1.808982e+06   2.397824e+06
  -1.706170e+05   2.943381e+06
  -2.685376e+06   1.257938e+06
  -3.779022e+06  -1.389035e+06
  -2.436928e+06  -3.200240e+06
   1.147560e+05  -3.204580e+06
   1.623342e+06  -2.009742e+06
   1.517406e+06  -1.053291e+06
   1.457556e+06  -9.204934e+05
   2.745953e+06  -7.487824e+05
   4.179769e+06   4.881560e+05
   3.452354e+06   2.538545e+06
   2.254052e+05   4.048203e+06
  -3.191673e+06   3.858024e+06
  -4.235911e+06   1.906456e+06
  -2.531198e+06  -7.088609e+05
   6.637016e+04  -2.287115e+06
   1.328056e+06  -1.745970e+06
   5.142987e+05   1.467155e+05
  -1.160661e+06   1.239516e+06
  -1.793843e+06   3.737570e+05
  -7.629556e+05  -1.114843e+06
   6.134869e+05  -1.112043e+06
   6.362139e+05   3.556273e+05
  -7.431483e+05   1.044264e+06
  -1.886839e+06  -5.071354e+05
  -1.355103e+06  -2.964487e+06
   6.768434e+05  -3.763105e+06
   2.824531e+06  -1.992529e+06
   3.720890e+06   9.059327e+05
   2.804656e+06   2.844703e+06
   6.217789e+05   2.858057e+06
  -1.322787e+06   1.499268e+06
  -1.636104e+06   1.634108e+05
  -4.936622e+05  -4.247763e+04
   3.747723e+05   7.389151e+05
  -3.121759e+05   1.261841e+06
  -1.735003e+06   5.982237e+05
  -1.971615e+06  -7.109218e+05
  -4.847839e+05  -1.299265e+06
   1.124075e+06  -6.343168e+05
   1.015826e+06   4.331754e+05
  -7.646408e+05   7.368085e+05
  -2.368428e+06  -5.373286e+04
  -2.071228e+06  -1.347478e+06
   7.890344e+04  -2.192621e+06
   2.332037e+06  -1.846833e+06
   2.810360e+06  -3.557077e+05
   1.220919e+06   1.177071e+06
  -8.384814e+05   1.396994e+06
  -1.415565e+06   1.870526e+05
  -1.437499e+05  -9.970037e+05
   1.475737e+06  -7.285381e+05
   1.744384e+06   6.937325e+05
   4.851364e+05   1.641165e+06
  -9.829341e+05   1.126295e+06
  -1.310739e+06  -1.420628e+05
  -3.757394e+05  -7.345041e+05
   7.211814e+05  -9.512229e+04
   7.171068e+05   1.019760e+06
  -5.912527e+05   1.403999e+06
  -2.010181e+06   5.175608e+05
  -2.020852e+06  -1.049499e+06
  -4.069952e+05  -2.049221e+06
   1.372672e+06  -1.661452e+06
   1.708060e+06  -2.825491e+05
   5.682122e+05   8.394123e+05
  -6.228421e+05   8.492462e+05
  -7.064850e+05   7.317549e+04
   6.022793e+04  -4.969496e+05
   6.029485e+05  -3.440668e+05
   3.337428e+05   1.129243e+05
  -3.522070e+05   1.191447e+05
  -6.006542e+05  -5.217239e+05
   8.367712e+04  -1.172763e+06
   1.336003e+06  -9.468116e+05
   2.091619e+06   3.686343e+05
   1.484797e+06   1.922045e+06
  -1.942973e+05   2.462116e+06
  -1.630710e+06   1.534899e+06
  -1.804239e+06  -3.759877e+04
  -1.016019e+06  -9.927768e+05
  -3.590921e+05  -8.799579e+05
  -3.557218e+05  -3.467100e+05
  -4.957784e+05  -2.461098e+05
  -8.585698e+04  -6.726027e+05
   8.255439e+05  -9.446772e+05
   1.484856e+06  -4.189303e+05
   1.167504e+06   7.463074e+05
  -1.729127e+05   1.594507e+06
  -1.738189e+06   1.185042e+06
  -2.318277e+06  -4.384256e+05
  -1.237637e+06  -2.080701e+06
   8.783335e+05  -2.391087e+06
   2.468760e+06  -1.151894e+06
   2.436627e+06   5.207611e+05
   1.143488e+06   1.341401e+06
  -1.159263e+05   1.100950e+06
  -4.938003e+05   6.416110e+05
  -2.509700e+05   7.309123e+05
  -1.720726e+05   1.198286e+06
  -6.241394e+05   1.221280e+06
  -1.239005e+06   3.104293e+05
  -1.329676e+06  -1.083574e+06
  -5.644465e+05  -1.908246e+06
   6.282521e+05  -1.452733e+06
   1.308203e+06  -3.382220e+04
   8.672356e+05   1.232025e+06
  -2.903016e+05   1.406556e+06
  -1.071775e+06   5.313211e+05
  -8.222306e+05  -5.328687e+05
  -3.842978e+03  -1.002075e+06
   3.935455e+05  -8.216905e+05
   2.829808e+04  -4.801103e+05
  -4.114550e+05  -3.627317e+05
  -4.620215e+04  -3.968903e+05
   1.106808e+06  -2.449404e+05
   2.014243e+06   2.793741e+05
   1.641116e+06   9.785993e+05
   6.677903e+04   1.385714e+06
  -1.485239e+06   1.142795e+06
  -1.809159e+06   3.638921e+05
  -8.842632e+05  -3.767405e+05
   2.078045e+05  -5.252586e+05
   4.873557e+05  -8.806603e+04
   4.727299e+03   3.529936e+05
  -4.790337e+05   2.413092e+05
  -4.743639e+05  -3.415512e+05
  -1.763160e+05  -7.441484e+05
  -2.216420e+04  -4.820331e+05
  -1.511263e+05   1.536608e+05
  -3.480064e+05   3.642062e+05
  -2.963486e+05  -2.230948e+05
   1.764062e+05  -1.020851e+06
   8.908584e+05  -1.067278e+06
   1.269527e+06  -1.412558e+05
   7.698106e+05   9.099912e+05
  -4.025932e+05   1.074779e+06
  -1.203209e+06   2.758735e+05
  -7.300564e+05  -5.970662e+05
   6.824757e+05  -6.789148e+05
   1.644303e+06   3.879832e+04
   1.134695e+06   8.489836e+05
  -4.046953e+05   1.077894e+06
  -1.541176e+06   6.113956e+05
  -1.327063e+06  -1.268505e+05
  -1.812141e+05  -5.414184e+05
   6.478293e+05  -3.180526e+05
   3.673289e+05   2.664651e+05
  -6.214444e+05   4.915080e+05
  -1.184944e+06  -1.306001e+05
  -6.144842e+05  -1.214371e+06
   6.656403e+05  -1.691208e+06
   1.532584e+06  -8.514299e+05
   1.272551e+06   7.891976e+05
   2.051369e+05   1.835471e+06
  -7.490458e+05   1.361767e+06
  -9.609235e+05  -1.262506e+05
  -4.981499e+05  -1.207426e+06
   1.561869e+05  -1.029770e+06
   5.547762e+05  -1.184900e+05
   5.224127e+05   3.960267e+05
   2.170514e+05   1.599193e+05
   3.072555e+04  -1.151215e+05
   2.169934e+05   2.567724e+05
   4.994668e+05   9.624375e+05
   2.620989e+05   1.113935e+06
  -6.557450e+05   4.248895e+05
  -1.515144e+06  -4.662881e+05
  -1.366715e+06  -8.486915e+05
  -2.012961e+05  -6.984680e+05
   9.148470e+05  -4.220965e+05
   1.021202e+06  -2.092052e+05
   3.289950e+05   1.828332e+04
  -1.653978e+05   2.235532e+05
   1.944029e+04   2.432516e+05
   3.275693e+05   1.333182e+05
   2.822968e+04   1.365626e+05
  -7.339606e+05   2.136787e+05
  -1.054436e+06  -2.491078e+04
  -3.558300e+05  -6.832369e+05
   9.037647e+05  -1.158324e+06
   1.679849e+06  -7.346435e+05
   1.358881e+06   4.596601e+05
   2.598500e+05   1.435320e+06
  -7.572575e+05   1.381771e+06
  -1.059129e+06   5.107893e+05
  -6.715272e+05  -2.667442e+05
  -1.124250e+05  -3.600944e+05
   1.171869e+05  -2.912802e+04
  -6.788437e+04   5.762154e+04
  -3.344633e+05  -3.580731e+05
  -2.763072e+05  -8.220937e+05
   1.900703e+05  -6.772107e+05
   6.991453e+05   1.588977e+05
   7.171108e+05   9.965991e+05
   6.193310e+04   1.034832e+06
  -7.903853e+05   1.997424e+05
  -1.030742e+06  -7.737856e+05
  -3.230250e+05  -1.098541e+06
   7.262674e+05  -6.506066e+05
   1.108417e+06   8.482355e+04
   5.155278e+05   5.818359e+05
  -2.808963e+05   6.427413e+05
  -3.407310e+05   3.678549e+05
   2.952480e+05   3.126488e+04
   6.705007e+05  -3.296454e+04
   1.346720e+05   3.016080e+05
  -8.366896e+05   6.977713e+05
  -1.241104e+06   5.905713e+05
  -7.322929e+05  -1.370347e+05
   9.752548e+04  -8.639157e+05
   5.161055e+05  -8.559780e+05
   3.826202e+05  -1.373719e+05
   2.981059e+04   5.022795e+05
  -2.474848e+05   4.170295e+05
  -3.559772e+05  -1.888028e+05
  -2.528794e+05  -5.860680e+05
   5.925091e+04  -3.957276e+05
   3.932381e+05   6.172836e+04
   4.723112e+05   2.538932e+05
   2.486176e+05   7.200363e+04
  -1.834513e+04  -1.184958e+05
  -9.047409e+04   2.160884e+04
  -4.549891e+04   3.784674e+05
  -1.234339e+05   5.057095e+05
  -3.404140e+05   1.467233e+05
  -4.076051e+05  -4.254587e+05
  -8.916257e+04  -6.553956e+05
   4.315521e+05  -2.982245e+05
   6.453070e+05   3.054293e+05
   2.368294e+05   5.950454e+05
  -5.014260e+05   3.675644e+05
  -8.701920e+05  -8.968608e+04
  -4.750880e+05  -3.816980e+05
   2.938147e+05  -3.771550e+05
   6.331764e+05  -1.977670e+05
   2.224417e+05  -1.631474e+04
  -3.908010e+05   3.368768e+04
  -4.258048e+05  -1.094960e+05
   2.080629e+05  -3.182224e+05
   8.112147e+05  -2.692362e+05
