
 $NMID
 id='ANONYMOUS ', fmtdat='(2E16.6)'
 volume=1.0
 tramp=1.0
 $END
  -6.252233e+07  -7.193596e+04
  -3.706179e+07  -3.953157e+07
   9.074674e+06  -4.242968e+07
   3.082528e+07  -1.528407e+07
   1.774794e+07   8.665394e+06
  -4.125161e+06   1.020075e+07
  -1.065346e+07  -1.970451e+06
  -2.479623e+06  -1.082985e+07
   7.151407e+06  -9.685999e+06
   1.054432e+07  -1.725095e+06
   7.552591e+06   6.745103e+06
   9.101427e+05   9.214417e+06
  -4.286523e+06   3.090281e+06
  -2.803237e+06  -5.574674e+06
   4.158422e+06  -6.750915e+06
   8.536815e+06   1.711890e+06
   4.669741e+06   1.119944e+07
  -4.298054e+06   1.283746e+07
  -1.113481e+07   6.474774e+06
  -1.199174e+07  -2.157505e+06
  -7.549284e+06  -8.295098e+06
  -8.843460e+05  -9.864565e+06
   3.538843e+06  -6.951861e+06
   2.638152e+06  -2.750493e+06
  -9.084832e+05  -1.741369e+06
  -5.369256e+05  -4.109853e+06
   5.372754e+06  -4.862029e+06
   1.019483e+07  -8.991061e+05
   7.729290e+06   4.252186e+06
   6.395969e+05   5.552778e+06
  -3.686790e+06   3.101842e+06
  -2.737891e+06   4.456456e+05
   1.178479e+05  -7.605879e+05
   1.902536e+06  -7.214162e+05
   2.320866e+06   1.055217e+06
   1.112444e+06   3.965786e+06
  -1.789843e+06   4.332534e+06
  -3.807794e+06   1.429485e+05
  -2.203521e+06  -4.035232e+06
   8.797726e+05  -2.486381e+06
   6.429163e+05   2.323912e+06
  -2.518269e+06   2.351053e+06
  -2.558584e+06  -3.552951e+06
   2.949793e+06  -6.699520e+06
   7.960736e+06  -9.640006e+05
   5.686220e+06   7.810662e+06
  -2.273636e+06   9.466852e+06
  -8.193067e+06   2.646398e+06
  -7.380319e+06  -4.828395e+06
  -1.786915e+06  -6.403577e+06
   3.725072e+06  -2.732122e+06
   5.426576e+06   1.769274e+06
   2.362374e+06   3.758929e+06
  -2.740068e+06   2.282750e+06
  -4.889994e+06  -1.116222e+06
  -2.021830e+06  -3.019393e+06
   1.904604e+06  -1.472414e+06
   1.769728e+06   1.115798e+06
  -1.600365e+06   8.197758e+05
  -2.619081e+06  -2.231268e+06
   1.034459e+06  -3.938297e+06
   5.370038e+06  -1.956613e+06
   5.803859e+06   1.733334e+06
   2.418143e+06   4.449340e+06
  -1.868395e+06   5.689360e+06
  -5.162009e+06   5.267256e+06
  -6.570023e+06   2.032408e+06
  -5.062071e+06  -3.263199e+06
  -1.133099e+06  -6.568670e+06
   2.065466e+06  -4.999304e+06
   1.959203e+06  -1.054228e+06
  -4.468502e+03   5.212807e+05
  -4.154696e+05  -9.979777e+05
   1.382349e+06  -2.106152e+06
   2.892001e+06  -5.874927e+05
   2.265452e+06   1.738149e+06
   2.625934e+05   2.126588e+06
  -1.419112e+06   3.103740e+05
  -1.710216e+06  -1.969676e+06
  -1.146507e+05  -2.990963e+06
   2.826642e+06  -1.866914e+06
   4.813699e+06   1.085627e+06
   3.594691e+06   3.984264e+06
   3.063803e+04   4.656181e+06
  -2.516877e+06   3.028229e+06
  -2.503803e+06   1.202127e+06
  -1.979911e+06   6.306203e+05
  -3.052183e+06   4.345839e+05
  -4.497464e+06  -8.098106e+05
  -3.603537e+06  -2.850221e+06
  -1.592690e+05  -4.236949e+06
   3.221657e+06  -4.046824e+06
   4.214612e+06  -2.309425e+06
   2.774478e+06   2.888948e+05
   4.416595e+05   2.271471e+06
  -1.018293e+06   2.069227e+06
  -5.984322e+05   1.071348e+04
   1.069259e+06  -1.384439e+06
   1.988106e+06  -4.428248e+05
   1.017304e+06   1.257232e+06
  -4.785478e+05   1.152220e+06
  -3.673241e+05  -4.000341e+05
   1.191487e+06  -5.930916e+05
   1.886747e+06   1.577183e+06
   4.342379e+05   3.730048e+06
  -1.909010e+06   3.355524e+06
  -3.289561e+06   8.459276e+05
  -3.234498e+06  -1.621761e+06
  -2.167453e+06  -2.746661e+06
  -4.426582e+05  -2.566728e+06
   1.218045e+06  -1.505673e+06
   1.593153e+06  -2.821715e+05
   5.056991e+05   4.160167e+04
  -3.711802e+05  -7.721342e+05
   4.484641e+05  -1.411544e+06
   2.018871e+06  -6.080605e+05
   2.121117e+06   9.567993e+05
   3.713811e+05   1.495482e+06
  -1.215171e+06   5.756442e+05
  -8.673996e+05  -4.632381e+05
   8.954759e+05  -4.548040e+05
   2.160644e+06   4.064804e+05
   1.673402e+06   1.367737e+06
  -2.957959e+05   1.931768e+06
  -2.335650e+06   1.649157e+06
  -2.828915e+06   2.834013e+05
  -1.263808e+06  -1.321576e+06
   9.609502e+05  -1.598208e+06
   1.661770e+06  -2.136294e+05
   2.434469e+05   1.145001e+06
  -1.567851e+06   7.806310e+05
  -1.764618e+06  -8.193864e+05
  -3.037325e+05  -1.697540e+06
   1.155662e+06  -9.512369e+05
   1.270831e+06   3.788474e+05
   2.044305e+05   8.196727e+05
  -8.517959e+05   4.765786e+04
  -7.807514e+05  -1.089866e+06
   5.668070e+05  -1.483674e+06
   2.058965e+06  -5.978584e+05
   2.116809e+06   1.053663e+06
   4.122476e+05   2.141880e+06
  -1.490800e+06   1.700683e+06
  -1.781432e+06   2.055391e+05
  -4.976720e+05  -9.003619e+05
   6.835577e+05  -8.143197e+05
   6.187878e+05  -8.979410e+04
  -1.407836e+05   3.106156e+05
  -4.503681e+05   1.627397e+05
  -3.343359e+04  -4.003887e+04
   5.008427e+05   1.632735e+05
   5.005981e+05   7.505609e+05
  -2.532538e+05   1.227809e+06
  -1.430866e+06   9.150660e+05
  -2.142676e+06  -4.190565e+05
  -1.524857e+06  -1.990154e+06
   1.994674e+05  -2.475464e+06
   1.633490e+06  -1.419608e+06
   1.685992e+06   1.454534e+05
   8.238820e+05   8.638532e+05
   3.207525e+05   5.620453e+05
   5.514982e+05   1.640500e+05
   7.072792e+05   3.470494e+05
   1.040750e+05   8.266345e+05
  -9.118057e+05   9.170504e+05
  -1.466531e+06   3.104732e+05
  -1.035237e+06  -7.155410e+05
   2.708448e+05  -1.440954e+06
   1.747259e+06  -1.074572e+06
   2.285872e+06   4.866336e+05
   1.146081e+06   2.152595e+06
  -1.067766e+06   2.433453e+06
  -2.634215e+06   1.037778e+06
  -2.385103e+06  -7.098023e+05
  -9.142678e+05  -1.359690e+06
   2.380756e+05  -9.017859e+05
   3.422604e+05  -4.714403e+05
  -9.633531e+03  -7.901979e+05
   5.844455e+04  -1.398274e+06
   6.947520e+05  -1.365652e+06
   1.352443e+06  -3.490400e+05
   1.396146e+06   1.091037e+06
   5.973003e+05   1.935110e+06
  -6.157388e+05   1.481059e+06
  -1.311704e+06  -5.724095e+02
  -8.269141e+05  -1.332509e+06
   4.294921e+05  -1.435059e+06
   1.231087e+06  -3.720574e+05
   8.356053e+05   7.838762e+05
  -1.734499e+05   1.140655e+06
  -6.081964e+05   7.905331e+05
  -1.074173e+05   3.975098e+05
   4.621473e+05   3.264338e+05
   7.441124e+04   3.872615e+05
  -1.198499e+06   2.152355e+05
  -2.150716e+06  -3.381760e+05
  -1.666997e+06  -1.070878e+06
   6.973999e+04  -1.499315e+06
   1.669599e+06  -1.194540e+06
   1.890444e+06  -2.700974e+05
   8.382022e+05   5.530741e+05
  -2.872541e+05   6.100994e+05
  -5.370627e+05   1.500031e+04
  -4.982143e+04  -4.674776e+05
   4.338372e+05  -2.827315e+05
   5.052993e+05   3.444218e+05
   3.135313e+05   7.306998e+05
   1.454784e+05   4.917515e+05
   1.315863e+05  -6.932287e+04
   2.455747e+05  -2.693836e+05
   2.761564e+05   2.391747e+05
  -1.097845e+05   1.000607e+06
  -9.123199e+05   1.112594e+06
  -1.449916e+06   2.210114e+05
  -9.384130e+05  -9.307538e+05
   4.152109e+05  -1.216150e+06
   1.320677e+06  -4.034054e+05
   7.690427e+05   5.637664e+05
  -7.229962e+05   6.627367e+05
  -1.605901e+06  -1.038636e+05
  -9.773483e+05  -8.792832e+05
   5.267632e+05  -9.753564e+05
   1.510569e+06  -4.421249e+05
   1.218711e+06   2.124419e+05
   1.197200e+05   5.112946e+05
  -6.657968e+05   2.596570e+05
  -4.117858e+05  -3.134459e+05
   5.715086e+05  -5.705308e+05
   1.223137e+06   2.748632e+04
   7.557094e+05   1.185258e+06
  -5.227777e+05   1.781333e+06
  -1.482683e+06   9.721141e+05
  -1.305243e+06  -7.340911e+05
  -2.476312e+05  -1.819608e+06
   7.321144e+05  -1.309281e+06
   9.363497e+05   1.977731e+05
   4.245778e+05   1.213440e+06
  -2.518970e+05   9.643051e+05
  -5.853031e+05   7.409979e+04
  -4.499583e+05  -3.673434e+05
  -1.332153e+05  -1.221275e+05
  -6.145618e+04   8.513162e+04
  -3.427909e+05  -3.286812e+05
  -5.571102e+05  -9.928825e+05
  -1.681032e+05  -1.086470e+06
   7.762703e+05  -4.021824e+05
   1.508680e+06   4.474744e+05
   1.279252e+06   8.289986e+05
   1.951126e+05   7.201445e+05
  -8.259971e+05   4.533246e+05
  -9.869385e+05   1.907906e+05
  -4.014987e+05  -7.477039e+04
   1.291205e+05  -2.396278e+05
   7.800890e+04  -1.820491e+05
  -2.244854e+05  -5.834535e+04
  -7.541401e+04  -1.340150e+05
   6.185850e+05  -2.826359e+05
   1.081607e+06  -2.924155e+04
   5.375467e+05   7.151878e+05
  -7.858782e+05   1.266098e+06
  -1.763656e+06   8.557329e+05
  -1.528164e+06  -3.810242e+05
  -3.418858e+05  -1.427950e+06
   7.664363e+05  -1.448620e+06
   1.067023e+06  -6.175173e+05
   6.739173e+05   1.894223e+05
   1.705842e+05   3.672319e+05
  -2.628998e+04   1.065582e+05
   9.711759e+04   1.910223e+04
   2.913631e+05   3.835886e+05
   2.536571e+05   8.212354e+05
  -1.545604e+05   7.152024e+05
  -6.953395e+05  -6.576319e+04
  -8.235146e+05  -9.206379e+05
  -2.110231e+05  -1.066874e+06
   7.366236e+05  -3.340285e+05
   1.107540e+06   6.589668e+05
   4.282355e+05   1.113827e+06
  -7.052416e+05   7.599884e+05
  -1.179647e+06  -2.743931e+04
  -5.934964e+05  -6.522229e+05
   2.812262e+05  -7.552400e+05
   4.240677e+05  -3.978914e+05
  -2.062185e+05   2.199435e+04
  -6.533116e+05   7.035333e+04
  -1.769810e+05  -3.228372e+05
   8.258865e+05  -7.161116e+05
   1.316281e+06  -5.527574e+05
   8.354797e+05   2.019233e+05
  -6.823303e+04   9.164718e+05
  -5.856640e+05   9.141922e+05
  -4.855388e+05   2.127806e+05
  -9.976830e+04  -4.715458e+05
   2.237343e+05  -4.837579e+05
   3.673883e+05   9.338162e+04
   2.880338e+05   5.832812e+05
  -3.046819e+04   4.838842e+05
  -4.068416e+05  -1.225463e+04
  -5.118591e+05  -3.057020e+05
  -2.506015e+05  -1.198535e+05
   6.101411e+04   1.912902e+05
   8.134639e+04   1.171631e+05
  -9.168039e+04  -3.377716e+05
  -5.617846e+04  -6.255009e+05
   2.969955e+05  -3.236985e+05
   5.511654e+05   3.221190e+05
   2.686284e+05   6.588966e+05
  -3.858057e+05   3.633934e+05
  -7.271652e+05  -2.336886e+05
  -3.078483e+05  -5.626945e+05
   5.230823e+05  -4.001980e+05
   9.399724e+05   2.571016e+04
   5.207022e+05   3.703694e+05
  -2.898176e+05   4.583491e+05
  -6.647039e+05   3.015180e+05
  -2.951978e+05   3.309843e+04
   3.030309e+05  -1.262447e+05
   4.044544e+05  -5.675242e+03
  -1.157453e+05   2.764514e+05
  -6.820810e+05   3.144823e+05
