
 $NMID
 id='ANONYMOUS ', fmtdat='(2E16.6)'
 volume=1.0
 tramp=1.0
 $END
   4.085665e+07  -6.496522e+05
   2.572116e+07   2.284853e+07
  -3.246872e+06   2.702723e+07
  -1.890666e+07   1.304462e+07
  -1.281880e+07  -2.580816e+06
   1.178624e+06  -6.920890e+06
   7.417952e+06  -7.781709e+05
   3.529459e+06   6.773934e+06
  -3.416593e+06   8.283682e+06
  -7.111621e+06   2.779295e+06
  -5.699042e+06  -4.646000e+06
  -8.433807e+05  -7.016847e+06
   3.231706e+06  -2.003565e+06
   2.488805e+06   4.947938e+06
  -2.444631e+06   6.009762e+06
  -6.076453e+06  -2.563006e+05
  -4.001458e+06  -7.524408e+06
   2.257415e+06  -9.143941e+06
   7.417710e+06  -4.620415e+06
   7.942931e+06   1.650502e+06
   4.434639e+06   5.503871e+06
   1.909868e+05   5.717451e+06
  -1.457261e+06   3.726087e+06
   1.624863e+05   2.230904e+06
   1.925967e+06   2.905789e+06
  -7.501782e+04   4.391371e+06
  -5.320174e+06   3.633830e+06
  -8.436712e+06  -5.164843e+04
  -5.556175e+06  -3.640399e+06
   5.633665e+05  -4.025825e+06
   3.839667e+06  -1.576575e+06
   2.055693e+06   9.616641e+05
  -1.578309e+06   1.660028e+06
  -3.226530e+06   3.185157e+05
  -2.183685e+06  -2.204851e+06
   3.100061e+04  -3.970862e+06
   1.784742e+06  -2.807392e+06
   1.970984e+06   7.641282e+05
   5.688369e+05   2.786018e+06
  -6.887124e+05   5.694287e+05
   1.164608e+05  -2.882304e+06
   2.148569e+06  -2.311028e+06
   2.184251e+06   2.187889e+06
  -1.029563e+06   4.596579e+06
  -4.353064e+06   1.061494e+06
  -3.709718e+06  -4.683608e+06
   9.376413e+05  -6.122234e+06
   5.465002e+06  -1.949239e+06
   5.957574e+06   3.242686e+06
   2.189589e+06   4.923259e+06
  -2.671796e+06   2.747092e+06
  -4.791157e+06  -6.568552e+05
  -2.651188e+06  -2.607876e+06
   1.514176e+06  -1.965383e+06
   3.577114e+06   3.349256e+05
   1.787066e+06   1.883651e+06
  -1.215130e+06   1.131452e+06
  -1.680544e+06  -7.022669e+05
   5.221053e+05  -1.095946e+06
   1.982201e+06   4.846457e+05
   3.795865e+05   2.024330e+06
  -2.683260e+06   1.681380e+06
  -3.933215e+06  -3.257848e+05
  -2.080567e+06  -2.690280e+06
   1.490074e+06  -4.292749e+06
   4.490282e+06  -4.059042e+06
   5.275954e+06  -1.282067e+06
   3.561422e+06   2.817412e+06
   7.070468e+05   5.214778e+06
  -1.144125e+06   4.215880e+06
  -1.104266e+06   1.643711e+06
  -4.464597e+05   5.084798e+05
  -8.506009e+05   1.146830e+06
  -2.185785e+06   1.264770e+06
  -2.806285e+06  -4.357004e+05
  -1.715381e+06  -2.387632e+06
   3.760548e+05  -2.337823e+06
   1.937710e+06  -1.469741e+05
   1.832444e+06   2.243977e+06
  -7.698257e+04   2.882957e+06
  -2.628171e+06   1.322715e+06
  -3.802373e+06  -1.303600e+06
  -2.480105e+06  -3.187079e+06
   1.206410e+05  -3.237128e+06
   1.666184e+06  -2.010035e+06
   1.535331e+06  -1.004450e+06
   1.414619e+06  -8.703160e+05
   2.650693e+06  -7.466381e+05
   4.072070e+06   4.210973e+05
   3.402022e+06   2.416373e+06
   2.968309e+05   3.934068e+06
  -3.021101e+06   3.833125e+06
  -4.090828e+06   1.983983e+06
  -2.520272e+06  -6.112412e+05
  -3.074911e+04  -2.253885e+06
   1.244479e+06  -1.771541e+06
   5.192391e+05   1.239584e+05
  -1.100013e+06   1.247681e+06
  -1.751955e+06   3.968161e+05
  -7.767907e+05  -1.092308e+06
   5.615406e+05  -1.105020e+06
   6.012750e+05   3.165259e+05
  -7.026947e+05   9.652143e+05
  -1.772193e+06  -5.329704e+05
  -1.261124e+06  -2.844245e+06
   6.383791e+05  -3.553060e+06
   2.654130e+06  -1.878538e+06
   3.545833e+06   8.148176e+05
   2.745123e+06   2.643399e+06
   6.765105e+05   2.723759e+06
  -1.240028e+06   1.493945e+06
  -1.588092e+06   2.096652e+05
  -4.808959e+05  -3.016582e+04
   3.785284e+05   7.108889e+05
  -2.943858e+05   1.234834e+06
  -1.693105e+06   6.030055e+05
  -1.925314e+06  -6.734363e+05
  -4.782049e+05  -1.257628e+06
   1.079980e+06  -6.308890e+05
   9.823900e+05   3.897345e+05
  -7.167591e+05   7.026917e+05
  -2.260443e+06  -1.007694e+04
  -2.009396e+06  -1.233947e+06
   2.452877e+04  -2.094829e+06
   2.206667e+06  -1.831633e+06
   2.715430e+06  -4.046631e+05
   1.206076e+06   1.127697e+06
  -8.040587e+05   1.383035e+06
  -1.390452e+06   2.002822e+05
  -1.606489e+05  -9.826743e+05
   1.426016e+06  -7.396524e+05
   1.702361e+06   6.436222e+05
   4.910321e+05   1.573561e+06
  -9.296112e+05   1.090403e+06
  -1.256262e+06  -1.236107e+05
  -3.620572e+05  -6.996094e+05
   7.056823e+05  -9.669311e+04
   7.209136e+05   9.831795e+05
  -5.440929e+05   1.385233e+06
  -1.948299e+06   5.533312e+05
  -1.993682e+06  -9.774588e+05
  -4.376994e+05  -1.986870e+06
   1.304828e+06  -1.639965e+06
   1.651278e+06  -3.033699e+05
   5.610070e+05   8.013353e+05
  -5.873087e+05   8.317296e+05
  -6.780061e+05   9.431053e+04
   4.113947e+04  -4.640448e+05
   5.533888e+05  -3.440742e+05
   3.078944e+05   7.623951e+04
  -3.321221e+05   9.217291e+04
  -5.725755e+05  -5.033711e+05
   7.013893e+04  -1.133471e+06
   1.279524e+06  -9.421301e+05
   2.039607e+06   3.153670e+05
   1.485464e+06   1.838188e+06
  -1.313693e+05   2.394679e+06
  -1.538625e+06   1.518722e+06
  -1.735055e+06   5.603608e+03
  -1.002583e+06  -9.159792e+05
  -3.873288e+05  -8.171412e+05
  -3.813066e+05  -3.261576e+05
  -4.975003e+05  -2.489702e+05
  -9.103137e+04  -6.641851e+05
   7.833863e+05  -9.288197e+05
   1.422448e+06  -4.350303e+05
   1.142701e+06   6.849079e+05
  -1.271426e+05   1.532981e+06
  -1.652108e+06   1.182412e+06
  -2.254721e+06  -3.719256e+05
  -1.238547e+06  -1.989778e+06
   8.137284e+05  -2.332438e+06
   2.374369e+06  -1.156415e+06
   2.360384e+06   4.593901e+05
   1.121861e+06   1.261019e+06
  -8.306762e+04   1.047170e+06
  -4.405900e+05   6.307650e+05
  -2.091993e+05   7.372124e+05
  -1.426089e+05   1.190430e+06
  -5.918863e+05   1.206880e+06
  -1.206692e+06   3.262717e+05
  -1.320973e+06  -1.025021e+06
  -5.938948e+05  -1.842867e+06
   5.761731e+05  -1.427822e+06
   1.266869e+06  -6.076150e+04
   8.610438e+05   1.180590e+06
  -2.614333e+05   1.365081e+06
  -1.029928e+06   5.178003e+05
  -7.952807e+05  -5.186811e+05
  -4.195261e+03  -9.719600e+05
   3.777113e+05  -7.902557e+05
   1.708345e+04  -4.547124e+05
  -4.144574e+05  -3.424671e+05
  -5.734495e+04  -3.850828e+05
   1.073686e+06  -2.557951e+05
   1.968665e+06   2.367163e+05
   1.612053e+06   9.198525e+05
   7.923643e+04   1.343604e+06
  -1.432573e+06   1.136502e+06
  -1.747503e+06   3.831358e+05
  -8.518247e+05  -3.559139e+05
   2.010920e+05  -5.163540e+05
   4.700900e+05  -8.797099e+04
   9.312517e+03   3.545052e+05
  -4.579552e+05   2.518374e+05
  -4.706996e+05  -3.222818e+05
  -2.008291e+05  -7.256702e+05
  -4.229613e+04  -4.760202e+05
  -1.358427e+05   1.472645e+05
  -3.146848e+05   3.609181e+05
  -2.905425e+05  -2.093372e+05
   1.399289e+05  -9.977439e+05
   8.438559e+05  -1.059498e+06
   1.248639e+06  -1.621639e+05
   7.811300e+05   8.774554e+05
  -3.753182e+05   1.063292e+06
  -1.178858e+06   2.990937e+05
  -7.279919e+05  -5.618205e+05
   6.482957e+05  -6.711105e+05
   1.589186e+06   1.227060e+03
   1.106683e+06   7.890034e+05
  -3.701712e+05   1.039405e+06
  -1.467535e+06   6.183431e+05
  -1.276558e+06  -9.137885e+04
  -1.857181e+05  -5.146770e+05
   6.188426e+05  -3.181211e+05
   3.633679e+05   2.566547e+05
  -5.925685e+05   5.014587e+05
  -1.162896e+06  -9.273748e+04
  -6.385238e+05  -1.170719e+06
   6.000265e+05  -1.673583e+06
   1.470749e+06  -8.756890e+05
   1.259857e+06   7.332015e+05
   2.472191e+05   1.777716e+06
  -6.896883e+05   1.336160e+06
  -9.289065e+05  -1.038348e+05
  -5.058312e+05  -1.155636e+06
   1.306240e+05  -9.916261e+05
   5.352492e+05  -1.226468e+05
   5.124331e+05   3.649228e+05
   2.100979e+05   1.416042e+05
   2.763781e+04  -1.079829e+05
   2.222365e+05   2.580354e+05
   5.102498e+05   9.283397e+05
   2.749270e+05   1.066451e+06
  -6.345754e+05   4.182448e+05
  -1.482094e+06  -4.145334e+05
  -1.340664e+06  -7.838108e+05
  -2.101024e+05  -6.743730e+05
   8.725280e+05  -4.396751e+05
   9.820585e+05  -2.280538e+05
   3.219296e+05   1.916595e+04
  -1.532956e+05   2.244733e+05
   2.074088e+04   2.242684e+05
   3.176282e+05   1.088440e+05
   3.468594e+04   1.347788e+05
  -7.023154e+05   2.379323e+05
  -1.029618e+06   3.523205e+03
  -3.742377e+05  -6.689499e+05
   8.469278e+05  -1.161928e+06
   1.627341e+06  -7.572626e+05
   1.348451e+06   4.182975e+05
   2.934678e+05   1.391401e+06
  -7.070483e+05   1.363818e+06
  -1.023258e+06   5.290970e+05
  -6.632971e+05  -2.367793e+05
  -1.219519e+05  -3.511866e+05
   1.106902e+05  -4.324766e+04
  -6.191247e+04   4.943222e+04
  -3.279755e+05  -3.388356e+05
  -2.858961e+05  -7.897542e+05
   1.679993e+05  -6.671181e+05
   6.880261e+05   1.298285e+05
   7.331316e+05   9.508657e+05
   9.468752e+04   1.015004e+06
  -7.665900e+05   2.269728e+05
  -1.032302e+06  -7.220461e+05
  -3.471554e+05  -1.066409e+06
   6.946732e+05  -6.588949e+05
   1.087182e+06   5.588193e+04
   5.159461e+05   5.631562e+05
  -2.646146e+05   6.395925e+05
  -3.306801e+05   3.621591e+05
   2.834302e+05   1.320821e+04
   6.509190e+05  -5.212253e+04
   1.399442e+05   2.939308e+05
  -7.956654e+05   6.992181e+05
  -1.194021e+06   5.946837e+05
  -7.180638e+05  -1.275040e+05
   7.512831e+04  -8.468321e+05
   4.898877e+05  -8.431656e+05
   3.812587e+05  -1.418972e+05
   4.855323e+04   4.887317e+05
  -2.326140e+05   4.175487e+05
  -3.570330e+05  -1.677262e+05
  -2.623835e+05  -5.647664e+05
   5.144432e+04  -3.944524e+05
   3.873767e+05   4.742434e+04
   4.642335e+05   2.419226e+05
   2.400370e+05   6.796410e+04
  -1.937747e+04  -1.232374e+05
  -7.757192e+04   1.244512e+04
  -2.139386e+04   3.739232e+05
  -1.009233e+05   5.150151e+05
  -3.347613e+05   1.676437e+05
  -4.239932e+05  -4.040680e+05
  -1.164623e+05  -6.457713e+05
   4.121886e+05  -3.079274e+05
   6.447844e+05   2.805023e+05
   2.518562e+05   5.737880e+05
  -4.817230e+05   3.698899e+05
  -8.564070e+05  -6.565111e+04
  -4.745523e+05  -3.611480e+05
   2.810927e+05  -3.798289e+05
   6.190072e+05  -2.133374e+05
   2.224353e+05  -1.778289e+04
  -3.773183e+05   5.513770e+04
  -4.215098e+05  -8.542972e+04
   1.841754e+05  -3.163281e+05
   7.732707e+05  -2.925651e+05
