
 $NMID
 id='ANONYMOUS ', fmtdat='(2E16.6)'
 volume=1.0
 tramp=1.0
 $END
  -3.799830e+07  -2.311967e+05
  -2.362430e+07  -2.145207e+07
   3.272040e+06  -2.499349e+07
   1.774939e+07  -1.211134e+07
   1.205810e+07   2.305165e+06
  -1.055990e+06   6.461584e+06
  -6.998407e+06   8.203314e+05
  -3.380963e+06  -6.360910e+06
   3.223657e+06  -7.893527e+06
   6.723576e+06  -2.635446e+06
   5.290113e+06   4.488283e+06
   6.459724e+05   6.675470e+06
  -3.105304e+06   1.783769e+06
  -2.271127e+06  -4.832155e+06
   2.392942e+06  -5.741633e+06
   5.718236e+06   2.705013e+05
   3.669113e+06   7.124486e+06
  -2.245570e+06   8.554010e+06
  -7.025133e+06   4.174750e+06
  -7.357440e+06  -1.748213e+06
  -3.931561e+06  -5.221884e+06
  -7.081406e+03  -5.219861e+06
   1.317694e+06  -3.336547e+06
  -3.384863e+05  -2.159351e+06
  -1.872702e+06  -2.991671e+06
   2.472011e+05  -4.295094e+06
   5.267357e+06  -3.292257e+06
   8.062189e+06   3.444679e+05
   5.137480e+06   3.626971e+06
  -7.451985e+05   3.768259e+06
  -3.783010e+06   1.302871e+06
  -1.907190e+06  -1.105228e+06
   1.714213e+06  -1.638225e+06
   3.261658e+06  -1.768476e+05
   2.046776e+06   2.305512e+06
  -2.354995e+05   3.860904e+06
  -1.803119e+06   2.558759e+06
  -1.737634e+06  -8.594110e+05
  -3.514338e+05  -2.610600e+06
   6.537377e+05  -3.753109e+05
  -2.611828e+05   2.846167e+06
  -2.125276e+06   2.193018e+06
  -2.049611e+06  -2.072504e+06
   9.467493e+05  -4.289095e+06
   3.965185e+06  -9.553410e+05
   3.346535e+06   4.381854e+06
  -9.381268e+05   5.667097e+06
  -5.140516e+06   1.714635e+06
  -5.609411e+06  -3.175029e+06
  -2.046337e+06  -4.734905e+06
   2.588857e+06  -2.615006e+06
   4.606750e+06   6.702492e+05
   2.547991e+06   2.518833e+06
  -1.421232e+06   1.859026e+06
  -3.372341e+06  -3.450161e+05
  -1.681485e+06  -1.785836e+06
   1.152610e+06  -1.047252e+06
   1.615106e+06   6.938558e+05
  -4.486129e+05   1.086949e+06
  -1.879621e+06  -3.717957e+05
  -4.522482e+05  -1.832396e+06
   2.429718e+06  -1.565137e+06
   3.677594e+06   2.891942e+05
   1.940638e+06   2.526381e+06
  -1.525753e+06   4.027310e+06
  -4.419871e+06   3.735907e+06
  -5.060332e+06   1.052517e+06
  -3.270237e+06  -2.792218e+06
  -5.224524e+05  -4.982931e+06
   1.145096e+06  -4.019349e+06
   1.054356e+06  -1.629605e+06
   4.972269e+05  -5.665394e+05
   9.691713e+05  -1.095160e+06
   2.224672e+06  -1.093954e+06
   2.705977e+06   5.869280e+05
   1.554421e+06   2.423238e+06
  -4.854480e+05   2.280295e+06
  -1.934483e+06   7.273773e+04
  -1.732852e+06  -2.260353e+06
   1.683826e+05  -2.796471e+06
   2.575420e+06  -1.173232e+06
   3.582272e+06   1.383673e+06
   2.242363e+06   3.096473e+06
  -2.066395e+05   3.029892e+06
  -1.598049e+06   1.834247e+06
  -1.440183e+06   9.282327e+05
  -1.356517e+06   8.343942e+05
  -2.571783e+06   6.848586e+05
  -3.923498e+06  -4.851616e+05
  -3.235627e+06  -2.409103e+06
  -1.961605e+05  -3.816935e+06
   3.029587e+06  -3.636020e+06
   4.027124e+06  -1.795183e+06
   2.415033e+06   6.891251e+05
  -6.588606e+04   2.191985e+06
  -1.277407e+06   1.665670e+06
  -4.949384e+05  -1.450729e+05
   1.106839e+06  -1.174023e+06
   1.697372e+06  -3.376984e+05
   7.086353e+05   1.069203e+06
  -5.832798e+05   1.057266e+06
  -5.977447e+05  -3.189864e+05
   6.721621e+05  -9.568828e+05
   1.710916e+06   4.778838e+05
   1.228885e+06   2.737696e+06
  -6.126882e+05   3.472500e+06
  -2.592415e+06   1.851115e+06
  -3.466503e+06  -8.251767e+05
  -2.652941e+06  -2.647113e+06
  -6.033945e+05  -2.687949e+06
   1.251050e+06  -1.420777e+06
   1.552421e+06  -1.549996e+05
   4.659511e+05   4.133176e+04
  -3.506640e+05  -6.976492e+05
   3.056171e+05  -1.181355e+06
   1.638221e+06  -5.440181e+05
   1.843585e+06   6.823927e+05
   4.433823e+05   1.218818e+06
  -1.057811e+06   5.913353e+05
  -9.566825e+05  -4.006304e+05
   7.042821e+05  -6.870724e+05
   2.213679e+06   3.893786e+04
   1.953676e+06   1.248551e+06
  -5.938215e+04   2.056486e+06
  -2.190666e+06   1.741156e+06
  -2.648509e+06   3.316930e+05
  -1.141564e+06  -1.114706e+06
   8.057740e+05  -1.309025e+06
   1.337258e+06  -1.588064e+05
   1.244422e+05   9.472393e+05
  -1.397018e+06   6.797321e+05
  -1.637507e+06  -6.578199e+05
  -4.528750e+05  -1.537646e+06
   9.171676e+05  -1.051141e+06
   1.221613e+06   1.324031e+05
   3.485070e+05   6.822667e+05
  -6.776236e+05   8.028595e+04
  -6.709793e+05  -9.677624e+05
   5.652616e+05  -1.326253e+06
   1.903536e+06  -4.828668e+05
   1.906028e+06   9.993310e+05
   3.758323e+05   1.934987e+06
  -1.299797e+06   1.559000e+06
  -1.607275e+06   2.603043e+05
  -5.314795e+05  -7.880581e+05
   5.864877e+05  -7.968681e+05
   6.681439e+05  -7.375723e+04
  -4.536248e+04   4.643886e+05
  -5.584632e+05   3.344554e+05
  -3.205739e+05  -8.787019e+04
   3.140101e+05  -1.033931e+05
   5.520866e+05   4.860539e+05
  -8.331214e+04   1.096025e+06
  -1.260031e+06   8.863944e+05
  -1.970831e+06  -3.535052e+05
  -1.395078e+06  -1.818566e+06
   1.869271e+05  -2.323681e+06
   1.533496e+06  -1.447292e+06
   1.696436e+06   2.938679e+04
   9.670196e+05   9.259740e+05
   3.589376e+05   8.293211e+05
   3.469054e+05   3.408910e+05
   4.607648e+05   2.464084e+05
   7.041240e+04   6.359557e+05
  -7.783011e+05   8.856057e+05
  -1.395404e+06   3.955622e+05
  -1.103995e+06  -6.972876e+05
   1.546191e+05  -1.499317e+06
   1.635116e+06  -1.116700e+06
   2.185128e+06   4.141843e+05
   1.161622e+06   1.959528e+06
  -8.341513e+05   2.243857e+06
  -2.323991e+06   1.074189e+06
  -2.287421e+06  -4.904440e+05
  -1.077351e+06  -1.252552e+06
   9.737530e+04  -1.031730e+06
   4.561634e+05  -6.154686e+05
   2.422281e+05  -7.065376e+05
   1.770244e+05  -1.137878e+06
   5.997229e+05  -1.147242e+06
   1.172200e+06  -2.842070e+05
   1.253389e+06   1.028681e+06
   5.288990e+05   1.804103e+06
  -5.965662e+05   1.371421e+06
  -1.232740e+06   3.028810e+04
  -8.108653e+05  -1.161173e+06
   2.771253e+05  -1.318363e+06
   1.001628e+06  -4.903922e+05
   7.592762e+05   5.042389e+05
  -6.074987e+03   9.341437e+05
  -3.699279e+05   7.613663e+05
  -2.168322e+04   4.482028e+05
   3.903576e+05   3.462199e+05
   4.382672e+04   3.766171e+05
  -1.043018e+06   2.242124e+05
  -1.897167e+06  -2.746317e+05
  -1.542156e+06  -9.271145e+05
  -5.437500e+04  -1.299120e+06
   1.406346e+06  -1.065088e+06
   1.701959e+06  -3.364413e+05
   8.229399e+05   3.532477e+05
  -2.020772e+05   4.902979e+05
  -4.553245e+05   7.956176e+04
   3.362349e+03  -3.359369e+05
   4.551790e+05  -2.302091e+05
   4.472127e+05   3.248712e+05
   1.663092e+05   7.116046e+05
   1.953690e+04   4.630512e+05
   1.373861e+05  -1.464037e+05
   3.230483e+05  -3.503426e+05
   2.786595e+05   2.096491e+05
  -1.664019e+05   9.680396e+05
  -8.451427e+05   1.005190e+06
  -1.203564e+06   1.200887e+05
  -7.240969e+05  -8.708501e+05
   3.903921e+05  -1.013120e+06
   1.144225e+06  -2.512856e+05
   6.906615e+05   5.669969e+05
  -6.438256e+05   6.375984e+05
  -1.548054e+06  -3.569346e+04
  -1.068664e+06  -7.923481e+05
   3.762273e+05  -1.009426e+06
   1.444609e+06  -5.778975e+05
   1.247315e+06   1.139471e+05
   1.725713e+05   5.073674e+05
  -6.080791e+05   2.984670e+05
  -3.433074e+05  -2.547807e+05
   5.924672e+05  -4.664120e+05
   1.125115e+06   1.272815e+05
   5.803917e+05   1.156300e+06
  -6.363082e+05   1.604925e+06
  -1.455605e+06   8.051553e+05
  -1.203987e+06  -7.485641e+05
  -1.926820e+05  -1.735710e+06
   7.051650e+05  -1.285950e+06
   9.024085e+05   1.184689e+05
   4.687272e+05   1.135596e+06
  -1.441465e+05   9.658788e+05
  -5.209480e+05   1.093477e+05
  -4.947501e+05  -3.697934e+05
  -2.073230e+05  -1.458452e+05
  -2.711055e+04   1.066844e+05
  -1.996556e+05  -2.506882e+05
  -4.683695e+05  -9.127788e+05
  -2.481750e+05  -1.045771e+06
   6.177853e+05  -3.925953e+05
   1.431045e+06   4.414040e+05
   1.290745e+06   7.969758e+05
   1.879075e+05   6.591507e+05
  -8.662638e+05   4.032310e+05
  -9.631276e+05   1.986755e+05
  -3.067629e+05  -2.221088e+04
   1.574719e+05  -2.131695e+05
  -2.227915e+04  -2.234242e+05
  -3.141750e+05  -1.196713e+05
  -2.657484e+04  -1.320620e+05
   6.978215e+05  -2.083156e+05
   9.988645e+05   2.652725e+04
   3.327678e+05   6.571296e+05
  -8.616259e+05   1.099970e+06
  -1.594302e+06   6.860572e+05
  -1.287128e+06  -4.465087e+05
  -2.441190e+05  -1.360596e+06
   7.206749e+05  -1.302922e+06
   1.007342e+06  -4.803689e+05
   6.386954e+05   2.528534e+05
   1.051653e+05   3.438560e+05
  -1.158739e+05   3.314179e+04
   5.911014e+04  -5.256886e+04
   3.137816e+05   3.355541e+05
   2.600326e+05   7.749157e+05
  -1.827205e+05   6.413202e+05
  -6.658962e+05  -1.507067e+05
  -6.806176e+05  -9.486384e+05
  -5.499541e+04  -9.865802e+05
   7.551639e+05  -1.909581e+05
   9.795290e+05   7.367561e+05
   3.025951e+05   1.044193e+06
  -6.934488e+05   6.145906e+05
  -1.049893e+06  -8.598979e+04
  -4.813392e+05  -5.547786e+05
   2.731906e+05  -6.062560e+05
   3.238818e+05  -3.414164e+05
  -2.823004e+05  -2.411156e+04
  -6.354750e+05   3.146740e+04
  -1.253677e+05  -2.875796e+05
   7.918013e+05  -6.584840e+05
   1.169656e+06  -5.513650e+05
   6.867445e+05   1.367273e+05
  -9.645157e+04   8.172469e+05
  -4.917777e+05   8.028852e+05
  -3.660664e+05   1.224607e+05
  -2.948894e+04  -4.787928e+05
   2.384498e+05  -3.948550e+05
   3.420340e+05   1.795160e+05
   2.382218e+05   5.558185e+05
  -6.213387e+04   3.752257e+05
  -3.743440e+05  -5.966541e+04
  -4.421556e+05  -2.426587e+05
  -2.315093e+05  -6.827430e+04
   1.237988e+04   1.145292e+05
   7.642847e+04  -2.114337e+04
   4.095689e+04  -3.662168e+05
   1.251645e+05  -4.887217e+05
   3.330841e+05  -1.406543e+05
   3.907921e+05   4.115817e+05
   8.293167e+04   6.304558e+05
  -4.120269e+05   2.839332e+05
  -6.133817e+05  -2.944634e+05
  -2.249192e+05  -5.666669e+05
   4.758337e+05  -3.449951e+05
   8.254198e+05   9.024270e+04
   4.487376e+05   3.638215e+05
  -2.830515e+05   3.558356e+05
  -6.046151e+05   1.837824e+05
  -2.109567e+05   1.041710e+04
   3.751242e+05  -3.690806e+04
   4.093576e+05   1.026395e+05
  -1.942093e+05   3.062480e+05
  -7.692512e+05   2.616030e+05
