
 $NMID
 id='ANONYMOUS ', fmtdat='(2E16.6)'
 volume=1.0
 tramp=1.0
 $END
  -5.551785e+07   5.726137e+05
  -3.359986e+07  -3.402608e+07
   7.024493e+06  -3.755038e+07
   2.692435e+07  -1.462352e+07
   1.615297e+07   6.728126e+06
  -3.175249e+06   9.154872e+06
  -9.594862e+06  -1.111743e+06
  -2.797519e+06  -9.513971e+06
   5.937329e+06  -9.180947e+06
   9.408869e+06  -2.056597e+06
   6.962788e+06   5.998000e+06
   9.440430e+05   8.444958e+06
  -3.899346e+06   2.771699e+06
  -2.707539e+06  -5.282404e+06
   3.569229e+06  -6.457470e+06
   7.727641e+06   1.224505e+06
   4.485391e+06   9.967353e+06
  -3.574556e+06   1.163653e+07
  -9.880310e+06   5.936637e+06
  -1.069439e+07  -1.894581e+06
  -6.628776e+06  -7.334785e+06
  -7.513211e+05  -8.555858e+06
   2.860014e+06  -5.977069e+06
   1.810115e+06  -2.579526e+06
  -1.181273e+06  -2.020372e+06
  -3.905553e+05  -4.108853e+06
   5.227046e+06  -4.479744e+06
   9.527491e+06  -6.985262e+05
   7.030926e+06   3.952869e+06
   3.424395e+05   5.032726e+06
  -3.638343e+06   2.658452e+06
  -2.499801e+06   7.574761e+04
   5.064098e+05  -9.920206e+05
   2.222920e+06  -6.133536e+05
   2.251103e+06   1.331651e+06
   8.121476e+05   3.888967e+06
  -1.724906e+06   3.854870e+06
  -3.240441e+06  -7.773997e+04
  -1.749573e+06  -3.607580e+06
   7.944974e+05  -1.927512e+06
   4.421537e+05   2.429391e+06
  -2.355945e+06   2.316436e+06
  -2.436718e+06  -3.099537e+06
   2.327358e+06  -6.028614e+06
   6.831074e+06  -1.029664e+06
   5.102664e+06   6.780631e+06
  -1.803042e+06   8.404598e+06
  -7.286465e+06   2.467828e+06
  -6.895853e+06  -4.258418e+06
  -1.910192e+06  -5.873755e+06
   3.351925e+06  -2.713900e+06
   5.168954e+06   1.395926e+06
   2.426165e+06   3.360988e+06
  -2.340128e+06   2.174799e+06
  -4.452888e+06  -8.482746e+05
  -1.943879e+06  -2.641078e+06
   1.671778e+06  -1.366630e+06
   1.721654e+06   9.700649e+05
  -1.272160e+06   8.908146e+05
  -2.414298e+06  -1.697709e+06
   6.038862e+05  -3.354101e+06
   4.529894e+06  -1.884591e+06
   5.204174e+06   1.278259e+06
   2.315126e+06   3.874539e+06
  -1.691522e+06   5.222326e+06
  -4.849841e+06   4.882808e+06
  -6.086919e+06   1.839763e+06
  -4.587815e+06  -3.047497e+06
  -1.044899e+06  -6.075385e+06
   1.741583e+06  -4.712144e+06
   1.683907e+06  -1.210301e+06
   1.220769e+05   2.313465e+05
  -7.070006e+04  -1.017919e+06
   1.561035e+06  -1.849553e+06
   2.812649e+06  -3.196460e+05
   2.088007e+06   1.866811e+06
   1.002119e+05   2.143627e+06
  -1.531728e+06   2.708783e+05
  -1.726864e+06  -1.995967e+06
  -8.247389e+04  -2.906907e+06
   2.708386e+06  -1.706182e+06
   4.460844e+06   1.090533e+06
   3.256710e+06   3.670663e+06
   2.264032e+04   4.187563e+06
  -2.219264e+06   2.715951e+06
  -2.187668e+06   1.145136e+06
  -1.786595e+06   6.986802e+05
  -2.885475e+06   5.333439e+05
  -4.307416e+06  -6.575962e+05
  -3.504975e+06  -2.655524e+06
  -2.242596e+05  -4.077656e+06
   3.080507e+06  -3.939561e+06
   4.088907e+06  -2.210272e+06
   2.657736e+06   3.509643e+05
   3.386489e+05   2.222680e+06
  -1.046098e+06   1.958808e+06
  -5.657716e+05  -2.137449e+04
   1.048242e+06  -1.329915e+06
   1.884613e+06  -4.367992e+05
   9.427481e+05   1.182181e+06
  -4.835750e+05   1.121911e+06
  -4.265356e+05  -3.672966e+05
   1.033016e+06  -6.914550e+05
   1.832586e+06   1.252203e+06
   6.775693e+05   3.419405e+06
  -1.505341e+06   3.362402e+06
  -3.051697e+06   1.134773e+06
  -3.272905e+06  -1.349985e+06
  -2.305627e+06  -2.653477e+06
  -5.169137e+05  -2.560173e+06
   1.191344e+06  -1.484541e+06
   1.561228e+06  -2.692097e+05
   4.902660e+05   3.395967e+04
  -3.719266e+05  -7.388710e+05
   3.884840e+05  -1.341172e+06
   1.889570e+06  -6.101227e+05
   2.036359e+06   8.471978e+05
   4.043485e+05   1.400805e+06
  -1.152145e+06   5.885701e+05
  -8.858029e+05  -4.287234e+05
   8.279667e+05  -5.199912e+05
   2.151900e+06   2.763767e+05
   1.744308e+06   1.294897e+06
  -2.029887e+05   1.943410e+06
  -2.246795e+06   1.685929e+06
  -2.745246e+06   3.318122e+05
  -1.235031e+06  -1.235857e+06
   8.894000e+05  -1.517914e+06
   1.556524e+06  -2.182668e+05
   2.247888e+05   1.078367e+06
  -1.495417e+06   7.666356e+05
  -1.721750e+06  -7.441243e+05
  -3.613991e+05  -1.630899e+06
   1.066351e+06  -9.800380e+05
   1.246349e+06   2.934781e+05
   2.492116e+05   7.704204e+05
  -7.963825e+05   6.569595e+04
  -7.579407e+05  -1.036036e+06
   5.402289e+05  -1.434365e+06
   1.987924e+06  -5.896337e+05
   2.053027e+06   9.989881e+05
   4.271874e+05   2.058403e+06
  -1.401195e+06   1.664448e+06
  -1.712483e+06   2.414953e+05
  -5.124112e+05  -8.533140e+05
   6.390450e+05  -8.090655e+05
   6.227273e+05  -9.393420e+04
  -1.092458e+05   3.473575e+05
  -4.690817e+05   2.119455e+05
  -1.073774e+05  -4.901200e+04
   4.475286e+05   8.756380e+04
   5.166584e+05   6.667033e+05
  -1.903414e+05   1.182255e+06
  -1.357819e+06   9.163501e+05
  -2.079476e+06  -3.681155e+05
  -1.501232e+06  -1.902430e+06
   1.594561e+05  -2.410717e+06
   1.568057e+06  -1.432946e+06
   1.670117e+06   8.947544e+04
   8.641245e+05   8.562931e+05
   3.375704e+05   6.187403e+05
   4.969623e+05   2.012510e+05
   6.403258e+05   3.094587e+05
   1.045923e+05   7.673768e+05
  -8.542380e+05   9.106444e+05
  -1.426436e+06   3.493012e+05
  -1.051311e+06  -6.871446e+05
   2.166330e+05  -1.442296e+06
   1.682663e+06  -1.097244e+06
   2.240146e+06   4.304127e+05
   1.166044e+06   2.061649e+06
  -9.623548e+05   2.370030e+06
  -2.509034e+06   1.070219e+06
  -2.340623e+06  -6.118900e+05
  -9.639471e+05  -1.301712e+06
   1.851228e+05  -9.266051e+05
   3.592132e+05  -5.087724e+05
   4.411064e+04  -7.618619e+05
   7.016118e+04  -1.317472e+06
   6.446194e+05  -1.303184e+06
   1.286237e+06  -3.463378e+05
   1.358674e+06   1.043545e+06
   5.996664e+05   1.871136e+06
  -5.832593e+05   1.444533e+06
  -1.275962e+06   2.550570e+04
  -8.308430e+05  -1.261488e+06
   3.659389e+05  -1.393370e+06
   1.151728e+06  -4.135684e+05
   8.151567e+05   6.920697e+05
  -1.141700e+05   1.075670e+06
  -5.292129e+05   7.804432e+05
  -7.804293e+04   4.065159e+05
   4.434944e+05   3.216715e+05
   7.132616e+04   3.793398e+05
  -1.141800e+06   2.309951e+05
  -2.065495e+06  -2.892829e+05
  -1.629951e+06  -9.988391e+05
   1.754866e+04  -1.430667e+06
   1.567014e+06  -1.169305e+06
   1.815787e+06  -3.094726e+05
   8.306218e+05   4.836877e+05
  -2.544905e+05   5.758482e+05
  -5.091825e+05   3.831674e+04
  -4.132229e+04  -4.283651e+05
   4.305683e+05  -2.726868e+05
   4.894988e+05   3.285807e+05
   2.828930e+05   7.141967e+05
   1.185945e+05   4.777942e+05
   1.298250e+05  -9.018918e+04
   2.578920e+05  -2.911740e+05
   2.768889e+05   2.249993e+05
  -1.087540e+05   9.829924e+05
  -8.696408e+05   1.084935e+06
  -1.368187e+06   2.113377e+05
  -8.858589e+05  -8.931751e+05
   3.883878e+05  -1.156108e+06
   1.256005e+06  -3.774800e+05
   7.483888e+05   5.475933e+05
  -6.850020e+05   6.584051e+05
  -1.573359e+06  -6.245110e+04
  -1.001241e+06  -8.318324e+05
   4.677606e+05  -9.789585e+05
   1.468489e+06  -4.929150e+05
   1.213980e+06   1.669192e+05
   1.391721e+05   5.020984e+05
  -6.391906e+05   2.755883e+05
  -3.934824e+05  -2.895627e+05
   5.629566e+05  -5.458373e+05
   1.185285e+06   3.580945e+04
   7.191817e+05   1.154801e+06
  -5.214001e+05   1.724353e+06
  -1.445977e+06   9.395976e+05
  -1.275088e+06  -7.111907e+05
  -2.564384e+05  -1.773985e+06
   6.979138e+05  -1.298496e+06
   9.189323e+05   1.620074e+05
   4.477390e+05   1.172926e+06
  -2.075665e+05   9.560921e+05
  -5.607276e+05   9.004653e+04
  -4.614633e+05  -3.567596e+05
  -1.524921e+05  -1.241070e+05
  -5.053025e+04   9.017271e+04
  -3.063698e+05  -3.014166e+05
  -5.416606e+05  -9.536723e+05
  -2.019064e+05  -1.060194e+06
   7.211239e+05  -4.047867e+05
   1.477774e+06   4.195228e+05
   1.279021e+06   7.924772e+05
   2.008984e+05   6.934906e+05
  -8.205167e+05   4.477175e+05
  -9.665412e+05   2.046931e+05
  -3.733043e+05  -5.560213e+04
   1.315746e+05  -2.322391e+05
   4.849339e+04  -1.906272e+05
  -2.461450e+05  -6.918875e+04
  -6.400108e+04  -1.313764e+05
   6.281900e+05  -2.701787e+05
   1.048064e+06  -2.959257e+04
   4.889897e+05   6.862585e+05
  -7.792006e+05   1.221209e+06
  -1.689207e+06   8.265738e+05
  -1.455205e+06  -3.733651e+05
  -3.331361e+05  -1.390164e+06
   7.262470e+05  -1.405385e+06
   1.031805e+06  -5.903385e+05
   6.604781e+05   1.939518e+05
   1.570260e+05   3.551888e+05
  -4.796471e+04   8.787625e+04
   8.590557e+04  -4.054944e+02
   2.987753e+05   3.624656e+05
   2.637668e+05   7.961369e+05
  -1.502777e+05   6.905483e+05
  -6.815005e+05  -7.683384e+04
  -7.911649e+05  -9.064481e+05
  -1.835804e+05  -1.032426e+06
   7.292691e+05  -3.046097e+05
   1.072385e+06   6.562110e+05
   4.067978e+05   1.078122e+06
  -6.843917e+05   7.242819e+05
  -1.133867e+06  -2.614259e+04
  -5.665678e+05  -6.123211e+05
   2.664107e+05  -7.125469e+05
   3.884266e+05  -3.840438e+05
  -2.233090e+05   1.377637e+04
  -6.405367e+05   6.896692e+04
  -1.661482e+05  -3.080402e+05
   7.977339e+05  -7.047738e+05
   1.255605e+06  -5.636656e+05
   7.901978e+05   1.722725e+05
  -6.225132e+04   8.817985e+05
  -5.427373e+05   8.828219e+05
  -4.472753e+05   1.932272e+05
  -8.765990e+04  -4.671297e+05
   2.187048e+05  -4.589086e+05
   3.588594e+05   1.091082e+05
   2.802190e+05   5.657961e+05
  -3.219018e+04   4.513517e+05
  -3.944630e+05  -1.857544e+04
  -4.919832e+05  -2.793302e+05
  -2.440679e+05  -1.018687e+05
   4.995595e+04   1.691178e+05
   7.950547e+04   7.947351e+04
  -6.205007e+04  -3.410228e+05
  -1.715534e+04  -5.843505e+05
   2.997798e+05  -2.780275e+05
   5.094912e+05   3.346633e+05
   2.275597e+05   6.418809e+05
  -3.834731e+05   3.448109e+05
  -6.937381e+05  -2.369657e+05
  -2.913798e+05  -5.534895e+05
   4.996929e+05  -3.886376e+05
   9.008759e+05   2.928417e+04
   5.016394e+05   3.575168e+05
  -2.790466e+05   4.310628e+05
  -6.384125e+05   2.771278e+05
  -2.700575e+05   3.043289e+04
   3.168566e+05  -1.071334e+05
   4.019375e+05   1.601570e+04
  -1.300507e+05   2.832374e+05
  -6.922381e+05   3.081178e+05
