
 $NMID
 id='ANONYMOUS ', fmtdat='(2E16.6)'
 volume=1.0
 tramp=1.0
 $END
  -4.469107e+07  -8.060880e+05
  -2.702995e+07  -2.676618e+07
   5.210139e+06  -2.975074e+07
   2.157645e+07  -1.275639e+07
   1.366928e+07   4.228327e+06
  -1.985162e+06   7.506967e+06
  -8.069418e+06  -3.998509e+04
  -3.064183e+06  -7.681430e+06
   4.459832e+06  -8.388567e+06
   7.855293e+06  -2.292535e+06
   5.835775e+06   5.214121e+06
   5.839204e+05   7.397547e+06
  -3.461769e+06   2.076358e+06
  -2.309588e+06  -5.107084e+06
   3.008233e+06  -6.005643e+06
   6.511285e+06   7.594553e+05
   3.830946e+06   8.323190e+06
  -2.958918e+06   9.708254e+06
  -8.225582e+06   4.686283e+06
  -8.585316e+06  -1.987325e+06
  -4.821462e+06  -6.111222e+06
  -1.743487e+05  -6.464492e+06
   1.944072e+06  -4.311547e+06
   4.943822e+05  -2.382871e+06
  -1.530472e+06  -2.741827e+06
   1.565850e+05  -4.251705e+06
   5.386896e+06  -3.589683e+06
   8.643499e+06   1.956680e+05
   5.766687e+06   3.907269e+06
  -4.541953e+05   4.220574e+06
  -3.785173e+06   1.685467e+06
  -2.084703e+06  -7.383391e+05
   1.358140e+06  -1.345683e+06
   2.916753e+06  -2.153841e+05
   2.051053e+06   2.037180e+06
   2.018877e+04   3.883381e+06
  -1.849346e+06   2.994934e+06
  -2.256979e+06  -6.125846e+05
  -7.969851e+05  -2.982683e+06
   6.943505e+05  -9.222064e+05
  -1.061692e+05   2.703235e+06
  -2.296227e+06   2.197597e+06
  -2.164434e+06  -2.521611e+06
   1.556962e+06  -4.957101e+06
   5.069326e+06  -9.210190e+05
   3.922595e+06   5.364980e+06
  -1.386304e+06   6.700259e+06
  -6.007448e+06   1.883370e+06
  -6.051908e+06  -3.749816e+06
  -1.891052e+06  -5.260635e+06
   2.970705e+06  -2.610508e+06
   4.849056e+06   1.072736e+06
   2.466481e+06   2.930697e+06
  -1.820243e+06   1.964785e+06
  -3.795711e+06  -6.158057e+05
  -1.753315e+06  -2.160986e+06
   1.378878e+06  -1.147070e+06
   1.653473e+06   8.493003e+05
  -7.884134e+05   1.028496e+06
  -2.104881e+06  -9.035405e+05
  -4.615516e+04  -2.434648e+06
   3.256121e+06  -1.659400e+06
   4.275557e+06   7.362396e+05
   2.041485e+06   3.092730e+06
  -1.704767e+06   4.454996e+06
  -4.715274e+06   4.057739e+06
  -5.500612e+06   1.208450e+06
  -3.696788e+06  -2.990479e+06
  -5.809317e+05  -5.434722e+06
   1.485135e+06  -4.285489e+06
   1.351256e+06  -1.472995e+06
   3.990195e+05  -2.611953e+05
   6.385822e+05  -1.028794e+06
   2.027402e+06  -1.296532e+06
   2.736881e+06   3.476054e+05
   1.677168e+06   2.285408e+06
  -3.524448e+05   2.228198e+06
  -1.807300e+06   7.733994e+04
  -1.672917e+06  -2.241968e+06
   1.647219e+05  -2.854898e+06
   2.676396e+06  -1.299754e+06
   3.887342e+06   1.387425e+06
   2.545345e+06   3.386579e+06
  -1.992367e+05   3.468071e+06
  -1.879671e+06   2.132781e+06
  -1.749727e+06   9.846593e+05
  -1.554083e+06   7.593154e+05
  -2.735184e+06   5.625814e+05
  -4.089772e+06  -6.676785e+05
  -3.294912e+06  -2.618451e+06
  -9.401039e+04  -3.955279e+06
   3.186385e+06  -3.688796e+06
   4.138506e+06  -1.838728e+06
   2.499482e+06   6.448536e+05
   1.179556e+04   2.215789e+06
  -1.253465e+06   1.744331e+06
  -5.188922e+05  -1.160483e+05
   1.130643e+06  -1.206723e+06
   1.791070e+06  -3.274427e+05
   7.691793e+05   1.138756e+06
  -5.850972e+05   1.071443e+06
  -5.330656e+05  -3.614540e+05
   8.440273e+05  -8.564867e+05
   1.771584e+06   8.134615e+05
   9.692661e+05   3.060136e+06
  -1.051830e+06   3.465175e+06
  -2.855513e+06   1.538550e+06
  -3.415410e+06  -1.134955e+06
  -2.471677e+06  -2.765406e+06
  -4.919798e+05  -2.689347e+06
   1.285287e+06  -1.417960e+06
   1.574044e+06  -1.494700e+05
   4.780150e+05   5.322864e+04
  -3.409443e+05  -7.301570e+05
   3.725124e+05  -1.243113e+06
   1.761411e+06  -5.270015e+05
   1.913768e+06   8.028300e+05
   3.991905e+05   1.311607e+06
  -1.121138e+06   5.652435e+05
  -9.289365e+05  -4.458992e+05
   7.804275e+05  -6.140197e+05
   2.216812e+06   1.951972e+05
   1.859696e+06   1.342648e+06
  -1.780634e+05   2.037205e+06
  -2.288418e+06   1.671494e+06
  -2.720609e+06   2.541937e+05
  -1.154338e+06  -1.203730e+06
   8.811835e+05  -1.374195e+06
   1.433951e+06  -1.441937e+05
   1.348679e+05   1.006311e+06
  -1.466333e+06   6.763000e+05
  -1.665636e+06  -7.452015e+05
  -3.781700e+05  -1.602790e+06
   1.014514e+06  -1.010310e+06
   1.241872e+06   2.295818e+05
   2.966159e+05   7.338240e+05
  -7.301262e+05   5.705226e+04
  -6.803366e+05  -1.021400e+06
   6.011690e+05  -1.360589e+06
   1.966258e+06  -4.685424e+05
   1.947195e+06   1.066014e+06
   3.400926e+05   2.009912e+06
  -1.396304e+06   1.574176e+06
  -1.670077e+06   2.078735e+05
  -5.066277e+05  -8.366583e+05
   6.360804e+05  -7.921174e+05
   6.605421e+05  -6.014543e+04
  -8.540727e+04   4.266230e+05
  -5.444437e+05   2.746153e+05
  -2.433871e+05  -8.856040e+04
   3.720405e+05  -2.810632e+04
   5.329442e+05   5.740237e+05
  -1.554087e+05   1.137516e+06
  -1.335107e+06   8.686123e+05
  -2.019158e+06  -4.218129e+05
  -1.392288e+06  -1.908754e+06
   2.498285e+05  -2.372236e+06
   1.606945e+06  -1.409506e+06
   1.704272e+06   1.048622e+05
   9.093907e+05   9.423192e+05
   3.249942e+05   7.732976e+05
   3.913096e+05   3.019575e+05
   5.236734e+05   2.826733e+05
   6.600511e+04   6.913040e+05
  -8.407216e+05   8.805958e+05
  -1.433772e+06   3.398287e+05
  -1.074050e+06  -7.360395e+05
   2.264208e+05  -1.490087e+06
   1.703915e+06  -1.070753e+06
   2.214374e+06   4.913749e+05
   1.115716e+06   2.052327e+06
  -9.565039e+05   2.288430e+06
  -2.447868e+06   1.014534e+06
  -2.316712e+06  -6.096517e+05
  -1.009134e+06  -1.318710e+06
   1.641857e+05  -1.002807e+06
   4.469642e+05  -5.671278e+05
   1.941896e+05  -7.224054e+05
   1.724365e+05  -1.206701e+06
   6.549177e+05  -1.197246e+06
   1.232931e+06  -2.750396e+05
   1.272235e+06   1.081606e+06
   5.047374e+05   1.861732e+06
  -6.392364e+05   1.392826e+06
  -1.261853e+06  -8.778859e+03
  -7.919161e+05  -1.234041e+06
   3.517254e+05  -1.351768e+06
   1.082655e+06  -4.391691e+05
   7.748699e+05   5.997622e+05
  -7.165811e+04   9.964721e+05
  -4.545361e+05   7.673750e+05
  -5.701143e+04   4.380823e+05
   4.021717e+05   3.520550e+05
   4.246145e+04   3.822320e+05
  -1.096042e+06   1.981838e+05
  -1.968726e+06  -3.387681e+05
  -1.561815e+06  -1.008843e+06
   9.084531e+03  -1.362751e+06
   1.509814e+06  -1.072570e+06
   1.771260e+06  -2.791186e+05
   8.254597e+05   4.294219e+05
  -2.367379e+05   5.207778e+05
  -4.825986e+05   5.226977e+04
  -3.922297e+03  -3.717145e+05
   4.573198e+05  -2.331445e+05
   4.568916e+05   3.426927e+05
   1.878413e+05   7.227472e+05
   4.127283e+04   4.718164e+05
   1.416568e+05  -1.231514e+05
   3.148110e+05  -3.212406e+05
   2.745340e+05   2.259814e+05
  -1.772229e+05   9.768787e+05
  -8.923524e+05   1.018168e+06
  -1.277100e+06   1.197437e+05
  -7.629829e+05  -9.072604e+05
   4.225585e+05  -1.062696e+06
   1.201582e+06  -2.656951e+05
   7.003854e+05   5.862226e+05
  -6.847152e+05   6.322029e+05
  -1.572210e+06  -9.358985e+04
  -1.031126e+06  -8.492272e+05
   4.451433e+05  -9.985833e+05
   1.487450e+06  -5.084170e+05
   1.245326e+06   1.737658e+05
   1.463328e+05   5.166086e+05
  -6.351978e+05   2.748473e+05
  -3.575910e+05  -2.796699e+05
   6.008732e+05  -4.807368e+05
   1.152510e+06   1.295623e+05
   6.001932e+05   1.182974e+06
  -6.491846e+05   1.642212e+06
  -1.489489e+06   8.161429e+05
  -1.217727e+06  -7.789352e+05
  -1.641276e+05  -1.771891e+06
   7.496024e+05  -1.281318e+06
   9.146019e+05   1.632317e+05
   4.311465e+05   1.175558e+06
  -1.987916e+05   9.688040e+05
  -5.443206e+05   8.798895e+04
  -4.759667e+05  -3.848878e+05
  -1.847017e+05  -1.469741e+05
  -3.947732e+04   1.014069e+05
  -2.332831e+05  -2.757467e+05
  -4.718108e+05  -9.500137e+05
  -2.016262e+05  -1.070178e+06
   6.733295e+05  -3.836148e+05
   1.448183e+06   4.817910e+05
   1.274602e+06   8.439381e+05
   1.745484e+05   6.838147e+05
  -8.702887e+05   3.954364e+05
  -9.801870e+05   1.728455e+05
  -3.337845e+05  -4.280873e+04
   1.560363e+05  -2.168058e+05
   1.061721e+04  -2.158775e+05
  -2.881381e+05  -1.137455e+05
  -3.621357e+04  -1.332634e+05
   6.851060e+05  -2.096393e+05
   1.024827e+06   3.681408e+04
   3.724942e+05   6.817408e+05
  -8.726968e+05   1.126371e+06
  -1.663440e+06   6.956613e+05
  -1.345434e+06  -4.616958e+05
  -2.367523e+05  -1.390970e+06
   7.687252e+05  -1.330638e+06
   1.039273e+06  -4.938884e+05
   6.440081e+05   2.536899e+05
   1.144157e+05   3.537212e+05
  -9.256274e+04   4.832492e+04
   7.198447e+04  -3.294751e+04
   3.015743e+05   3.587213e+05
   2.402278e+05   7.984513e+05
  -1.919610e+05   6.592577e+05
  -6.721769e+05  -1.460788e+05
  -6.969674e+05  -9.622027e+05
  -7.197217e+04  -1.012409e+06
   7.573073e+05  -2.098069e+05
   9.984077e+05   7.440174e+05
   3.112563e+05   1.074485e+06
  -7.143307e+05   6.385317e+05
  -1.086978e+06  -9.648511e+04
  -5.006958e+05  -5.945577e+05
   2.904338e+05  -6.420514e+05
   3.602799e+05  -3.513469e+05
  -2.624226e+05  -2.062668e+04
  -6.440003e+05   2.555753e+04
  -1.327388e+05  -3.010133e+05
   8.216441e+05  -6.572249e+05
   1.229464e+06  -5.264699e+05
   7.273888e+05   1.704328e+05
  -1.094066e+05   8.451397e+05
  -5.386979e+05   8.254265e+05
  -4.015431e+05   1.393019e+05
  -3.558846e+04  -4.792611e+05
   2.448709e+05  -4.141233e+05
   3.446327e+05   1.663137e+05
   2.386045e+05   5.716884e+05
  -6.225639e+04   4.039658e+05
  -3.827544e+05  -5.676575e+04
  -4.577064e+05  -2.712084e+05
  -2.368757e+05  -8.807269e+04
   2.350235e+04   1.350507e+05
   8.085665e+04   1.724743e+04
   1.613917e+04  -3.576313e+05
   8.858911e+04  -5.215707e+05
   3.262674e+05  -1.805796e+05
   4.232485e+05   3.979945e+05
   1.164413e+05   6.408322e+05
  -4.136239e+05   2.953521e+05
  -6.382831e+05  -2.943572e+05
  -2.332157e+05  -5.734215e+05
   4.991999e+05  -3.498083e+05
   8.570133e+05   9.353392e+04
   4.608741e+05   3.782484e+05
  -2.941732e+05   3.776481e+05
  -6.269119e+05   2.010516e+05
  -2.343514e+05   1.225308e+04
   3.577542e+05  -4.980208e+04
   4.060033e+05   8.536907e+04
  -1.830354e+05   2.937905e+05
  -7.565684e+05   2.555615e+05
