
 $NMID
 id='ANONYMOUS ', fmtdat='(2E16.6)'
 volume=1.0
 tramp=1.0
 $END
   1.991618e+07  -2.090229e+06
   1.552046e+07   7.278940e+06
   2.432679e+06   1.300533e+07
  -8.155586e+06   1.071779e+07
  -8.519155e+06   2.407624e+06
  -1.349291e+06  -4.088494e+06
   4.642144e+06  -2.918960e+06
   4.235549e+06   3.315115e+06
  -4.446482e+05   6.749993e+06
  -4.063473e+06   3.435557e+06
  -3.731222e+06  -2.597955e+06
  -6.230768e+05  -4.643436e+06
   2.035494e+06  -9.326409e+05
   1.786917e+06   4.054061e+06
  -1.116311e+06   4.941515e+06
  -3.758768e+06   9.180399e+05
  -3.185548e+06  -4.039467e+06
   4.307602e+05  -5.516976e+06
   3.765577e+06  -2.825199e+06
   3.952653e+06   9.440352e+05
   1.653688e+06   2.543820e+06
  -5.674277e+04   1.800101e+06
   6.020836e+05   1.084919e+06
   2.259105e+06   2.076081e+06
   2.128871e+06   3.806286e+06
  -8.764521e+05   4.046412e+06
  -4.756889e+06   1.965629e+06
  -6.036307e+06  -1.035291e+06
  -3.168009e+06  -2.783976e+06
   1.435278e+06  -2.193617e+06
   3.406797e+06   3.301931e+04
   1.020523e+06   1.970287e+06
  -2.806443e+06   1.845409e+06
  -3.880005e+06  -4.587748e+05
  -1.518097e+06  -3.003009e+06
   1.183250e+06  -3.386623e+06
   1.536849e+06  -1.219085e+06
   1.465671e+05   1.219139e+06
  -7.317754e+05   1.295248e+06
  -1.866772e+05  -9.950734e+05
   9.760486e+05  -2.885747e+06
   1.784811e+06  -1.960552e+06
   1.757118e+06   9.803714e+05
   6.290588e+05   2.735803e+06
  -1.174972e+06   1.346054e+06
  -2.002182e+06  -1.669901e+06
  -3.608868e+05  -3.037877e+06
   2.781494e+06  -1.301053e+06
   4.282861e+06   1.820095e+06
   2.202459e+06   3.470109e+06
  -1.755732e+06   2.481230e+06
  -3.946642e+06   7.483141e+04
  -2.631854e+06  -1.668982e+06
   4.731433e+05  -1.633896e+06
   2.298591e+06  -3.019213e+05
   1.497218e+06   8.850667e+05
  -5.647780e+05   7.924176e+05
  -1.466409e+06  -4.005995e+05
  -2.607363e+05  -1.349281e+06
   1.543606e+06  -9.090601e+05
   1.637595e+06   5.828618e+05
  -3.722933e+05   1.566166e+06
  -2.284068e+06   8.580140e+05
  -1.719130e+06  -1.123278e+06
   1.096280e+06  -2.725435e+06
   3.574947e+06  -2.512240e+06
   3.684505e+06  -4.309268e+05
   1.913970e+06   2.166079e+06
   1.858321e+05   3.601960e+06
  -4.564101e+05   3.254959e+06
  -5.376089e+05   2.006037e+06
  -9.644303e+05   1.150067e+06
  -1.849886e+06   8.712397e+05
  -2.523081e+06   1.993061e+05
  -2.247321e+06  -1.354201e+06
  -8.488438e+05  -2.664913e+06
   1.017351e+06  -2.132771e+06
   2.123813e+06   2.023220e+05
   1.551048e+06   2.362874e+06
  -3.846672e+05   2.466498e+06
  -2.198291e+06   6.269555e+05
  -2.502630e+06  -1.419439e+06
  -1.280239e+06  -2.217464e+06
   2.044827e+05  -1.766863e+06
   7.977176e+05  -1.040427e+06
   6.582831e+05  -8.040013e+05
   9.254096e+05  -9.660173e+05
   2.162693e+06  -8.041685e+05
   3.354074e+06   2.724106e+05
   2.805923e+06   2.018891e+06
   1.666094e+05   3.332597e+06
  -2.767075e+06   3.104161e+06
  -3.647959e+06   1.278822e+06
  -1.970789e+06  -9.193911e+05
   4.343492e+05  -1.941283e+06
   1.358384e+06  -1.242353e+06
   3.766334e+05   2.327830e+05
  -1.065551e+06   9.372676e+05
  -1.405373e+06   2.502925e+05
  -4.694162e+05  -8.605647e+05
   6.287315e+05  -9.092208e+05
   7.158816e+05   2.907830e+05
  -3.685095e+05   1.190333e+06
  -1.633589e+06   2.427326e+05
  -1.735727e+06  -2.077560e+06
  -1.546473e+05  -3.509633e+06
   2.177938e+06  -2.421198e+06
   3.503792e+06   3.872403e+05
   2.757385e+06   2.567095e+06
   5.847275e+05   2.648067e+06
  -1.226387e+06   1.245572e+06
  -1.424023e+06   2.884555e+04
  -4.131417e+05  -4.588423e+04
   3.098841e+05   6.138432e+05
  -1.921953e+05   9.750274e+05
  -1.300604e+06   4.828713e+05
  -1.578540e+06  -4.716828e+05
  -4.749376e+05  -9.893440e+05
   9.080228e+05  -5.638753e+05
   9.562939e+05   3.694223e+05
  -5.866673e+05   8.018230e+05
  -2.164985e+06   1.353664e+05
  -2.003212e+06  -1.186904e+06
  -2.660027e+04  -2.046937e+06
   2.026681e+06  -1.661951e+06
   2.393789e+06  -3.000593e+05
   9.975900e+05   9.291551e+05
  -6.515776e+05   1.048004e+06
  -1.047219e+06   1.260973e+05
  -4.524137e+04  -7.505686e+05
   1.207502e+06  -5.635267e+05
   1.465837e+06   5.384607e+05
   5.072232e+05   1.377071e+06
  -7.489032e+05   1.065738e+06
  -1.149775e+06   1.279087e+04
  -4.258327e+05  -5.806784e+05
   5.279623e+05  -1.039084e+05
   5.501958e+05   8.315078e+05
  -5.435116e+05   1.129174e+06
  -1.686628e+06   3.505550e+05
  -1.638766e+06  -9.263826e+05
  -3.086563e+05  -1.692947e+06
   1.121576e+06  -1.369874e+06
   1.417063e+06  -2.640381e+05
   5.204376e+05   6.877973e+05
  -5.055196e+05   7.389943e+05
  -6.609424e+05   3.794586e+04
   1.182744e+04  -5.460662e+05
   6.250959e+05  -3.960456e+05
   4.770854e+05   1.595555e+05
  -2.134008e+05   2.844804e+05
  -5.743460e+05  -3.093305e+05
  -1.879014e+04  -9.667509e+05
   1.095539e+06  -8.045209e+05
   1.743228e+06   3.195649e+05
   1.204464e+06   1.620424e+06
  -2.084576e+05   2.087440e+06
  -1.421559e+06   1.355443e+06
  -1.620637e+06   1.645189e+03
  -9.721475e+05  -9.587546e+05
  -3.054135e+05  -9.709653e+05
  -1.606970e+05  -4.185685e+05
  -2.796804e+05  -1.465314e+05
  -5.113839e+04  -4.728273e+05
   6.675176e+05  -8.097004e+05
   1.290003e+06  -3.975748e+05
   1.066407e+06   6.852884e+05
  -1.196401e+05   1.460808e+06
  -1.502535e+06   1.048956e+06
  -1.990508e+06  -3.878630e+05
  -1.078315e+06  -1.751921e+06
   6.665644e+05  -1.998890e+06
   2.019830e+06  -1.016421e+06
   2.108044e+06   3.655212e+05
   1.103179e+06   1.159997e+06
  -4.427415e+04   1.072655e+06
  -5.391982e+05   6.462283e+05
  -3.993642e+05   5.713164e+05
  -2.388701e+05   8.825457e+05
  -5.039862e+05   9.360890e+05
  -9.857773e+05   2.191398e+05
  -1.069375e+06  -9.419984e+05
  -4.244078e+05  -1.618745e+06
   5.701838e+05  -1.207725e+06
   1.114389e+06  -2.761247e+04
   7.458409e+05   1.000774e+06
  -1.805185e+05   1.178839e+06
  -8.222064e+05   5.433964e+05
  -6.889865e+05  -3.024918e+05
  -1.061508e+05  -7.671409e+05
   2.088308e+05  -7.197008e+05
  -1.748529e+04  -4.663054e+05
  -3.089897e+05  -3.407081e+05
  -1.207473e+04  -3.453402e+05
   8.886024e+05  -2.094115e+05
   1.622646e+06   2.345678e+05
   1.365700e+06   8.034427e+05
   1.248779e+05   1.110169e+06
  -1.163521e+06   9.165893e+05
  -1.497976e+06   3.412239e+05
  -7.824849e+05  -2.213126e+05
   1.321387e+05  -3.895275e+05
   3.862296e+05  -1.156067e+05
  -3.032636e+04   2.242876e+05
  -4.432055e+05   1.681258e+05
  -3.779493e+05  -2.981803e+05
  -4.413356e+04  -6.440745e+05
   7.220632e+04  -4.020691e+05
  -1.475228e+05   1.835629e+05
  -3.743271e+05   3.636529e+05
  -2.610017e+05  -1.863954e+05
   2.162511e+05  -8.785058e+05
   7.647370e+05  -8.621838e+05
   9.621663e+05  -4.676058e+04
   5.265676e+05   7.725908e+05
  -3.519967e+05   8.145685e+05
  -9.499376e+05   1.299039e+05
  -5.844671e+05  -5.446958e+05
   5.687457e+05  -5.780188e+05
   1.429430e+06   2.230251e+04
   1.057269e+06   7.300619e+05
  -2.874429e+05   9.833247e+05
  -1.351161e+06   6.039780e+05
  -1.203765e+06  -7.933656e+04
  -1.844937e+05  -4.868567e+05
   5.477382e+05  -2.984892e+05
   2.795806e+05   2.012950e+05
  -5.703543e+05   3.530116e+05
  -9.796267e+05  -2.016967e+05
  -4.058999e+05  -1.063107e+06
   6.930322e+05  -1.366117e+06
   1.353944e+06  -6.153374e+05
   1.047446e+06   7.335437e+05
   1.111702e+05   1.579303e+06
  -6.776336e+05   1.181870e+06
  -8.352788e+05  -7.899045e+04
  -4.509150e+05  -1.036966e+06
   9.044984e+04  -9.209367e+05
   4.557316e+05  -1.206277e+05
   4.854018e+05   3.684818e+05
   2.370634e+05   1.675127e+05
   8.529091e+03  -1.185691e+05
   9.783097e+04   1.718884e+05
   3.700507e+05   8.084662e+05
   2.647603e+05   9.756579e+05
  -4.873123e+05   3.681110e+05
  -1.287407e+06  -4.392263e+05
  -1.207513e+06  -7.652704e+05
  -1.628137e+05  -5.853316e+05
   8.471463e+05  -3.195291e+05
   8.983428e+05  -1.703495e+05
   2.331857e+05  -1.749970e+04
  -1.691081e+05   1.761475e+05
   7.546784e+04   2.513541e+05
   3.435349e+05   1.725292e+05
  -1.039096e+04   1.172684e+05
  -7.053860e+05   1.191468e+05
  -8.791455e+05  -7.684260e+04
  -1.697877e+05  -5.636965e+05
   8.689686e+05  -8.959298e+05
   1.387863e+06  -5.157355e+05
   1.035297e+06   4.665409e+05
   1.391514e+05   1.232177e+06
  -6.646310e+05   1.119394e+06
  -9.050883e+05   3.439965e+05
  -5.638358e+05  -2.919201e+05
  -5.015416e+04  -3.028140e+05
   1.592892e+05   3.145779e+04
  -4.132433e+04   9.974614e+04
  -3.076899e+05  -2.956855e+05
  -2.351091e+05  -7.072169e+05
   1.975092e+05  -5.475530e+05
   5.932982e+05   2.109456e+05
   5.197920e+05   9.115641e+05
  -6.552589e+04   8.587952e+05
  -7.106206e+05   6.444410e+04
  -8.104356e+05  -7.544703e+05
  -1.846232e+05  -9.304561e+05
   6.433600e+05  -4.674172e+05
   8.946859e+05   1.302359e+05
   3.779531e+05   4.570873e+05
  -2.489404e+05   4.673806e+05
  -2.409440e+05   2.889922e+05
   3.096954e+05   7.010234e+04
   5.831111e+05   1.023732e+04
   8.126990e+04   2.447008e+05
  -7.336942e+05   5.667147e+05
  -1.020446e+06   5.071656e+05
  -5.546252e+05  -8.501457e+04
   1.179028e+05  -6.992435e+05
   4.086783e+05  -6.830185e+05
   2.584519e+05  -6.183938e+04
  -3.167283e+04   4.479272e+05
  -2.334227e+05   3.057784e+05
  -2.901638e+05  -2.314012e+05
  -1.809196e+05  -5.057421e+05
   7.524856e+04  -2.768001e+05
   3.239727e+05   9.283519e+04
   3.728473e+05   1.899478e+05
   2.105352e+05   3.416353e+04
   1.340691e+04  -5.169323e+04
  -8.697028e+04   1.092406e+05
  -1.386260e+05   3.458764e+05
  -2.320933e+05   3.447158e+05
  -3.180184e+05  -5.916052e+02
  -2.412157e+05  -4.363376e+05
   5.631961e+04  -5.541567e+05
   4.028402e+05  -2.014631e+05
   4.881270e+05   3.188903e+05
   1.423297e+05   5.319682e+05
  -4.194566e+05   2.825662e+05
  -6.922917e+05  -1.342101e+05
  -3.671845e+05  -3.410721e+05
   2.584762e+05  -2.617684e+05
   5.203133e+05  -8.813925e+04
   1.411578e+05  -2.009891e+02
  -3.903337e+05  -4.250267e+04
  -3.727026e+05  -1.788429e+05
   2.460825e+05  -2.932080e+05
   7.822262e+05  -1.809849e+05
