
 $NMID
 id='ANONYMOUS ', fmtdat='(2E16.6)'
 volume=1.0
 tramp=1.0
 $END
   3.174696e+06  -2.266158e+06
   3.446059e+06   3.218213e+05
   1.365584e+06   2.371964e+06
  -8.623111e+05   2.246217e+06
  -1.354340e+06   5.840280e+05
  -3.463977e+05  -6.922115e+05
   6.623849e+05  -5.443868e+05
   7.529892e+05   4.171948e+05
   1.462682e+05   9.930117e+05
  -4.990156e+05   6.725286e+05
  -7.207132e+05  -1.080856e+05
  -4.042097e+05  -5.669104e+05
   1.668775e+05  -3.074744e+05
   4.282146e+05   3.527094e+05
   6.576529e+04   6.954339e+05
  -5.553554e+05   3.246404e+05
  -7.516485e+05  -4.303183e+05
  -3.019780e+05  -8.987027e+05
   3.587465e+05  -7.674011e+05
   6.997265e+05  -2.759332e+05
   6.076324e+05   1.718378e+05
   3.354327e+05   3.771159e+05
   1.707791e+05   3.677007e+05
   2.082889e+05   2.824587e+05
   2.854471e+05   2.828190e+05
   1.205297e+05   4.132968e+05
  -3.371919e+05   4.996466e+05
  -7.198619e+05   3.242835e+05
  -6.106603e+05  -5.666395e+04
  -1.009817e+05  -3.154464e+05
   2.664064e+05  -2.335563e+05
   1.627439e+05   4.346485e+04
  -1.709174e+05   1.993378e+05
  -3.306180e+05   8.947600e+04
  -2.468022e+05  -1.690692e+05
  -1.000627e+05  -3.463079e+05
   2.119417e+04  -2.819256e+05
   1.248531e+05  -2.619332e+04
   1.400412e+05   1.508242e+05
   2.373330e+04   1.980975e+04
  -4.819781e+04  -2.750906e+05
   1.092265e+05  -3.095723e+05
   3.206350e+05   7.226007e+04
   2.020120e+05   4.684888e+05
  -2.582441e+05   3.799720e+05
  -5.587254e+05  -1.430391e+05
  -2.859090e+05  -5.490466e+05
   3.371390e+05  -4.487114e+05
   6.908307e+05  -4.620931e+03
   4.494565e+05   3.557591e+05
  -1.216248e+05   3.951524e+05
  -4.981274e+05   1.687869e+05
  -3.966349e+05  -1.252292e+05
   2.139382e+04  -2.734944e+05
   3.361167e+05  -1.672512e+05
   2.694666e+05   6.989016e+04
  -4.046073e+04   1.638226e+05
  -1.975232e+05   1.044824e+04
  -1.806105e+04  -1.692251e+05
   2.431145e+05  -1.063575e+05
   2.213732e+05   1.607795e+05
  -9.510780e+04   3.363167e+05
  -3.709775e+05   2.197463e+05
  -3.422873e+05  -1.119209e+05
  -6.942621e+04  -4.297440e+05
   2.230362e+05  -5.309817e+05
   3.913800e+05  -3.288323e+05
   4.059846e+05   7.822010e+04
   2.849853e+05   4.149404e+05
   9.891138e+04   4.495029e+05
  -3.747567e+04   2.460317e+05
  -7.460558e+04   8.521765e+04
  -8.898005e+04   1.036577e+05
  -1.638427e+05   1.443782e+05
  -2.481115e+05   2.693912e+04
  -2.105558e+05  -1.714496e+05
  -1.965253e+04  -2.243979e+05
   1.930339e+05  -6.177804e+04
   2.521781e+05   1.624892e+05
   9.364524e+04   2.695804e+05
  -1.799624e+05   2.095402e+05
  -3.700225e+05   3.722209e+04
  -3.403837e+05  -1.531156e+05
  -1.457914e+05  -2.614749e+05
   2.546561e+04  -2.455019e+05
   7.177933e+04  -1.761703e+05
   9.292319e+04  -1.608504e+05
   2.237008e+05  -1.905954e+05
   4.036594e+05  -1.330419e+05
   4.203905e+05   8.815609e+04
   1.845585e+05   3.607375e+05
  -1.381162e+05   4.753723e+05
  -3.063216e+05   3.303215e+05
  -2.447155e+05   2.945286e+04
  -7.068871e+04  -2.010950e+05
   5.368894e+04  -1.975386e+05
   4.741319e+04  -5.168410e+03
  -5.689170e+04   1.537084e+05
  -1.441431e+05   1.077504e+05
  -1.113247e+05  -6.316722e+04
   1.501662e+04  -1.223781e+05
   7.989839e+04   1.291387e+04
  -2.752291e+04   1.465527e+05
  -2.188766e+05   5.256513e+04
  -2.805819e+05  -2.238825e+05
  -1.039620e+05  -4.122065e+05
   1.988937e+05  -3.319603e+05
   4.067105e+05  -6.672288e+04
   3.818343e+05   1.704213e+05
   1.657579e+05   2.500856e+05
  -6.579541e+04   1.868029e+05
  -1.425070e+05   7.494423e+04
  -4.687966e+04   1.557443e+04
   6.421197e+04   5.253853e+04
   2.752087e+04   1.278966e+05
  -1.291354e+05   1.294397e+05
  -2.115728e+05   2.123937e+04
  -1.030722e+05  -9.851660e+04
   7.752137e+04  -1.059346e+05
   1.144649e+05   2.720549e+03
  -4.513233e+04   1.071016e+05
  -2.331633e+05   9.061059e+04
  -2.528737e+05  -5.230943e+04
  -7.706488e+04  -2.161435e+05
   1.472408e+05  -2.655727e+05
   2.461006e+05  -1.444825e+05
   1.608686e+05   5.622438e+04
  -1.478548e+04   1.595078e+05
  -1.164971e+05   7.789797e+04
  -5.348377e+04  -8.009837e+04
   1.037695e+05  -1.256225e+05
   1.901212e+05  -7.804116e+03
   1.144964e+05   1.350905e+05
  -4.644273e+04   1.504569e+05
  -1.328011e+05   4.300341e+04
  -6.960920e+04  -5.479337e+04
   6.026850e+04  -4.113260e+04
   1.056003e+05   6.241755e+04
   1.633601e+03   1.493830e+05
  -1.615118e+05   1.250030e+05
  -2.245069e+05  -1.541797e+04
  -1.194142e+05  -1.703197e+05
   5.776939e+04  -2.083490e+05
   1.463891e+05  -9.632453e+04
   8.843225e+04   5.525464e+04
  -2.335036e+04   1.048211e+05
  -6.379109e+04   3.203581e+04
  -1.142377e+04  -5.416415e+04
   4.981284e+04  -5.568465e+04
   4.032760e+04   6.219264e+03
  -3.100435e+04   3.472909e+04
  -8.328410e+04  -2.171396e+04
  -4.313411e+04  -1.138567e+05
   8.460850e+04  -1.419997e+05
   2.067010e+05  -4.985569e+04
   2.120422e+05   1.164642e+05
   7.842534e+04   2.339755e+05
  -9.298917e+04   2.076670e+05
  -1.730029e+05   6.657485e+04
  -1.338274e+05  -5.959667e+04
  -6.072628e+04  -7.570572e+04
  -3.715957e+04  -1.790654e+04
  -5.240836e+04   3.999161e+03
  -3.709869e+04  -5.448964e+04
   3.800275e+04  -1.216769e+05
   1.234133e+05  -9.822630e+04
   1.387684e+05   2.735527e+04
   4.463617e+04   1.594409e+05
  -1.162942e+05   1.793652e+05
  -2.322316e+05   5.017828e+04
  -1.987327e+05  -1.436473e+05
  -1.787787e+04  -2.575863e+05
   1.809819e+05  -2.087864e+05
   2.502293e+05  -5.034786e+04
   1.634724e+05   8.386497e+04
   3.045906e+04   1.135108e+05
  -2.814807e+04   7.878274e+04
   4.742834e+02   6.945319e+04
   3.281601e+04   1.095025e+05
  -4.761818e+03   1.349113e+05
  -9.827790e+04   7.857123e+04
  -1.631243e+05  -4.617280e+04
  -1.261066e+05  -1.521711e+05
   8.308714e+02  -1.571697e+05
   1.197411e+05  -5.501439e+04
   1.310979e+05   7.807571e+04
   3.210417e+04   1.433072e+05
  -7.779502e+04   9.821654e+04
  -1.019430e+05  -1.064148e+04
  -4.689293e+04  -9.284861e+04
  -2.675159e+02  -9.668299e+04
  -1.610879e+04  -4.915463e+04
  -4.989458e+04  -1.714508e+04
  -1.872101e+04  -3.434759e+04
   9.084087e+04  -6.841306e+04
   1.942755e+05  -5.720365e+04
   1.906012e+05   2.333143e+04
   6.606088e+04   1.252683e+05
  -8.647269e+04   1.659990e+05
  -1.525285e+05   1.081443e+05
  -1.012754e+05   3.008428e+03
  -5.205692e+03  -5.621748e+04
   4.193275e+04  -2.997920e+04
   1.568271e+04   2.855382e+04
  -3.493777e+04   3.883744e+04
  -5.632207e+04  -1.224091e+04
  -4.153258e+04  -5.884622e+04
  -1.804021e+04  -4.043277e+04
  -1.041188e+04   2.158969e+04
  -2.252924e+04   4.689987e+04
  -3.668481e+04  -9.160230e+03
  -2.125941e+04  -9.972917e+04
   3.890610e+04  -1.321564e+05
   1.050354e+05  -6.454326e+04
   1.025820e+05   4.939276e+04
   8.331879e+03   1.114066e+05
  -9.421761e+04   7.180248e+04
  -8.872661e+04  -2.648207e+04
   3.581577e+04  -9.040412e+04
   1.553488e+05  -6.109750e+04
   1.420112e+05   3.693686e+04
   5.245874e+03   1.203063e+05
  -1.227514e+05   1.196476e+05
  -1.316872e+05   3.953228e+04
  -3.855173e+04  -4.493150e+04
   4.812355e+04  -5.633869e+04
   4.416456e+04   8.008005e+03
  -3.742377e+04   6.631218e+04
  -1.107935e+05   3.248270e+04
  -9.970905e+04  -8.528440e+04
  -3.163728e+03  -1.760957e+05
   1.063847e+05  -1.339531e+05
   1.458186e+05   2.371667e+04
   8.892244e+04   1.604079e+05
  -1.758456e+04   1.553965e+05
  -9.560280e+04   2.694261e+04
  -9.475604e+04  -9.328213e+04
  -2.653650e+04  -1.046151e+05
   4.669002e+04  -3.425455e+04
   6.457294e+04   1.846876e+04
   2.736645e+04   9.089763e+03
  -1.722315e+03  -1.324929e+04
   2.854356e+04   1.052640e+04
   8.274364e+04   6.705794e+04
   6.917811e+04   9.515287e+04
  -4.138844e+04   6.796901e+04
  -1.573519e+05   1.545689e+04
  -1.605215e+05  -2.742030e+04
  -4.634220e+04  -5.608094e+04
   6.925163e+04  -7.165610e+04
   8.711678e+04  -5.865751e+04
   3.052422e+04  -1.415361e+04
  -7.028986e+03   2.581427e+04
   1.222134e+04   2.539491e+04
   3.609488e+04   3.722218e+03
   6.671583e+03   1.041974e+04
  -6.046343e+04   4.387524e+04
  -9.609122e+04   3.805203e+04
  -5.563988e+04  -4.407560e+04
   3.849205e+04  -1.364632e+05
   1.212021e+05  -1.319808e+05
   1.370394e+05  -1.253768e+04
   7.760082e+04   1.203057e+05
  -1.417946e+04   1.552145e+05
  -7.495091e+04   8.577835e+04
  -7.032047e+04  -2.511722e+02
  -2.308661e+04  -2.723083e+04
   1.008584e+04  -3.249178e+03
  -5.055849e+03   1.048257e+04
  -4.634315e+04  -2.030032e+04
  -5.796139e+04  -6.542051e+04
  -8.901993e+03  -6.796710e+04
   6.846045e+04  -1.024755e+04
   1.004616e+05   6.319797e+04
   4.309926e+04   8.863255e+04
  -6.320353e+04   4.465471e+04
  -1.204958e+05  -3.214002e+04
  -7.027338e+04  -8.576286e+04
   3.953867e+04  -8.499614e+04
   1.022604e+05  -3.555541e+04
   6.978451e+04   2.997415e+04
   1.746810e+03   6.732448e+04
  -1.429364e+04   4.827891e+04
   2.937216e+04  -5.263927e+03
   5.999830e+04  -2.780651e+04
   2.358206e+04   2.104053e+04
  -4.969573e+04   9.610181e+04
  -9.027966e+04   1.053206e+05
  -7.171375e+04   1.984166e+04
  -2.514762e+04  -8.136800e+04
   1.115809e+04  -9.905468e+04
   2.563663e+04  -2.804738e+04
   1.987750e+04   4.422776e+04
  -5.609001e+03   4.584178e+04
  -3.765322e+04  -5.599913e+03
  -4.516248e+04  -4.336762e+04
  -1.126467e+04  -3.591943e+04
   3.713339e+04  -8.733312e+03
   5.358306e+04   2.809218e+03
   2.674083e+04  -4.259986e+03
  -6.926386e+03  -7.430591e+03
  -1.089081e+04   8.691287e+03
   6.264072e+03   3.445603e+04
   6.684596e+03   4.431591e+04
  -2.263162e+04   2.144456e+04
  -4.821087e+04  -2.253168e+04
  -2.941301e+04  -5.266249e+04
   2.774371e+04  -4.160450e+04
   6.763951e+04   2.880451e+03
   4.247437e+04   4.471568e+04
  -3.057369e+04   5.304109e+04
  -8.041312e+04   2.564935e+04
  -5.721325e+04  -1.586972e+04
   1.059420e+04  -4.408147e+04
   4.743709e+04  -4.105073e+04
   1.769325e+04  -1.142100e+04
  -3.467115e+04   1.405467e+04
  -4.134352e+04   3.208369e+03
   9.963263e+03  -3.629538e+04
   6.630161e+04  -5.230347e+04
