
 $NMID
 id='ANONYMOUS ', fmtdat='(2E16.6)'
 volume=1.0
 tramp=1.0
 $END
  -1.932043e+07  -9.074339e+05
  -1.251533e+07  -8.959064e+06
   1.193175e+05  -1.184658e+07
   8.219559e+06  -8.326683e+06
   7.087578e+06  -1.315888e+06
   6.599679e+05   3.436624e+06
  -3.942669e+06   2.120498e+06
  -3.269631e+06  -3.005641e+06
   6.771050e+05  -5.690532e+06
   3.668148e+06  -2.654216e+06
   3.257526e+06   2.681382e+06
   3.529018e+05   4.356636e+06
  -2.056824e+06   7.982792e+05
  -1.647703e+06  -3.747429e+06
   1.114696e+06  -4.327432e+06
   3.337401e+06  -4.760731e+05
   2.499772e+06   3.926969e+06
  -9.246071e+05   4.962805e+06
  -3.860703e+06   2.230595e+06
  -3.794854e+06  -1.396180e+06
  -1.338766e+06  -2.911433e+06
   5.888411e+05  -1.991416e+06
   2.726806e+04  -8.491616e+05
  -1.880292e+06  -1.447802e+06
  -2.161829e+06  -3.206203e+06
   6.225591e+05  -3.799489e+06
   4.491422e+06  -1.978395e+06
   5.789306e+06   1.010661e+06
   2.992402e+06   2.831731e+06
  -1.425713e+06   2.305599e+06
  -3.338166e+06   1.570494e+05
  -1.230867e+06  -1.801132e+06
   2.300779e+06  -1.923464e+06
   3.541026e+06   9.904127e+04
   1.644151e+06   2.654516e+06
  -9.255587e+05   3.290150e+06
  -1.598299e+06   1.239275e+06
  -4.030742e+05  -1.331711e+06
   7.321968e+05  -1.519160e+06
   4.961716e+05   8.219890e+05
  -6.919352e+05   2.744466e+06
  -1.609431e+06   1.784883e+06
  -1.443682e+06  -9.875874e+05
  -2.097804e+05  -2.318637e+06
   1.239344e+06  -7.083918e+05
   1.515347e+06   1.962454e+06
  -1.800304e+05   2.767055e+06
  -2.778683e+06   8.884772e+05
  -3.806878e+06  -1.867451e+06
  -1.853098e+06  -3.144298e+06
   1.603072e+06  -2.149362e+06
   3.473650e+06  -3.751553e+03
   2.252931e+06   1.479871e+06
  -5.135467e+05   1.330967e+06
  -2.049206e+06   8.492445e+04
  -1.226813e+06  -8.711315e+05
   5.906996e+05  -6.495303e+05
   1.289928e+06   3.679418e+05
   2.472521e+05   1.044175e+06
  -1.159911e+06   6.676725e+05
  -1.134461e+06  -3.909573e+05
   5.029889e+05  -1.050979e+06
   1.963278e+06  -4.773407e+05
   1.354647e+06   1.137197e+06
  -1.163084e+06   2.545425e+06
  -3.423094e+06   2.359218e+06
  -3.545692e+06   3.380478e+05
  -1.825567e+06  -2.182717e+06
  -8.171774e+04  -3.429200e+06
   5.057215e+05  -2.890811e+06
   3.976350e+05  -1.682864e+06
   6.665614e+05  -1.086101e+06
   1.572523e+06  -1.029275e+06
   2.384972e+06  -4.173289e+05
   2.249914e+06   1.136500e+06
   9.710512e+05   2.461362e+06
  -8.102353e+05   2.057446e+06
  -1.940709e+06  -4.746926e+04
  -1.508423e+06  -2.088342e+06
   2.971268e+05  -2.298257e+06
   2.087431e+06  -6.282492e+05
   2.414547e+06   1.374374e+06
   1.171312e+06   2.207848e+06
  -3.459482e+05   1.725250e+06
  -9.043023e+05   9.037507e+05
  -6.666741e+05   6.193157e+05
  -8.187314e+05   8.086776e+05
  -1.934978e+06   7.115892e+05
  -3.041642e+06  -2.508381e+05
  -2.563580e+06  -1.830699e+06
  -1.820171e+05  -3.040560e+06
   2.496594e+06  -2.891078e+06
   3.359151e+06  -1.261066e+06
   1.886837e+06   8.117406e+05
  -3.284631e+05   1.848434e+06
  -1.242102e+06   1.218764e+06
  -3.729844e+05  -2.095655e+05
   9.714788e+05  -8.948728e+05
   1.298986e+06  -2.279298e+05
   4.374591e+05   8.213836e+05
  -5.561294e+05   8.587861e+05
  -6.343171e+05  -2.210438e+05
   2.830277e+05  -1.001823e+06
   1.339396e+06  -1.816796e+05
   1.457119e+06   1.784842e+06
   1.832937e+05   3.001409e+06
  -1.812932e+06   2.111661e+06
  -3.072819e+06  -2.655403e+05
  -2.535188e+06  -2.195717e+06
  -6.109396e+05  -2.361763e+06
   1.089558e+06  -1.173777e+06
   1.311105e+06  -6.556334e+04
   3.778682e+05   3.565872e+04
  -2.883241e+05  -5.569500e+05
   1.888194e+05  -8.837427e+05
   1.198092e+06  -4.235826e+05
   1.422571e+06   4.404670e+05
   4.135050e+05   8.913061e+05
  -8.186255e+05   5.124151e+05
  -8.658738e+05  -3.043770e+05
   4.919768e+05  -7.085075e+05
   1.913243e+06  -1.695390e+05
   1.822312e+06   9.937233e+05
   8.342137e+04   1.821402e+06
  -1.792242e+06   1.539933e+06
  -2.168943e+06   3.093908e+05
  -9.080144e+05  -8.445363e+05
   6.120231e+05  -9.622142e+05
   9.715095e+05  -9.991731e+04
   3.879600e+04   7.074079e+05
  -1.105539e+06   5.252909e+05
  -1.330246e+06  -4.767537e+05
  -4.666538e+05  -1.225451e+06
   6.518090e+05  -9.490976e+05
   1.012782e+06  -2.075590e+04
   3.739102e+05   5.049598e+05
  -4.844050e+05   8.246691e+04
  -5.128274e+05  -7.643532e+05
   4.855859e+05  -1.050909e+06
   1.548316e+06  -3.496735e+05
   1.518266e+06   8.293735e+05
   2.994712e+05   1.545745e+06
  -1.011473e+06   1.255458e+06
  -1.280732e+06   2.504669e+05
  -4.720570e+05  -6.122466e+05
   4.485166e+05  -6.713802e+05
   5.989406e+05  -5.758290e+04
   1.802356e+04   4.773039e+05
  -5.305605e+05   3.826502e+05
  -4.304078e+05  -9.213753e+04
   1.604495e+05  -2.269584e+05
   4.933957e+05   2.716293e+05
   1.780891e+04   8.626650e+05
  -9.864377e+05   7.403023e+05
  -1.593479e+06  -2.694198e+05
  -1.122387e+06  -1.466319e+06
   1.540374e+05  -1.908034e+06
   1.256222e+06  -1.254077e+06
   1.455320e+06  -4.045782e+04
   9.088969e+05   8.211079e+05
   3.371565e+05   8.530975e+05
   1.922807e+05   3.929734e+05
   2.588083e+05   1.633609e+05
   3.716805e+04   4.427640e+05
  -5.945023e+05   7.385843e+05
  -1.153692e+06   3.841373e+05
  -9.827487e+05  -5.841257e+05
   6.616983e+04  -1.312281e+06
   1.336957e+06  -9.778712e+05
   1.815269e+06   3.153615e+05
   1.000480e+06   1.571442e+06
  -5.901418e+05   1.813528e+06
  -1.819861e+06   9.342023e+05
  -1.900577e+06  -3.006830e+05
  -1.009637e+06  -1.008281e+06
   1.957942e+03  -9.497256e+05
   4.469749e+05  -6.088524e+05
   3.447207e+05  -5.676647e+05
   2.213767e+05  -8.377272e+05
   4.668248e+05  -8.628370e+05
   9.079822e+05  -2.050242e+05
   9.961314e+05   8.494141e+05
   4.151087e+05   1.475365e+06
  -5.014420e+05   1.115662e+06
  -1.011993e+06   4.236416e+04
  -6.825297e+05  -9.009625e+05
   1.563401e+05  -1.061942e+06
   7.295309e+05  -4.786953e+05
   6.014923e+05   2.818779e+05
   8.053466e+04   6.834945e+05
  -1.877239e+05   6.297290e+05
   3.004211e+04   4.087399e+05
   2.966582e+05   3.088867e+05
   2.115339e+04   3.177385e+05
  -8.087594e+05   1.937536e+05
  -1.486303e+06  -2.056175e+05
  -1.250391e+06  -7.175850e+05
  -1.097364e+05  -1.000471e+06
   1.064273e+06  -8.365674e+05
   1.353206e+06  -3.212078e+05
   6.911321e+05   1.936073e+05
  -1.298940e+05   3.529632e+05
  -3.437698e+05   1.012405e+05
   3.513282e+04  -2.184314e+05
   4.027914e+05  -1.702606e+05
   3.516911e+05   2.688122e+05
   6.346100e+04   6.034611e+05
  -5.139323e+04   3.848908e+05
   1.183528e+05  -1.673601e+05
   3.154966e+05  -3.464322e+05
   2.391671e+05   1.632728e+05
  -1.728418e+05   8.133769e+05
  -6.892064e+05   8.018950e+05
  -9.003885e+05   4.259213e+04
  -5.038171e+05  -7.188003e+05
   3.254935e+05  -7.577948e+05
   8.888790e+05  -1.294737e+05
   5.502175e+05   4.886714e+05
  -5.084299e+05   5.311909e+05
  -1.292694e+06   6.978634e+03
  -9.632539e+05  -6.272588e+05
   2.383372e+05  -8.790455e+05
   1.196629e+06  -5.686033e+05
   1.080898e+06   4.152588e+04
   1.770590e+05   4.305241e+05
  -4.878613e+05   2.758567e+05
  -2.556151e+05  -1.879217e+05
   5.210704e+05  -3.447203e+05
   9.137872e+05   1.640497e+05
   4.033490e+05   9.790033e+05
  -6.090374e+05   1.283753e+06
  -1.235852e+06   6.009807e+05
  -9.782031e+05  -6.500788e+05
  -1.356293e+05  -1.442678e+06
   5.880290e+05  -1.089118e+06
   7.523049e+05   5.819852e+04
   4.247416e+05   9.283877e+05
  -6.358937e+04   8.249336e+05
  -4.100581e+05   1.115220e+05
  -4.485488e+05  -3.158256e+05
  -2.185479e+05  -1.350552e+05
  -3.801013e+03   1.020534e+05
  -9.165419e+04  -1.765712e+05
  -3.522718e+05  -7.403686e+05
  -2.563772e+05  -8.707925e+05
   4.430796e+05  -3.272593e+05
   1.184262e+06   3.747587e+05
   1.112042e+06   6.628145e+05
   1.562180e+05   5.315174e+05
  -7.646056e+05   3.209439e+05
  -8.114588e+05   1.752610e+05
  -2.099670e+05   6.959958e+03
   1.506258e+05  -1.694551e+05
  -7.490127e+04  -2.106734e+05
  -3.195430e+05  -1.323843e+05
   3.549188e+03  -1.134419e+05
   6.423993e+05  -1.417668e+05
   8.124697e+05   5.374591e+04
   1.736288e+05   5.371346e+05
  -7.821376e+05   8.560588e+05
  -1.278008e+06   4.933451e+05
  -9.748777e+05  -4.230955e+05
  -1.564001e+05  -1.131519e+06
   5.948597e+05  -1.036905e+06
   8.338881e+05  -3.370505e+05
   5.302631e+05   2.508793e+05
   5.451642e+04   2.836391e+05
  -1.498374e+05  -8.392509e+03
   2.780760e+04  -8.267514e+04
   2.799030e+05   2.602127e+05
   2.260057e+05   6.379553e+05
  -1.728498e+05   5.104532e+05
  -5.571864e+05  -1.747427e+05
  -5.081323e+05  -8.307924e+05
   3.800311e+04  -8.062609e+05
   6.608554e+05  -8.808061e+04
   7.733822e+05   6.753451e+05
   1.908513e+05   8.600551e+05
  -5.910076e+05   4.485720e+05
  -8.309915e+05  -1.075653e+05
  -3.495076e+05  -4.251160e+05
   2.332174e+05  -4.388578e+05
   2.243591e+05  -2.593028e+05
  -2.844153e+05  -4.278100e+04
  -5.357742e+05   6.398861e+03
  -7.885754e+04  -2.286457e+05
   6.604069e+05  -5.330990e+05
   9.216519e+05  -4.689232e+05
   5.060296e+05   8.529215e+04
  -9.953362e+04   6.473608e+05
  -3.725455e+05   6.254293e+05
  -2.515411e+05   5.298916e+04
   1.171901e+04  -4.161178e+05
   2.142793e+05  -2.909741e+05
   2.821925e+05   2.005336e+05
   1.771785e+05   4.623421e+05
  -7.305176e+04   2.637205e+05
  -3.046078e+05  -7.709205e+04
  -3.394953e+05  -1.751542e+05
  -1.865032e+05  -3.080732e+04
  -1.785402e+04   5.806297e+04
   5.851704e+04  -9.283757e+04
   1.052764e+05  -3.331688e+05
   2.085966e+05  -3.504407e+05
   3.101829e+05  -2.321090e+04
   2.514704e+05   4.051437e+05
  -2.916760e+04   5.301758e+05
  -3.690441e+05   2.017167e+05
  -4.661959e+05  -2.875450e+05
  -1.488552e+05  -4.896574e+05
   3.831331e+05  -2.649619e+05
   6.471575e+05   1.143274e+05
   3.458372e+05   3.095239e+05
  -2.413134e+05   2.496264e+05
  -4.886735e+05   9.295532e+04
  -1.358597e+05  -5.566359e+03
   3.629053e+05   1.380590e+04
   3.567634e+05   1.455860e+05
  -2.072891e+05   2.811318e+05
  -7.071350e+05   1.994525e+05
