
 $NMID
 id='ANONYMOUS ', fmtdat='(2E16.6)'
 volume=1.0
 tramp=1.0
 $END
  -5.220416e+07   1.021626e+06
  -3.216011e+07  -3.202996e+07
   6.329894e+06  -3.572660e+07
   2.563078e+07  -1.393802e+07
   1.555615e+07   6.541480e+06
  -3.030228e+06   8.813392e+06
  -9.260647e+06  -1.152681e+06
  -2.627100e+06  -9.178535e+06
   5.830475e+06  -8.707906e+06
   9.017622e+06  -1.878027e+06
   6.512381e+06   5.649238e+06
   8.198891e+05   7.885600e+06
  -3.603315e+06   2.587231e+06
  -2.376481e+06  -4.926913e+06
   3.518383e+06  -6.020426e+06
   7.345873e+06   1.202329e+06
   4.211286e+06   9.426927e+06
  -3.386508e+06   1.097890e+07
  -9.263913e+06   5.619967e+06
  -1.001996e+07  -1.676315e+06
  -6.317028e+06  -6.752537e+06
  -9.105226e+05  -8.026310e+06
   2.580764e+06  -5.811083e+06
   1.867379e+06  -2.659989e+06
  -7.975632e+05  -1.937358e+06
  -2.094986e+05  -3.675550e+06
   4.795728e+06  -3.983193e+06
   8.727430e+06  -5.583965e+05
   6.491085e+06   3.648544e+06
   3.897151e+05   4.564756e+06
  -3.227998e+06   2.375915e+06
  -2.161716e+06   1.501346e+05
   5.134473e+05  -6.548329e+05
   1.920863e+06  -3.443428e+05
   1.878036e+06   1.212481e+06
   6.689980e+05   3.448022e+06
  -1.538065e+06   3.556559e+06
  -2.967711e+06   8.659066e+04
  -1.719966e+06  -3.244605e+06
   5.789881e+05  -1.876672e+06
   2.951816e+05   2.108761e+06
  -2.257404e+06   2.075201e+06
  -2.300078e+06  -2.964227e+06
   2.218177e+06  -5.785585e+06
   6.519448e+06  -1.114842e+06
   4.911543e+06   6.343863e+06
  -1.641546e+06   7.982904e+06
  -6.836941e+06   2.355934e+06
  -6.421849e+06  -4.075336e+06
  -1.679174e+06  -5.579151e+06
   3.231379e+06  -2.481462e+06
   4.844875e+06   1.460749e+06
   2.213291e+06   3.269670e+06
  -2.257208e+06   2.070218e+06
  -4.214931e+06  -8.303295e+05
  -1.831687e+06  -2.529521e+06
   1.579748e+06  -1.292607e+06
   1.593349e+06   9.652666e+05
  -1.295721e+06   8.797354e+05
  -2.393639e+06  -1.673928e+06
   5.343150e+05  -3.333185e+06
   4.345293e+06  -1.894067e+06
   4.995399e+06   1.225987e+06
   2.203885e+06   3.697318e+06
  -1.596884e+06   4.842090e+06
  -4.510990e+06   4.437194e+06
  -5.621707e+06   1.656951e+06
  -4.226972e+06  -2.803180e+06
  -9.186624e+05  -5.624925e+06
   1.731134e+06  -4.401975e+06
   1.710271e+06  -1.108968e+06
   1.998012e+05   3.364700e+05
  -8.925931e+04  -7.693206e+05
   1.341195e+06  -1.587920e+06
   2.462854e+06  -2.635686e+05
   1.795664e+06   1.674742e+06
   2.838930e+04   1.872154e+06
  -1.356450e+06   1.398850e+05
  -1.463550e+06  -1.883955e+06
   6.561042e+03  -2.642814e+06
   2.484739e+06  -1.517290e+06
   4.073246e+06   1.026509e+06
   3.005665e+06   3.391819e+06
   4.476822e+04   3.899095e+06
  -2.060990e+06   2.565548e+06
  -2.079724e+06   1.093162e+06
  -1.723044e+06   6.239734e+05
  -2.718402e+06   4.079070e+05
  -3.983628e+06  -7.349401e+05
  -3.167741e+06  -2.559800e+06
  -8.096530e+04  -3.768823e+06
   2.947417e+06  -3.521530e+06
   3.786234e+06  -1.902806e+06
   2.392739e+06   3.677237e+05
   2.556333e+05   1.994730e+06
  -9.781045e+05   1.743279e+06
  -5.055196e+05  -2.152892e+04
   9.877882e+05  -1.181322e+06
   1.747285e+06  -3.614909e+05
   8.533125e+05   1.096234e+06
  -4.715675e+05   1.001064e+06
  -3.712857e+05  -3.834927e+05
   1.044044e+06  -6.281140e+05
   1.759240e+06   1.264044e+06
   5.454702e+05   3.304138e+06
  -1.604367e+06   3.155778e+06
  -2.994246e+06   9.337508e+05
  -3.016983e+06  -1.444075e+06
  -1.983484e+06  -2.586008e+06
  -3.432866e+05  -2.376074e+06
   1.140995e+06  -1.309942e+06
   1.428269e+06  -1.932342e+05
   4.498382e+05   4.706041e+04
  -3.193799e+05  -6.931567e+05
   3.926594e+05  -1.240265e+06
   1.768412e+06  -5.271324e+05
   1.875542e+06   8.430886e+05
   3.402523e+05   1.322142e+06
  -1.088399e+06   5.081775e+05
  -7.944580e+05  -4.417805e+05
   8.160905e+05  -4.489552e+05
   1.995729e+06   3.698039e+05
   1.539507e+06   1.296121e+06
  -2.943056e+05   1.789522e+06
  -2.144913e+06   1.460480e+06
  -2.542045e+06   2.073027e+05
  -1.109803e+06  -1.180181e+06
   8.525920e+05  -1.386530e+06
   1.445842e+06  -1.755981e+05
   1.906777e+05   9.936083e+05
  -1.398163e+06   6.647707e+05
  -1.570369e+06  -7.468845e+05
  -2.731730e+05  -1.533503e+06
   1.040999e+06  -8.744754e+05
   1.159238e+06   3.279753e+05
   2.042430e+05   7.389457e+05
  -7.439740e+05   4.495303e+04
  -6.697970e+05  -9.733534e+05
   5.362995e+05  -1.298257e+06
   1.838982e+06  -4.804354e+05
   1.854931e+06   9.788272e+05
   3.308383e+05   1.909000e+06
  -1.346242e+06   1.494832e+06
  -1.593709e+06   1.668460e+05
  -4.450722e+05  -8.122393e+05
   6.213106e+05  -7.261689e+05
   5.690407e+05  -5.611417e+04
  -1.368604e+05   3.146630e+05
  -4.507638e+05   1.520732e+05
  -7.398380e+04  -7.889012e+04
   4.467750e+05   9.339633e+04
   4.716243e+05   6.529420e+05
  -2.187223e+05   1.100560e+06
  -1.287370e+06   8.024800e+05
  -1.904550e+06  -4.080917e+05
  -1.321039e+06  -1.798632e+06
   2.300033e+05  -2.209680e+06
   1.503621e+06  -1.256062e+06
   1.537584e+06   1.592056e+05
   7.404381e+05   8.327851e+05
   2.509468e+05   5.701303e+05
   4.378314e+05   1.721937e+05
   5.979929e+05   2.880007e+05
   8.655721e+04   7.137414e+05
  -8.243449e+05   8.143252e+05
  -1.333808e+06   2.626006e+05
  -9.312149e+05  -6.821997e+05
   2.721776e+05  -1.320693e+06
   1.596966e+06  -9.436929e+05
   2.045795e+06   4.803478e+05
   1.001934e+06   1.947782e+06
  -9.710998e+05   2.165598e+06
  -2.362161e+06   9.078427e+05
  -2.146894e+06  -6.586306e+05
  -8.311084e+05  -1.255792e+06
   2.304651e+05  -8.489178e+05
   3.598634e+05  -4.297792e+05
   4.866392e+04  -6.717585e+05
   8.315151e+04  -1.204139e+06
   6.249601e+05  -1.188829e+06
   1.194365e+06  -2.873294e+05
   1.214988e+06   9.990420e+05
   4.894892e+05   1.737012e+06
  -5.825835e+05   1.306045e+06
  -1.176579e+06  -2.250180e+04
  -7.279628e+05  -1.196736e+06
   3.882692e+05  -1.283569e+06
   1.097257e+06  -3.497206e+05
   7.527418e+05   6.743310e+05
  -1.354678e+05   1.009908e+06
  -5.267314e+05   7.204696e+05
  -9.868164e+04   3.756598e+05
   3.942258e+05   3.039958e+05
   5.215841e+04   3.474579e+05
  -1.064400e+06   1.805439e+05
  -1.899456e+06  -3.262560e+05
  -1.473075e+06  -9.760713e+05
   6.008892e+04  -1.333407e+06
   1.482879e+06  -1.041457e+06
   1.692608e+06  -2.251938e+05
   7.632857e+05   4.864842e+05
  -2.482905e+05   5.325807e+05
  -4.793992e+05   1.935044e+04
  -3.742278e+04  -3.953371e+05
   3.987192e+05  -2.322735e+05
   4.398813e+05   3.158999e+05
   2.393880e+05   6.503406e+05
   9.881477e+04   4.298857e+05
   1.309998e+05  -7.215847e+04
   2.528835e+05  -2.424131e+05
   2.468266e+05   2.196047e+05
  -1.341481e+05   8.905643e+05
  -8.329615e+05   9.698219e+05
  -1.263203e+06   1.691525e+05
  -7.919088e+05  -8.338747e+05
   3.824681e+05  -1.055847e+06
   1.158185e+06  -3.211174e+05
   6.661924e+05   5.235790e+05
  -6.560665e+05   5.843782e+05
  -1.448441e+06  -1.200589e+05
  -8.864632e+05  -8.181793e+05
   4.811399e+05  -8.915255e+05
   1.383489e+06  -3.898401e+05
   1.113581e+06   2.119837e+05
   1.040127e+05   4.714601e+05
  -6.039225e+05   2.299660e+05
  -3.583414e+05  -2.768912e+05
   5.251817e+05  -4.794665e+05
   1.077597e+06   6.570711e+04
   6.230468e+05   1.069002e+06
  -5.231825e+05   1.553756e+06
  -1.345675e+06   8.120879e+05
  -1.141578e+06  -6.920611e+05
  -1.732198e+05  -1.633075e+06
   6.918139e+05  -1.163807e+06
   8.450354e+05   1.871600e+05
   3.671693e+05   1.101383e+06
  -2.358449e+05   8.782420e+05
  -5.243257e+05   6.421442e+04
  -4.047294e+05  -3.505453e+05
  -1.276968e+05  -1.267751e+05
  -5.424964e+04   8.311783e+04
  -2.843527e+05  -2.770027e+05
  -4.699064e+05  -8.899632e+05
  -1.409222e+05  -9.899245e+05
   6.844950e+05  -3.586416e+05
   1.340180e+06   4.371952e+05
   1.140707e+06   7.816577e+05
   1.621289e+05   6.457130e+05
  -7.619917e+05   3.739489e+05
  -8.954203e+05   1.493297e+05
  -3.504012e+05  -5.884147e+04
   1.255897e+05  -2.054812e+05
   6.241822e+04  -1.814032e+05
  -2.106150e+05  -8.016286e+04
  -5.591719e+04  -1.175262e+05
   5.736524e+05  -2.163777e+05
   9.588411e+05   4.295430e+03
   4.366645e+05   6.289653e+05
  -7.414620e+05   1.086119e+06
  -1.571063e+06   7.143828e+05
  -1.322429e+06  -3.720503e+05
  -2.598700e+05  -1.279217e+06
   7.096516e+05  -1.269164e+06
   9.570516e+05  -5.114425e+05
   5.912841e+05   1.976487e+05
   1.350642e+05   3.256022e+05
  -3.450314e+04   7.248777e+04
   8.867504e+04   2.933869e+03
   2.624475e+05   3.493017e+05
   2.130910e+05   7.428534e+05
  -1.564681e+05   6.266983e+05
  -6.127228e+05  -9.071324e+04
  -6.912078e+05  -8.451731e+05
  -1.425809e+05  -9.397633e+05
   6.633364e+05  -2.543023e+05
   9.527222e+05   6.268315e+05
   3.420882e+05   9.936937e+05
  -6.411556e+05   6.437382e+05
  -1.037375e+06  -5.356725e+04
  -5.099838e+05  -5.769404e+05
   2.574534e+05  -6.500920e+05
   3.706681e+05  -3.494978e+05
  -1.957884e+05  -2.606837e+03
  -5.858581e+05   4.052995e+04
  -1.459728e+05  -2.851147e+05
   7.550019e+05  -6.188618e+05
   1.180617e+06  -4.800418e+05
   7.315079e+05   1.776569e+05
  -8.111504e+04   8.068840e+05
  -5.263397e+05   8.019991e+05
  -4.140030e+05   1.764023e+05
  -6.383493e+04  -4.230818e+05
   2.086671e+05  -4.141848e+05
   3.158060e+05   1.073103e+05
   2.387142e+05   5.255539e+05
  -3.449059e+04   4.142411e+05
  -3.568305e+05  -2.720893e+04
  -4.495172e+05  -2.718677e+05
  -2.259375e+05  -1.041143e+05
   4.984366e+04   1.556738e+05
   8.504665e+04   8.306543e+04
  -4.672304e+04  -2.984993e+05
  -1.645238e+04  -5.230186e+05
   2.637519e+05  -2.480495e+05
   4.513234e+05   3.048951e+05
   1.948872e+05   5.780287e+05
  -3.551431e+05   3.011017e+05
  -6.246378e+05  -2.298741e+05
  -2.477544e+05  -5.093612e+05
   4.700411e+05  -3.431754e+05
   8.225023e+05   4.808371e+04
   4.489611e+05   3.405043e+05
  -2.623621e+05   3.893288e+05
  -5.861572e+05   2.402329e+05
  -2.505989e+05   2.719429e+04
   2.806328e+05  -8.182955e+04
   3.550101e+05   2.596020e+04
  -1.297949e+05   2.435443e+05
  -6.358284e+05   2.465130e+05
