
 $NMID
 id='ANONYMOUS ', fmtdat='(2E16.6)'
 volume=1.0
 tramp=1.0
 $END
  -3.264778e+03   3.683768e+02
  -1.933149e+03  -1.888232e+03
   5.316588e+02  -2.347984e+03
   1.309811e+03  -8.417761e+02
   7.121645e+02   2.403463e+02
  -2.916565e+02   5.550941e+02
  -6.503991e+02  -3.610609e+02
  -6.552177e-01  -7.090679e+02
   5.265069e+02  -7.143505e+02
   8.254879e+02   5.540876e+01
   2.765333e+02   6.201267e+02
  -1.051825e+02   7.724480e+02
  -3.735442e+02   2.654901e+01
  -4.022356e+02  -4.506749e+02
   1.662181e+02  -6.098235e+02
   4.253596e+02   5.044981e+01
   2.086624e+02   5.908968e+02
  -1.859463e+02   5.884220e+02
  -4.991080e+02   2.364421e+02
  -4.095533e+02  -3.298163e+02
  -8.723148e+00  -3.424477e+02
   2.037737e+02  -2.086760e+02
   1.349057e+02  -7.785467e+01
  -1.712097e+02  -2.459458e+01
  -2.889826e+02  -1.904521e+02
  -1.079455e+02  -3.105208e+02
   4.852750e+02  -2.668275e+02
   6.772487e+02   1.253202e+02
   3.229363e+02   3.937593e+02
  -3.922282e+02   3.225137e+02
  -4.802787e+02  -1.373724e+02
  -1.635830e+02  -3.682905e+02
   2.072353e+02  -4.842765e+02
   5.221835e+02  -1.977794e+02
   3.295929e+02   1.307520e+02
   1.049750e+02   3.561263e+02
  -1.103926e+02   2.812387e+02
  -1.078458e+02  -1.897924e+02
   1.772789e+02  -2.223691e+02
   1.995742e+02   5.596688e+01
   1.107048e+02   5.196330e+02
  -2.134063e+02   4.456942e+02
  -4.535993e+02   9.271388e+01
  -2.257294e+02  -3.732347e+02
   1.985067e+02  -2.827999e+02
   2.755166e+02   3.371884e+02
  -1.575453e+02   5.428200e+02
  -4.767417e+02   3.180324e+01
  -5.111906e+02  -3.809274e+02
  -7.511275e+01  -5.283208e+02
   4.357456e+02  -2.651264e+02
   5.514772e+02   5.191109e+01
   3.239143e+02   3.233259e+02
  -6.939918e+01   2.659478e+02
  -4.127807e+02   6.929329e+01
  -1.531600e+02  -1.628834e+02
   4.141195e+01  -5.152573e+01
   1.080738e+02   1.186264e+02
  -1.347163e+02   1.804562e+02
  -2.908861e+02  -6.739944e+01
  -1.126952e+02  -2.717852e+02
   1.483923e+02  -1.663735e+02
   2.948643e+02  -2.342894e+01
   2.099945e+02   6.777099e+01
  -2.136344e+01   2.344820e+02
  -2.031993e+02   3.422555e+02
  -3.466572e+02   1.736045e+02
  -2.058496e+02  -1.022355e+02
  -2.965841e+01  -4.056836e+02
   7.080067e+01  -2.932769e+02
   8.041704e+01  -1.201034e+02
   1.804556e+01  -5.362637e+01
   8.669505e+01  -7.820003e+01
   2.369256e+02  -7.669337e+01
   2.715708e+02   1.216735e+02
   1.102084e+02   2.666595e+02
  -1.099633e+02   2.306063e+02
  -1.880234e+02  -7.005996e+00
  -1.112459e+02  -2.626403e+02
   1.160485e+00  -2.227909e+02
   1.835609e+02  -6.726849e+01
   2.695567e+02   1.881135e+02
   1.615029e+02   3.442453e+02
  -6.681720e+01   3.144479e+02
  -1.176467e+02   4.457594e+01
  -1.405944e+02   2.396139e+01
  -1.458363e+02   4.424951e+01
  -2.586704e+02   6.310767e+01
  -4.033841e+02  -9.644400e+01
  -2.781816e+02  -2.916962e+02
   1.017284e+01  -4.089609e+02
   3.102537e+02  -3.153144e+02
   3.978775e+02  -1.209611e+02
   2.901981e+02   7.891030e+01
   5.063441e+01   2.865439e+02
  -1.286546e+02   1.277764e+02
  -8.997242e+01   5.871824e+01
   7.448969e+01  -4.906602e+01
   1.283174e+02   1.258794e+01
   4.605811e+01   1.682995e+02
  -1.400850e+02   8.995934e+01
  -1.630422e+02  -6.115686e+01
   3.733755e+00  -1.321708e+02
   1.582564e+02  -5.175946e+01
   1.811684e+02   2.504021e+02
  -5.600569e+01   3.512613e+02
  -2.577470e+02   1.581153e+02
  -2.694180e+02  -9.151054e+01
  -2.347554e+02  -2.719273e+02
  -4.672660e+01  -2.250748e+02
   1.352806e+02  -1.753864e+02
   1.147207e+02   2.648498e+01
   5.275504e+01   4.904058e+01
  -6.346232e+01  -3.905059e+01
  -2.583124e+01  -5.124997e+01
   1.101786e+02  -8.501655e+01
   1.774905e+02   2.796653e+01
   4.870622e+01   7.922185e+01
  -8.012974e+01  -4.014265e+00
  -3.115049e+01  -8.255073e+01
   1.295970e+02  -6.923179e+01
   2.202997e+02   1.821690e+01
   2.585749e+02   1.176991e+02
   2.841739e+01   2.858543e+02
  -1.542521e+02   2.707500e+02
  -2.173973e+02   7.215469e+01
  -1.071555e+02  -9.077876e+01
  -2.739285e+01  -9.420288e+01
   4.500049e+01   7.386439e+00
  -2.516996e+01   1.009078e+02
  -1.472794e+02   2.967416e+01
  -1.445992e+02  -1.384293e+02
  -9.537132e+01  -2.046748e+02
   7.923740e+01  -1.586839e+02
   1.530373e+02  -3.160927e+01
   6.095845e+01   3.975281e+01
  -5.947084e+01   1.573777e+01
  -4.475891e+01  -8.402204e+01
   1.018962e+02  -1.568776e+02
   1.769453e+02  -3.096950e+01
   1.888393e+02   1.326595e+02
   1.126390e+01   2.280654e+02
  -1.420691e+02   9.590644e+01
  -1.808439e+02   2.980681e+01
  -6.289850e+01  -1.205993e+02
   5.504492e+01  -1.003176e+02
   7.396018e+01  -2.893495e+01
   2.921466e+01   5.022353e+01
  -3.258223e+01   1.283730e+01
  -1.744611e+01  -2.442787e+01
   1.230464e+02   8.077404e+00
   5.331238e+01   5.466170e+01
   3.797437e+01   1.635501e+02
  -1.277608e+02   1.446448e+02
  -2.116239e+02   2.523213e+01
  -1.752767e+02  -1.212335e+02
  -5.300601e+01  -2.301132e+02
   1.226931e+02  -1.726880e+02
   1.009682e+02  -5.404731e+01
   8.824199e+01   2.750753e+01
   4.640404e+01   3.392537e+01
   6.551229e+01   3.922517e+01
   5.956566e+01  -2.594649e+01
   7.148119e+01   3.410784e+01
  -1.925964e+01   1.034771e+02
  -1.342763e+02   6.909004e+01
  -4.396490e+01  -3.467202e+01
   1.824840e+01  -1.429563e+02
   1.715135e+02  -1.280276e+02
   2.288427e+02   6.252290e+01
   4.859320e+01   2.192027e+02
  -1.187381e+02   2.198438e+02
  -2.908757e+02   8.314443e+01
  -2.135486e+02  -7.650931e+01
  -1.356306e+02  -1.554257e+02
   1.332101e+01  -1.194079e+02
   7.939446e+01  -8.061161e+01
   7.880452e+01  -4.883612e+01
   3.828529e+01  -9.095490e+01
   7.152428e+01  -5.516821e+01
   1.514170e+02   3.211165e+01
   1.058533e+02   1.352412e+02
   2.553346e+01   2.260582e+02
  -1.121917e+02   1.315837e+02
  -1.701617e+02   1.919035e+01
  -1.636570e+02  -1.335982e+02
   1.129944e+01  -1.636957e+02
   6.190416e+01  -8.138932e+01
   8.747393e+01  -4.596062e+01
   3.337059e+01   5.254493e+01
   1.260863e+00  -4.338493e+00
   2.078238e+01   5.258992e+01
   5.538403e+01   4.036766e+01
  -5.681730e+00   5.349661e+01
  -6.889079e+01   5.144103e+01
  -1.677276e+02  -2.261674e+01
  -1.278514e+02  -3.691782e+01
   2.974241e+01  -7.709154e+01
   1.192697e+02  -9.101306e+01
   1.395799e+02  -9.183043e-01
   9.141376e+01   3.012471e+01
  -7.091534e+01   1.497540e+01
  -5.422210e+01   8.117398e+00
  -4.106695e+00  -7.178028e+01
   5.277430e+01  -3.041933e+01
   5.053487e+01   1.417832e+01
   6.082407e+01   4.340330e+01
   3.567218e+01   4.527803e+01
   5.660077e+01  -9.913602e+00
   4.012776e+01  -2.817131e+01
   2.353153e+01   7.251374e+01
  -4.585164e+00   1.724488e+02
  -9.750284e+01   1.467703e+02
  -1.759695e+02   6.332080e+01
  -7.685851e+01  -8.264959e+01
   4.135891e+01  -1.258685e+02
   9.886091e+01  -6.480353e+01
   4.834390e+01  -1.422250e+01
  -2.331803e+01  -6.705766e+00
  -1.708519e+02  -3.523684e+01
  -6.632403e+01  -1.137517e+02
   9.636044e+01  -1.182481e+02
   1.843701e+02  -5.044482e+01
   1.257094e+02   4.298477e+01
   6.349056e+01   9.811700e+01
  -7.949358e+01   9.133661e+01
  -7.933507e+01  -2.366149e+01
   4.733248e+01  -4.709083e+01
   8.629085e+01  -2.892494e+01
   5.938464e+01   1.062172e+02
  -4.627458e+01   1.914158e+02
  -1.465786e+02   7.774164e+01
  -8.985430e+01  -1.364009e+02
  -1.533435e+01  -1.800193e+02
   7.955333e+01  -1.415299e+02
   8.999811e+01  -1.150251e+01
   6.296651e+01   8.449200e+01
  -2.061829e+01   1.158079e+02
  -7.381247e+01   3.381453e+01
  -5.819246e+01  -4.653239e+01
  -1.084522e+01  -1.204639e+00
   2.623847e+00   1.648336e+01
  -1.787291e+01  -2.187012e+01
  -3.530973e+01  -8.661218e+01
  -5.193997e+01  -8.741889e+01
   3.683441e+01  -2.942798e+01
   1.492880e+02   4.657938e+01
   1.170523e+02   8.196194e+01
   1.180143e+01   1.185087e+01
  -9.851803e+01   4.162599e+01
  -1.203406e+02  -3.208546e-02
  -4.906585e+00  -6.781721e+01
   3.779726e+01  -6.572209e+00
   2.781864e+01  -3.060530e+01
   1.044272e+01   2.254925e+01
  -1.438991e+01   9.724240e+00
   9.070606e+01   2.966802e+00
   4.576215e+01   1.640663e+01
  -1.760642e+01   3.077241e+01
  -1.200194e+02   1.083719e+02
  -1.537406e+02   9.026021e+00
  -1.674092e+02  -6.858317e+01
  -2.000396e+01  -1.605448e+02
   9.423228e+01  -1.344917e+02
   1.139728e+02  -7.400199e+01
   8.419187e+01   2.218778e+01
   2.798865e+01   2.072447e+01
   2.350216e+01   2.577589e+01
   9.733409e+00   1.156899e+01
   2.160683e+01   3.935443e+01
   2.404691e+01   6.123136e+01
  -3.943113e+01   8.033721e+01
  -1.069349e+02  -4.588151e+01
  -8.683655e+01  -1.058562e+02
  -1.941534e+01  -5.078569e+01
   6.785420e+01  -2.526049e+01
   9.352063e+01   7.262560e+01
   2.829180e+01   8.987013e+01
  -2.451074e+01   7.199697e+01
  -1.113633e+02  -1.534577e+01
   5.945195e+00  -7.168953e+01
   7.034934e+01  -6.566681e+01
  -1.824283e+01  -6.123467e+01
  -1.277663e+01   3.909316e+01
  -5.023206e+01   1.921441e+01
  -3.718549e+00  -3.934420e+01
   1.154414e+02  -2.151416e+01
   7.762204e+01  -5.991959e+01
   4.709050e+01   3.672078e+01
   5.343242e+00   8.239678e+01
  -4.849239e+01   7.767118e+01
  -1.338503e+01  -3.726773e+01
  -1.408731e+01  -3.411890e+01
   6.170416e+01  -3.010481e+01
   3.107940e+01   9.212332e+00
  -2.646234e+00   6.767188e+01
  -9.292514e-01   4.018335e+01
  -6.023830e+01   1.983723e+01
  -4.385967e+01   9.025763e+00
   2.239065e+01  -7.023983e+00
   2.443124e+01   4.962830e+00
   1.242211e+01   3.431461e+01
   1.783393e+01  -4.206898e+01
   1.009836e+01  -6.652041e+01
   4.928605e+01  -1.692992e+01
   1.473756e+01   4.001402e+01
  -1.858474e+00   8.052797e+01
  -3.965818e+01  -1.064790e+01
  -4.146345e+01  -5.845520e+01
   9.813808e+00  -5.503884e+01
   1.437288e+01  -1.444243e+01
   8.172356e+01   3.228595e+01
   6.256242e+01  -5.505073e+00
  -2.381086e+01   1.292755e+01
  -4.767429e+01   8.344260e+00
   5.089168e-01   2.960273e+01
   4.815586e+01   1.423282e+01
   3.507030e+01  -1.340201e+01
  -3.930544e+01   4.806561e+01
  -6.420017e+01   5.159483e+01
