
 $NMID
 id='ANONYMOUS ', fmtdat='(2E16.6)'
 volume=1.0
 tramp=1.0
 $END
   2.853142e+03   1.928134e+02
   1.683031e+03   1.437357e+03
  -2.514670e+01   1.627352e+03
  -1.382647e+03   6.851757e+02
  -9.165488e+02   9.919850e+01
   1.443655e+02  -1.543042e+02
   3.025911e+02   7.971645e+01
  -5.384834e+01   4.332807e+02
  -4.001263e+02   6.067250e+02
  -6.218266e+02  -2.132849e+00
  -3.054532e+02  -5.155864e+02
  -3.220112e+01  -5.951725e+02
   1.948604e+02   7.178607e+01
   2.227693e+02   3.314183e+02
  -3.633252e+01   5.562734e+02
  -2.868682e+02   5.667642e+01
  -1.806528e+02  -5.767293e+02
   1.285378e+02  -5.477665e+02
   4.052106e+02  -2.330031e+02
   3.206301e+02   1.985702e+02
   5.307774e+01   3.237340e+02
  -1.385277e+02   1.832185e+02
  -8.533669e+01   9.116288e+01
   1.204881e+02   4.641642e+01
   2.137616e+02   2.690058e+02
   1.155966e+01   2.690236e+02
  -3.846209e+02   9.829392e+01
  -6.122976e+02  -1.530782e+02
  -2.684875e+02  -2.631703e+02
   3.010553e+02  -2.364685e+02
   4.507794e+02   2.289529e+02
   1.397566e+02   3.443505e+02
  -2.598370e+02   3.220465e+02
  -4.269549e+02   1.517389e+02
  -2.453821e+02  -1.686126e+02
  -6.020675e+01  -3.638772e+02
   5.463764e+01  -2.165550e+02
  -2.617369e+00   8.666381e+01
  -2.409550e+02   1.873612e+02
  -2.155843e+02  -9.849865e+01
   1.053426e+01  -4.665135e+02
   2.535011e+02  -3.730877e+02
   2.946080e+02  -8.376319e+01
   1.938200e+02   2.446456e+02
  -6.883392e+01   1.707180e+02
  -1.127615e+02  -1.982237e+02
   1.094672e+02  -4.044514e+02
   3.978436e+02   2.148357e+01
   4.306928e+02   3.185034e+02
   1.176422e+02   5.087266e+02
  -2.948615e+02   2.540256e+02
  -5.464832e+02  -2.547030e+01
  -2.660824e+02  -2.845584e+02
   8.256581e+01  -2.260195e+02
   2.830952e+02  -3.220409e+01
   1.382140e+02   1.079234e+02
  -3.089080e+01   1.375696e+01
  -7.745070e+01  -5.433387e+01
   1.186073e+02  -1.467674e+02
   2.667043e+02   6.008574e+01
   9.054803e+01   2.149625e+02
  -1.207655e+02   1.587748e+02
  -3.356672e+02   8.273545e+01
  -2.298797e+02  -4.291274e+01
   2.252128e+01  -2.325215e+02
   2.543402e+02  -3.157322e+02
   3.206933e+02  -1.604443e+02
   1.927604e+02   1.703340e+02
   4.611680e+01   2.858033e+02
  -8.347202e+01   2.386062e+02
  -6.347970e+01   1.127594e+02
  -1.466691e+01   6.837144e+01
  -8.949876e+01   8.592764e+01
  -2.242245e+02   2.120803e+01
  -3.027716e+02  -1.565358e+02
  -8.536485e+01  -2.433251e+02
   8.239512e+01  -1.677566e+02
   1.471150e+02   7.997906e+01
   1.158031e+02   2.538716e+02
   3.288204e+00   2.133022e+02
  -1.981380e+02   6.162623e-01
  -2.405278e+02  -2.094482e+02
  -1.264958e+02  -2.776753e+02
   1.014171e+02  -1.986189e+02
   1.599437e+02  -6.754564e+01
   1.715843e+02  -3.047391e+01
   1.452563e+02  -2.349482e+01
   2.822621e+02  -4.861708e+01
   3.379799e+02   1.238360e+02
   2.551199e+02   2.662330e+02
  -3.951574e+01   3.347553e+02
  -3.323557e+02   3.515723e+02
  -4.107998e+02   1.054590e+02
  -2.705527e+02  -9.574411e+01
  -6.862126e+00  -2.519883e+02
   1.493320e+02  -1.499166e+02
   2.128237e+01  -6.626548e+00
  -1.139532e+02  -6.309097e-01
  -1.101723e+02  -7.386948e+01
   6.429195e+00  -1.623320e+02
   9.550471e+01  -7.692081e+01
   9.181419e+01   2.400731e+01
  -4.907281e+01   1.172391e+02
  -1.230646e+02   2.099363e+01
  -1.293049e+02  -2.095680e+02
   4.288447e+01  -2.740205e+02
   2.505297e+02  -1.371787e+02
   2.922324e+02   7.023156e+01
   2.241183e+02   2.165483e+02
   4.520513e+01   2.134499e+02
  -1.405523e+02   1.145326e+02
  -1.507083e+02   1.432954e+01
  -2.703843e+01  -3.007047e+01
   5.812213e+01   4.492460e+01
   3.011237e+00   8.928377e+01
  -1.033086e+02   1.008372e+02
  -1.275031e+02  -5.164833e+01
  -1.439747e+01  -4.335131e+00
   8.453024e+01   4.112435e+00
   6.633876e+01   1.106132e+02
  -1.343351e+02   7.557572e+01
  -2.889765e+02  -1.394558e+01
  -1.715282e+02  -1.974087e+02
   3.463174e+01  -2.233558e+02
   1.728857e+02  -1.717918e+02
   2.399233e+02  -4.590572e+01
   1.205144e+02   8.079338e+01
  -2.120472e+01   3.856007e+01
  -6.268892e+01   1.022612e+01
   3.200624e+01  -8.361732e+01
   1.602152e+02  -1.049240e+01
   1.251680e+02   1.016558e+02
   3.966010e+01   1.316739e+02
  -7.524516e+01   1.527508e+02
  -9.233256e+01   2.701548e+01
  -5.328897e+01  -2.352186e+01
   4.067454e+01   6.297441e+00
  -2.220452e+01   6.894329e+01
  -1.152606e+02   1.295154e+02
  -1.800577e+02  -2.479188e+01
  -1.374779e+02  -1.615972e+02
  -9.279420e+00  -1.625384e+02
   1.417630e+02  -1.380774e+02
   1.617812e+02   1.449642e+01
   4.754129e+01   8.170043e+01
  -7.186748e+01   1.145443e+02
  -6.916573e+01   1.367278e+01
  -1.233997e+00  -3.460690e+01
   6.274244e+01  -1.148544e+01
  -5.602015e+00  -5.336571e+00
  -4.692529e+01   4.255650e+00
  -7.693637e+01  -6.571360e+01
  -1.116464e+01  -1.204102e+02
   1.189326e+02  -8.808529e+01
   2.092137e+02   1.488474e+01
   1.592607e+02   1.193811e+02
   5.292493e+01   1.875753e+02
  -1.232734e+02   1.863417e+02
  -1.450242e+02   6.080347e+00
  -6.383796e+01  -4.157835e+01
  -4.172731e+01  -7.575865e+00
  -5.774561e+01  -1.549926e+01
  -5.614750e+01   3.794554e+01
  -4.189123e+01  -5.788077e+01
   6.390342e+01  -9.978193e+01
   1.221355e+02  -9.025937e+01
   1.134180e+02   1.833666e+01
  -1.362617e+01   9.242611e+01
  -1.703091e+02   7.017623e+01
  -1.826042e+02  -5.495764e+01
  -6.550986e+01  -1.771336e+02
   1.093263e+02  -2.086454e+02
   2.248442e+02  -5.949569e+01
   2.562667e+02   9.993180e+01
   9.265759e+01   1.423129e+02
  -6.889218e+01   1.275357e+02
  -1.069604e+02   1.110098e+01
  -1.074547e+02   1.223358e+01
  -6.308709e+01   1.076967e+02
  -7.650049e+01   7.742586e+01
  -9.326553e+01   3.515111e+01
  -1.302514e+02  -1.464893e+02
  -3.240040e+01  -2.128482e+02
   1.305299e+02  -1.401785e+02
   1.589746e+02   5.891408e+01
   8.304183e+01   1.063389e+02
  -2.166394e-01   1.166304e+02
  -6.301810e+01   6.823456e+01
  -3.223691e+01   3.518002e+01
   2.678572e+01  -4.405837e+01
   3.371201e+01  -6.092565e+01
  -3.236045e+01  -3.681385e+01
  -6.778507e+01  -2.972774e+01
  -2.091006e+01  -2.911131e+01
   1.107607e+02   2.539440e+00
   1.889906e+02   7.463596e+00
   9.884241e+01   9.848557e+01
   1.368358e+01   1.065868e+02
  -9.743301e+01   8.008896e+01
  -1.218165e+02  -1.604370e+01
  -7.397779e+00  -5.976691e+01
   5.995489e+01  -2.178550e+01
   5.251925e+01  -1.084140e+01
  -2.284968e+01   6.914729e+01
  -3.207249e+01   8.174455e+01
  -5.133749e+01  -8.647557e+00
  -3.335466e+01  -2.793848e+01
   6.153046e+00  -3.103594e+00
  -9.568117e+00  -2.165826e+01
  -3.669160e+01  -1.382838e+01
  -4.844850e+01  -6.855072e+01
   3.185404e+01  -1.242537e+02
   1.135330e+02  -1.444383e+02
   1.904305e+02  -6.325568e+01
   1.122695e+02   1.073562e+02
   3.977749e+01   9.893957e+01
  -1.200886e+02   5.970304e+01
  -1.666260e+01  -1.649427e+01
   8.559888e+01  -1.819004e+01
   1.021792e+02   5.988580e+01
   4.978322e+01   1.125734e+02
  -9.811565e+01   7.143363e+01
  -1.341119e+02   3.615382e+01
  -1.337229e+02  -5.733772e+01
  -2.971777e+01  -8.519434e+01
   4.889624e+01  -5.625861e+01
   5.424720e+01   1.801049e+01
  -6.257507e+01   3.655967e+01
  -2.572880e+01   1.919448e+01
  -3.034386e+01  -5.691910e+01
   3.581211e+01  -1.198036e+02
   1.544777e+02  -7.153691e+01
   1.542287e+02   7.623653e+01
  -7.938389e+00   1.179829e+02
  -9.218372e+01   1.528352e+02
  -8.564758e+01  -1.499049e+01
  -3.668051e+01  -7.808354e+01
   4.030069e+01  -6.909040e+01
  -9.670294e+00  -3.335277e+01
   1.117980e+01   1.209623e+00
   2.489097e+01   3.448317e+01
  -2.878791e+01   2.021436e+00
   2.559393e+01  -3.620759e+01
   3.108794e+01   9.316442e+01
   1.807842e+00   1.099281e+02
  -2.502751e+00   5.194824e+01
  -1.035623e+02  -2.437342e+01
  -9.920577e+01  -4.084998e+01
  -6.781463e-01  -8.399282e+01
   5.274330e+01  -5.151843e+01
   8.597596e+01   2.090003e+01
   6.200427e+00   2.684785e+01
  -4.629258e+01  -1.120470e+00
  -9.188810e+00  -4.836989e+00
   2.706450e+01  -2.916481e+01
  -5.706214e+00  -2.871909e+01
  -3.780232e+01  -4.462473e+00
  -7.984040e+01   5.183101e+00
   2.074185e+00  -8.863583e+01
   7.189363e+01  -1.147978e+02
   1.504483e+02  -7.868998e+00
   1.298345e+02   6.379075e+01
   3.993888e+00   1.636451e+02
  -8.708783e+01   1.778146e+02
  -1.121104e+02   8.749769e-01
  -7.664220e+01  -4.783286e+01
  -3.213428e+01  -2.757040e+01
  -1.314506e+01  -1.194939e+01
  -2.851944e+01  -1.022139e+01
  -4.667920e+01  -7.026096e+01
  -8.056140e+00  -8.363499e+01
   1.559834e+01  -6.968508e+01
   8.895359e+01   4.418438e+01
   5.353032e+01   8.522516e+01
  -4.592542e-01   9.295671e+01
  -8.366332e+01   6.764304e+00
  -9.114724e+01  -6.871962e+01
  -4.920990e+01  -9.039797e+01
   4.904130e+01  -8.693896e+01
   7.678646e+01   2.657304e+01
   4.645474e+01   6.324718e+01
  -2.509421e+01   7.897395e+01
   1.113885e+01   1.820974e+01
   3.427565e+01  -3.973149e+01
   5.086225e+01   3.546265e+01
   3.298112e+01   2.879332e+01
  -4.505260e+01   6.729009e+01
  -1.067843e+02   4.402725e+01
  -5.479455e+01  -3.546064e+01
  -3.428430e+01  -9.243952e+01
   5.966193e+01  -6.518934e+01
   1.359492e+01   3.509837e+01
  -6.222612e+00   4.834959e+01
   2.177455e+01   3.774119e+01
   1.078355e+01   7.599134e+00
  -1.705902e+01  -2.644909e+01
  -2.553723e+01  -2.167790e+01
   7.965406e+00  -6.095419e+00
   8.149916e+01   2.668405e+01
   1.197037e+01   7.669339e+00
  -1.394342e+01  -1.340422e+01
  -2.800613e+01  -1.383975e+01
   1.717698e+01   1.764186e+01
  -3.548526e+01   8.589557e+01
  -3.105049e+01  -1.085045e+01
  -2.678472e+01  -5.875207e+01
  -1.059261e+01  -6.779393e+01
   2.804460e+01  -3.893151e+01
   8.046577e+01   3.870589e+00
   2.090641e+01   5.945622e+01
  -2.854735e+01   1.137214e+01
  -1.299576e+02  -6.290410e+00
  -4.920396e+01  -1.343512e+01
   3.553092e+01  -4.060732e+01
   7.325064e+01  -9.783765e+00
   7.282422e+00   1.563416e+01
  -9.145296e+00   2.155117e+01
  -2.319151e+01   4.965472e+00
   2.824337e+01   1.208519e+01
   3.729670e+01  -2.436512e+01
