
 $NMID
 id='ANONYMOUS ', fmtdat='(2E16.6)'
 volume=1.0
 tramp=1.0
 $END
   3.078203e+03   1.205214e+02
   2.155084e+03   1.455006e+03
  -1.104983e+02   1.708097e+03
  -1.252580e+03   7.960019e+02
  -7.610375e+02   2.849062e+02
   3.478415e+01  -1.198279e+02
   3.866636e+02   5.673014e+01
   4.501653e+01   4.409614e+02
  -4.411737e+02   5.625747e+02
  -6.757907e+02   1.007149e+02
  -2.704772e+02  -4.753473e+02
  -2.286727e+01  -6.197871e+02
   3.257424e+02  -1.949811e+02
   3.309953e+01   3.660662e+02
  -6.575564e+01   4.867736e+02
  -4.450295e+02   5.677578e+01
  -2.564038e+02  -3.822300e+02
   1.199503e+02  -5.621829e+02
   4.237100e+02  -2.254146e+02
   4.111243e+02   1.938174e+02
   2.062146e+02   3.459274e+02
  -1.336336e+02   2.580752e+02
  -4.832170e+01   8.310082e+01
   2.007034e+02   6.142368e+01
   2.806243e+02   2.942562e+02
   2.336068e+01   3.264721e+02
  -5.854273e+02   1.635664e+02
  -7.009402e+02  -2.087821e+02
  -2.123472e+02  -3.173216e+02
   3.860321e+02  -2.015787e+02
   5.354558e+02   9.141415e+01
   2.302984e+02   3.187534e+02
  -2.803126e+02   3.526824e+02
  -4.512487e+02   1.554503e+02
  -2.647634e+02  -1.219613e+02
  -9.825503e+01  -2.811308e+02
   8.165229e+01  -1.504250e+02
  -6.389215e+01   8.817409e+01
  -1.654960e+02   2.910646e+02
  -1.889491e+02  -1.563181e+02
  -2.474368e+01  -4.425056e+02
   2.121546e+02  -4.734175e+02
   3.076006e+02   7.119692e+01
   1.523501e+02   2.875407e+02
  -1.445169e+02   9.835508e+01
  -1.249357e+02  -3.169019e+02
   1.593176e+02  -3.181722e+02
   4.601920e+02  -6.154456e+01
   4.315127e+02   2.792335e+02
   1.859821e+02   4.981450e+02
  -2.962098e+02   2.796712e+02
  -4.884208e+02  -1.112211e+02
  -2.476086e+02  -2.211616e+02
   4.177115e+01  -2.095849e+02
   2.691372e+02  -3.523852e+01
   1.755325e+02   4.993341e+01
   4.385058e+01   1.416830e+01
  -4.111126e+01  -1.967096e+01
   1.131003e+02  -1.867690e+01
   2.556645e+02   7.309120e+01
   1.276525e+02   1.479168e+02
  -1.103467e+02   2.643007e+02
  -2.739569e+02   9.122681e+01
  -2.601123e+02  -7.467556e+01
  -3.506827e+00  -3.148616e+02
   2.626342e+02  -3.347385e+02
   3.931597e+02  -1.692974e+02
   2.592566e+02   1.653846e+02
   2.597086e+01   3.719601e+02
   3.796714e+01   3.045381e+02
  -1.219848e+01   1.215738e+02
   1.145239e+01   1.079243e+02
  -1.050972e+02   1.549966e+02
  -2.163066e+02   3.268657e+01
  -1.882388e+02  -1.149229e+02
  -8.222561e+01  -2.737015e+02
   9.213988e+01  -1.694507e+02
   2.175858e+02   3.566888e+01
   1.506342e+02   2.921105e+02
  -3.386343e+01   2.355627e+02
  -2.448556e+02   5.557862e+01
  -3.072728e+02  -1.175082e+02
  -1.804216e+02  -2.831167e+02
   7.260725e+01  -2.627413e+02
   1.071498e+02  -1.517751e+02
   1.884450e+02  -1.330524e+02
   1.331800e+02  -8.087743e+01
   2.502133e+02   2.641415e+01
   3.860788e+02   1.347110e+02
   3.220616e+02   3.222510e+02
  -2.861709e+01   4.323827e+02
  -3.177283e+02   4.262657e+02
  -4.315750e+02   2.524030e+02
  -2.248529e+02  -3.967701e+01
   9.312677e+00  -2.224573e+02
   2.467296e+01  -1.640212e+02
   4.584871e+01  -2.156967e+01
  -1.132190e+02   4.801930e+01
  -1.205593e+02   1.912509e+01
   3.043182e+01  -1.492421e+02
   9.989349e+01  -1.219256e+02
   8.269349e+01   9.682963e+01
   3.763534e+01   8.586461e+01
  -1.554698e+02   6.353108e-01
  -1.526357e+02  -1.946000e+02
  -5.578999e+00  -3.394539e+02
   1.906983e+02  -2.526987e+02
   3.237900e+02   6.505844e+01
   2.340221e+02   2.494710e+02
   1.273144e+02   2.929404e+02
  -1.383865e+02   1.356183e+02
  -1.352226e+02  -1.429011e+01
  -4.036231e+01  -1.455379e+01
   4.589893e+01   5.784932e+01
   3.614683e+00   8.152326e+01
  -1.219075e+02   4.682443e+01
  -2.142507e+02  -2.880179e+01
  -6.656841e+01  -5.964260e+01
   8.275354e+01   2.713789e+01
   4.802012e+01   1.068022e+02
  -1.274153e+02   7.171817e+01
  -3.257515e+02   3.902976e+01
  -2.657651e+02  -1.408847e+02
  -1.170397e+01  -2.910368e+02
   1.799879e+02  -2.910779e+02
   2.797538e+02  -9.214500e+01
   1.275260e+02   4.491909e+01
  -4.182692e+01   9.677925e+01
  -3.602321e+01   1.663749e+01
   3.585232e+01  -8.626913e+01
   1.690600e+02  -1.272076e+00
   1.853373e+02   7.114396e+01
   3.284015e+01   1.523879e+02
  -9.323027e+01   1.753372e+02
  -1.304807e+02  -1.490800e+01
  -3.661959e+00  -4.556158e+01
   7.878208e+01   3.825977e+01
   4.346073e+01   1.106509e+02
  -9.096047e+01   1.379917e+02
  -2.087094e+02   4.774469e+01
  -1.792252e+02  -9.778562e+01
  -4.006804e+00  -1.860450e+02
   1.392286e+02  -1.787009e+02
   1.447151e+02   1.225334e+01
   1.772862e+01   6.689196e+01
  -6.120870e+01   7.146720e+01
  -5.964410e+01   4.272106e+01
   1.273827e+01  -1.356401e+01
   3.339426e+01   9.443037e+00
  -1.355828e+01   5.208757e+01
  -3.222559e+01   4.723701e+00
  -1.079814e+02  -7.986498e+01
  -2.253137e+01  -1.561212e+02
   1.251333e+02  -1.326539e+02
   1.733284e+02   4.418691e+01
   2.290851e+02   1.560751e+02
   7.162016e+00   2.366588e+02
  -1.249779e+02   1.277075e+02
  -1.116511e+02   7.529688e+01
  -3.628913e+01  -4.121328e+01
  -4.486582e+01  -3.109524e+01
  -5.914778e+01   2.263714e+01
  -1.064299e+02   1.743453e+01
  -4.626367e+01  -4.331934e+01
   3.624675e+01  -1.439303e+02
   9.763763e+01  -8.358885e+01
   8.195385e+01   5.955323e+01
  -2.322241e+01   1.445820e+02
  -1.287107e+02   1.007603e+02
  -2.345822e+02  -9.762939e+01
  -1.463774e+02  -2.124140e+02
   1.474396e+02  -1.903329e+02
   3.044662e+02  -9.286318e+01
   2.123174e+02   7.714926e+01
   1.215949e+02   1.723796e+02
  -1.814736e+00   1.155652e+02
  -6.131587e+01   7.542711e+01
  -5.949526e+01   6.547828e+01
  -1.460786e+01   4.561878e+01
  -8.184453e+01   7.386235e+01
  -1.300961e+02  -5.354229e+01
  -1.247120e+02  -1.515502e+02
  -2.731429e+01  -2.011941e+02
   6.841944e+01  -1.599014e+02
   1.831978e+02  -2.221072e+00
   1.238965e+02   1.275996e+02
   6.710240e+00   1.516831e+02
  -3.437091e+01   9.144405e+01
  -8.436515e+01  -1.116292e+01
  -3.865352e-01  -8.106151e+01
   5.959434e+01  -2.305960e+01
  -3.422071e+00   3.955241e+00
  -8.610241e+01  -3.085943e+01
  -3.419208e+01  -6.468789e+01
   7.720232e+01  -5.131202e+01
   1.752015e+02  -3.510868e+01
   1.869030e+02   6.642485e+01
  -1.643103e+01   8.771575e+01
  -1.478158e+02   6.776259e+01
  -1.313383e+02  -1.317793e+01
  -2.649585e+01  -4.904757e+01
   6.692898e+01  -4.729333e+01
   9.740948e+01   1.900651e+01
   9.063680e+00   4.964819e+01
  -4.650914e+01   4.816504e+01
  -8.542100e+01   2.510402e+01
  -3.586311e+01  -5.721143e+01
  -4.811224e+01  -3.539720e+01
  -7.147407e+01   3.191371e-03
  -9.778242e+01   1.194689e-02
  -2.835377e+01  -8.717986e+01
   4.207771e+01  -1.211595e+02
   1.407367e+02  -1.541241e+02
   1.435837e+02  -8.008146e+00
   1.144331e+02   7.706626e+01
   1.351643e+01   9.809102e+01
  -1.156597e+02   5.398452e+01
  -8.695458e+01  -3.281034e+01
   7.578187e+01  -4.949318e+01
   1.401402e+02   6.312893e+01
   7.700200e+01   1.093463e+02
  -4.655333e+01   1.138750e+02
  -1.222450e+02  -1.068057e+01
  -1.647820e+02  -2.316289e+01
  -2.386880e+01  -5.670635e+01
   5.834721e+01  -6.121992e+01
   4.603113e+01  -2.311257e+00
  -5.658217e+01   1.246397e+01
  -6.030675e+01  -7.713591e+01
  -4.298684e+01  -9.188805e+01
   1.196994e+02  -1.676328e+02
   9.460696e+01  -1.089377e+01
   1.251077e+02   8.152662e+01
  -1.342688e+01   1.537309e+02
  -7.347987e+01   1.448713e+02
  -1.215293e+02   4.821525e+00
  -5.149370e+01  -8.735062e+01
   1.749477e+01  -7.492308e+01
   7.829946e+01  -3.187997e+01
   3.947009e+01   5.116903e+00
  -1.047636e+00  -1.512259e+01
   5.796110e+00  -3.644843e+01
   2.287816e+01   1.053710e+01
   7.990329e+01   7.017703e+01
   6.167104e+01   1.110407e+02
  -4.600430e+01   1.699907e+01
  -1.713997e+02  -3.852298e+01
  -9.695902e+01  -5.104411e+01
  -1.973495e+01  -9.115699e+01
   9.511396e+01  -2.479659e+01
   4.294704e+01  -4.041981e+01
   4.002371e+01   4.812225e+01
  -1.807595e+01  -4.449382e+01
  -1.924785e+01   1.683358e+01
   2.617651e+01  -3.105587e+01
   1.403309e+00   9.175450e-01
  -6.427558e+01   1.780120e+01
  -1.209209e+02   3.543155e+01
  -2.960205e+01  -7.333420e+01
   6.905533e+01  -1.210763e+02
   1.763271e+02  -9.304300e+01
   1.732684e+02   1.073913e+01
   2.521544e+01   1.400652e+02
  -8.250458e+01   1.335030e+02
  -1.242259e+02   5.745315e+01
  -1.037637e+02  -4.161153e+01
  -2.711340e+01  -2.887100e+01
  -6.203953e+00   1.743966e+01
  -3.006377e+01   3.421857e+00
  -1.994208e+01  -1.732213e+01
  -1.678287e+01  -6.060909e+01
  -1.848407e+01  -6.284167e+01
   6.490771e+01  -6.695824e+00
   6.821137e+01   9.797431e+01
   4.879738e+01   1.281148e+02
  -6.663356e+01   3.033976e+01
  -8.324295e+01  -4.326794e+01
  -4.917486e+01  -9.267709e+01
   7.545418e+01  -1.118003e+02
   8.156635e+01   1.818397e+00
   4.053412e+01   5.803841e+01
  -1.241705e+01   5.609765e+01
  -3.288821e+01   1.360008e+01
  -5.117404e+01  -1.756890e+01
   4.340123e+01  -1.921788e+00
  -6.019611e-01  -2.458464e+00
  -1.169001e+02   1.949577e+01
  -1.038367e+02   5.093146e+01
  -7.881713e+01  -1.268320e+01
  -9.371641e+00  -1.078563e+02
   8.759887e+01  -7.243656e+01
   5.912050e+00   8.233487e+00
  -5.556451e+00   5.358937e+01
  -2.912104e+01   3.287351e+01
  -6.617079e+01   2.022075e+01
  -3.203684e+01  -6.811044e+01
  -2.578079e-01  -7.028696e+01
   2.267152e+01  -3.798320e+01
   8.538858e+00   1.221229e+01
   2.507045e+01   9.701863e+00
  -2.051937e+01  -2.364813e+01
  -4.146653e+01   1.886600e+01
   3.847766e+00   7.330031e+01
   1.023310e+01   5.548514e+01
  -1.636429e+01   5.697501e+01
  -8.254113e+01  -2.015205e+01
  -1.363699e+01  -4.469464e+01
   3.810012e+01  -1.701533e+01
   2.296114e+01   2.680763e+01
  -5.356254e+00   7.560680e+01
  -3.710376e+01   3.985334e+01
  -1.221202e+02  -3.218094e+01
  -9.814933e+01  -4.776958e+01
   3.094919e+01  -3.368852e+01
   5.120892e+01  -1.322486e+01
   3.728259e+01  -4.022862e+01
  -7.117153e+01  -1.399193e+01
  -6.575573e+00  -6.336196e+00
   4.187392e+01  -1.263987e+01
   6.930165e+01  -2.739545e+01
