
 $NMID
 id='ANONYMOUS ', fmtdat='(2E16.6)'
 volume=1.0
 tramp=1.0
 $END
  -3.564523e+03  -2.144375e+02
  -2.978091e+03  -1.542781e+03
  -8.040738e+01  -1.927701e+03
   1.717227e+03  -8.336782e+02
   7.790588e+02   8.551413e+01
  -1.790479e+02   2.085056e+02
  -4.650200e+02  -1.724293e+02
  -1.087733e+02  -6.448776e+02
   3.522758e+02  -6.377508e+02
   7.316917e+02   6.001095e+01
   4.249632e+02   6.781011e+02
  -7.081554e+01   5.888913e+02
  -4.754672e+02   1.753498e+02
  -2.152317e+02  -3.917398e+02
   1.139185e+02  -5.118512e+02
   5.110479e+02  -3.836446e+01
   2.934587e+02   5.184302e+02
  -2.047165e+02   5.314210e+02
  -5.257961e+02   1.896413e+02
  -3.745041e+02  -2.180599e+02
  -1.442045e+02  -3.230630e+02
   1.313432e+02  -2.578681e+02
   1.074469e+02  -9.168002e+00
  -1.516793e+02  -5.638337e+01
  -3.511575e+02  -2.206153e+02
  -1.069803e+02  -3.595713e+02
   4.548866e+02  -2.422131e+02
   6.755851e+02   9.588405e+01
   2.533500e+02   4.055790e+02
  -3.041613e+02   1.686068e+02
  -6.185519e+02  -4.255799e+01
  -2.853276e+02  -4.257897e+02
   2.566283e+02  -3.841469e+02
   4.219121e+02  -1.709715e+02
   4.129101e+02   1.458803e+02
   4.046782e+01   2.896922e+02
  -6.856339e+01   1.485764e+02
  -3.793226e+01  -6.000585e+01
   2.160272e+02  -3.583652e+02
   2.502999e+02   1.311783e+02
   1.433296e+02   5.233759e+02
  -2.303298e+02   5.363760e+02
  -3.074793e+02  -7.979098e+01
  -1.991262e+02  -2.825498e+02
   1.061215e+02  -1.710077e+02
   1.622866e+02   1.889677e+02
  -1.262055e+02   3.690302e+02
  -4.500445e+02   1.378875e+02
  -4.890696e+02  -3.380436e+02
  -2.550596e+02  -4.611551e+02
   2.803517e+02  -2.314746e+02
   5.128969e+02   1.085998e+02
   3.411101e+02   2.742175e+02
  -3.216918e+01   2.489948e+02
  -2.947613e+02   4.312966e+01
  -1.938865e+02  -1.239990e+02
  -1.542764e+01  -2.089297e+01
   2.887676e+01   5.999409e+01
  -1.429575e+02   5.134028e+01
  -2.519359e+02  -7.241122e+01
  -1.868666e+02  -2.098477e+02
   1.416394e+02  -2.801748e+02
   3.013622e+02  -1.034186e+02
   2.162956e+02   9.038730e+01
  -4.392974e+01   3.241616e+02
  -2.156659e+02   3.377828e+02
  -3.639899e+02   2.287528e+02
  -2.718868e+02  -9.948565e+01
  -4.593170e+01  -3.196611e+02
   3.141737e+01  -3.345002e+02
   4.757694e+01  -1.511109e+02
   1.119915e+01  -6.794684e+01
   1.519251e+02  -8.891991e+01
   2.528150e+02  -2.670766e+01
   2.014689e+02   5.214684e+01
   1.079323e+02   3.000818e+02
  -8.003970e+01   2.109107e+02
  -1.391101e+02  -1.682273e+01
  -1.742494e+02  -2.196464e+02
   3.761839e+01  -3.661931e+02
   2.773067e+02  -3.157326e+01
   3.349373e+02   1.942034e+02
   2.339767e+02   2.702544e+02
  -5.066644e+01   2.979179e+02
  -1.438429e+02   1.719759e+02
  -1.359551e+02   6.209266e+01
  -1.206886e+02   6.121620e+01
  -1.880351e+02   2.141594e+01
  -3.273276e+02  -8.828631e+01
  -2.774804e+02  -2.491281e+02
   4.026891e+01  -4.209204e+02
   3.132385e+02  -3.546469e+02
   4.593262e+02  -2.839112e+02
   3.027852e+02   7.396621e+01
   1.369460e+01   2.369754e+02
  -1.104832e+02   2.072700e+02
  -4.839023e+01   3.459086e+00
   1.017291e+02  -7.241011e+01
   1.437013e+02   1.466642e+01
  -1.291170e+01   1.298831e+02
  -1.026554e+02   1.591641e+02
  -1.312260e+02  -7.777648e+01
  -6.906405e+00  -1.149585e+02
   1.469480e+02  -4.126396e+01
   1.611050e+02   1.934904e+02
   1.367071e+01   3.258527e+02
  -2.272533e+02   2.078701e+02
  -4.118899e+02  -6.797702e+01
  -3.018563e+02  -2.472646e+02
  -9.774810e+01  -3.251980e+02
   1.247067e+02  -1.136622e+02
   1.540146e+02   1.098548e+01
   5.691230e+01   3.082083e+01
  -4.373602e+01  -6.449790e+01
  -1.326798e+01  -9.488180e+01
   1.394408e+02  -4.444425e+01
   1.629678e+02  -6.611560e+00
   7.670644e+01   6.396142e+01
  -7.623573e+01   4.963742e+00
  -3.885686e+01  -8.768265e+01
   1.704912e+02  -7.603014e+01
   3.161549e+02   6.688296e+01
   2.749392e+02   1.567134e+02
  -2.252375e+01   2.868996e+02
  -1.909569e+02   2.618711e+02
  -2.774414e+02   9.082465e+01
  -1.249090e+02   1.550791e+00
   1.094024e+01  -6.400808e+01
   7.008469e+01  -2.036540e+01
  -1.055340e+01   9.554526e+01
  -2.041520e+02   4.080079e+01
  -1.948358e+02  -1.260785e+02
  -4.268272e+01  -1.814357e+02
   4.870345e+01  -1.361234e+02
   1.103777e+02  -2.798974e+01
   6.508063e+01   1.907934e+01
  -3.254067e+00   2.168102e+00
  -5.653122e+01  -1.108584e+02
   4.822525e+01  -1.226448e+02
   2.221996e+02   1.195997e+01
   2.082732e+02   8.914253e+01
   4.212613e+01   1.818208e+02
  -1.686185e+02   1.726158e+02
  -1.420187e+02   8.563860e+00
  -3.566116e+01  -8.652003e+01
   7.030426e+01  -9.353679e+01
   8.513481e+01  -6.260728e+00
  -3.480295e+01   1.495669e+01
  -3.778897e+01   6.408568e+00
   1.196315e+01   3.851415e+01
   6.104293e+01   1.309715e+01
   7.845924e+01   7.569286e+01
  -1.499197e+01   1.422158e+02
  -1.886072e+02   1.261004e+02
  -1.712173e+02  -2.124006e+01
  -1.812305e+02  -1.628110e+02
  -2.348935e+01  -2.435710e+02
   1.250245e+02  -1.495161e+02
   1.319033e+02   1.315708e+01
   8.325629e+01   3.149448e+01
   3.336231e+01   4.791603e+01
   7.273534e+01   5.276875e-01
   9.244246e+01  -4.490894e+01
   1.858762e+01   7.871875e+01
  -5.355485e+01   7.587363e+01
  -1.228643e+02   6.550066e+01
  -1.207045e+02  -2.154196e+01
   2.166272e+01  -1.446316e+02
   1.150748e+02  -7.575080e+01
   1.750311e+02   4.353763e+01
   7.731061e+01   1.681199e+02
  -1.501572e+02   2.177390e+02
  -2.576705e+02   1.381704e+02
  -2.325278e+02  -6.311319e+01
  -9.843557e+01  -1.965501e+02
   3.905941e+01  -1.493269e+02
   1.068592e+02  -8.695887e+01
   2.563029e+01  -4.811588e+01
   5.796266e+01  -6.547286e+01
   8.322200e+01  -6.973173e+01
   1.135483e+02   2.473257e+01
   1.440047e+02   1.464204e+02
  -4.142840e+00   2.118965e+02
  -8.777772e+01   1.501915e+02
  -1.346685e+02   1.714904e+01
  -1.126227e+02  -1.384350e+02
  -1.690775e+01  -1.524715e+02
   4.190503e+01  -9.264658e+01
   6.399773e+01   4.034472e+01
  -3.042156e+01   4.182131e+01
  -7.400789e+00   1.299037e+01
   2.167406e+01  -1.498650e+01
   1.060388e+02  -8.045226e+00
   5.280317e+01   4.866774e+01
  -8.228622e+01   1.042004e+01
  -1.525570e+02   2.032549e+01
  -1.673222e+02  -9.081418e+01
  -1.237206e+01  -1.327350e+02
   9.172448e+01  -1.054225e+02
   1.504886e+02  -4.600289e+00
   5.754095e+01   5.794379e+01
  -7.708438e+01   4.805806e+01
  -7.718987e+01  -1.678084e+00
  -1.451975e+01  -7.104479e+01
   4.119558e+01  -6.181337e+01
   7.112876e+01  -3.249870e+01
   7.698484e+01   5.362376e+01
   7.114146e+01   6.099547e+01
   8.922421e+01  -3.913594e+01
   6.576117e+01   5.258194e+01
   6.247776e+01   5.412203e+01
  -1.734682e+00   1.373183e+02
  -7.589971e+01   1.460795e+02
  -1.386676e+02   2.342240e+01
  -1.419048e+02  -6.206517e+01
   6.513372e+00  -9.269638e+01
   6.534020e+01  -6.762218e+01
   1.373885e+01  -4.230390e+01
  -5.181121e+01  -3.265507e+01
  -1.408381e+02  -5.773209e+01
  -8.875963e+01  -1.423387e+02
   5.015864e+01  -8.160755e+01
   1.719238e+02  -3.489197e+01
   1.794973e+02   4.489874e+01
   1.723467e+01   1.216471e+02
  -6.509484e+01   5.965934e+01
  -4.816049e+01   1.093454e+01
   5.401070e+01  -1.172495e+00
   6.412334e+01   2.256415e+01
   8.004166e+01   9.803854e+01
  -6.072222e+01   1.512657e+02
  -1.585558e+02   3.843504e+00
  -1.271560e+02  -8.834185e+01
  -4.018256e+01  -1.860957e+02
   5.943002e+01  -1.316206e+02
   8.524637e+01   8.445561e+00
   3.915631e+01   1.191986e+02
  -4.441171e+01   9.561858e+01
  -2.968131e+01   2.991660e+01
  -6.140921e+01  -4.879502e+01
  -5.803357e+00  -2.793875e+01
  -1.311694e+00   2.945201e+01
  -2.368343e+01   1.458852e+01
  -4.018701e+01  -5.917382e+01
  -5.417541e+01  -8.389142e+01
   3.119109e+01  -5.074509e+01
   1.050419e+02   3.625834e+01
   9.557482e+01   4.216493e+01
   3.170542e+01   8.510046e+01
  -6.835803e+01   2.025634e+01
  -7.240051e+01   4.476884e+01
   2.990995e+01  -3.202839e+01
   2.751885e+01  -3.577675e+01
   3.114249e+01  -6.110598e+01
   8.301703e-01  -3.573574e+01
   2.990063e+01   1.602742e+00
   7.522630e+01   8.422455e+00
   7.172267e+01  -2.941135e+01
  -1.351575e+01   6.605735e+01
  -1.005761e+02   1.267899e+02
  -1.787052e+02   6.284068e+01
  -1.255525e+02  -5.918138e+01
  -2.400766e+01  -1.527405e+02
   1.120166e+02  -1.578793e+02
   1.209587e+02  -9.401975e+01
   1.039056e+02   2.471769e+01
   1.875242e+01   1.864145e+01
  -2.349287e+01   1.047602e+00
  -1.819547e+01   5.278731e+00
   3.463122e+01   6.367018e+01
   5.646365e+01   9.388940e+01
  -2.045647e+01   8.406413e+01
  -8.773284e+01   7.009352e+00
  -8.023157e+01  -1.033241e+02
  -3.013801e+01  -1.030845e+02
   6.513758e+01  -3.792409e+01
   1.151223e+02   5.541498e+01
   2.165141e+01   1.208655e+02
  -5.370316e+01   9.104616e+01
  -6.721476e+01  -2.353993e+01
  -5.657341e+01  -3.691841e+01
   5.746472e+01  -5.818322e+01
   1.765813e+01  -2.143535e+01
  -3.989149e+01   2.040408e+01
  -4.732475e+01   2.577406e+01
  -2.277628e+01  -1.459912e+01
   9.451717e+01  -7.676075e+01
   5.814664e+01  -2.794574e+01
   7.128817e+01   1.687347e+01
   5.434566e+00   9.593443e+01
  -2.233719e+01   6.449787e+01
  -2.600108e+01   1.322542e+01
  -4.102523e+01  -2.467546e+01
  -5.344516e+00  -5.505794e+01
   3.821810e+01   3.506642e+01
   2.028446e+01   6.316654e+01
   1.063500e+01   7.388321e+01
  -6.770411e+01  -2.732069e+01
  -1.318874e+01  -9.125943e-01
  -3.867978e+01   1.028777e+01
   1.061815e+01   3.458108e+01
   6.865275e+00   3.172512e+00
   4.637933e-01  -7.772886e+00
  -1.987918e+01  -8.365001e+01
   1.387212e+01   3.501812e+01
   3.796970e+01  -4.177017e+01
   2.727985e+01   5.017544e+01
  -6.355450e+01   1.731737e+01
  -7.331334e+01  -3.379665e+01
  -1.879102e+01  -4.681455e+01
   8.264943e+01  -4.493568e+01
   3.829046e+01   4.204962e+01
   5.078216e+01   2.340129e+01
  -5.031464e+01   6.659030e+01
  -7.680303e+01  -6.536558e+00
  -4.382166e+00   3.518137e+01
   3.380117e+01   2.373546e+01
   5.790830e+01   3.917870e+01
  -1.028195e+01   2.157318e+01
  -9.470161e+01  -5.715698e+00
