
 $NMID
 id='ANONYMOUS ', fmtdat='(2E16.6)'
 volume=1.0
 tramp=1.0
 $END
  -1.614158e+03   1.554266e+02
  -1.430587e+03  -7.307114e+02
   1.746486e+02  -1.236589e+03
   5.956703e+02  -8.470772e+02
   3.242384e+02  -3.651351e+02
   7.223697e+01   5.568036e+01
  -5.256511e+01  -2.213609e+02
   1.174046e+02  -1.571529e+02
   2.758259e+02  -2.742460e+02
   3.340127e+02  -1.435325e+02
   2.512190e+02   1.719706e+02
  -4.112562e+00   4.193428e+02
  -1.257671e+02   1.588907e+02
  -1.130207e+02  -1.130375e+02
  -3.150437e+01  -3.112472e+02
   1.900125e+02  -7.917248e+01
   7.033750e+01   2.669753e+02
  -5.647462e+01   3.494802e+02
  -2.490938e+02   2.768625e+02
  -2.835284e+02  -9.119517e+01
  -1.205997e+02  -2.096573e+02
   4.060519e+01  -1.560372e+02
  -1.400663e+01  -2.307519e+01
  -1.366704e+02  -1.029609e+02
  -2.024808e+02  -2.357672e+02
  -2.075313e+00  -2.831138e+02
   3.089033e+02  -9.593234e+01
   4.017438e+02   1.784774e+02
   9.474016e+01   1.825076e+02
  -2.080458e+02   9.835667e+00
  -3.098470e+02  -1.547402e+02
  -9.452958e+01  -1.970981e+02
   2.209068e+02  -2.608063e+02
   2.216492e+02  -4.825726e+01
   1.296768e+02   4.761694e+01
   4.187173e+01   9.983752e+01
   9.968880e+00   6.612953e+01
   1.264685e+02  -1.258589e+01
   1.850776e+02  -9.291362e+01
   5.652928e+01   1.613574e+02
  -1.149690e+02   3.849787e+02
  -1.336959e+02   3.353701e+02
  -4.722710e+01   4.114432e-01
   4.882118e+00  -1.681281e+02
   9.550610e+00  -3.340071e+01
   4.491866e+01   2.528805e+02
  -9.323997e+01   2.173674e+02
  -2.859437e+02   2.629778e+01
  -2.721254e+02  -1.954866e+02
  -1.034056e+02  -3.434175e+02
   2.680113e+02  -1.413697e+02
   2.624819e+02   6.405741e+01
   1.245283e+02   1.115892e+02
  -2.270383e+01   8.195822e+01
  -1.504438e+02  -3.027937e+01
  -1.039131e+02  -6.474617e+01
  -3.213168e+01   1.273468e+01
  -6.466497e+00  -1.120927e+00
  -7.048883e+01  -1.473339e+01
  -5.554268e+01  -7.461782e+01
  -2.646093e+01  -9.015531e+01
   3.298820e+01  -2.032384e+02
   1.997386e+02  -1.319482e+02
   1.988833e+02   3.978926e+01
   6.276389e+00   2.574215e+02
  -2.217890e+02   2.788210e+02
  -3.279554e+02   1.207627e+02
  -1.451367e+02  -8.033412e+01
   3.349774e+00  -2.570499e+02
  -1.527105e+00  -1.498344e+02
  -4.789750e+01  -1.321864e+02
   3.271785e+01  -8.257114e+01
   9.895809e+01  -1.078225e+02
   2.042883e+02  -1.497675e+01
   1.598304e+02   1.060819e+02
   6.618432e+01   1.567371e+02
  -9.713115e+01   1.149341e+02
  -7.704230e+01   5.099136e+00
  -4.468026e+01  -1.826117e+02
   1.955288e+01  -1.441197e+02
   2.190807e+02  -4.471865e+01
   2.522823e+02   1.325095e+02
   9.919112e+01   2.048441e+02
  -1.717678e+01   1.588273e+02
  -8.439807e+01   1.132833e+02
  -8.978798e+01   3.084796e+01
  -1.027652e+02   7.238970e+01
  -2.397243e+02   1.069138e+01
  -3.017116e+02  -8.646111e+01
  -2.334305e+02  -1.885558e+02
  -2.263589e+01  -2.728255e+02
   2.612807e+02  -3.347785e+02
   2.626214e+02  -1.312191e+02
   1.960569e+02   6.570360e+01
  -2.457405e+01   1.560371e+02
  -4.055243e+01   3.372089e+01
   4.950979e+01   1.352859e+01
   1.012764e+02  -4.197105e+00
   4.385875e+01   3.341500e+01
  -6.723895e+00   1.123645e+02
  -5.501499e+01   9.967186e+01
  -3.604597e+01  -9.320706e+01
   1.542216e+00  -9.467921e+01
   8.048713e+01  -4.006624e+01
   1.171823e+02   1.711347e+02
   8.780407e+00   2.362329e+02
  -1.143411e+02   1.754150e+02
  -2.934662e+02  -3.222049e+01
  -1.724286e+02  -1.851340e+02
  -6.994728e+01  -2.599845e+02
   1.001015e+02  -1.270327e+02
   8.705800e+01   1.685099e+01
   4.924686e+01  -7.173670e+00
  -2.890641e+01  -8.627840e+01
  -2.864614e+01  -7.959313e+01
   1.069644e+02  -4.368665e+01
   1.142104e+02   5.244177e+01
   1.269853e+01   2.569323e+01
  -6.041439e+01  -2.907790e+01
   5.351761e+00  -4.101620e+01
   1.120355e+02  -5.570765e+01
   2.149721e+02  -1.729802e+01
   1.672029e+02   4.990282e+01
   1.422708e+01   1.938532e+02
  -1.621952e+02   1.596926e+02
  -1.617162e+02   7.052516e+01
  -6.333865e+01  -2.980694e+01
   7.807500e+00  -6.332475e+01
   2.287500e+01   3.188351e+00
  -1.233735e+01   7.266478e+00
  -1.601578e+02   4.243915e+01
  -1.560513e+02  -7.992895e+01
  -9.504988e+01  -1.236872e+02
   3.339009e+00  -4.126622e+01
   9.379773e+01   7.126010e+00
   2.820662e+01  -9.506307e-01
  -2.365452e+01   1.409815e+01
  -1.785184e+01  -5.404984e+01
   7.691752e+01  -9.601667e+01
   1.948656e+02  -2.657933e+00
   1.803259e+02   7.170376e+01
  -1.659864e+01   1.365386e+02
  -1.341309e+02   8.387286e+01
  -8.244453e+01   1.221344e+00
  -4.894087e+01  -9.014065e+01
   2.431151e+01  -6.124368e+01
   4.060550e+01  -2.509528e+00
  -1.881179e+01   2.472688e+00
  -4.550418e+01   1.817341e+01
   9.281357e+00   1.294827e+01
   3.874954e+01  -1.655447e+01
   4.431271e+01   2.708881e+01
   1.700322e+01   1.070478e+02
  -1.068822e+02   5.535083e+01
  -1.581320e+02  -1.246190e+01
  -1.112696e+02  -9.431591e+01
  -1.866501e+01  -1.466892e+02
   6.787562e+01  -1.097243e+02
   9.653401e+01  -5.224197e+01
   4.625883e+01   2.300459e+01
   4.525307e+01   5.842571e+00
   6.246096e+01  -1.401317e+01
   1.090465e+02  -3.113373e+01
   4.746874e+01   2.682533e+01
   8.646225e+00   7.288295e+01
  -7.617341e+01   6.573116e+01
  -5.521977e+01  -5.332934e+01
   2.612110e+00  -6.232001e+01
   1.078807e+02  -6.984288e+01
   1.160556e+02   5.192638e+01
   5.039864e+01   1.566449e+02
  -8.398294e+01   1.396200e+02
  -2.305467e+02   7.638575e+01
  -1.746913e+02  -7.443877e+01
  -6.616493e+01  -7.410511e+01
   1.937058e+01  -1.425590e+02
   1.043411e+02  -3.433469e+01
   7.492539e+01  -3.943509e+01
   4.429608e+01  -4.406895e+01
   3.359093e+01  -8.030648e+01
   1.020930e+02  -4.935110e+00
   8.256600e+01   1.469958e+02
   3.136454e+01   1.460931e+02
  -3.597878e+01   1.160816e+02
  -1.455979e+02   9.973715e+00
  -1.067899e+02  -8.233927e+01
   8.021083e+00  -7.960017e+01
   3.563527e+01  -4.134908e+01
   2.175424e+01   6.169957e+00
   2.849165e+01   8.276331e+01
  -8.521728e+00   4.738170e+01
   2.811852e+01  -2.338114e+01
   6.491233e+01  -4.230923e+00
   1.349457e+01   8.145080e+00
  -1.425936e+01   4.133973e+01
  -1.404997e+02   1.592185e+01
  -9.108984e+01  -2.980391e+01
  -5.721130e+00  -7.112065e+01
   9.388788e+01  -5.038076e+01
   8.934330e+01  -4.901942e+01
   2.776393e+01  -1.494222e+01
  -4.657417e+01   6.047664e+01
  -3.988374e+01  -4.617644e+01
  -2.367983e+01  -5.752975e+01
  -9.270781e+00  -5.332532e+01
   7.929448e+01   4.184049e+00
   4.577301e+01   4.608225e+01
   3.651457e+01   3.029282e+01
   4.967283e+01  -1.557590e+01
   9.477221e+01   4.942275e+00
  -7.715441e+00   9.170698e+00
   2.779153e+00   7.632362e+01
  -8.934257e+01   1.298345e+02
  -1.119785e+02   2.311336e+01
  -7.330507e+01  -4.999793e+01
  -1.569038e+01  -9.333688e+01
   8.037888e+01  -4.490577e+01
   7.400512e+01   4.047294e+01
  -4.087841e+01   4.691925e+01
  -9.284767e+01  -4.748288e+01
  -3.597677e+01  -7.192924e+01
   3.796144e+01  -4.707999e+01
   1.505789e+02  -3.460402e+01
   1.152647e+02   1.140391e+01
   2.551178e+01   5.908715e+01
  -3.217210e+01   2.277636e+01
  -4.140149e+01  -1.913970e+01
  -9.307018e+00  -8.604877e+00
   9.404110e+01   2.357690e+01
  -1.048868e+01   7.290028e+01
  -3.988284e+01   1.077705e+02
  -1.383665e+02   8.163276e+01
  -9.214432e+01  -8.248790e+01
  -6.640615e+00  -1.046003e+02
   3.552451e+01  -1.215712e+02
   5.174666e+01   1.653269e+01
   3.422300e+01   7.057150e+01
  -3.821059e+01   6.655057e+01
  -4.691266e+00   4.973105e+01
   2.749926e-01  -3.158387e+00
  -3.570378e+01  -2.176920e+00
   7.173685e+00   3.779775e+01
  -2.939365e+01  -1.005050e+01
  -5.693389e+01  -6.394629e+01
  -5.019590e+01  -8.104136e+01
   6.271018e+00  -3.308584e+01
   9.692926e+01   5.571838e+01
   2.391959e+01   8.204679e+01
   1.238417e+01   4.953622e+01
  -3.271776e+01  -1.325198e+01
  -8.011907e+01   1.880175e+00
  -1.879900e+01  -2.577887e+00
   1.621257e+01  -4.830364e+01
   3.341044e+01   8.606369e+00
  -3.248445e+00   1.708314e+01
  -2.629925e+01  -1.492119e+01
   2.593947e+01  -8.941635e+00
   6.444495e+01   2.661683e+01
   3.195766e+01   5.036942e+01
  -5.185598e+01   7.600762e+01
  -9.582552e+01   7.406410e+01
  -1.144677e+02  -9.902023e+00
  -5.284521e+01  -7.975034e+01
   7.570381e+01  -1.178019e+02
   9.185536e+01  -4.175359e+01
   2.976180e+01  -1.036483e+01
   1.981837e+00   4.817405e+01
   2.384855e+01   4.441497e+01
   2.785658e+00   5.956741e+00
   1.665101e+01   4.786615e+01
  -1.140671e+01   4.008951e+01
  -4.772184e+00   6.148631e+01
  -4.198800e+01   1.242926e+01
  -3.675388e+01  -4.545902e+01
  -1.021371e+01  -4.121119e+01
   4.857811e+01  -4.789016e+01
   8.779246e+01   5.429887e+01
   2.995631e+01   9.192621e+01
  -6.819110e+01   7.100363e+01
  -7.024442e+01  -2.943657e+01
  -2.457881e+01  -4.008242e+01
   3.269000e+01  -1.691519e+01
   9.190277e+00  -1.135665e+01
   2.791497e+01  -2.456434e+00
  -4.681259e+01   2.690015e+01
  -1.425208e+01  -1.858850e+01
   4.784960e+01  -7.067760e+01
   9.793632e+01  -3.874366e+01
   2.603170e+01   2.419016e+01
  -1.145228e+01   7.063870e+01
  -3.789339e+01   5.601467e+01
  -4.352033e+01   3.387351e+01
   1.672315e+00  -4.560422e+01
   7.458529e+00  -4.911835e+01
   2.939466e+01  -1.011995e+01
  -1.127788e+01   6.373241e+01
  -2.016037e+01   1.724719e+01
   1.279610e+01   7.019915e+00
   9.619303e+00  -6.577795e+01
  -1.320273e+01   1.034725e+00
  -2.575255e+00   1.588092e+01
  -1.665693e+01  -1.495640e+01
   1.618241e+00  -1.437784e+01
  -1.831744e+01  -5.751815e+01
   9.368542e+00  -4.689458e+01
   6.019889e+01   3.749767e+01
   4.474075e+01   2.545753e+01
  -5.865743e+01  -2.835784e+00
  -6.531905e+01   4.590056e+01
   1.122220e+01  -6.240313e+01
   2.938669e+01  -3.830357e+01
   2.274386e+01   3.605960e+01
   7.506856e+01   2.611490e+01
   1.480941e+01   4.313041e+01
  -6.782194e+01   4.570320e+01
   1.711829e+01   4.321058e+00
   3.378310e+01  -3.896693e-01
   2.602248e+01   5.916327e-01
  -2.991527e+01  -7.585043e+00
  -2.508476e+01   2.044274e+01
