
 $NMID
 id='ANONYMOUS ', fmtdat='(2E16.6)'
 volume=1.0
 tramp=1.0
 $END
  -1.827607e+03  -4.112232e+02
  -1.194700e+03  -9.269223e+02
   6.067006e+01  -4.583576e+02
   7.751909e+02  -1.804618e+02
   3.200807e+02   1.083041e+02
  -3.811844e+02   1.445247e+01
  -2.219744e+02  -2.042260e+02
   1.447532e+02  -2.411918e+02
   1.898462e+02   2.422845e+01
   3.281964e+02   1.691765e+02
   1.481146e+02   3.201541e+02
  -6.268588e+01   3.189510e+02
  -2.344770e+02   4.957186e+00
   7.032037e+01  -2.062742e+02
   6.594521e+01  -2.025135e+02
   1.474096e+02   6.144900e+01
   1.396737e+02   1.834462e+02
  -1.159024e+02   1.519912e+02
  -1.610254e+02  -8.182103e+01
  -1.272461e+02  -1.635937e+02
  -4.948183e+01  -8.038325e+01
   4.116224e+01  -7.085108e+01
   7.640063e+01  -3.367294e+00
  -1.113885e+02   3.498515e+01
  -7.085974e+01  -1.177032e+02
   9.336953e+00  -2.799581e+02
   2.940269e+02  -1.028658e+02
   2.718471e+02   7.537959e+01
   8.449653e+00   2.313380e+02
  -2.309390e+02   8.209714e+01
  -1.769753e+02  -3.623557e+01
  -1.091271e+02  -2.060955e+02
   1.524474e+02  -1.221362e+02
   1.630662e+02  -1.940342e+01
   1.904008e+02   9.511717e+01
  -2.208927e+01   1.083532e+02
  -1.148429e+02  -6.229791e+00
  -1.942416e+01  -1.484506e+02
   1.581669e+02  -1.099111e+02
   1.035397e+02   1.279023e+02
  -5.712565e+00   2.206016e+02
  -1.603258e+02   3.267373e+02
  -1.155146e+02  -7.575443e+01
  -1.945201e+01  -1.061548e+02
   1.198213e+02  -5.101710e+00
   9.086368e+01   2.076549e+02
  -8.581230e+01   1.868780e+02
  -2.230897e+02  -5.623562e+01
  -1.567311e+02  -1.744976e+02
  -7.423631e+01  -2.375171e+02
   9.833468e+01  -1.166148e+02
   2.058440e+02  -4.296721e+01
   5.517459e+01   1.248851e+02
  -6.798855e+01   9.027166e+01
  -3.537056e+01   2.961531e+00
  -2.762741e+01  -4.094761e+01
  -9.055891e+00  -2.530529e+01
   1.595845e+01   2.489057e+01
  -7.857541e+01  -1.684879e+01
  -1.885136e+01  -2.910873e+01
  -1.075418e+02  -1.080097e+02
   6.750133e+01  -8.568350e+01
   6.574579e+01   2.005780e+00
   1.162873e+02   6.825650e+01
   9.376260e+00   9.926666e+01
  -1.262496e+02   9.043652e+01
  -1.951603e+02   4.824596e+01
  -1.229457e+02  -6.424183e+01
   6.917613e+01  -1.474642e+02
   2.146100e+01  -1.143048e+02
   1.452320e+01   5.978020e+00
   5.460595e+00  -3.213663e+01
   4.261559e+01  -5.284799e+01
   6.187636e+01   1.281100e+01
   7.064466e+01   6.714461e+01
   4.836786e+01   9.483266e+01
  -5.502922e+01   7.768359e+01
  -7.573173e+01  -1.236642e+01
  -6.354648e+01  -8.754644e+01
  -3.708167e+01  -5.841975e+01
   1.231651e+02   2.623549e+01
   1.481062e+02   6.781437e+01
   7.197833e+01   9.598832e+01
  -7.537919e+01   7.841116e+01
  -1.446959e+02   7.956659e+01
  -5.416206e+01   1.012527e+00
  -6.633613e+01  -5.398193e+00
  -7.156893e+01  -3.303383e+01
  -1.378292e+02  -6.222355e+01
  -1.545743e+02  -5.822412e+01
  -1.709203e+00  -1.937447e+02
   1.650584e+02  -1.362585e+02
   1.633258e+02  -1.539505e+02
   1.186757e+02   4.612095e+01
  -3.647375e+01   1.129564e+02
  -9.542134e+01   6.302461e+01
  -4.561443e+01  -3.731158e+00
   7.286822e+01  -7.943675e+00
   6.208566e+01   4.181151e+01
   1.133501e+00   9.487545e+01
  -4.280286e+01   3.131900e+01
  -4.552764e+01  -5.591322e+01
   3.064441e+01   1.605586e+01
   6.164467e+01   1.638935e+01
   6.713420e+01   6.946159e+01
   2.612352e+00   1.196708e+02
  -5.281934e+01   7.184646e+01
  -1.185787e+02  -3.310380e+01
  -8.971474e+01  -8.108786e+01
  -5.938054e+01  -1.288459e+02
   7.381748e+01  -5.538593e+01
   3.795731e+01   5.639763e+00
   2.432038e+01   3.230959e+01
   4.012994e+00  -5.940965e+01
   5.376548e+00  -3.442215e+01
   7.698306e+01  -8.942333e+00
   4.793454e+01   3.336647e+01
  -2.471470e+00   3.533396e+01
  -1.086135e+01   1.009657e+01
   2.271011e+01   1.991132e+00
   4.710121e+01   5.342212e+00
   1.138687e+02   2.200495e+01
   9.160207e+01   6.598783e+01
  -2.467645e+01   1.148142e+02
  -6.464594e+01   9.849544e+01
  -1.425543e+02   3.858987e+01
  -5.999531e+01  -5.934616e+01
   8.583531e+00  -1.145598e+01
   5.074562e+01   1.990540e+01
  -1.004201e+01  -6.721830e+00
  -9.124546e+01   3.503975e+00
  -9.878922e+01  -5.378502e+01
   3.645130e+01  -1.277565e+02
  -9.781944e+00  -5.124435e+01
   5.575738e+01   1.108521e+01
   1.738407e+01   1.405595e+01
  -1.562786e+01   3.328982e+00
   4.732099e+00  -4.796448e+01
   6.853408e+01  -3.278519e+01
   7.417073e+01   3.103361e+01
   9.339707e+01   2.654803e+01
   1.533971e+01   8.379056e+01
  -4.884650e+01   3.647814e+01
  -6.242597e+01  -1.497128e+01
  -1.937287e+00  -2.620735e+00
   1.217256e+02  -2.070276e+01
   5.201709e+01   2.832340e+00
   8.904381e+00   2.834495e+01
   1.104006e+01   1.685212e+01
  -1.834199e+01   2.568329e+01
   3.259925e+01   2.604224e+01
  -2.455192e+00   1.114367e+01
   2.354213e+01   1.703706e+01
  -7.601808e+01   3.584418e+01
  -7.790717e+01  -2.493821e+01
  -8.749398e+01  -9.755803e+01
   2.163604e+01  -1.175614e+02
   6.937755e+01  -3.757660e+01
   3.114442e+01   6.093738e+00
  -6.768890e+00   4.196872e+01
   8.529869e-01   1.027862e+01
   2.530264e+01  -3.325606e+01
   5.975273e+01  -3.861012e+01
   4.144069e+01   1.383205e+01
  -1.329144e+01   3.042615e+01
   1.982120e+01   1.271315e+01
  -1.325983e+01   2.897226e+01
   4.305735e+01  -3.856583e+01
   5.722900e+01  -1.076916e+01
   4.320348e+01   1.515756e+01
   2.368145e+01   7.108802e+01
   2.355144e+00   5.517960e+01
  -1.068584e+02  -1.457420e+01
  -7.387030e+01  -3.551406e+00
  -4.257064e+01  -8.290599e+01
   1.022232e+01  -6.347602e+01
   2.271702e+01  -2.338880e+01
   5.810405e+01  -1.168508e+00
   3.343959e+01  -3.042967e+01
   4.802603e+00  -5.594602e+01
   9.506008e+01   7.455605e+00
   3.870659e+01   3.831544e+01
  -1.282343e+01   1.071674e+02
  -3.348909e+01   6.800355e+01
  -9.061382e+01   7.195332e+00
  -6.003913e+00  -4.379907e+01
  -1.865477e+01  -2.461582e+01
   1.596236e+01   4.796429e-01
   4.407136e+01   5.558709e+00
  -1.694698e+01  -2.459310e+01
  -5.445452e+00   7.891209e+00
  -3.049287e+00   3.258408e+01
   5.986145e+01   2.392989e+01
  -1.594758e+01  -5.156350e+00
  -2.302923e+01   3.121454e+01
  -9.743221e+01   4.088558e+01
  -2.035508e+01  -4.445704e+01
  -2.392794e+00  -1.766252e+01
   3.154461e+01  -2.430954e+01
   1.446068e+01   2.951135e+01
  -5.501595e+00   2.608417e+01
  -6.116039e+01   2.546039e+01
  -1.868009e+01   2.177756e+01
  -2.130254e+01  -4.821813e+01
   6.204952e+01  -2.620011e+01
  -2.309684e+01   6.436428e-02
   3.574853e+01   1.276771e+01
   1.621261e+01   1.149805e+01
  -1.629611e+01  -3.078837e+01
   5.717317e+01   2.231589e+01
   3.040801e+01   5.049107e+00
  -1.946110e+01   7.318346e+01
  -3.710121e+01   2.250322e+01
  -4.783082e+01   4.569018e+01
  -1.891772e+01  -3.924392e+01
  -1.410104e+01  -2.145315e+01
   7.575171e+00  -2.318146e+01
   9.313962e+00   3.451933e+01
   1.646764e+01   4.699483e+01
  -4.955591e+01  -6.178245e+01
  -5.328029e-01  -2.925431e+01
   3.769473e+01  -3.856219e+01
   8.510517e+01   1.842887e+01
   9.645778e+01   2.775004e+01
  -6.106781e+00   3.450964e+01
  -3.099470e+01   1.984252e+00
  -3.176711e+01  -4.386810e+01
  -1.269100e+01   9.539618e+00
   4.333323e+01  -3.049660e+00
   3.951013e+01   8.324842e+01
  -3.303898e+01   7.744431e+01
  -6.625456e+01   2.987030e+01
  -6.293029e+01  -4.969009e+00
   3.550874e+01  -4.918583e+01
   5.922551e+01  -3.183917e+01
   1.245226e+01   2.716193e+01
   6.567606e+00   4.841213e+01
   9.094771e+00   1.311824e+01
   9.445199e+00  -1.970763e+01
  -3.407853e+01   1.337016e+01
  -2.337717e+01  -6.653003e+00
  -2.725951e+01  -1.908644e+01
   1.999866e+01  -9.961976e-01
  -1.728842e+01  -1.592229e+01
  -3.793943e+01  -6.065445e+01
   4.997162e+01  -4.350519e+00
   2.206018e+01  -9.037591e+00
   4.909499e+01   5.088087e+01
   1.755357e+01   4.040156e+01
   1.161470e+00   2.782619e+01
  -9.375605e+00   1.804422e+01
   8.842438e+00   7.559053e+00
   1.305541e+01  -5.431980e+00
   6.725088e+00   3.253581e+01
   2.975127e+01   1.247403e+01
   3.165802e+00  -2.205025e+01
   4.918430e+01  -2.139204e+01
   5.218163e+01   9.822991e+00
   7.361466e+00   3.972249e+01
  -5.613304e+01   6.821329e+01
  -7.894946e+01   2.670841e+01
  -6.047750e+01   9.893813e-01
   5.211643e+01  -4.845622e+01
   6.225729e+01  -2.828882e+01
   3.985567e+01  -3.332508e+01
   6.247582e+01   8.648075e+01
  -1.893771e+01  -2.636644e+01
   1.038655e+01   2.913559e+01
  -2.146807e+01  -7.452505e+00
   2.821031e+01   6.472698e+01
   3.999856e+01   4.138791e+01
   1.049268e+00   1.516721e+01
   8.306178e+00  -4.690553e+01
  -1.476857e+01  -1.771807e+01
  -2.000063e+00  -7.252199e+01
   4.083268e+01   4.635644e+01
  -4.950790e+00   9.806165e+01
   1.274559e+01   3.475963e+01
  -5.208910e+01  -1.923983e+01
  -3.195403e+01  -2.646512e+01
  -1.047673e+01  -4.030255e+01
   2.437199e+01  -3.387979e+01
  -1.465305e+01  -6.468254e+00
   2.408580e+01   2.958485e+00
  -4.315908e+01  -9.834401e+00
   3.896979e+01  -1.581521e+01
   3.775497e+01  -5.683082e+00
   8.709816e+01  -1.224409e+01
   5.345802e+01   1.308364e+01
  -1.863293e+01   2.068410e+01
  -1.723991e+01   2.902537e+01
   5.528560e-01   3.585924e+01
  -3.984774e+01  -3.100592e+01
   3.218937e+01  -7.469841e+00
   7.127729e+00   1.158965e+01
   7.550798e+00   8.675145e+00
   2.954324e+01   1.258256e+01
   4.325245e+01  -4.067436e+01
  -3.735864e+00  -1.524826e+01
  -3.110068e+01   2.042271e+01
   1.585738e+01   2.173848e+01
  -2.023993e+01  -8.674252e-01
   3.026537e+01  -2.280254e+01
   4.102172e+01  -3.536355e+01
   2.218911e+01  -2.477697e+01
  -1.725139e+01  -1.202988e+01
  -6.931513e+00   1.998176e+01
   2.393529e+01  -1.029649e+01
   3.853771e+00  -2.045609e+01
  -4.284722e+00  -4.831511e+01
   2.667369e+01  -8.563484e+00
  -1.368672e+01   4.535854e+00
   4.119700e+01   1.551625e+01
  -1.190273e+01   1.745126e+01
  -3.012337e+01   2.519404e+01
   1.535940e+01   2.820740e+01
   5.858617e+01  -3.888918e+01
   3.800892e+01  -2.481843e+01
  -1.336778e+01   1.432592e+01
  -2.470973e+01  -1.019403e+01
