
 $NMID
 id='ANONYMOUS ', fmtdat='(2E16.6)'
 volume=1.0
 tramp=1.0
 $END
  -3.668195e+03   4.515821e+01
  -2.140332e+03  -2.449768e+03
   6.121827e+02  -2.400886e+03
   1.948073e+03  -4.593255e+02
   8.515619e+02   4.918592e+02
  -4.789359e+02   2.585035e+02
  -5.423056e+02  -3.586792e+02
   1.182567e+02  -9.273510e+02
   7.124513e+02  -8.021178e+02
   7.724441e+02   1.447123e+02
   3.454962e+02   7.251144e+02
  -1.894470e+02   7.717170e+02
  -5.016890e+02  -8.486553e+01
  -3.219150e+02  -6.479321e+02
   2.459285e+02  -6.751570e+02
   4.596786e+02  -1.948504e+00
   2.806178e+02   6.395351e+02
  -3.034172e+02   5.686030e+02
  -5.603898e+02   1.017927e+02
  -3.424325e+02  -3.018030e+02
  -1.306343e+01  -3.813634e+02
   2.399929e+02  -2.328618e+02
   1.953351e+02  -2.176123e+01
  -1.304612e+02   5.810296e-01
  -2.748620e+02  -1.246824e+02
  -4.620957e+01  -3.448350e+02
   4.233712e+02  -3.071510e+02
   7.137374e+02   1.326176e+02
   3.787965e+02   4.657302e+02
  -2.455484e+02   4.433602e+02
  -6.768263e+02  -6.500744e+01
  -2.622400e+02  -3.537790e+02
   3.012389e+02  -4.577748e+02
   6.034263e+02  -1.405907e+02
   2.548751e+02   2.562494e+02
  -1.331696e+00   4.361100e+02
  -1.773818e+02   2.284835e+02
  -1.175315e+02  -2.330007e+02
   2.174397e+02  -3.268338e+02
   4.007388e+02   1.142090e+02
   1.760736e+02   6.540024e+02
  -3.789796e+02   5.969904e+02
  -6.223323e+02   2.685745e+00
  -2.088208e+02  -4.683291e+02
   2.067371e+02  -3.363584e+02
   4.429548e+02   2.034122e+02
  -1.042014e+02   5.245771e+02
  -4.770924e+02   7.748917e+01
  -5.273414e+02  -4.564921e+02
  -1.105211e+02  -4.754603e+02
   3.595177e+02  -3.580524e+02
   6.490312e+02  -1.949442e+01
   2.630480e+02   3.338026e+02
  -1.874514e+02   2.577660e+02
  -4.335652e+02  -1.706027e+01
  -1.794624e+02  -1.596342e+02
   9.540957e+01  -5.872500e+01
   1.363121e+02   1.179045e+02
  -1.390050e+02   2.225510e+02
  -3.175411e+02   1.346320e+01
  -1.336818e+02  -2.567625e+02
   1.538253e+02  -1.986801e+02
   2.827626e+02  -1.104469e+02
   2.022900e+02  -7.349316e+00
  -2.419800e+00   1.829602e+02
  -2.219414e+02   3.369981e+02
  -2.756209e+02   1.988297e+02
  -2.653808e+02  -1.845427e+02
  -1.220948e+02  -3.970797e+02
   1.000100e+02  -3.137617e+02
   9.089600e+01  -1.312032e+02
   1.513206e+01   5.808192e+00
  -2.155755e+01  -1.140431e+02
   1.159390e+02  -1.022189e+02
   2.490251e+02   8.398471e+01
   1.082196e+02   2.018270e+02
  -7.905525e+01   2.448043e+02
  -2.051772e+02  -1.036819e+01
  -1.516198e+02  -2.184578e+02
  -2.427230e+00  -2.354192e+02
   2.156259e+02  -7.557931e+01
   3.172211e+02   1.530899e+02
   1.529217e+02   3.279327e+02
  -1.083694e+02   2.489141e+02
  -1.954664e+02   1.281602e+02
  -1.203703e+02   8.512616e-02
  -6.804027e+01   4.279545e+01
  -2.219592e+02   9.727871e+01
  -3.593325e+02  -8.634798e+01
  -3.074123e+02  -2.544572e+02
  -3.056773e+01  -4.208609e+02
   4.016604e+02  -3.439351e+02
   4.450628e+02  -2.041253e+02
   2.734744e+02   1.098727e+02
   5.918808e+01   3.031994e+02
  -1.255777e+02   2.499643e+02
  -1.188755e+02   4.020588e+01
   1.065231e+02  -8.425299e+01
   2.413107e+02   2.908257e+01
   1.856199e+01   1.679706e+02
  -1.242669e+02   2.154117e+02
  -1.712590e+02  -4.657939e+01
   5.206428e+01  -2.065486e+02
   1.872704e+02   1.092009e+01
   1.417205e+02   2.578693e+02
   2.421077e+01   3.679838e+02
  -2.103036e+02   1.458577e+02
  -2.672426e+02   9.378724e+00
  -1.829133e+02  -2.211323e+02
  -6.227561e+01  -2.050071e+02
   1.202344e+02  -1.325218e+02
   1.675312e+02  -4.986521e+00
   4.011876e+01   2.130679e+01
  -6.036292e+01  -7.311756e+01
  -1.365189e+01  -8.920806e+01
   1.080515e+02  -1.166020e+02
   1.385947e+02   2.008944e+01
   8.420528e+01   4.621841e+01
  -4.647844e+01   1.489626e+01
  -6.392386e+01  -5.650824e+01
   1.462978e+02  -1.086887e+02
   2.411649e+02   2.366251e+01
   2.193982e+02   1.548134e+02
   1.858400e+01   1.930533e+02
  -1.789732e+02   2.329332e+02
  -2.061186e+02   1.446744e+02
  -1.163125e+02  -5.990874e+01
   4.736841e+01  -1.305025e+02
   7.913640e+01   1.671655e+01
  -3.929344e+01   5.838103e+01
  -2.103673e+02   5.706189e+01
  -1.434250e+02  -1.174513e+02
  -4.728037e+00  -1.893090e+02
   1.379175e+02  -1.576554e+02
   1.608930e+02  -9.390053e+00
   9.791831e+01   5.465462e+01
   8.227970e+00   3.556554e+01
  -1.527273e+01  -9.814646e+01
   3.975944e+01  -1.280946e+02
   2.149355e+02  -2.661210e+01
   1.210166e+02   1.177821e+02
   1.789312e+01   1.975708e+02
  -2.018667e+02   1.392992e+02
  -2.215231e+02   2.974422e+01
  -5.113274e+01  -8.072604e+01
   6.027550e+01  -1.152547e+02
   6.148362e+01   3.928191e+01
  -2.965509e+01   2.256553e+01
  -4.067596e+00  -1.136788e+01
   2.398762e+01  -3.627450e+01
   2.627850e+01   3.630407e+01
   8.009399e+01   9.003384e+01
   2.715075e+01   1.449276e+02
  -9.132500e+01   1.274875e+02
  -2.247041e+02   3.592503e+01
  -1.731719e+02  -1.394291e+02
  -7.270897e+01  -2.396757e+02
   1.193764e+02  -1.515851e+02
   1.387301e+02  -4.141811e+01
   7.799666e+01   4.062010e+01
   3.670454e+01   3.931514e+01
   5.177807e+01   1.129832e+01
   8.006962e+01  -1.804873e+01
   4.323982e+01   5.770183e+01
  -1.891809e+01   8.577955e+01
  -6.268695e+01   2.592342e+01
  -9.831884e+01  -4.174603e+01
  -1.570650e+01  -6.075530e+01
   1.638208e+02  -5.227585e+01
   1.901717e+02   5.535775e+01
   7.317041e+01   2.007660e+02
  -7.593789e+01   2.215160e+02
  -2.484788e+02   1.438633e+02
  -2.699735e+02  -7.079192e+01
  -1.123250e+02  -2.066596e+02
   3.336984e+01  -1.528075e+02
   5.487199e+01  -6.722958e+01
   1.288690e+02  -4.786914e+01
   2.933602e+01  -1.002674e+02
   4.549847e+01  -4.819690e+01
   1.263768e+02   2.740293e+01
   5.414062e+01   1.223904e+02
   1.079492e+01   2.029014e+02
  -8.748200e+01   1.670686e+02
  -1.480082e+02   5.293799e+01
  -1.734159e+02  -7.663088e+01
   4.210437e+01  -1.674096e+02
   7.332758e+01  -1.068483e+02
   7.838421e+01   3.669086e+01
  -1.384420e+01   5.385085e+01
  -3.715546e+01   1.458279e+01
   4.352479e+01   3.988396e+01
   1.915511e+01   4.924740e+01
   3.731606e+01   4.738081e+01
  -6.229116e+01   3.838676e+01
  -1.636352e+02   3.316472e+01
  -1.590930e+02  -6.373934e+01
   2.435793e+00  -8.714233e+01
   1.242387e+02  -5.504475e+01
   1.589189e+02  -4.907699e+01
   2.208541e+01   4.491741e+01
  -3.967582e+01   6.607289e+01
  -1.066243e+02   6.865906e+00
  -1.003936e+01  -9.745393e+01
   5.645855e+01  -6.930611e+01
   7.646649e+01   4.697089e+01
   2.939475e+01   7.592979e+01
   2.744499e+01   6.223720e+00
   5.609810e+01  -7.792313e+00
   6.197809e+01   2.332073e+01
   1.158812e+01   4.202390e+01
  -4.996451e+01   1.615431e+02
  -9.807325e+01   1.455915e+02
  -1.896181e+02   4.688197e+01
  -1.739663e+02  -6.772456e+01
   2.651152e+00  -1.481572e+02
   4.761357e+01  -8.844974e+01
   7.111390e+01  -8.986836e+00
  -6.321544e+01   1.308451e+01
  -1.345433e+02  -2.476396e+01
  -6.208046e+01  -7.028285e+01
   8.542290e+01  -1.027058e+02
   1.712613e+02  -1.958486e+01
   1.875718e+02   3.531960e+01
   5.536684e+01   7.972535e+01
  -8.665220e+01   6.119378e+01
  -3.677608e+01  -2.573194e+01
   1.626751e+01  -4.107768e+01
   7.593210e+01   1.565967e+01
   6.981574e+01   1.214201e+02
  -1.209258e+02   1.541399e+02
  -1.292715e+02   1.661993e+01
  -8.318915e+01  -1.001220e+02
   1.290783e+01  -1.495274e+02
   7.932215e+01  -1.157157e+02
   9.599793e+01   3.510836e+01
   4.088834e+01   9.118789e+01
   2.408835e+00   1.322942e+02
  -6.144470e+01  -1.319036e+01
  -2.333076e+01  -4.517852e+01
  -4.751177e+01   6.285423e-01
   1.986241e+01  -6.060253e+00
  -4.771934e+01  -3.999959e-01
  -4.295809e+01  -9.262075e+01
  -6.051533e+00  -9.672563e+01
   5.488114e+01  -5.806550e+01
   1.269433e+02   2.567276e+01
   9.678899e+01   8.525826e+01
   2.825132e+01   4.628331e+01
  -1.049576e+02   1.143233e+01
  -1.068229e+02   4.789803e+01
  -3.262463e-01  -2.523003e+00
   5.331908e+01  -5.572258e+01
   1.426722e+01  -1.913098e+01
  -2.167520e+01  -7.577005e+00
   2.726106e+00   4.625203e+00
   6.866610e+01  -2.519181e+01
   5.419781e+01   5.148759e+01
   4.787600e+00   8.551565e+01
  -8.500802e+01   9.422147e+01
  -1.970289e+02   2.417138e+01
  -1.207605e+02  -7.245243e+01
   1.076100e+01  -1.647109e+02
   5.833108e+01  -1.336564e+02
   1.255666e+02  -1.705210e+01
   8.409122e+01   2.290322e+01
   3.274464e+01   4.781966e+01
  -7.017788e+00  -1.532071e+01
   5.125757e+00   9.108864e+00
   5.964388e+01   1.011091e+01
   4.283206e-01   7.814948e+01
  -5.664196e+01   7.345797e+01
  -6.217349e+01  -3.300293e+00
  -4.661327e+01  -1.187157e+02
   4.827676e+00  -8.645760e+01
   7.580967e+01  -2.603813e+01
   8.836686e+01   7.220610e+01
   4.202656e+01   1.159993e+02
  -9.593343e+01   7.634512e+01
  -1.000192e+02  -3.807293e+01
  -1.941028e+01  -6.483339e+01
   3.171033e+01  -4.292059e+01
   1.387428e+01  -5.261622e+01
  -4.750870e+01  -6.773187e+00
  -5.013383e+01  -3.003284e+00
   2.457421e+01  -3.096876e+01
   6.952412e+01  -5.621009e+01
   7.225915e+01  -5.385434e+01
   7.918652e+01   1.182777e+01
   9.947741e+00   3.174422e+01
  -4.549268e+01   8.151665e+01
  -2.652958e+01   2.531726e+01
   1.988974e-01  -3.302964e+01
   7.729495e+00  -3.203473e+01
   5.763041e+01   1.824618e+01
   8.744238e+00   6.214716e+01
   2.141955e+00   8.584798e+01
  -1.045062e+01  -2.048629e+01
  -5.855226e+01  -3.608313e+01
  -1.605411e+00  -1.924615e+00
   8.357427e+00   4.540346e+01
   1.838380e+01   3.542480e+00
  -9.475585e+00  -1.066615e+01
   2.796553e+01  -6.921216e+01
   3.073807e+01  -2.371156e+00
   2.516162e+01   2.573674e+01
   1.937802e+01   6.380778e+01
  -1.606882e+01   1.860011e+01
  -5.351596e+01  -5.954844e+01
  -2.912563e+01  -7.190167e+01
   3.853129e+01  -3.985510e+01
   1.007060e+02  -6.584091e+00
   2.002496e+01   6.322748e+01
  -4.886418e+01   3.120046e+01
  -6.777218e+01  -6.395095e-01
  -3.648048e+01   9.681009e+00
   3.639600e+00   5.095800e+01
   5.319751e+01   1.129342e+01
  -6.045554e+01   7.709518e+01
  -7.235130e+01   1.303239e+01
