
 $NMID
 id='ANONYMOUS ', fmtdat='(2E16.6)'
 volume=1.0
 tramp=1.0
 $END
   2.709616e+03   6.226793e+01
   1.675296e+03   1.975737e+03
  -2.963829e+02   1.636796e+03
  -1.556480e+03   3.252784e+02
  -4.735613e+02  -2.844614e+02
   4.291546e+02  -2.804377e+02
   3.165145e+02   2.512646e+02
   6.800825e+01   6.805662e+02
  -5.636636e+02   6.054851e+02
  -5.825339e+02  -1.512115e+02
  -1.451926e+02  -4.879233e+02
  -2.983803e+00  -6.463570e+02
   3.882301e+02  -9.970874e+01
   2.257254e+02   4.871110e+02
  -2.568163e+02   4.426123e+02
  -4.510623e+02  -3.026075e+00
  -1.712725e+02  -5.019182e+02
   2.384763e+02  -3.583561e+02
   3.280299e+02   4.898797e+01
   1.770899e+02   2.183323e+02
  -3.249990e+01   3.216735e+02
  -1.268382e+02   1.177935e+02
  -1.207358e+02  -5.273401e+00
   1.011143e+02  -5.344914e+01
   2.691430e+02   6.588192e+01
   4.905315e+01   3.337263e+02
  -3.431646e+02   2.347757e+02
  -4.898169e+02  -6.192036e+01
  -2.284816e+02  -3.560145e+02
   2.658685e+02  -2.224188e+02
   5.042295e+02  -3.308751e+01
   2.231088e+02   3.581774e+02
  -2.170255e+02   4.023685e+02
  -3.803479e+02   1.322250e+02
  -2.157540e+02  -1.898538e+02
  -6.509822e+01  -3.242305e+02
   1.873401e+02  -6.628747e+01
   6.925866e+01   9.090459e+01
  -2.090795e+02   1.859602e+02
  -3.109578e+02  -8.750021e+01
  -3.136447e+02  -4.156324e+02
   2.802558e+02  -4.976904e+02
   3.998082e+02   1.657745e+01
   1.819923e+02   3.347028e+02
  -1.544753e+02   1.664078e+02
  -2.410895e+02  -1.514731e+02
   3.033297e+01  -3.329598e+02
   3.943686e+02  -5.440792e+01
   4.099844e+02   3.028706e+02
   5.559028e+01   4.165559e+02
  -1.845978e+02   2.462622e+02
  -4.348835e+02   7.691583e+00
  -2.093806e+02  -1.716010e+02
   9.198739e+01  -2.424881e+02
   3.213933e+02  -2.916700e+01
   1.105554e+02   1.252287e+02
  -3.910366e+01   5.659643e+01
  -4.916111e+01  -1.271503e+02
   6.370064e+01  -7.594562e+01
   2.306012e+02   7.215307e+01
   1.008859e+02   1.944045e+02
  -9.562517e+01   1.416158e+02
  -1.758809e+02   1.911658e+01
  -1.371465e+02  -6.548494e+00
   1.742842e+01  -1.488256e+02
   1.366366e+02  -1.999534e+02
   2.691666e+02  -1.245335e+02
   1.526554e+02   1.133802e+02
   2.695442e+01   2.973840e+02
  -1.420125e+02   2.001091e+02
  -3.363951e+01   1.405663e+01
   4.486268e+00   1.163050e+01
  -1.240004e+01   7.641832e+01
  -7.134094e+01   9.890312e+01
  -2.043338e+02   1.805015e+01
  -8.279082e+01  -2.265511e+02
   7.831894e+01  -2.021894e+02
   1.432557e+02   4.776622e-01
   1.835464e+02   1.695154e+02
  -4.607772e+01   1.859763e+02
  -2.162300e+02   8.248892e+01
  -2.486955e+02  -6.194097e+01
  -3.406854e+01  -2.269238e+02
   1.018542e+02  -1.557299e+02
   1.524886e+02  -1.310310e+02
   1.075520e+02   5.261340e+00
   4.615534e+01   6.963927e+00
   9.527205e+01  -6.481019e+01
   2.483312e+02   9.243541e+01
   2.018288e+02   2.167478e+02
  -7.953896e+01   3.017105e+02
  -2.784672e+02   2.683243e+02
  -3.202991e+02   1.479108e+02
  -2.236691e+02  -9.737518e+01
  -3.784507e+01  -1.983921e+02
   1.144431e+02  -1.773330e+02
   5.702976e+01  -4.971202e+01
  -6.225591e+01   3.309634e+01
  -1.507062e+02  -1.817895e+01
  -3.680155e+01  -1.266544e+02
   4.485542e+01  -1.764206e+02
   1.214433e+02   4.728542e+01
  -3.543614e+01   1.359198e+02
  -1.575432e+02   3.294775e+01
  -1.102316e+02  -1.538970e+02
  -1.005120e+01  -2.483003e+02
   2.198053e+02  -1.170493e+02
   2.384755e+02  -7.174059e+00
   1.558571e+02   1.486059e+02
   3.272696e+01   1.950103e+02
  -7.368632e+01   7.381762e+01
  -1.099504e+02  -2.985124e+01
  -5.461773e+01  -1.319569e+01
   4.429450e+01  -2.549128e+00
   4.440057e+01   4.365092e+01
  -1.043689e+02   7.636102e+01
  -1.142801e+02  -4.359839e+01
  -3.522331e+01  -6.955239e+01
   3.273100e+01   3.555799e+01
   3.732060e+01   3.117553e+01
  -5.962871e+01   6.443678e+01
  -1.737849e+02  -2.087043e+01
  -1.765622e+02  -8.009128e+01
   1.181248e+00  -1.530568e+02
   1.490503e+02  -1.629403e+02
   1.301491e+02  -1.129562e+02
   1.022466e+02   7.673502e+01
  -3.340321e+01   2.250398e+01
  -9.444517e+01  -9.107273e+00
  -2.505166e-01  -7.958621e+01
   1.575575e+02  -5.667206e+01
   1.353155e+02   6.752852e+01
   5.365364e+01   1.321114e+02
  -9.013606e+01   8.499360e+01
  -9.597562e+01   3.888833e+01
  -6.922639e+01  -2.181384e+01
   1.219183e+01   1.067433e+01
   4.460034e+00   6.601416e+01
  -1.304807e+00   8.089880e+01
  -1.182353e+02   1.785871e+01
  -6.957213e+01  -8.518342e+01
   4.958422e+00  -1.435567e+02
   1.174987e+02  -1.194249e+02
   1.097858e+02  -2.953386e+00
   5.187804e+01   7.372356e+01
  -3.899553e+01   8.021508e+01
  -3.935273e+01   2.269146e+01
   1.000206e+01  -7.347476e+00
   3.463525e+01  -2.263083e+01
   1.643322e+01  -5.382382e+00
  -5.559204e+01  -1.034883e+01
  -4.164304e+01  -3.731717e+01
   3.088559e+00  -9.031849e+01
   1.543913e+02  -5.904117e+01
   1.572220e+02   1.476238e+01
   1.180305e+02   6.237256e+01
  -2.656564e+01   1.417421e+02
  -7.243366e+01   1.168442e+02
  -1.353731e+02   3.516587e+01
  -6.618244e+01  -1.797361e+01
  -5.367263e+01  -2.437775e+01
  -3.646682e+01   4.203345e-01
  -2.123899e+01  -1.938118e+01
  -2.499726e+01  -3.868344e+01
   6.169980e+00  -9.267358e+01
   7.192250e+01  -6.396973e+00
   5.967765e+01   2.921728e+01
   1.563516e+00   5.701652e+01
  -1.440970e+02   3.830521e+01
  -1.338482e+02  -1.001736e+02
  -9.566299e+01  -1.632887e+02
   6.587994e+01  -1.585302e+02
   1.707692e+02  -1.289004e+02
   1.890219e+02   5.387694e+01
   5.927961e+01   1.066309e+02
  -1.948795e+01   1.102024e+02
  -7.924311e+01   8.575884e+01
  -6.063713e+01   3.521619e+01
  -3.385949e+01   6.159967e+01
  -6.298116e+01   3.038245e+01
  -1.041487e+02   1.278649e+01
  -6.545105e+01  -1.235234e+02
   1.440681e+01  -1.197003e+02
   6.829683e+01  -8.973700e+01
   1.109524e+02  -4.710199e+01
   8.372091e+01   6.002997e+01
   4.706175e+01   1.184353e+02
  -3.058525e+01   1.158658e+01
  -9.109906e+01  -6.472883e+00
   4.501337e-01  -4.559139e+01
   1.144928e+01  -3.129144e+01
  -2.711382e+01  -4.110740e+00
  -5.279691e+01  -1.403709e+01
  -7.428038e+01   1.164148e+01
   3.447430e+01  -2.582767e+01
   8.453053e+01   1.958333e+01
   8.721310e+01   2.875373e+01
   2.168362e+01   6.895894e+01
  -8.473241e+01   6.908826e+01
  -1.372154e+02   8.298946e+00
  -5.721892e+01  -3.597439e+01
   7.049305e+01  -1.108420e+01
   7.270326e+01   3.644779e+01
  -5.774972e+00   8.618952e+01
  -3.774875e+01   3.856019e+01
  -3.458668e+01  -6.896018e-01
  -2.324974e+01  -2.267121e+01
  -5.336189e+01   1.831134e+00
  -2.729808e+01  -1.286090e+01
  -5.258635e+01  -2.039089e+01
   1.885060e+01  -3.147692e+01
   2.107569e+01  -1.481463e+02
   4.012715e+01  -7.871678e+01
   1.187366e+02  -4.079487e+01
   1.049411e+02   1.246475e+01
  -5.430769e+00   6.314083e+01
  -6.459072e+01   7.203429e+01
  -4.246863e+01  -1.622639e+01
   3.282756e+01  -1.294116e+01
   1.157592e+02  -1.600154e+01
   2.363491e+01   6.737793e+01
  -5.549663e+01   7.684216e+01
  -1.400062e+02   2.828728e+01
  -1.293916e+02  -2.234160e+01
  -7.476298e+01  -2.213385e+01
   4.772618e+01  -5.417564e+01
   8.510208e+01   8.104855e+00
   1.363548e+01  -1.690939e+01
  -7.303093e+01   1.242205e+01
  -2.754008e+01  -8.084201e+01
   5.758280e+01  -9.700020e+01
   6.423901e+01  -8.192812e+01
   6.290472e+01   6.888610e+01
   1.561506e+01   1.496880e+02
  -7.465997e+01   1.067609e+02
  -9.702050e+01  -1.896123e+01
  -1.493156e+01  -9.806815e+01
  -1.133840e+01  -7.111072e+01
   1.647096e+01   1.503272e+00
   1.693892e+00  -5.701979e-02
   2.333520e+01  -4.241592e+00
  -2.229361e+01  -4.963381e+00
   1.232184e+01   2.803014e+01
   1.699099e+01   6.483729e+01
  -1.721250e+00   8.322674e+01
  -5.269782e+01   2.717763e+01
  -1.101047e+02  -1.880413e+01
  -5.809651e+01  -2.909895e+01
  -3.302960e+01  -3.403570e+01
   6.007960e+01  -3.492610e+01
   8.844385e+01   2.446050e+01
   1.037780e+01  -2.282989e+01
  -3.466908e+01   2.559970e+01
  -1.850197e+01   3.534907e+01
   2.544280e+01  -2.794422e+01
  -3.003523e+00  -6.688180e+00
  -9.302337e+01   1.307921e+01
  -6.609803e+01  -1.070026e+01
   2.704605e+01  -6.572844e+01
   8.938818e+01  -9.438280e+01
   1.389809e+02  -2.558889e+01
   1.023121e+02   7.334506e+01
   3.084729e+01   1.163153e+02
  -2.452366e+01   9.615532e+01
  -5.473266e+01   6.506920e+01
  -4.059232e+01  -2.123785e+01
   8.309548e+00  -1.803850e+01
   2.449064e+01  -6.465806e+00
  -5.821838e+01  -3.011067e-02
  -6.725447e+01  -3.826015e+01
  -3.413625e+01  -4.018941e+01
   3.729375e+01  -4.887435e+01
   3.044298e+01   1.954436e+01
   8.755439e+01   5.397273e+01
   1.483385e+00   3.353177e+01
  -4.600323e+01   3.585264e+01
  -7.385866e+01  -7.146291e+01
  -4.186819e+01  -9.118524e+01
   5.438217e+01  -5.927316e+01
   6.020232e+01   5.765641e+00
   4.550236e+01   4.627705e+01
  -2.741723e+01   6.257086e+01
  -6.073434e+01  -2.016118e+01
   2.835444e+01   3.385758e+00
   4.666448e+01   2.857648e+01
  -1.650899e+01   1.585317e+01
  -6.098797e+01   1.613759e+01
  -7.764027e+01   2.773747e+01
  -5.103537e+01  -4.055649e+01
  -1.184261e+01  -4.552687e+01
  -1.438627e+01  -4.049927e+01
  -5.505335e+00  -2.637360e+01
  -6.961647e+00   5.934900e+01
   2.244521e+01   4.534584e+01
  -3.782804e+01  -3.849493e+01
  -7.468434e-01  -2.064290e+01
  -4.627059e+01  -3.474249e+01
  -7.654639e-01   1.770361e+01
   2.699914e+01   1.279187e+01
  -1.772584e+01  -7.411780e+00
  -1.621982e+01  -3.645180e+01
   4.284420e+00   3.244320e+01
  -2.118198e+00   1.742369e+01
  -5.935541e+00   2.713404e+01
  -1.164770e+01  -9.755825e+00
  -1.945902e+01  -3.258461e+01
   1.277984e+01  -2.929252e+01
   7.461911e+01   1.054746e+01
  -1.903385e+01  -2.841128e+01
   5.109415e+00   2.749263e+01
  -6.725000e+01   1.042351e+01
  -4.601111e+01  -2.128978e+01
  -5.986912e+01  -4.082369e+01
   4.078523e+01  -3.155769e+01
   5.362329e+01   1.336229e+01
   1.091511e+01  -4.080725e+01
  -4.280560e+01  -2.075473e+00
  -6.291271e+01  -1.044997e+01
   7.174220e-01  -3.673656e+01
   6.278012e+01  -1.217321e+01
