
 $NMID
 id='ANONYMOUS ', fmtdat='(2E16.6)'
 volume=1.0
 tramp=1.0
 $END
  -3.060673e+03   2.557532e+02
  -1.807279e+03  -1.717788e+03
   7.807405e+02  -1.983765e+03
   7.834079e+02  -1.104270e+03
   9.208279e+02   3.561115e+01
  -2.360430e+02   1.060567e+02
  -5.074216e+02  -2.290576e+02
  -6.095032e+01  -5.507627e+02
   6.570829e+02  -5.279722e+02
   6.890355e+02  -6.902354e+01
   2.352838e+02   4.842238e+02
  -5.317255e+01   6.592383e+02
  -2.903126e+02   1.481486e+02
  -2.652811e+02  -5.971844e+02
   1.263905e+02  -5.437468e+02
   3.368237e+02  -7.201681e+01
   1.915186e+02   4.817009e+02
  -2.258984e+02   5.388700e+02
  -4.992914e+02   2.474751e+02
  -3.907927e+02  -1.749536e+02
  -1.173410e+02  -3.001994e+02
   1.120576e+02  -1.886890e+02
   1.334274e+02  -3.975711e+01
  -8.211311e+01  -6.207148e+01
  -3.756322e+02  -2.100689e+02
  -1.520303e+01  -3.414707e+02
   5.032065e+02  -1.616253e+02
   5.584042e+02   2.317215e+02
   3.375075e+02   2.831459e+02
  -3.647239e+02   2.204044e+02
  -3.729314e+02  -1.324197e+02
  -2.422472e+02  -3.430784e+02
   2.754862e+02  -3.761679e+02
   4.800902e+02  -6.061740e+01
   3.556330e+02   1.490046e+02
   9.018093e-01   3.407463e+02
  -1.208400e+02   1.345469e+02
  -2.887934e+01  -1.628522e+02
   1.736098e+02  -1.124254e+02
   2.285301e+02   2.595372e+01
  -4.812514e+01   4.303076e+02
  -2.004140e+02   4.432124e+02
  -4.505114e+02   1.948487e+01
  -1.397658e+02  -3.941789e+02
   1.932628e+02  -2.404179e+02
   1.966213e+02   3.109468e+02
  -1.654297e+02   4.469082e+02
  -4.495075e+02   4.735151e+01
  -4.593859e+02  -3.656159e+02
  -7.223333e+01  -4.210872e+02
   3.619029e+02  -1.539108e+02
   5.333879e+02   1.415782e+02
   3.073053e+02   2.790958e+02
  -8.532472e+01   2.918508e+02
  -3.416133e+02   8.162612e+01
  -1.493818e+02  -7.660342e+01
  -4.745113e+01   2.670739e+01
   8.848288e+01   8.834146e+01
  -1.714570e+02   7.063387e+01
  -1.871140e+02  -5.773102e+01
  -1.152970e+02  -1.838495e+02
   1.183182e+02  -2.191995e+02
   2.987452e+02  -1.618675e+02
   1.988565e+02   6.620115e+01
  -2.946895e+01   2.563878e+02
  -2.609590e+02   3.642768e+02
  -3.617424e+02   9.556070e+01
  -3.021032e+02  -1.694476e+02
  -4.727103e+01  -3.311128e+02
   9.160921e+01  -3.050683e+02
   4.018258e+01  -7.284129e+01
  -1.327238e+01  -6.188039e+01
   8.987784e+01  -1.483309e+02
   1.897006e+02  -5.170408e+01
   2.422453e+02   1.243290e+02
   1.123255e+02   2.868946e+02
  -2.884505e+01   1.549774e+02
  -1.709376e+02  -2.075060e+01
  -8.182921e+01  -2.425864e+02
   9.641164e+01  -2.116819e+02
   2.414990e+02  -6.704376e+01
   2.454813e+02   1.547871e+02
   7.118137e+01   2.015775e+02
  -4.719002e+01   2.364826e+02
  -1.715096e+02   9.902993e+01
  -1.068419e+02   3.943590e+01
  -1.153077e+02   5.907170e+01
  -2.853328e+02   1.267434e+01
  -3.397840e+02  -8.720214e+01
  -3.084015e+02  -3.167606e+02
  -9.784995e+00  -4.632725e+02
   3.467828e+02  -3.232085e+02
   3.586928e+02  -1.295402e+02
   3.046170e+02   1.076961e+02
   1.835048e+01   2.829311e+02
  -1.102997e+02   2.732512e+02
  -2.741985e+01   3.609988e+01
   1.708764e+02  -6.540294e+01
   1.323378e+02   3.710213e+01
   9.117083e+00   1.441091e+02
  -1.369281e+02   1.139091e+02
  -1.341902e+02  -1.128045e+02
   2.597528e+01  -1.102817e+02
   1.524141e+02   2.379389e+01
   1.592632e+02   3.003986e+02
  -1.940892e+01   3.141348e+02
  -2.314741e+02   1.714704e+02
  -3.276748e+02  -1.253080e+02
  -2.211621e+02  -2.779929e+02
  -4.580662e+01  -2.231946e+02
   1.551146e+02  -1.780629e+02
   1.362230e+02   1.723877e+01
  -5.503132e+00   4.357808e+01
  -6.286633e+01  -1.526062e+01
  -3.818790e+01  -9.607321e+01
   1.163271e+02  -6.704061e+01
   1.488774e+02   5.783742e+01
   3.110063e+00   8.534537e+01
  -4.014234e+01   3.634667e+01
  -9.264802e+01  -8.263938e+01
   1.480686e+02  -8.799945e+01
   2.518416e+02   7.106515e-01
   2.348003e+02   8.434745e+01
   8.632317e+01   2.199296e+02
  -1.762103e+02   1.885497e+02
  -2.190691e+02   9.839131e+01
  -1.761220e+02  -4.560935e+01
   3.044789e+00  -7.020392e+01
   6.388688e+01   1.496240e+01
  -7.346741e+01   5.105348e+01
  -1.708969e+02  -4.127700e+00
  -1.595185e+02  -5.982438e+01
  -7.704952e+01  -1.817797e+02
   5.544282e+01  -1.443747e+02
   1.285028e+02   1.478115e+01
   4.200166e+01   2.210479e+01
  -1.163719e+01  -3.402913e+01
   9.716807e-01  -1.221851e+02
   6.464154e+01  -7.530642e+01
   1.798088e+02   9.144957e+00
   1.191651e+02   1.128684e+02
   1.463899e+01   1.964746e+02
  -1.380864e+02   1.049970e+02
  -1.451658e+02   3.264114e+01
  -6.276664e+00  -7.598441e+01
   6.119396e+01  -6.866662e+01
   2.989813e+01  -2.592847e+01
   2.382796e+00   1.292780e+01
  -3.685868e+01   2.446034e+01
  -5.021135e+00  -5.647332e+01
   5.664471e+01   2.906607e+01
   1.103512e+02   6.765845e+01
   2.657665e+01   1.172684e+02
  -8.222405e+01   1.524647e+02
  -2.231778e+02   5.056221e+01
  -1.632399e+02  -1.353304e+02
  -4.663858e+01  -2.456183e+02
   1.220484e+02  -1.455564e+02
   1.025542e+02  -2.669221e+01
   9.211475e+01   4.512692e+01
   4.231436e+01   6.822252e+01
   1.177334e+01  -8.824626e+00
   8.867903e+01   3.057261e+00
   5.581018e+01   1.127617e+02
  -7.710289e+01   1.391436e+02
  -1.361950e+02   6.340680e+01
  -6.791150e+01  -4.556208e+01
   2.946489e+01  -1.082861e+02
   1.396285e+02  -7.930200e+01
   2.161854e+02   7.525844e+01
   3.099403e+01   1.948684e+02
  -1.620488e+02   2.241140e+02
  -2.442206e+02   1.000188e+02
  -2.415840e+02  -8.594797e+01
  -1.268228e+02  -1.741401e+02
   5.565912e+01  -1.377850e+02
   8.495831e+01  -3.278627e+01
   6.707152e+01  -6.331017e+01
   3.555238e+01  -8.126371e+01
   5.797296e+01  -1.094564e+02
   1.603953e+02   2.506195e+01
   1.080729e+02   1.247357e+02
   6.165708e+01   1.767965e+02
  -7.014078e+01   1.435550e+02
  -1.699288e+02   3.374262e+01
  -9.353172e+01  -1.261374e+02
  -2.424093e+01  -1.345085e+02
   8.785085e+01  -5.385277e+01
   1.357385e+01   2.655534e+01
   2.872247e+00   4.899125e+01
   1.307499e+01   4.690149e+01
   2.843152e+01  -1.312963e+01
   2.908233e+01   3.491158e+01
   5.205115e+01   3.195144e+01
  -7.885964e+01   6.143221e+01
  -1.395046e+02   1.874989e+01
  -1.591834e+02  -2.909475e+01
  -1.519358e+01  -6.942160e+01
   1.721893e+02  -9.921965e+01
   1.507449e+02  -4.915687e+01
   6.773743e+01   4.461213e+01
  -4.733843e+01   5.783244e+01
  -1.088419e+02  -2.152375e+01
  -3.442897e+01  -4.233902e+01
   3.669081e+01  -1.010806e+02
   3.007179e+01   1.208034e+01
   8.426835e+01   3.105732e+01
   2.698719e+01   2.016808e+01
   4.411383e+01   1.654246e+01
   3.376536e+01  -4.773197e+00
   7.218022e+01   3.835524e+01
  -4.378684e+01   1.606249e+02
  -1.141836e+02   9.902019e+01
  -2.038604e+02  -2.752375e+00
  -1.084091e+02  -8.877281e+01
   1.410006e+01  -1.319358e+02
   7.807157e+01  -6.232188e+01
   6.319027e+01   7.673178e+01
  -4.631993e+01   1.114543e+01
  -1.364022e+02  -5.642636e+01
  -3.206987e+01  -7.786841e+01
   1.108572e+02  -7.786694e+01
   9.647293e+01  -5.065528e+01
   1.583041e+02   3.229684e+01
   1.928580e+01   1.087640e+02
  -7.445811e+01   4.588678e+01
  -4.441841e+01  -9.341840e+00
   2.879737e+01  -3.169695e+01
   5.147105e+01   2.039008e+01
   5.680955e+01   1.142322e+02
  -9.239813e+01   1.476518e+02
  -1.485234e+02   5.489098e+01
  -8.979867e+01  -4.521963e+01
  -2.071961e+01  -2.060158e+02
   4.245404e+01  -1.352779e+02
   1.010484e+02   2.545771e+01
   8.110361e+01   1.035254e+02
  -3.606299e+01   9.106353e+01
  -5.923033e+01   5.336313e+01
  -4.651518e+01  -2.058436e+01
  -3.166385e+01   1.327081e+01
   8.673139e+00   1.057073e+01
  -7.041722e+01  -1.229843e+01
  -5.353973e+01  -4.888610e+01
  -9.953188e+00  -7.546133e+01
   3.855055e+01  -1.760351e+01
   1.213707e+02   6.581248e+01
   9.981766e+01   7.272147e+01
   2.492456e+01   3.106900e+01
  -9.405115e+01   1.930667e+01
  -1.092084e+02  -1.586126e+01
  -5.637091e+01  -2.753457e+01
  -1.610436e+00   6.773172e+00
  -4.069803e+00   1.751248e+01
   9.236788e+00   3.318964e+01
  -1.295311e+01  -3.659138e+00
   5.487857e+01   1.669315e+01
   7.950300e+01   5.380729e+01
  -1.350093e+01   7.475075e+01
  -1.120510e+02   1.096525e+02
  -1.811842e+02   3.787582e+01
  -1.886312e+02  -7.524632e+01
   5.525812e+00  -1.125111e+02
   8.888034e+01  -1.204075e+02
   1.340522e+02  -6.569977e+01
   1.001978e+02  -4.609276e+00
   7.989009e+00   4.079590e+01
   2.345410e+01  -9.047958e+00
   9.215383e+00   3.726039e+01
  -7.014696e+00   5.214986e+01
   2.311309e+01   6.818540e+01
  -6.585364e+01   4.689110e+01
  -2.638690e+01   9.026453e+00
  -4.414165e+01  -1.494503e+02
  -8.506720e+00  -1.100844e+02
   4.295574e+01  -2.314295e+01
   1.317667e+02   7.984705e+01
   2.364991e+01   6.177947e+01
  -8.113936e+01   7.085226e+01
  -1.226437e+02  -1.234998e+01
  -6.490964e+01  -5.850913e+01
   1.007255e+01   7.904586e+00
   2.452899e+00  -4.538182e+01
  -5.347429e+01   2.220211e+01
  -5.520870e+01   1.349724e+01
  -5.611749e+01  -3.531944e+01
   6.837939e+01  -1.051931e+02
   1.168747e+02  -8.219139e+01
   6.463703e+01   7.556043e+01
  -4.167221e+01   8.520640e+01
  -1.014739e+02   9.256687e+01
  -2.979342e+01   2.149152e+01
   2.339938e+01  -7.164384e+01
  -2.271123e+01  -5.746871e+01
   3.947928e+01  -2.644705e+01
   6.079441e+01   3.042109e+00
   1.990978e+01   5.013243e+01
  -1.329009e+01   1.724875e-01
  -1.114851e+01   5.873563e+00
  -5.144658e+00  -4.973643e+00
  -5.069980e+00  -1.182824e+00
   5.368173e+01  -2.798486e+01
  -5.793310e+00  -4.033343e+01
  -1.179184e+01  -5.409458e+01
   5.907607e+01  -3.027111e+00
   6.076817e+01   1.595571e+01
  -1.292713e+00   3.126166e+01
  -8.172345e+01  -9.901200e+00
  -1.030140e+02  -5.197462e+01
   1.653030e+01  -5.957569e+01
   5.564453e+01  -2.631265e+01
   8.842265e+01   2.525968e+01
   5.826818e+01   2.994801e+01
  -3.329098e+01   3.943200e+01
  -6.111741e+01   2.808544e+01
  -9.596772e+01  -5.363596e+00
   1.678912e+01   1.120424e+01
   5.321464e+01  -1.751074e+01
  -2.821382e+01   2.288142e+01
  -6.659725e+01   3.325834e+01
