
 $NMID
 id='ANONYMOUS ', fmtdat='(2E16.6)'
 volume=1.0
 tramp=1.0
 $END
  -3.917274e+03   1.543790e+02
  -2.363035e+03  -2.111031e+03
   2.643261e+02  -2.470227e+03
   1.333192e+03  -9.502080e+02
   8.575528e+02   3.928710e+00
  -2.397955e+02   2.789545e+02
  -6.133189e+02  -4.269078e+02
  -1.145636e+02  -8.462046e+02
   3.621363e+02  -8.279400e+02
   6.701614e+02  -4.933968e+01
   3.560907e+02   6.619786e+02
  -1.139839e+02   7.008857e+02
  -4.583702e+02   1.708217e+02
  -3.277089e+02  -3.873515e+02
   1.518013e+02  -5.525384e+02
   4.855513e+02  -1.035424e+02
   2.448788e+02   5.846948e+02
  -2.394396e+02   5.628621e+02
  -5.325918e+02   1.575034e+02
  -3.844734e+02  -2.572560e+02
   3.591744e+01  -3.613735e+02
   2.153549e+02  -2.638141e+02
   9.901394e+01  -1.760590e+01
  -1.302900e+02   1.158809e+01
  -2.875906e+02  -1.454389e+02
  -1.119117e+02  -3.657944e+02
   4.785561e+02  -3.303269e+02
   6.934275e+02   1.402625e+02
   3.147060e+02   4.223896e+02
  -2.763320e+02   2.715420e+02
  -5.395546e+02  -9.495436e+01
  -2.422101e+02  -4.059699e+02
   2.344543e+02  -4.323844e+02
   4.713945e+02  -1.974011e+02
   3.683558e+02   1.391563e+02
   1.116542e+02   2.619526e+02
  -9.684830e+01   1.568412e+02
  -7.888006e+01  -1.437410e+02
   2.784166e+02  -2.826516e+02
   2.993644e+02   1.420816e+02
   1.271673e+02   5.508503e+02
  -3.988183e+02   6.085070e+02
  -3.487102e+02  -8.285947e+00
  -2.696913e+02  -4.632027e+02
   8.738453e+01  -2.216045e+02
   2.440347e+02   2.256608e+02
   3.782379e+00   3.418550e+02
  -4.993917e+02   1.347655e+02
  -4.862945e+02  -4.510604e+02
  -1.428701e+02  -5.677624e+02
   2.624896e+02  -2.579602e+02
   5.614175e+02  -3.011654e+00
   3.055821e+02   1.767016e+02
  -1.580240e+02   2.737050e+02
  -2.329936e+02   1.051880e+02
  -2.391020e+02  -5.459031e+01
   2.386896e+01   2.295611e+01
   6.999286e+01   8.413966e+01
  -6.500852e+01   1.169607e+02
  -2.575906e+02  -4.566327e+01
  -9.516869e+01  -1.762908e+02
   1.949080e+02  -2.612016e+02
   2.976851e+02  -1.316551e+02
   2.270010e+02   8.659708e+01
  -1.674988e+01   2.631618e+02
  -2.827781e+02   3.593675e+02
  -3.806229e+02   2.063806e+02
  -2.218509e+02  -1.229090e+02
  -1.308067e+02  -3.911059e+02
   5.994006e+01  -3.457188e+02
   1.332949e+02  -9.592523e+01
  -2.185831e+01  -4.587186e+01
   1.080883e+02  -7.976566e+01
   2.344723e+02  -1.355605e+02
   2.217324e+02   7.165084e+01
   1.744045e+02   2.691288e+02
  -5.737821e+01   2.711706e+02
  -2.167044e+02   1.332100e+00
  -1.929590e+02  -2.753920e+02
   4.396396e+01  -2.432108e+02
   2.882153e+02  -7.899229e+01
   2.743120e+02   2.041232e+02
   1.168650e+02   3.032441e+02
  -9.205020e+01   2.782232e+02
  -1.802956e+02   1.538691e+02
  -1.509222e+02   6.720680e+01
  -1.100397e+02   3.416517e+01
  -2.333182e+02   8.519766e+01
  -4.002841e+02  -6.913314e+01
  -2.648379e+02  -2.686549e+02
  -1.011486e+01  -3.949389e+02
   3.843920e+02  -3.554489e+02
   4.061829e+02  -1.889115e+02
   2.534485e+02   9.132626e+01
   3.562402e+01   2.556722e+02
  -1.481637e+02   1.991372e+02
  -6.057426e+01   2.717569e+01
   1.071594e+02  -4.588271e+01
   1.761987e+02   1.245799e+01
   1.248699e+01   1.535206e+02
  -1.237824e+02   1.627262e+02
  -1.355673e+02  -6.698922e+01
   8.057168e+00  -1.654066e+02
   1.423979e+02  -1.579548e+01
   1.746303e+02   2.826371e+02
  -6.013035e-01   2.704573e+02
  -2.342068e+02   1.781530e+02
  -3.750384e+02  -2.694949e+01
  -3.063639e+02  -2.411323e+02
  -5.671527e+01  -2.792619e+02
   1.057877e+02  -1.016012e+02
   1.114673e+02   3.927267e+01
   9.947859e+01   3.414743e+01
  -4.266986e+01  -1.042174e+01
  -2.331079e+01  -1.025930e+02
   1.215776e+02  -6.310854e+01
   1.806905e+02   3.270970e+01
   7.413664e+01   5.871581e+01
  -3.535701e+01  -2.388646e+01
  -3.642421e+01  -7.979998e+01
   9.481878e+01  -7.567953e+01
   2.616733e+02   3.240140e+01
   2.861362e+02   1.172117e+02
   8.151080e+01   2.061423e+02
  -1.790392e+02   2.476689e+02
  -2.123980e+02   1.099121e+02
  -1.361974e+02  -2.142637e+01
   7.979606e+00  -7.834916e+01
   1.299400e+02  -2.445194e+01
  -4.295715e+01   9.291494e+01
  -2.217066e+02   7.352972e+01
  -1.795319e+02  -1.482403e+02
  -7.249427e+01  -2.142264e+02
   1.532862e+02  -1.529836e+02
   1.229637e+02  -7.343769e+00
   1.843512e+01   5.247639e+01
  -4.879914e+01   1.168495e+01
  -4.517725e+01  -1.237830e+02
   8.800111e+01  -1.214712e+02
   1.844359e+02  -3.103325e+01
   1.284410e+02   1.354522e+02
  -5.147844e-01   2.036047e+02
  -1.503629e+02   1.475895e+02
  -2.049513e+02   6.282300e+01
  -6.105798e+01  -1.148347e+02
   1.001566e+02  -8.487238e+01
   8.334430e+01   3.384765e+00
   2.055222e+01   3.006914e+01
  -2.824651e+01   1.812668e+01
   2.727885e+01   3.757634e+01
   6.612210e+01   1.619319e+01
   7.373168e+01   8.732738e+01
  -1.223994e+00   1.657611e+02
  -1.172398e+02   1.019928e+02
  -1.844717e+02   4.035741e+01
  -2.007717e+02  -1.831021e+02
  -4.955959e+01  -1.575096e+02
   9.759052e+01  -1.519038e+02
   5.771588e+01  -1.740989e+01
   6.537004e+01   4.760081e+01
   2.838132e+01   4.292872e+01
   2.301628e+01  -4.277266e+00
   9.323017e+01   1.118499e+01
   4.557936e+01   5.360453e+01
  -5.608054e+01   7.419643e+01
  -8.748030e+01   8.749143e+01
  -9.105473e+01  -6.187508e+01
   4.917169e+00  -1.132845e+02
   1.422198e+02  -7.201164e+01
   1.697887e+02   8.723415e+01
   7.874426e+01   1.718424e+02
  -7.687442e+01   2.016288e+02
  -2.399913e+02   7.784946e+01
  -2.513714e+02  -1.207370e+02
  -5.428490e+01  -1.173533e+02
   9.992763e+01  -9.858586e+01
   8.336561e+01  -8.163841e+01
   7.410412e+01  -9.073436e+01
   7.992811e+01  -8.308293e+01
   8.228194e+01  -4.503600e+01
   1.311945e+02  -1.679904e+01
   1.048066e+02   1.472155e+02
   1.759062e+01   2.025528e+02
  -8.805064e+01   2.094008e+02
  -1.781077e+02   4.426729e+01
  -1.192228e+02  -1.551877e+02
  -1.647449e+01  -1.365411e+02
   7.188335e+01  -6.424695e+01
   6.483421e+01   2.707922e+01
  -8.019177e+01  -1.390865e-01
   4.678564e+01   3.874371e+01
  -1.842482e+00  -2.027654e+01
   8.359998e+01   4.661026e+01
   2.751998e+01   1.433223e+01
  -7.871641e+01   1.568010e+01
  -9.506641e+01  -1.036457e+01
  -1.370581e+02  -6.373202e+01
   1.822180e+01  -1.171082e+02
   1.285767e+02  -6.115178e+01
   1.168986e+02  -1.641937e+01
   8.840916e+01   6.557885e+01
  -4.885576e+01   4.160927e+01
  -5.925774e+01   8.462917e+00
  -1.803325e+01  -8.171545e+01
   5.229028e+01  -3.193551e+01
   3.636870e+01   6.155931e+00
   2.178345e+01   4.379761e+01
   4.790758e+01   2.756377e+01
   2.460530e+01   5.301015e+01
   2.834267e+00   1.421537e+01
   2.282821e+01   4.568101e+01
  -4.794585e+01   1.700668e+02
  -9.649778e+01   1.385258e+02
  -1.259976e+02   8.648500e+00
  -1.299720e+02  -6.746848e+01
  -4.539006e+00  -1.383680e+02
   5.912681e+01  -4.408511e+01
   6.516759e+01   2.236544e+01
  -4.520575e+01   4.121472e+01
  -1.559011e+02  -9.794255e+00
  -6.151423e+01  -1.031962e+02
   9.433747e+01  -1.067005e+02
   1.816001e+02  -4.691929e+01
   1.750076e+02   2.646412e+01
   4.909529e+01   8.465465e+01
  -1.041334e+02   5.725396e+01
  -8.000278e+01   2.744047e+01
   6.020902e+01  -5.157399e+01
   1.002403e+02  -2.497635e+01
   3.058226e+01   7.535561e+01
  -7.889214e+01   1.405077e+02
  -1.671802e+02   1.178424e+02
  -8.744848e+01  -6.477552e+01
  -1.408536e+01  -2.062083e+02
   7.794086e+01  -1.289267e+02
   1.087982e+02   2.394175e+00
   6.966224e+01   1.147150e+02
  -2.730353e+01   1.233747e+02
  -4.738809e+01   2.759282e+01
  -6.510847e+01  -4.998692e+00
  -4.369093e+00  -1.604134e+01
   3.595383e+00   3.670769e+00
   2.794989e+00  -2.795432e+01
  -6.202489e+01  -5.177062e+01
  -4.662717e+01  -1.248005e+02
   2.415592e+01  -4.440686e+01
   1.106593e+02   5.701586e+01
   1.311910e+02   4.666532e+01
   1.502007e+01   1.701875e+01
  -7.082768e+01   4.016633e+01
  -9.291729e+01   2.408340e+01
  -3.128948e+01  -1.018216e+01
   1.482056e+01  -1.502175e+01
   1.944409e+01  -1.866696e+01
  -4.142303e-01   2.394905e+01
   1.788787e+01   1.187960e+01
   6.736777e+01   3.115103e+00
   1.287607e+02   2.370224e+01
   1.794747e+01   8.765852e+01
  -1.038545e+02   1.057031e+02
  -1.787910e+02   7.498773e+01
  -1.211595e+02  -6.166618e+01
  -5.358511e+01  -1.552812e+02
   4.005612e+01  -1.088780e+02
   1.092576e+02  -6.353239e+01
   6.874951e+01  -3.457252e+00
   1.090790e+01   3.901692e+01
   1.927119e+00   4.901693e+00
   6.092573e+00   6.581646e+00
   4.558001e+01   7.695639e+01
   2.236089e+01   6.761120e+01
  -2.749044e+01   5.621089e+01
  -8.999999e+01  -5.151467e+01
  -1.153492e+02  -9.251990e+01
   2.369379e+01  -1.379438e+02
   8.323897e+01  -3.098285e+01
   8.969927e+01   5.527443e+01
   9.821656e+00   8.261858e+01
  -8.230238e+01   8.568422e+01
  -1.110721e+02  -1.311036e+01
  -7.831293e+01  -2.569483e+01
   3.498811e+00  -2.034857e+01
   4.982904e+01  -7.259479e+01
  -3.117630e+01   2.929449e+01
  -8.359869e+01   1.052529e+01
  -4.602027e+01  -4.831561e+01
   5.529154e+01  -4.332020e+01
   1.248076e+02  -6.219339e+01
   8.051908e+01  -3.512963e+00
  -1.573951e+01   5.917189e+01
  -6.394164e+01   7.080533e+01
  -3.207114e+01  -7.710978e+00
  -9.067317e+00  -1.348646e+01
   3.017730e+01  -5.589323e+01
   3.774435e+01   4.089963e+01
   5.680892e+01   3.630395e+01
   8.357739e+00   4.829580e+01
  -4.351458e+01  -1.626798e+01
  -1.443897e+01  -5.304795e+01
  -1.236334e+01   1.575050e+01
   1.946686e+01   2.122209e+01
   6.389801e+01  -1.175230e+01
   4.974875e-01  -2.264160e+01
  -1.224187e+01  -4.640121e+01
   4.139960e+01  -2.018842e+01
   4.158528e+01   2.285363e+01
  -2.011200e+00   6.313965e+01
  -1.574232e+01   2.484378e+01
  -4.753758e+01  -7.288057e+00
  -2.614341e+01  -2.823684e+01
   1.144235e+02  -8.215732e+01
   6.882865e+01  -2.260802e-01
   2.717788e+01   4.992542e+01
  -6.384059e+00   4.003724e+01
  -7.453525e+01   1.831340e-01
  -2.395865e+01   4.694496e+01
   1.541983e+01  -1.423652e+01
   2.570629e+01  -2.029038e+01
  -5.129617e+01   6.578169e+00
  -8.828710e+01   5.365221e+00
