
 $NMID
 id='ANONYMOUS ', fmtdat='(2E16.6)'
 volume=1.0
 tramp=1.0
 $END
  -2.502584e+03   5.178544e+02
  -1.818363e+03  -8.532106e+02
   3.769651e+01  -1.520248e+03
   8.012709e+02  -1.312019e+03
   7.892457e+02  -4.053752e+02
   2.485373e+02   2.473809e+01
  -1.046369e+02   1.875060e+01
  -6.774841e+00  -3.529400e+02
   3.448010e+02  -4.182661e+02
   4.306698e+02  -1.172947e+02
   3.591269e+02   3.195174e+02
   7.732386e+01   4.744426e+02
  -1.168198e+02   1.266129e+02
  -2.850330e+02  -3.629680e+02
  -2.255755e+01  -4.674276e+02
   2.570782e+02  -2.051327e+01
   2.212941e+02   3.978941e+02
  -3.808836e+01   4.747854e+02
  -4.094070e+02   3.455272e+02
  -3.408867e+02  -9.924904e+01
  -1.370571e+02  -2.939376e+02
   9.232931e+01  -1.381999e+02
   2.767017e+01  -6.359697e+01
  -1.978975e+02  -1.470417e+02
  -2.124446e+02  -2.992794e+02
   6.121370e+01  -2.918322e+02
   4.131137e+02  -1.017224e+02
   5.659620e+02   2.493306e+02
   1.784594e+02   2.752253e+02
  -2.796242e+02   9.554792e+01
  -3.911857e+02  -1.182964e+02
  -1.956438e+02  -3.670541e+02
   1.991996e+02  -3.237649e+02
   3.665127e+02  -1.441699e+02
   2.497819e+02   9.130134e+01
   1.916081e+01   2.365623e+02
   2.157234e+01   9.644837e+01
   1.232924e+02  -1.117222e+02
   1.423295e+02  -6.044259e+01
   1.773524e+02   8.860487e+01
  -1.010243e+02   3.722275e+02
  -1.977713e+02   3.424932e+02
  -1.855584e+02   4.474300e+01
  -1.241381e+02  -2.495158e+02
   2.080333e+01  -1.339165e+02
   9.377418e+01   3.171783e+02
  -1.290963e+02   3.660148e+02
  -3.609084e+02   5.535476e+01
  -5.346489e+02  -3.408534e+02
  -6.453431e+01  -4.010351e+02
   2.109438e+02  -1.704924e+02
   4.548219e+02   6.097280e+01
   2.405310e+02   2.426742e+02
   2.201939e+00   1.454370e+02
  -3.216537e+02   4.101891e+01
  -1.396769e+02   4.026549e+01
  -6.190966e+01   5.506295e+00
   4.586653e+01   1.017392e+01
  -1.245840e+02   2.618048e+01
  -1.871896e+02  -6.869975e+01
  -1.039035e+02  -1.703926e+02
   1.151108e+02  -2.112281e+02
   2.698561e+02  -1.611280e+02
   2.765129e+02   1.003530e+02
   3.856317e+01   2.788953e+02
  -2.645527e+02   3.676464e+02
  -3.998563e+02   1.579428e+02
  -1.970426e+02  -1.194460e+02
  -4.800461e+01  -2.544326e+02
  -9.778483e+00  -2.345115e+02
  -4.643913e+01  -1.481662e+02
  -1.398714e+01  -1.103639e+02
   1.137538e+02  -1.282248e+02
   2.412621e+02  -1.011090e+02
   2.161569e+02   1.592578e+02
   2.826495e+01   2.084970e+02
  -1.091796e+02   1.448150e+02
  -1.630217e+02   2.728789e+00
  -1.226766e+02  -2.502052e+02
  -8.338239e+00  -2.067290e+02
   2.703194e+02  -6.367283e+01
   2.720775e+02   1.610772e+02
   9.228568e+01   1.848749e+02
   3.727812e+00   1.559284e+02
  -1.286541e+02   1.730890e+02
  -1.104453e+02   9.590853e+01
  -1.474206e+02   3.957045e+01
  -2.870158e+02  -2.116828e+01
  -3.797537e+02  -1.070155e+02
  -2.628523e+02  -2.556507e+02
  -2.745952e+01  -4.025658e+02
   3.114831e+02  -3.187700e+02
   3.949018e+02  -2.080746e+02
   2.197598e+02   5.361540e+01
   8.058222e+01   1.848533e+02
  -1.244799e+02   2.259391e+02
   3.216932e+01   1.584724e+01
   8.887463e+01  -4.662698e+00
   1.534719e+02   1.182789e+01
  -1.596579e+01   8.036626e+01
  -1.864555e+02   6.267875e+01
  -6.911761e+01  -8.491110e+01
  -8.764046e+00  -9.190799e+01
   1.825546e+02   4.125581e+01
   1.061422e+02   1.870802e+02
  -3.533165e+01   3.531970e+02
  -2.064236e+02   1.986190e+02
  -2.943794e+02  -2.974853e+00
  -2.700329e+02  -2.453903e+02
  -6.867850e+01  -2.456922e+02
   1.246691e+02  -1.398704e+02
   1.052565e+02  -1.517375e+01
   4.315626e+01   1.369987e+01
  -4.876484e+01  -5.389176e+01
   4.851914e+01  -7.659990e+01
   1.154954e+02  -6.561891e+01
   1.488068e+02  -1.067976e+01
   1.219971e+01   5.357527e+01
  -5.313272e+01  -2.386077e+01
  -3.335494e+01  -1.152856e+02
   1.356675e+02  -1.133346e+02
   2.924408e+02   5.109936e+01
   2.263447e+02   1.207025e+02
   6.092741e+01   2.601318e+02
  -1.210162e+02   2.224420e+02
  -2.018507e+02   1.208362e+02
  -1.278318e+02  -5.277002e+01
   3.008825e+01  -2.340501e+01
   7.522583e+01  -1.372940e+00
  -4.622012e+01   6.871112e+01
  -2.047912e+02   8.600793e+00
  -1.403992e+02  -1.164582e+02
  -4.928451e+01  -1.629810e+02
   7.208048e+01  -1.306849e+02
   1.026663e+02   1.670798e+01
  -2.381028e+00   3.981881e+01
  -2.368838e+01  -1.992725e+01
  -3.494229e+01  -8.733316e+01
   8.582729e+01  -1.388972e+02
   1.761999e+02  -1.063782e+01
   1.741236e+02   1.259514e+02
   3.158962e+01   1.608087e+02
  -1.276397e+02   1.314887e+02
  -1.489915e+02   8.100727e+00
  -5.510884e+01  -9.972426e+01
   2.240936e+01  -9.076283e+01
   9.501599e+01  -4.252124e+01
  -4.001679e+01   1.540206e+01
  -4.391210e+01   2.444081e+01
  -1.286429e+01  -4.901201e+01
   8.787634e+01   4.741204e+00
   1.240602e+02   1.069375e+02
  -5.110645e+01   1.961590e+02
  -1.221081e+02   1.885976e+02
  -1.833995e+02   2.337943e+01
  -1.902169e+02  -1.254194e+02
  -5.008036e+01  -2.152585e+02
   1.184604e+02  -1.267040e+02
   1.006578e+02  -2.903534e+01
   5.848004e+01   4.251825e+01
   5.495308e+01   1.533498e+01
   4.391825e+01  -2.197124e+01
   4.789020e+01   6.760571e+00
   4.858334e+01   6.582945e+01
  -1.598835e+00   1.108564e+02
  -1.166312e+02   6.586550e+01
  -1.395786e+02  -6.257956e+01
   5.176234e+00  -1.888977e+02
   1.625696e+02  -9.484979e+01
   1.739523e+02   4.863988e+01
   6.013408e+01   1.980279e+02
  -8.026532e+01   1.704007e+02
  -2.172351e+02  -9.472066e+00
  -2.259691e+02  -7.305233e+01
  -6.451886e+01  -1.423215e+02
   2.033598e+01  -1.051574e+02
   5.015572e+01  -6.505719e+01
   5.969613e+01  -3.162419e+01
   1.191632e+01  -5.449236e+01
   6.905086e+01  -6.949821e+01
   8.111893e+01   1.294513e+01
   5.934174e+01   1.397160e+02
   3.428904e+01   2.244746e+02
  -9.654308e+01   1.370053e+02
  -1.855928e+02   4.359542e+01
  -1.027531e+02  -9.875841e+01
  -2.637679e+01  -1.745692e+02
   5.435752e+01  -9.133861e+01
   5.246312e+01   1.209971e+01
   5.552069e+01   7.687825e+01
  -3.991930e+01   1.519700e+01
   8.844880e+00  -1.688514e+01
   7.962313e+01   1.483865e+01
   1.489974e+01   3.188571e+01
  -6.143970e+01   2.098306e+01
  -1.840850e+02   1.457109e+01
  -1.482063e+02  -5.895615e+01
  -5.747211e+00  -4.996628e+01
   1.228890e+02  -7.590781e+01
   1.487629e+02  -4.158671e+01
   4.602251e+01   7.666769e+00
  -6.514009e+01   1.439464e+01
  -4.932565e+01  -2.956644e+01
  -3.382751e+01  -9.574843e+01
   3.538567e+01  -3.030978e+01
   7.571829e+01   1.094452e+01
   3.800177e+01   7.298375e+01
   3.424028e+01   4.472100e+01
   1.120288e+02  -2.215208e+01
   5.939237e+01   1.424063e+01
   1.040251e+02   3.140015e+01
  -1.984647e+01   1.756122e+02
  -1.298490e+02   1.297751e+02
  -2.060473e+02   1.160024e+01
  -9.109484e+01  -6.476617e+01
  -1.696041e+00  -1.061040e+02
   1.116449e+02  -6.283602e+01
   3.607054e+01   4.073504e+01
  -6.565566e+01   5.218924e+01
  -1.389951e+02  -5.914859e+00
  -2.681682e+01  -1.041251e+02
   1.077165e+02  -9.279154e+01
   1.955709e+02  -6.322497e+01
   1.157090e+02   4.371879e+01
   2.508496e+01   1.100566e+02
  -4.335490e+01   6.168419e+01
  -5.930421e+01  -1.407610e+01
   1.984353e+01  -2.786186e+01
   7.755287e+01   5.177950e+01
   5.027949e+01   1.131609e+02
  -7.749793e+01   1.356581e+02
  -1.548536e+02   5.876263e+01
  -1.030517e+02  -8.990448e+01
  -4.924793e+01  -1.775570e+02
   4.964019e+01  -9.457105e+01
   9.756572e+01   8.164886e+00
   2.735664e+01   1.283570e+02
  -2.437605e+01   1.005279e+02
  -4.541172e+00   8.912179e+00
  -8.517049e+01  -1.344796e+01
  -5.608192e+00  -2.501700e+01
  -1.704537e+01  -6.048186e+00
  -2.883016e+01  -8.987610e+00
  -6.567358e+01  -3.430357e+01
  -3.942007e+01  -6.430747e+01
   4.289436e+01  -7.851652e+01
   1.233839e+02   5.040962e+01
   7.790031e+01   8.078139e+01
  -4.740305e+00   1.787410e+01
  -5.109417e+01  -1.437185e+01
  -1.043851e+02   1.496220e+01
  -5.400239e+01  -1.648495e+01
   3.747672e+00   1.507641e+01
  -3.393541e+00  -2.171724e+01
  -3.303855e+01  -4.977021e+01
   5.315950e+00   7.413466e+00
   8.383234e+01   7.111656e+00
   6.946936e+01  -3.533721e+00
   6.775858e+01   9.714921e+01
  -1.113825e+02   1.130924e+02
  -1.604426e+02   7.534877e+01
  -1.301433e+02  -6.405701e+01
  -5.186075e-01  -1.116806e+02
   4.630945e+01  -1.330483e+02
   1.093136e+02  -6.518587e+01
   1.222653e+02  -2.235804e+01
   4.073876e+01   3.478830e+01
   3.682088e+01   5.753703e+01
   1.815976e+01   1.137518e+00
   5.075365e+01   6.268729e+01
   5.071753e+01   6.283870e+01
  -1.735064e+01   4.712941e+01
  -9.543120e+01  -6.191714e-01
  -1.008178e+02  -1.106182e+02
  -3.952206e+01  -1.099877e+02
   2.498762e+01  -4.468356e+01
   1.161667e+02   3.093428e+01
   3.852713e+01   8.814852e+01
  -5.959127e+01   4.797799e+01
  -1.049833e+02  -2.633311e+01
  -7.646847e+01  -8.821345e+01
   4.274672e+01  -2.842827e+01
   6.496763e+01  -8.113783e+01
   7.964080e+00   9.767205e+00
  -2.910504e+01   2.672594e+01
  -1.072727e+01  -3.043661e+01
   1.095024e+02  -5.598062e+01
   1.434210e+02  -8.475531e+01
   5.776391e+01  -1.026196e+01
  -5.242433e-01   7.494706e+01
  -5.340398e+01   9.818155e+01
  -3.235435e+01   1.103565e+01
   9.937843e+00  -4.883663e+01
   5.732320e+01  -3.552632e+01
   2.165480e+01   4.135929e+00
   4.442448e+01   2.212569e+01
   1.849746e+01   1.766236e+01
  -2.513581e+01   1.397222e+01
  -5.755256e+00  -4.594104e+01
  -1.490938e+01   4.773592e+01
  -2.605543e+00   5.170219e+01
   3.297202e+00   8.179592e+00
  -4.102864e+01  -4.552491e+01
   9.359772e-01  -7.755705e+01
   5.389147e+01  -1.162922e+01
   6.223774e+01   4.194188e+01
   2.906259e+01   6.364992e+01
   2.403864e+00   2.985689e+01
  -3.436437e+01  -1.597681e+01
  -1.594908e+01  -8.157658e+01
   5.328779e+01  -4.481759e+01
   5.902935e+01   1.899473e+01
   3.949657e+01   6.014386e+01
  -4.786770e+01   3.747597e+00
  -3.657990e+01   3.189286e+01
  -2.689287e+01   4.032550e+01
   1.832058e+01  -2.442964e+01
   8.326902e+00   3.556378e+01
  -1.853887e+01   3.566236e+01
  -6.469673e+01  -4.491185e-01
