
 $NMID
 id='ANONYMOUS ', fmtdat='(2E16.6)'
 volume=1.0
 tramp=1.0
 $END
  -2.996707e+03   4.721951e+01
  -1.420758e+03  -1.774426e+03
   5.337144e+02  -9.095261e+02
   7.192842e+02  -9.218706e+02
   5.571995e+02  -2.479513e+02
   6.137840e+01  -1.373941e+02
  -1.124381e+02  -3.401181e+02
  -1.529972e+01  -3.844374e+02
   3.881188e+02  -4.130657e+02
   4.638718e+02  -5.064229e+01
   2.004105e+02   5.525005e+02
   3.330781e+01   4.615181e+02
  -2.060172e+02   9.359337e+01
  -1.699330e+02  -3.284707e+02
   1.831901e+02  -4.593333e+02
   3.060550e+02  -8.895265e+01
   1.388130e+02   3.783747e+02
  -5.427757e+01   4.454986e+02
  -3.350780e+02   2.558739e+02
  -3.061341e+02  -1.637050e+02
  -1.025927e+02  -2.731675e+02
   1.438480e+02  -1.685156e+02
   1.814444e+01  -2.927872e+01
  -1.853982e+02  -3.653466e+01
  -2.683226e+02  -2.132219e+02
   4.325291e+01  -3.426291e+02
   4.770395e+02  -1.598509e+02
   5.797503e+02   2.531549e+02
   2.249185e+02   2.680728e+02
  -3.998953e+02   1.080229e+02
  -3.784896e+02  -1.902602e+02
  -1.589130e+02  -2.947513e+02
   2.670604e+02  -2.481299e+02
   3.380722e+02  -8.751573e+01
   2.819588e+02   1.237406e+02
   1.173298e+01   2.088997e+02
  -1.132246e+01   1.189873e+02
   9.937088e+01  -1.098488e+02
   2.937815e+02  -1.662864e+02
   1.230578e+02   1.376876e+02
  -1.100879e+02   4.692371e+02
  -2.248161e+02   3.860393e+02
  -2.141210e+02  -2.916338e+01
  -7.753589e+01  -3.126291e+02
   1.876602e+02  -4.880983e+01
   7.099464e+01   2.779704e+02
  -1.609754e+02   2.572915e+02
  -3.679482e+02   3.022344e+01
  -3.659074e+02  -2.262109e+02
  -6.089431e+01  -3.921837e+02
   2.939380e+02  -9.813109e+01
   4.344665e+02   6.966434e+01
   1.786233e+02   2.162768e+02
  -1.991680e+01   1.923147e+02
  -1.287658e+02   2.230541e+01
  -6.777471e+01   1.532499e+01
  -4.311482e+00  -4.804028e+01
   9.271475e+00   7.232440e+01
  -3.675210e+01   1.171981e+00
  -8.143478e+01  -8.496744e+01
  -9.380974e+01  -1.855693e+02
   1.820655e+02  -2.145704e+02
   2.971414e+02  -5.164094e+01
   2.145812e+02   5.083970e+01
  -6.484411e+01   3.123223e+02
  -2.903166e+02   3.187375e+02
  -3.591248e+02   9.635839e+01
  -1.829106e+02  -1.453755e+02
  -1.840681e+01  -3.342404e+02
   3.065657e+01  -2.607067e+02
   1.480256e+01  -1.269509e+02
  -5.373743e+01  -1.173557e+02
   1.192248e+02  -1.045337e+02
   2.352734e+02  -5.207934e+01
   2.160352e+02   1.043846e+02
   1.086728e+01   1.984785e+02
  -1.086696e+02   1.209108e+02
  -1.445090e+02  -3.281962e+01
  -1.118084e+02  -2.357524e+02
   7.247432e+01  -2.252164e+02
   2.323708e+02  -6.084235e+01
   2.472474e+02   1.354621e+02
   1.364712e+02   2.666390e+02
  -6.805964e+01   2.013060e+02
  -2.062016e+02   9.144507e+01
  -9.163019e+01   8.032925e+01
  -8.843279e+01   3.384280e+01
  -2.473854e+02   5.801310e+01
  -2.935986e+02  -4.630231e+01
  -2.697822e+02  -2.418888e+02
   2.373448e+01  -4.157945e+02
   3.792669e+02  -3.031974e+02
   4.551148e+02  -7.600554e+01
   2.382336e+02   9.597473e+01
   1.544852e+01   1.871597e+02
  -6.120062e+01   1.618215e+02
  -4.897204e+00   2.225477e+01
   9.170814e+01  -5.792032e+01
   9.845379e+01   3.974719e+01
   3.973436e+01   1.283404e+02
  -1.070483e+02   8.188298e+01
  -8.180815e+01  -5.740862e+01
   6.926638e+01  -1.153437e+02
   1.251307e+02  -2.093742e+00
   8.312663e+01   1.713083e+02
  -6.430307e+01   2.679134e+02
  -2.166300e+02   1.296889e+02
  -3.557469e+02  -7.977590e+01
  -2.009666e+02  -2.160028e+02
  -3.070738e+01  -2.504902e+02
   1.182174e+02  -1.418213e+02
   1.026344e+02   7.005844e+00
   6.663867e+01   3.733034e+01
  -6.850153e+01  -7.082723e+01
  -1.304732e+00  -9.887236e+01
   1.032576e+02  -1.130160e+01
   1.140164e+02   1.149952e+01
   3.720550e+01   6.671712e+01
  -6.412030e+01   2.180145e+01
  -2.355292e+01  -6.428690e+01
   1.246523e+02  -1.089921e+02
   2.718380e+02  -9.066659e+00
   2.464051e+02   1.633217e+02
   5.935288e+01   2.132117e+02
  -1.632863e+02   2.427584e+02
  -2.474074e+02   7.531012e+01
  -6.921087e+01  -7.018857e+01
   2.016233e+01  -7.840455e+01
   4.408907e+01  -2.769681e+00
  -4.208454e+01   4.499675e+01
  -1.954603e+02  -1.970083e+01
  -1.778101e+02  -1.155693e+02
  -4.304579e+01  -1.664680e+02
   7.393792e+01  -9.298108e+01
   1.191072e+02  -2.206052e+01
   3.516374e+01   4.194725e+01
  -6.112222e+01  -1.883358e+01
  -1.069435e+01  -1.091550e+02
   9.755850e+01  -1.026667e+02
   1.715747e+02  -2.451171e+01
   1.741971e+02   8.438177e+01
   1.090720e+01   1.654552e+02
  -1.554572e+02   9.468354e+01
  -1.254835e+02  -2.083827e+00
  -3.013727e+01  -3.688627e+01
   1.192682e+01  -7.727170e+01
   6.906714e+01  -1.678281e+01
  -3.864176e+01  -1.191222e+01
  -1.940353e+01  -5.619314e+00
  -5.187690e+00  -2.031667e+01
   1.014892e+02   2.992640e+00
   8.839911e+01   5.440323e+01
  -3.248689e+01   1.513807e+02
  -8.894144e+01   1.228551e+02
  -1.893131e+02  -1.221211e+00
  -1.791925e+02  -1.367926e+02
  -2.268301e+01  -1.316815e+02
   9.067135e+01  -7.276000e+01
   8.761762e+01  -4.971150e+01
   5.370249e+01   9.932899e+00
  -8.545920e+00  -6.488732e+00
   4.422082e+01  -3.190009e+00
   1.182007e+02  -1.783553e+01
   5.976191e+01   2.760546e+01
  -8.004687e+00   8.468189e+01
  -1.157172e+02   8.244807e+01
  -9.649519e+01  -5.054559e+01
   4.083284e+01  -1.233363e+02
   1.521465e+02  -7.248194e+01
   1.467819e+02   7.804622e+01
  -9.227863e+00   1.727088e+02
  -1.084062e+02   1.805583e+02
  -2.297045e+02   7.708593e+01
  -1.885708e+02  -6.752897e+01
  -5.560783e+01  -1.192927e+02
   1.483424e+01  -1.014497e+02
   5.752866e+01  -2.957741e+01
   1.146191e+02   9.950701e+00
   3.521742e+01  -5.042524e+01
   8.666805e+01  -2.842488e+01
   1.081542e+02   3.490487e+01
   8.488003e+01   1.235772e+02
   2.363569e+01   2.003235e+02
  -1.152778e+02   1.319248e+02
  -1.585788e+02  -1.808306e+01
  -8.564740e+01  -1.605517e+02
   1.195576e+01  -1.508765e+02
   5.136198e+01  -4.836294e+01
   4.286938e+01   3.942849e+01
   1.908767e+01   2.172224e+01
  -5.415145e+00   1.963709e+01
   3.921282e+01  -9.579036e+00
   9.144279e+01   9.792676e+00
   3.389803e+01   2.124091e+01
  -2.618835e+01   5.528710e+01
  -1.101253e+02   1.372186e+01
  -1.403698e+02  -6.167389e+01
  -3.576769e+01  -9.736456e+01
   1.313400e+02  -9.599295e+01
   1.143249e+02   3.735619e+01
   2.009338e+01   2.655303e+01
  -5.986320e+01   3.183911e+01
  -5.314549e+01  -2.350006e+01
  -1.472683e+01  -1.370943e+01
   1.351645e+01  -8.030247e+01
   4.219282e+01  -2.779709e+01
   3.043625e+01   3.989274e+01
   4.947069e+01   4.276308e+01
   6.996635e+01  -6.142707e+01
   5.791060e+01   1.489732e+01
   5.213568e+01   5.573064e+01
  -3.420109e+01   1.128749e+02
  -9.535574e+01   8.520766e+01
  -1.465040e+02   5.428211e+01
  -9.538102e+01  -1.063570e+02
   3.508676e+00  -6.857712e+01
   7.366755e+01  -5.326599e+01
   4.953392e+01   2.711128e+01
  -1.390516e+01   2.286490e+01
  -1.028632e+02  -1.487236e+01
  -9.017209e+01  -9.947503e+01
   5.455771e+01  -4.596022e+01
   1.304626e+02  -4.655407e+01
   1.726352e+02   5.668468e+01
   2.469841e+01   5.191590e+01
  -6.607507e+01   7.533989e+01
  -3.331175e+01  -3.125600e+01
   6.446982e+01  -3.619729e+01
   6.738433e+01  -1.201052e+01
   3.629499e+01   1.033778e+02
  -6.143558e+01   1.260791e+02
  -1.002921e+02   3.341626e+01
  -7.669303e+01  -1.140729e+02
  -2.045983e+01  -1.718870e+02
   3.470258e+01  -1.222098e+02
   6.383484e+01   1.304360e+01
   3.920053e+01   9.980874e+01
   1.393426e+01   9.616873e+01
  -1.372133e+01  -2.151907e+01
  -3.178252e+01  -5.958477e+00
  -1.928802e+01  -3.425423e+01
  -1.935024e+01  -2.086864e+01
  -2.454304e+01   2.438015e+01
  -2.047097e+01  -7.020956e+01
  -2.444432e+00  -1.187051e+02
   6.371360e+01  -1.989684e+01
   1.048251e+02   8.527390e+01
   7.066061e+01   9.526783e+01
   1.383398e+01   5.046688e+01
  -5.148403e+01   4.409575e+00
  -5.594489e+01   1.912434e+01
  -1.653570e+01   1.119979e+01
   2.779880e+01  -4.185546e+01
   1.926091e+01  -2.862389e+01
  -2.109868e+01  -3.631605e+01
  -7.983001e+00  -1.997119e+00
   9.271044e+01  -4.106556e+00
   1.148107e+02   3.698623e+01
   3.670217e+01   9.585630e+01
  -9.416055e+01   8.271425e+01
  -1.223727e+02   3.358534e+01
  -9.318350e+01  -2.349303e+01
  -8.014350e-01  -1.450488e+02
   9.818467e+01  -1.242221e+02
   9.570657e+01  -9.824501e+01
   7.349195e+01   3.131044e+01
  -3.302188e+01   3.597956e+01
   9.572554e+00  -1.205947e+01
   1.259419e+01   4.693689e-01
   3.258562e+01   4.116211e+01
   2.837055e+00   7.285707e+01
  -2.331216e+01   4.962490e+01
  -4.992547e+01  -2.950056e+01
  -7.634593e+01  -8.973118e+01
  -2.971174e+01  -8.989523e+01
   2.008845e+01  -2.357334e+01
   1.189381e+02   6.804588e+01
   1.012472e+01   1.239817e+02
  -5.407657e+01   3.919724e+01
  -6.411342e+01  -1.106444e+01
  -4.656414e+01  -1.860163e+01
   4.300201e+01  -5.118532e+01
   6.046924e+01  -2.454800e+01
   3.630074e+01   3.563517e+01
  -6.244384e+01   1.210383e+01
  -2.940830e+01  -1.804469e+01
   4.602985e+01  -6.559631e+01
   1.180342e+02  -2.113280e+01
   7.040133e+01   4.881816e+01
  -2.612090e+01   5.803016e+01
  -4.959597e+01   6.465278e+01
  -3.356283e+01   2.867139e+01
   2.539757e+00  -5.459920e+01
   2.754850e+01  -5.429955e+01
   1.982181e+01  -2.241739e+01
   1.632946e+01   3.641988e+01
   1.460257e+01   1.043630e+01
  -6.146603e+00  -5.205175e+01
  -4.538966e+01   1.356101e+01
  -1.521247e+01  -2.038784e+01
  -1.069706e+01   1.786405e+01
  -1.495075e+01  -9.285915e+00
   1.102898e+01  -7.325223e+01
  -1.305646e+00  -2.666618e+01
   2.693762e+01  -1.218664e+01
   4.255360e+01   5.533776e+00
   1.050496e+01   3.364954e+01
  -7.206431e+01   7.120606e+00
  -4.841752e+01  -5.644162e+00
   4.066488e+00  -4.417315e+01
   4.231940e+01  -3.052796e+01
   4.907136e+01   2.489423e+01
  -5.620495e+00   4.937949e+01
  -2.949270e+01  -9.142929e+00
  -5.604401e+01   2.286081e+01
  -2.099726e+01   2.650060e+01
   1.857950e+01   5.005398e+00
   7.105308e+01   2.003057e+01
  -3.910950e+01  -1.637885e+01
  -8.988800e+01  -2.350261e+00
