
 $NMID
 id='ANONYMOUS ', fmtdat='(2E16.6)'
 volume=1.0
 tramp=1.0
 $END
   2.294450e+03  -7.364768e+01
   1.441017e+03   1.300652e+03
  -1.803246e+02   1.193990e+03
  -5.927508e+02   3.791876e+02
  -4.179583e+02  -1.801279e+02
   5.300432e+00  -5.966394e+00
   4.642296e+02   3.135484e+02
  -1.426127e+02   3.711913e+02
  -2.711313e+02   3.143833e+02
  -4.303696e+02  -1.021802e+02
  -1.430001e+02  -4.071910e+02
   2.966930e+01  -4.351932e+02
   1.830962e+02  -2.416302e+00
   1.855216e+02   3.629128e+02
  -2.012844e+02   3.200296e+02
  -2.911015e+02  -7.437243e+00
  -1.665040e+02  -2.610572e+02
   1.487450e+02  -3.500537e+02
   3.128834e+02  -1.159625e+02
   2.282671e+02   1.753470e+02
   1.668224e+01   2.345080e+02
  -9.518037e+01   1.279181e+02
  -7.237996e+01   1.630013e+01
   9.715344e+01  -9.708158e+00
   2.543998e+02   1.722972e+02
   8.144592e+01   3.589360e+02
  -4.001746e+02   1.568361e+02
  -4.227416e+02  -2.122306e+02
  -1.573801e+02  -2.642442e+02
   2.225920e+02  -1.262694e+02
   2.801304e+02   1.423718e+02
   2.072063e+02   3.163335e+02
  -1.695172e+02   2.745980e+02
  -2.222652e+02   8.047638e+01
  -2.656285e+02  -1.674178e+02
  -6.251619e+00  -1.974223e+02
   9.223879e+01  -4.027778e+01
  -6.736874e+01   1.176690e+02
  -1.667555e+02   2.357164e+02
  -8.126535e+01  -6.198052e+01
   8.985011e+00  -3.517184e+02
   2.280773e+02  -4.205162e+02
   1.658385e+02   3.180430e+01
   1.050872e+02   2.370236e+02
  -9.861294e+01   9.721791e+01
  -9.476176e+01  -1.960502e+02
   7.529655e+01  -2.205423e+02
   3.027620e+02   3.399369e+01
   2.942651e+02   2.131931e+02
   1.147057e+01   3.374968e+02
  -1.986761e+02   9.095603e+01
  -3.279007e+02  -4.791765e+01
  -1.579871e+02  -2.558241e+02
   8.376655e+01  -1.669388e+02
   1.088332e+02  -3.095040e+01
   8.879620e+01   6.513665e+01
  -3.515155e+01   1.148893e+01
  -5.272769e+01  -9.777099e+01
   7.091540e+01  -3.639238e+01
   1.653501e+02   5.187486e+01
   8.520676e+01   1.325291e+02
  -1.623081e+02   1.190878e+02
  -1.821054e+02   5.202314e+01
  -1.336069e+02  -7.951177e+01
   1.795748e+01  -1.817233e+02
   1.177525e+02  -1.875991e+02
   2.140757e+02  -1.341098e+02
   1.653572e+02   1.274402e+02
   2.221662e+01   1.877057e+02
  -4.299485e+01   1.823714e+02
  -6.243737e+00   6.023477e+01
   2.211900e+01   4.654480e+01
  -8.271783e+01   1.123329e+02
  -1.571010e+02   7.320769e+01
  -1.494155e+02  -4.199774e+01
  -8.552422e+01  -2.176549e+02
   6.533799e+01  -9.891545e+01
   9.364879e+01   4.008324e+00
   7.256401e+01   1.260551e+02
  -5.801140e+00   1.552396e+02
  -1.506919e+02   5.304977e+01
  -1.965182e+02  -8.320140e+01
  -9.734256e+01  -1.667066e+02
   9.733340e+01  -2.331594e+02
   1.404318e+02  -5.897119e+01
   1.250225e+02  -6.502030e+01
   8.888516e+01  -3.228942e+01
   1.348088e+02  -1.864478e+01
   2.563336e+02   6.397822e+01
   2.030865e+02   1.847952e+02
  -3.538401e+01   2.784705e+02
  -2.689548e+02   1.717182e+02
  -3.084977e+02   9.354403e+01
  -1.907834e+02  -6.422345e+01
  -8.416412e+00  -1.510026e+02
   4.160531e+01  -1.025433e+02
   5.996628e+00  -3.693754e+01
  -7.675419e+01   3.784950e+01
  -1.128070e+02  -8.987762e+01
  -2.853937e+01  -1.119868e+02
   1.310108e+02  -8.681156e+00
   9.660728e+01   7.947604e+01
  -6.678821e+01   6.183920e+01
  -9.326528e+01   4.973043e-01
  -8.286138e+01  -1.697347e+02
   6.348052e+01  -2.077588e+02
   1.686734e+02  -1.283520e+02
   2.232605e+02  -5.263546e-01
   1.711443e+02   1.601786e+02
  -2.370199e+01   2.076648e+02
  -5.656785e+01   8.100417e+01
  -7.238438e+01  -1.756359e-01
  -5.254255e+01  -2.506588e+00
   2.059737e+01   2.384518e+01
  -5.563975e+00   5.165477e+01
  -1.164125e+02   4.061550e+01
  -1.128416e+02  -2.975381e+01
  -3.020213e+01   2.463505e-01
   1.128611e+01  -3.754701e+01
   3.189620e+01   3.441600e+01
  -8.664768e+01   7.519924e+01
  -2.178248e+02   4.293379e-01
  -1.928921e+02  -1.445506e+02
   1.033422e+01  -1.764665e+02
   1.259234e+02  -1.847800e+02
   1.562392e+02  -5.592094e+01
   1.090465e+02   7.440912e+00
   9.013970e+00   6.709077e+01
  -4.746939e+01  -2.482954e+00
  -3.387084e+00  -5.616860e+01
   1.102796e+02  -2.838585e+01
   1.207752e+02   9.042414e+01
   5.380321e+01   1.554288e+02
  -5.537212e+01   6.838743e+01
  -9.090829e+01  -2.954767e+01
  -4.246768e+01  -4.008501e+01
   3.361284e+01   2.515035e+01
   3.073817e+01   7.314946e+01
  -2.996773e+01   3.515932e+01
  -1.104652e+02   2.436927e+01
  -6.774794e+01  -9.249600e+01
   3.065542e+01  -1.177026e+02
   1.458527e+02  -6.749462e+01
   1.010852e+02   3.342597e+01
   6.004348e+01   7.096134e+01
  -4.435082e+01   5.185323e+01
  -6.518062e+01   2.025390e+01
  -2.616687e+01   2.814099e+01
  -1.769042e+00   1.664410e+00
  -2.787433e+01  -8.119133e+00
  -3.823116e+01  -2.514069e+01
  -1.022550e+02  -6.409066e+01
   2.251492e+01  -5.482270e+01
   8.347553e+01  -9.036100e+01
   1.360006e+02   2.088793e+01
   1.011815e+02   8.726159e+01
  -2.353010e+01   1.326794e+02
  -8.756527e+01   5.002119e+01
  -4.788579e+01   3.190842e+01
  -4.223208e+01  -9.232725e+00
  -2.219667e+00  -3.575218e+00
  -5.376489e+01   8.057633e+00
  -9.220637e+01  -2.048889e+01
  -4.186813e+01  -8.812409e+01
   4.594522e+01  -7.879795e+01
   8.510454e+01  -3.984328e+01
   4.573723e+01   6.647719e+01
   2.329212e+01   8.796436e+01
  -6.381967e+01   6.100226e+01
  -1.055363e+02  -2.124900e+01
  -2.159991e+01  -1.141404e+02
  -1.821062e+00  -1.279805e+02
   1.974785e+02  -4.267342e+01
   1.482897e+02   1.671615e+01
   6.395171e+01   3.891462e+01
  -1.916900e+00   8.558451e+01
  -5.162281e+01   4.992863e+01
  -5.089169e+01  -7.358886e+00
  -6.397173e+01   7.826846e+01
  -6.352687e+01   7.090686e+01
  -1.041444e+02   7.650630e+00
  -4.545496e+01  -8.035637e+01
   4.736141e+00  -1.192721e+02
   8.420746e+01  -1.267269e+02
   1.135092e+02   3.369708e+01
   1.847527e+01   7.300149e+01
  -1.003614e+01   1.503901e+02
  -5.701552e+01   4.719811e+01
  -4.589536e+01   5.992025e+00
  -2.632172e+01   2.151691e+01
  -2.083201e+01  -1.599544e+01
  -1.345679e+01   1.243860e+01
  -6.372793e+01  -4.866534e+01
  -1.803326e+01  -3.474078e+01
   6.782736e+01  -4.197683e+01
   1.203406e+02   5.132382e+00
   8.764170e+01   3.257152e+01
   2.314022e+01  -7.296963e+00
  -8.920372e+01   4.497180e+01
  -5.627871e+01  -2.077938e+01
   2.128354e+01  -4.658344e+01
   1.768193e+01  -4.354560e+01
   4.320467e+01   2.524873e+01
  -7.553651e+00   4.176166e+01
  -3.878298e+01   4.692466e+01
  -5.344570e+01   4.080044e+01
  -6.249072e+01  -2.751142e+00
  -3.872168e+01  -3.367539e+01
  -1.619957e+01   2.217523e+01
  -3.273132e+01  -2.646580e+01
   8.191406e+00  -6.839559e+01
   2.686421e+01  -1.115051e+02
   4.360494e+01  -1.363457e+02
   1.144887e+02  -4.262859e+01
   7.169404e+01   5.650271e+01
   5.709530e+00   3.844731e+01
  -6.398649e+01   3.400970e+01
  -2.590178e+01  -1.208916e+01
   4.967896e+01  -2.308805e+01
   6.103585e+01   5.844939e+01
   2.023593e+01   5.845601e+01
  -2.789140e+01   5.906695e+01
  -1.025566e+02  -6.854205e+00
  -9.373170e+01  -6.207427e+01
   1.340486e+01  -5.388372e+01
   7.467914e+01  -4.618089e+01
   1.778964e+01   3.223098e+01
  -3.182664e+01   1.730356e+01
  -6.659265e+01   1.009028e+01
  -4.346281e+01  -6.293346e+01
   5.920273e+01  -3.685105e+01
   6.283927e+01  -7.319582e+01
   4.951472e+01   5.596376e+01
   3.546017e+01   1.423956e+02
  -5.203801e+01   9.396936e+01
  -8.069920e+01   1.962317e+01
  -6.916707e+01  -7.429161e+01
  -2.192011e+01  -5.914153e+01
   2.778673e+01  -9.678653e+00
  -1.556812e+01   3.373657e+01
   2.071481e+00   1.657007e+01
  -9.365097e+00   1.417923e+01
   1.510825e+01  -1.889298e+01
   3.399055e+01   6.809808e+01
   1.388541e+01   8.141690e+01
  -5.928448e+01   3.949652e+01
  -8.833423e+01   6.755802e+00
  -8.113367e+01  -3.519231e+01
  -3.318909e+01  -2.141061e+00
   5.835814e+01  -1.473809e+01
   7.045477e+01  -4.119889e+00
  -3.516374e+00  -5.675849e-01
  -9.380153e+00   2.349262e+01
  -4.226444e+01   2.731440e+01
   4.374291e-01   5.956141e+00
   1.634733e+01   3.566032e+01
  -4.729759e+01   1.086202e+01
  -7.260780e+01  -4.872418e+01
   1.468975e+01  -4.007644e+01
   7.877992e+01  -2.455553e+01
   1.575497e+02  -5.718010e+01
   8.235629e+01   6.075618e+00
  -1.091021e+01   9.535231e+01
  -3.984232e+01   7.806391e+01
  -8.755875e+01   5.588252e+01
  -3.682368e+01  -2.296901e+00
   5.566921e+00  -3.137048e+01
   1.310117e+01  -1.529036e+01
   1.629042e+01  -2.133311e+01
  -6.476050e+00  -7.244437e+00
   8.820101e+00  -2.082209e+01
   3.054310e+01  -6.423378e+01
   2.614850e+01  -1.758622e+01
   3.766705e+01   1.280800e+02
   4.855611e+01   7.439244e+01
  -5.825081e+01   4.763887e+00
  -5.496025e+01  -4.353700e+01
   8.361062e+00  -5.541399e+01
   4.486921e+01  -1.750027e+01
   6.644413e+01  -4.923576e+00
   3.484051e+01   4.962859e+01
  -1.444631e+01   5.380170e+01
  -2.862714e+01  -1.182123e+01
   3.040741e+01  -1.202113e+01
   3.343119e+01   2.879256e+01
  -2.478172e+01   5.044676e+01
  -4.754315e+01   3.681023e+01
  -6.019316e+01   4.979426e+01
  -7.433258e+01  -1.706371e+01
  -1.149362e+01  -8.352440e+01
  -1.491536e+01  -5.859333e+01
   2.116567e+01  -2.984580e+01
  -2.338421e+01   5.024921e+01
   2.244137e+00   4.354533e+01
  -2.473086e+01  -1.813130e+01
  -5.612330e+01  -4.137492e+01
  -2.621818e+01  -8.119402e+00
   1.549177e+01  -2.862725e+01
   5.542048e+00   2.272174e+01
   2.027836e+01   4.690877e+00
  -1.034200e+00  -4.491622e+01
  -4.053765e+01   1.814192e+01
   1.138807e+01   1.868756e+01
  -1.252425e+01   3.801876e+01
  -8.766173e+00   9.247406e+00
  -3.979464e+01  -1.369873e+01
  -1.413638e+01  -5.345128e+01
   1.178633e+01  -2.577498e+01
   3.488034e+01   1.394184e+01
   3.152198e+01   4.747318e+01
  -7.465565e+00  -3.598349e+00
  -5.426049e+01  -5.073230e+00
  -6.066568e+01  -2.962406e+01
   6.711818e+01  -7.111205e+00
   1.875570e+01  -1.197902e+01
   2.423589e+01  -3.087470e+01
  -4.421261e+01   1.616833e+01
  -1.258649e+01  -2.264650e+01
   3.309212e+01   5.171428e+01
   1.760486e+01  -1.112797e+01
