
 $NMID
 id='ANONYMOUS ', fmtdat='(2E16.6)'
 volume=1.0
 tramp=1.0
 $END
   3.354882e+03   1.945284e+02
   1.925658e+03   2.037899e+03
  -5.217635e+02   2.200941e+03
  -1.688130e+03   5.577705e+02
  -7.804396e+02  -5.078488e+02
   5.107753e+02  -2.860941e+02
   7.935578e+02   3.648932e+02
  -1.388431e+02   1.028270e+03
  -7.602553e+02   8.135296e+02
  -7.114815e+02  -4.189991e+01
  -4.726415e+02  -7.201087e+02
   3.259151e+02  -7.762480e+02
   5.325461e+02  -9.339168e-01
   2.758381e+02   6.900005e+02
  -2.564509e+02   6.947227e+02
  -5.635400e+02  -1.572503e+01
  -2.710328e+02  -5.458746e+02
   2.202358e+02  -4.203407e+02
   4.586983e+02   6.893058e+01
   2.886641e+02   3.711677e+02
   5.733824e+00   3.751407e+02
  -2.103592e+02   1.860259e+02
  -1.220832e+02  -4.360268e+00
   1.480286e+02  -6.025149e+01
   3.096573e+02   5.791378e+01
   1.365426e+02   3.014613e+02
  -3.470689e+02   3.458763e+02
  -6.450867e+02  -1.713870e+01
  -3.516749e+02  -4.474163e+02
   3.437862e+02  -4.067005e+02
   6.915289e+02  -4.824083e+01
   2.975303e+02   3.213085e+02
  -2.990247e+02   3.899313e+02
  -5.417091e+02   1.127096e+02
  -2.836574e+02  -2.075301e+02
  -3.011961e+01  -4.597508e+02
   1.527468e+02  -2.300302e+02
   1.610778e+02   2.374911e+02
  -2.337537e+02   3.902426e+02
  -3.794580e+02  -1.230141e+02
  -2.935945e+02  -6.629846e+02
   3.068609e+02  -5.034980e+02
   5.807073e+02   6.567743e+01
   2.777071e+02   4.430565e+02
  -2.831522e+02   3.106523e+02
  -4.002417e+02  -2.366237e+02
   7.788204e+01  -4.540296e+02
   4.838658e+02  -8.653455e+01
   4.885480e+02   4.937475e+02
   1.624975e+02   3.779779e+02
  -3.668360e+02   3.216331e+02
  -5.047650e+02  -4.179992e+01
  -3.334083e+02  -3.099818e+02
   1.516072e+02  -3.044726e+02
   3.775410e+02  -5.752005e+01
   1.622721e+02   1.805377e+02
  -6.036195e+01   1.169001e+02
  -1.072726e+02  -1.334781e+02
   1.482989e+02  -1.164269e+02
   2.858550e+02   2.734489e+01
   1.324356e+02   2.806543e+02
  -1.421304e+02   2.251777e+02
  -2.446988e+02   6.094941e+01
  -1.939812e+02  -9.330514e-01
   5.703387e+00  -1.699187e+02
   1.618014e+02  -2.555793e+02
   2.825714e+02  -1.746877e+02
   2.308055e+02   1.026272e+02
   1.140435e+02   3.877230e+02
  -9.000418e+01   3.248543e+02
  -1.074382e+02   4.725521e+01
  -2.824639e+01   2.877429e+01
   2.518512e+01   1.251139e+02
  -1.081841e+02   1.553594e+02
  -1.827398e+02  -1.520333e+01
  -1.875265e+02  -1.277638e+02
   4.201833e+01  -2.099089e+02
   1.706268e+02  -4.769679e+01
   1.796659e+02   1.230204e+02
  -2.361975e+01   2.281912e+02
  -2.784237e+02   7.069359e+01
  -3.412968e+02  -2.003369e+02
  -1.878965e+02  -2.973774e+02
   1.165015e+02  -2.159095e+02
   1.986401e+02  -1.347816e+02
   7.442730e+01  -1.413721e+00
   6.811887e+01   1.760080e+01
   1.765852e+02  -1.001137e+02
   3.069388e+02   1.043514e+02
   2.555295e+02   2.011040e+02
   2.723801e+01   4.024928e+02
  -2.915628e+02   3.791260e+02
  -4.501268e+02   2.221817e+02
  -2.947356e+02  -5.806827e+01
  -3.330315e+01  -2.155617e+02
   1.211383e+02  -1.854603e+02
   4.307417e+01   8.004668e+00
  -9.577959e+01   7.024505e+01
  -1.658800e+02   3.231168e+01
  -3.475644e+01  -1.354966e+02
   1.110351e+02  -1.758649e+02
   1.307794e+02   8.154404e+01
  -1.967152e+01   1.989567e+02
  -1.635962e+02   2.373927e+01
  -1.422939e+02  -2.256207e+02
   2.686043e+01  -2.685257e+02
   1.801471e+02  -1.682198e+02
   2.980227e+02   1.344469e+01
   2.501942e+02   2.150792e+02
   7.638615e+01   2.000064e+02
  -8.252365e+01   1.147289e+02
  -1.786129e+02  -2.121375e+00
  -1.739213e+01  -1.068181e+01
   6.844259e+01   2.461147e+01
   2.898941e+01   7.213243e+01
  -4.884972e+01   7.322736e+01
  -1.318994e+02  -9.905239e+00
  -9.180928e+01  -3.114946e+01
   8.010800e+01   1.610665e+01
   7.943910e+01   5.869807e+01
  -1.253854e+02   5.691501e+01
  -2.384138e+02   3.287908e+01
  -1.975444e+02  -9.793942e+01
  -5.801153e+01  -2.068212e+02
   1.660686e+02  -2.281374e+02
   2.873560e+02  -9.169146e+01
   1.428059e+02   7.673840e+01
   2.236043e+01   9.914712e+01
  -6.255229e+01   3.538296e+01
   6.334251e+01  -1.147982e+02
   1.888983e+02  -7.074250e+01
   1.636954e+02   4.990799e+01
   2.792647e+01   1.534426e+02
  -8.335793e+01   9.678932e+01
  -1.362720e+02   2.511853e+01
  -4.506926e+01  -2.224781e+01
   1.766448e+01  -3.767871e+01
   4.454260e+01   6.072759e+01
  -6.112342e+01   1.197454e+02
  -1.517469e+02   3.853290e+01
  -1.576461e+02  -8.857922e+01
   8.993071e+00  -1.663331e+02
   1.316707e+02  -7.148532e+01
   1.735357e+02   2.467963e+01
   9.145397e+01   1.209234e+02
  -6.942076e+01   8.397884e+01
  -5.592513e+01   1.000973e+01
   2.032112e+01  -3.085256e+01
  -3.470400e+00   1.229497e+01
  -2.882218e+00  -6.667787e+00
  -3.764993e+01  -4.316795e+01
  -8.747613e+01  -8.887085e+01
  -2.224157e+01  -1.340978e+02
   8.694521e+01  -1.024792e+02
   1.828070e+02  -2.860868e+01
   1.873044e+02   6.498078e+01
   3.958631e+01   1.826399e+02
  -1.040021e+02   1.391305e+02
  -1.555919e+02   4.602144e+01
  -4.022490e+01  -3.361341e+01
  -1.485925e+01  -3.447414e+01
  -2.597726e+01   7.910914e+00
  -1.398412e+02   6.250747e+00
  -6.949598e+01  -4.895180e+01
   7.876111e+00  -5.544883e+01
   8.305063e+00  -2.168596e+01
   7.463002e+01   2.753784e+01
  -2.385443e+01   1.084047e+02
  -1.196088e+02   5.411655e+01
  -1.592910e+02  -8.771335e+00
  -7.429753e+01  -9.471529e+01
   5.952315e+01  -1.620680e+02
   2.053690e+02  -1.140861e+02
   2.353891e+02   9.608747e+01
   3.722744e+01   1.301242e+02
  -1.046492e+01   1.106873e+02
  -7.804756e+01   9.102650e+01
  -4.312653e+01   8.458112e+01
  -5.734682e+01   6.271706e+01
  -1.034563e+02   6.093373e+01
  -6.454298e+01  -5.005961e+01
  -9.828719e+01  -1.271801e+02
  -2.330329e+01  -1.741723e+02
   8.925726e+01  -1.623404e+02
   1.274712e+02   2.519560e+01
   1.054604e+02   7.802323e+01
   4.245376e+01   1.192999e+02
  -5.609882e+01   4.732392e+01
  -8.800715e+01   1.367511e-01
   5.055412e+00  -7.168527e+01
  -7.958330e+00   5.246895e+00
  -3.533623e+01  -1.885779e+00
  -1.619493e+01  -1.315319e+01
  -3.468794e+00  -3.495401e+01
   2.547724e+01  -1.370711e+01
   1.539540e+02  -2.598333e+01
   1.246760e+02   2.517496e+01
   3.186836e+01   1.305699e+02
  -1.038835e+02   7.794327e+01
  -1.233292e+02   6.227266e+00
  -6.151210e+01  -4.855711e+00
   7.365457e+01  -4.665806e+01
   6.532810e+01   2.705538e+01
   1.109561e+01   5.726687e+01
  -4.735233e+01   6.556646e+01
  -4.261837e+01  -2.400147e+01
  -6.661921e+01   1.139151e+01
  -7.250136e+01  -2.239318e+00
  -6.957246e+01   1.792868e+01
  -1.467312e+01  -5.350471e+01
  -4.372103e+01  -3.444356e+01
   5.478505e+01  -1.175763e+02
   1.133768e+02  -1.447536e+02
   1.631797e+02  -2.393461e+01
   1.496714e+02   6.966709e+01
  -8.606355e+00   1.104851e+02
  -5.790126e+01   3.973112e+01
  -3.858184e+01  -1.259252e+00
  -4.126671e+00  -2.754681e+01
   8.660554e+01   3.835909e+01
   9.282248e+01   6.759082e+01
  -5.007689e+01   9.995818e+01
  -1.473267e+02   2.218023e+01
  -1.391230e+02  -9.422512e-01
  -1.101927e+01  -4.960655e+01
   9.161849e+01  -6.870744e+01
   5.984174e+01  -3.179891e+01
  -2.463948e+01   3.030633e+01
  -9.727722e+01  -2.245948e+00
  -2.852636e-01  -9.677572e+01
   5.548045e+01  -1.183858e+02
   1.117873e+02  -3.119152e+01
   1.194150e+02   1.197536e+02
  -4.004608e+01   1.834719e+02
  -5.195097e+01   8.512662e+01
  -8.350081e+01  -1.080314e+01
  -2.122384e+01  -9.061373e+01
  -1.645845e+00  -8.070979e+01
   1.570715e+01  -2.885136e+01
   5.506254e+01   6.412625e+01
   4.806532e+01   1.791702e+01
   7.059485e-02   1.085657e+01
   1.304010e+01  -1.079233e+01
   6.414302e+01   9.717023e+01
   3.229822e+01   1.080125e+02
  -3.658160e+01   6.704038e+01
  -1.158076e+02  -1.476953e+01
  -1.047184e+02  -5.962950e+01
  -3.465123e+00  -2.322932e+01
   5.215682e+01  -3.377364e+00
   7.680632e+01  -3.152843e+01
  -3.194949e+01   4.196020e+01
  -4.202400e+01   1.100712e+00
   9.693904e+00   2.529762e+01
   1.483300e+01  -3.268070e+01
  -1.329635e+01   1.476565e+01
  -3.941506e+01  -1.608499e+01
  -6.386045e+01  -3.654108e+01
   5.972830e+00  -8.983466e+01
   1.042744e+02  -7.570430e+01
   1.441668e+02  -4.566357e+01
   1.081315e+02   5.019853e+01
   3.472864e+01   9.909346e+01
  -2.434049e+01   1.075228e+02
  -8.659393e+01   4.942158e+01
  -5.134989e+01  -5.244910e+01
   2.489334e+01  -5.322171e+00
  -2.973116e+00   7.154541e+00
  -4.954253e+01   6.339221e+00
  -3.472894e+01  -2.541032e+01
   4.866434e+00  -7.732018e+01
   3.589628e+01  -8.868878e+01
   6.391762e+01   8.129093e+00
   8.152852e+01   9.876461e+01
  -2.362490e+01   9.466810e+01
  -5.581390e+01   1.677818e+01
  -9.941731e+01  -2.921113e+01
  -4.628975e+01  -8.288118e+01
   6.073757e+01  -5.705430e+01
   8.308628e+01   2.435419e+01
  -3.440211e+00   4.879315e+01
  -2.083622e+01   6.223709e+01
   9.460435e+00   3.456988e+01
   1.898546e+01   7.509994e+00
   6.664493e+01   5.592354e+00
   4.326299e+01   5.168379e+00
  -6.112947e+01   9.161886e+00
  -4.045254e+01   5.730994e+01
  -4.335275e+01  -2.902266e+01
  -2.068832e+01  -7.265894e+01
   3.023014e+01  -1.071369e+02
   6.545068e+00  -3.705136e+01
  -2.921677e+01   8.087566e+01
  -4.211002e+01   1.667576e+01
  -4.975971e+01  -1.047545e+01
  -1.240505e+01  -2.871346e+01
  -2.909887e+01  -4.408824e+01
   2.677926e+00  -6.547799e-01
  -3.966970e+00  -3.398262e+01
   1.582534e+01  -3.740749e+01
   1.878635e+01  -6.614089e+00
   1.855876e+01   1.530840e+01
   2.002724e+01   4.597982e+01
  -1.227463e+01   1.910308e+01
  -9.966184e+00  -4.512627e+00
  -3.455919e+01  -7.029649e+01
   1.638305e+01  -2.125222e+01
   6.157091e+01   2.735522e+00
   8.074633e+01   2.971700e+01
   2.805752e+01   4.591323e+01
  -6.064565e+01   2.216397e+01
  -1.174500e+02   1.289625e+01
  -4.294658e+01  -7.273016e+01
   4.250349e+01   2.137212e+00
   7.362366e+01  -2.847252e+01
   8.346361e+01   3.307457e+00
  -2.538910e+01  -2.719456e+01
  -4.362011e+01  -3.942881e+00
   3.004085e+01  -2.695851e+01
   7.227071e+01  -1.950823e+01
