
 $NMID
 id='ANONYMOUS ', fmtdat='(2E16.6)'
 volume=1.0
 tramp=1.0
 $END
   3.390615e+03   4.860610e+02
   1.951200e+03   1.933448e+03
  -1.287225e+02   1.858411e+03
  -1.161096e+03   5.588993e+02
  -8.740319e+02   6.226897e+01
   4.305396e+02   5.496743e+01
   4.610676e+02   1.439978e+02
   4.255682e+01   6.638145e+02
  -5.981587e+02   7.374195e+02
  -5.509518e+02  -3.343322e+01
  -3.360259e+02  -5.583687e+02
   1.385011e+02  -6.863014e+02
   2.651623e+02  -5.511136e+01
   2.313244e+02   5.411952e+02
  -1.493057e+02   4.458718e+02
  -4.481496e+02   6.364404e+01
  -3.092889e+02  -4.126559e+02
   1.675594e+02  -5.369206e+02
   4.558448e+02  -1.475724e+02
   3.483373e+02   2.268603e+02
   3.675268e+01   3.283857e+02
  -1.515017e+02   2.415099e+02
  -9.304028e+01  -2.905202e+01
   1.625986e+02   3.357723e+01
   3.017776e+02   2.041429e+02
  -3.968998e+01   3.165254e+02
  -4.125564e+02   8.900842e+01
  -6.368678e+02  -9.085889e+01
  -3.134661e+02  -3.484309e+02
   3.959400e+02  -2.947335e+02
   5.206430e+02   8.055972e+00
   2.148180e+02   3.302606e+02
  -3.273732e+02   2.249792e+02
  -4.524914e+02   4.901552e+01
  -2.484717e+02  -2.011840e+02
  -1.989372e+01  -3.399476e+02
   1.144815e+02  -1.822980e+02
   4.291619e+01   1.093877e+02
  -2.127236e+02   1.118782e+02
  -3.503571e+02  -1.772686e+02
  -1.983924e+02  -5.501324e+02
   3.200246e+02  -4.680656e+02
   5.120660e+02   7.805940e+01
   1.174510e+02   1.904439e+02
  -2.197357e+02   2.084054e+02
  -3.232524e+02  -2.305165e+02
   1.265680e+02  -3.565950e+02
   3.333985e+02  -1.094299e+02
   4.046659e+02   4.310223e+02
   1.153422e+02   3.787099e+02
  -3.126567e+02   2.454720e+02
  -4.457502e+02  -5.739005e+01
  -3.065516e+02  -2.446750e+02
   7.035616e+01  -2.243010e+02
   3.496801e+02  -3.687036e+01
   1.800421e+02   6.251654e+01
  -4.493201e+01   8.089143e+00
  -5.908557e+01  -8.284806e+01
   1.009232e+02  -1.627596e+02
   2.246648e+02   5.648295e+01
   1.440517e+02   2.168458e+02
  -1.517270e+02   2.284395e+02
  -3.115665e+02   8.665819e+01
  -2.162427e+02  -9.358936e+01
   1.303472e+01  -2.630154e+02
   2.370828e+02  -3.022291e+02
   3.139683e+02  -1.045940e+02
   2.523249e+02   1.479357e+02
   6.676240e+01   3.412738e+02
  -2.992589e+01   2.941356e+02
  -5.972215e+01   6.756148e+01
   2.096473e+01   5.070121e+01
  -6.230656e+01   5.103656e+01
  -1.761348e+02   5.257753e+01
  -2.335639e+02  -6.354070e+01
  -1.267995e+02  -1.810046e+02
   1.320586e+02  -1.706994e+02
   1.988174e+02   3.794648e+01
   1.294964e+02   1.882396e+02
  -6.016281e+01   2.273269e+02
  -2.348115e+02   2.784548e+01
  -2.954781e+02  -1.171684e+02
  -1.559976e+02  -2.692013e+02
   1.242529e+02  -2.594661e+02
   1.543360e+02  -6.130577e+01
   1.047385e+02  -5.407660e+01
   1.487870e+02  -3.484002e+01
   2.306506e+02  -6.908453e+01
   3.867593e+02   1.493816e+02
   2.896078e+02   2.088543e+02
   5.986442e+00   3.751511e+02
  -3.163384e+02   3.595941e+02
  -4.342608e+02   1.398882e+02
  -2.446720e+02  -1.826492e+02
  -5.818962e+01  -2.134150e+02
   7.726966e+01  -1.853486e+02
   2.291725e+01  -6.070162e+01
  -8.569702e+01   2.124377e+01
  -1.368523e+02  -2.162659e+01
  -2.052424e+01  -1.541962e+02
   9.258462e+01  -2.071221e+02
   9.017481e+01   6.127835e+01
  -1.699937e+01   1.557035e+02
  -1.412896e+02  -2.492133e+01
  -1.094070e+02  -2.389278e+02
   4.781238e+01  -2.923199e+02
   2.844844e+02  -1.325622e+02
   3.024532e+02   2.312233e+01
   2.036461e+02   2.353465e+02
   7.417528e+01   2.265425e+02
  -1.008628e+02   1.442871e+02
  -1.555871e+02   4.701288e+01
  -1.798166e+01  -9.606326e+00
   6.121593e+01   6.466026e+01
   2.783304e+01   9.625548e+01
  -1.272580e+02   8.188460e+01
  -1.162453e+02  -1.062162e+01
  -2.885506e+01  -1.767762e+01
   8.504622e+01   1.423465e+01
   3.470275e-01   8.028369e+01
  -1.203638e+02   3.128536e+01
  -2.636292e+02  -1.414179e+01
  -2.276853e+02  -1.345396e+02
  -1.639909e+01  -2.289383e+02
   2.193020e+02  -1.969328e+02
   2.201123e+02  -1.140298e+02
   9.166579e+01   4.170860e+01
  -5.814564e+01   9.545074e+01
  -7.427086e+01  -6.460680e+01
   6.094203e+01  -5.836534e+01
   1.582512e+02  -1.541430e+01
   1.565438e+02   9.524212e+01
   3.508298e+01   1.876254e+02
  -1.267956e+02   1.436229e+02
  -1.324810e+02   1.210043e+01
  -4.125987e+01  -5.501662e+01
   1.212324e+01   3.157381e+01
  -5.177021e+00   9.722326e+01
  -5.762691e+01   8.947072e+01
  -1.608217e+02  -3.167788e+01
  -1.135861e+02  -9.687264e+01
   4.311529e+00  -1.977576e+02
   1.278503e+02  -5.165381e+01
   1.790338e+02   1.145306e+00
   5.943551e+01   8.596544e+01
  -8.443631e+01   3.671509e+01
  -3.026620e+01   9.584281e-01
   5.585551e+01  -3.773484e+01
   1.026935e+02  -2.281559e+01
   4.765528e+00  -4.598158e+00
  -1.053623e+02   6.479424e+00
  -6.058259e+01  -4.114246e+01
  -3.351120e+01  -1.221942e+02
   1.432980e+02  -1.152627e+02
   1.959619e+02  -2.006641e+01
   1.655813e+02   1.942600e+02
   4.921685e+01   2.445532e+02
  -1.196814e+02   1.074462e+02
  -1.212647e+02   5.137884e+01
  -1.134395e+02  -2.920497e+01
   2.202334e+01  -4.751357e+00
  -5.503028e+01  -6.942913e-02
  -9.123409e+01  -8.866171e+00
  -2.255037e+00  -3.160447e+01
  -1.817082e+01  -7.925628e+01
   1.172681e+02  -2.477147e+01
   9.566754e+01   3.519694e+01
  -4.640023e+01   7.995098e+01
  -1.140097e+02   7.983814e+01
  -2.163619e+02  -2.389743e+01
  -7.957259e+01  -1.546849e+02
   1.255246e+02  -1.419297e+02
   2.118764e+02  -1.067680e+02
   2.431795e+02   9.919712e+01
   7.448005e+01   1.313615e+02
  -1.562342e+01   9.894606e+01
  -1.077451e+02   6.271790e+01
  -8.111322e+01   5.357769e+01
  -5.334582e+01   1.127469e+02
  -4.704489e+01   3.909353e+01
  -1.004894e+02  -5.372156e+01
  -1.165650e+02  -1.133138e+02
  -3.661510e+00  -1.962970e+02
   7.822928e+01  -1.226811e+02
   1.672885e+02  -3.212057e+01
   9.230417e+01   1.194536e+02
  -3.023100e+01   1.463746e+02
  -6.238329e+01   5.570251e+01
  -5.850304e+01   8.455311e+00
   2.992663e+01  -2.276516e+01
   6.312829e+01   1.174751e+01
  -3.381763e+00   1.279123e+01
  -6.010259e+01  -1.994770e+01
  -7.682495e+01  -4.556230e+01
   9.547087e+01  -6.102625e+01
   1.824593e+02  -6.915842e+00
   1.627047e+02   4.766304e+01
  -3.658017e+01   1.147861e+02
  -9.122568e+01   3.288006e+01
  -1.004384e+02   1.988462e+00
  -6.096946e+01  -6.884264e+01
   6.411952e+01  -4.717244e+01
   5.669648e+01   1.204991e+01
   3.280274e+01   7.962660e+01
  -4.376160e+01   3.227743e+01
  -3.966458e+01  -1.785958e+01
  -2.812131e+01  -5.754682e+01
  -2.400380e+01  -7.253007e+01
  -7.625969e+01   5.030482e+00
  -6.339816e+01   2.569269e+01
  -6.131764e+01  -3.624585e+01
   2.655761e+01  -1.254534e+02
   1.095203e+02  -1.072482e+02
   9.349294e+01  -2.481499e+01
   1.131175e+02   7.072063e+01
  -2.712249e+00   1.238671e+02
  -7.473771e+01   6.382800e+01
  -6.418898e+01  -3.244253e+00
   4.901660e+01   5.903939e+00
   7.362512e+01   5.686501e+01
   5.628365e+01   1.044352e+02
  -6.198620e+01   1.253898e+02
  -1.622309e+02   1.599348e+01
  -1.075105e+02  -3.763928e+01
  -4.181741e+01  -6.046406e+01
   6.052493e+01  -9.178295e+01
   3.493505e+01   1.560035e+01
  -6.202098e+01   7.994080e+01
  -6.182376e+01  -4.431613e+01
  -2.703414e+01  -1.034945e+02
   4.616212e+01  -1.635000e+02
   1.391418e+02  -5.709404e+01
   9.592415e+01   6.800487e+01
   2.194854e+01   1.748660e+02
  -1.219211e+02   1.188831e+02
  -7.840580e+01  -2.270870e+01
  -4.861958e+01  -1.133232e+02
   9.851637e+00  -8.988597e+01
   2.929678e+01  -2.221369e+01
   1.997022e+01   4.609531e+01
   3.574060e+00  -4.237088e+00
   2.334659e+01  -1.657397e+01
   2.549189e+00   1.951239e+01
   1.363304e+01   3.921420e+01
   1.895492e+01   1.194194e+02
  -3.564326e+01   7.173155e+00
  -1.419870e+02  -3.144023e+01
  -1.044549e+02  -6.623108e+01
  -1.078385e+01  -1.310566e+01
   8.464513e+01  -7.218327e+00
   8.802645e+01  -4.888309e+01
   1.719403e+01  -1.714831e+01
  -1.850104e+01   2.727380e+01
  -9.297880e+00   1.133073e+01
  -4.219794e+00   5.933516e+01
  -2.587754e+00   1.753600e+00
  -7.877236e+01  -5.789206e+01
  -8.116246e+01  -3.019331e+01
  -1.381963e+01  -4.883021e+01
   1.124029e+02  -8.609580e+01
   1.713934e+02  -4.493918e+01
   1.443856e+02   5.962079e+01
   2.808432e+01   2.071201e+02
  -6.679496e+01   1.346189e+02
  -1.167665e+02   6.123696e+01
  -9.253292e+01  -2.312202e+01
   1.545958e+01  -5.013984e+01
   3.907017e+01  -3.755357e+01
   1.800061e+00   9.644034e-01
  -3.384148e+00  -4.470562e+01
  -2.803155e+00  -8.735849e+01
  -2.305300e+01  -4.949386e+01
   7.547643e+01  -1.313589e+01
   6.222781e+01   5.577782e+01
   2.209039e+01   4.475579e+01
  -7.556231e+01   5.568740e+01
  -1.319014e+02  -6.009534e+01
  -4.049543e+01  -1.438355e+02
   8.013857e+01  -3.365098e+01
   7.031328e+01   3.690021e+01
   1.132030e-01   7.933752e+01
   2.923196e+01   7.367651e+01
  -2.458764e+01   2.061273e+01
   2.886132e+01  -7.614861e+00
   5.797414e+01  -6.828582e+00
   1.136708e+01   1.161856e+01
  -5.237982e+01   1.338255e+01
  -1.712316e+02   4.642283e+01
  -2.323851e+01  -4.282687e+01
  -2.755206e+01  -4.834680e+01
   7.012335e+01  -3.311639e+01
   2.897868e+01  -2.297725e+01
   1.535957e+01   5.152488e+01
  -6.383823e+01   5.689851e+01
  -5.491886e+01   5.187031e+00
  -1.427111e+01  -2.209444e+01
   1.202767e+01  -3.768514e+01
   3.048820e+01  -7.954411e+00
   2.993960e+01  -1.535829e+01
   9.254265e+00   1.633569e+01
  -2.430968e-01  -2.376167e+01
  -1.917509e+01  -3.182921e+00
   2.970665e+01   3.329342e+01
  -2.636952e+01   6.183748e+01
  -1.763138e+01   1.509155e+01
  -2.088500e+01  -3.025036e+01
   9.230300e+00  -5.519763e+01
   3.713535e+01   5.067887e+00
   1.908434e+01   1.351960e+01
   3.920158e+01   5.288701e+01
  -3.116151e+01   3.345211e+01
  -7.545940e+01   1.652583e+00
  -3.121517e+01  -4.171025e+01
   2.287888e+01  -7.681371e+01
   6.241519e+01  -1.601865e+01
   1.158070e+01   2.321247e+00
  -9.676081e+00  -2.778281e+00
  -7.129230e+01  -1.962253e+01
  -6.899893e+00  -4.994875e+01
   4.540887e+01  -1.433801e+00
