
 $NMID
 id='ANONYMOUS ', fmtdat='(2E16.6)'
 volume=1.0
 tramp=1.0
 $END
   2.798674e+03   1.665664e+02
   1.968261e+03   1.400712e+03
  -3.381685e+02   1.914548e+03
  -1.188196e+03   8.667944e+02
  -8.021905e+02  -5.648328e+01
  -1.232378e+02   7.506714e+00
   3.864228e+02   2.201235e+02
  -2.661164e+01   6.967531e+02
  -6.299780e+02   5.818088e+02
  -6.681042e+02   7.644089e+01
  -4.247752e+02  -4.296783e+02
   1.685356e+02  -7.351984e+02
   3.669552e+02  -1.154933e+02
   1.953860e+02   5.429483e+02
  -4.536841e+01   6.456867e+02
  -4.736523e+02   2.581411e+01
  -2.798614e+02  -5.190053e+02
   2.031055e+02  -5.026151e+02
   4.579873e+02  -1.826093e+02
   3.668454e+02   1.694855e+02
   1.151471e+02   3.573498e+02
  -1.585493e+02   2.335849e+02
  -1.082787e+02   3.311929e+01
   1.878297e+02   5.287659e+01
   3.240372e+02   1.903324e+02
   5.133427e+01   3.291332e+02
  -4.222688e+02   1.196554e+02
  -6.413653e+02  -3.032995e+02
  -2.921971e+02  -3.768555e+02
   2.676377e+02  -2.359557e+02
   5.909299e+02   5.898207e+01
   2.138743e+02   3.930635e+02
  -2.894883e+02   3.894337e+02
  -4.776156e+02   2.204334e+02
  -3.855310e+02  -1.127855e+02
  -1.547600e+02  -3.559730e+02
   8.105798e+01  -1.643584e+02
   6.483404e+00   1.318594e+02
  -1.029463e+02   1.512865e+02
  -2.387613e+02  -7.134349e+01
   6.280230e+00  -5.482427e+02
   1.944156e+02  -3.573923e+02
   4.088507e+02  -3.486472e+01
   2.700226e+02   4.207136e+02
  -2.102727e+02   2.226466e+02
  -2.230074e+02  -2.958521e+02
   1.176992e+02  -3.694216e+02
   4.439186e+02  -5.927617e+01
   4.751999e+02   2.684803e+02
   2.573560e+02   4.717377e+02
  -2.807750e+02   2.433705e+02
  -4.432393e+02  -5.174693e+01
  -3.755860e+02  -3.118343e+02
   9.985310e+01  -2.710099e+02
   3.529302e+02  -7.861655e+01
   1.734549e+02   7.073464e+01
   2.493982e+01   8.148069e+01
  -1.111602e+02  -1.315251e+02
   1.317205e+02  -1.240811e+02
   2.438254e+02   2.321930e+01
   1.389108e+02   1.714360e+02
  -1.228630e+02   2.127936e+02
  -2.566256e+02   1.173326e+02
  -2.524871e+02  -4.372583e+01
  -1.160450e+01  -2.770107e+02
   2.318600e+02  -3.213831e+02
   3.686130e+02  -1.654282e+02
   2.893804e+02   1.241257e+02
   6.722963e+01   3.487089e+02
  -6.493897e+01   3.361560e+02
  -3.805362e+01   1.296046e+02
  -1.941122e+01   9.690734e+01
  -1.064546e+02   7.119641e+01
  -1.726441e+02   1.228680e+02
  -2.657995e+02  -1.058324e+02
  -8.232806e+01  -2.343902e+02
   7.779008e+01  -2.068637e+02
   1.879419e+02  -5.273233e+00
   1.649047e+02   2.290961e+02
  -1.917305e+01   2.365035e+02
  -2.519829e+02   5.713439e+01
  -3.092282e+02  -1.299074e+02
  -1.722115e+02  -2.897805e+02
   3.835702e+01  -2.397241e+02
   1.633986e+02  -1.247120e+02
   1.236703e+02  -1.712401e+01
   1.207002e+02  -4.721515e+01
   2.316146e+02  -3.458341e+01
   3.145174e+02   6.188847e+01
   2.364863e+02   3.148317e+02
  -4.046295e+01   3.738729e+02
  -2.863025e+02   3.734971e+02
  -4.293535e+02   1.821522e+02
  -3.294722e+02  -8.295210e+01
  -2.808119e+01  -2.541221e+02
   1.424352e+02  -2.090782e+02
  -5.743008e-01  -5.950823e+01
  -1.140980e+02   3.692638e+01
  -1.515242e+02  -1.922584e+01
  -7.429751e+00  -1.601288e+02
   1.544777e+02  -1.049927e+02
   1.019988e+02   9.447938e+01
  -1.448049e+00   1.294712e+02
  -1.513876e+02   2.293670e+01
  -1.330995e+02  -2.214596e+02
   3.905041e+01  -3.494943e+02
   1.949572e+02  -1.556186e+02
   3.410413e+02   9.257774e+01
   2.939057e+02   2.369473e+02
   2.875052e+01   2.423457e+02
  -1.356599e+02   1.360366e+02
  -1.217709e+02  -1.490833e+01
  -4.188651e+01  -2.014473e+01
   7.139002e+01   1.883544e+01
  -3.175313e+01   1.252667e+02
  -1.628965e+02   8.106388e+01
  -1.205879e+02   1.227591e+01
  -3.517821e+01  -6.560319e+01
   5.833549e+01  -2.565164e+01
   1.869601e+01   1.058307e+02
  -1.009163e+02   6.825028e+01
  -1.755410e+02  -3.926302e+01
  -2.746872e+02  -1.260499e+02
  -6.154257e+01  -3.166145e+02
   1.719025e+02  -1.845011e+02
   3.046227e+02  -1.182605e+02
   1.199535e+02   7.266064e+01
  -4.185099e+01   5.315987e+01
  -4.768518e+01  -1.395548e+01
   1.249576e+01  -6.541435e+01
   1.345911e+02  -4.226798e+01
   1.806325e+02   1.010351e+02
   4.989495e+01   1.781660e+02
  -8.743191e+01   1.121053e+02
  -1.115356e+02   2.203184e+01
  -2.839651e+01  -1.428311e+01
   2.023306e+01  -7.951031e+00
   1.313576e+01   8.061088e+01
  -7.237494e+01   1.069846e+02
  -1.499068e+02  -1.742939e+01
  -2.237704e+02  -1.145981e+02
  -4.575027e+01  -1.779691e+02
   1.036017e+02  -1.393256e+02
   1.573829e+02   1.613552e-01
   4.795966e+01   1.078221e+02
  -6.369273e+01   1.159015e+02
  -1.023101e+02   5.624820e+01
  -5.630479e+00  -4.125984e+01
   3.456428e+01  -3.057736e+01
  -6.914596e+00   9.408036e+00
  -8.654183e+01   6.281803e+01
  -1.120309e+02  -5.613595e+01
   1.096685e+01  -1.910039e+02
   1.038202e+02  -1.686037e+02
   2.448241e+02  -3.112285e+01
   1.680790e+02   1.400151e+02
   3.313046e+01   2.332442e+02
  -1.345794e+02   1.354696e+02
  -7.427947e+01  -2.097671e+01
  -7.283846e+01  -1.437372e+01
  -1.071235e+01  -3.088417e+01
  -4.863198e+01   3.751940e+01
  -9.635839e+01   4.202627e+01
  -4.958418e+01  -7.528515e+01
   8.869093e+00  -9.651746e+01
   8.545628e+01  -6.529654e+01
   9.534830e+01   4.912743e+01
  -2.255630e+01   1.040588e+02
  -1.443782e+02   8.149713e+01
  -1.808143e+02  -4.580659e+01
  -8.689873e+01  -1.922938e+02
   6.474536e+01  -1.606701e+02
   1.920342e+02  -3.255925e+01
   2.064953e+02   5.234783e+01
   8.674707e+01   1.452196e+02
  -2.813524e+01   1.651529e+02
  -6.321906e+01   5.388480e+01
  -7.636254e+01   5.643451e+01
  -4.723225e+01   8.510044e+01
  -3.877124e+01   5.510510e+01
  -9.369295e+01  -1.038767e+01
  -1.038779e+02  -1.214455e+02
  -4.100935e+01  -2.519005e+02
   3.948859e+01  -1.493834e+02
   1.664833e+02  -4.344403e+01
   1.596324e+02   1.012662e+02
   3.026628e+01   1.128519e+02
  -1.016821e+02   9.039422e+01
  -8.408718e+01  -1.225469e+01
   2.603271e+01  -3.142693e+01
   5.538579e+01  -2.267220e+01
  -4.678514e+01  -4.488873e+01
  -1.242938e+02  -2.032153e+01
  -9.616687e+01  -4.906241e+01
   4.207666e+01  -1.001785e+02
   1.848364e+02   1.853120e+01
   1.446744e+02   1.026879e+01
   8.490176e+00   7.638054e+01
  -1.258477e+02   4.494299e+01
  -1.234811e+02   5.185768e+01
  -4.091743e+01  -1.662640e+01
   5.621518e+01  -4.550034e+01
   5.522736e+01   2.555907e+01
  -5.197937e+00   5.574349e+01
  -5.996550e+01   7.581349e+01
  -8.468945e+01  -1.800339e+01
  -4.805616e+01  -2.835970e+01
  -4.839548e+01  -5.214559e+01
  -8.261763e+01  -7.601591e+00
  -3.126827e+01   8.731074e+00
  -3.877374e+01  -5.548991e+01
   5.424688e+01  -1.288520e+02
   1.361967e+02  -1.396554e+02
   1.770776e+02  -3.614845e+01
   1.555014e+02   6.381432e+01
   4.578417e+01   1.039876e+02
  -1.113129e+02   2.935106e+01
  -3.385571e+01   4.490664e+00
   6.075425e+01   1.144781e+01
   9.199437e+01   3.830964e+01
   4.997393e+01   1.160182e+02
  -6.698761e+01   1.038889e+02
  -1.959966e+02   4.082548e+00
  -1.522490e+02  -3.235839e+01
  -7.816621e+00  -5.311231e+01
   4.917209e+01  -9.850562e+01
   4.542193e+01   1.738328e+01
  -5.808581e+01   3.184378e+01
  -9.182907e+01  -2.761364e+01
  -3.197441e+00  -1.262948e+02
   8.415588e+01  -1.260857e+02
   1.914933e+02  -5.436899e+01
   1.331310e+02   6.412962e+01
  -9.428075e-01   1.375846e+02
  -8.023484e+01   9.696764e+01
  -7.824204e+01   1.389195e+01
  -3.167292e+01  -8.934504e+01
   1.577516e+00  -7.627876e+01
   3.573985e+01   4.223914e+00
   3.347629e+01  -5.378728e+00
   6.093351e+01   2.907116e+01
   1.885451e+01  -5.791786e+00
   4.469893e+01  -1.445997e+01
   4.757939e+01   8.401878e+01
   1.877778e+01   8.084416e+01
  -5.365018e+01   5.982939e+00
  -1.353515e+02  -2.072802e+01
  -1.366889e+02  -5.087197e+01
  -2.035458e-01  -7.298936e+01
   6.303291e+01  -7.993268e+00
   9.292850e+01  -4.034672e+01
   2.631068e+01   1.477282e+01
  -3.513881e+01  -2.951043e+00
  -7.202560e+00  -7.815085e+00
   2.675547e+01   1.818939e+01
   9.108058e+00  -2.754769e+01
  -7.643582e+01   2.333765e+01
  -1.271751e+02  -5.714348e+01
  -1.230753e+01  -7.294321e+01
   8.460174e+01  -8.406726e+01
   1.733951e+02  -7.421001e+01
   1.330609e+02   7.074570e+01
   1.527085e+01   1.270809e+02
  -7.701163e+01   1.273886e+02
  -5.783905e+01   3.179050e+01
  -7.310393e+01  -7.055283e+01
  -3.387784e+01  -6.430037e+01
  -1.368506e-01  -1.064599e+01
   9.494318e+00  -3.104607e+01
  -2.794014e+01  -3.178145e+01
  -5.116630e+01  -8.957379e+01
   4.981739e+01  -1.730032e+01
   8.807966e+01   2.785857e+01
   3.859814e+01   9.570434e+01
  -2.325044e+01   1.114317e+02
  -7.203542e+01   1.979429e+01
  -7.761640e+01  -7.570909e+01
  -3.329149e+01  -7.786095e+01
   3.236999e+01  -6.945982e+01
   9.798579e+01   7.700150e-01
   4.157184e+01   8.081890e+01
  -2.175407e+01   1.701628e+01
  -9.914936e+01   2.852327e+01
  -9.499833e+00  -3.113472e+01
   5.706874e+01  -2.190468e+01
   2.320702e+01   2.450688e+01
  -6.346047e+01   3.517302e+01
  -1.229588e+02   6.408610e+01
  -6.214636e+01  -3.130175e+01
  -4.193379e+01  -7.726880e+01
   4.774902e+01  -5.039632e+01
   8.007224e+01  -1.012258e+01
   3.906133e+01   6.444520e+01
  -2.142845e+01   4.932320e+01
  -4.492177e+01  -1.324631e+01
  -1.435705e+01  -7.873922e+01
  -8.127478e+00  -3.443827e+01
   3.967241e+01   4.159543e+00
   7.716356e+01   2.287554e+01
   1.303523e+01  -1.487619e+01
  -2.729419e+01  -4.462187e+01
  -1.040338e+01   1.428699e+01
  -3.354334e+01   4.943834e+01
   1.678856e+00   3.163999e+01
  -3.714915e+01   6.028770e-01
  -2.206817e+01  -3.019686e+01
   1.899219e+01  -7.956385e+01
   2.542118e+01  -5.450454e+01
   8.281997e+01   8.785480e+00
   2.546089e+01   1.567693e+01
  -7.663426e+01   8.637224e+01
  -8.288719e+01  -5.241558e+00
  -3.390240e+01  -5.909450e+01
   6.221328e+01  -5.177441e+01
   6.083306e+01  -3.755958e+01
   1.141146e+01  -6.435871e-01
  -9.525011e+00  -8.246269e+00
  -2.797620e+01  -7.764106e+00
   2.712681e+01  -7.104460e-01
   6.769161e+01   3.780471e+01
