
 $NMID
 id='ANONYMOUS ', fmtdat='(2E16.6)'
 volume=1.0
 tramp=1.0
 $END
   3.679479e+03  -3.695271e+02
   2.425416e+03   1.905358e+03
  -4.206237e+01   1.759514e+03
  -1.413917e+03   1.548154e+03
  -8.504737e+02   9.665503e+01
   9.223571e+01  -4.834552e+02
   4.456691e+02   3.700104e+01
   2.522498e+01   6.899015e+02
  -5.369040e+02   5.739516e+02
  -7.228608e+02   8.953231e+01
  -4.888331e+02  -5.840337e+02
   1.647062e+01  -7.846995e+02
   4.035451e+02  -1.595627e+02
   3.425147e+02   4.085561e+02
  -1.812938e+02   6.132981e+02
  -3.889116e+02   8.411171e+01
  -2.797148e+02  -5.581590e+02
   9.347858e+01  -6.430207e+02
   4.986433e+02  -3.306827e+02
   4.523773e+02   1.583623e+02
   1.003021e+02   3.156652e+02
  -9.464782e+01   2.004045e+02
  -4.410250e+01   9.730694e+01
   1.370547e+02   7.257795e+01
   3.095739e+02   1.744166e+02
   5.655832e+01   3.192350e+02
  -4.115251e+02   2.689311e+02
  -4.935237e+02  -9.241961e+01
  -3.271094e+02  -3.896432e+02
   3.133929e+02  -2.741583e+02
   5.643374e+02   9.877196e+01
   2.692908e+02   4.416504e+02
  -1.582375e+02   5.108043e+02
  -5.356724e+02   2.879214e+02
  -3.464316e+02  -1.019155e+02
  -1.114039e+02  -4.276065e+02
  -9.269978e+00  -3.032219e+02
  -3.144590e+01   1.116434e+02
  -1.668510e+02   2.819403e+02
  -3.595042e+02   4.295652e+01
  -2.030359e+02  -5.388597e+02
   2.878158e+02  -6.567423e+02
   4.227642e+02  -6.882579e+01
   1.723388e+02   4.025214e+02
  -1.681635e+02   2.859018e+02
  -2.484735e+02  -2.523330e+02
   7.399725e+01  -3.790118e+02
   4.805715e+02  -7.022967e+01
   6.579849e+02   2.687014e+02
   1.618111e+02   6.008075e+02
  -2.183030e+02   3.193049e+02
  -5.505369e+02  -5.585356e+00
  -2.709593e+02  -2.317930e+02
  -1.953339e+01  -2.456803e+02
   3.507146e+02  -1.201213e+02
   2.319879e+02   7.062893e+01
  -1.230066e+01   1.390547e+02
  -5.902671e+01  -7.845544e+01
   6.816807e+01  -1.374809e+02
   2.094313e+02   3.339563e+01
   1.047423e+02   2.367862e+02
  -1.730135e+02   2.475699e+02
  -2.882882e+02   1.113503e+02
  -2.357458e+02  -5.453924e+01
   3.086372e+01  -2.630630e+02
   2.525828e+02  -3.925001e+02
   3.176852e+02  -1.437695e+02
   2.377357e+02   8.661450e+01
   3.607065e+01   3.064310e+02
  -2.939758e+01   3.173889e+02
  -6.176234e+00   1.851943e+02
  -1.673241e+01   5.047267e+01
  -7.572019e+01   4.713357e+01
  -2.240920e+02   6.778607e+01
  -1.961146e+02  -1.009805e+02
  -1.303535e+02  -2.350670e+02
   5.246981e+01  -2.145738e+02
   2.070720e+02   1.114140e+01
   1.552556e+02   2.344142e+02
   4.349387e+01   2.558281e+02
  -2.229241e+02   6.712757e+01
  -3.400835e+02  -1.353256e+02
  -1.491649e+02  -3.169754e+02
   1.485290e+01  -2.192215e+02
   1.386141e+02  -1.506294e+02
   1.393521e+02  -6.783403e+01
   1.116498e+02  -1.112126e+02
   2.829789e+02  -8.226607e+01
   4.141290e+02  -7.767371e+00
   3.180600e+02   2.315874e+02
   5.069063e+01   3.852143e+02
  -3.081367e+02   5.116881e+02
  -3.597971e+02   9.994253e+01
  -2.489490e+02  -1.151923e+02
  -2.289907e+01  -2.532883e+02
   1.110820e+02  -2.413536e+02
   3.773385e+01  -2.768616e+01
  -9.015285e+01   7.391301e+01
  -1.810140e+02  -1.911300e+01
  -6.511718e+01  -1.450341e+02
   1.358312e+02  -1.311105e+02
   1.372114e+02   2.445202e+01
  -8.044136e+01   1.676114e+02
  -1.563663e+02   4.798896e+01
  -9.263460e+01  -1.704849e+02
   3.950806e+01  -3.315197e+02
   1.911194e+02  -2.724485e+02
   3.418684e+02   4.871836e+01
   2.659155e+02   2.261752e+02
   1.037860e+02   2.562017e+02
  -1.350626e+02   2.026476e+02
  -1.324102e+02   1.337997e+01
  -5.246758e+01  -1.829344e+01
   7.179115e+01   5.361482e+01
   5.135844e+01   1.052483e+02
  -1.428944e+02   7.213802e+01
  -1.841332e+02   1.881163e+01
  -1.400310e+01  -7.815692e+01
   1.001448e+02   1.555757e+01
   5.209969e+01   6.490350e+01
  -1.195986e+02   6.363917e+01
  -2.580576e+02   5.799213e+01
  -2.766972e+02  -1.050595e+02
  -5.180265e+01  -2.127092e+02
   1.558087e+02  -2.291527e+02
   2.067120e+02  -1.015902e+02
   1.615985e+02   1.771622e+01
  -2.117342e+01   7.199592e+01
  -1.028804e+02  -5.431567e+00
   4.269565e+01  -8.973053e+01
   1.217583e+02  -9.950252e+00
   1.734842e+02   8.253853e+01
   6.350293e+01   1.515307e+02
  -8.350158e+01   1.439220e+02
  -1.197621e+02   4.522082e+01
  -9.480863e+01  -4.332232e+01
   4.402816e+01   3.033596e+01
   6.140220e+00   4.598506e+01
  -1.282125e+02   9.562390e+01
  -1.796105e+02   6.382812e+01
  -2.012455e+02  -1.531794e+02
  -6.466662e+01  -2.099556e+02
   1.048058e+02  -1.766690e+02
   1.450291e+02  -3.183067e+01
   6.134912e+01   1.114212e+02
  -4.681563e+01   9.759697e+01
  -6.065418e+01   3.200610e+01
   8.244286e+00  -2.558458e+01
   1.313198e+01  -4.145478e+00
   9.867779e+00   4.649277e+00
  -9.939068e+01  -1.006321e+01
  -8.561384e+01  -6.863334e+01
  -1.416675e+01  -1.212896e+02
   8.717591e+01  -1.552805e+02
   2.384468e+02  -2.245514e+01
   1.949593e+02   1.398625e+02
   4.418709e+01   1.914594e+02
  -7.387771e+01   1.641181e+02
  -1.148100e+02   3.927757e+01
  -6.651401e+01  -3.068759e+01
  -4.039540e+01  -1.885140e+01
  -4.623903e+01   3.013534e+01
  -3.720562e+01   4.615798e+01
  -5.380619e+01  -5.263749e+01
   4.106677e+01  -3.867282e+01
   1.123320e+02  -3.680232e+01
   1.277215e+02   2.645095e+01
  -1.951988e+01   8.350120e+01
  -1.341696e+02   8.662720e+01
  -2.124169e+02  -4.078196e+01
  -7.920424e+01  -1.760439e+02
   1.310759e+02  -2.100348e+02
   2.605559e+02  -1.334835e+02
   2.350251e+02   7.786699e+01
   1.162557e+02   1.753341e+02
  -4.048078e+01   1.488840e+02
  -9.583088e+01   7.845244e+01
  -5.001353e+01   5.593827e+01
  -5.283063e+01   8.062360e+01
  -5.835988e+01   5.929072e+01
  -1.392125e+02   1.574997e+01
  -6.819902e+01  -1.049014e+02
  -5.310268e+01  -1.778642e+02
   1.166829e+02  -1.502603e+02
   1.951840e+02  -2.643588e+01
   1.388383e+02   1.124363e+02
   6.813154e+01   1.381821e+02
  -3.951480e+01   8.869881e+01
  -2.562199e+01   3.651099e+00
   2.723803e+01  -2.662837e+01
   2.407813e+01  -3.605321e+01
  -7.430790e-01   1.495886e+01
  -9.225782e+01  -5.117465e+00
  -5.053212e+01  -3.097254e+01
   8.772585e+01  -6.896093e-01
   1.673778e+02   1.885284e+01
   1.263171e+02   4.364474e+01
   1.946458e+00   1.074248e+02
  -1.474802e+02   9.458435e+01
  -1.280119e+02  -3.732079e+01
  -4.098480e+01  -2.607736e+01
   3.346037e+01  -5.528944e+01
   7.553887e+01   1.465383e+01
   2.355328e+01   8.031838e+01
  -9.620565e+01   9.396582e+01
  -7.113894e+01  -3.107612e+01
  -2.490256e+01  -2.422849e+01
  -9.587423e+01  -5.351404e+01
  -1.260098e+01   3.347177e+00
  -5.441245e+01   1.904778e+00
  -7.899784e+01  -2.248902e+01
  -5.388131e+01  -1.254051e+02
   1.169554e+02  -1.340595e+02
   1.719704e+02  -5.324894e+01
   1.344015e+02   8.652946e+01
   1.847101e+01   1.068660e+02
  -1.150683e+02   7.062229e+01
  -1.203756e+01  -8.615425e+00
   1.169953e+01  -1.600819e+01
   1.408163e+02   3.905530e+01
   9.634063e+01   5.489828e+01
  -6.329155e+01   1.015622e+02
  -1.238230e+02   4.750623e+01
  -1.659224e+02  -8.562175e+00
  -2.798424e+01  -4.126050e+01
   1.058690e+02  -8.602788e+01
   4.681865e+01  -1.645411e+01
  -3.858654e+01   3.139078e+01
  -1.080009e+02  -3.167509e+01
  -5.509160e+01  -1.055007e+02
   8.339007e+01  -1.639790e+02
   1.654758e+02  -7.069985e+01
   1.309242e+02   7.463785e+01
   3.398606e+01   1.801606e+02
  -5.454288e+01   1.355871e+02
  -1.138887e+02  -4.455679e+01
  -6.195922e+01  -7.486705e+01
   1.855514e+01  -1.362782e+02
   3.665149e+01  -1.174173e+01
   5.813525e+01   5.227063e+01
  -1.696748e+01   5.432028e+01
   2.342390e+01  -1.834393e+01
   5.151529e+01   3.185261e+01
   6.305937e+01   8.420221e+01
   8.266032e+01   9.975706e+01
   4.789784e-01   4.025030e+01
  -1.383642e+02  -1.508665e+01
  -1.439199e+02  -8.167559e+01
  -1.733143e+01  -8.065575e+01
   7.450813e+01  -1.244255e+01
   7.696286e+01   8.970069e+00
  -2.494495e-02   9.701838e-01
  -5.114122e+01  -1.429060e+01
  -1.585931e+01   2.512190e+01
  -3.490217e+00   1.138671e+01
  -1.698785e+01  -5.612138e+00
  -8.533481e+01   6.953149e+00
  -8.505691e+01  -3.898718e+01
  -2.193076e+01  -6.196021e+01
   8.785352e+01  -8.220976e+01
   1.614314e+02  -9.730509e+01
   1.252264e+02   2.742232e+01
   6.125890e+01   1.431399e+02
  -5.121821e+01   1.233142e+02
  -1.013207e+02  -1.729817e+01
  -8.922627e+01   1.660307e+01
  -5.297376e+00  -4.554555e+01
  -3.759373e+00   2.750140e+01
   3.591533e-01   1.492140e+01
  -2.390377e+01  -4.360151e+01
  -4.568954e+01  -9.504303e+01
  -5.467065e+00  -5.725617e+01
   6.542888e+01  -7.209701e+00
   5.437496e+01   9.074358e+01
   7.917965e+01   9.173227e+01
  -4.591969e+01   1.354371e+01
  -1.174712e+02  -1.013000e+02
   8.221276e-01  -7.209282e+01
   3.942663e+01  -6.540134e+01
   8.686513e+01  -5.416649e+01
   4.681238e+01   2.009099e+01
  -2.253182e+01   6.296744e+01
  -2.868070e+01   5.828684e+01
   2.543017e+00   4.831661e+01
   2.863382e+01   6.239372e+00
   9.358817e+00   1.253511e+01
  -3.979559e+01   7.325421e+01
  -9.268209e+01   1.072041e+02
  -7.090000e+01  -2.777432e+01
   1.267678e+01  -8.550152e+01
   2.873615e+01  -9.196137e+01
   1.709559e+01  -1.855283e+01
   3.374635e+01   4.507335e+01
   1.493326e+01   6.716857e+01
  -3.404252e+01   1.614596e+01
  -1.813352e+01  -4.971555e+00
   1.827180e+00  -9.414607e+01
   2.114364e+01  -1.858080e+01
   6.464043e+01   8.216172e+00
  -5.543871e+01   1.527522e+01
  -1.379728e+01   1.203118e+01
  -3.498885e+00  -1.223192e+01
   9.841766e+00   3.164534e+01
  -2.625443e+01   1.484807e+00
  -6.357121e+00   2.054342e+01
  -2.231006e+01  -3.379965e+01
  -4.947141e+00  -6.532818e+01
  -1.230467e+00  -3.780345e+01
   3.668310e+01   2.978389e+01
   3.670904e+01   3.628667e+01
  -5.947315e+01   5.104152e+01
  -5.996240e+01   4.406155e+00
  -3.085722e+01   9.021675e-02
   1.292737e+01  -6.261072e+01
   9.844898e+01  -4.200772e+01
   4.058518e+01  -3.192012e+01
  -2.181441e+01  -3.581938e+00
  -2.163291e+01   2.593398e+00
   6.766067e+01  -2.596541e+01
   5.265189e+01  -1.302929e+01
