
 $NMID
 id='ANONYMOUS ', fmtdat='(2E16.6)'
 volume=1.0
 tramp=1.0
 $END
   3.425591e+03  -1.747584e+02
   1.693371e+03   1.302846e+03
  -7.920666e+01   1.936314e+03
  -1.353694e+03   6.015764e+02
  -5.845326e+02  -3.196643e+02
   4.859782e+02  -4.415578e+02
   4.429343e+02   1.146039e+02
  -1.812944e+01   6.674023e+02
  -4.376629e+02   4.456164e+02
  -6.556414e+02  -9.948801e+01
  -3.131555e+02  -3.193633e+02
   1.849684e+02  -5.786087e+02
   3.642815e+02  -1.145723e+02
   2.724667e+02   4.930139e+02
  -1.183360e+02   5.218390e+02
  -3.586623e+02   3.304774e+01
  -1.706784e+02  -3.370237e+02
   1.523082e+02  -5.071111e+02
   3.078948e+02  -4.826054e+01
   2.769381e+02   1.647440e+02
   3.773504e+01   2.357267e+02
  -9.502303e+01   2.237302e+02
  -1.116435e+02   2.693868e+01
   6.867886e+01   2.932010e+01
   2.864936e+02   1.254701e+02
   1.779510e+02   1.854545e+02
  -3.126900e+02   2.949157e+02
  -5.216069e+02   8.233278e+01
  -1.662708e+02  -2.967913e+02
   1.294295e+02  -3.539536e+02
   4.237158e+02  -1.243766e+01
   2.648438e+02   2.813744e+02
  -1.685885e+02   3.650058e+02
  -3.608324e+02   8.863252e+01
  -2.831205e+02  -1.562009e+02
  -5.924006e+01  -2.725712e+02
   4.058744e+01  -2.138884e+02
   9.124547e+01   4.341577e+01
  -4.301338e+01   2.446674e+02
  -3.300663e+02  -6.347689e+01
  -2.076434e+02  -3.904741e+02
   1.993571e+02  -3.857272e+02
   3.445489e+02  -1.704178e+01
   1.678705e+02   2.434468e+02
  -1.361754e+02   2.321839e+02
  -3.035198e+02  -1.150497e+02
  -6.095310e+01  -2.533610e+02
   3.471391e+02  -1.165025e+02
   3.732244e+02   3.821931e+02
   1.638122e+02   3.677694e+02
  -2.725315e+02   2.464948e+02
  -3.976209e+02  -9.445401e+01
  -1.915188e+02  -1.857989e+02
  -1.458863e+01  -2.489621e+02
   1.610685e+02  -1.040605e+02
   1.089798e+02   9.054283e+01
  -8.116276e+01   1.928889e+01
  -5.337798e+01  -8.597951e+01
   5.522801e+01  -1.023660e+02
   2.016713e+02   1.989763e+01
   8.807890e+01   1.743384e+02
  -1.240303e+02   2.059470e+02
  -2.287860e+02   3.673145e+01
  -1.207735e+02   1.139038e+01
   3.925192e+01  -1.241163e+02
   1.152835e+02  -2.060786e+02
   1.384120e+02  -2.221046e+02
   1.697799e+02   7.876861e+01
   5.426865e+01   2.640884e+02
  -1.019442e+02   2.283266e+02
  -4.558017e+01   8.808708e+01
  -6.604427e+01  -3.303282e+01
   6.716931e+00   2.359484e+01
  -1.066851e+02   1.059229e+02
  -1.548589e+02  -6.179869e+01
  -1.184285e+02  -1.311862e+02
   8.126635e+01  -1.690341e+02
   1.124697e+02   5.099912e+00
   1.257018e+02   1.488746e+02
   2.310140e+01   2.015616e+02
  -1.910196e+02   1.154665e+02
  -2.354103e+02  -9.576008e+01
  -1.336013e+02  -1.599064e+02
   3.654265e+01  -1.925531e+02
   1.404190e+02  -6.668604e+01
   1.490774e+02  -3.085881e+01
   6.813041e+01   3.196034e-01
   1.456136e+02  -6.148228e+01
   2.415596e+02  -4.887877e+01
   2.016190e+02   1.569218e+02
   1.754131e+01   2.612569e+02
  -2.345393e+02   2.633941e+02
  -2.723424e+02   1.413620e+02
  -2.314887e+02  -2.556112e+01
  -2.344871e+01  -1.695296e+02
   4.928924e+01  -9.173856e+01
   4.401136e+01  -2.314698e+01
  -8.739900e+01   8.148245e+01
  -9.633677e+01  -8.383948e+00
  -1.194286e+01  -1.027324e+02
   6.299553e+01  -1.373300e+02
   1.156573e+02   5.991369e+01
  -1.230554e+01   1.119464e+02
  -9.516423e+01   1.259958e+01
  -9.278562e+01  -1.297321e+02
   3.879954e+01  -2.012809e+02
   1.593955e+02  -1.927136e+02
   1.926632e+02   3.333791e+01
   1.245341e+02   1.677611e+02
   2.763526e+01   1.611044e+02
  -5.090607e+01   1.104593e+02
  -1.066993e+02  -5.154098e+00
  -5.391887e+01  -8.534171e+00
   5.804373e+01   1.082692e+01
   5.681233e+01   8.679209e+01
  -4.061451e+01   2.528962e+01
  -9.650894e+01   4.835860e+00
  -7.077341e+01  -5.159164e+01
   8.314949e+01   2.700990e+00
   2.512947e+01   7.660611e+01
  -6.412003e+01   3.278227e+01
  -1.662749e+02   4.619899e+01
  -1.235927e+02  -1.232011e+02
  -3.101386e+01  -1.539561e+02
   1.329550e+02  -1.734666e+02
   1.465191e+02  -8.218266e+01
   6.572823e+01   1.664239e+01
  -1.605606e+01   4.805427e+01
  -1.432414e+01   6.534402e+00
   3.751472e+00  -8.150671e+01
   1.334674e+02  -5.676802e+01
   1.324609e+02   5.671527e+01
   1.821459e+01   9.543666e+01
   3.261594e+01   1.173280e+02
  -8.019263e+01   6.583315e+00
   3.849042e+01  -2.014013e+01
   2.234566e+01   1.821642e+01
   4.060208e+01   5.580514e+01
  -6.633201e+01   6.559462e+01
  -1.661149e+02   3.647177e+01
  -1.250367e+02  -5.986469e+01
   1.941824e-01  -1.313100e+02
   1.111856e+02  -1.195167e+02
   1.014297e+02  -3.945270e+01
   5.884112e+01   4.495845e+01
  -3.947443e+01   5.812458e+01
  -1.673035e+01   4.207854e+01
  -2.392461e+01  -5.156032e+01
  -2.137171e+01  -5.429757e+01
  -9.180049e+00   1.109016e+01
  -7.602567e+01  -4.367020e+01
  -4.013974e+01  -3.278262e+01
   3.708650e+00  -1.135292e+02
   5.637043e+01  -1.114925e+02
   1.228698e+02  -6.701409e+01
   1.927136e+02   1.441422e+02
   4.908709e+01   1.374027e+02
  -4.693502e+01   8.122481e+01
  -1.207549e+02   1.196010e+01
  -1.501440e+01  -4.748707e+01
  -1.391858e+01   1.553207e+01
  -3.957582e+01  -1.977080e+01
  -6.300490e+00   3.827794e+00
  -3.907295e+01  -9.235440e+00
  -1.129968e+01  -7.831001e+01
   7.165094e+01  -6.418973e+01
   3.239705e+01   3.821818e+01
  -2.536219e+01   1.159408e+02
  -7.060094e+01   5.780716e+01
  -8.515526e+01  -3.415267e+00
  -7.265504e+01  -1.588132e+02
   9.983191e+01  -1.712867e+02
   2.024823e+02  -1.017692e+02
   1.516385e+02   6.115093e+01
   6.978768e+01   1.181207e+02
  -2.051343e+01   5.101948e+01
  -5.666013e+01   6.810034e+01
  -2.594234e+01   3.845302e+01
  -5.218821e+01   7.393019e+01
  -4.968279e+01   4.515580e+01
  -1.044590e+02  -5.623720e+01
  -7.454562e+01  -8.171875e+01
  -5.345386e+01  -8.862799e+01
   8.397484e+01  -1.231207e+02
   1.021583e+02   2.340389e+01
   9.225494e+01   6.551034e+01
  -3.624803e+01   5.497242e+01
  -3.100545e+01   8.215333e+01
  -1.864879e+01  -1.987748e+00
  -6.121537e+00  -4.285354e+01
   2.347493e+01  -1.129386e+01
  -3.030957e+01   1.065443e+01
  -3.148842e+01  -4.421534e+01
  -1.387359e+01  -9.563688e+00
   6.763614e+00  -2.885591e+01
   9.083412e+01  -3.613298e+00
   1.021206e+02   3.003954e+01
  -2.500798e+01   4.456738e+00
  -3.029497e+01   6.440284e+01
  -6.613337e+01  -2.019456e+01
  -2.337021e+01  -2.576002e+01
   4.782878e+01  -6.736929e-01
   1.735122e+01  -2.322032e+01
   3.362062e+01   4.293458e+01
  -6.059502e+01   4.567404e+01
  -6.179031e+01   4.930414e+00
  -3.185933e+01  -6.523407e+00
  -8.346873e+00  -2.613844e+01
  -3.499790e+01   8.636089e+00
  -1.415768e+01   2.945525e+01
  -2.769707e+01  -2.473041e+01
   8.773003e+00  -1.182042e+02
   4.899649e+01  -9.089896e+01
   1.044219e+02  -1.129953e+01
   8.571112e+01   8.542041e+01
  -3.665141e+01   1.050909e+02
  -4.050207e+01   3.764253e+01
  -2.489984e+01  -6.209694e+00
   5.536340e+01  -8.529532e+00
   5.239317e+01   1.634166e+01
   4.459560e+01   4.070034e+01
  -4.859565e+01   1.074401e+02
  -1.184276e+02   7.372012e+01
  -1.205609e+02  -1.173182e+01
  -3.913753e+01  -7.997435e+01
   3.073352e+01  -2.582735e+01
   3.979989e+01   2.017339e+01
  -8.414845e+00   4.332473e+01
  -9.030310e+01  -2.716828e+00
  -2.894786e+01  -9.112598e+01
   5.463544e+01  -8.518260e+01
   7.893682e+01  -8.458632e+01
   1.135048e+02   6.168711e+01
   6.366461e-01   1.695797e+02
  -4.477270e+01   4.685319e+01
  -9.013233e+01  -1.308956e+00
  -6.016367e+01  -7.274818e+01
  -2.988384e+01  -6.141596e+01
   6.615269e+01  -3.613001e-02
   1.521341e+01   1.054335e+01
   2.075582e+01   1.024880e+01
   1.460663e-01  -3.363864e+01
  -4.989470e+00  -6.469918e+00
   5.397465e+01   1.660363e+01
   3.772414e+01   2.448878e+01
  -2.325241e+01   2.493089e+01
  -1.067476e+02   3.105289e+01
  -8.809560e+01  -1.640301e+00
  -1.488503e-01   1.632237e+01
   8.681549e+01  -9.008440e+00
   8.280154e+01   4.568416e+00
   1.259490e+01  -2.239499e+01
  -2.031733e+01   5.188906e+00
   2.475476e+01   1.281514e+01
   1.506016e+01   1.368986e+01
   6.140215e+00   3.707469e+01
  -4.200789e+01   2.889489e+01
  -7.656461e+01  -2.792737e+01
   4.238700e+00  -4.450299e+01
   7.484005e+01  -1.169218e+02
   1.023681e+02  -4.463230e+01
   5.609807e+01   8.834642e+00
   1.409145e+01   1.100986e+02
  -2.474321e+01   9.821665e+01
  -5.763392e+01   4.333440e+01
  -4.604394e+01  -1.070905e+01
   6.639410e+00   1.279552e+01
   3.294634e+01  -9.641069e+00
   3.292597e+01   4.444961e+01
  -2.129504e+01  -3.307536e+01
  -6.722877e+00  -2.965677e+01
   4.836142e+01  -3.629596e+01
   5.560798e+01   2.296349e+01
   6.851294e+01   4.486076e+01
   4.541393e+01   8.828479e+01
  -3.098704e+01   3.245234e+01
  -8.395176e+01  -4.635076e+00
  -4.274500e+01  -5.053015e+01
   5.934557e+01  -5.289092e+00
   7.137072e+01   1.299962e+01
   4.176373e+01  -6.125975e+00
  -7.044663e+01   5.137800e+01
  -4.225907e+01  -3.702496e+00
   2.205855e+01  -3.374258e+01
   3.859063e+01   8.164412e-01
  -4.296099e+00  -1.059289e+00
   4.209549e+01   1.720785e+01
  -6.901250e+01   3.729666e+01
  -2.742097e+01  -1.331102e+01
   4.825499e+01  -7.099579e+01
   3.543519e+01  -5.905258e+01
  -2.761543e+00  -2.009860e+01
   8.014790e+00   4.491559e+01
   1.633115e+01   1.993054e+01
  -6.942162e+00   4.392621e+00
  -1.545334e+01  -2.926169e+01
  -3.749984e+01  -3.133847e+01
   5.138591e+01   7.172807e+00
   6.526762e+01   2.611423e+01
  -1.399389e+01  -8.172114e+00
   1.765419e+01  -2.671838e+01
  -4.071625e+01  -3.098756e+01
  -4.070978e+01   8.804736e+00
  -1.463297e+01   3.322749e+01
  -1.124424e+01   2.426691e+01
  -1.752399e+01  -2.798566e+01
   5.909897e+01  -6.389415e+01
   2.578194e+01   1.721177e+01
   6.172199e+01   3.159456e+01
  -1.219826e+01   5.382166e+01
  -1.913877e+01   1.360260e+01
  -6.466862e+01   1.338602e+01
  -5.284730e+01  -4.813637e+01
   3.938824e+01  -3.413552e+01
   6.119447e+01  -1.850130e+01
   5.175162e+01  -2.905404e+01
  -1.554829e+01  -1.699654e+01
  -6.600537e+01  -2.394772e+01
  -1.786146e+01  -5.375686e+01
   5.581719e+01  -1.497375e+01
