
 $NMID
 id='ANONYMOUS ', fmtdat='(2E16.6)'
 volume=1.0
 tramp=1.0
 $END
  -3.746742e+03  -5.253856e+02
  -2.494124e+03  -2.258286e+03
   6.243417e+02  -2.765696e+03
   1.915083e+03  -7.578930e+02
   1.073676e+03   5.533209e+02
  -3.816785e+02   5.056562e+02
  -7.103388e+02  -2.581574e+02
   2.536843e+01  -1.086588e+03
   6.875625e+02  -7.170424e+02
   1.006910e+03   1.077951e+02
   3.275587e+02   7.038512e+02
  -2.459584e+02   8.492117e+02
  -5.685514e+02   1.826162e+02
  -3.420890e+02  -7.689993e+02
   3.384735e+02  -7.217529e+02
   5.188197e+02  -1.569189e+01
   3.071270e+02   6.508252e+02
  -3.323527e+02   5.479673e+02
  -5.646933e+02   4.585871e+01
  -4.161105e+02  -3.273271e+02
  -7.513962e+01  -4.118019e+02
   2.129100e+02  -3.043906e+02
   1.959551e+02  -1.246561e+01
  -1.645410e+02   1.865130e+01
  -3.451425e+02  -1.103626e+02
  -1.892141e+02  -3.851925e+02
   4.100032e+02  -1.987350e+02
   7.698039e+02   1.473938e+02
   4.298166e+02   5.649645e+02
  -3.568966e+02   4.441849e+02
  -7.568985e+02  -3.506577e+00
  -3.807257e+02  -4.729284e+02
   2.400610e+02  -5.237904e+02
   5.097758e+02  -2.328783e+02
   3.592299e+02   2.321266e+02
   1.018381e+02   4.902628e+02
  -1.818682e+02   2.742526e+02
  -1.443973e+02  -2.043319e+02
   1.237123e+02  -3.367692e+02
   3.448342e+02  -2.112013e+01
   2.447424e+02   6.906949e+02
  -2.239811e+02   6.301385e+02
  -6.030844e+02  -8.892736e+01
  -3.370856e+02  -5.256297e+02
   2.934315e+02  -3.179049e+02
   3.295695e+02   3.557849e+02
  -1.063107e+02   4.747112e+02
  -5.296214e+02   1.874603e+02
  -5.362887e+02  -3.442023e+02
  -2.080222e+02  -5.597232e+02
   3.968032e+02  -3.990934e+02
   5.799312e+02   3.515369e+01
   3.593853e+02   4.034361e+02
  -1.654055e+02   3.806033e+02
  -4.267610e+02  -9.355808e-01
  -2.075278e+02  -1.670167e+02
   1.127066e+02  -1.716959e+02
   1.345814e+02   9.422929e+01
  -1.199102e+02   1.980018e+02
  -3.355925e+02  -9.523112e+01
  -1.768944e+02  -3.065603e+02
   2.035320e+02  -2.135476e+02
   2.899153e+02  -6.060187e+01
   2.252453e+02   1.382169e+02
  -3.818278e+01   2.316271e+02
  -2.780451e+02   2.612847e+02
  -2.829318e+02   2.096297e+02
  -3.147343e+02  -1.746456e+02
  -3.139684e+01  -3.970701e+02
   1.649866e+02  -3.712162e+02
   1.022428e+02  -1.193815e+02
   1.479338e+01  -3.528300e+01
   1.638812e+01  -6.639347e+01
   2.069588e+02  -9.893332e+01
   2.413962e+02   6.499716e+01
   1.533373e+02   2.871896e+02
  -4.669363e+01   2.313977e+02
  -2.355762e+02   7.249406e+00
  -2.166098e+02  -2.105577e+02
   2.919600e+01  -2.556443e+02
   2.335312e+02  -1.267837e+02
   3.788497e+02   1.623069e+02
   2.539598e+02   3.670024e+02
  -7.594658e+01   3.066330e+02
  -2.366478e+02   1.411256e+02
  -1.441826e+02   8.501922e-01
  -9.155446e+01   2.674957e+01
  -2.219571e+02   2.880656e+01
  -3.854773e+02  -5.938804e+01
  -2.749783e+02  -3.074688e+02
   1.093636e+02  -4.828881e+02
   3.275492e+02  -4.104291e+02
   4.519411e+02  -2.837690e+02
   3.130249e+02   9.652886e+01
   4.482716e+01   3.548838e+02
  -1.224244e+02   2.442667e+02
  -6.041361e+01   6.957407e+01
   1.141077e+02  -9.094544e+01
   1.904592e+02   6.487559e+01
   2.173943e+01   1.793398e+02
  -1.454260e+02   1.071694e+02
  -1.015316e+02  -8.945815e+01
   1.889160e+01  -1.851605e+02
   2.057301e+02  -2.332636e+01
   1.605640e+02   2.309599e+02
  -8.638482e+01   3.399922e+02
  -2.588472e+02   1.703071e+02
  -3.348974e+02  -1.133151e+02
  -3.031999e+02  -2.263887e+02
  -5.705907e+01  -2.584973e+02
   1.376992e+02  -1.300268e+02
   1.491857e+02  -5.050339e+00
   5.280221e+01   3.921698e+00
  -7.429559e+01  -3.073854e+01
  -1.456174e+01  -1.002778e+02
   9.883705e+01  -1.275712e+02
   1.998545e+02  -2.103608e+00
   2.009900e+01   9.824638e+01
  -8.574092e+01   1.161702e+01
  -3.508820e+01  -7.009196e+01
   1.176236e+02  -9.259951e+01
   2.472018e+02   4.110407e+01
   2.301447e+02   1.736696e+02
   6.789776e+00   2.472047e+02
  -1.872160e+02   1.765396e+02
  -2.951210e+02   3.342682e+01
  -1.811451e+02  -7.032300e+01
  -1.818757e+01  -1.372469e+02
   4.917149e+01   2.968981e+01
  -3.557662e+01   6.603473e+01
  -1.953353e+02   5.615283e+01
  -2.149361e+02  -1.235443e+02
  -6.975936e+01  -2.496912e+02
   1.263578e+02  -1.702021e+02
   1.513170e+02  -4.209383e+01
   6.065096e+01   4.905666e+01
  -3.829882e+01   4.073626e+00
  -4.296038e+01  -6.512284e+01
   6.508147e+01  -1.292235e+02
   2.147643e+02  -1.954817e+01
   1.980475e+02   9.228148e+01
   2.602801e+01   2.173310e+02
  -1.427046e+02   1.316616e+02
  -1.500354e+02  -4.990563e+00
  -6.436370e+01  -1.066769e+02
   5.502562e+01  -9.778118e+01
   6.511596e+01  -3.258244e+01
   2.847672e+01   1.340857e+01
  -9.850186e+00   3.135355e+01
  -2.693810e+01  -1.605066e+01
   4.181541e+01   3.026198e+01
   6.383246e+01   7.342768e+01
  -2.194482e+01   1.376718e+02
  -1.494793e+02   1.035938e+02
  -1.986272e+02   6.964842e-01
  -1.936165e+02  -1.317806e+02
  -4.746483e+01  -2.100153e+02
   1.500768e+02  -1.682370e+02
   1.344014e+02  -2.012031e+01
   1.032885e+02   7.613015e+01
  -8.084512e+00   4.243161e+01
   1.694296e+01  -6.229342e+01
   5.825648e+01   3.711088e+01
   2.068441e+01   5.434608e+01
  -1.580356e+00   7.003223e+01
  -1.090554e+02   8.982997e+01
  -7.917181e+01  -1.817684e+01
   2.378374e+01  -1.465526e+02
   1.475307e+02  -1.097893e+02
   1.815873e+02   1.577138e+00
   1.010264e+02   2.005650e+02
  -8.419004e+01   1.965712e+02
  -2.893202e+02   5.597722e+01
  -2.061625e+02  -1.032124e+02
  -8.749292e+01  -1.842620e+02
   5.495603e+01  -1.246806e+02
   1.140056e+02  -7.869052e+01
   1.046978e+02  -4.608536e+01
   2.881797e+01  -1.020924e+02
   8.627571e+01  -5.654825e+01
   1.363405e+02   5.485938e+01
   8.571711e+01   2.304106e+02
   4.388897e+01   2.505829e+02
  -5.883929e+01   1.596032e+02
  -2.291556e+02  -1.446433e+01
  -1.262015e+02  -1.438517e+02
  -6.318595e+01  -1.623224e+02
   3.958530e+01  -1.101253e+02
   5.488990e+01   3.481173e-01
   1.460289e+01   3.562927e+01
  -2.307288e+01   2.427309e+01
   1.298487e+01   4.998093e+01
   5.606531e+01   2.219328e+01
   4.440166e+01   4.720242e+01
  -5.060036e+01   3.503207e+00
  -1.396070e+02   2.125289e+01
  -9.694162e+01  -7.168057e+01
  -3.022116e+01  -9.182732e+01
   1.375740e+02  -5.510144e+01
   1.133814e+02   5.840967e+00
   3.151561e+01   5.691382e+01
  -9.869860e+01   3.874287e+01
  -8.564531e+01  -9.453302e+00
  -1.217143e+01  -7.614581e+01
   6.423046e+01  -9.503873e+00
   5.704259e+01   4.142422e+01
   4.483103e+01   4.294326e+01
   4.007042e+01   3.759674e+01
   7.514809e+01   1.629136e+01
   5.061576e+01  -4.452855e+00
  -1.396461e+00   5.355127e+01
  -5.139624e+01   1.600191e+02
  -1.046666e+02   1.521508e+02
  -1.464911e+02   5.694798e+01
  -1.560396e+02  -7.380929e+01
  -1.665021e+00  -1.187284e+02
   1.001399e+02  -2.102804e+01
   3.050488e+01   5.353184e+00
  -3.577504e+01  -1.206589e+01
  -1.544259e+02  -7.840685e+01
  -8.446023e+01  -1.290899e+02
   1.104183e+02  -1.043381e+02
   1.110875e+02  -2.690512e+01
   1.392267e+02   2.503332e+01
   4.055998e+01   9.966330e+01
  -6.494147e+01   6.829940e+01
  -5.386773e+01  -1.028383e+01
   2.909796e+01  -1.402625e-01
   6.847666e+01   6.908401e+01
   3.850789e+01   9.932315e+01
  -8.660420e+01   1.447190e+02
  -1.663795e+02   4.260706e+01
  -1.671862e+02  -1.330382e+02
  -1.374786e+01  -2.052117e+02
   1.072101e+02  -1.543023e+02
   7.748627e+01   3.359929e+01
   5.663271e+01   1.421745e+02
  -5.634861e+00   1.114760e+02
  -4.273191e+01   3.248019e+01
  -5.230053e+01  -1.811473e+01
  -5.775944e+01  -8.420452e+00
   8.836787e+00   4.973208e+01
  -1.319922e+01  -1.587919e+01
  -2.327918e+01  -1.100966e+02
  -4.209417e+01  -7.496114e+01
   4.715909e+01   4.186742e+00
   9.356840e+01   1.536054e+01
   1.385842e+02   6.745839e+01
   8.962864e+00   3.432025e+01
  -6.962180e+01   2.592661e+01
  -1.126934e+02   2.959374e+01
  -4.445191e-01  -2.067032e+01
   4.196012e+01  -3.352511e+01
  -7.678737e+00   1.554971e+01
  -4.941818e+01  -4.299932e+01
  -2.686451e+00   9.956182e-01
   2.386228e+01   1.360171e+01
   1.008120e+02   4.288777e+01
   8.038904e+00   1.037859e+02
  -1.055683e+02   9.438062e+01
  -1.711696e+02   6.762194e+01
  -1.632771e+02  -8.565074e+01
   1.144044e+01  -1.264180e+02
   1.119509e+02  -1.829930e+02
   1.472788e+02  -8.260664e+01
   8.763696e+01   5.922342e+01
   1.651828e+01   4.248530e+01
   4.354445e+01   2.201838e+01
   3.616012e+00  -1.637855e+01
   1.481541e+01   2.834259e+01
   8.706383e+00   7.630985e+01
  -4.635550e+01   4.042769e+01
  -1.306814e+02  -3.883009e+01
  -7.074283e+01  -9.306510e+01
  -3.377583e+01  -1.108093e+02
   7.969151e+01  -4.983051e+01
   8.170351e+01   3.284379e+01
   5.311557e+01   1.132862e+02
  -8.068678e+01   6.031739e+01
  -1.333340e+02  -4.705197e+01
  -1.923133e+01  -6.536856e+01
   2.823291e+01  -2.179724e+01
   6.101886e+01   7.075492e+00
  -1.961761e+01   2.173878e+01
  -5.487272e+01   3.259832e+01
  -3.485475e+01  -2.897769e+01
   5.244990e+01  -5.846360e+01
   1.306959e+02  -2.751176e+01
   4.885247e+01  -1.520871e+01
  -2.278504e+01   6.043170e+01
  -3.404631e+01   8.264750e+01
  -5.642354e+01  -2.065755e+01
   2.319754e+01  -3.280702e+01
   5.037397e+01  -6.446248e+01
   4.862661e+01  -1.003933e+01
   2.751699e+01   4.159259e+01
  -1.968064e+01   2.412430e+01
  -4.330004e+01  -1.846518e+01
  -3.171565e+01  -7.267610e+01
   5.383294e-01  -1.330641e+01
   1.520371e+01   1.505310e+01
  -2.763150e+01   2.299665e+01
  -5.936971e+00  -2.143125e+01
  -6.100950e+00  -3.717663e+01
   5.731301e+01  -2.396745e+01
   3.990880e+01   5.370815e+01
   8.858410e-01   7.988577e+01
  -4.565536e+01  -1.291352e+01
  -1.535076e+01  -4.262521e+01
  -1.371507e+00  -8.715797e+01
   7.460605e+01  -3.419550e+01
   8.157723e+01   3.603864e+01
   6.280213e+01   1.573453e+01
  -3.369972e+00   2.279728e+01
  -7.708816e+01  -1.789690e+01
  -2.526234e+01  -4.286435e+01
   4.343057e+01   1.964812e+01
  -6.021398e+00  -1.997632e+01
  -4.302562e+01   4.702759e+01
  -7.721847e+01   5.886396e+00
