
 $NMID
 id='ANONYMOUS ', fmtdat='(2E16.6)'
 volume=1.0
 tramp=1.0
 $END
   3.665361e+03   1.117140e+02
   2.480649e+03   2.272929e+03
  -3.223927e+02   2.629594e+03
  -1.906833e+03   8.072544e+02
  -8.349314e+02  -4.565766e+02
   4.348064e+02  -5.116188e+02
   8.502493e+02   2.213166e+02
   1.243634e+02   9.081350e+02
  -6.582166e+02   6.423811e+02
  -8.264782e+02  -1.004049e+01
  -5.066685e+02  -7.226387e+02
   2.044001e+02  -7.760444e+02
   4.505084e+02  -2.581752e+02
   4.208780e+02   6.233697e+02
  -1.993855e+02   6.842119e+02
  -4.783512e+02   5.915215e+00
  -3.001376e+02  -6.276335e+02
   2.213330e+02  -5.774228e+02
   5.384571e+02  -1.441877e+02
   4.437503e+02   2.988677e+02
   8.794851e+01   4.369762e+02
  -2.263009e+02   2.522765e+02
  -1.798819e+02   4.140019e+01
   1.594173e+02  -2.698520e+01
   3.115084e+02   1.415296e+02
   1.528505e+02   3.438033e+02
  -3.851931e+02   2.742474e+02
  -7.490429e+02  -4.026796e+01
  -3.646673e+02  -6.099305e+02
   3.407060e+02  -5.144210e+02
   7.034324e+02   7.980156e+01
   2.965752e+02   4.488412e+02
  -2.413635e+02   4.491773e+02
  -5.514404e+02   2.651836e+02
  -3.972027e+02  -1.987688e+02
  -6.202382e+01  -4.864068e+02
   1.041549e+02  -3.417561e+02
   6.930265e+01   1.033338e+02
  -1.589619e+02   3.385910e+02
  -3.060261e+02   1.635394e+01
  -3.098531e+02  -5.857331e+02
   2.617970e+02  -6.696345e+02
   5.998889e+02   1.475620e+01
   2.057947e+02   5.347438e+02
  -3.185302e+02   3.074414e+02
  -3.756985e+02  -2.793742e+02
   1.234838e+02  -5.447287e+02
   4.923213e+02  -9.063926e+01
   6.226586e+02   3.502817e+02
   2.159031e+02   5.805079e+02
  -3.808504e+02   2.892156e+02
  -5.661319e+02  -5.951428e+01
  -4.222457e+02  -4.076824e+02
   1.226035e+02  -3.522714e+02
   4.063130e+02  -3.724264e+01
   2.373900e+02   1.308854e+02
  -1.051154e+02   1.141015e+02
  -1.911682e+02  -1.033996e+02
   1.185362e+02  -2.096750e+02
   2.682453e+02   1.648261e+02
   1.130839e+02   3.176202e+02
  -1.783585e+02   2.619424e+02
  -3.566859e+02   5.528121e+01
  -1.819921e+02  -1.150312e+02
   7.182624e+01  -2.274278e+02
   2.422194e+02  -2.617524e+02
   3.656727e+02  -1.602618e+02
   2.360612e+02   1.526507e+02
   6.134209e+01   4.471448e+02
  -1.075537e+02   3.891248e+02
  -1.268521e+02   1.529486e+02
  -8.591533e+01  -8.133729e+00
  -4.864426e+01   5.928628e+01
  -1.880518e+02   6.304013e+01
  -2.757453e+02  -1.407847e+01
  -1.473094e+02  -2.926846e+02
   2.318108e+01  -2.093623e+02
   2.578255e+02  -5.961676e+01
   2.343190e+02   2.509583e+02
   3.663110e+01   2.801202e+02
  -2.295395e+02   1.173967e+02
  -3.749441e+02  -1.509053e+02
  -2.516347e+02  -3.362871e+02
   5.528723e+01  -2.853252e+02
   1.765336e+02  -1.262451e+02
   1.705855e+02  -7.113060e+01
   9.006397e+01  -3.599854e+01
   2.513923e+02  -1.149642e+01
   3.133146e+02   5.440461e+01
   3.122734e+02   3.000927e+02
   1.479783e+01   3.791017e+02
  -3.432724e+02   3.743821e+02
  -4.849799e+02   2.843508e+02
  -3.043616e+02  -1.007775e+02
  -7.191809e+00  -3.299381e+02
   8.691489e+01  -2.175038e+02
   3.621750e+01  -2.311183e+01
  -7.289384e+01   1.035196e+02
  -2.343818e+02  -6.635533e+01
  -7.498359e+01  -2.011494e+02
   1.463822e+02  -1.434525e+02
   1.790518e+02   5.043980e+01
  -5.814850e+01   2.083803e+02
  -2.184550e+02   5.380039e+00
  -1.095643e+02  -1.696756e+02
   7.197298e+01  -3.201982e+02
   2.060408e+02  -2.135460e+02
   2.838538e+02   8.082001e+01
   2.959676e+02   2.059708e+02
   4.030235e+01   2.178415e+02
  -1.096961e+02   1.221485e+02
  -1.309756e+02   3.973596e+01
  -3.611560e+01  -1.638947e+01
   1.101294e+02   7.769003e+01
   8.990536e+00   1.405689e+02
  -9.125940e+01   7.483666e+01
  -1.731495e+02  -4.037704e+00
  -6.526738e+00  -4.063096e+01
   1.030205e+02  -2.903353e+01
   7.478272e+01   8.504510e+01
  -1.163163e+02   9.183726e+01
  -2.232320e+02  -2.257195e+01
  -2.278583e+02  -1.401773e+02
  -3.477281e+00  -2.684626e+02
   1.810754e+02  -2.297743e+02
   2.536488e+02  -1.065843e+02
   1.738019e+02   5.269978e+01
  -3.605127e+01   1.096347e+02
  -1.070853e+02   8.350415e+00
   4.014279e+01  -9.696833e+01
   1.868656e+02  -3.826979e+01
   1.948985e+02   1.199935e+02
   2.774662e+01   1.848945e+02
  -1.007145e+02   1.615581e+02
  -1.376634e+02   2.553891e+00
  -5.575401e+01  -5.164259e+01
   1.010853e+01   1.592967e+01
   1.583374e+00   7.971588e+01
  -7.351354e+01   1.445000e+02
  -1.986288e+02   2.221448e+01
  -1.455373e+02  -1.575614e+02
  -2.439652e+01  -2.724777e+02
   1.486778e+02  -1.798512e+02
   1.784081e+02  -2.923321e+01
   6.782294e+01   1.305736e+02
  -7.974431e+01   8.154826e+01
  -9.704658e+01   3.362260e+01
  -2.145662e+00  -8.450013e+00
   3.998609e+01   4.921703e+01
  -9.205399e-01   2.068035e+01
  -4.696042e+01  -1.493347e+01
  -1.047550e+02  -9.341622e+01
  -1.194448e+01  -1.689466e+02
   1.806455e+02  -7.800353e+01
   1.936064e+02  -5.976333e+00
   1.703972e+02   1.417566e+02
   1.620816e+01   2.534764e+02
  -1.020017e+02   1.592678e+02
  -1.592443e+02   3.579200e+01
  -7.123948e+01  -6.188039e+01
   2.422633e+00  -4.187737e+01
  -5.188379e+01   2.012384e+01
  -8.661780e+01   4.014421e+01
  -3.428342e+01  -5.261219e+01
   5.642993e+01  -1.355606e+02
   9.143533e+01  -7.484647e+01
   6.794826e+01  -1.075465e+01
  -9.321120e+00   9.238476e+01
  -1.409850e+02   1.020596e+02
  -1.890945e+02  -4.299842e+01
  -1.197309e+02  -1.595238e+02
   8.686463e+01  -1.891071e+02
   2.369502e+02  -1.243939e+02
   2.571474e+02   8.565485e+01
   7.832423e+01   1.685067e+02
  -2.548307e+01   1.616334e+02
  -5.273486e+01   1.291918e+02
  -6.173158e+01   3.268727e+01
  -8.421620e+01   1.187168e+02
  -1.181096e+02   4.623126e+01
  -1.024314e+02  -2.161974e+01
  -1.147709e+02  -1.596062e+02
  -5.378674e+00  -2.460563e+02
   5.825968e+01  -1.568707e+02
   1.507990e+02   1.477812e+01
   1.321940e+02   8.738511e+01
   2.877980e+01   1.228078e+02
  -8.406295e+01   1.073168e+02
  -7.744805e+01   1.600813e+01
   1.588801e+01  -1.312845e+01
   5.157404e+01  -4.628013e+01
  -5.997296e+01   9.604914e+00
  -6.898130e+01   3.495892e+00
  -2.028511e+01  -5.283732e+01
   2.994195e+01  -4.718277e+01
   1.680919e+02   3.089182e+00
   1.012340e+02   4.317612e+01
   1.546767e+01   7.451097e+01
  -1.594615e+02   3.411901e+01
  -1.461869e+02   3.942015e+00
  -4.960388e+01  -1.941725e+01
   2.916935e+01  -4.697760e+01
   6.656537e+01   5.437686e+01
   3.693171e+01   6.113855e+01
  -4.780143e+01   5.172999e+01
  -6.019935e+01  -1.071566e+00
  -3.761635e+01  -1.127601e+01
  -2.135621e+01  -7.477781e+01
  -5.462842e+01  -2.199241e+01
  -8.955683e+01   1.901552e+01
  -6.347696e+01  -7.495725e+01
   3.887491e+01  -1.452712e+02
   1.286547e+02  -7.559571e+01
   2.019002e+02  -4.093502e+01
   1.216354e+02   1.015036e+02
  -1.117076e+01   1.337478e+02
  -9.926284e+01   1.953275e+01
  -7.930181e+01  -1.197557e+01
   5.456143e+01  -2.483314e+01
   1.142975e+02   4.662731e+01
   5.427550e+01   1.106782e+02
  -1.320129e+02   7.634214e+01
  -1.705437e+02   7.069367e+01
  -1.624030e+02  -3.639057e+01
  -1.164187e+01  -9.571662e+01
   5.480636e+01  -5.083477e+01
   8.164089e+01  -1.320214e+01
  -1.611785e+01   6.040042e+01
  -1.773922e+01  -3.284345e+01
  -5.327412e+01  -1.114389e+02
   7.758417e+01  -1.222936e+02
   1.674134e+02  -4.591468e+01
   1.458384e+02   9.387508e+01
   8.995914e+00   1.988740e+02
  -1.118242e+02   1.588227e+02
  -1.250851e+02  -4.334034e+00
  -4.560651e+01  -1.466840e+02
   4.935963e+00  -1.021930e+02
   3.362079e+01   1.701492e+01
   8.358269e+01   5.249333e+01
   4.009664e+01  -1.851259e+00
   2.946378e+01  -3.465517e+01
   1.731017e+01   3.093155e+01
   6.003850e+01   7.605831e+01
   1.999331e+01   9.312631e+01
  -2.628190e+01   2.239835e+01
  -1.010249e+02  -6.579453e+01
  -1.479384e+02  -9.002529e+01
   2.029832e+01  -2.225623e+01
   7.201477e+01  -5.099368e+01
   6.790959e+01  -2.962163e+01
   4.832851e+01  -9.102368e+00
  -7.680874e+00   1.952733e+01
   1.643851e+01   1.822875e+01
   2.891247e+01   1.277608e+01
   1.791511e+01  -1.042008e+01
  -8.484477e+01  -1.312679e+01
  -1.012129e+02  -2.568771e+01
  -2.266224e+01  -9.714489e+01
   8.097593e+01  -1.268839e+02
   1.585916e+02  -7.413547e+01
   1.414195e+02  -1.157133e+01
   4.595572e+01   1.682526e+02
  -7.725105e+01   1.747205e+02
  -8.247467e+01   5.490154e+01
  -6.562702e+01  -1.621430e+01
  -2.641090e+01  -3.276074e+01
   5.450709e+00  -7.456611e-01
   3.898526e+00  -1.447935e+01
  -4.380198e+01  -6.415154e+01
   2.997396e+01  -9.089189e+01
  -1.781846e+01  -8.895991e+01
   9.375047e+01   2.403591e+01
   5.397320e+01   7.809891e+01
   3.179164e+01   1.285730e+02
  -3.389565e+01   6.094176e+01
  -9.282028e+01  -1.174066e+02
  -6.033043e+01  -1.183556e+02
   7.405640e+01  -7.430694e+01
   8.192202e+01   6.138380e+01
   3.336158e+01   6.933077e+01
  -2.047035e+01   5.989842e+01
  -3.391008e+01  -6.045128e+00
   1.348103e+01   1.142973e+01
   5.694154e+01  -2.435968e-01
   5.444851e+00   2.598646e+01
  -1.054633e+02   7.677918e+01
  -1.589589e+02   4.455141e+01
  -4.370340e+01  -4.523657e+01
  -1.437832e+01  -9.817320e+01
   7.313384e+01  -1.310528e+02
   3.752272e+01   1.500392e+01
  -6.926415e+00   4.215507e+01
  -5.273294e+01   3.925060e+01
  -2.712942e+01   1.599085e+01
  -3.494214e+01  -5.211632e+01
  -5.847736e+01  -3.364769e+01
   5.505808e+01   1.312705e+01
   2.148863e+01   4.418701e+01
   1.700899e+00  -2.330596e+01
   1.161797e+01  -4.046424e+01
   4.422042e+01   1.208240e+01
  -1.568686e+01   6.950567e+01
   5.309782e+00   4.350239e+01
  -2.342881e+01   2.795197e+01
  -1.813641e+01  -6.886427e+01
  -3.829305e+00  -3.351743e+01
   4.041932e+01  -4.300766e+01
   1.729153e+01   6.893833e+01
  -5.123183e+00   7.801329e+01
  -9.312796e+01   2.139179e+01
  -7.311268e+01   5.000687e+01
  -2.153150e+01  -4.354926e+01
   3.632401e+01  -7.513446e+01
   4.815912e+01   5.969738e+00
   3.898163e+01   2.809601e+01
  -3.475582e+01  -7.983586e+00
   6.858659e-01  -4.214041e+01
   3.222758e+01  -2.666770e+01
   7.532650e+01  -3.296571e+01
