
 $NMID
 id='ANONYMOUS ', fmtdat='(2E16.6)'
 volume=1.0
 tramp=1.0
 $END
   3.399344e+03  -4.471170e+02
   2.383027e+03   2.066939e+03
  -1.176321e+02   2.282284e+03
  -1.625301e+03   1.380674e+03
  -9.070742e+02  -2.723404e+02
   2.193667e+02  -5.384949e+02
   6.383945e+02   2.771298e+02
   1.912635e+02   8.836657e+02
  -7.401960e+02   7.540608e+02
  -7.925846e+02   1.000244e+02
  -3.792236e+02  -6.406923e+02
   9.985578e+01  -7.809530e+02
   6.324778e+02  -1.892711e+02
   3.578562e+02   4.228374e+02
  -5.838064e+01   6.688395e+02
  -5.337759e+02   1.248443e+02
  -2.913368e+02  -5.198485e+02
   8.365163e+01  -5.688831e+02
   5.713564e+02  -2.646541e+02
   4.292776e+02   2.261221e+02
   6.501967e+01   3.596298e+02
  -1.699020e+02   2.268670e+02
  -1.343076e+02   3.929119e+01
   1.066086e+02   4.659091e+01
   4.040727e+02   1.240949e+02
   1.635682e+02   3.364577e+02
  -2.905711e+02   3.244199e+02
  -5.003782e+02  -1.019986e+02
  -4.518309e+02  -3.811947e+02
   1.812660e+02  -3.791100e+02
   6.541931e+02   9.649948e-01
   3.087325e+02   3.905980e+02
  -1.530666e+02   4.257627e+02
  -5.646280e+02   2.703226e+02
  -3.989959e+02  -1.436575e+02
  -2.057206e+02  -3.920820e+02
   6.544644e+01  -2.542807e+02
   1.826960e+02   1.593279e+02
  -7.697778e+01   3.571706e+02
  -3.428786e+02   1.603382e+02
  -1.562649e+02  -5.637068e+02
   2.138690e+02  -5.874363e+02
   5.113815e+02  -7.166748e+01
   1.913634e+02   4.892761e+02
  -1.842527e+02   2.430504e+02
  -2.823909e+02  -2.104922e+02
  -2.285378e+01  -4.193150e+02
   4.219043e+02  -2.021273e+02
   5.438318e+02   2.559118e+02
   1.700602e+02   4.889990e+02
  -2.297577e+02   3.085111e+02
  -5.738707e+02  -2.446783e+01
  -3.279892e+02  -2.831875e+02
   7.294536e+01  -3.478166e+02
   3.599370e+02  -1.587202e+02
   2.492933e+02   1.157910e+02
  -1.164523e+02   1.330636e+02
  -7.629068e+01  -7.358891e+01
   1.125292e+02  -1.329066e+02
   2.945315e+02   7.998076e+01
   1.145871e+02   2.029989e+02
  -1.518588e+02   2.283176e+02
  -3.210719e+02   5.051922e+01
  -1.794980e+02  -8.375939e+01
   3.486557e+01  -1.901631e+02
   2.107222e+02  -3.077452e+02
   2.855604e+02  -1.557815e+02
   2.980303e+02   1.073546e+02
   9.800632e+01   3.465736e+02
  -7.807880e+01   3.442383e+02
  -1.244722e+02   1.797691e+02
  -3.533274e+01   1.707110e+01
  -2.259617e+01   6.733876e+01
  -2.193661e+02   7.455110e+01
  -2.106226e+02  -6.591909e+01
  -8.829059e+01  -2.290373e+02
  -2.479395e+01  -1.998487e+02
   2.108350e+02  -1.713045e+01
   1.453288e+02   2.448269e+02
   3.743635e+01   3.135229e+02
  -2.014018e+02   7.480308e+01
  -2.842914e+02  -1.318850e+02
  -1.977439e+02  -2.889507e+02
   4.718591e+01  -2.449608e+02
   1.501930e+02  -1.624474e+02
   9.076665e+01  -4.390374e+01
   8.974563e+01  -4.155295e+01
   2.271877e+02  -4.929877e+01
   3.744830e+02  -1.245165e-02
   2.475636e+02   2.693897e+02
   7.182208e+01   3.549803e+02
  -2.448225e+02   3.927258e+02
  -4.231355e+02   2.059710e+02
  -2.391092e+02  -1.102893e+02
  -1.141641e+02  -2.253246e+02
   7.915098e+01  -2.349657e+02
   6.975402e+01  -3.158410e+01
  -6.677200e+01   5.596506e+01
  -1.216735e+02  -4.411246e+01
  -9.102604e+01  -1.885028e+02
   1.078743e+02  -1.377949e+02
   1.274767e+02   1.783524e+01
  -2.769790e+01   1.176930e+02
  -1.680509e+02   7.117064e+01
  -1.872645e+02  -1.951883e+02
   3.951880e+01  -2.887132e+02
   1.675161e+02  -1.988284e+02
   2.553706e+02   9.081594e+01
   2.580145e+02   2.790432e+02
   5.383309e+01   2.398298e+02
  -4.736429e+01   1.438299e+02
  -1.463496e+02  -1.808872e-01
  -5.217667e+01  -2.550191e+01
   5.111230e+01   1.275055e+01
   3.698536e+01   1.153386e+02
  -9.082966e+01   8.693715e+01
  -1.967281e+02   1.390276e+01
  -4.125406e+01  -7.282496e+01
   6.320085e+01  -3.463821e+00
   7.872950e+01   9.134135e+01
  -1.219478e+02   7.868265e+01
  -2.717730e+02   1.837717e+00
  -1.937815e+02  -1.197286e+02
  -3.820800e+01  -1.997337e+02
   9.216908e+01  -2.136255e+02
   2.321227e+02  -1.499761e+02
   1.720276e+02   3.009116e+01
   1.249026e+01   1.122483e+02
  -3.549794e+01   5.274753e+01
  -2.833451e+00  -6.967575e+01
   1.601070e+02  -6.688907e+01
   1.822881e+02   7.092986e+01
   5.307416e+01   1.647617e+02
  -4.007319e+01   1.341698e+02
  -1.419279e+02   2.990142e+01
  -8.694046e+01   2.423098e+00
   7.213597e+01   1.069538e+01
   1.199668e+01   6.753841e+01
  -7.017193e+01   8.552727e+01
  -1.500220e+02   1.125782e+01
  -1.703472e+02  -5.295581e+01
  -5.638454e+01  -1.611493e+02
   1.573626e+02  -1.473764e+02
   1.607103e+02  -1.813252e+01
   7.717228e+01   6.792435e+01
  -6.882826e+01   6.651234e+01
  -8.332011e+01   5.127854e+00
   1.524310e+01  -1.297259e+01
   1.937320e+01  -1.824060e+01
  -2.387733e+01  -2.649146e+01
  -8.056176e+01  -2.603932e+01
  -6.188865e+01  -5.889329e+01
  -1.727558e+01  -1.454489e+02
   6.912195e+01  -1.443746e+02
   1.884143e+02  -3.164407e+01
   1.888763e+02   7.936071e+01
   4.002799e+01   2.065456e+02
  -2.649296e+01   1.701143e+02
  -1.731604e+02   5.375903e+01
  -8.718338e+01  -2.059093e+01
  -8.235183e+00  -4.041081e+01
   5.718613e+00   4.776889e+01
  -9.041165e+01   3.463508e+01
  -3.526142e+01  -5.420362e+01
   3.104207e+01  -8.721043e+01
   7.804962e+01  -2.333134e+01
   7.962364e+01  -9.280101e+00
   8.730924e-01   9.183771e+01
  -1.327509e+02   1.240255e+02
  -1.611867e+02  -4.091642e+01
  -8.950136e+01  -1.868308e+02
   7.689871e+01  -2.091184e+02
   2.617909e+02  -8.833562e+01
   2.342231e+02   5.735324e+01
   1.047699e+02   1.753133e+02
  -7.803543e+00   1.628052e+02
  -6.286607e+01   8.972789e+01
  -8.686071e+01   4.656915e+01
  -5.729555e+01   7.651358e+01
  -8.728535e+01   6.006224e+01
  -9.822317e+01   4.436677e+00
  -1.080204e+02  -1.071178e+02
  -3.272500e+01  -1.729538e+02
   1.178808e+02  -1.373505e+02
   1.389164e+02   2.152056e+01
   1.321637e+02   1.363674e+02
   9.474871e+00   1.055030e+02
  -4.864110e+01   8.057151e+01
  -4.213857e+01  -9.463375e+00
  -3.377383e+01  -3.828981e+01
  -2.059484e+00  -3.800972e+01
   2.855557e+01   1.974302e+01
  -6.527741e+01   1.493185e+01
  -5.536976e+01  -1.082710e+01
   3.088991e+01  -6.032399e+01
   1.439929e+02  -2.329284e+01
   8.696269e+01   2.071875e+01
   1.513691e+01   5.985205e+01
  -1.002221e+02   4.370414e+01
  -1.094132e+02  -9.326870e+00
  -6.061809e+01  -2.809365e+01
   6.671068e+01   6.113233e+00
   1.036470e+02  -4.511786e+00
   1.514917e+01   3.770329e+01
  -3.424332e+01   5.344024e+01
  -4.144760e+01  -5.775045e+00
   9.342215e+00  -4.268158e+01
  -3.871190e+01  -6.183709e-01
  -5.243492e+01   2.660817e+01
  -8.632605e+01  -4.727926e+00
  -3.368779e+01  -8.594954e+01
   8.414468e+00  -1.185342e+02
   1.104391e+02  -1.333257e+02
   1.443708e+02  -2.593845e+01
   9.055678e+01   7.261230e+01
  -5.253879e+00   1.096075e+02
  -1.065435e+02   2.701354e+01
  -1.766626e+01  -5.980859e+00
   5.362126e+01  -2.940470e+01
   1.418842e+02   2.702722e+01
   6.211195e+01   6.026199e+01
  -4.758699e+01   5.052832e+01
  -1.519052e+02   9.032655e+01
  -9.887328e+01  -2.267057e+01
  -4.949415e+01  -5.489580e+01
  -3.678774e+00  -8.565145e+01
   5.606963e+01   2.094098e+01
  -3.423858e+01   5.086122e+01
  -5.663049e+01  -5.303938e+01
  -1.826062e+01  -8.477845e+01
   6.821599e+01  -1.549690e+02
   1.217146e+02  -6.794848e+01
   1.252478e+02   9.453358e+01
  -2.515296e+01   1.863908e+02
  -5.011487e+01   9.279081e+01
  -8.963616e+01  -1.997203e+01
  -4.784698e+01  -1.520872e+02
  -2.144717e+01  -8.883778e+01
   4.235353e+01  -2.402768e+01
   1.532306e+01   2.249441e+01
   3.678147e+01   1.667883e+01
   2.080837e+01  -3.393386e+01
   4.952181e+00   2.531931e+01
   4.048976e+01   7.580656e+01
   6.445276e+01   9.759788e+01
  -3.245608e+01   5.179106e+01
  -9.500231e+01  -2.867420e+01
  -9.467229e+01   4.308475e+00
  -3.290548e+01  -2.612008e+01
   7.165206e+01  -5.771738e+01
   7.367553e+01  -1.573912e+01
   1.514519e+01  -1.937884e+01
  -4.921796e+01  -3.475691e+00
  -3.313886e+01  -1.870677e+00
   6.369343e+01  -3.388152e+01
   1.319496e+01  -2.923805e+01
  -6.218037e+01  -1.657888e+01
  -9.379499e+01  -4.453372e+00
   2.296339e+00  -4.650793e+01
   6.652038e+01  -1.431545e+02
   1.237748e+02  -7.142966e+01
   1.449467e+02   2.380928e+01
   2.957452e+01   1.510950e+02
  -8.349235e+01   7.310589e+01
  -9.264026e+01   6.775626e+01
  -5.904553e+01  -7.094395e+00
   5.813251e+00   1.432345e+00
  -1.547317e+00   9.534273e+00
  -2.421705e+01   1.363365e+01
   9.815051e+00  -3.948091e+01
   8.083567e-01  -7.758983e+01
   1.772545e+01  -5.861822e+01
   1.032118e+02   1.790608e+01
   5.519610e+01   7.163583e+01
   2.825727e+01   6.221742e+01
  -7.279210e+01   2.457335e+01
  -1.164704e+02  -5.992672e+01
  -7.626545e+00  -8.310541e+01
   6.981772e+01  -2.933462e+01
   9.030610e+01  -2.993669e+01
   5.489166e+00   4.493251e+01
  -6.600192e+01   1.700968e+01
  -6.052450e+01  -3.734681e+00
   4.027615e+01  -2.204375e+01
   7.220282e+01  -8.904978e+00
  -1.665540e+01   3.135037e+00
  -1.031589e+02   3.856628e+01
  -6.607640e+01   5.267898e+01
  -6.030806e+01   4.986371e+01
   4.806457e+00  -2.794600e+01
   3.096848e+01  -8.109083e+01
  -4.374581e+00   7.270756e+00
  -1.046431e+01   3.092966e+01
  -5.081634e+00   2.749369e+01
  -4.156582e+01   1.284724e+01
  -4.126952e+01  -3.726045e+01
   3.012258e+01  -4.155862e+01
   4.113669e+01   5.458020e+00
   6.796082e+01   1.520764e+01
   9.595670e+00   1.290027e+01
  -8.020548e+00  -1.215371e+01
   3.588827e+00   4.180111e+00
  -2.349071e+01   5.082372e+01
   4.037740e+01   7.390542e+01
  -3.984924e+01   3.520916e+01
  -3.718859e+01  -3.374390e+01
  -2.729579e+00  -1.119248e+01
   7.212644e+01  -5.749886e+01
   7.643851e+01   3.236633e+01
   1.596453e+01   9.223682e+01
  -7.909847e+01   2.706567e+01
  -9.327091e+01   2.810660e+01
  -6.568834e+01  -2.389882e+01
   1.967266e+01  -1.978824e+01
   3.186827e+01  -4.051335e+01
   3.045663e+01  -1.585309e+01
  -1.050770e+01   2.299499e+01
  -2.324850e+01   2.748215e+01
   5.141226e+00  -5.106604e+01
   4.429404e+01   2.411326e+00
