
 $NMID
 id='ANONYMOUS ', fmtdat='(2E16.6)'
 volume=1.0
 tramp=1.0
 $END
  -4.238478e+03  -5.401722e+02
  -3.156467e+03  -2.745409e+03
   8.994580e+02  -2.891476e+03
   2.235975e+03  -9.074525e+02
   9.817605e+02   6.915603e+02
  -7.967286e+02   6.184594e+02
  -1.000668e+03  -5.173032e+02
   1.188290e+00  -1.083853e+03
   9.520339e+02  -8.308319e+02
   1.017387e+03   2.540329e+02
   4.788119e+02   8.929762e+02
  -2.654186e+02   9.002929e+02
  -6.989565e+02   1.461325e+02
  -4.028375e+02  -7.366361e+02
   4.461256e+02  -8.022808e+02
   6.477998e+02   1.031616e+02
   3.652023e+02   8.417407e+02
  -3.513150e+02   6.660358e+02
  -5.940331e+02  -4.621179e+00
  -4.787301e+02  -3.941905e+02
  -3.701783e+01  -4.090548e+02
   2.433247e+02  -3.104963e+02
   2.760438e+02  -1.593636e+01
  -7.784869e+01   1.121508e+02
  -4.200854e+02  -8.958485e+01
  -2.243419e+02  -5.040074e+02
   4.278803e+02  -4.518277e+02
   8.598917e+02  -6.863965e+00
   4.355908e+02   6.456040e+02
  -4.118199e+02   5.925260e+02
  -7.828211e+02  -6.631872e+01
  -3.005517e+02  -5.648509e+02
   2.912718e+02  -5.011631e+02
   5.209260e+02  -1.393596e+02
   4.078758e+02   2.321824e+02
   2.345504e+01   4.620380e+02
  -2.009384e+02   2.779788e+02
  -2.063031e+02  -2.105211e+02
   1.069034e+02  -4.529795e+02
   4.445289e+02  -5.592463e+01
   1.670014e+02   7.490392e+02
  -3.989636e+02   8.279434e+02
  -6.548248e+02  -8.129595e+01
  -3.378584e+02  -5.440149e+02
   2.710428e+02  -2.809497e+02
   4.793020e+02   3.544597e+02
  -3.865056e+01   5.377079e+02
  -6.202410e+02   1.477531e+02
  -4.896951e+02  -4.069609e+02
  -1.448554e+02  -5.658471e+02
   3.790646e+02  -3.454207e+02
   6.424427e+02   2.580142e+01
   4.063873e+02   3.627103e+02
  -2.427405e+02   4.050263e+02
  -3.886129e+02   4.332755e+00
  -2.440198e+02  -2.077532e+02
   1.596915e+02  -1.013945e+02
   2.123101e+02   8.139692e+01
  -2.121889e+02   1.951001e+02
  -4.249989e+02  -7.476746e+01
  -1.754206e+02  -3.642011e+02
   2.452697e+02  -2.423590e+02
   3.238653e+02  -6.272966e+01
   1.886342e+02   6.683107e+01
  -2.727105e+01   2.029614e+02
  -2.931125e+02   2.718757e+02
  -3.523790e+02   2.915697e+02
  -3.349498e+02  -1.551678e+02
  -1.267673e+02  -4.755088e+02
   1.203043e+02  -3.901665e+02
   9.565792e+01  -1.120185e+02
   7.063961e+01   6.380330e+00
  -2.439015e+01  -6.610085e+01
   2.203576e+02  -1.537021e+02
   2.918573e+02   2.615580e+01
   1.467977e+02   2.831060e+02
  -9.833695e+01   2.542447e+02
  -2.729063e+02  -6.531756e+00
  -2.266577e+02  -2.587840e+02
  -2.247107e+00  -2.774620e+02
   2.808643e+02  -6.687960e+01
   3.619837e+02   1.899722e+02
   1.245487e+02   3.289491e+02
  -1.187041e+02   2.753136e+02
  -2.309694e+02   1.409676e+02
  -1.315216e+02  -1.402807e+01
  -1.288627e+02   1.295386e+01
  -1.544242e+02   6.052158e+01
  -3.351960e+02  -6.801224e+01
  -3.145668e+02  -3.163020e+02
   2.093825e+01  -3.773235e+02
   4.042877e+02  -3.402094e+02
   4.754764e+02  -1.988521e+02
   3.507980e+02   1.099534e+02
   5.567451e+01   2.909367e+02
  -1.373623e+02   2.384784e+02
  -7.459886e+01   9.630384e+01
   1.210586e+02  -1.611520e+02
   2.115459e+02  -6.290727e+00
   4.280358e+01   2.051360e+02
  -1.735114e+02   1.989099e+02
  -1.842203e+02  -5.654393e+01
   1.553993e+01  -1.715359e+02
   1.658162e+02  -7.435213e+01
   1.221194e+02   2.526486e+02
  -1.112458e+01   3.671583e+02
  -2.709673e+02   2.026911e+02
  -3.368510e+02  -8.842305e+01
  -2.284571e+02  -2.295693e+02
  -7.367256e+01  -2.994742e+02
   1.244276e+02  -2.195051e+02
   1.990531e+02   1.167465e+00
   8.302187e+01   2.192038e+01
  -7.100780e+01  -2.436093e+00
  -1.603113e+01  -1.429882e+02
   1.166726e+02  -1.056297e+02
   1.898456e+02   2.993426e+01
   5.026558e+01   5.560506e+01
  -6.973046e+01   9.571218e+00
  -6.614617e+01  -6.055841e+01
   1.389985e+02  -7.747609e+01
   3.011594e+02   7.739088e+00
   1.980114e+02   1.101533e+02
   7.274585e+01   2.649201e+02
  -1.948562e+02   2.840901e+02
  -2.879341e+02   1.221385e+02
  -1.711394e+02  -8.524185e+01
  -2.061195e+00  -7.683197e+01
   8.726054e+01   1.651535e+00
  -5.537104e+01   9.212539e+01
  -2.056323e+02   4.274418e+01
  -1.797352e+02  -1.062866e+02
  -5.640267e+01  -2.197642e+02
   1.194329e+02  -2.175625e+02
   1.405638e+02  -8.557128e+00
   5.651554e+01   7.383583e+01
  -1.727454e+01   3.961855e+01
  -2.555980e+01  -8.187262e+01
   8.081279e+01  -9.718619e+01
   1.369462e+02  -1.169197e+00
   1.539275e+02   1.005864e+02
   1.344700e+01   2.367285e+02
  -1.588579e+02   1.492853e+02
  -2.332509e+02   6.609888e+00
  -8.720592e+01  -1.042194e+02
   6.332013e+01  -1.378902e+02
   6.389482e+01  -3.716670e+01
   9.245813e+00   2.795964e+01
  -1.849428e+01   1.298895e+01
   5.972053e+01   2.573094e+01
   5.475717e+01   2.844132e+01
   5.763831e+01   9.514102e+01
  -1.838724e+00   1.725845e+02
  -9.600277e+01   1.772090e+02
  -1.952169e+02   4.993082e+00
  -1.845628e+02  -1.677700e+02
  -6.457548e+01  -2.488693e+02
   9.933293e+01  -1.379711e+02
   1.505653e+02  -1.059026e+01
   1.047311e+02   7.102723e+01
   5.099089e+01   3.124384e+01
   1.083780e+02  -2.260899e+01
   1.021657e+02   4.182049e+01
   8.230164e+00   5.348540e+01
  -7.717316e+01   8.001080e+01
  -9.347086e+01   4.504463e+01
  -5.842842e+01  -6.332738e+01
   3.949075e+00  -8.954372e+01
   1.354864e+02  -6.571989e+01
   1.600211e+02   9.442847e+01
   4.297023e+01   2.255685e+02
  -5.911227e+01   2.117937e+02
  -2.147376e+02   7.948491e+01
  -2.039249e+02  -7.533665e+01
  -5.007824e+01  -1.877556e+02
   6.942624e+01  -9.868272e+01
   5.083689e+01  -8.857459e+01
   6.177834e+01  -8.485540e+01
   1.147846e+02  -1.271599e+02
   8.108903e+01  -7.696578e+01
   9.662331e+01   2.034043e+01
   1.400627e+02   1.338107e+02
   5.951562e+01   2.212201e+02
  -1.226214e+02   1.689077e+02
  -1.950098e+02   3.013692e+01
  -9.910077e+01  -1.108961e+02
  -7.775938e+01  -1.446870e+02
   9.044812e+01  -7.868805e+01
   2.922098e+01   9.191442e+00
   4.068452e+00   1.664931e+01
  -2.688620e+01   6.299813e+01
   2.940552e+01   6.115428e+01
   8.595177e+01   1.472380e+01
   2.248168e+01   1.745753e+01
  -3.381542e+01   1.094314e+02
  -1.586167e+02   1.848253e+01
  -1.112485e+02  -9.889125e+01
   2.363847e-02  -8.757903e+01
   1.011516e+02  -4.425695e+01
   1.141093e+02   3.035397e+01
   2.448079e+01   4.024363e+01
  -7.486222e+01   4.093964e+01
  -7.863860e+01  -3.916905e+00
   3.261680e+01  -7.331870e+01
   6.405778e+01  -4.778793e+01
   4.628030e+01   2.801370e+01
   4.383297e+01   2.910737e+01
   4.863634e+01   4.649708e+01
   8.262725e+01  -9.795530e-01
   5.895681e+01   1.073436e+01
  -1.375872e+00   8.339460e+00
  -6.360977e+01   1.214937e+02
  -1.184700e+02   1.145080e+02
  -1.295763e+02   4.243930e+01
  -1.126045e+02  -5.781609e+01
   1.977817e+01  -8.885094e+01
   8.189581e+01  -1.113739e+02
   3.730991e+01   7.099677e+00
  -3.856999e+01  -2.199994e+01
  -1.492722e+02  -4.861852e+01
  -8.713188e+01  -1.740661e+02
   7.328145e+01  -1.111302e+02
   1.864790e+02  -3.466338e+01
   1.784305e+02   3.456054e+01
   3.905930e+01   3.842874e+01
  -5.963299e+01   5.741976e+01
  -5.714643e-01   8.039173e+00
   1.823140e+01  -2.088487e+01
   9.989869e+01   2.605715e+01
   3.724750e+01   7.398827e+01
  -1.250791e+02   1.785268e+02
  -1.085972e+02   7.822501e+01
  -8.812499e+01  -8.237289e+01
   7.727329e+00  -2.098187e+02
   9.040237e+01  -1.668556e+02
   9.002632e+01   5.174516e+01
   4.501580e+01   7.321292e+01
  -5.193538e+00   8.166410e+01
  -1.032716e+01   2.631479e+01
  -1.045825e+02  -5.532018e+01
   1.410511e+01  -4.631255e+00
  -2.849540e+00   1.561211e+01
   8.846326e+00  -2.388840e+00
  -2.922888e+01  -8.395886e+01
  -4.850622e+01  -1.080825e+02
   4.864130e+01  -5.049014e+00
   1.238779e+02   2.754189e+01
   1.295809e+02   3.938766e+01
   2.749777e+01   3.494325e+01
  -7.702142e+01   2.468583e+01
  -1.101836e+02  -1.271782e+01
  -9.086846e+00   2.617163e+01
   3.712395e+01  -3.510113e+01
  -2.404302e+01   5.659062e+00
  -1.225678e+01  -1.190952e+01
   4.234037e+01   1.454903e+01
   9.345830e+01  -6.376827e+00
   8.342683e+01   1.751872e+01
   3.217287e+01   1.050509e+02
  -1.073144e+02   6.102733e+01
  -2.182127e+02   3.600288e+01
  -9.623297e+01  -8.051003e+01
  -7.041497e+00  -1.980678e+02
   8.753406e+01  -1.744611e+02
   7.648191e+01  -6.823757e+01
   1.215715e+02   2.369600e+01
   9.537678e-01   3.704100e+01
   3.776706e+01   2.332058e+01
   1.988176e+01   2.260521e+01
   3.363209e+01   5.872123e+01
   3.586881e+00   8.564534e+01
  -4.257078e+01   7.068324e+01
  -7.238947e+01  -4.987842e+01
  -1.078765e+02  -1.145733e+02
   8.338475e+00  -1.074262e+02
   9.877908e+01  -1.158771e+01
   1.435129e+02   8.341707e+01
   1.108859e+01   9.509145e+01
  -4.856732e+01   3.042919e+01
  -8.851463e+01   1.560182e+01
  -4.112845e+00  -4.897141e+01
   1.366115e+01  -5.557648e+01
   1.587887e+01  -3.638116e+01
  -7.482056e+01  -1.690595e+01
  -5.595191e+01  -8.482610e-01
   3.303231e+01  -2.256025e+01
   1.024283e+02  -5.572869e+01
   7.421517e+01  -4.442617e+01
   6.993856e+01  -1.055105e+01
  -4.987801e+00   1.132925e+02
  -7.546530e+01   7.882033e+01
  -2.675653e+01  -2.850458e+01
  -8.935056e+00  -5.201649e+01
   5.557549e+00  -4.722226e+01
   7.842518e+01   1.452031e+01
   1.486255e+01   2.232229e+01
  -1.689942e+01   1.903697e+01
  -4.652300e+01  -4.234948e+01
  -2.068104e+01  -2.443485e+01
  -6.214835e+00   1.522866e+01
   2.432257e+01  -5.382761e+00
  -9.743358e+00  -1.719148e+01
  -1.721861e+01  -8.556121e+01
  -7.434618e-01  -2.607022e+01
   3.795431e+01   3.375139e+01
   1.146004e+01   7.607897e+01
  -4.247259e+00   6.516248e+01
  -7.762980e+01   5.450847e+01
  -3.780643e+01  -3.094317e+01
  -4.137833e+00  -4.247179e+01
   6.180946e+01  -3.211902e+01
   6.246746e+01   1.600593e+01
   3.759824e+01   2.503806e+01
   1.655776e+00   1.388175e+01
  -7.060452e+01   2.410797e+01
  -2.265245e+01  -1.201827e+00
   3.268363e+01  -1.417473e+01
   4.279464e+01   1.677930e+01
  -5.145556e+01   1.920741e+01
  -1.073435e+02   5.082148e+00
