
 $NMID
 id='ANONYMOUS ', fmtdat='(2E16.6)'
 volume=1.0
 tramp=1.0
 $END
   4.528950e+03  -7.547913e+01
   2.270473e+03   2.501800e+03
  -4.983469e+02   2.561592e+03
  -2.063094e+03   7.831145e+02
  -8.872042e+02  -3.342709e+02
   7.356403e+02  -6.578286e+02
   7.426457e+02   9.220911e+01
  -9.425554e+01   1.049500e+03
  -8.203320e+02   7.486910e+02
  -9.165196e+02  -1.094329e+01
  -4.477910e+02  -8.329090e+02
   1.575763e+02  -8.600906e+02
   5.070978e+02  -1.038688e+02
   3.981767e+02   6.783405e+02
  -1.764519e+02   6.550519e+02
  -5.579920e+02   3.087809e+01
  -3.585365e+02  -6.459207e+02
   3.343857e+02  -6.673533e+02
   6.085542e+02  -1.125562e+02
   4.243488e+02   2.970051e+02
   6.827451e+00   4.119380e+02
  -2.513860e+02   2.747484e+02
  -1.778118e+02   3.019870e+01
   9.654334e+01  -7.375522e+01
   4.825051e+02   2.104912e+02
   1.645911e+02   3.511980e+02
  -4.782093e+02   3.926047e+02
  -7.674922e+02  -1.347843e+02
  -4.065484e+02  -4.925840e+02
   2.528501e+02  -4.413078e+02
   6.604034e+02   1.784415e+02
   3.369195e+02   4.211923e+02
  -2.644218e+02   5.090127e+02
  -5.819093e+02   2.054911e+02
  -3.725899e+02  -1.733351e+02
  -8.914823e+01  -4.741771e+02
   1.507608e+02  -2.937183e+02
   1.358320e+02   2.148045e+02
  -1.256125e+02   3.869214e+02
  -4.884334e+02   4.540792e+01
  -2.661793e+02  -6.992175e+02
   3.196720e+02  -7.313690e+02
   5.698751e+02  -6.496435e+01
   1.983440e+02   5.135264e+02
  -2.519333e+02   3.367709e+02
  -3.829291e+02  -2.837461e+02
   1.111423e+02  -5.068643e+02
   5.228036e+02  -9.974680e+01
   6.170478e+02   4.067540e+02
   1.410858e+02   5.458829e+02
  -3.853689e+02   2.673978e+02
  -6.955922e+02  -8.476116e+01
  -3.447971e+02  -3.421696e+02
   1.023569e+02  -2.698696e+02
   4.006845e+02  -9.435420e+01
   2.388977e+02   1.223145e+02
  -6.332743e+01   5.956722e+01
  -1.459572e+02  -7.393057e+01
   1.505855e+02  -1.763536e+02
   3.238950e+02   2.153645e+01
   1.185560e+02   2.631527e+02
  -1.776464e+02   2.657339e+02
  -2.908693e+02   1.005346e+02
  -1.600320e+02  -8.827941e+01
   7.205659e+01  -1.654813e+02
   2.737833e+02  -3.480569e+02
   2.568033e+02  -1.831396e+02
   3.078915e+02   9.331242e+01
   9.454944e+01   3.551756e+02
  -1.183716e+02   3.030594e+02
  -1.444744e+02   1.446105e+02
  -4.094402e+01  -8.365884e+00
   4.034964e+00   8.600057e+01
  -1.474143e+02   1.011236e+02
  -2.809879e+02  -1.184962e+01
  -1.566066e+02  -2.601063e+02
   9.781147e+00  -2.757218e+02
   2.010137e+02   3.272596e+01
   1.733607e+02   2.324888e+02
   3.089866e+01   2.829708e+02
  -2.201317e+02   1.312509e+02
  -2.974953e+02  -1.320092e+02
  -1.402657e+02  -3.406214e+02
   1.014291e+02  -2.973105e+02
   2.344798e+02  -1.307748e+02
   9.889011e+01   4.172273e+01
   8.890013e+01   9.750858e+00
   2.414755e+02  -3.932100e+01
   3.897331e+02   7.154532e+01
   3.107762e+02   2.520960e+02
   1.824194e+01   4.678347e+02
  -2.869717e+02   3.802082e+02
  -4.686308e+02   1.989291e+02
  -2.630088e+02  -6.124416e+01
   1.099419e+01  -2.768019e+02
   1.355416e+02  -2.758570e+02
   8.520841e+01  -8.014474e+01
  -1.206402e+02   6.398317e+01
  -1.541514e+02  -1.201326e+01
  -7.015776e+01  -1.876242e+02
   1.548972e+02  -2.017140e+02
   1.921365e+02   6.452303e+01
  -5.880287e+01   2.052087e+02
  -1.669774e+02   1.218862e+01
  -1.333057e+02  -2.315349e+02
   3.487939e+01  -3.051941e+02
   2.062978e+02  -2.430494e+02
   2.938939e+02   1.002988e+02
   2.059962e+02   2.574617e+02
   9.840385e+01   1.812587e+02
  -8.438519e+01   1.878700e+02
  -1.144680e+02   5.129131e+01
  -4.064572e+01  -4.188873e+01
   9.561859e+01   5.121861e+01
   1.427073e+01   1.753787e+02
  -6.209274e+01   7.780165e+01
  -1.832926e+02   7.444434e+00
  -8.579545e+01  -7.519866e+01
   7.391615e+01  -3.438873e+01
   8.056571e+01   7.232068e+01
  -1.244175e+02   8.771178e+01
  -3.185706e+02   3.857725e+01
  -2.407769e+02  -9.228723e+01
  -6.177335e+01  -2.449930e+02
   1.953315e+02  -2.517410e+02
   2.342843e+02  -1.115061e+02
   1.724069e+02   4.797837e+01
  -3.091168e+01   7.807636e+01
  -6.612073e+01   4.155169e+00
   1.409815e+01  -1.166399e+02
   1.922292e+02  -5.465895e+01
   1.920710e+02   1.191137e+02
   9.812404e+01   1.703980e+02
  -6.621403e+01   1.660932e+02
  -1.216237e+02   2.307653e+01
  -7.083315e+01  -7.345909e+01
   4.279598e+01   1.031501e+01
   8.375440e+01   8.313315e+01
  -6.596958e+01   9.832059e+01
  -2.281685e+02   2.556401e+01
  -1.815978e+02  -8.953980e+01
  -3.833004e+01  -1.382643e+02
   1.897011e+02  -1.515473e+02
   1.785007e+02  -4.294316e+00
   3.246634e+01   9.349126e+01
  -8.303723e+01   1.100824e+02
  -6.037754e+01   4.728551e+01
  -5.350971e+01  -2.161408e+01
   1.543889e+01  -4.730058e+01
  -5.046976e+01   1.729170e+01
  -3.526409e+01  -1.352538e+01
  -4.323017e+01  -4.964112e+01
   1.101802e+01  -1.616976e+02
   8.118559e+01  -1.519212e+02
   2.233098e+02  -7.859441e+01
   2.304589e+02   1.138191e+02
   6.089515e+01   1.943842e+02
  -1.306967e+02   1.790132e+02
  -1.033639e+02   4.592510e+01
  -7.427843e+01  -1.026786e+02
  -1.899107e+01  -5.332231e+01
  -5.678039e+01  -3.435749e+01
  -6.654766e+01   2.377392e+00
  -2.415914e+01  -5.256844e+01
   7.338637e+01  -1.023147e+02
   1.399439e+02  -5.220571e+01
   7.985691e+01   6.151379e+01
   5.934743e+00   1.373469e+02
  -1.313518e+02   1.041712e+02
  -1.778833e+02  -5.141032e+01
  -1.514120e+02  -1.822463e+02
   7.427407e+01  -2.185334e+02
   2.703833e+02  -5.755490e+01
   2.334432e+02   1.037755e+02
   1.085291e+02   1.677643e+02
  -8.310602e+00   1.435897e+02
  -8.388789e+01   1.057300e+02
  -7.656901e+01   8.570592e+01
  -8.934349e+01   1.004149e+02
  -1.318423e+02   8.830982e+01
  -1.438326e+02  -3.236154e+01
  -7.428138e+01  -1.282206e+02
  -2.368768e+01  -1.681847e+02
   1.252232e+02  -1.775268e+02
   1.408017e+02  -9.908673e+00
   1.247098e+02   1.336692e+02
   5.816519e+01   1.268298e+02
  -7.073909e+01   7.053694e+01
  -9.966358e+01   1.834339e+01
  -1.815447e+01  -7.671526e+01
  -4.249578e+01  -2.222061e+01
  -2.669804e+01  -4.179895e+00
  -1.176404e+02  -1.817561e+01
  -5.978774e+01  -5.977325e+01
   4.031576e+01  -1.109527e+01
   1.378423e+02  -4.058871e+01
   1.411745e+02   3.518145e+01
   1.995640e+01   8.010505e+01
  -8.552220e+01   4.918559e+01
  -1.652587e+02   5.733002e+01
  -6.340352e+01  -5.205293e+01
   7.188051e+01  -3.133561e+01
   6.232720e+01   7.301994e+00
  -2.814973e-01   6.728347e+01
  -4.931209e+01   5.658027e+01
  -4.561552e+01  -1.681916e+01
  -3.437546e+01  -2.846962e+01
  -1.829637e+01  -1.416643e+01
  -4.666797e+01   2.903797e+00
  -1.041202e+01   5.705047e+00
  -9.518225e+01  -7.448148e+01
   7.623282e+00  -1.521617e+02
   1.321400e+02  -1.209050e+02
   1.884253e+02  -7.327439e+01
   1.289487e+02   8.323666e+01
   1.854025e+01   1.249280e+02
  -4.509385e+01   5.655770e+01
  -6.632668e+01  -2.609472e+01
   9.530483e+01  -6.135358e+01
   1.256396e+02   4.850839e+01
   4.272006e+01   8.399478e+01
  -4.668805e+01   9.887196e+01
  -1.685993e+02   5.984345e+01
  -1.690913e+02  -2.710473e+01
  -5.723509e+01  -7.521268e+01
   6.289834e+01  -8.580535e+01
   5.119383e+01  -5.971746e+01
  -6.221729e+01   6.308112e+00
  -7.033790e+01   7.208981e+00
   5.247119e+00  -1.300144e+02
   7.885591e+01  -1.437736e+02
   1.729923e+02  -5.316073e+01
   1.179464e+02   9.549759e+01
   2.481347e+01   1.727753e+02
  -8.921952e+01   1.316556e+02
  -1.579975e+02   3.778404e+01
  -2.908407e+01  -1.104842e+02
  -4.962988e+01  -9.802222e+01
   8.174013e+01  -2.278026e+01
   5.757371e+01   2.998675e+01
   5.507060e+00   2.075238e+01
   1.755588e+01  -3.492029e+01
   4.528393e+01  -8.593001e+00
   6.590177e+01   8.100267e+01
   7.166845e+01   8.825626e+01
  -6.137012e+01   1.247277e+01
  -1.099302e+02  -6.015014e+01
  -1.353524e+02  -6.325064e+01
  -2.208153e+01  -1.853721e+01
   5.895333e+01  -4.899027e+01
   8.311652e+01  -6.934706e+00
   2.800165e+01  -3.763267e+01
  -4.258626e+01  -1.131087e+01
  -7.411967e+00   4.359145e+01
  -3.954965e+00  -3.480386e+01
   5.213938e+00  -1.853579e+00
  -9.183341e+01   5.586813e+00
  -6.940421e+01  -3.276006e+01
  -1.213140e+01  -1.210626e+02
   1.181772e+02  -8.566690e+01
   1.891009e+02  -2.138388e+01
   1.298499e+02   8.165412e+01
   1.267953e+01   1.497826e+02
  -4.469549e+01   1.592933e+02
  -6.980139e+01   5.552003e+00
  -9.132168e+01  -9.861785e+00
  -1.149308e+01  -5.325683e+00
  -1.951489e+00  -8.326741e+00
  -5.982947e+01   1.572659e+01
  -2.154003e+01  -5.438697e+01
  -6.752512e+01  -9.481212e+01
   1.493104e+01  -1.286323e+02
   7.735806e+01   4.753471e+01
   7.120138e+01   1.269180e+02
  -1.682542e+01   1.084181e+02
  -8.073346e+01   1.778244e+01
  -8.555516e+01  -7.963917e+01
  -2.352455e+01  -1.130890e+02
   7.918572e+01  -5.769381e+01
   7.163018e+01  -2.320441e+01
   6.307566e+01   6.128828e+01
  -2.609191e+01   3.871941e+01
  -4.689490e+01   2.481445e+01
   2.748387e+01  -4.355938e+01
   5.342741e+01   1.375508e+01
   6.101826e+00   3.279602e+01
  -8.953741e+01   1.036672e+02
  -9.729266e+01   6.755480e+01
  -3.239857e+01  -2.079131e+01
   3.915400e+01  -1.066862e+02
   5.500914e+01  -7.492330e+01
   2.813569e+01   5.232639e-01
   2.260850e+01   3.920746e+01
  -4.188473e+01   9.145345e+01
  -4.426631e+01   7.790348e+00
  -3.457590e+01  -6.254195e+01
   4.630738e+00  -5.032558e+01
  -1.391650e+01   2.401193e+01
   1.290475e+01  -5.987525e+00
  -2.474860e+01  -2.516063e+01
   1.215529e+01  -1.824322e+01
   1.721655e+00   4.094216e+01
  -1.128389e+01   4.872454e+01
  -6.598395e+01   6.714520e+01
  -6.820030e+01   2.987691e+01
  -2.814608e+01  -5.251914e+01
   2.227603e+01  -2.281174e+01
  -1.331085e+00  -1.825652e+01
   9.258107e+01   3.416799e+01
   2.685666e+01   8.064516e+01
  -4.936123e+01   4.800028e+01
  -1.148356e+02  -5.468373e+00
  -4.350388e+01  -5.292061e+01
   7.392119e+01  -6.283155e+00
   3.902208e+01  -4.214697e+01
   2.524529e+01   1.487197e+01
  -5.793858e+01   1.099242e+01
  -2.266630e+01   5.349295e+00
   6.870790e+01  -4.271236e+01
   1.124919e+02  -5.144204e+01
