
 $NMID
 id='ANONYMOUS ', fmtdat='(2E16.6)'
 volume=1.0
 tramp=1.0
 $END
  -3.134590e+03   9.064365e+01
  -1.757571e+03  -2.154942e+03
   1.413156e+02  -2.308590e+03
   1.484753e+03  -9.952650e+02
   6.884812e+02   4.004701e+01
  -6.913128e+01   4.920546e+02
  -5.499206e+02  -1.060767e+02
   1.652284e+02  -6.582583e+02
   5.125030e+02  -5.003494e+02
   6.626822e+02   2.517380e+02
   3.057391e+02   6.173664e+02
  -8.776804e+01   6.180991e+02
  -3.211905e+02   7.403640e+01
  -2.347263e+02  -5.113666e+02
   2.335294e+02  -4.304618e+02
   4.688708e+02   9.131927e+01
   3.301359e+02   4.992598e+02
  -1.438377e+02   5.518047e+02
  -5.226705e+02   2.155660e+02
  -3.517730e+02  -2.535266e+02
  -2.765120e+01  -3.062463e+02
   1.404029e+02  -2.409248e+02
   8.577083e+01  -6.594493e+01
  -1.610245e+02  -3.340828e+01
  -4.301817e+02  -2.732548e+02
  -9.606166e+01  -4.736662e+02
   5.143947e+02  -2.812681e+02
   6.237689e+02   1.656159e+02
   2.356392e+02   3.968364e+02
  -2.874303e+02   2.546949e+02
  -5.167705e+02  -2.021720e+02
  -1.567625e+02  -4.875042e+02
   3.118623e+02  -3.086130e+02
   5.265922e+02  -1.008198e+02
   2.676296e+02   2.483847e+02
  -6.577568e+01   3.597899e+02
  -9.096918e+01   2.054049e+02
  -5.373844e+01  -9.750329e+01
   1.663914e+02  -1.624823e+02
   2.492387e+02   1.178120e+02
  -9.007971e+00   5.311960e+02
  -2.897177e+02   5.938515e+02
  -3.309538e+02   1.514804e+01
  -1.182639e+02  -4.064201e+02
   2.204271e+02  -1.720643e+02
   2.933853e+02   2.525712e+02
  -1.412109e+02   4.195456e+02
  -4.389018e+02   1.882403e+01
  -5.043579e+02  -3.153204e+02
  -6.688269e+01  -4.574685e+02
   2.982154e+02  -2.073455e+02
   5.463065e+02   1.337642e+02
   2.563286e+02   2.369492e+02
  -5.830956e+01   2.191146e+02
  -2.943603e+02   1.596883e+01
  -2.089061e+02  -6.555637e+01
   4.119167e+01  -3.572396e+01
   8.113337e+01   1.914550e+01
  -1.240415e+02   7.230800e+01
  -2.451609e+02  -9.260716e+01
  -9.964646e+01  -2.102003e+02
   1.634199e+02  -2.274337e+02
   3.053052e+02  -1.512449e+02
   2.393936e+02   1.356866e+02
  -4.202030e+01   1.997673e+02
  -2.674231e+02   3.262626e+02
  -3.566759e+02   1.554287e+02
  -2.233870e+02  -1.848401e+02
  -6.880954e+01  -3.576898e+02
   1.274078e+02  -2.348630e+02
   6.313143e+01  -1.231069e+02
   9.516438e+00  -9.245571e+01
   8.784278e+01  -4.029020e+01
   2.066296e+02  -7.931948e+01
   2.127365e+02   7.328420e+01
   1.046515e+02   2.280026e+02
  -9.017341e+01   2.046497e+02
  -1.954515e+02   1.003501e+01
  -1.128650e+02  -2.679806e+02
   5.657783e+01  -2.652911e+02
   2.267129e+02  -3.491955e+01
   2.672611e+02   2.224416e+02
   1.484148e+02   2.946280e+02
  -4.393221e+01   2.345043e+02
  -2.474637e+02   7.436830e+01
  -1.087948e+02   6.063581e+01
  -1.531346e+02   4.913120e+01
  -2.532755e+02  -6.784838e+00
  -4.266180e+02  -9.652494e+01
  -3.561960e+02  -2.493583e+02
   1.540633e+01  -3.971472e+02
   3.904028e+02  -2.864905e+02
   4.642372e+02  -1.224930e+02
   2.483868e+02   6.611706e+01
  -1.213566e+01   2.188375e+02
  -1.293224e+02   1.482913e+02
   2.823493e+00   2.796835e+01
   1.058305e+02  -1.119780e+02
   9.794643e+01   4.855626e+01
   2.727166e+01   1.282783e+02
  -1.636698e+02   9.148305e+01
  -1.206661e+02  -8.986418e+01
   1.856731e+01  -8.742630e+01
   1.504128e+02  -4.088976e+01
   6.492316e+01   2.467361e+02
  -6.994092e+01   2.766309e+02
  -2.941634e+02   1.280919e+02
  -2.960721e+02  -8.262129e+01
  -1.523457e+02  -2.203688e+02
  -5.204033e+01  -2.296327e+02
   1.088946e+02  -1.524735e+02
   9.372195e+01  -4.977092e+01
   3.920433e+01   4.054347e+01
  -2.403282e+01  -6.839847e+01
   3.269200e+01  -1.761075e+02
   1.051028e+02  -7.711493e+01
   1.112245e+02   3.206501e+01
   4.388980e+01   7.564463e+01
  -8.316611e+01  -2.065053e+01
  -4.876288e+01  -5.942460e+01
   1.214903e+02  -6.966959e+01
   2.506126e+02   2.918282e+01
   2.505773e+02   1.810353e+02
   5.961314e+01   2.262524e+02
  -1.652717e+02   2.447121e+02
  -2.683885e+02   4.351202e+01
  -1.239217e+02  -8.120481e+01
   5.246257e+01  -3.428876e+01
   8.592140e+01  -9.907649e+00
  -1.060666e+02   8.766047e+01
  -1.757136e+02   3.010627e+01
  -1.785030e+02  -1.466420e+02
  -1.045310e+02  -1.696928e+02
   1.402561e+02  -1.562057e+02
   1.258487e+02  -1.079173e+01
   3.444981e+01   2.739559e+01
  -4.903804e+01   1.473107e+01
  -5.192175e+01  -1.011697e+02
   1.059849e+02  -5.756206e+01
   1.913117e+02   5.277568e+00
   1.479968e+02   1.259159e+02
   1.573579e+01   2.042831e+02
  -1.789554e+02   1.540418e+02
  -1.643550e+02   9.769503e+00
  -9.018834e+01  -1.115631e+02
   4.867707e+01  -7.979719e+01
   8.752220e+01  -3.201611e+01
   2.589877e+00   2.478204e+01
  -2.287669e+01  -2.796038e+01
  -7.848880e+00  -2.847298e+00
   2.988089e+01  -1.373832e-01
   5.469675e+01   8.901186e+01
   1.923082e+01   1.729904e+02
  -1.300793e+02   1.514694e+02
  -2.047893e+02  -2.912473e+01
  -1.481173e+02  -1.813879e+02
  -9.651039e+00  -1.881076e+02
   1.380062e+02  -1.397860e+02
   1.080652e+02  -2.000792e+01
   1.199470e+02   6.187604e+01
   3.272229e+01   4.301004e+01
   5.482918e+01  -3.447594e+01
   9.785724e+01   1.455792e+01
   4.339262e+00   8.152390e+01
  -2.073729e+01   9.930114e+01
  -1.465051e+02   4.583844e+01
  -1.084269e+02  -4.145881e+01
   4.832278e+00  -1.158521e+02
   1.767896e+02  -8.396177e+01
   1.901986e+02   8.255697e+01
   6.532732e+01   1.786099e+02
  -1.264954e+02   1.840181e+02
  -2.569052e+02   5.847014e+01
  -2.077688e+02  -7.700491e+01
  -6.805780e+01  -1.344792e+02
   7.898405e+01  -1.368067e+02
   9.198836e+01  -9.433288e+01
   9.520663e+01  -5.447054e+01
   7.596037e+01  -9.838680e+01
   5.090961e+01  -1.005852e+02
   1.269922e+02   7.079593e+00
   1.192378e+02   1.377324e+02
  -8.360409e+00   1.515374e+02
  -9.782916e+01   1.152083e+02
  -1.305349e+02  -1.322057e+01
  -8.232777e+01  -1.418098e+02
   1.782814e-01  -1.586582e+02
   6.136162e+01  -5.054894e+01
   7.348988e+01   3.821258e+01
  -4.472301e+01   3.042612e+00
  -2.892760e+01   2.687133e+01
  -2.299981e+01   3.587435e+01
   6.439938e+01   2.249818e+01
   1.503947e+01   3.481735e+01
  -9.240454e+01   3.450019e+01
  -1.554978e+02  -1.210147e+01
  -9.341908e+01  -3.500992e+01
  -2.197281e+01  -1.269894e+02
   6.957615e+01  -5.389272e+01
   1.094447e+02  -9.349807e+00
   6.666690e+01   5.734764e+01
  -5.638367e+01   1.477441e+01
  -8.919650e+01  -3.184383e+01
  -3.660154e+01  -5.180442e+01
   2.165060e+01  -5.719431e+01
   5.978776e+01  -5.324844e+00
   1.190003e+01   2.479560e+01
   1.628649e+01   3.810113e+01
   4.250841e+01  -1.989455e+01
   5.510543e+01   5.013898e+01
   6.259892e+01   5.519995e+01
  -6.185188e+01   1.214556e+02
  -1.554303e+02   1.134727e+02
  -1.711048e+02  -3.299092e+00
  -8.961548e+01  -1.037924e+02
   9.688998e+00  -1.513425e+02
   9.340724e+01  -4.890169e+01
   5.945688e+01   2.379603e+01
  -5.972331e+01   3.962738e+01
  -9.341975e+01  -5.359755e+01
  -5.989789e+01  -1.015688e+02
   9.983968e+01  -9.174267e+01
   2.123921e+02  -4.533496e+01
   1.783006e+02   2.893948e+01
   3.182420e+01   8.545055e+01
  -5.221124e+01   3.622877e+01
  -2.762707e+01   2.280995e+00
   6.592366e+01   2.395566e+00
   8.121109e+01   1.375989e+01
   1.597076e+01   1.091452e+02
  -9.876401e+01   1.304556e+02
  -1.896596e+02   4.514332e+01
  -9.939155e+01  -7.765044e+01
  -1.051246e+01  -1.949142e+02
   3.540109e+01  -9.179921e+01
   7.819726e+01   4.611649e+01
   5.248109e+01   1.232626e+02
  -8.238062e-01   4.148464e+01
  -6.135486e+01   2.717243e+01
  -3.045305e+01  -3.831780e+01
   6.639931e+00   2.707277e+01
  -1.944596e+00   1.689112e+00
  -5.999277e+00  -6.195995e+01
  -6.325009e+01  -8.612117e+01
   5.226842e+00  -1.200301e+02
   5.679540e+01  -3.620014e+01
   1.686531e+02   6.008226e+01
   1.123028e+02   3.009884e+00
   2.734522e+00   3.397008e+01
  -1.084215e+02   4.731345e+00
  -8.930483e+01   2.765725e+01
  -1.929715e+01  -5.381123e+01
   8.425618e+01  -1.712116e+01
  -1.986583e+01  -3.774099e+01
  -1.651502e+01  -3.339539e-01
  -8.811838e+00   3.146299e+01
   6.896340e+01   2.607558e+01
   7.608433e+01   6.408504e+01
   1.269092e+01   8.932793e+01
  -1.295083e+02   9.465281e+01
  -1.618826e+02   9.648571e+01
  -1.203142e+02  -7.673324e+01
  -5.601360e+01  -1.014827e+02
   4.897806e+01  -1.584612e+02
   8.779796e+01  -2.933360e+01
   8.634237e+01   5.571062e+01
   2.100892e+01   4.486199e+01
   3.073613e+01  -2.577451e+01
   4.654540e+00   2.031173e-02
   3.202666e+00   6.429418e+01
   1.822769e+01   6.119392e+01
  -2.087504e+01   6.067027e+01
  -1.055762e+02   5.773643e+00
  -8.309113e+01  -9.780905e+01
  -1.945700e+00  -9.370457e+01
   4.679814e+01   9.560855e+00
   1.021611e+02   6.635074e+01
   5.541330e+01   6.246272e+01
  -6.241634e+01   9.058990e+01
  -1.151786e+02  -7.468489e-01
  -2.998517e+01  -6.435764e+01
  -8.603376e-01  -8.135148e+01
   3.302054e+01  -1.562066e+00
   8.812391e+00  -3.776814e+01
  -7.643230e+01   5.077648e+00
  -6.337805e+01  -5.032880e+01
   5.802551e+01  -3.919650e+01
   1.106640e+02  -3.024322e+01
   2.981902e+01   3.557905e+01
  -1.354659e+01   8.904335e+01
  -4.918277e+01   7.224238e+01
  -2.779235e+01  -3.751142e+01
  -3.432257e+01  -2.587099e+01
   4.354407e+01  -4.002226e+01
   4.721320e+01   3.721963e+01
   8.468218e+00   2.016513e+00
  -9.631627e+00   3.036029e+01
  -3.635725e+01   2.194544e+01
  -2.379695e+01  -2.152645e+01
  -4.235578e+01  -1.422142e+01
  -1.231298e+01   3.693191e+01
   8.432980e+00  -3.208810e+01
  -1.319644e+01  -3.524766e+01
  -8.605398e+00  -7.150054e+01
   2.939130e+01  -1.430459e+01
   3.967759e+01   4.898313e+01
   2.032192e+01   4.797013e+01
  -5.127702e+01   6.956823e+00
  -4.089748e+01  -2.181642e+01
  -2.213501e+01  -3.748479e+01
   6.153869e+01  -1.729303e+01
   7.878573e+01   3.182037e+01
   4.688021e+01   4.922803e+00
  -7.818540e+00   4.719545e+01
  -7.598662e+01   3.156901e+00
  -2.166790e+01  -3.345640e-01
   3.289599e+01   1.781297e+01
   3.595856e+01   2.144383e+01
  -3.261704e+01   6.080510e+01
  -1.452636e+01   2.557002e+00
