
 $NMID
 id='ANONYMOUS ', fmtdat='(2E16.6)'
 volume=1.0
 tramp=1.0
 $END
   4.167799e+03  -1.351121e+02
   2.681063e+03   2.579071e+03
  -4.308630e+02   2.593150e+03
  -1.803052e+03   1.055463e+03
  -1.242702e+03  -2.760711e+02
   3.444503e+02  -5.704783e+02
   7.750465e+02   2.749027e+02
  -6.785099e+01   7.433951e+02
  -6.859346e+02   7.137861e+02
  -8.649426e+02  -2.005643e+02
  -4.059857e+02  -7.813924e+02
   2.324456e+02  -7.846844e+02
   5.728968e+02  -1.929045e+02
   3.560996e+02   6.131521e+02
  -2.634578e+02   6.900822e+02
  -5.529653e+02  -7.908196e+01
  -2.851752e+02  -6.504204e+02
   2.568214e+02  -7.137293e+02
   6.086559e+02  -6.792848e+01
   4.595243e+02   3.400706e+02
   6.297045e+01   3.842063e+02
  -2.050661e+02   2.923583e+02
  -1.826510e+02   4.871667e+01
   6.810495e+01  -2.611752e+01
   3.149621e+02   1.944254e+02
   1.644823e+02   4.249873e+02
  -3.769756e+02   3.972943e+02
  -7.992780e+02  -1.066437e+02
  -3.580797e+02  -4.514986e+02
   3.716099e+02  -4.030880e+02
   5.453803e+02   3.214142e+01
   2.319225e+02   3.953841e+02
  -3.378440e+02   3.752332e+02
  -5.857275e+02   1.053270e+02
  -3.569790e+02  -2.173399e+02
  -6.467963e-01  -4.367830e+02
   1.540466e+02  -1.932120e+02
   5.949226e+01   1.485149e+02
  -1.203569e+02   2.913638e+02
  -3.535567e+02  -1.402612e+02
  -4.712483e+01  -6.352205e+02
   3.800792e+02  -6.250259e+02
   5.090186e+02   1.755969e+01
   2.540399e+02   5.886078e+02
  -1.844859e+02   2.309884e+02
  -3.500676e+02  -3.097558e+02
   5.696707e+01  -4.614320e+02
   4.246943e+02  -6.276387e+01
   3.933539e+02   4.211015e+02
   1.366862e+02   4.812318e+02
  -2.678652e+02   2.916646e+02
  -6.080442e+02  -6.476212e+01
  -3.437545e+02  -2.609331e+02
   1.011273e+02  -3.304128e+02
   3.255979e+02  -3.733681e+01
   2.452699e+02   1.109160e+02
  -1.007215e+02   7.714422e+01
  -9.601921e+01  -9.206480e+01
   1.227512e+02  -1.240019e+02
   3.110063e+02   2.163422e+01
   1.549720e+02   2.485539e+02
  -1.826058e+02   2.617776e+02
  -3.607305e+02   1.233591e+02
  -2.546316e+02  -1.475928e+02
   5.229995e+01  -2.511362e+02
   2.723373e+02  -2.966007e+02
   3.555974e+02  -2.254330e+02
   2.261407e+02   1.982149e+02
   1.224035e+02   4.637770e+02
  -9.925709e+01   2.771859e+02
  -1.095087e+02   1.244249e+02
  -2.923800e+01   6.026144e+01
  -1.526197e+01   4.915324e+01
  -2.088446e+02   7.390577e+01
  -2.502438e+02  -7.049720e+01
  -1.421209e+02  -2.622986e+02
   6.831854e+01  -2.006026e+02
   2.298554e+02   3.761190e+01
   1.158966e+02   2.606719e+02
  -3.592595e+01   2.686936e+02
  -2.873555e+02   5.559409e+01
  -2.675820e+02  -1.699882e+02
  -1.594692e+02  -3.142032e+02
   9.768842e+01  -2.648161e+02
   2.660699e+02  -1.113689e+02
   1.594841e+02  -5.226058e+01
   1.224349e+02  -5.158153e+01
   2.935419e+02  -3.526951e+01
   3.944244e+02   8.260599e+01
   3.655602e+02   3.265420e+02
  -4.980714e+01   3.753555e+02
  -3.746479e+02   3.139684e+02
  -4.491050e+02   1.371642e+02
  -2.946482e+02  -9.383262e+01
  -1.566493e+01  -3.021537e+02
   1.581698e+02  -2.099909e+02
   4.167820e+00  -2.521292e+01
  -1.204326e+02   8.222123e+01
  -1.354185e+02   2.124608e+01
  -4.829006e+01  -1.568127e+02
   1.304669e+02  -1.621828e+02
   1.891324e+02   5.168792e+01
  -2.061672e+01   1.726798e+02
  -1.763305e+02   1.363125e+01
  -1.004252e+02  -2.566076e+02
   6.818416e+01  -3.566936e+02
   2.638982e+02  -1.517335e+02
   3.657464e+02   5.015381e+01
   2.216045e+02   2.753592e+02
   8.420080e+01   2.550759e+02
  -1.129996e+02   1.222691e+02
  -1.658647e+02   5.929922e+01
  -6.194633e+01  -2.266992e+01
   5.855301e+01   4.043707e+01
  -9.237589e+00   1.110467e+02
  -1.116571e+02   5.164017e+01
  -1.085217e+02  -3.886636e+01
  -1.628985e+01  -1.253497e+02
   1.197337e+02  -2.762901e+01
   7.700447e+00   1.010814e+02
  -1.197736e+02   7.395093e+01
  -2.753791e+02  -2.519375e+01
  -2.831608e+02  -1.713935e+02
  -4.126554e+01  -2.098454e+02
   2.117668e+02  -2.941136e+02
   2.975760e+02  -6.655291e+01
   1.639067e+02   7.403921e+01
  -4.882891e+01   1.088475e+02
  -6.120772e+01   5.342786e+00
   5.285301e+01  -7.857088e+01
   1.560111e+02  -2.762380e+01
   1.755507e+02   9.183076e+01
   7.018090e+01   1.980478e+02
  -1.077826e+02   1.328549e+02
  -1.361582e+02  -5.062980e+00
  -5.529511e+01  -3.747083e+01
   1.335312e+01   2.823158e+01
   2.077458e+01   7.504302e+01
  -6.739919e+01   1.306860e+02
  -1.843732e+02   2.711988e+01
  -1.724293e+02  -1.395096e+02
   3.793830e+01  -2.266757e+02
   1.879927e+02  -1.378529e+02
   1.841212e+02   1.285203e+01
   6.650658e+01   9.007343e+01
  -7.669938e+01   1.126715e+02
  -9.137654e+01   2.377004e+01
   1.221652e+01  -1.442844e+01
   3.388515e+01  -2.700006e+01
  -1.915616e+01   3.342935e+00
  -3.804191e+01  -1.889644e+01
  -1.002168e+02  -7.083024e+01
  -4.418597e+01  -1.714034e+02
   1.407418e+02  -1.656147e+02
   2.112735e+02  -2.011618e+01
   1.508116e+02   1.690569e+02
   1.858565e+01   2.360969e+02
  -1.075734e+02   1.301782e+02
  -1.514155e+02   2.078469e+01
  -9.772041e+01  -5.544273e+01
  -3.429585e+01  -3.530272e+01
  -5.032992e+01   2.086817e+01
  -6.661610e+01  -3.309082e+01
  -8.827172e+00  -9.164085e+01
   3.481748e+01  -8.571880e+01
   1.402397e+02  -3.507856e+01
   8.768424e+01   5.051869e+01
  -2.456348e+01   1.191477e+02
  -1.619220e+02   9.879773e+01
  -1.822178e+02  -1.082688e+02
  -3.701560e+01  -2.154145e+02
   1.301617e+02  -2.025418e+02
   2.507139e+02  -5.160778e+01
   1.896155e+02   8.259979e+01
   6.835593e+01   1.921820e+02
  -9.448512e+01   1.694072e+02
  -8.795056e+01   7.668472e+01
  -7.892485e+01   3.387654e+01
  -4.625067e+01   7.363712e+01
  -5.077115e+01   4.018113e+01
  -1.172410e+02  -6.896547e+00
  -1.237834e+02  -1.235226e+02
  -2.792068e+01  -2.251826e+02
   3.402957e+01  -1.589523e+02
   1.995503e+02   4.397244e+00
   1.082189e+02   1.153951e+02
   1.292419e+01   1.691442e+02
  -6.527607e+01   9.647663e+01
  -4.413441e+01   1.786683e+01
   3.599744e+01  -1.086002e+01
  -2.739635e+00   1.984089e+01
  -1.820162e+01   4.984766e+00
  -8.602385e+01  -3.330240e+01
  -2.022621e+01  -2.206259e+01
   9.000781e+01  -2.872194e+01
   1.745249e+02  -3.641219e+00
   1.060180e+02   7.690066e+01
   2.955826e+01   9.717757e+01
  -1.245816e+02   4.946506e+01
  -1.639538e+02  -2.279923e+01
  -3.078099e+01  -4.121145e+01
   7.788676e+01  -7.126391e+01
   7.016941e+01   5.504061e+01
   4.514163e+01   4.737712e+01
  -6.264666e+01   3.232238e+01
  -7.635821e+01  -6.004342e+01
  -2.598248e+01  -7.525779e+01
  -6.135874e+01  -1.225197e+01
  -5.007421e+01  -1.128079e+01
  -5.238147e+01   3.954333e+00
  -4.584319e+01  -9.389535e+01
   4.203662e+01  -1.535265e+02
   1.389233e+02  -9.026605e+01
   1.734941e+02   1.596767e+01
   6.855907e+01   1.018344e+02
  -6.196093e+01   1.582741e+02
  -6.385844e+01   3.846780e+01
  -6.206605e+01   1.425845e+01
   2.047281e+01   1.278695e+01
   1.072552e+02   2.107040e+01
   6.915863e+01   8.352145e+01
  -1.023458e+02   1.149441e+02
  -1.489546e+02   3.064256e+01
  -1.702899e+02  -4.156351e+01
  -4.701536e+01  -1.295210e+02
   1.479473e+01  -6.679031e+01
   2.311301e+01  -1.754724e+01
  -4.551905e+01   6.218265e+01
  -8.270647e+01  -4.391596e+01
  -1.145396e+01  -1.547305e+02
   8.737887e+01  -1.624308e+02
   1.707115e+02  -7.272655e+01
   1.136173e+02   3.262426e+01
   3.094400e+01   1.778582e+02
  -7.239649e+01   1.370918e+02
  -7.619503e+01  -2.887880e+01
  -5.888870e+01  -1.195048e+02
  -8.299176e+00  -5.310083e+01
   2.668379e+01  -1.145567e+01
   5.057414e+00   1.621986e+01
   5.558706e+01   3.900340e+01
   5.195516e+00  -1.043433e+01
   2.306269e+01  -5.926210e+00
   5.256474e+01   6.903448e+01
   5.494146e+01   6.304893e+01
  -8.230698e+01   1.214670e+01
  -1.640315e+02  -6.164678e+01
  -8.952229e+01  -4.181493e+01
  -6.765921e+01  -5.711848e+00
   7.604450e+01  -3.173405e+01
   4.081663e+01  -2.087841e+01
   6.211379e+01   1.811056e+01
  -3.621327e+01  -4.627963e+00
  -2.904219e+01  -1.324400e+01
  -5.223913e+00   7.188210e+00
   5.590750e+00   1.283231e+01
  -6.668051e+01  -1.851574e+01
  -5.075231e+01  -2.580719e+01
  -1.536791e+01  -1.104827e+02
   1.284643e+02  -1.081135e+02
   1.170744e+02  -1.093241e+01
   8.927790e+01   9.798599e+01
   7.193112e+00   1.889308e+02
  -8.772910e+01   1.760456e+02
  -1.144699e+02   4.333053e+01
  -1.026121e+02  -4.922418e+01
  -1.723575e+01  -1.272078e+01
   9.488229e+00  -2.843267e+01
   2.341220e+01   5.971727e-01
   5.791661e-01  -7.772344e+01
   2.248253e+00  -1.267357e+02
   1.680602e+01  -7.077235e+01
   4.270028e+01  -1.918608e+01
   1.295083e+02   1.266391e+02
   1.597931e+01   1.170192e+02
  -8.033161e+01  -7.390621e+00
  -1.372437e+02  -5.989783e+01
  -7.405382e+00  -7.737641e+01
   3.497512e+01  -4.519333e+01
   1.287714e+02   2.165212e+01
   6.184326e+00   5.931776e+01
  -5.938714e+01   4.939924e+01
  -1.615453e+01   2.650390e+01
   2.335215e+01   3.732167e+01
   6.946253e+01  -3.863587e+01
  -2.361505e+01   3.842033e+01
  -5.216573e+01   2.740307e+01
  -1.217262e+02   2.968126e+01
  -4.848884e+01  -3.153147e+01
   6.690309e+01  -6.300894e+01
   5.892880e+01  -6.290746e+01
   4.399783e+01   2.521156e+00
   1.058459e+01   3.176657e+01
  -4.463276e+01   6.714656e+01
  -2.718114e+01  -1.090590e+01
  -3.905242e+01  -6.449033e+01
   3.595434e+01  -6.459023e+01
   4.940808e+01   5.287344e+01
   5.207227e+01   1.654599e+01
   3.196744e+01   1.517190e+00
  -8.296103e+00  -2.504464e+01
  -3.723574e+01   5.877456e+00
   1.036939e+01   2.662981e+01
   2.178458e+01   5.963754e+01
   5.314235e+00  -1.826891e+01
  -2.268892e+01  -6.327079e+01
   1.513021e+01  -1.052659e+02
   5.642046e+01  -4.030532e+01
   4.445709e+01   3.911118e+01
  -1.145911e+01   7.654031e+01
  -7.823850e+01   1.833908e+01
  -1.193818e+02  -1.155353e+01
  -3.896114e+01  -3.801406e+01
   2.245503e+01  -8.835091e+01
   7.552372e+01   2.483287e+01
   4.534656e+01  -9.541247e+00
  -3.147377e+01  -1.250813e+01
  -7.195311e+01   1.500544e+00
   3.040915e+01  -2.585771e+01
   6.453681e+01  -1.453183e+01
