
 $NMID
 id='ANONYMOUS ', fmtdat='(2E16.6)'
 volume=1.0
 tramp=1.0
 $END
  -4.059659e+03  -1.438950e+02
  -2.815442e+03  -2.835925e+03
   6.572030e+02  -2.725121e+03
   2.029116e+03  -1.102650e+03
   1.302309e+03   6.030735e+02
  -5.809366e+02   4.771811e+02
  -9.113639e+02  -5.519049e+02
  -1.141505e+02  -9.997667e+02
   9.676569e+02  -7.552253e+02
   9.390397e+02   2.293268e+02
   5.319179e+02   8.298119e+02
  -2.029288e+02   9.887649e+02
  -6.474084e+02   2.219891e+02
  -3.217513e+02  -7.242923e+02
   2.466554e+02  -8.381853e+02
   6.340101e+02  -1.628570e+01
   3.479332e+02   7.144489e+02
  -3.918648e+02   6.633500e+02
  -5.804006e+02   6.033805e+01
  -5.123475e+02  -4.011548e+02
   5.276972e+00  -4.740088e+02
   1.954343e+02  -3.252899e+02
   1.983364e+02  -2.193419e+01
  -1.046509e+02   6.384813e+01
  -3.380104e+02  -1.828767e+02
  -1.589067e+02  -4.745789e+02
   4.207067e+02  -3.648208e+02
   8.655438e+02   9.104510e+01
   4.897190e+02   5.366400e+02
  -3.970360e+02   4.494982e+02
  -8.416764e+02  -6.035881e+01
  -3.497903e+02  -4.612802e+02
   3.206958e+02  -4.853427e+02
   6.272368e+02  -1.149806e+02
   3.988288e+02   2.587534e+02
   1.122512e+02   4.649136e+02
  -1.813681e+02   2.734820e+02
  -1.411540e+02  -1.624370e+02
   1.516800e+02  -4.740817e+02
   3.768768e+02   5.023664e+01
   2.070372e+02   6.367688e+02
  -3.813175e+02   8.318631e+02
  -5.928443e+02  -1.337995e+01
  -3.297622e+02  -6.671242e+02
   2.546880e+02  -3.244386e+02
   4.436771e+02   3.891988e+02
  -2.545305e+01   5.314646e+02
  -5.485101e+02   2.501708e+02
  -5.163581e+02  -4.772098e+02
  -1.921902e+02  -5.683792e+02
   3.807050e+02  -3.943102e+02
   6.483624e+02   1.009063e+01
   3.930463e+02   3.767493e+02
  -1.985001e+02   3.616122e+02
  -4.473524e+02   7.344266e+01
  -2.595461e+02  -1.765718e+02
   7.175705e+01  -1.002846e+02
   1.541144e+02   8.045256e+01
  -1.526124e+02   1.279456e+02
  -3.580053e+02  -2.724908e+01
  -2.318647e+02  -3.300702e+02
   2.132694e+02  -2.810845e+02
   3.632965e+02  -1.369636e+02
   2.312418e+02   1.676382e+02
  -8.460897e+01   2.717727e+02
  -2.895871e+02   2.523081e+02
  -3.376795e+02   2.647285e+02
  -2.761527e+02  -2.018059e+02
  -4.855123e+01  -5.021785e+02
   1.347233e+02  -4.369743e+02
   9.596412e+01  -1.302237e+02
   6.637487e+01  -3.279254e+01
   4.076462e+01  -1.153565e+02
   2.273539e+02  -1.679286e+02
   2.763416e+02   8.780969e+01
   1.645774e+02   2.962743e+02
  -7.214446e+01   2.346969e+02
  -2.309015e+02  -4.451390e+00
  -1.951962e+02  -2.680709e+02
  -1.172412e+01  -2.762465e+02
   2.570349e+02  -5.816675e+01
   3.230621e+02   1.441412e+02
   2.518311e+02   3.770213e+02
  -9.829738e+01   2.740586e+02
  -2.175879e+02   1.722159e+02
  -1.566669e+02  -2.640450e+01
  -9.444954e+01   1.429585e+01
  -2.415047e+02   7.358346e+01
  -3.367182e+02  -8.273862e+01
  -3.612492e+02  -3.669297e+02
   5.552277e+01  -4.453786e+02
   4.163453e+02  -3.640005e+02
   4.435366e+02  -2.310612e+02
   3.155784e+02   6.591629e+01
   8.771173e+01   3.071223e+02
  -1.408050e+02   2.522355e+02
  -5.802009e+01   5.173736e+01
   8.296851e+01  -1.138164e+02
   1.639769e+02  -2.272229e+01
   4.657338e+01   1.424595e+02
  -1.221438e+02   1.602991e+02
  -1.854000e+02  -4.408066e+01
   9.301252e+00  -1.942514e+02
   1.858479e+02  -2.406505e+01
   1.672162e+02   2.366919e+02
   5.089056e+01   4.358710e+02
  -3.195011e+02   1.312025e+02
  -3.362159e+02  -1.145394e+02
  -2.739497e+02  -2.253919e+02
  -1.023335e+02  -2.670511e+02
   1.415174e+02  -1.716344e+02
   1.723576e+02  -2.424067e+01
   5.705877e+01   5.339331e+01
  -9.131228e+01  -4.268677e+01
  -2.260502e+01  -9.565657e+01
   1.440843e+02  -8.941129e+01
   1.951352e+02  -1.770421e+01
   6.052530e+01   8.636131e+01
  -8.380367e+01   4.268834e+01
  -1.049991e+01  -6.675528e+01
   1.058561e+02  -9.928312e+01
   2.980824e+02   1.437690e+01
   2.610867e+02   1.322772e+02
   3.473730e+01   2.456123e+02
  -1.822875e+02   2.474733e+02
  -2.714635e+02   8.758964e+01
  -1.699000e+02  -5.384965e+01
   2.316525e+01  -1.165507e+02
   6.774300e+01  -2.189867e+01
  -5.838711e+01   6.150265e+01
  -1.654219e+02   7.103063e+01
  -2.461589e+02  -4.926394e+01
  -1.057001e+02  -1.993848e+02
   9.994251e+01  -1.464925e+02
   1.650886e+02  -9.631947e+00
   7.350128e+01   2.316148e+01
  -3.631119e+01  -7.268245e+00
   1.709597e+01  -9.097476e+01
   7.345283e+01  -1.221526e+02
   1.714462e+02  -1.244188e+01
   1.833505e+02   1.137221e+02
   2.133586e+01   2.189308e+02
  -1.430625e+02   2.112222e+02
  -1.880077e+02  -4.667974e+01
  -8.757353e+01  -1.615242e+02
   8.364831e+01  -1.113025e+02
   1.124092e+02  -4.800475e+01
   5.160868e+00   2.203145e+01
  -4.285410e+01   1.253577e+00
  -1.002586e+01   1.590148e+01
   7.400748e+01   1.402989e+01
   9.440828e+01   9.917368e+01
  -1.549611e+01   1.840022e+02
  -1.752687e+02   1.736543e+02
  -2.528702e+02  -4.630672e+01
  -1.895191e+02  -1.269549e+02
  -3.035329e+01  -2.465141e+02
   8.452162e+01  -1.731077e+02
   1.512543e+02  -2.131988e+01
   7.021256e+01   8.768463e+01
  -4.220759e+00   2.237995e+01
   6.104394e+01  -2.992264e+01
   9.715986e+01  -1.949005e+01
   3.266412e+01   8.430678e+01
  -3.003231e+01   9.147221e+01
  -8.020642e+01   1.135927e+00
  -9.583270e+01  -6.095165e+01
   2.029822e+01  -6.482533e+01
   1.787170e+02  -1.025344e+02
   1.805932e+02   5.589309e+01
   3.533124e+01   2.286249e+02
  -1.132534e+02   1.893612e+02
  -3.071353e+02   3.505651e+01
  -2.712666e+02  -6.849527e+01
  -1.159894e+02  -1.566746e+02
   3.343246e+01  -1.142903e+02
   7.853085e+01  -1.022622e+02
   9.669043e+01  -3.362805e+01
   4.203612e+01  -1.120252e+02
   1.005950e+02  -4.148759e+01
   1.402617e+02   2.839871e+01
   1.469172e+02   1.767574e+02
   6.169007e+01   2.471333e+02
  -8.720935e+01   2.059754e+02
  -1.997533e+02  -1.773262e+01
  -1.123833e+02  -1.085025e+02
  -4.851899e+01  -2.018434e+02
   5.945861e+01  -8.067087e+01
   7.905959e+01   2.677302e+01
   1.643471e+01   4.973031e+01
   2.825113e+00   1.035462e+01
   5.931289e+01   6.621146e+01
   6.587797e+01   6.833443e+01
   6.865472e+01   3.203041e+01
  -2.641275e+01   1.697415e+01
  -1.855742e+02  -1.017228e+01
  -9.936171e+01  -7.551063e+01
  -1.110218e+01  -1.229741e+02
   1.315647e+02  -6.075967e+01
   1.473144e+02   1.606422e+01
   4.643072e+01   3.588006e+01
  -2.645751e+01  -7.269630e+00
  -2.646036e+01   1.343526e+01
  -7.753429e+01  -7.838964e+01
   4.271263e+01  -6.026435e+01
   5.661318e+01   5.458839e+01
   4.336880e+01   6.727828e+01
   4.013524e+01   6.155908e+01
   5.842378e+01   6.167935e+00
   8.290886e+01   5.372638e+01
   6.263677e+01   7.154019e+01
  -6.155196e+01   1.738970e+02
  -1.962609e+02   1.301695e+02
  -1.389312e+02   4.575211e+00
  -9.975390e+01  -9.719076e+01
  -1.650531e+01  -1.639101e+02
   6.540260e+01  -1.063439e+02
   1.577377e+01   4.207544e+00
  -3.870563e+01   2.333121e+01
  -1.549772e+02  -1.795809e+01
  -7.171207e+01  -1.092074e+02
   7.191948e+01  -9.892280e+01
   1.766034e+02  -2.571812e+01
   1.751033e+02   4.684464e+01
   7.652308e+00   1.077636e+02
  -6.079012e+01   8.435485e+01
  -6.472370e+01  -1.076024e+01
   2.448995e+01  -2.818259e+00
   6.931245e+01   3.275915e+01
  -5.031338e+00   1.484296e+02
  -7.071644e+01   1.484511e+02
  -1.356399e+02   5.706594e+01
  -1.142543e+02  -8.647488e+01
  -3.676582e+01  -2.491238e+02
   7.150879e+01  -1.480241e+02
   8.317085e+01   3.891577e+01
   2.662569e+01   9.035143e+01
  -2.982931e+01   1.181322e+02
  -2.442838e+01   2.000385e+01
  -6.281727e+01  -2.369866e+01
   1.757935e-01  -6.045263e+00
   3.388184e+01   6.618455e-01
   2.456129e+00  -2.978668e+01
  -5.610070e+01  -8.267378e+01
  -4.550738e+01  -1.089863e+02
   7.686177e+01  -4.720665e+01
   1.525863e+02   4.103721e+01
   1.465361e+02   6.633395e+01
  -5.783230e+00  -2.861561e+01
  -1.229727e+02   1.406052e+00
  -1.055445e+02   2.195554e+01
  -3.236523e+01  -2.218273e+01
   4.908570e+01  -2.683877e+01
   1.339421e+01  -4.943774e+00
  -5.517582e+00   4.329129e+01
   1.136753e+01  -2.545208e+01
   8.314266e+01   2.690342e+01
   9.368189e+01   7.193890e+01
  -7.714644e+00   8.189183e+01
  -1.261942e+02   1.143717e+02
  -1.916964e+02   5.634223e+01
  -1.444291e+02  -1.000795e+02
   1.209499e+01  -1.963718e+02
   8.591397e+01  -1.590855e+02
   1.280942e+02   3.240955e+00
   7.401175e+01   2.852938e+01
  -2.505988e+01   3.238174e+01
   4.916282e+01  -2.327340e+01
   1.478972e+01  -1.336737e+01
   4.145182e+01   3.187826e+01
   1.654105e+01   7.855534e+01
  -5.171007e+01   6.466703e+01
  -4.792501e+01  -1.980147e+01
  -1.025967e+02  -1.629911e+02
  -4.339642e+00  -1.356175e+02
   8.620566e+01   6.827120e+00
   9.899848e+01   8.233618e+01
   8.619118e+00   9.628001e+01
  -7.166864e+01   7.004133e+01
  -1.671610e+02  -3.543184e+01
  -2.561608e+01  -4.139395e+01
   5.092465e+01  -5.528024e+01
   7.527798e+01   6.927565e-01
  -1.084649e+01  -1.372934e+01
  -8.465001e+01  -1.093100e+01
  -3.021652e+01  -6.868416e+00
   1.061265e+02  -1.188860e+02
   1.295158e+02  -5.565916e+01
   4.660170e+01   2.544703e+01
  -2.589836e+01   6.112521e+01
  -4.149152e+01   5.376008e+01
  -4.593123e+01   6.871655e+00
   1.375800e+01  -4.423909e+01
   1.373859e+01  -2.384617e+01
  -1.491370e+01  -6.665602e+00
  -1.284379e+01   4.031536e+01
  -1.035590e+01   4.199183e+01
  -6.504808e+01  -3.609422e+01
  -4.659837e+01  -2.894361e+01
  -1.269531e+01   2.141430e+01
  -1.298776e+01  -1.722078e+00
  -2.700759e+01   1.540316e+01
   2.609709e+01  -3.950627e+01
  -2.362116e+00  -6.928079e+01
   1.404322e+01  -3.134608e+01
   3.041686e+01   5.761091e+01
  -1.102005e+01   4.636059e+01
  -6.089680e+01   6.083141e+01
  -5.188646e+01  -4.192984e+01
  -3.016892e+01  -4.083600e+01
   5.809213e+01  -4.666802e+01
   9.647490e+01   6.605381e+00
   3.029699e+01   8.400499e+01
  -2.790283e+01   5.976787e+01
  -4.295748e+01   1.732395e+01
  -7.603046e+00  -6.899612e+01
   7.273375e+01   3.168416e+01
   2.987861e+01   8.267131e+00
  -6.994827e+01   1.234812e+01
  -6.759112e+01   2.923600e+01
