
 $NMID
 id='ANONYMOUS ', fmtdat='(2E16.6)'
 volume=1.0
 tramp=1.0
 $END
   3.513944e+03  -3.328332e+02
   2.660442e+03   2.430394e+03
  -5.897005e+02   2.691866e+03
  -2.026714e+03   1.392553e+03
  -1.164647e+03  -4.859434e+02
   3.712268e+02  -6.106581e+02
   8.539389e+02   2.617052e+02
   1.268303e+02   1.013078e+03
  -8.032767e+02   8.006307e+02
  -8.300854e+02  -1.029446e+02
  -5.267818e+02  -8.221326e+02
   1.287153e+02  -9.372032e+02
   5.888680e+02  -1.813959e+02
   3.563957e+02   7.017806e+02
  -3.481825e+02   6.955692e+02
  -5.222803e+02   8.804315e+01
  -3.188860e+02  -7.308331e+02
   2.368164e+02  -7.479561e+02
   5.670806e+02  -1.126845e+02
   4.681342e+02   2.925430e+02
   4.825036e+01   4.981523e+02
  -1.819875e+02   3.332922e+02
  -2.280036e+02   5.391664e+01
   9.304346e+01  -3.837769e+00
   4.033194e+02   8.503900e+01
   1.342939e+02   4.488782e+02
  -4.069263e+02   3.596670e+02
  -7.308518e+02  -2.887876e+01
  -4.179380e+02  -4.799612e+02
   3.719437e+02  -4.853366e+02
   7.808658e+02  -1.382378e+01
   4.371727e+02   4.722098e+02
  -2.242213e+02   4.881576e+02
  -5.080175e+02   1.550310e+02
  -3.984403e+02  -2.250802e+02
  -9.208655e+01  -3.939841e+02
   2.037835e+02  -3.435459e+02
   1.656900e+02   1.455035e+02
  -7.819486e+01   4.294972e+02
  -3.719461e+02  -3.322693e+01
  -2.621033e+02  -6.908729e+02
   3.532368e+02  -7.518769e+02
   5.832494e+02   3.852978e+01
   2.716239e+02   5.788011e+02
  -2.318597e+02   2.520253e+02
  -3.930127e+02  -3.131537e+02
   1.187398e+01  -5.130842e+02
   6.072459e+02  -1.914851e+02
   5.599952e+02   4.113025e+02
   2.705125e+02   6.663289e+02
  -3.826215e+02   4.432821e+02
  -6.716350e+02  -5.386996e+01
  -4.071111e+02  -4.031423e+02
   1.857857e+02  -3.944167e+02
   4.436739e+02  -6.958754e+01
   2.351543e+02   1.014272e+02
  -8.872382e+01   1.302244e+02
  -1.323457e+02  -8.821132e+01
   1.694580e+02  -9.106080e+01
   3.722108e+02   2.589226e+01
   1.833212e+02   2.760266e+02
  -1.441653e+02   2.477246e+02
  -3.883689e+02   8.584407e+01
  -2.020417e+02  -7.444508e+01
   8.278053e+01  -2.942979e+02
   2.147536e+02  -3.564327e+02
   3.547685e+02  -2.000128e+02
   2.696757e+02   2.016096e+02
   1.004290e+02   4.513516e+02
  -7.984486e+01   4.172830e+02
  -1.110209e+02   8.949280e+01
  -7.999301e+01  -5.618924e+00
  -8.212325e+01   1.443743e+02
  -2.154971e+02   1.445578e+02
  -2.580442e+02  -3.753492e+01
  -1.635899e+02  -3.157131e+02
   5.622107e+01  -2.341614e+02
   2.667394e+02   2.619888e+01
   1.966719e+02   2.381616e+02
   5.573555e+01   2.480454e+02
  -2.785661e+02   1.107783e+02
  -3.493567e+02  -1.042049e+02
  -1.729339e+02  -3.607038e+02
   8.533460e+01  -3.282840e+02
   2.382916e+02  -1.706133e+02
   1.461910e+02  -4.522102e+00
   1.165945e+02  -8.940375e+01
   2.129087e+02  -4.480581e+01
   3.661555e+02   6.832596e+01
   3.668818e+02   2.935549e+02
   3.032091e+01   5.033112e+02
  -3.766448e+02   3.895508e+02
  -4.863262e+02   2.643225e+02
  -3.863440e+02  -9.328793e+01
  -1.042197e+02  -3.401682e+02
   1.291677e+02  -3.127155e+02
   5.119623e+01  -8.297018e+01
  -1.016619e+02   1.143065e+02
  -2.208673e+02   4.474324e+01
  -4.948848e+01  -1.565366e+02
   1.298681e+02  -1.130407e+02
   1.844739e+02   3.010709e+01
  -4.633626e+01   1.629833e+02
  -1.906613e+02   9.654607e+00
  -1.697893e+02  -2.645234e+02
  -6.219085e+00  -4.100247e+02
   2.351923e+02  -1.734712e+02
   3.545154e+02   5.938925e+01
   2.734365e+02   2.310068e+02
   3.721156e+01   2.280545e+02
  -1.539086e+02   2.034455e+02
  -1.788909e+02   5.734884e+00
  -2.641596e+01  -3.292780e+01
   9.257720e+01   6.495167e+01
  -3.584549e+01   1.184640e+02
  -1.112267e+02   8.917983e+01
  -1.497405e+02   6.629394e+00
  -5.596500e+01  -6.580901e+01
   4.758091e+01  -3.946984e+01
   3.397673e+01   5.401223e+01
  -1.430971e+02   1.531239e+02
  -2.676710e+02  -3.399194e+01
  -2.239162e+02  -1.588771e+02
  -3.124803e+01  -2.230926e+02
   2.238869e+02  -1.788558e+02
   2.865920e+02  -9.156215e+01
   1.934896e+02   3.265638e+01
  -1.282099e+01   7.589235e+01
  -7.959861e+01  -1.981459e+01
  -2.821074e+00  -8.610543e+01
   2.310746e+02  -1.091325e+02
   2.057988e+02  -1.984456e+00
   1.083728e+02   2.612864e+02
  -7.289070e+01   1.697477e+02
  -1.070408e+02   2.658051e+01
  -9.185768e+01  -4.769719e+01
  -2.966008e+00  -8.207884e-01
   2.165418e+01   9.373515e+01
  -8.529790e+01   1.239245e+02
  -2.253190e+02   1.495545e+01
  -1.999977e+02  -1.203148e+02
   2.510509e+01  -2.310240e+02
   1.884131e+02  -1.328688e+02
   2.072405e+02  -1.765308e+01
   9.295905e+01   1.343396e+02
  -8.371913e+01   1.218319e+02
  -9.236796e+01   6.699308e+00
  -3.117556e+01  -2.669499e+01
   2.958913e+01  -5.835004e+01
  -1.605219e+01   9.008441e+00
  -9.209964e+01  -2.240285e+01
  -1.140669e+02  -7.636856e+01
   5.236250e+00  -1.413376e+02
   1.775873e+02  -1.579360e+02
   2.289059e+02  -1.592504e+01
   1.938061e+02   1.250197e+02
   7.092061e+01   2.343302e+02
  -1.049442e+02   1.705406e+02
  -1.636446e+02   1.499727e+01
  -9.081765e+01  -3.327376e+01
  -3.474333e+01  -4.718623e+01
  -3.037419e+01   3.340953e+01
  -3.717016e+01   1.753999e+01
  -2.637529e+01  -5.136040e+01
   1.894554e+01  -1.023567e+02
   1.331812e+02   1.760141e+01
   1.209653e+02   3.982735e+01
   1.479251e+01   9.904652e+01
  -1.736005e+02   1.633998e+02
  -2.096806e+02  -5.718252e+01
  -1.054407e+02  -1.781002e+02
   6.700373e+01  -2.197156e+02
   2.654893e+02  -7.730415e+01
   2.259394e+02   8.576097e+01
   1.525207e+02   1.794425e+02
  -2.190025e+00   1.037684e+02
  -8.570131e+01   7.904816e+01
  -1.038114e+02   6.768416e+01
  -6.936272e+01   8.341173e+01
  -9.533509e+01   8.066291e+01
  -1.240153e+02  -3.228151e+01
  -1.267083e+02  -1.750470e+02
  -1.097220e+01  -2.180163e+02
   7.789018e+01  -1.762302e+02
   2.072906e+02  -2.033441e+01
   1.143103e+02   1.496515e+02
   1.014376e+01   1.780558e+02
  -7.234222e+01   1.327215e+02
  -3.693609e+01  -8.936652e+01
   2.266858e+01  -5.235396e+01
   1.921511e+00  -4.987241e+01
  -3.664806e+01  -2.068357e+01
  -9.806431e+01  -3.258203e+01
  -2.416373e+01  -2.563296e+01
   7.135133e+01  -2.554932e+01
   1.423188e+02  -2.199644e+01
   1.598589e+02   7.589473e+01
  -2.577830e+01   7.945740e+01
  -1.463419e+02   5.546338e+01
  -1.086564e+02   2.968457e+01
  -6.860628e+01  -7.940114e+01
   8.790873e+01  -1.690986e+01
   7.380687e+01   8.285251e-01
   7.239516e+00   6.275709e+01
  -6.884325e+01   7.337306e+01
  -9.630140e+01  -1.660850e+01
  -2.472245e+01  -5.711988e+01
  -2.921635e+01  -6.795904e+01
  -8.204656e+01   1.336068e+01
  -6.434220e+01  -7.527775e+00
  -2.995308e+01  -8.520873e+01
   3.001892e+01  -1.553132e+02
   1.539093e+02  -7.648889e+01
   1.456736e+02  -1.853008e+01
   1.006555e+02   1.075015e+02
   2.799206e+00   1.293966e+02
  -8.480880e+01   3.034331e+01
  -6.238799e+01  -4.568945e+01
   9.494901e+01  -3.557529e+01
   1.889274e+02   6.286939e+01
   1.013233e+02   8.336682e+01
  -4.930515e+01   1.173744e+02
  -1.795515e+02   5.861547e+01
  -1.801479e+02  -1.902882e+01
  -4.712672e+01  -7.017463e+01
   7.107186e+01  -1.833963e+01
   1.655801e+01  -3.122142e+01
  -6.274486e+01  -2.607007e+00
  -8.751247e+01  -3.397337e+01
  -3.660227e+01  -1.069499e+02
   9.368159e+01  -1.568379e+02
   1.646040e+02  -6.550663e+01
   1.303368e+02   7.634326e+01
   6.868054e+00   2.296844e+02
  -8.581050e+01   1.713139e+02
  -8.272269e+01  -2.446797e+01
  -7.816650e+01  -1.016545e+02
   3.815639e+01  -6.567374e+01
   6.287224e+01  -6.233811e+01
   6.824173e+01   5.366275e+01
   3.295932e+01  -2.424948e+01
  -8.751311e+00   1.566216e+00
   5.188257e-01   1.696312e+01
   7.460698e+01   8.388182e+01
   2.603338e+01   1.013602e+02
  -4.500668e+01   3.751891e+01
  -1.357023e+02  -4.576607e+01
  -1.453649e+02  -8.391102e+01
  -2.714389e+01  -8.198564e+01
   1.040770e+02  -3.968072e+01
   5.831335e+01   1.190098e+00
   1.055341e+01  -1.456121e+01
  -4.962840e+01   1.622148e+00
  -1.321423e+01   4.237248e+01
   1.380451e+01   1.104120e+01
  -7.755239e+00  -5.690448e+00
  -3.405018e+01   2.693248e+01
  -7.698733e+01  -4.991195e+01
  -3.976431e+01  -1.181310e+02
   1.209392e+02  -1.201428e+02
   1.767000e+02  -5.980193e+01
   1.339800e+02   6.140055e+01
   1.671873e+01   1.940279e+02
  -8.693805e+01   1.960468e+02
  -1.161776e+02   3.839086e+01
  -1.007706e+02  -4.689107e+01
  -3.315252e+00  -5.998940e+01
  -6.560854e+00  -1.094030e+01
  -3.031064e+01  -9.907576e+00
  -5.444096e+01  -1.041317e+01
  -2.013129e+01  -7.950249e+01
   5.970768e+01  -7.366073e+01
   9.380275e+01   2.301305e+01
   8.969313e+01   1.198576e+02
   2.308820e+00   1.369911e+02
  -1.296659e+02   1.950970e+00
  -1.243805e+02  -5.933735e+01
  -1.701110e+01  -1.217159e+02
   9.246352e+01  -5.130452e+01
   1.216670e+02   6.254684e+01
   7.367105e+01   9.060680e+01
  -1.994252e+01   4.026575e+01
  -4.282893e+01   1.896691e+01
   5.937398e+00   2.323253e+01
   1.016487e+02   2.714229e+01
   1.433377e+01   3.826528e+01
  -7.434016e+01   3.262071e+01
  -1.163616e+02   4.643008e+01
  -3.545963e+01   9.372603e+00
   2.093276e+01  -7.485243e+01
   1.918703e+01  -4.214797e+01
   1.668077e+01   6.267805e+00
   1.699964e+01   7.130596e+01
  -4.275963e+01   9.474240e+01
  -3.485319e+01   2.447550e+01
  -3.277285e+01  -3.631087e+01
   1.892570e+01  -4.812727e+01
   6.650614e+01   4.491358e+01
   2.796522e+01   7.137083e+01
   1.795684e+01   2.049428e+01
  -2.513748e+01  -2.131969e+01
  -1.868875e+00   4.494297e+01
  -9.424919e+00   2.872473e+01
  -6.017906e+01   2.018314e+01
  -5.511600e+01   4.793731e+00
  -6.921923e+01  -5.556193e+01
  -1.101685e+01  -6.275140e+01
   6.507650e+01  -2.858894e+01
   5.076097e+01   1.752255e+01
   1.524169e+01   8.097722e+01
  -3.290312e+01   1.351240e+01
  -9.630880e+01  -5.180661e+01
  -6.482687e+01  -2.646604e+01
   2.745052e+01  -1.534649e+01
   9.225454e+01   7.606132e+00
   3.743340e+01   7.386339e+01
  -5.929518e+01   6.000816e+01
  -5.871547e+01   1.251213e+01
   4.806703e+01  -5.329580e+01
   1.078494e+02  -3.521084e+01
