
 $NMID
 id='ANONYMOUS ', fmtdat='(2E16.6)'
 volume=1.0
 tramp=1.0
 $END
   4.420833e+03  -4.565812e+02
   2.839970e+03   2.500417e+03
  -2.710972e+02   2.762986e+03
  -1.753706e+03   1.449218e+03
  -9.873187e+02  -3.379726e+02
   4.659292e+02  -7.925292e+02
   8.050348e+02   3.927882e+02
   1.002390e+02   1.103600e+03
  -7.310105e+02   8.260518e+02
  -1.025690e+03   4.762790e+01
  -5.314860e+02  -7.880396e+02
   1.786654e+02  -7.576837e+02
   5.027818e+02  -2.562574e+02
   3.603629e+02   6.673254e+02
  -2.415306e+02   7.024052e+02
  -7.192827e+02   3.901654e+01
  -3.333406e+02  -6.799826e+02
   3.206873e+02  -6.671605e+02
   6.704850e+02  -1.389562e+02
   4.410664e+02   3.742525e+02
   8.117163e+01   4.333305e+02
  -1.941204e+02   2.317799e+02
  -1.869548e+02   8.234791e+01
   7.173417e+01  -5.301221e+01
   4.278079e+02   1.408808e+02
   2.352313e+02   4.037071e+02
  -3.692298e+02   4.485029e+02
  -8.249822e+02  -2.771911e+00
  -4.021906e+02  -4.627790e+02
   3.364885e+02  -5.635941e+02
   6.227196e+02  -4.269054e+01
   2.909014e+02   4.459841e+02
  -3.129118e+02   5.615070e+02
  -5.519992e+02   1.993578e+02
  -4.280439e+02  -2.533706e+02
  -1.327232e+02  -5.806118e+02
   1.146701e+02  -3.020987e+02
   1.848360e+02   1.545463e+02
  -6.328488e+01   3.694429e+02
  -4.378953e+02   1.731223e+01
  -2.284304e+02  -6.025769e+02
   2.963920e+02  -6.781867e+02
   5.915928e+02  -6.898783e+01
   2.220172e+02   5.117417e+02
  -2.258841e+02   4.137845e+02
  -4.246694e+02  -2.319305e+02
   2.839002e+01  -5.624164e+02
   5.337994e+02  -7.443806e+01
   5.473944e+02   2.987979e+02
   2.485229e+02   5.492666e+02
  -2.804864e+02   3.969153e+02
  -6.580864e+02  -1.081452e+01
  -4.137285e+02  -3.787160e+02
   1.381328e+02  -3.483487e+02
   4.968053e+02  -1.342566e+02
   2.580675e+02   2.178476e+02
  -8.640258e+01   1.664198e+02
  -1.071384e+02  -1.765927e+02
   1.314916e+02  -2.540326e+02
   3.063944e+02   3.968053e+01
   1.144771e+02   2.886965e+02
  -1.832048e+02   2.624303e+02
  -3.403470e+02   1.066203e+02
  -2.169568e+02  -8.052766e+01
   6.099663e+01  -1.943966e+02
   2.393907e+02  -3.148035e+02
   3.696008e+02  -1.846737e+02
   2.829876e+02   1.569776e+02
   1.159928e+02   3.850534e+02
  -1.724340e+02   3.999512e+02
  -5.405644e+01   1.606965e+02
  -2.995979e+01   2.357185e+01
  -9.494038e+01   4.261958e+01
  -2.047750e+02   1.036454e+02
  -3.146496e+02  -5.977870e+01
  -1.913213e+02  -2.492836e+02
   3.349325e+01  -2.169254e+02
   1.926923e+02  -2.383466e+01
   2.393781e+02   2.458324e+02
   4.587153e+01   2.451429e+02
  -2.827433e+02   1.540874e+02
  -3.786478e+02  -2.116214e+02
  -2.009934e+02  -2.977709e+02
   1.208101e+02  -3.054567e+02
   1.671553e+02  -1.470803e+02
   1.929484e+02  -2.409620e+01
   1.421889e+02  -9.668155e+00
   2.348415e+02  -8.256569e+01
   3.794304e+02  -6.001687e-01
   3.229287e+02   3.026844e+02
   5.122267e+01   4.426824e+02
  -3.648269e+02   4.153289e+02
  -4.089077e+02   2.439880e+02
  -3.449326e+02  -1.217329e+02
  -7.253359e+01  -2.746639e+02
   6.813643e+01  -2.927539e+02
   8.195172e+01   1.107246e+01
  -1.097393e+02   9.551364e+01
  -2.008325e+02   3.312422e+01
  -1.104319e+02  -2.314396e+02
   9.642300e+01  -1.954827e+02
   1.574751e+02   5.665721e+01
  -1.494592e+00   1.359437e+02
  -2.568309e+02   5.891243e+01
  -1.852891e+02  -1.934974e+02
   1.382215e+01  -3.746637e+02
   2.019336e+02  -2.184382e+02
   3.404721e+02   5.771489e+01
   2.910919e+02   2.543131e+02
   1.408876e+02   2.666536e+02
  -1.350197e+02   1.416270e+02
  -1.677280e+02   8.813072e+00
  -7.403993e+01  -4.477263e+01
   5.309114e+01   2.635201e+01
   1.724513e+01   1.289840e+02
  -9.129057e+01   9.542697e+01
  -1.558319e+02   3.200890e+01
  -5.656619e+01  -6.695221e+01
   1.099517e+02  -6.279040e+00
   3.601613e+01   8.161845e+01
  -1.362363e+02   1.177786e+02
  -2.575072e+02   3.257185e+01
  -3.358387e+02  -9.103643e+01
  -6.478758e+01  -2.405027e+02
   1.793075e+02  -2.362574e+02
   2.004053e+02  -1.698547e+02
   2.170640e+02   1.998126e+01
  -5.803460e+01   1.286410e+02
  -9.444424e+01   3.062011e+01
   4.396862e+01  -1.003330e+02
   2.336573e+02  -1.090421e+02
   2.026309e+02   1.459994e+02
   9.139194e+01   1.986366e+02
  -6.888866e+01   1.749440e+02
  -1.090675e+02   3.083912e+01
  -1.020391e+02  -5.610598e+01
   6.717676e+01  -6.215063e-01
   9.342169e+00   7.363085e+01
  -6.390468e+01   1.171747e+02
  -2.200738e+02   5.620115e+01
  -1.697736e+02  -1.292749e+02
  -4.960128e+01  -2.499120e+02
   1.451425e+02  -2.064807e+02
   1.928920e+02  -2.712347e+01
   9.114827e+01   1.268097e+02
  -4.774539e+01   7.006805e+01
  -8.452270e+01   1.503060e+01
  -1.399729e+01  -1.830737e+01
   3.289508e+01  -2.263179e+01
  -4.757479e+01   2.583628e+01
  -7.562148e+01   2.946385e+00
  -8.610641e+01  -6.353796e+01
  -4.569942e+01  -1.793771e+02
   1.451076e+02  -1.515748e+02
   2.013099e+02  -3.581558e+01
   1.850295e+02   6.553084e+01
   5.610536e+01   2.363043e+02
  -1.494501e+02   1.661697e+02
  -1.283223e+02   7.494641e+01
  -4.606941e+01  -4.619492e+01
  -2.118871e+01  -5.088340e+01
  -3.687519e+01  -4.326570e+00
  -7.899373e+01   2.184180e+01
   5.523694e+00  -4.406342e+01
   4.315143e+01  -1.362331e+02
   1.161124e+02  -7.545035e+00
   8.233453e+01   7.403499e+01
  -1.397518e+01   8.913580e+01
  -1.408101e+02   9.479753e+01
  -2.459176e+02   9.583269e+00
  -1.179829e+02  -1.507040e+02
   9.043215e+01  -1.786150e+02
   2.366593e+02  -1.191622e+02
   2.864893e+02   3.970922e+01
   9.094806e+01   1.988182e+02
  -1.273314e+01   1.502627e+02
  -8.546947e+01   9.112016e+01
  -1.098504e+02   4.148620e+01
  -9.529232e+01   8.324273e+01
  -1.507353e+02   6.690169e+01
  -1.667587e+02  -4.149601e-01
  -9.843005e+01  -1.658278e+02
  -1.875773e+01  -2.382334e+02
   1.086041e+02  -1.944270e+02
   1.302245e+02  -8.723536e+00
   1.379169e+02   1.605737e+02
   2.913788e+01   1.840229e+02
  -4.787850e+01   1.388932e+02
  -4.411218e+01  -8.121182e+00
   3.306134e+01  -2.823521e+01
   8.637916e+00   1.584457e+01
  -2.479460e+01  -2.471184e+01
  -1.202270e+02  -1.717821e+01
  -4.799958e+01  -2.729976e+01
   5.927610e+01   1.212327e+01
   1.597068e+02  -1.045023e+01
   1.305720e+02   4.175550e+01
   5.304281e+01   6.492816e+01
  -1.509295e+02   1.045562e+02
  -1.243690e+02   5.582485e+01
  -3.862129e+01  -3.270782e+01
   6.728777e+01  -6.143481e+01
   6.244838e+01   1.438447e+01
   2.401706e+01   6.043587e+01
  -4.128658e+01   6.263752e+01
  -6.101381e+01   2.982263e+01
  -5.371374e+01  -6.965808e+01
  -5.855184e+01  -2.534990e+00
  -5.518493e+01   4.156683e+01
  -5.337238e+01  -7.382401e+00
  -6.779327e+01  -7.939239e+01
   3.949704e+01  -1.455629e+02
   9.352824e+01  -1.414566e+02
   2.032150e+02  -9.428457e+01
   1.389633e+02   8.994401e+01
   3.823225e+01   1.070890e+02
  -1.054673e+02   2.926745e+01
  -3.621007e+01  -8.135969e+00
   3.037473e+01  -3.551850e+01
   1.428040e+02   2.439534e+01
   9.013128e+01   9.216107e+01
  -5.127430e+01   1.397020e+02
  -1.695705e+02   4.599062e+01
  -1.601328e+02  -3.055101e+01
  -6.531541e+01  -8.785520e+01
   9.650145e+01  -6.014245e+01
   2.379975e+01   5.151697e-01
  -4.724175e+00   5.489760e+01
  -9.426107e+01  -2.893418e+01
  -1.446938e+01  -1.226201e+02
   9.536337e+01  -1.456222e+02
   1.811184e+02  -8.450124e+01
   1.071149e+02   7.932648e+01
  -1.377942e+01   1.840379e+02
  -1.165780e+02   1.720448e+02
  -1.166763e+02  -1.275019e+01
  -8.265764e+01  -9.383087e+01
   3.663839e+00  -1.213707e+02
   2.939738e+01  -1.273128e+00
   3.188034e+01   4.081791e+01
   1.476461e+01  -2.470414e+01
   2.784157e+01  -1.051665e+01
  -1.921911e+00  -1.062620e+01
  -2.286089e+00   8.922734e+01
   5.509748e+01   8.679896e+01
  -2.205928e+01   3.267629e+01
  -1.874953e+02  -9.781276e+00
  -1.312971e+02  -4.789267e+01
  -1.806962e+01  -2.501677e+01
   8.258332e+01  -4.684186e+01
   6.074652e+01  -3.614071e+01
   1.665002e+01   2.299021e+01
  -6.113404e+01   2.938338e+01
  -2.217318e+01   7.699990e-01
   1.787968e+01  -2.947291e+01
  -1.545015e+01  -3.955252e+01
  -7.365877e+01   2.724636e+01
  -5.942579e+01  -8.498424e+00
  -4.227971e+01  -1.124698e+02
   9.197824e+01  -7.734458e+01
   1.878366e+02  -6.162857e+01
   8.717402e+01   3.315849e+01
   5.885454e+01   1.301917e+02
  -5.124647e+01   1.328010e+02
  -9.238659e+01   5.255878e+01
  -6.930161e+01  -2.317303e+01
   2.126926e+00  -4.495785e+01
   1.697851e+00   6.411666e+00
  -2.532537e+01  -5.225385e+00
  -2.253264e+01  -7.710135e+01
  -5.258110e+01  -1.421686e+02
   1.710646e+01  -5.830532e+01
   6.447345e+01   3.550732e+01
   6.017282e+01   1.301960e+02
   3.313855e+00   8.986783e+01
  -5.286230e+00   4.042607e+01
  -9.507016e+01  -5.398121e+01
   3.076915e+01  -1.122257e+02
   5.963050e+01  -7.326078e+01
   1.141132e+02   1.053934e+01
   2.471279e+01   4.888995e+01
  -4.446057e+01   2.994457e+01
  -4.371171e+01   3.303795e+01
   2.160405e+01  -3.186570e+00
   8.959890e+01  -1.803735e+01
  -3.778026e-01   1.978597e+01
  -7.405326e+01   5.986740e+01
  -7.460767e+01   1.214718e+01
  -8.685898e+01  -1.272693e+00
   5.020559e+00  -9.130571e+01
   3.884351e+01  -7.989509e+01
   5.191918e+01  -4.761283e+01
   1.490920e+01   4.506422e+01
  -4.456058e+01   8.113979e+01
  -6.622121e+01  -1.300935e+01
  -2.873588e+01  -3.094864e+01
   2.479978e+01  -7.136937e+01
   1.943682e+01  -1.599244e+01
   3.394681e+01  -3.898369e+00
  -1.285904e+01  -3.061098e+01
  -8.805667e+00  -2.425221e+01
   1.822125e-01   7.761748e+00
  -2.362650e+00  -3.001678e+00
  -1.511502e+01   2.811814e+01
  -6.737869e+01   1.586377e+01
  -5.326718e+01  -8.909822e+01
   1.941280e+01  -6.384519e+01
   5.073762e+01  -1.991504e+01
   2.702859e+01   5.478600e+01
   9.645436e+00   9.044837e+01
  -5.579824e+01   3.422640e+01
  -1.038586e+02   3.871820e+01
  -4.699938e+01   8.032912e+00
   2.066738e+01  -4.127086e+01
   9.851212e+01  -5.267157e+01
  -1.808221e+01   3.703394e+01
  -2.080654e+01   1.807033e+01
  -1.548610e+01  -3.301479e+00
   7.766645e+01  -2.748968e+01
   1.025779e+02   1.118844e+00
