
 $NMID
 id='ANONYMOUS ', fmtdat='(2E16.6)'
 volume=1.0
 tramp=1.0
 $END
  -4.519118e+03   4.837363e+02
  -3.096800e+03  -2.645993e+03
   5.867202e+02  -3.174003e+03
   2.242311e+03  -8.185583e+02
   1.403533e+03   6.946155e+02
  -7.098947e+02   8.881100e+02
  -1.157416e+03  -3.974598e+02
  -9.214267e+01  -1.274169e+03
   8.642407e+02  -9.519960e+02
   1.032220e+03   1.361623e+02
   6.868803e+02   8.023176e+02
  -2.870827e+02   1.026676e+03
  -7.469518e+02   1.785620e+02
  -4.417551e+02  -7.888538e+02
   4.263237e+02  -8.050097e+02
   6.709634e+02  -6.857214e+01
   2.918385e+02   7.619481e+02
  -4.115287e+02   7.546651e+02
  -6.345969e+02   7.960118e+01
  -3.908277e+02  -4.713480e+02
  -1.145907e+01  -5.004577e+02
   2.570629e+02  -2.806518e+02
   2.765689e+02  -3.752622e+01
  -5.854724e+01   5.360190e+01
  -3.980205e+02  -1.307480e+02
  -2.785173e+02  -4.331529e+02
   4.185240e+02  -4.738166e+02
   1.055080e+03   9.705790e+01
   4.769631e+02   5.846814e+02
  -4.936021e+02   4.965372e+02
  -8.235286e+02  -8.200172e+01
  -4.381727e+02  -4.819477e+02
   2.212312e+02  -5.268959e+02
   5.308371e+02  -2.495195e+02
   4.054860e+02   2.768313e+02
   4.843889e+01   4.576416e+02
  -2.128675e+02   3.773676e+02
  -1.917248e+02  -1.919223e+02
   1.127964e+02  -5.619654e+02
   4.796274e+02  -9.147171e-01
   3.133381e+02   7.091256e+02
  -3.470310e+02   7.752375e+02
  -7.036676e+02  -1.979584e+01
  -3.941983e+02  -6.429876e+02
   3.445881e+02  -4.011749e+02
   5.055156e+02   3.653946e+02
  -6.880339e+01   5.699307e+02
  -6.848951e+02   1.945515e+02
  -6.386417e+02  -3.660431e+02
  -1.727842e+02  -6.350572e+02
   4.264158e+02  -3.935605e+02
   6.558044e+02   3.296678e+01
   4.316984e+02   5.149040e+02
  -1.457075e+02   3.743904e+02
  -4.742473e+02   1.037894e+02
  -2.703389e+02  -1.707232e+02
   1.665608e+02  -1.431183e+02
   2.483057e+02   1.806644e+02
  -1.569040e+02   2.285101e+02
  -3.787878e+02  -1.243557e+02
  -9.876957e+01  -3.728044e+02
   2.061062e+02  -2.693756e+02
   3.717572e+02  -5.964570e+01
   1.107516e+02   1.514013e+02
  -3.735230e+01   1.912368e+02
  -1.717823e+02   2.513927e+02
  -3.278855e+02   1.742157e+02
  -2.835604e+02  -1.695488e+02
  -7.981619e+01  -5.137710e+02
   1.624655e+02  -3.844430e+02
   1.260089e+02  -1.623142e+02
   9.737792e+01   1.553564e+01
   1.689376e+01  -9.446219e+01
   2.116346e+02  -1.498456e+02
   2.808514e+02   8.638140e+01
   1.916471e+02   3.188854e+02
  -5.920730e+01   2.710188e+02
  -2.164501e+02   4.296576e+01
  -2.168379e+02  -1.983929e+02
  -2.543022e+01  -3.215853e+02
   2.313879e+02  -1.303274e+02
   3.993182e+02   1.676524e+02
   1.850726e+02   3.521639e+02
  -8.959207e+01   3.282675e+02
  -2.478365e+02   9.248920e+01
  -1.820494e+02  -2.421021e+01
  -9.994928e+01   2.326879e+01
  -2.099963e+02   8.994745e+01
  -4.116379e+02  -4.424365e+01
  -3.798352e+02  -2.701887e+02
  -3.950161e+01  -3.720033e+02
   3.777729e+02  -3.454874e+02
   4.869168e+02  -1.836826e+02
   3.558060e+02   9.556342e+01
   4.191074e+01   3.543642e+02
  -1.081684e+02   2.313709e+02
  -9.476694e+01   5.205931e+01
   1.142423e+02  -1.077845e+02
   2.587212e+02   2.816017e+01
   5.591371e+01   2.296126e+02
  -1.876222e+02   1.586091e+02
  -1.942182e+02  -9.892529e+01
  -9.337499e+00  -2.474543e+02
   2.304268e+02  -3.434558e+01
   1.646329e+02   2.574172e+02
  -4.254198e+01   4.248078e+02
  -2.328278e+02   1.693648e+02
  -3.154007e+02  -1.548700e+02
  -2.058774e+02  -2.848701e+02
  -6.653660e+01  -2.769239e+02
   1.156386e+02  -1.462915e+02
   1.972704e+02  -1.100491e+01
   7.870353e+01   3.186094e+01
  -9.417021e+01  -4.283710e+01
   3.400058e+00  -1.120354e+02
   1.465158e+02  -1.040822e+02
   1.693943e+02   2.520743e+01
   8.112704e+01   8.064588e+01
  -8.819297e+01   3.214714e+01
  -1.025447e+02  -5.312199e+01
   1.227623e+02  -7.019907e+01
   3.121884e+02  -5.362444e+01
   2.087812e+02   1.145662e+02
   7.503327e+01   1.991858e+02
  -1.761602e+02   2.449480e+02
  -2.756206e+02   1.054895e+02
  -1.610940e+02  -5.127078e+01
   2.331833e+01  -1.104137e+02
   1.087742e+02   3.111147e+01
  -2.312146e+01   9.141610e+01
  -2.005046e+02   1.147993e+02
  -2.152681e+02  -1.012878e+02
  -7.572655e+01  -2.195715e+02
   1.126634e+02  -1.194565e+02
   1.323623e+02  -9.165178e+00
   8.816233e+01   7.216134e+01
  -3.506809e+01   3.862528e+01
  -4.116989e+01  -7.196292e+01
   6.185949e+01  -1.084604e+02
   2.072861e+02  -1.023929e+02
   1.369904e+02   1.225218e+02
  -5.789889e-01   2.339707e+02
  -1.687556e+02   1.642129e+02
  -2.254944e+02  -3.090590e+01
  -6.679194e+01  -1.004309e+02
   1.388267e+01  -1.070904e+02
   7.410653e+01  -3.190668e+01
   2.935692e+01   1.728096e+01
  -3.412018e+01   3.311752e+00
   4.020834e+00   2.763745e+00
   1.263725e+02   1.506419e+01
   1.219610e+02   8.294169e+01
  -5.762878e+00   1.630762e+02
  -1.074634e+02   1.422158e+02
  -2.370167e+02   5.296821e+01
  -2.201659e+02  -1.373744e+02
  -2.163606e+01  -2.886679e+02
   1.072104e+02  -1.739841e+02
   1.416156e+02  -7.143347e+01
   9.712817e+01   4.136621e+01
   3.829295e+01   8.020093e+01
   6.556428e+01   1.902509e+01
   1.072507e+02   5.035694e+00
   5.108653e+01   4.671290e+01
  -6.393645e+00   7.745904e+01
  -1.132405e+02   2.300070e+01
  -8.903528e+01  -3.631148e+01
   1.062185e+01  -7.416880e+01
   1.311194e+02  -8.540197e+01
   1.993812e+02   6.772598e+01
   6.572083e+01   1.753031e+02
  -6.566802e+01   2.831361e+02
  -2.901205e+02   1.328052e+02
  -2.763621e+02  -8.817039e+01
  -1.275731e+02  -1.936500e+02
  -8.365524e+00  -1.304286e+02
   7.705452e+01  -7.782994e+01
   6.771245e+01  -1.238257e+02
   1.032147e+02  -1.289075e+02
   1.142685e+02  -4.646754e+01
   1.601562e+02   3.389519e+01
   1.188882e+02   2.349166e+02
   3.926579e+01   2.354986e+02
  -1.334889e+02   1.524012e+02
  -1.642392e+02  -5.317646e+01
  -1.502757e+02  -1.228153e+02
  -1.098861e+01  -1.800167e+02
   8.215342e+01  -4.839148e+01
   8.501559e+01  -6.244039e+00
  -2.018533e+01   4.482998e+01
   1.143818e+01   6.957680e+01
   7.670551e+01   2.508876e+01
   5.150021e+01   5.524102e+01
   3.387671e+01   1.721377e+01
  -1.141854e+02   5.930067e+01
  -1.531452e+02   6.762126e+00
  -1.235623e+02  -8.413407e+01
   1.803678e+01  -8.346931e+01
   1.144668e+02  -1.097536e+02
   1.117627e+02  -5.312384e+01
   3.536871e+01   3.519861e+01
  -5.760484e+01   1.230796e+01
  -5.454700e+01  -2.745374e-01
  -4.953837e+01  -7.941568e+01
   4.096486e+01  -6.226814e+01
   1.032512e+02   1.651646e+01
   7.348968e+00   7.365720e+01
   3.201008e+01   4.888390e+01
   7.194379e+01   1.741009e+01
   7.184075e+01   3.504905e+00
  -1.068023e+01   6.660178e+01
  -2.533886e+01   1.692876e+02
  -1.698377e+02   1.844330e+02
  -1.594028e+02  -1.967340e+01
  -1.250451e+02  -1.064546e+02
   2.376536e+01  -1.411100e+02
   1.087951e+02  -7.331756e+01
   1.121391e+02   2.686225e+01
  -6.782217e+01   1.933091e+01
  -1.451937e+02  -6.749471e+01
  -5.813099e+01  -9.633683e+01
   9.499061e+01  -8.258420e+01
   2.147840e+02  -4.492266e+01
   1.933855e+02   2.098773e+01
   4.014766e+01   7.337297e+01
  -2.965508e+01   7.181360e+01
  -1.676109e+01   2.779610e+01
  -1.857755e+01  -2.060890e+00
   1.097131e+02   4.452325e+01
   4.585612e+01   1.152739e+02
  -5.856270e+01   1.807522e+02
  -2.119269e+02   8.829011e+01
  -1.021677e+02  -1.088009e+02
   1.574811e+01  -1.889910e+02
   1.371133e+02  -1.884692e+02
   1.391703e+02  -5.985883e+00
   4.293698e+01   7.454883e+01
  -1.276792e+01   1.249649e+02
  -8.531587e+01  -4.250896e+00
  -7.082676e+01  -3.828898e+01
  -3.102417e+01  -4.513066e+01
   3.708723e+00   1.338846e+01
  -1.521531e+01   1.851645e+01
  -1.027165e+02  -9.365898e+01
  -3.596154e+01  -1.088634e+02
   1.202991e+02  -7.990144e+00
   1.274144e+02   3.829776e+01
   1.286991e+02   8.588822e+01
   2.552461e+01   5.553666e+01
  -8.544767e+01   1.564548e+01
  -7.129085e+01  -2.029564e+01
   3.647461e+01  -2.541372e+01
   6.382450e+01  -8.460944e+00
   4.636132e+00  -4.985050e+01
   1.209553e+00   1.116430e+01
   1.300901e+01   2.248855e+01
   1.196572e+02  -2.442216e+01
   1.196140e+02   2.693329e+01
   1.395464e+01   5.576342e+01
  -9.657265e+01   9.883873e+01
  -2.151725e+02   4.117982e+01
  -1.367281e+02  -8.585438e+01
   2.194120e+00  -1.545856e+02
   5.684569e+01  -1.945867e+02
   1.401660e+02  -3.408678e+01
   8.188460e+01   1.509587e+01
  -6.292742e+00   6.694646e+01
  -5.649047e+00   6.786227e+00
   3.007524e+01  -1.750497e+01
   7.065218e+00   4.051636e+01
  -1.966107e+01   9.418276e+01
  -4.724806e+01   3.257561e+01
  -1.297517e+02  -1.017817e+01
  -8.439794e+01  -1.369968e+02
  -1.871511e+01  -1.166503e+02
   5.989824e+01  -4.091882e+01
   1.346024e+02   6.082567e+01
   4.622048e+01   9.910330e+01
  -1.127560e+02   2.994594e+01
  -8.827007e+01  -4.733554e+00
  -9.224729e+01  -7.760778e+01
   6.678371e+01  -2.791558e+01
   2.497996e+01  -8.310062e+01
  -4.295880e+01   1.443710e+01
  -6.027418e+01   2.593555e+00
  -1.823621e+01  -3.046729e+01
   9.413342e+01  -5.570226e+01
   1.376451e+02  -6.130078e+01
   5.812042e+01   1.297787e+01
  -6.116408e+00   4.296043e+01
  -1.000112e+02   1.037697e+02
  -1.187225e+01  -4.166750e+01
   3.582361e+01  -6.829820e+01
   1.842894e+01  -6.328529e+00
   2.744348e+01   2.707153e+00
   4.974172e+01   7.556301e+01
  -8.148604e+00   4.100562e+00
  -5.709966e+01   1.512044e+01
  -5.711195e+01  -3.897588e+01
   3.025793e+00  -1.000639e+01
   6.165717e+00  -1.759251e+01
  -2.464072e+01  -3.413817e+01
   3.632896e+00  -1.489268e+01
   1.151179e+01  -3.727306e+01
   1.530784e+00   2.124926e+01
   6.190121e+00   4.909634e+01
   4.894743e+00   7.517712e+01
  -6.656872e+01   4.575500e+01
  -7.359497e+01  -5.053527e+01
  -7.770462e+00  -1.024580e+02
   9.967305e+01  -5.111640e+01
   9.413454e+01   1.716470e+01
   2.789622e+00   1.586114e+01
  -6.314567e+01   1.875978e+01
  -9.560310e+01   9.283200e+00
  -4.118277e+01   8.304782e+00
   4.269906e+01   3.351596e+01
   1.548214e+01   2.565919e+01
  -1.824099e+01   4.457219e+01
  -1.198882e+02   1.962445e+01
