
 $NMID
 id='ANONYMOUS ', fmtdat='(2E16.6)'
 volume=1.0
 tramp=1.0
 $END
  -4.773956e+03  -4.367586e+02
  -1.768885e+03  -3.511871e+03
   9.365883e+02  -2.588570e+03
   2.424820e+03  -8.497778e+02
   9.907101e+02   6.435625e+02
  -8.131430e+02   5.497158e+02
  -1.078664e+03  -4.557253e+02
   1.742340e+02  -1.102409e+03
   9.579183e+02  -8.005167e+02
   1.082417e+03   3.165074e+02
   2.424892e+02   9.629329e+02
  -3.040239e+02   8.990402e+02
  -7.111015e+02   4.032080e+01
  -3.729013e+02  -8.003532e+02
   2.982903e+02  -7.387629e+02
   6.755410e+02   8.231994e+01
   2.614997e+02   8.138150e+02
  -3.929058e+02   6.355912e+02
  -5.733406e+02   1.135240e+02
  -3.379621e+02  -3.907009e+02
   5.914569e+01  -4.010772e+02
   2.800768e+02  -2.780559e+02
   1.902805e+02  -1.164124e+01
  -1.277562e+02   7.168632e+01
  -3.567832e+02  -2.214702e+02
  -1.984268e+02  -5.280009e+02
   5.391444e+02  -4.266749e+02
   7.977510e+02   4.763679e+01
   3.876934e+02   6.376294e+02
  -3.905802e+02   5.328524e+02
  -7.730627e+02  -1.494393e+02
  -2.777172e+02  -5.402421e+02
   3.516526e+02  -4.321224e+02
   5.797456e+02  -1.022878e+02
   3.842740e+02   2.869038e+02
   1.322182e+00   5.395922e+02
  -1.941928e+02   2.954931e+02
  -2.329643e+02  -2.396258e+02
   2.272177e+02  -5.010016e+02
   5.176557e+02   1.071174e+02
   1.904135e+02   8.035308e+02
  -5.223873e+02   7.638880e+02
  -6.665220e+02   6.316265e+01
  -2.335846e+02  -5.716056e+02
   3.010064e+02  -3.511208e+02
   3.833149e+02   3.606304e+02
  -7.272557e+01   5.667689e+02
  -5.679314e+02   1.172029e+02
  -6.187371e+02  -4.742095e+02
  -1.249016e+02  -6.425694e+02
   4.615829e+02  -2.792727e+02
   5.577290e+02   2.039261e+02
   3.600746e+02   4.352765e+02
  -2.139024e+02   3.739946e+02
  -4.945022e+02   2.045825e+01
  -2.426002e+02  -2.266935e+02
   1.105269e+02  -1.165320e+02
   1.552559e+02   1.695039e+02
  -2.305241e+02   2.190059e+02
  -3.688702e+02  -9.210602e+01
  -1.350473e+02  -3.488455e+02
   2.923127e+02  -2.809682e+02
   3.252852e+02  -8.477790e+01
   2.077882e+02   1.174674e+02
  -3.851016e+01   1.759077e+02
  -2.094455e+02   2.757425e+02
  -3.961711e+02   2.460582e+02
  -2.903554e+02  -1.320934e+02
  -1.130290e+02  -4.752854e+02
   1.449516e+02  -3.596139e+02
   1.490228e+02  -7.569414e+01
  -2.767080e+01   6.887264e+00
  -7.132262e+00  -6.526160e+01
   2.298491e+02  -1.234846e+02
   2.895398e+02   6.281139e+01
   1.777269e+02   2.941996e+02
  -1.035443e+02   2.993663e+02
  -1.973804e+02   3.902005e+01
  -1.642315e+02  -3.076888e+02
   6.888748e+01  -3.311397e+02
   2.597581e+02  -1.536781e+02
   3.885172e+02   2.075569e+02
   1.813655e+02   3.527811e+02
  -8.450350e+01   3.734568e+02
  -2.142435e+02   6.244666e+01
  -1.757615e+02   2.122049e+01
  -1.090607e+02   4.311477e+01
  -2.762220e+02   5.083745e+01
  -4.313401e+02  -7.743395e+01
  -2.861738e+02  -3.424408e+02
   8.838409e+01  -3.686103e+02
   3.440590e+02  -3.083566e+02
   5.547678e+02  -1.687991e+02
   3.321778e+02   1.362856e+02
   8.003528e+01   3.061532e+02
  -1.472124e+02   2.780961e+02
  -8.198893e+01   4.344004e+01
   3.957476e+01  -9.592600e+01
   2.470652e+02   3.456815e+01
   3.331697e+01   2.164209e+02
  -1.496150e+02   1.879346e+02
  -2.186309e+02  -1.176804e+02
   9.156036e+00  -1.776305e+02
   1.808767e+02   1.250149e+01
   1.244040e+02   2.818950e+02
  -3.205337e+01   3.755924e+02
  -2.963813e+02   1.421555e+02
  -2.709829e+02  -8.775515e+01
  -2.741912e+02  -2.399427e+02
  -1.016447e+02  -2.627010e+02
   1.012877e+02  -1.189062e+02
   1.865114e+02  -1.836849e+01
   3.423522e+01   7.802204e+00
  -6.739033e+01  -9.464103e+01
   2.807361e+01  -1.060463e+02
   1.479095e+02  -1.085702e+02
   1.282964e+02   4.792810e+01
   8.185963e+01   1.042421e+02
  -8.570180e+01   4.817219e+01
  -5.064070e+01  -7.326137e+01
   1.589746e+02  -8.726328e+01
   2.845672e+02   3.337468e+01
   2.356417e+02   1.641820e+02
   3.278227e+01   2.679804e+02
  -1.783989e+02   2.366301e+02
  -2.515024e+02   8.912210e+01
  -1.562186e+02  -9.111335e+01
   1.623835e+01  -1.413171e+02
   6.953538e+01   1.837914e+01
  -5.227536e+01   1.413680e+02
  -2.233642e+02   7.145611e+01
  -1.936108e+02  -1.492209e+02
  -1.148086e+02  -1.663544e+02
   8.727519e+01  -1.606067e+02
   1.316818e+02  -2.351556e+01
   5.893559e+01   3.133033e+01
  -2.335951e+01  -6.230444e+00
  -5.545554e+01  -6.334510e+01
   7.796299e+01  -7.535136e+01
   2.171589e+02  -6.259440e+01
   2.199792e+02   6.912047e+01
   2.708146e+01   2.186295e+02
  -1.800030e+02   1.784905e+02
  -1.675328e+02   7.412377e+01
  -9.532844e+01  -1.419592e+02
   6.188079e+01  -7.976313e+01
   4.346943e+01  -2.029835e+01
   3.625727e+01   2.033260e+00
  -4.452881e+01   1.063311e+01
   5.208342e+01   1.779480e+01
   4.645961e+01   1.351031e+01
   1.117283e+02   8.244136e+01
  -1.858727e+01   1.200732e+02
  -1.411238e+02   1.552024e+02
  -2.322799e+02   1.679050e+01
  -1.651268e+02  -1.584017e+02
  -1.921968e+01  -2.414535e+02
   1.379036e+02  -1.852142e+02
   1.412519e+02  -2.944051e+01
   7.727675e+01   3.068361e+01
   2.931250e+00   2.826655e+01
   6.653376e+01  -1.093500e+01
   6.223515e+01  -3.312819e+01
   3.507950e+01   7.218153e+01
  -7.583221e+01   8.358943e+01
  -1.250201e+02   2.605160e+01
  -8.583732e+01  -3.995674e+01
   1.609708e+01  -1.053556e+02
   1.197928e+02  -9.759432e+01
   2.247926e+02   8.202643e+01
   6.215872e+01   1.771076e+02
  -1.106577e+02   2.560126e+02
  -2.365018e+02   4.565154e+01
  -2.213886e+02  -1.266033e+02
  -1.128101e+02  -1.881188e+02
   5.043827e+01  -1.747664e+02
   1.214819e+02  -6.139933e+01
   7.799749e+01  -8.012183e+01
   8.420400e+01  -1.030432e+02
   1.286466e+02  -1.222986e+01
   1.392270e+02   1.086989e+01
   1.101700e+02   1.333261e+02
  -7.894566e+00   2.201775e+02
  -1.223661e+02   2.004676e+02
  -1.692325e+02   4.896614e+01
  -1.304659e+02  -1.383019e+02
   1.697017e+01  -1.549696e+02
   8.064378e+01  -6.180076e+01
   7.392781e+01  -2.896387e+01
  -4.420882e+00   3.752044e+01
  -3.515464e+00   2.919575e+01
   4.176147e-01  -1.612969e+01
   7.304263e+01   1.779994e+01
  -5.522907e+00   7.412578e+01
  -6.004196e+01   5.434934e+01
  -1.423125e+02   2.114857e+01
  -1.513784e+02  -1.202511e+01
  -1.649727e+01  -1.056055e+02
   1.725052e+02  -7.200634e+01
   1.366413e+02   6.881233e+00
   5.820986e+01   5.930503e+01
  -9.012377e+01   2.528905e+01
  -8.862588e+01  -2.777271e+01
  -6.726589e+01  -8.589005e+01
   5.939436e+01  -1.054117e+02
   5.823892e+01   6.679872e+00
   2.878503e+01   7.479014e+01
   3.593724e+01   3.305406e+01
   7.488572e+01  -2.408228e+01
   4.595442e+01  -1.874507e+01
   4.155404e+01   6.114806e+01
  -9.676062e+01   1.012961e+02
  -1.230088e+02   1.417975e+02
  -1.339417e+02   4.151148e+01
  -1.129234e+02  -1.158977e+02
  -1.971576e+01  -1.231647e+02
   8.847125e+01  -4.649527e+01
   1.073889e+02   1.581839e+00
  -6.047046e+01   1.556933e+01
  -1.246709e+02  -4.466108e+01
  -5.480604e+01  -1.042750e+02
   1.274590e+02  -1.245736e+02
   2.386185e+02  -3.647082e+01
   1.754960e+02  -1.624582e+01
   2.175573e+01   8.788076e+01
  -1.408661e+01   7.584179e+01
  -8.864271e+01  -2.247719e+01
   1.322020e+01   7.106604e+00
   6.847424e+01  -2.435712e+00
   2.334772e+01   1.116106e+02
  -1.220500e+02   1.719493e+02
  -2.273527e+02   7.057383e+01
  -9.268942e+01  -8.195845e+01
  -4.013799e+01  -2.047726e+02
   7.482020e+01  -1.369215e+02
   1.249856e+02   7.249469e+00
   3.122264e+01   1.270030e+02
  -3.211098e+00   7.513004e+01
  -2.390575e+00  -1.344018e+01
  -3.487148e+01  -7.156584e+01
  -3.839460e+01   1.525649e+01
  -1.944965e+01  -1.301739e+00
  -2.054697e+01   2.876254e+01
  -3.867039e+01  -1.116009e+02
  -1.563841e+01  -1.293904e+02
   3.812216e+01  -4.077634e+01
   1.510286e+02   9.154187e+01
   1.351740e+02   7.886233e+01
   2.926800e+01   4.434820e+01
  -1.040775e+02   3.891522e+01
  -8.046711e+01   1.312484e+01
   2.326179e+00  -6.422744e+00
   3.842716e+01  -4.598611e+01
   3.859397e+01  -3.599703e+01
   8.480725e+00  -1.634653e+01
   3.439435e+01   1.135557e+00
   7.714644e+01   3.813065e+00
   5.136769e+01   3.096254e+01
   3.960416e+01   9.908993e+01
  -1.195106e+02   1.286227e+02
  -2.138035e+02   7.063249e+01
  -1.377970e+02  -8.031590e+01
  -3.106458e+01  -9.251473e+01
   8.404718e+01  -1.704982e+02
   1.393814e+02  -5.077038e+01
   4.724091e+01   6.854236e+01
   4.080886e+00   4.827672e+01
  -1.149969e+01   5.025026e+00
   4.405031e+01  -2.262909e+01
   3.701507e+01   9.030272e+01
   8.083929e+00   8.891491e+01
  -1.135033e+01   6.953580e+01
  -4.120984e+01  -5.304525e+01
  -6.712709e+01  -1.408410e+02
   1.692860e+01  -9.191521e+01
   6.588777e+01  -1.370115e+01
   1.391747e+02   5.115910e+01
   4.671425e+01   1.361874e+02
  -8.720519e+01   2.916473e+01
  -8.075971e+01  -1.832802e+01
  -8.399362e+01  -9.310618e+01
   9.642024e+00  -3.107824e+01
   1.475577e+01  -2.169285e+01
  -1.973339e+01  -4.826218e+00
  -7.540657e+01  -4.743562e+00
  -6.659574e+00  -8.043075e-01
   1.099910e+02  -5.718813e+01
   1.387330e+02  -5.495532e+01
   1.782443e+01   1.094714e+01
   6.276647e+00   7.764751e+01
  -7.270972e+01   1.102856e+02
  -7.317627e+00  -2.086797e+01
   1.205281e+01  -6.532346e+01
   3.709475e+01  -4.878171e+01
   6.007776e+01   3.821624e+01
   1.210904e+00   5.749038e+01
   1.925380e+01   9.480216e+00
  -2.086337e+01  -1.998136e+01
  -1.815993e+01  -2.362678e+01
  -3.072370e+01   1.697802e+01
  -5.652601e-01   2.433633e+01
   1.797391e+01   9.547143e+00
   3.053925e+01  -6.526928e+01
   4.110555e+01  -5.797210e+01
   5.001082e+01  -4.384911e+01
  -4.895513e+00   3.021483e+01
   1.402949e+01   8.427356e+01
  -4.170973e+01   1.341449e+01
  -5.148287e+01  -6.510154e+01
  -4.607312e+01  -7.121708e+01
   4.409965e+01  -4.714234e+01
   7.364515e+01   1.040468e+01
   4.282200e+01   3.245575e+01
  -6.029734e+01   8.211923e+01
  -8.464039e+01   2.119546e+01
   1.294399e+01  -1.103500e+01
   1.187422e+01  -9.727337e+00
   9.104948e+01   3.287122e+01
  -5.416239e-01   1.394908e+01
  -1.047357e+02   2.627380e+01
