
 $NMID
 id='ANONYMOUS ', fmtdat='(2E16.6)'
 volume=1.0
 tramp=1.0
 $END
   3.558509e+03   2.622110e+02
   2.385995e+03   2.413321e+03
  -1.951169e+02   2.235964e+03
  -1.854580e+03   1.034437e+03
  -1.308844e+03  -3.591591e+02
   3.412927e+02  -6.312306e+02
   5.289919e+02   1.888085e+02
  -2.292481e+01   9.222218e+02
  -6.861732e+02   7.413763e+02
  -8.456739e+02  -1.039552e+01
  -4.297293e+02  -7.458259e+02
   1.564408e+02  -6.481653e+02
   4.225546e+02  -3.641784e+02
   3.279149e+02   4.936891e+02
  -1.052570e+01   5.844878e+02
  -6.184205e+02  -2.123300e+01
  -2.759010e+02  -5.424522e+02
   2.816864e+02  -5.495661e+02
   4.962330e+02  -2.089743e+02
   4.050703e+02   2.438383e+02
   1.246131e+02   4.430608e+02
  -1.503559e+02   3.002599e+02
  -1.919660e+02   1.078299e+02
   1.068106e+02   1.175726e+01
   3.401778e+02   9.854629e+01
   6.498269e+01   3.466938e+02
  -3.710482e+02   3.452497e+02
  -7.189919e+02  -8.800731e+01
  -3.531081e+02  -3.167513e+02
   3.896404e+02  -3.786344e+02
   6.681430e+02   3.473013e+01
   3.105783e+02   4.247063e+02
  -2.868111e+02   5.121052e+02
  -5.114894e+02   1.695228e+02
  -4.113092e+02  -7.959349e+01
  -5.699970e+01  -4.456417e+02
   1.513556e+02  -2.397920e+02
   7.906480e+01   1.425596e+02
  -1.366903e+02   2.984080e+02
  -3.889079e+02  -9.618429e+01
  -1.154686e+02  -6.516909e+02
   3.093019e+02  -4.613357e+02
   4.925036e+02   3.050917e+01
   1.380711e+02   3.951309e+02
  -2.491043e+02   2.834427e+02
  -2.634174e+02  -3.576431e+02
  -9.668295e+00  -5.071828e+02
   5.371993e+02  -1.194229e+02
   5.522944e+02   4.540806e+02
   1.942684e+02   4.915076e+02
  -2.978431e+02   3.502966e+02
  -5.553213e+02  -6.282337e+01
  -4.247439e+02  -2.470326e+02
   8.050120e+01  -2.767108e+02
   4.180009e+02  -1.001659e+02
   2.082663e+02   1.635336e+02
  -6.010736e+01   3.271004e+01
  -1.534531e+02  -1.211309e+02
   1.321733e+02  -1.417001e+02
   3.010159e+02   1.040368e+02
   2.014405e+02   2.163927e+02
  -1.478363e+02   2.542914e+02
  -3.084434e+02   5.122666e+01
  -1.933477e+02  -6.676654e+01
   9.043135e+00  -2.545982e+02
   2.088989e+02  -3.352748e+02
   2.546285e+02  -1.795318e+02
   2.320038e+02   9.421904e+01
   4.256419e+01   2.946264e+02
  -3.317843e+01   3.926657e+02
  -1.134703e+02   1.678856e+02
  -9.582555e+01  -1.931760e+01
  -1.389722e+02   9.432302e+01
  -1.939777e+02   1.131153e+02
  -2.394274e+02  -1.026624e+02
  -6.971189e+01  -3.121913e+02
   7.342437e+01  -2.384941e+02
   1.911703e+02   2.585254e+00
   1.980526e+02   1.893811e+02
   2.028829e+01   3.036129e+02
  -3.071445e+02   1.408641e+02
  -3.456133e+02  -1.682283e+02
  -1.679303e+02  -3.348012e+02
   3.123133e+01  -2.706173e+02
   1.568572e+02  -1.999399e+02
   1.752015e+02  -2.359182e+01
   1.050352e+02  -5.436602e+01
   2.448700e+02  -4.410658e+01
   3.511928e+02   1.481231e+02
   2.845500e+02   2.377124e+02
  -2.893139e+01   4.600240e+02
  -3.485809e+02   4.954412e+02
  -4.658994e+02   2.556195e+02
  -3.011625e+02  -1.158732e+02
  -5.269974e+01  -2.529926e+02
   1.213228e+02  -2.398129e+02
   2.459685e+01  -8.939522e+00
  -1.293528e+02   3.603812e+01
  -1.875151e+02  -3.653267e+01
  -6.735083e+01  -1.912337e+02
   1.585541e+02  -1.553906e+02
   1.254400e+02   3.921423e+01
   2.611002e+01   1.843266e+02
  -1.909095e+02   4.489321e+01
  -1.209572e+02  -2.341985e+02
   2.775165e+01  -3.219309e+02
   2.083823e+02  -2.365700e+02
   2.960803e+02   1.744162e+01
   3.464235e+02   2.411100e+02
   8.064812e+01   1.967478e+02
  -1.527435e+02   1.357987e+02
  -1.443730e+02  -4.318347e+01
  -4.673455e+01  -1.857903e+00
   6.889433e+01   3.178539e+01
   3.466801e+01   1.563280e+02
  -1.020234e+02   8.736895e+01
  -2.132013e+02  -1.668848e+01
  -1.106498e+01  -6.343386e+01
   2.842115e+01  -2.307605e+01
   7.772837e+01   1.198329e+02
  -1.427437e+02   6.508914e+01
  -2.486779e+02  -5.557105e+01
  -2.850200e+02  -1.300703e+02
  -4.900759e+01  -2.544002e+02
   1.624147e+02  -2.604769e+02
   2.864461e+02  -1.701724e+02
   1.625355e+02   1.529596e+01
  -3.152982e+01   6.473965e+01
  -9.776564e+01   1.084525e+01
   1.672713e+01  -7.966632e+01
   1.877801e+02  -7.480668e+01
   2.005453e+02   7.847863e+01
   3.634295e+01   2.074601e+02
  -1.003796e+02   1.239642e+02
  -1.249406e+02   3.355407e+01
  -7.183502e+01  -2.710895e+00
  -8.870632e-01   9.259697e+00
  -2.629489e-01   9.733537e+01
  -7.488849e+01   9.705891e+01
  -2.346624e+02   2.572503e+01
  -1.687655e+02  -1.551753e+02
  -1.793191e+01  -2.295045e+02
   1.282651e+02  -1.215248e+02
   1.557109e+02   3.318526e+01
   1.590307e+01   1.190575e+02
  -6.269901e+01   1.003668e+02
  -6.036794e+01   4.510906e+01
  -1.362355e+01  -2.982641e+01
   2.962965e+01   1.834546e+01
  -2.293260e+01   1.075972e+01
  -9.686009e+01   2.824957e+01
  -5.787812e+01  -1.052118e+02
   4.089760e+01  -1.813145e+02
   1.468526e+02  -1.241638e+02
   2.219518e+02   4.268773e+00
   2.115144e+02   1.467413e+02
   5.385192e+01   2.219439e+02
  -5.975861e+01   1.773594e+02
  -1.100347e+02   3.425581e+01
  -5.969515e+01  -9.192062e+01
  -6.538197e+01   1.667936e+01
  -2.616382e+01  -5.576046e+00
  -9.257038e+01   2.825314e+01
  -7.474045e+01  -6.027286e+01
   5.201390e+01  -7.913733e+01
   5.328691e+01  -3.772313e+01
   7.985590e+01   9.154292e+01
  -2.493678e+00   1.766917e+02
  -1.133703e+02   7.945433e+01
  -1.267570e+02  -9.467675e+01
  -4.939848e+01  -1.675205e+02
   6.955619e+01  -2.121069e+02
   2.375074e+02  -9.315540e+01
   2.997546e+02   4.089167e+01
   9.451625e+01   1.711283e+02
  -8.126940e-01   1.121290e+02
  -8.168792e+01   1.376815e+02
  -1.011874e+02   8.070884e+01
  -3.086008e+01   1.217132e+02
  -9.242393e+01   1.054571e+02
  -9.353416e+01   1.408956e+01
  -8.687096e+01  -1.293301e+02
  -3.739492e+01  -2.353346e+02
   7.633463e+01  -1.669300e+02
   1.584973e+02  -3.048717e+01
   1.406548e+02   1.243719e+02
   2.514667e+01   1.243156e+02
  -6.185538e+01   9.380917e+01
  -5.568085e+01  -1.871372e+00
   1.670521e+01  -4.440517e+01
   3.675680e+01  -4.266380e+01
  -8.908735e+00  -3.275948e+00
  -5.160795e+01  -2.165659e+01
  -5.149166e+01  -4.220142e+01
   7.816283e+01  -2.883021e+01
   1.474800e+02   1.677573e+01
   1.268763e+02   2.189658e+01
   5.859569e-01   8.121127e+01
  -1.430756e+02   6.969632e+01
  -1.645092e+02   5.346311e+01
  -9.107795e+00  -2.546362e+01
   3.949403e+00  -4.460054e+01
   7.901162e+01   7.500937e+01
   8.021189e-01   1.005136e+02
  -6.804407e+01   1.053446e+02
  -6.241005e+01   1.758555e+00
  -8.310260e+00  -4.007490e+01
  -4.821612e+01  -3.077040e+01
  -4.648627e+01  -9.073993e+00
  -4.018838e+01  -1.701943e+01
  -4.360556e+00  -7.916101e+01
   5.942389e+01  -9.805026e+01
   6.044645e+01  -1.607309e+02
   1.958648e+02  -4.001948e+01
   9.690990e+01   7.487662e+01
   2.138062e+01   1.423208e+02
  -6.848683e+01   8.027880e+01
  -4.337956e+01   8.285543e+00
   8.975640e+01  -3.013127e+01
   1.147887e+02   2.291575e+01
   7.166317e+01   8.004400e+01
  -8.042414e+01   6.669495e+01
  -1.724276e+02   5.987899e+01
  -1.379996e+02  -1.769894e+00
  -5.052864e+01  -7.583839e+01
   7.750317e+01  -4.486931e+01
   4.574286e+01  -1.661189e+01
  -7.771499e+00   1.640036e+01
  -7.693012e+01  -3.571533e+01
  -3.471342e+01  -9.869510e+01
   5.846751e+01  -1.313906e+02
   2.090449e+02  -1.099454e+02
   1.219109e+02   7.242832e+01
   4.004110e+01   1.711654e+02
  -3.400674e+01   1.761754e+02
  -1.050316e+02  -3.530480e+01
  -3.711672e+01  -6.876405e+01
   1.405395e+01  -1.125110e+02
  -3.378181e+01  -2.195542e+01
   5.263804e+01   5.524591e+01
   4.143103e+00   1.433315e+01
   3.122963e+01  -1.368173e+01
   3.079269e+01   3.414656e+01
   6.662172e+01   6.874011e+01
   6.302719e+01   1.241793e+02
  -5.560747e+01   9.180078e+01
  -1.155968e+02  -4.459056e+01
  -9.568436e+01  -7.711644e+01
  -3.881731e+00  -4.164454e+00
   5.818665e+01   2.790262e+00
   9.893139e+01  -8.509225e+00
  -3.315954e+01  -1.390603e+01
  -2.246137e+01   5.266108e+01
  -2.828510e+01  -5.663304e+00
   2.823383e+01   1.173452e+01
   3.802724e+01  -2.404047e+01
  -5.482588e+01   2.460408e+01
  -9.159388e+01  -6.209391e-02
  -2.881619e+01  -3.855481e+01
   1.422546e+02  -7.872236e+01
   2.350900e+02  -1.042140e+02
   1.229834e+02   8.077500e+01
   6.393863e+01   1.582875e+02
  -7.107802e+01   1.665907e+02
  -1.242760e+02   1.214335e+01
  -5.105130e+01  -1.073711e+01
  -7.191371e+01  -3.868859e+01
   1.432789e+01  -1.205780e+01
  -2.812823e+01   7.500429e-01
   1.173895e+01  -3.989572e+01
  -6.644740e+01  -1.241721e+02
   3.091631e+01  -5.943374e+01
   8.053010e+01   2.348696e+01
   4.650242e+01   9.207230e+01
   1.986707e+01   1.135204e+02
  -1.218923e+02   2.516502e+01
  -1.335226e+02  -7.710544e+01
  -4.053053e+01  -1.173870e+02
   3.561138e+01  -6.093307e+01
   1.201602e+02  -2.399450e+01
   3.345734e+01   4.521228e+01
   3.327453e+00   5.401228e+01
  -6.558846e+01   2.017132e+01
   2.266137e+01   3.677916e+01
   6.871065e+01   1.823013e+01
   2.565115e+01   4.313137e+01
  -8.078999e+01   8.522327e+01
  -9.789008e+01   5.615239e+01
  -3.265590e+01  -2.883312e+01
  -2.873112e+00  -6.889077e+01
  -6.335148e+00  -6.254894e+01
   3.914491e+01  -2.619295e+01
   1.431305e+01   3.257138e+01
  -2.405059e+01   6.385323e+01
  -7.053641e+01  -2.407146e+01
  -1.826849e+01  -2.524663e+01
  -1.907603e+01  -5.344748e+01
   4.074922e+01   1.831553e+01
   5.259620e+01  -6.158095e+00
   8.732157e+00  -1.166648e+01
  -5.241259e+00  -5.564291e+01
   5.988984e+00  -3.732025e+00
  -3.176995e+01  -1.546723e+00
  -2.060092e+01   2.801866e+01
  -2.633752e-01   4.582474e+01
  -5.215555e+01  -2.939884e+01
  -4.115564e+01  -1.852211e+01
   1.700871e+01  -1.698539e+01
   8.623499e+01   6.142299e+01
  -6.661313e+00   7.221642e+01
  -4.575804e+01   8.468563e+00
  -9.723411e+01  -4.865786e+01
   3.095871e+00  -2.098999e+01
   8.714683e+00  -4.735688e+01
   3.080312e+01  -4.687136e+00
   3.998079e+01  -1.172831e+01
  -2.910007e+01  -1.263937e+01
  -9.341152e-01   1.881212e+01
  -8.861327e-01  -2.249306e+01
   5.026398e+01  -2.519533e+01
