
 $NMID
 id='ANONYMOUS ', fmtdat='(2E16.6)'
 volume=1.0
 tramp=1.0
 $END
  -3.888461e+03  -3.741584e+02
  -2.348682e+03  -2.712413e+03
   9.290701e+02  -2.418690e+03
   1.907278e+03  -6.573059e+02
   9.749768e+02   4.501416e+02
  -8.081455e+02   4.154640e+02
  -7.261569e+02  -2.808157e+02
   1.701523e+02  -1.030794e+03
   9.679840e+02  -7.349829e+02
   8.089287e+02   9.956912e+01
   4.110426e+02   8.426833e+02
  -2.210138e+02   9.002763e+02
  -5.673444e+02   1.049206e+02
  -3.965132e+02  -7.587028e+02
   1.136158e+02  -6.890887e+02
   5.925844e+02   1.120895e+02
   2.372280e+02   5.225259e+02
  -3.458502e+02   6.421170e+02
  -5.349625e+02   1.313070e+01
  -3.652280e+02  -2.336076e+02
  -7.578803e+01  -3.845900e+02
   2.846728e+02  -1.672490e+02
   1.670836e+02   1.231907e+01
  -8.972996e+01   5.443626e+01
  -4.379555e+02  -2.112617e+02
  -1.344490e+02  -3.733860e+02
   4.774615e+02  -4.359941e+02
   8.117609e+02   1.770845e+02
   4.309228e+02   4.126626e+02
  -4.018820e+02   4.231599e+02
  -7.066776e+02  -1.376629e+02
  -2.552869e+02  -4.602730e+02
   3.629776e+02  -4.601671e+02
   5.595336e+02  -1.298232e+02
   3.697214e+02   1.738806e+02
  -2.321234e+01   4.994205e+02
  -2.682874e+02   3.071262e+02
  -1.238459e+02  -2.211099e+02
   1.300456e+02  -4.032156e+02
   3.841732e+02   8.956781e+01
   1.230875e+02   5.947959e+02
  -3.478695e+02   5.947314e+02
  -5.250806e+02  -4.518920e+01
  -2.153845e+02  -4.162946e+02
   3.298187e+02  -3.038634e+02
   2.850744e+02   3.667845e+02
  -1.185393e+02   4.947968e+02
  -6.109550e+02   5.000807e+01
  -6.098448e+02  -4.203058e+02
  -1.089966e+02  -5.135138e+02
   3.812591e+02  -3.535111e+02
   6.601223e+02   1.093486e+02
   3.930314e+02   3.102827e+02
  -1.387414e+02   3.547638e+02
  -4.178052e+02   9.017558e+01
  -2.105681e+02  -1.569284e+02
   2.049293e+01  -5.827978e+01
   1.803889e+02   1.249226e+02
  -1.144824e+02   1.443689e+02
  -3.085292e+02  -2.552448e+01
  -1.152454e+02  -2.902570e+02
   1.973509e+02  -2.213218e+02
   2.600265e+02  -3.560302e+01
   1.739936e+02   6.967050e+01
  -1.109433e+01   2.225669e+02
  -2.194285e+02   3.141281e+02
  -3.504879e+02   1.786351e+02
  -2.088047e+02  -1.002869e+02
  -1.111580e+02  -3.732831e+02
   7.721933e+01  -4.039497e+02
   9.995317e+01  -1.200979e+02
  -6.931793e+00   1.839852e+01
   5.144212e+01  -9.049242e+01
   1.561712e+02  -1.364235e+02
   2.624053e+02   6.681004e+01
   1.548856e+02   2.448745e+02
  -5.882156e+01   2.780214e+02
  -2.511627e+02  -6.632126e+00
  -2.212158e+02  -2.317843e+02
   3.330846e+01  -3.064387e+02
   3.243758e+02  -9.331453e+01
   2.957470e+02   1.576441e+02
   2.106018e+02   2.951280e+02
  -1.033051e+02   2.849784e+02
  -2.105763e+02   1.215295e+02
  -1.409829e+02   2.128883e+01
  -8.024625e+01   1.651834e+01
  -2.680664e+02   5.443449e+01
  -3.463932e+02  -8.316679e+01
  -3.343958e+02  -2.395582e+02
   1.348716e+01  -5.009018e+02
   3.605763e+02  -3.925734e+02
   4.931286e+02  -2.045594e+02
   3.293329e+02   5.573358e+01
   1.110130e+02   2.547886e+02
  -1.440894e+02   2.607444e+02
  -7.191279e+01   5.514146e+01
   1.156117e+02  -1.021742e+02
   2.105503e+02  -1.918170e+01
   2.585396e+01   2.141860e+02
  -1.955192e+02   1.430314e+02
  -1.771893e+02  -4.312379e+01
   8.062496e+01  -1.821599e+02
   1.645349e+02   3.178426e-01
   8.452609e+01   2.421465e+02
  -1.544344e+01   3.064313e+02
  -2.526641e+02   1.900361e+02
  -2.767380e+02  -8.047011e+01
  -2.584823e+02  -2.561980e+02
  -8.553989e+01  -1.628452e+02
   1.221385e+02  -1.726730e+02
   1.662421e+02  -2.070206e+01
   1.169269e+01   4.294547e+01
  -6.641315e+01  -6.257814e+01
  -1.152019e+01  -1.595430e+02
   1.862108e+02  -1.151200e+02
   2.094178e+02   1.354720e+01
   5.424344e+01   4.473512e+01
  -5.320828e+01  -3.836444e+01
  -6.769266e+01  -1.094666e+02
   1.070247e+02  -7.465907e+01
   2.450387e+02   7.110264e+01
   2.806245e+02   1.064093e+02
   4.706286e+01   2.307307e+02
  -2.417782e+02   2.465215e+02
  -2.433602e+02   1.342994e+02
  -1.473787e+02  -7.385750e+01
   3.771092e+01  -1.074690e+02
   1.043118e+02  -6.150095e+00
  -4.639434e+01   1.250564e+02
  -2.202982e+02   4.006533e+01
  -2.219484e+02  -1.124945e+02
  -6.575946e+01  -2.013785e+02
   6.943986e+01  -1.573310e+02
   1.347250e+02  -5.914261e+01
   5.882132e+01   4.647180e+01
  -1.173952e+00   7.150707e+00
  -1.839467e+01  -7.277676e+01
   8.786404e+01  -1.236936e+02
   2.054257e+02  -4.857089e+01
   2.079497e+02   1.063381e+02
   3.824965e+01   2.213653e+02
  -1.531889e+02   1.273183e+02
  -1.416998e+02   6.804602e+01
  -3.709658e+01  -1.156018e+02
   5.946104e+01  -8.809781e+01
   4.946864e+01  -9.922433e+00
   1.257835e+01  -1.140365e+00
  -1.093346e+01   5.663804e+00
  -5.495936e+00  -3.564366e+01
   5.280478e+01   5.337146e+01
   7.427501e+01   6.721642e+01
   2.505140e+01   1.650636e+02
  -1.365803e+02   1.550714e+02
  -2.409332e+02   9.253877e+00
  -1.331259e+02  -1.654874e+02
  -6.333461e+01  -2.147003e+02
   1.188880e+02  -1.691858e+02
   1.477959e+02  -5.933110e+01
   6.879625e+01   4.916971e+01
   1.053391e+01   5.909133e+01
   5.452980e+01  -2.595645e+01
   8.529838e+01   9.483018e+00
   3.160463e+01   3.880003e+01
  -7.250604e+01   6.089578e+01
  -9.033291e+01   3.499149e+00
  -9.011564e+01  -3.214437e+01
   5.910949e+00  -8.636572e+01
   7.604392e+01  -5.591732e+01
   2.061411e+02   4.955759e+01
   1.686129e+02   1.764602e+02
  -1.096208e+02   2.458136e+02
  -2.273545e+02   5.926696e+01
  -2.590943e+02  -8.852074e+01
  -9.490163e+01  -1.572857e+02
   2.599980e+01  -1.655034e+02
   8.911743e+01  -6.338862e+01
   9.220573e+01  -7.662053e+01
   8.090992e+01  -1.189854e+02
   1.167508e+02  -1.236409e+02
   1.243091e+02   2.550570e+01
   1.206345e+02   1.206521e+02
   2.584313e+01   1.852784e+02
  -9.683503e+01   1.779292e+02
  -1.599124e+02   1.084595e+01
  -1.405122e+02  -9.541909e+01
  -4.574464e+01  -1.345423e+02
   1.051654e+02  -5.765025e+01
   8.321101e+01   4.846548e+01
   1.667993e+01   5.978297e+01
  -1.353765e+01   2.247657e+01
   4.968828e+01  -9.403395e+00
   8.538528e+01   3.231711e+01
   3.331949e+01   4.705659e+01
  -5.812249e+01   4.309084e+01
  -1.903476e+02  -8.821285e+00
  -1.442834e+02  -3.876902e+01
  -3.839855e+01  -7.853156e+01
   1.245774e+02  -6.579386e+01
   1.060388e+02  -7.339214e+01
   3.260954e+01   7.338693e+01
  -6.306502e+01   3.661311e+01
  -8.349299e+01   4.909062e+00
  -2.251889e+01  -9.050050e+01
   3.558633e+01  -6.908002e+01
   9.530878e+01   5.184654e+01
   3.712897e+01   7.191717e+01
   2.903708e+01   3.038169e+01
   6.306510e+01   2.422020e+01
   7.225661e+01  -6.739538e+01
   3.102518e+01   1.088332e+02
  -5.427914e+01   1.334405e+02
  -1.106149e+02   1.134780e+02
  -1.805504e+02   1.882296e+00
  -1.558765e+02  -9.737023e+01
   1.189992e+01  -1.098421e+02
   6.058709e+01  -6.429855e+01
   9.502836e+01   8.183863e+00
  -8.107153e+01   5.516628e+01
  -1.612633e+02  -2.053379e+01
  -9.335932e+01  -8.227470e+01
   2.257962e+01  -1.148335e+02
   2.144770e+02  -5.102121e+01
   1.141035e+02   3.173174e+01
   7.771788e+00   8.439465e+01
  -6.545799e+01   7.252406e+01
  -3.620245e+01  -3.825761e+01
   3.988174e+01  -9.123852e+01
   1.225607e+02   6.938650e+00
   3.646623e+01   1.015771e+02
  -6.940712e+01   1.452289e+02
  -1.778449e+02   6.773808e+01
  -1.558296e+02  -1.345692e+02
  -3.152950e+00  -1.486708e+02
   4.787861e+01  -1.408953e+02
   7.614667e+01  -1.340045e+01
   6.662264e+01   1.380867e+02
  -6.200877e-01   1.376705e+02
  -4.216227e+01   5.327132e+01
  -2.047523e+01  -1.822948e+01
  -5.907468e+01   6.712721e+00
   1.138648e+01   3.442998e+01
  -2.283709e+01  -6.941290e+01
  -4.342563e+01  -7.743288e+01
  -3.682236e+01  -1.071221e+02
   4.150112e+01  -6.657478e+01
   1.279699e+02   4.344757e+01
   1.485561e+02   5.609626e+01
   3.115147e+01   7.373619e+01
  -8.125256e+01   5.117860e+01
  -7.118460e+01   1.544926e+01
   9.200107e+00  -9.733828e+00
   4.159371e+01  -4.750947e+00
   8.981509e+00  -3.323059e+01
  -4.768912e+01   1.071405e+01
   1.340319e+01   2.089420e+01
   8.413510e+01   1.141712e+01
   8.147221e+01  -4.459025e+00
   7.190050e+00   6.377419e+01
  -1.212351e+02   9.988869e+01
  -1.449574e+02   5.463057e+01
  -1.142569e+02  -8.752127e+01
  -2.087435e+01  -1.287967e+02
   3.811535e+01  -1.171237e+02
   1.190827e+02  -8.112754e+01
   7.498628e+01  -1.487532e+00
   4.468854e+01   1.655336e+01
   3.170110e+00   1.747817e+01
  -1.117107e+01   7.256872e+00
   1.915060e+01   3.198556e+01
  -1.374955e+01   1.050149e+02
  -1.768752e+01   6.481981e+01
  -5.668653e+01  -4.373202e+01
  -4.201596e+01  -1.324148e+02
  -1.994606e+01  -9.309008e+01
   5.239218e+01   2.744374e+00
   1.419817e+02   4.429304e+01
   1.688121e+01   5.735365e+01
  -4.620779e+01   9.121899e+01
  -8.324574e+01  -1.700418e+01
  -5.221977e+01  -7.492505e+01
   4.333628e+01  -6.028818e+01
   2.946453e+00  -2.808904e+01
  -4.817010e+01  -1.198710e+01
  -5.762314e+01   1.337093e+01
   3.443359e+01   1.212488e+01
   3.906296e+01  -6.471310e+01
   7.991362e+01  -3.110791e+01
   2.574311e+01  -1.281577e+01
   7.043765e+00   1.286136e+02
  -1.367848e+01   7.045316e+01
  -3.116014e+01   1.249788e+01
  -1.639246e+01  -5.841683e+01
   2.984139e+01  -6.451754e+01
   5.228222e+01   1.564031e+01
   2.650351e+01   4.998801e+01
  -9.958667e+00   7.421173e+00
  -3.052772e+01  -2.425695e+01
  -6.168559e+01  -2.246214e+01
  -2.524553e+00  -1.365030e+00
   2.305813e+00   4.078443e+01
   1.234325e+01   4.928925e+00
   1.959860e+01  -3.201172e+01
  -2.928304e+01  -4.894758e+01
   7.398026e+01  -3.088714e+01
   3.841610e+01   2.481162e+01
  -6.249179e+00   8.296672e+00
  -5.147515e+01   5.420237e+01
  -4.310865e+01  -3.345265e+01
  -8.496326e+00  -8.190212e+01
   5.261300e+01  -2.305957e+01
   1.080676e+02  -3.223471e+00
   2.406173e+01   6.577237e+01
  -5.259001e+01   1.825773e+01
  -1.104165e+02   6.395753e+00
  -8.954806e+00   1.636971e+01
   1.586321e+01  -3.043136e+01
   3.924742e+01   7.836477e+00
  -3.052641e+01  -3.001950e+00
  -8.191640e+01   1.700043e+01
