
 $NMID
 id='ANONYMOUS ', fmtdat='(2E16.6)'
 volume=1.0
 tramp=1.0
 $END
   4.348029e+03   6.414656e+02
   1.722896e+03   2.986104e+03
  -1.052667e+03   2.375201e+03
  -2.487120e+03   5.528157e+02
  -9.915938e+02  -5.698546e+02
   7.100121e+02  -5.826089e+02
   9.159961e+02   2.032435e+02
  -3.729638e+02   9.569332e+02
  -8.717220e+02   6.240475e+02
  -8.598893e+02  -2.214947e+02
  -3.486402e+02  -9.427502e+02
   3.371707e+02  -8.465373e+02
   6.532692e+02  -7.759921e+01
   3.935390e+02   7.183257e+02
  -2.220132e+02   8.179222e+02
  -5.935171e+02  -1.040314e+02
  -2.779055e+02  -6.670446e+02
   3.577115e+02  -6.442338e+02
   5.891794e+02  -5.656950e+01
   3.438963e+02   3.084165e+02
   1.692810e+01   4.028634e+02
  -2.621415e+02   2.417120e+02
  -1.401664e+02   7.472215e+00
   9.284516e+01  -6.465555e+01
   3.729029e+02   2.399546e+02
   2.137619e+02   5.174955e+02
  -5.278047e+02   4.063633e+02
  -7.660233e+02  -7.745979e+01
  -3.963503e+02  -4.872827e+02
   4.546834e+02  -4.975161e+02
   7.686690e+02   1.362354e+02
   2.685280e+02   5.010980e+02
  -2.880165e+02   4.709115e+02
  -5.834956e+02   1.607754e+02
  -4.060292e+02  -2.754311e+02
  -5.285138e+01  -4.921041e+02
   2.120436e+02  -2.623362e+02
   1.646427e+02   2.014339e+02
  -2.538793e+02   4.296437e+02
  -4.440379e+02  -5.239225e+01
  -9.876600e+01  -6.534788e+02
   4.102780e+02  -7.063098e+02
   5.205123e+02  -6.062032e+01
   1.414202e+02   5.309597e+02
  -3.072134e+02   2.093951e+02
  -3.543138e+02  -4.238462e+02
   1.133677e+02  -4.956697e+02
   6.117922e+02  -2.370836e+01
   5.996340e+02   4.289554e+02
   1.144213e+02   6.045835e+02
  -4.107115e+02   2.614721e+02
  -6.297674e+02  -1.738420e+02
  -3.649231e+02  -3.953765e+02
   1.428220e+02  -3.858233e+02
   4.893748e+02  -3.853650e+01
   2.360006e+02   2.432469e+02
  -1.184090e+02   1.073524e+02
  -1.122989e+02  -1.188911e+02
   1.528963e+02  -1.685937e+02
   3.644393e+02   6.519345e+01
   9.416928e+01   3.363601e+02
  -1.953936e+02   2.567885e+02
  -3.440532e+02   5.534083e+01
  -2.451416e+02  -7.352580e+01
   8.087290e+00  -1.959289e+02
   2.718337e+02  -2.997532e+02
   3.479565e+02  -2.278965e+02
   2.518688e+02   1.847017e+02
   1.302203e+02   4.038084e+02
  -1.400769e+02   3.673276e+02
  -1.290362e+02   1.256346e+02
  -2.620892e+01  -1.955532e+01
  -1.360604e+01   5.849959e+01
  -1.518358e+02   1.605378e+02
  -2.796352e+02  -1.936492e+01
  -1.627512e+02  -1.746857e+02
   8.967192e+01  -2.585392e+02
   2.118415e+02  -2.630709e+01
   1.974273e+02   2.280895e+02
  -5.693715e+01   2.706098e+02
  -3.167634e+02   8.695755e+01
  -3.935324e+02  -2.801757e+02
  -1.909626e+02  -3.155968e+02
   9.536598e+01  -2.745056e+02
   2.496939e+02  -2.105232e+01
   1.760064e+02   3.074647e+01
   7.325193e+01  -1.450688e+01
   1.960370e+02  -6.871389e+01
   3.747894e+02   9.634605e+01
   3.029911e+02   2.756202e+02
  -2.369056e+01   4.486905e+02
  -3.929194e+02   3.373964e+02
  -5.598914e+02   1.868731e+02
  -3.480244e+02  -7.873481e+01
  -9.895628e+01  -2.800023e+02
   1.392597e+02  -2.247534e+02
   7.729969e+01   8.969974e-01
  -8.028050e+01   1.087196e+02
  -2.224937e+02  -2.241262e+01
  -5.644279e+01  -1.840457e+02
   1.487172e+02  -1.561890e+02
   2.016602e+02   5.651505e+01
  -2.349537e+01   1.973665e+02
  -1.576859e+02   4.765681e+01
  -1.581536e+02  -2.496210e+02
   1.374115e+00  -3.438760e+02
   2.384236e+02  -1.794383e+02
   2.546182e+02   8.835125e+01
   3.153239e+02   2.464008e+02
   1.213968e+02   2.445604e+02
  -1.191006e+02   1.504117e+02
  -1.693618e+02   3.622881e+01
  -4.156484e+01  -4.956681e+01
   1.017720e+02   6.444575e+01
   6.391838e+01   1.335160e+02
  -1.251062e+02   7.752850e+01
  -1.976481e+02   4.444504e+01
  -1.029526e+02  -8.755297e+01
   6.949177e+01  -3.470853e+01
   5.391738e+01   9.975709e+01
  -1.208658e+02   5.904879e+01
  -2.525141e+02  -4.892149e+01
  -2.265579e+02  -1.228887e+02
  -1.298973e+01  -3.098822e+02
   2.254532e+02  -2.654262e+02
   2.887305e+02  -8.636211e+01
   2.101682e+02   6.063588e+01
  -5.266566e+01   8.236382e+01
  -9.753457e+01   3.512922e+01
   2.388995e+01  -1.475002e+02
   1.742839e+02  -1.969634e+01
   2.210331e+02   9.166160e+01
   8.290263e+01   1.651416e+02
  -9.049231e+01   1.156540e+02
  -1.714291e+02  -1.417739e+01
  -6.646802e+01  -1.456162e+01
   2.749361e+01  -8.390121e+00
   3.231307e+01   6.347412e+01
  -6.200709e+01   1.318873e+02
  -2.314148e+02   6.578415e+01
  -1.677555e+02  -9.117439e+01
  -2.753058e+01  -2.193881e+02
   1.686724e+02  -1.400153e+02
   1.694905e+02   6.656840e+00
   9.577427e+00   1.037745e+02
  -9.665327e+01   1.087068e+02
  -5.070344e+01   4.179003e+01
  -8.320644e+00   7.773938e+00
   3.377168e+01  -2.661415e+01
  -1.723398e+01   1.852282e+01
  -5.209274e+01  -3.638494e+01
  -7.136331e+01  -7.768051e+01
  -4.066240e+01  -1.502921e+02
   1.285571e+02  -1.387535e+02
   2.074226e+02  -1.201611e+01
   1.671800e+02   1.658479e+02
   1.048812e+01   2.394736e+02
  -1.268182e+02   1.635575e+02
  -1.527599e+02   1.645282e+01
  -1.047659e+02  -6.400400e+01
  -2.144929e+01  -3.221339e+01
  -4.680728e+01   4.634851e+01
  -5.634165e+01  -2.927062e+01
   2.851897e+01  -5.535817e+01
   7.616122e+01  -6.671997e+01
   6.724313e+01  -2.094994e+01
   8.669549e+01   1.757254e+01
  -1.785758e+01   6.153812e+01
  -1.325160e+02   6.915233e+01
  -1.772777e+02  -1.457592e+01
  -1.071451e+02  -2.357871e+02
   1.029534e+02  -2.254455e+02
   2.270689e+02  -2.377277e+01
   2.595497e+02   6.430444e+01
   8.764474e+01   1.991438e+02
  -4.596774e+01   1.455544e+02
  -1.165979e+02   5.512801e+01
  -6.640968e+01   9.124939e+01
  -8.760352e+01   6.346013e+01
  -9.920611e+01   6.715979e+01
  -1.348442e+02  -6.247972e+01
  -1.035299e+02  -1.147930e+02
   6.735253e+00  -2.283055e+02
   1.271475e+02  -1.128541e+02
   1.807152e+02  -9.397172e+00
   1.099032e+02   1.422524e+02
   4.361694e+01   1.907075e+02
  -6.140438e+01   1.263321e+02
  -4.790241e+01   8.949197e+00
   4.366817e+01  -2.573350e+01
   6.782990e+00  -3.103168e+01
  -6.122075e+01  -2.798541e+01
  -5.754510e+01  -5.728647e+01
  -2.494168e+01  -1.001218e+01
   8.187731e+01  -1.091351e+01
   1.659354e+02   1.958733e+01
   1.659476e+02   3.819407e+01
   1.337140e+01   8.487731e+01
  -1.279610e+02   9.421311e+01
  -1.409738e+02   1.432186e+00
  -5.086606e+01  -3.835311e+01
   8.201436e+01  -3.881511e+01
   5.622642e+01   2.836172e+01
   1.697263e+01   9.739031e+01
  -8.736380e+01   1.801582e+01
  -9.743277e+01   1.490528e+00
   3.183002e+00  -5.422271e+01
  -5.178983e+01  -6.259437e+01
  -9.325408e+01  -2.406408e+01
  -7.494939e+01  -4.605135e+01
  -2.629059e+01  -4.795185e+01
   4.208738e+01  -1.095176e+02
   1.242654e+02  -1.311919e+02
   1.560002e+02   3.283438e+01
   1.309905e+02   1.104197e+02
  -1.782926e+01   1.092526e+02
  -1.170184e+02  -1.289992e+01
  -4.915735e+01   4.120372e+00
   6.544814e+01  -4.303935e+00
   1.455807e+02   2.475243e+01
   4.905727e+01   1.195800e+02
  -9.299206e+01   8.151938e+01
  -1.932437e+02   3.480132e+01
  -9.497722e+01   1.535368e+01
  -5.177360e+01  -8.546579e+01
   3.918761e+01  -7.334409e+01
   8.575981e+01   1.699235e+00
  -2.102089e+01   1.557098e+01
  -1.297993e+02  -1.106267e+01
  -2.984908e+01  -1.531995e+02
   1.598825e+02  -1.563545e+02
   1.388601e+02  -4.667085e+01
   9.917334e+01   1.135937e+02
   2.894847e+01   1.746056e+02
  -1.164885e+02   1.449523e+02
  -9.095543e+01   7.353518e+00
  -4.533154e+01  -1.009178e+02
   2.758513e+01  -1.058499e+02
   6.291932e+01  -1.610189e+01
   4.005593e+01   6.660785e+01
   7.796888e+00   1.500069e+01
   6.757464e+00   1.659830e+01
   9.260072e+00   1.880051e+01
   6.110814e+01   9.390131e+01
   7.025725e+01   1.531180e+02
  -3.728905e+01   6.933956e+01
  -1.058770e+02  -6.224836e+01
  -1.224928e+02  -6.601303e+01
  -1.394751e+01  -6.277109e+01
   5.262448e+01  -4.352992e+00
   1.124191e+02   1.985958e+01
  -2.386503e+01   1.282994e+01
  -3.626612e+01   1.019129e+01
  -1.627539e+01   3.734766e+01
   3.410980e+01  -2.493744e+01
   3.028933e+00   2.112648e+00
  -8.336512e+01  -1.761582e+01
  -8.330966e+01  -1.397936e+01
  -6.557873e+00  -8.037786e+01
   1.626141e+02  -1.014578e+02
   1.732016e+02  -5.415653e+01
   1.757863e+02   9.988569e+01
   3.022297e+01   1.662161e+02
  -4.097137e+01   1.646643e+02
  -6.724387e+01   6.833077e+01
  -9.012098e+01  -1.461799e+01
  -2.308671e+01  -2.408561e+01
   3.681716e+01  -2.521680e+01
   1.571386e+01   3.328739e+01
  -1.587192e+01  -6.268413e+01
  -2.391501e+01  -1.324327e+02
   4.574390e+01  -5.504811e+01
   6.943054e+01   7.302490e+00
   4.001492e+01   8.483770e+01
  -2.905331e+01   1.325277e+02
  -7.509692e+01   3.150306e+01
  -6.828631e+01  -5.780787e+01
  -5.142926e+01  -1.011572e+02
   4.867437e+01  -5.650433e+01
   9.582423e+01   2.069890e+01
   5.888007e+01   5.287027e+01
  -2.422823e+01   3.132736e+01
  -3.049090e+01   5.411037e+01
   2.467873e+01  -2.674028e+01
   9.039214e+01  -3.505834e+01
   1.328863e+01   8.324595e+00
  -5.162317e+01   1.373200e+01
  -1.175703e+02   7.728689e+01
  -8.985258e+01  -4.051554e+01
   2.076342e+01  -9.385969e+01
   8.758829e+01  -8.267407e+01
   4.987751e+01   4.964985e+00
  -4.312825e+01   3.589423e+01
  -2.171086e+01   3.893724e+01
  -4.949806e+01  -7.173395e+00
  -3.408192e+01  -1.137490e+02
   2.266860e+01  -2.447986e+01
   4.201150e+01  -1.092421e+01
  -1.559356e+01   1.076846e+01
   1.536168e+01   3.550351e+01
  -7.502508e+00  -2.166573e+00
  -2.126150e+01   1.615885e+01
   4.543326e+01   2.201887e+01
  -3.315794e+01   4.933813e+01
  -5.898984e+01  -2.762374e+01
  -3.968367e+01  -4.564422e+01
   3.238212e+00  -4.776233e+01
   3.947816e+01  -5.764715e+00
   2.029972e+01   9.027672e+01
   5.541468e+01   4.365324e+01
  -1.138056e+02   6.125393e+01
  -5.594222e+01  -2.615962e+01
  -1.072357e+01  -8.250195e+01
   4.986983e+01  -5.376880e+01
   8.067559e+01   2.742270e+01
  -3.770562e+00  -1.365739e+00
   1.408162e+00  -3.355827e+01
  -7.028858e+01  -3.570517e+01
   3.118754e+01  -4.717707e+00
   9.242479e+01  -7.281560e+00
