
 $NMID
 id='ANONYMOUS ', fmtdat='(2E16.6)'
 volume=1.0
 tramp=1.0
 $END
  -4.359487e+03   2.272435e+02
  -2.971819e+03  -2.604615e+03
   3.020659e+02  -2.986479e+03
   2.180198e+03  -1.130569e+03
   1.103136e+03   5.322089e+02
  -3.841334e+02   6.435361e+02
  -7.744337e+02  -1.699469e+02
  -2.434543e+02  -9.601761e+02
   6.166995e+02  -8.549386e+02
   8.997641e+02  -3.186287e+01
   5.184591e+02   8.399913e+02
  -4.149756e+01   8.443953e+02
  -5.221646e+02   2.838002e+02
  -3.148698e+02  -6.577173e+02
   2.401277e+02  -7.486387e+02
   6.601234e+02  -8.180439e+01
   2.955728e+02   6.032518e+02
  -3.094101e+02   6.804615e+02
  -5.604785e+02   2.103245e+02
  -4.123054e+02  -3.215193e+02
  -5.878285e+01  -4.827562e+02
   2.197993e+02  -3.643642e+02
   1.799346e+02  -4.445282e+01
  -9.273818e+01  -6.309400e+00
  -4.047919e+02  -8.025196e+00
  -1.105363e+02  -3.688562e+02
   3.195958e+02  -3.786340e+02
   7.509581e+02   5.784378e+01
   3.302631e+02   4.902687e+02
  -4.113581e+02   4.155567e+02
  -7.680188e+02   1.573598e+00
  -3.956975e+02  -3.550179e+02
   2.667711e+02  -6.201884e+02
   5.734827e+02  -2.632131e+02
   3.738325e+02   1.650326e+02
   8.528578e+01   4.734997e+02
  -1.689129e+02   3.204740e+02
  -1.500997e+02  -1.261438e+02
   5.248856e+01  -3.136459e+02
   4.129521e+02  -1.438755e+01
   3.070469e+02   5.567084e+02
  -2.878258e+02   5.448462e+02
  -5.225543e+02  -4.856743e+01
  -2.613371e+02  -5.072084e+02
   2.508156e+02  -3.059740e+02
   2.757741e+02   2.775498e+02
  -6.969216e+01   5.135293e+02
  -4.810338e+02   1.962962e+02
  -5.890060e+02  -3.204411e+02
  -1.860849e+02  -5.698506e+02
   3.831535e+02  -3.686032e+02
   6.075938e+02   1.035173e+02
   4.262476e+02   2.384263e+02
  -1.622713e+02   2.827440e+02
  -4.173673e+02   7.877667e+01
  -3.364271e+02  -1.397265e+02
   1.080463e+02  -1.365110e+02
   1.491151e+02   1.531862e+02
  -1.217942e+02   2.294506e+02
  -3.234425e+02  -4.877552e+01
  -1.729572e+02  -2.665234e+02
   1.391145e+02  -2.552196e+02
   3.120360e+02  -1.090035e+02
   1.815795e+02   1.045801e+02
  -6.265366e+00   3.232302e+02
  -1.836603e+02   2.860193e+02
  -3.089012e+02   2.366147e+02
  -2.915897e+02  -1.552378e+02
  -8.853629e+01  -4.418985e+02
   3.616649e+01  -4.327432e+02
   1.681516e+02  -1.528363e+02
   3.039641e+01  -1.665142e+01
   1.179320e+02  -5.500338e+01
   1.552451e+02  -1.117141e+02
   2.707598e+02   1.096638e+02
   1.129546e+02   2.980017e+02
  -1.183172e+02   2.879026e+02
  -1.835901e+02  -5.480077e+01
  -1.927902e+02  -1.931466e+02
  -1.295681e+01  -3.014437e+02
   3.142141e+02  -1.902719e+02
   4.267851e+02   1.541176e+02
   2.446391e+02   3.874413e+02
  -1.108587e+02   3.224236e+02
  -2.097845e+02   2.103855e+02
  -1.859889e+02   5.949942e+01
  -1.123490e+02   3.725872e+01
  -2.118768e+02   2.864201e+01
  -4.078527e+02  -6.610537e+01
  -2.986059e+02  -2.871202e+02
  -1.332341e+01  -5.160304e+02
   3.488780e+02  -4.713260e+02
   4.458934e+02  -2.437685e+02
   3.227158e+02   9.670490e+01
   4.651211e+01   2.732549e+02
  -9.722584e+01   3.216350e+02
  -5.752442e+01  -7.700881e+00
   1.269962e+02  -8.597468e+01
   2.072239e+02  -1.418896e+01
   7.114684e+01   1.834144e+02
  -1.539682e+02   2.054299e+02
  -1.465625e+02   4.354650e+00
  -1.625393e+01  -2.087537e+02
   2.199156e+02  -4.113003e+01
   2.046737e+02   2.376376e+02
  -2.971612e+01   2.665491e+02
  -2.486727e+02   2.647195e+02
  -3.671126e+02  -2.957054e+01
  -2.884744e+02  -2.470047e+02
  -5.681110e+01  -2.592155e+02
   1.341688e+02  -2.040376e+02
   1.472695e+02  -3.455276e+01
   5.366112e+01   1.965268e+01
  -2.022050e+01  -4.142010e+01
  -2.214918e+01  -1.510754e+02
   1.172530e+02  -9.395837e+01
   1.588110e+02   3.780131e+00
   4.668756e+01   3.758486e+01
  -6.483812e+01   1.981494e+01
  -1.337774e+01  -8.808850e+01
   1.540953e+02  -1.114706e+02
   2.796457e+02  -8.263105e+00
   3.030892e+02   1.586684e+02
   7.503283e+01   2.466174e+02
  -1.826618e+02   2.652496e+02
  -2.743812e+02   1.294345e+02
  -1.461033e+02  -5.438259e+01
   1.662844e+01  -5.861284e+01
   5.575549e+01  -1.973749e+01
  -3.867151e+01   1.113832e+02
  -1.716377e+02   3.975324e+01
  -2.324808e+02  -8.125543e+01
  -4.919703e+01  -2.106630e+02
   1.161696e+02  -1.758826e+02
   1.422792e+02  -2.696883e+01
   4.127517e+01   1.551536e+01
  -9.191061e+00  -3.955132e+01
  -1.675918e+01  -9.401028e+01
   1.000981e+02  -1.289468e+02
   1.963056e+02  -3.935253e+01
   1.733258e+02   8.751115e+01
  -6.643739e+00   2.334095e+02
  -8.064593e+01   1.275557e+02
  -1.784612e+02  -1.930188e+01
  -5.827577e+01  -1.266644e+02
   4.960550e+01  -1.115837e+02
   8.066378e+01  -1.461982e+01
   4.852221e+00   3.058105e+01
   5.045553e+00   8.748881e+00
   2.969107e+01   7.570781e+00
   6.695958e+01   2.076168e+01
   8.191718e+01   8.891511e+01
   1.334344e+01   1.466792e+02
  -1.836355e+02   1.231521e+02
  -2.367993e+02  -1.335593e+01
  -2.182006e+02  -1.370053e+02
  -1.126413e+01  -2.375980e+02
   9.376107e+01  -1.716288e+02
   1.324593e+02  -8.458388e+00
   7.556173e+01   9.450645e+01
   5.257185e+01   7.706267e+01
   6.131021e+01  -7.988708e+00
   9.060585e+01   9.774331e+00
   3.805393e+01   5.793073e+01
  -5.796759e+01   8.874864e+01
  -1.686627e+02   3.874085e+01
  -1.427002e+02  -8.769552e+01
   3.198279e+01  -1.530689e+02
   1.423504e+02  -8.323884e+01
   2.013787e+02   8.856752e+01
   5.781233e+01   1.876684e+02
  -8.440407e+01   2.033093e+02
  -2.773648e+02   1.145286e+02
  -2.568100e+02  -7.145945e+01
  -1.047318e+02  -1.891168e+02
   1.826922e+01  -1.514652e+02
   1.549741e+02  -1.057224e+02
   5.229702e+01  -7.468331e+01
   6.822096e+01  -1.012954e+02
   9.371962e+01  -5.923227e+01
   9.559712e+01   3.780405e+01
   8.872997e+01   1.352413e+02
   1.275243e+01   2.234106e+02
  -9.128502e+01   1.660733e+02
  -1.764153e+02   2.574073e+01
  -1.675675e+02  -1.071209e+02
   3.364230e+00  -1.552097e+02
   6.414250e+01  -1.314267e+02
   3.829013e+01  -2.506861e+01
   3.024372e+00   7.989498e+00
   1.915565e+01  -1.910187e+01
   1.145631e+01   3.739269e+01
   9.210123e+01   2.673290e+01
   5.924630e+01   1.994103e+01
  -5.789639e+01   5.107858e+01
  -1.667374e+02   2.989261e+00
  -1.433960e+02  -2.098625e+01
  -1.726874e-01  -7.704437e+01
   1.229134e+02  -6.636162e+01
   1.393770e+02  -1.954472e+01
   3.852589e+01   4.891383e+01
  -5.873431e+01   2.003897e+00
  -1.094800e+02  -4.740422e+01
   9.738186e+00  -1.019625e+02
   7.139420e+01  -8.453299e+01
   1.008812e+02   7.663681e+00
   1.968210e+01   8.188304e+01
   2.930455e+01   5.588176e+01
   2.635334e+01  -1.502803e+01
   6.110587e+01  -5.147049e+00
   3.134302e+00   5.673829e+01
  -1.600887e+01   1.741255e+02
  -8.056086e+01   1.558886e+02
  -1.666291e+02  -1.917202e+01
  -1.300646e+02  -7.169217e+01
  -4.115586e+00  -1.038093e+02
   6.166970e+01  -4.224862e+01
   3.981866e+01  -2.813327e+01
  -8.213697e+01   1.883309e+01
  -1.369837e+02  -4.795123e+01
  -1.146952e+02  -1.482436e+02
   9.144248e+01  -1.311908e+02
   1.780491e+02  -4.087233e+01
   1.351014e+02   1.557564e+01
   4.660351e+01   7.196977e+01
  -8.256541e+01   8.172255e+01
  -1.735299e+01   5.496328e+00
   1.886264e+01   1.896796e+00
   4.575024e+01   3.716929e+01
   6.915658e+01   1.124881e+02
  -7.568911e+01   1.184040e+02
  -1.976603e+02   1.466633e+02
  -1.432430e+02  -7.765709e+01
   1.032476e+01  -1.667242e+02
   1.165578e+02  -1.239519e+02
   7.658781e+01   2.379636e+01
   5.571259e+01   1.106594e+02
   1.236782e+01   1.889507e+02
  -4.515359e+01  -4.041644e+01
  -4.759456e+01  -3.500829e+01
  -1.704431e+01   3.573886e+01
  -2.593502e+01   1.736196e+01
   2.043621e+00  -2.831099e+00
  -9.874478e+01  -8.368372e+01
  -2.924739e+01  -8.719870e+01
   4.472692e+01  -4.921593e+01
   1.541523e+02   3.956024e+01
   8.519714e+01   6.134750e+01
  -1.738191e+01   4.575274e+01
  -7.384504e+01   1.450633e+01
  -5.873709e+01  -2.500727e+00
  -1.915076e+01   2.439582e+01
   4.891336e+01  -3.113087e+01
   2.374153e+01  -2.596476e+01
  -4.204744e+00  -2.369497e+00
   7.885302e+00   7.779355e+00
   2.455566e+01  -3.718266e+01
   8.918187e+01   7.301472e+01
   4.254666e+01   6.627375e+01
  -9.106221e+01   9.661211e+01
  -2.070207e+02   4.606203e+01
  -1.329446e+02  -7.098574e+01
   1.568648e+01  -1.770821e+02
   9.506984e+01  -1.762030e+02
   1.141851e+02  -5.147403e+01
   1.069415e+02   2.650079e+01
   4.536250e+01   4.370509e+01
   1.382471e+01   1.638513e+01
  -3.380898e+01  -1.223587e+01
   3.886503e+01   2.755920e+01
   4.608153e+01   6.752260e+01
  -1.219413e+01   8.078488e+01
  -8.646470e+01   2.556261e+00
  -5.957265e+01  -9.935194e+01
   1.888629e+01  -9.282504e+01
   7.574618e+01  -2.972053e+01
   1.039443e+02   2.771269e+01
   4.727409e+01   6.096181e+01
  -7.010281e+01   1.445183e+01
  -1.225421e+02   3.055879e+01
  -5.613825e+00  -6.720809e+01
   3.164688e+01  -7.205458e+01
   4.762059e+01  -3.638756e+00
  -4.147018e+01   4.514876e+00
  -1.012721e+02   4.879098e+01
  -3.534115e+00  -3.391018e+01
   8.029401e+01  -5.762875e+01
   1.154251e+02  -7.422725e+01
   5.626294e+01   2.411438e+01
  -2.259888e+01   8.915278e+01
  -4.234370e+01   7.798833e+01
  -4.002835e+01  -8.919519e+00
   1.449469e+01  -5.085503e+01
   4.494152e+01  -4.497921e+01
  -7.530746e+00   3.351249e+01
   3.811151e+01   7.727549e+01
  -1.279869e+01  -7.870080e-01
  -3.658689e-01   2.304073e+01
  -5.193345e+01  -3.417219e+01
   2.441135e+00   5.551875e+00
  -8.123940e+00   7.784940e+00
  -2.314883e+00  -7.760595e+00
   3.423355e+01  -3.704245e+01
  -1.548850e+01  -1.052582e+02
   6.468912e+01   1.078691e+01
   2.542424e+01   5.573408e+01
   1.099352e+00   7.389626e+01
  -1.908875e+01   5.246844e+01
  -7.016006e+01  -7.514818e+01
  -2.675138e+01  -1.087730e+02
   1.309660e+01  -2.540498e+01
   3.230448e+01   3.505406e+01
   7.046000e+01   5.379052e+01
  -2.485358e+01   3.976883e+01
  -9.884650e+01   3.792514e+01
   2.082080e-01   2.476997e+01
   2.073437e+01   2.286134e+01
   2.311032e+01  -1.623142e+01
  -1.617389e+01   3.577197e+01
  -1.116009e+02  -2.082525e+01
