
 $NMID
 id='ANONYMOUS ', fmtdat='(2E16.6)'
 volume=1.0
 tramp=1.0
 $END
  -3.402556e+03  -4.276229e+02
  -1.970775e+03  -1.827659e+03
   1.940039e+02  -1.615910e+03
   1.467056e+03  -1.135537e+03
   8.878962e+02   5.096481e+00
  -2.153527e+02   2.730774e+02
  -4.612464e+02  -1.397112e+02
   8.910278e+01  -7.075251e+02
   4.908634e+02  -6.139476e+02
   6.205022e+02   2.144812e+01
   3.221746e+02   6.870325e+02
  -1.584168e+02   4.987185e+02
  -3.083566e+02   1.399630e+02
  -3.280079e+02  -5.374650e+02
   5.716493e+01  -5.116661e+02
   4.123894e+02  -1.742115e+01
   2.144637e+02   4.358532e+02
  -2.035131e+02   5.567689e+02
  -4.773119e+02   2.307631e+02
  -3.771768e+02  -1.914350e+02
  -5.702870e+01  -4.314945e+02
   1.198367e+02  -2.404617e+02
   1.161463e+02  -8.164041e+01
  -1.016806e+02  -4.324047e+01
  -3.619685e+02  -2.447696e+02
  -9.880062e+00  -3.420620e+02
   3.804964e+02  -2.524279e+02
   5.816883e+02   1.737838e+02
   2.303127e+02   3.416433e+02
  -2.915418e+02   2.986548e+02
  -6.191261e+02  -1.521820e+02
  -2.340831e+02  -4.745470e+02
   3.269578e+02  -3.361997e+02
   4.827423e+02  -6.916543e+01
   3.376789e+02   1.966936e+02
   1.936949e+01   3.655933e+02
  -5.852554e+01   2.209862e+02
  -1.206821e+01  -8.262383e+01
   1.353061e+02  -2.247224e+02
   2.909101e+02   1.611538e+02
   1.933560e+01   5.743456e+02
  -2.260767e+02   3.941602e+02
  -3.664229e+02  -2.046583e+01
  -8.030582e+01  -3.274156e+02
   1.967801e+02  -8.801251e+01
   1.988856e+02   2.797210e+02
  -7.205536e+01   4.203605e+02
  -4.700505e+02  -2.081328e+00
  -4.861660e+02  -4.072645e+02
  -1.436459e+02  -4.861111e+02
   3.480641e+02  -2.064565e+02
   5.961144e+02   1.231928e+02
   3.586038e+02   2.443477e+02
  -1.387731e+01   2.032802e+02
  -3.514496e+02   5.876404e+01
  -1.691793e+02  -8.020706e+01
   5.426352e-01  -3.231624e+01
   6.418524e+01   7.889501e+01
  -1.678593e+02   8.996019e+01
  -2.585708e+02  -8.736347e+01
  -1.267381e+02  -2.230038e+02
   1.492023e+02  -2.017511e+02
   2.839551e+02  -9.122296e+01
   2.519499e+02   1.082210e+02
  -3.882708e+01   2.661165e+02
  -3.014583e+02   3.779867e+02
  -3.258042e+02   1.455504e+02
  -2.575121e+02  -9.032411e+01
  -5.510130e+01  -2.928542e+02
   6.231282e+00  -3.284725e+02
   4.615960e+01  -1.632420e+02
   8.438417e+01  -1.023049e+02
   1.171171e+02  -1.300163e+02
   1.723746e+02  -5.913397e+01
   2.279183e+02   9.619240e+01
   1.349109e+02   2.002562e+02
  -1.196136e+02   1.821093e+02
  -1.780579e+02  -3.101775e+01
  -1.106256e+02  -2.082250e+02
   8.029804e+01  -2.380649e+02
   2.603646e+02  -1.997856e+01
   2.941730e+02   2.004794e+02
   1.537865e+02   3.129714e+02
   2.092930e+01   3.025982e+02
  -1.873715e+02   8.120083e+01
  -1.474260e+02   2.997467e+01
  -1.401191e+02   1.114026e+02
  -2.705270e+02   7.298356e+01
  -3.876935e+02  -1.205795e+02
  -3.247135e+02  -2.704723e+02
   2.646898e+01  -4.517945e+02
   4.240869e+02  -3.926438e+02
   4.863125e+02  -1.558092e+02
   3.787386e+02   1.117739e+02
   1.579547e+01   2.148073e+02
  -1.430122e+02   2.428511e+02
  -2.606855e+01   3.054672e+01
   1.188455e+02  -4.228288e+00
   1.175368e+02   5.945826e+01
   1.844014e+01   1.364498e+02
  -4.729938e+01   6.485751e+01
  -6.272349e+01  -2.814833e+01
   5.063613e+01  -1.629804e+02
   1.485589e+02   1.396141e+01
   1.258328e+02   2.683450e+02
   2.451230e+01   3.547889e+02
  -2.314963e+02   1.728351e+02
  -3.304417e+02  -3.546905e+01
  -2.927053e+02  -2.252237e+02
  -5.135326e+01  -2.012784e+02
   1.479996e+02  -1.226787e+02
   1.209146e+02   1.732306e+00
   5.531423e+01   4.450240e+01
  -1.011474e+02  -4.827931e+01
  -4.028057e+01  -1.855245e+02
   1.328595e+02  -9.770549e+01
   1.493527e+02   6.513981e+01
   6.014408e+01   6.733855e+01
  -6.952143e+01  -2.752356e+01
  -3.541140e+01  -3.503422e+01
   1.521361e+02  -9.185379e+01
   2.715791e+02   5.508145e+01
   2.132727e+02   7.090530e+01
   2.134096e+01   2.298601e+02
  -2.434214e+02   1.557968e+02
  -2.660343e+02   8.492869e+01
  -1.406566e+02  -8.452964e+01
   2.199879e+01  -8.386748e+01
   9.345122e+01  -1.424705e+01
  -4.213682e+01   5.519419e+01
  -1.903709e+02   7.140704e+01
  -1.747178e+02  -8.809683e+01
  -3.761959e+00  -1.767153e+02
   5.738006e+01  -1.568990e+02
   1.120844e+02  -1.831769e+01
   5.482146e+01   2.712514e+01
  -5.171506e+01  -1.266360e+01
  -3.104359e+01  -1.029577e+02
   7.696011e+01  -1.350494e+02
   2.646578e+02  -5.234188e+00
   1.310989e+02   1.027388e+02
  -9.494860e+00   1.781970e+02
  -1.243360e+02   1.768211e+02
  -1.479174e+02   2.616677e+01
  -6.990353e+01  -1.171075e+02
   4.178413e+01  -1.429221e+02
   7.020574e+01  -5.576575e+01
   2.532874e+01   2.492270e+01
  -4.412503e+00   6.219373e+00
   9.422573e+00  -6.739827e+00
   6.024015e+01  -4.728629e+00
   7.762394e+01   1.053008e+02
   1.526782e+01   1.511439e+02
  -8.555287e+01   1.317118e+02
  -2.099926e+02   9.844589e+00
  -1.809640e+02  -1.576668e+02
  -6.344574e+01  -2.049376e+02
   9.557022e+01  -1.952398e+02
   1.365532e+02  -3.670211e+01
   1.093289e+02   8.452807e+01
   4.805965e+01   1.516569e+01
   9.729914e+01  -2.269387e+01
   7.783842e+01   8.433044e+00
   2.696884e+01   7.037870e+01
  -3.408290e+01   7.701102e+01
  -1.063757e+02   4.796417e+01
  -1.254539e+02  -5.995644e+01
   1.984170e+01  -1.767677e+02
   1.354856e+02  -9.906969e+01
   2.045096e+02   7.120443e+01
   1.207595e+02   2.255052e+02
  -1.188246e+02   1.914120e+02
  -2.284025e+02   6.947579e+01
  -2.536275e+02  -9.705885e+01
  -7.700885e+01  -1.971986e+02
   3.685105e+01  -1.428601e+02
   1.214451e+02  -1.013659e+02
   1.022740e+02  -7.269860e+01
   1.737585e+01  -8.394632e+01
   7.820762e+01  -1.234124e+02
   1.217754e+02   2.073610e+01
   1.067304e+02   1.206292e+02
   1.468731e+01   2.133684e+02
  -8.359744e+01   1.501835e+02
  -1.580524e+02  -1.166541e+00
  -7.475660e+01  -1.177667e+02
  -2.804098e+01  -1.209144e+02
   9.852387e+01  -9.743397e+01
   2.220167e+01  -1.117417e+01
  -4.106109e+01   3.500834e+01
  -2.170783e+01   2.109347e+01
   1.886298e+01  -3.589977e+00
   7.463299e+01   3.387029e+01
   3.256828e+01   5.192210e+01
  -5.120182e+01  -6.873186e+00
  -1.887355e+02   2.540272e+01
  -1.427082e+02  -4.831147e-01
  -3.702705e+01  -5.717372e+01
   1.544854e+02  -6.182896e+01
   1.604188e+02  -2.220154e+01
   2.115822e+01   5.276994e+01
  -7.159206e+01   3.030936e+01
  -5.625810e+01  -2.170002e+01
  -1.806992e-02  -4.263676e+01
   5.204103e+01  -5.560968e+01
   7.818072e+01   2.747984e+01
   4.841768e+01   5.580181e+01
   4.354218e+01   1.801078e+01
   2.738345e+01  -6.232156e-01
   7.720882e+01   1.213739e+01
  -8.612989e+00   1.523923e+01
  -5.959988e+01   1.243614e+02
  -1.201040e+02   1.298549e+02
  -1.613581e+02  -3.312154e+01
  -1.031170e+02  -1.017395e+02
   5.935825e+00  -2.001303e+02
   7.314543e+01  -4.530730e+01
   6.514440e+01   1.479082e+01
  -5.077853e+01   3.897150e+01
  -1.344751e+02  -4.172601e+01
  -9.362864e+01  -1.064010e+02
   4.565188e+01  -1.193331e+02
   1.943157e+02  -6.203425e+01
   1.315576e+02   4.666319e+01
   2.354339e+01   8.934857e+01
  -6.459034e+01   6.356070e+01
  -5.960738e+01  -1.676517e+00
   6.651286e+01  -5.873898e+01
   6.778896e+01   6.486461e+01
   4.608278e+00   1.272857e+02
  -9.291766e+01   1.176582e+02
  -1.729999e+02   5.462199e+01
  -7.692980e+01  -9.272682e+01
  -2.657702e+01  -1.791987e+02
   4.578550e+01  -1.340078e+02
   9.859871e+01   1.997968e+01
   6.006747e+01   8.411254e+01
  -2.631251e+01   1.155214e+02
  -5.248949e+01  -2.609226e+01
  -4.753709e+01  -1.251852e+01
  -1.668435e+01   5.800896e+00
  -1.807992e+01  -2.450152e+01
  -1.388517e+01   1.496158e+00
  -3.379598e+01  -1.023112e+02
  -2.774855e+00  -1.127673e+02
   7.833668e+01  -2.543950e+01
   1.110538e+02   4.386131e+01
   1.224382e+02   6.565447e+01
   2.864936e+01   3.359906e+01
  -7.691939e+01   1.661123e+01
  -7.211631e+01   2.683393e+01
   1.536703e+01  -6.520067e+00
   4.447364e+01  -3.792806e+01
   2.898064e+01  -1.966018e+01
  -4.412296e+01   4.466154e+01
  -1.911090e+01   2.675202e+01
   7.346022e+01   1.335681e+01
   5.760464e+01   7.466637e+01
  -2.260602e+01   1.938338e+01
  -9.419144e+01   8.873470e+01
  -2.102600e+02   9.060396e+01
  -1.384673e+02  -6.369815e+01
  -2.807987e+01  -1.236899e+02
   5.261299e+01  -1.412129e+02
   1.126715e+02  -6.014012e+01
   7.715627e+01   2.389490e+01
   1.508255e+01   6.719780e+01
   1.398944e+01  -3.215996e+01
   3.900100e+01  -3.097080e+01
   1.322984e+01   6.514594e+01
   5.188375e+01   8.916695e+01
  -3.030250e+01   4.323277e+01
  -1.150135e+02  -8.347198e+00
  -7.163491e+01  -5.456466e+01
   1.602271e+01  -1.245395e+02
   4.979586e+01  -9.829453e-01
   1.201420e+02   4.218820e+00
   8.027749e+01   1.131136e+02
  -4.723214e+01   8.287692e+01
  -2.308178e+01   1.179331e+01
  -5.889816e+01  -6.782184e+01
   1.628147e+01  -7.516931e+01
   5.791046e+01  -2.488824e+01
  -1.187638e+01  -8.311937e+00
  -1.079558e+02  -5.939435e+00
  -2.368173e+01  -6.435323e+01
   6.183785e+01  -9.368689e+01
   1.304057e+02  -5.652593e+01
   7.584185e+01   6.622937e+01
  -1.292660e+01   7.944429e+01
  -2.785678e+01   9.148712e+01
  -3.416459e+01  -2.748110e+01
  -1.031864e+01  -7.792992e+01
   7.611434e+01  -3.096624e+01
   1.010711e+01  -7.677570e+00
   2.117158e+01   1.768913e+00
  -9.632172e-01   4.724557e+01
  -1.256476e+01  -2.691554e+01
  -7.816219e+01  -2.792870e+01
   7.711285e+00   8.848051e+00
   4.071706e+01   4.157235e+01
  -1.421402e+01   1.101239e+01
  -9.291802e-01  -1.857392e+01
   2.154144e+01  -5.453424e+01
   1.938136e+01  -2.172240e+01
   1.907716e+01   3.670325e+01
  -1.095814e+00   9.063877e+01
  -8.536796e+00   7.000439e+00
  -6.607888e+01  -4.005142e+01
  -1.707597e+01  -9.998822e+01
   4.435073e+01  -5.705507e+01
   1.071270e+02   1.333440e+01
   2.111607e+01   3.999609e+01
  -1.004989e+01   5.763561e+01
  -8.843143e+01   1.752344e+01
  -1.665967e+01   3.462936e+01
   4.534584e+01   1.174779e+01
   4.602953e+01   1.675982e-01
  -5.791652e+01   3.376339e+01
  -5.409286e+01   4.892526e+01
