
 $NMID
 id='ANONYMOUS ', fmtdat='(2E16.6)'
 volume=1.0
 tramp=1.0
 $END
  -4.523487e+03  -2.428881e+02
  -1.913682e+03  -3.070333e+03
   8.030953e+02  -2.461845e+03
   1.799240e+03  -8.750590e+02
   1.256463e+03   2.409682e+02
  -6.459611e+02   5.422358e+02
  -8.420026e+02  -5.299957e+02
   2.557139e+02  -8.847185e+02
   8.296856e+02  -7.841516e+02
   8.571488e+02   7.598917e+01
   4.962076e+02   8.781590e+02
  -1.290608e+02   8.695643e+02
  -6.496786e+02   2.218068e+02
  -3.394901e+02  -7.684485e+02
   2.409029e+02  -8.030866e+02
   5.578332e+02   7.868838e+01
   3.311259e+02   6.450820e+02
  -3.942217e+02   7.017068e+02
  -5.319334e+02   1.309542e+02
  -4.024583e+02  -3.157358e+02
  -8.978463e+01  -4.232715e+02
   2.261896e+02  -2.705851e+02
   1.719569e+02  -4.709855e+01
  -1.635018e+02   2.098329e+01
  -3.134291e+02  -2.451278e+02
  -9.836847e+01  -4.952179e+02
   5.786373e+02  -3.940044e+02
   8.347402e+02   7.438804e+01
   4.786166e+02   5.093396e+02
  -4.370359e+02   4.857733e+02
  -7.434916e+02  -1.630355e+02
  -2.351684e+02  -4.534607e+02
   3.169638e+02  -3.581574e+02
   5.444047e+02  -1.680089e+02
   4.118098e+02   2.067756e+02
   6.307064e+01   4.381740e+02
  -1.206347e+02   2.813676e+02
  -7.024661e+01  -1.876781e+02
   1.492486e+02  -4.931476e+02
   3.401172e+02   6.405941e+01
   3.658529e+01   6.170106e+02
  -2.863479e+02   6.700729e+02
  -4.886523e+02   2.751378e+01
  -2.393884e+02  -5.495867e+02
   2.401517e+02  -1.589163e+02
   2.922022e+02   3.642925e+02
  -6.056209e+01   5.484302e+02
  -5.470146e+02   6.068363e+01
  -5.490584e+02  -4.564408e+02
  -1.378238e+02  -5.908782e+02
   3.521490e+02  -3.638615e+02
   6.235470e+02   1.217082e+02
   3.977320e+02   3.508288e+02
  -1.240175e+02   3.516411e+02
  -4.135135e+02   2.044738e+01
  -2.289881e+02  -1.710921e+02
   3.906858e+01  -1.487010e+02
   1.073455e+02   1.238292e+02
  -1.591059e+02   1.728663e+02
  -3.555386e+02  -4.295340e+01
  -1.459447e+02  -3.219541e+02
   1.926138e+02  -2.862429e+02
   3.724276e+02  -9.396484e+01
   2.568638e+02   1.110396e+02
  -2.224428e+01   2.807833e+02
  -3.185040e+02   3.294657e+02
  -3.517108e+02   2.461400e+02
  -3.161861e+02  -9.762307e+01
  -5.624404e+01  -4.709611e+02
   1.090810e+02  -3.675461e+02
   8.909713e+01  -2.090282e+02
   7.252444e+01  -1.195426e+01
   5.549355e+01  -1.100667e+02
   2.637170e+02  -1.436761e+02
   2.726857e+02   9.753939e+01
   1.425821e+02   2.298672e+02
  -1.084405e+02   2.454291e+02
  -2.621615e+02   1.444787e+01
  -1.554563e+02  -2.672874e+02
   4.573717e+01  -3.156424e+02
   2.849337e+02  -4.942237e+01
   3.315909e+02   2.166668e+02
   1.900242e+02   3.837802e+02
  -9.742629e+01   3.336974e+02
  -2.030760e+02   1.271133e+02
  -1.360880e+02   1.462420e+00
  -1.417955e+02   6.907838e+01
  -2.723245e+02   4.062853e+01
  -4.262461e+02  -6.120317e+01
  -3.153552e+02  -3.555495e+02
   6.069830e+01  -4.508531e+02
   4.275526e+02  -3.624084e+02
   5.142435e+02  -1.193660e+02
   3.453911e+02   1.231939e+02
   2.882298e+01   2.880923e+02
  -1.247417e+02   2.456929e+02
  -6.115976e+01   3.948150e+01
   8.297614e+01  -1.203355e+02
   1.719805e+02   4.720174e+01
   4.767509e+01   1.800837e+02
  -1.688638e+02   1.540682e+02
  -1.526373e+02  -2.080418e+01
   3.831094e+01  -1.477848e+02
   1.796073e+02  -7.224317e+00
   1.641184e+02   3.036906e+02
  -6.316355e+01   3.150254e+02
  -1.972169e+02   1.534630e+02
  -3.482474e+02  -7.094504e+01
  -2.505980e+02  -2.640288e+02
  -7.880400e+01  -2.645912e+02
   1.299650e+02  -1.926219e+02
   1.971682e+02  -3.002474e+00
   3.975290e+01   5.161547e+01
  -1.001342e+02  -6.610739e+01
   1.420791e-01  -1.198008e+02
   1.129357e+02  -1.288570e+02
   1.562517e+02   8.305774e+01
   6.349955e+01   3.906644e+01
  -5.462183e+01  -5.090847e+00
  -4.497434e+01  -1.040177e+02
   1.342268e+02  -9.221428e+01
   2.682010e+02   3.301187e+01
   2.297507e+02   1.735117e+02
   7.275494e+01   2.488612e+02
  -2.285019e+02   2.816881e+02
  -2.628570e+02   1.042405e+02
  -1.098345e+02  -4.671200e+01
   2.834907e+01  -1.320861e+02
   1.140129e+02   1.427494e+01
  -6.189381e+01   1.075802e+02
  -1.755955e+02   3.586310e+01
  -2.308275e+02  -1.262230e+02
  -9.483958e+01  -2.077066e+02
   1.418632e+02  -9.662473e+01
   1.997360e+02  -1.975125e+01
   2.463320e+01   3.510044e+01
  -2.810379e+01  -3.147114e+01
  -2.999759e+01  -6.428417e+01
   7.006412e+01  -1.804877e+02
   1.895526e+02  -5.680669e+01
   2.273548e+02   1.385711e+02
  -9.113730e-01   2.231424e+02
  -1.572184e+02   1.453418e+02
  -1.887587e+02   2.629554e+01
  -6.882377e+01  -1.218995e+02
   6.248964e+01  -6.760306e+01
   1.120467e+02  -2.250752e+01
   1.195578e+01   4.870725e+01
  -4.265727e+01  -9.581924e+00
   3.476500e+01   2.353840e+01
   6.422379e+01   3.047188e+01
   8.667187e+01   3.995591e+01
   1.545293e+01   1.852713e+02
  -1.388981e+02   1.598912e+02
  -2.843614e+02   7.922306e+00
  -1.872204e+02  -2.099335e+02
  -6.096343e+01  -2.478700e+02
   1.378059e+02  -1.742454e+02
   1.339339e+02  -4.491982e+00
   9.945505e+01   4.777474e+01
   1.303027e+01   2.499118e+01
   4.445554e+01  -4.458228e+00
   3.689637e+01  -8.115377e-01
   7.608954e+01   5.693204e+01
  -4.472780e+01   1.166314e+02
  -1.367089e+02   4.885587e+01
  -9.581391e+01  -4.109031e+01
   8.988575e+00  -1.141167e+02
   1.584372e+02  -1.226933e+02
   1.771321e+02   1.204080e+02
   4.543853e+01   1.676472e+02
  -1.836505e+02   2.497291e+02
  -2.754752e+02   9.294000e+01
  -2.466614e+02  -6.551693e+01
  -6.320373e+01  -1.670264e+02
   2.596530e+01  -2.021705e+02
   5.695041e+01  -5.530557e+01
   8.249959e+01  -6.636054e+01
   8.430489e+01  -1.258160e+02
   5.226661e+01  -7.329623e+01
   2.053916e+02   5.011215e+01
   1.824238e+02   1.448013e+02
   4.262807e+01   1.951860e+02
  -1.204280e+02   1.914769e+02
  -2.015748e+02   4.940609e+01
  -1.505002e+02  -1.484920e+02
  -3.842007e+00  -1.916276e+02
   5.851001e+01  -1.136967e+02
   6.596791e+01   5.458921e+00
  -6.771480e+01   6.354005e+01
   1.311489e+01   5.058083e+01
   1.852164e+01   5.156294e+00
   6.992909e+01   3.873655e+01
   3.905253e+01   3.598339e+01
  -7.561642e+01   2.505680e+01
  -1.815204e+02   2.971152e+00
  -1.086633e+02  -4.166258e+01
  -3.378385e+00  -1.001838e+02
   1.155061e+02  -9.071330e+01
   1.765366e+02  -2.317784e+00
   5.993202e+01   3.850548e+00
  -8.282344e+01   1.843952e+01
  -1.170580e+02  -4.455600e+01
  -1.497388e+01  -7.348172e+01
   5.668146e+01  -3.228340e+01
   4.314673e+01   4.732801e+00
   5.478651e+01   4.584051e+01
   3.595842e+01   6.134937e+01
   4.406601e+01  -1.203543e+01
   7.884444e+01   1.785196e+01
   4.668322e+01   5.772061e+01
  -6.476530e+01   1.499649e+02
  -1.121691e+02   1.606520e+02
  -1.539323e+02   7.892125e+00
  -1.122646e+02  -7.717360e+01
   9.549850e+00  -1.525302e+02
   9.708325e+01  -8.668350e+01
   9.417787e+01   1.380997e+01
  -3.760282e+01   4.423956e+01
  -1.354672e+02  -9.870850e+00
  -7.728897e+01  -1.498193e+02
   7.921606e+01  -8.642944e+01
   1.946883e+02  -5.467344e+01
   1.440987e+02   6.833666e+01
   4.824816e+01   5.962068e+01
  -5.421084e+01   3.366965e+01
  -8.328515e+01  -1.534679e+00
   8.708302e+01  -2.319955e+01
   7.978422e+01   1.980393e+01
   2.406850e+01   1.603506e+02
  -1.258469e+02   1.871540e+02
  -1.661083e+02   4.124883e+01
  -1.403255e+02  -1.114437e+02
   2.278772e+01  -2.175204e+02
   3.641855e+01  -1.526283e+02
   5.391554e+01   2.516542e+00
   6.717180e+01   1.236213e+02
  -1.478456e+01   1.098926e+02
  -5.893239e+01   6.165174e+00
  -1.063850e+02  -8.606872e+01
  -8.327774e+00  -2.908083e+01
   2.512503e+01  -2.698994e+01
  -3.037007e+01  -2.594324e+01
  -6.904059e+01  -1.062050e+02
  -2.199480e+01  -1.222254e+02
   8.273091e+01  -3.437576e+01
   1.630258e+02   5.152938e+01
   1.418452e+02   3.896840e+01
   5.798365e+00   4.309976e+01
  -9.799643e+01  -2.094219e+01
  -7.940305e+01  -2.460184e+01
  -1.200870e+01  -2.450402e+01
   9.613625e+01  -1.524357e+01
   4.638069e+01  -5.312991e+01
  -8.311462e-01   3.843039e+01
  -5.762668e+00   2.242984e-01
   5.441470e+01   3.081339e+01
   1.010647e+02   2.234972e+01
   1.394877e+01   6.671619e+01
  -1.385754e+02   8.318988e+01
  -2.041049e+02   6.939201e+01
  -1.299264e+02  -7.691650e+01
  -2.871099e+01  -1.418545e+02
   7.823996e+01  -1.490790e+02
   9.235731e+01  -3.822594e+01
   9.775127e+01   8.544377e+01
   2.589981e+01   5.669158e+01
   1.871110e+01  -4.939742e+01
   1.813873e+01   6.467337e-01
   4.008829e+01   5.478727e+01
  -1.343049e+01   1.133353e+02
  -4.579611e+01   7.743614e+01
  -1.219916e+02  -1.395190e+01
  -1.201851e+02  -2.837425e+01
  -2.366333e+01  -1.326990e+02
   7.067913e+01  -3.589734e+01
   1.178088e+02   9.505974e+01
   3.594903e+01   1.126009e+02
  -8.398111e+01   7.775314e+01
  -7.415958e+01  -1.167053e+01
  -3.390547e+01  -6.385940e+01
   2.963512e+01  -8.819518e+01
   3.726460e+01  -5.073821e+01
  -5.364080e+01  -3.018378e+01
  -1.032797e+02   1.098000e+01
  -3.983210e+01  -5.497538e+01
   8.194753e+01  -5.133444e+01
   9.523352e+01  -4.876242e+01
   1.063198e+02   3.211994e+01
  -2.137282e+00   8.362234e+01
  -6.765658e+01   7.394446e+01
  -3.594845e+01  -1.361922e+01
  -4.017016e+01  -8.171952e+01
   1.257117e+01  -7.041479e+01
   5.302156e+01   3.751069e+01
  -1.236096e+01   5.955122e+01
  -1.971749e+01   5.319926e+01
  -1.873992e+01  -7.662581e+00
  -1.275530e+01   1.762102e+01
  -2.310353e+01   1.110447e+00
  -1.839598e+01   5.484530e+01
   8.091431e-01   1.794066e+01
   3.047178e+00  -3.231787e+01
   1.161089e+01  -1.876989e+01
   2.264531e+01  -2.761731e+01
   1.393868e+01   6.212503e+01
   1.446654e+01   1.104660e+02
  -5.524964e+01  -1.637506e+00
  -2.484109e+01  -4.167098e+01
   9.362277e+00  -4.665282e+01
   3.709444e+01  -2.293427e+00
   9.369357e+01   2.249011e+01
   3.652775e+01   7.611556e+01
  -3.786384e+01   7.284661e+01
  -5.813329e+01   2.843771e+01
  -4.008207e+01   1.262523e+01
   3.798863e+01  -4.475750e+00
   4.387944e+01   5.733797e+01
  -6.424460e+01  -1.455202e+01
  -1.199378e+02   4.584315e+01
