
 $NMID
 id='ANONYMOUS ', fmtdat='(2E16.6)'
 volume=1.0
 tramp=1.0
 $END
  -4.363646e+03   4.784054e+02
  -2.447952e+03  -2.173880e+03
   2.996997e+02  -2.506900e+03
   1.465118e+03  -1.399419e+03
   9.601673e+02   3.574422e+02
  -4.731062e+02   6.702640e+02
  -6.770454e+02  -4.400544e+02
   5.965158e+01  -9.464878e+02
   6.618352e+02  -7.405167e+02
   9.348516e+02   7.704435e+01
   5.489059e+02   6.902719e+02
  -1.618132e+02   7.527773e+02
  -5.035968e+02   1.341759e+02
  -2.933981e+02  -5.431697e+02
   2.153569e+02  -5.874533e+02
   6.254942e+02  -6.969607e+01
   2.731750e+02   5.536448e+02
  -3.285951e+02   6.146881e+02
  -5.001672e+02   1.254633e+02
  -4.053986e+02  -2.811083e+02
  -1.070024e+02  -4.926770e+02
   2.150124e+02  -2.477337e+02
   1.931427e+02  -3.472328e+01
  -1.249775e+02   5.357594e+01
  -3.836348e+02  -5.670922e+01
  -1.098516e+02  -4.383822e+02
   3.451176e+02  -3.900346e+02
   8.064602e+02   7.436390e+01
   3.245221e+02   4.821669e+02
  -4.163075e+02   4.168889e+02
  -6.431249e+02  -3.286618e+00
  -3.182665e+02  -4.326526e+02
   2.454279e+02  -5.551399e+02
   5.748047e+02  -2.673199e+02
   3.481876e+02   1.912762e+02
   1.242034e+02   4.007723e+02
  -1.695546e+02   2.352170e+02
  -1.465354e+02  -1.912285e+02
   1.643208e+02  -4.397418e+02
   3.990298e+02   1.491985e+02
   1.373890e+02   6.619031e+02
  -2.898648e+02   5.319624e+02
  -4.840938e+02   5.621665e+01
  -2.544165e+02  -4.875078e+02
   2.304414e+02  -3.220922e+02
   3.968025e+02   3.104294e+02
  -5.820989e+01   5.816447e+02
  -5.190025e+02   9.690208e+01
  -6.217712e+02  -3.936803e+02
  -2.052336e+02  -4.821756e+02
   3.342601e+02  -4.288767e+02
   4.852984e+02  -3.776706e+01
   3.677672e+02   3.465837e+02
  -1.315448e+02   2.854881e+02
  -4.974183e+02   2.287784e+01
  -2.705496e+02  -7.453849e+01
   1.020045e+02  -1.011329e+02
   1.339019e+02   1.122989e+02
  -1.564034e+02   1.782196e+02
  -1.943510e+02  -3.680562e+01
  -1.580332e+02  -2.501698e+02
   1.820945e+02  -2.822392e+02
   3.103914e+02  -9.221524e+01
   2.540591e+02   6.644976e+01
  -1.941546e+01   2.653268e+02
  -1.933269e+02   3.286089e+02
  -3.161239e+02   2.073113e+02
  -2.764607e+02  -9.552571e+01
  -6.392779e+01  -4.024454e+02
   9.158945e+01  -3.572565e+02
   6.297059e+01  -1.450711e+02
   1.521128e+01  -5.328356e+01
   5.934461e+01  -1.122922e+02
   2.017930e+02  -7.750772e+01
   2.771563e+02   9.138614e+01
   1.428857e+02   2.928332e+02
  -4.715188e+01   2.091156e+02
  -1.749434e+02   1.976076e+00
  -1.859542e+02  -2.332714e+02
  -1.828425e+01  -3.122441e+02
   2.928830e+02  -1.648603e+02
   3.920333e+02   1.982529e+02
   2.100041e+02   3.361900e+02
  -2.862686e+01   3.140925e+02
  -1.741048e+02   1.620561e+02
  -1.548396e+02   9.832216e+01
  -1.114609e+02   7.691119e+01
  -2.200671e+02   1.069595e+02
  -4.444949e+02  -6.296690e+01
  -2.845435e+02  -2.951429e+02
  -3.469809e+01  -4.977954e+02
   3.202726e+02  -5.047991e+02
   4.258083e+02  -2.161400e+02
   2.962238e+02   1.230822e+02
   5.243330e+01   3.072617e+02
  -1.030386e+02   2.610963e+02
  -6.563921e+01   2.915657e+01
   1.470984e+02  -1.083188e+02
   1.687630e+02   3.077472e+01
   9.579132e+00   1.739479e+02
  -9.265403e+01   1.947160e+02
  -1.925067e+02  -6.097477e+01
   5.466266e+01  -1.506499e+02
   2.036953e+02  -2.632071e+01
   1.800554e+02   2.840380e+02
   2.284013e+01   3.442093e+02
  -2.485209e+02   2.120052e+02
  -2.992687e+02   4.826410e+00
  -3.731893e+02  -2.806762e+02
  -8.751840e+01  -2.642460e+02
   1.487665e+02  -1.689544e+02
   1.263992e+02  -8.629220e+00
   5.982923e+01   2.249686e+01
  -7.261983e+01  -2.024971e+01
  -2.569454e+01  -1.221391e+02
   1.062913e+02  -1.020666e+02
   2.132075e+02   2.025358e+01
   5.926536e+01   7.925399e+01
  -7.942820e+01   1.539654e+01
  -4.663375e+01  -9.248405e+01
   1.390126e+02  -8.200111e+01
   2.423976e+02  -6.830090e+01
   2.814317e+02   1.481308e+02
   7.425335e+01   2.425050e+02
  -1.320668e+02   2.674954e+02
  -2.711854e+02   1.038710e+02
  -1.991035e+02   3.516791e+00
   3.773682e+00  -1.316289e+02
   1.173846e+02  -8.459608e+00
  -4.037892e+01   1.024005e+02
  -1.859842e+02   9.466276e+01
  -1.680521e+02  -8.672343e+01
  -6.246337e+01  -2.407831e+02
   9.717003e+01  -1.529040e+02
   1.472285e+02  -3.945700e+01
   8.097178e+01   3.674418e+01
  -5.501739e+01  -3.051518e+01
  -4.356933e+01  -9.397481e+01
   1.722983e+01  -1.330649e+02
   2.086385e+02  -4.920646e+01
   1.699796e+02   8.506694e+01
  -3.075199e+01   1.892274e+02
  -1.110069e+02   1.064423e+02
  -1.664672e+02   4.170160e+00
  -6.106047e+01  -1.150230e+02
   7.531646e+01  -8.622429e+01
   9.566271e+01  -2.986350e+01
  -3.868224e+00   3.104432e+01
  -4.222806e+01   2.985215e+01
  -1.971546e+00  -2.894382e+01
   8.592581e+01   2.033883e+00
   8.137505e+01   6.644789e+01
   3.234298e-01   1.596781e+02
  -9.562651e+01   1.117877e+02
  -2.598457e+02   7.462339e+01
  -2.219923e+02  -1.429360e+02
  -4.945774e+01  -1.983194e+02
   1.113796e+02  -1.655027e+02
   1.058409e+02  -1.797282e+01
   8.925872e+01   9.202027e+01
   6.832253e+01   2.428127e+00
   4.543111e+01  -1.556975e+00
   9.355571e+01  -8.761164e+00
   4.571181e+01   4.146239e+01
  -6.322313e+01   1.165967e+02
  -9.758086e+01   5.713611e+01
  -1.003311e+02  -1.470308e+01
  -8.148865e+00  -1.244438e+02
   1.553663e+02  -1.250425e+02
   1.853169e+02   6.469603e+01
   8.682276e+01   1.915054e+02
  -9.521879e+01   2.457672e+02
  -2.522347e+02   1.314278e+02
  -2.493245e+02  -9.891531e+01
  -7.379261e+01  -2.128176e+02
  -2.520453e+01  -1.311353e+02
   1.354655e+02  -9.956805e+01
   6.522885e+01  -6.429954e+01
   2.628144e+01  -1.200691e+02
   1.062947e+02  -9.820315e+01
   1.345643e+02  -2.097376e+01
   7.713806e+01   1.139107e+02
   6.867408e+00   2.650366e+02
  -5.877001e+01   1.833472e+02
  -1.536650e+02   2.067311e+00
  -1.495551e+02  -1.461535e+02
  -4.118536e+01  -1.482177e+02
   8.424949e+01  -1.017938e+02
   2.803561e+01  -1.131780e+01
  -3.118184e+01   6.701316e+01
  -2.099366e+01   1.389006e+01
   5.816472e+01  -1.791745e+01
   8.606600e+01  -1.033526e+01
   7.384134e+01   1.909921e+01
  -2.463879e+01   5.613456e+01
  -9.793613e+01   3.621028e+01
  -8.954352e+01  -4.012656e+01
   2.848813e+00  -5.982194e+01
   1.493219e+02  -1.061020e+02
   1.691561e+02  -3.864000e+01
   5.202900e+01   4.190084e+01
  -6.144109e+01   3.556324e+01
  -9.883073e+01  -5.253603e+01
  -2.809834e+01  -5.869246e+01
   6.338984e+01  -6.609175e+01
   2.864258e+01  -1.130322e+01
  -1.209596e+00   5.776714e+01
   4.193546e+01   3.005827e+01
   5.146824e+01  -2.911211e+01
   1.128764e+02  -3.368313e+01
   8.787543e+01   4.371783e+01
  -2.393812e+01   1.344838e+02
  -8.885394e+01   1.394942e+02
  -1.664782e+02   3.570736e+01
  -1.549110e+02  -8.741496e+01
  -3.180371e+01  -1.269381e+02
   1.056802e+02  -5.375103e+01
   1.653789e+01  -2.955518e+01
  -7.078000e+01   3.689702e+01
  -1.545005e+02  -3.639926e+01
  -5.061276e+01  -1.112756e+02
   5.541009e+01  -1.150233e+02
   1.390335e+02  -6.135136e+01
   1.629981e+02  -1.798953e+01
   5.454963e+00   7.379512e+01
  -5.008523e+01   8.919997e+01
  -4.446907e+01   8.724928e+00
   1.760884e+01  -7.103776e+01
   8.299412e+01   3.306044e+01
   6.980678e+01   1.170191e+02
  -9.388412e+01   1.460462e+02
  -1.542240e+02   1.028525e+02
  -1.355802e+02  -7.047214e+01
  -3.282495e+01  -2.028312e+02
   7.446347e+01  -1.900511e+02
   1.600326e+02   1.132165e+01
   7.425539e+01   1.683308e+02
   1.797847e+01   9.962924e+01
  -2.703535e+01   1.702121e+01
  -5.452453e+01  -5.058645e+01
  -2.533820e+01   8.160115e+00
  -1.699979e+01   6.964206e+00
  -3.039863e+01  -3.676760e+01
  -6.513229e+01  -7.608538e+01
  -5.294920e+01  -4.410039e+01
   5.618773e+01  -7.003458e+01
   1.474962e+02  -6.411427e-01
   1.394817e+02   9.286993e+01
   3.592047e+01   8.130136e+00
  -4.338536e+01   1.872405e+01
  -1.073890e+02   5.925305e+00
   1.976544e+01  -2.149754e+01
   4.348125e+01  -4.616029e+01
  -6.102742e+00  -2.481967e+01
  -2.637400e+01   3.289191e+01
   4.872568e+00  -4.219643e+01
   6.035774e+01  -2.058877e+01
   9.081707e+01  -8.080974e+00
   6.327728e+01   1.009954e+02
  -1.152818e+02   1.362814e+02
  -1.957595e+02   3.533484e+01
  -1.405390e+02  -5.467709e+01
  -5.412278e+01  -1.458362e+02
   7.153473e+01  -1.849402e+02
   7.500853e+01  -6.554648e+01
   8.887455e+01  -7.706445e-01
   1.414654e+01   2.279401e+01
  -3.940920e+00   5.975620e+00
   3.116022e+01  -3.090175e+01
   1.793917e+01   4.143796e+01
   2.006153e+01   1.123398e+02
  -3.265452e+01   5.959651e+01
  -7.677397e+01   3.645010e+01
  -5.610204e+01  -8.623704e+01
   1.934222e+01  -1.004958e+02
   5.467310e+01  -3.645490e+00
   1.035257e+02   8.718499e+01
   1.940914e+01   7.984502e+01
  -5.355462e+01   5.373293e+01
  -1.113158e+02  -1.110646e+01
  -5.112264e+01  -4.642630e+01
   3.095066e+01  -9.151776e+01
   4.962408e+01  -8.760317e+01
  -4.379328e+01   3.352330e+01
  -7.319132e+01   2.683457e+01
  -1.758521e+01  -2.963197e-01
   6.246459e+01  -7.159764e+01
   1.498465e+02  -9.853419e+00
   4.818762e+01   3.108882e+01
  -2.723056e+01   6.440540e+01
  -4.004325e+01   8.898964e+01
  -5.981745e+01   5.111315e-01
   1.988117e+01  -6.811270e+01
   2.412077e+01  -6.441599e+01
   9.575114e+00   3.229590e+01
   1.262443e+01   6.506530e+01
  -1.074551e+00   6.045845e+01
  -4.284349e+01  -1.393415e+01
  -1.034551e+01  -2.628915e+01
  -2.726751e+01   4.661108e+00
   1.941037e+01   1.814125e+01
   3.166693e+01  -2.631487e+01
   2.739570e+01  -1.547959e+01
   2.168229e+01  -4.859558e+01
   3.733541e+01  -3.301743e+01
   3.122763e+01   2.496395e+01
   3.583544e+01   3.697255e+01
  -4.345017e+01   6.010738e+00
  -2.868616e+01  -3.541304e+01
  -6.286400e+01  -1.029660e+02
   9.889017e+01   2.151481e+00
   7.680529e+01  -1.770316e+01
   9.120969e+01   4.010029e+01
  -3.205337e+01   5.400553e+01
  -4.465386e+01   1.142030e+00
  -3.534670e+01   2.132455e+01
   3.071066e+01  -1.480699e+00
   5.417260e+01   2.961307e+01
  -4.299253e+01  -2.552986e+01
  -9.480494e+01   6.428824e+00
