
 $NMID
 id='ANONYMOUS ', fmtdat='(2E16.6)'
 volume=1.0
 tramp=1.0
 $END
  -4.377809e+03  -7.046772e+02
  -2.836158e+03  -2.939368e+03
   9.732738e+02  -3.060288e+03
   2.550010e+03  -4.872491e+02
   1.140910e+03   9.214300e+02
  -6.080146e+02   5.739957e+02
  -1.136212e+03  -4.074108e+02
   2.742055e+02  -9.494386e+02
   9.186395e+02  -5.932049e+02
   9.891050e+02   1.176444e+02
   5.053332e+02   1.085248e+03
  -4.281347e+02   8.529377e+02
  -6.972689e+02   1.060359e+02
  -3.403958e+02  -7.467910e+02
   2.183265e+02  -8.216507e+02
   6.605051e+02   1.407556e+02
   3.445439e+02   8.151275e+02
  -3.782561e+02   6.243579e+02
  -5.977262e+02   3.614467e+01
  -5.145533e+02  -4.408984e+02
   2.801536e+01  -5.576400e+02
   3.121557e+02  -2.896239e+02
   2.304955e+02  -3.092801e+01
  -1.409073e+02   1.180744e+02
  -4.540188e+02  -1.891923e+02
  -2.443398e+02  -5.267158e+02
   5.823500e+02  -3.122162e+02
   8.969640e+02   1.570342e+02
   4.284680e+02   6.129333e+02
  -5.164495e+02   4.926120e+02
  -7.696470e+02  -1.445729e+02
  -2.805476e+02  -5.138387e+02
   3.763902e+02  -5.564792e+02
   6.505147e+02  -1.693040e+02
   4.749485e+02   2.601174e+02
   5.689033e+00   5.416466e+02
  -2.682337e+02   2.778583e+02
  -2.012466e+02  -1.897535e+02
   2.370127e+02  -4.027975e+02
   4.361491e+02   4.969381e+01
   1.104546e+02   7.732174e+02
  -4.009634e+02   7.168438e+02
  -5.627571e+02  -1.355523e+01
  -2.111821e+02  -7.379647e+02
   3.162535e+02  -3.110841e+02
   3.352672e+02   3.490950e+02
  -7.781088e+01   5.431419e+02
  -6.146557e+02   1.904750e+01
  -6.039795e+02  -4.270343e+02
  -1.573876e+02  -7.028095e+02
   4.530302e+02  -3.343014e+02
   6.490257e+02   1.424022e+02
   4.150000e+02   4.165934e+02
  -1.540490e+02   4.396914e+02
  -5.734644e+02   6.317785e+01
  -2.221226e+02  -3.046366e+02
   1.572073e+02  -1.107688e+02
   1.089700e+02   1.829234e+02
  -1.951173e+02   1.971850e+02
  -3.580856e+02  -1.225843e+02
  -1.447718e+02  -3.090387e+02
   2.201371e+02  -3.038786e+02
   3.557180e+02  -5.718053e+01
   2.103204e+02   6.497193e+01
  -6.029641e+01   2.561372e+02
  -2.566813e+02   3.196453e+02
  -3.798599e+02   2.450710e+02
  -3.383242e+02  -9.177294e+01
  -1.176476e+02  -5.127653e+02
   1.646628e+02  -3.577568e+02
   1.436206e+02  -1.119089e+02
   4.194974e+01   1.141614e+01
   4.837669e+01  -1.099193e+02
   2.446136e+02  -1.576157e+02
   2.949687e+02   5.299117e+01
   1.975466e+02   3.160041e+02
  -8.304466e+01   2.565098e+02
  -2.276428e+02   1.165101e+01
  -2.163309e+02  -2.873912e+02
   2.919270e+01  -3.004385e+02
   3.041881e+02  -7.969982e+01
   3.974343e+02   2.570520e+02
   2.379445e+02   4.378859e+02
  -1.251670e+02   3.473637e+02
  -2.427558e+02   1.005416e+02
  -1.549097e+02   4.649396e+00
  -1.099656e+02   5.563218e+01
  -2.282320e+02   5.599201e+01
  -4.505312e+02  -6.781538e+01
  -2.987919e+02  -3.065319e+02
   1.122749e+02  -4.635793e+02
   3.790841e+02  -4.534760e+02
   5.350273e+02  -1.881939e+02
   4.050861e+02   1.105914e+02
   5.292260e+01   3.109608e+02
  -2.081347e+02   3.024002e+02
  -7.152803e+01   7.055309e+01
   1.069133e+02  -9.785860e+01
   2.545153e+02  -1.049951e+01
   1.671164e+01   2.777138e+02
  -2.196958e+02   1.851327e+02
  -1.867785e+02  -1.072141e+02
   2.252027e+01  -1.871115e+02
   1.964765e+02  -5.947210e+01
   1.733469e+02   2.810984e+02
  -2.638734e+01   3.945703e+02
  -2.608577e+02   1.672017e+02
  -3.531571e+02  -8.633870e+01
  -2.841556e+02  -2.812221e+02
  -7.966451e+01  -2.705599e+02
   1.392916e+02  -1.833869e+02
   1.698379e+02  -6.427509e+00
   8.846398e+01   6.151806e+01
  -7.109695e+01  -4.825691e+01
  -2.998522e+01  -1.323215e+02
   1.694856e+02  -1.056360e+02
   2.343376e+02  -1.621351e+01
   8.509188e+01   1.062973e+02
  -7.294907e+01   6.592101e+01
  -3.821252e+01  -9.210576e+01
   1.497255e+02  -7.115152e+01
   2.535295e+02   4.847269e+01
   3.080193e+02   1.941145e+02
   3.048058e+01   2.902217e+02
  -1.843894e+02   2.492824e+02
  -2.742786e+02   9.909610e+01
  -1.701903e+02  -1.030223e+02
   8.564364e+01  -1.176039e+02
   1.035216e+02  -3.454702e+01
  -2.822730e+01   5.526355e+01
  -2.030938e+02   4.377124e+01
  -2.514114e+02  -1.177152e+02
  -7.465697e+01  -2.678496e+02
   1.143796e+02  -2.007283e+02
   1.485427e+02  -3.352033e+01
   9.506600e+01   4.829313e+01
  -2.968889e+01   2.104432e+01
  -9.029791e+01  -8.737722e+01
   6.946102e+01  -1.530987e+02
   2.291283e+02  -4.702226e+00
   2.116058e+02   1.487251e+02
   6.754453e+01   2.826872e+02
  -2.182504e+02   1.709025e+02
  -2.037011e+02   6.410353e+00
  -1.011720e+02  -1.431418e+02
   7.981972e+01  -8.391237e+01
   9.195975e+01  -1.926344e+01
   1.252200e+01   4.762872e+01
  -1.668694e+01   3.672122e-01
  -7.213131e+00   4.332735e+00
   6.515129e+01  -1.043730e+01
   9.961805e+01   7.181978e+01
   2.787493e+01   1.635368e+02
  -1.124350e+02   1.643111e+02
  -2.542106e+02  -2.011081e+01
  -2.097646e+02  -1.960384e+02
  -5.417325e+01  -1.956109e+02
   1.448794e+02  -1.824423e+02
   1.729724e+02  -1.733036e+01
   7.330523e+01   3.527932e+01
   2.865911e+01   4.247658e+01
   1.042833e+02  -6.087058e+01
   4.521813e+01  -1.150947e+01
   3.825355e+01   4.351416e+01
  -2.596827e+01   8.423578e+01
  -8.888745e+01   2.775188e+01
  -1.060618e+02  -3.838015e+01
  -1.955352e+01  -1.410149e+02
   1.865192e+02  -9.520931e+01
   2.191779e+02   8.733816e+01
   8.004763e+01   2.292519e+02
  -1.771402e+02   2.495068e+02
  -3.091255e+02   6.740958e+01
  -3.249608e+02  -1.264671e+02
  -7.192588e+01  -2.429970e+02
   2.112860e+01  -1.832287e+02
   7.658121e+01  -4.993154e+01
   9.469554e+01  -1.085806e+02
   3.447183e+01  -9.846927e+01
   8.849024e+01  -5.133688e+01
   1.564582e+02   2.558197e+01
   1.505253e+02   1.164211e+02
  -1.180640e+00   3.272719e+02
  -1.253919e+02   1.470384e+02
  -1.711980e+02   3.269962e+01
  -1.379948e+02  -1.559584e+02
  -1.582852e+01  -1.417202e+02
   7.486074e+01  -7.980884e+01
   1.126124e+02  -4.322378e+01
   2.728536e+01   2.946614e+01
  -4.821186e+01   3.568687e+01
   3.554556e+01   2.138254e+01
   7.494328e+01   3.814710e+01
   2.791192e+01   2.576937e+01
  -8.764101e+01   9.831505e+01
  -1.822431e+02  -3.123395e+00
  -1.587044e+02  -2.815654e+01
  -5.238852e+01  -9.468225e+01
   1.402494e+02  -7.555475e+01
   1.444515e+02   1.128260e+01
   8.502803e+00   3.165645e+00
  -6.761976e+01   3.977909e+01
  -8.369535e+01  -3.869817e+00
  -4.905667e+00  -8.609919e+01
   5.968716e+01  -5.361546e+01
   5.030100e+01  -9.309035e+00
   3.636340e+01   5.154737e+01
   4.709911e+01   6.516993e+01
   4.028963e+01  -1.602957e+01
   9.803121e+01  -4.707551e-01
   6.890741e+01   8.864911e+01
  -4.042677e+01   1.528837e+02
  -1.094458e+02   1.535169e+02
  -1.951766e+02   5.687276e+01
  -2.057267e+02  -5.802450e+01
  -1.587202e+01  -9.657232e+01
   6.527426e+01  -5.358500e+01
   9.295356e+01   8.788122e+00
  -9.724487e+01   6.382072e+00
  -1.736126e+02  -3.925303e+01
  -5.286271e+01  -1.431385e+02
   1.085640e+02  -1.218311e+02
   2.055428e+02  -2.868260e+01
   1.855486e+02   2.999845e+01
   2.307039e+01   5.826440e+01
  -8.819122e+01   8.512626e+01
  -3.462993e+01   5.803762e+00
  -3.169612e+00   1.653153e+01
   9.366083e+01   5.989090e+01
  -9.193767e+00   9.292613e+01
  -8.600699e+01   1.516357e+02
  -1.585250e+02   7.544227e+01
  -1.371380e+02  -1.276345e+02
   1.919218e+01  -2.261945e+02
   8.924337e+01  -1.431301e+02
   7.899491e+01  -3.166651e+01
   4.332898e+01   1.357454e+02
   2.047328e+01   1.159701e+02
  -2.209036e+01   8.088064e+01
  -3.780655e+01  -4.243207e+01
   1.576548e+01  -1.034784e+01
   3.470409e-01   3.665520e+01
  -4.514801e+01  -9.406548e+00
  -5.002578e+01  -9.310105e+01
  -6.950224e+01  -1.347287e+02
   1.354685e+01  -3.215209e+01
   1.621196e+02   3.047911e+01
   1.749350e+02   1.404915e+02
   2.849913e+01   7.453660e+01
  -5.702782e+01   1.097201e+01
  -1.181113e+02   2.283128e+01
  -2.348735e+01  -5.363166e+00
   4.806215e+01  -3.975134e+01
   1.019691e+01  -1.385722e+01
  -4.073305e+01   6.622639e+00
   9.336322e+00   5.324372e+00
   5.330286e+01   3.464796e+01
   1.138812e+02   1.446837e+01
  -9.493588e+00   1.110642e+02
  -1.201356e+02   1.042754e+02
  -1.891688e+02   8.100683e+01
  -1.296050e+02  -6.604495e+01
  -4.501060e+01  -1.849883e+02
   9.013196e+01  -1.726992e+02
   1.024580e+02  -8.319717e+01
   9.643469e+01   1.448230e+01
   5.640955e+00   5.203155e+01
   6.272420e+00   1.170401e+01
   1.488820e+00   2.787359e+01
   3.194725e+01   3.690389e+01
   1.638532e+01   8.916191e+01
  -2.947084e+01   7.338429e+01
  -9.690355e+01  -2.946611e+01
  -1.046381e+02  -1.063628e+02
  -1.627959e+01  -1.513341e+02
   8.530870e+01  -9.490740e+00
   9.901762e+01   6.163239e+01
   1.819476e+01   1.040576e+02
  -9.631887e+01   4.831645e+01
  -8.147328e+01  -4.131670e+01
  -2.940952e+01  -7.233454e+01
   5.201865e+01  -4.971128e+01
   4.537772e+01  -3.128234e+01
  -6.645455e+01  -4.116146e+01
  -1.258170e+02   5.705632e+01
   2.174878e+01  -1.926662e+01
   9.089982e+01  -4.663503e+01
   1.046407e+02  -4.660553e+01
   6.837283e+01   7.606896e+00
  -3.090648e+01   9.940177e+01
  -1.724503e+01   8.154788e+01
  -3.440274e+01  -1.067898e+01
  -7.116139e+00  -9.218726e+01
   2.412918e+01   1.317168e+01
   1.920308e+01   4.013911e+01
   3.261940e+01   6.045224e+01
   2.887292e+01   5.512351e+01
  -4.537132e+01   1.674910e+01
  -2.570227e+01  -2.814652e+01
  -2.851635e+01   1.107579e+01
   1.112028e+01   1.482032e+01
  -1.279785e+01   1.885188e+01
   2.213658e+01  -6.259085e+01
  -1.495374e+01  -1.189352e+01
   4.421072e+01  -5.152995e+01
   3.340440e+01   3.618540e+01
   2.366979e+00   5.356098e+01
  -5.137398e+01  -7.712799e+00
  -6.389845e+01  -6.670371e+01
   1.033404e+01  -3.085379e+01
   7.031394e+01  -2.898102e+01
   7.653457e+01   6.137761e+01
   6.536965e+01   5.298966e+01
  -5.222045e+01   4.135400e+01
  -3.359126e+01  -1.115416e+01
   4.345132e+01  -1.198441e+00
   5.147860e+01   3.967814e+01
   4.873744e+01   3.188449e+01
  -4.936908e+01   4.169646e+01
  -1.044896e+02   2.469127e+01
