
 $NMID
 id='ANONYMOUS ', fmtdat='(2E16.6)'
 volume=1.0
 tramp=1.0
 $END
   3.697584e+03  -1.557019e+02
   2.369470e+03   1.702868e+03
   1.479371e+02   2.688419e+03
  -1.681565e+03   9.669792e+02
  -1.099824e+03  -8.360128e+01
   1.794157e+02  -5.645193e+02
   4.830607e+02  -3.930744e+00
   8.306449e+01   6.012238e+02
  -4.113318e+02   6.605234e+02
  -8.233582e+02   9.814967e+01
  -5.532248e+02  -5.391403e+02
   5.052224e+01  -7.345919e+02
   4.235535e+02  -1.974288e+02
   1.591474e+02   5.135240e+02
  -7.032280e+01   5.531157e+02
  -4.290782e+02   1.392303e+02
  -3.517255e+02  -4.005662e+02
   1.779746e+02  -6.516604e+02
   4.486464e+02  -2.060083e+02
   4.295836e+02   1.898380e+02
   2.062691e+02   3.961800e+02
  -1.596201e+02   3.406418e+02
  -9.173144e+01   8.857021e+01
   8.500052e+01   6.506438e+01
   2.147562e+02   1.623084e+02
  -1.364788e+01   2.776125e+02
  -4.066995e+02   1.944247e+02
  -6.215224e+02  -1.321562e+02
  -1.960527e+02  -3.911872e+02
   3.254281e+02  -2.766303e+02
   4.852631e+02   1.900671e+01
   2.794394e+02   1.948837e+02
  -2.070690e+02   4.475961e+02
  -4.922821e+02   1.396093e+02
  -3.034492e+02  -1.418573e+02
  -1.340802e+02  -3.020306e+02
   4.644454e+01  -1.601450e+02
   5.611539e+01   8.215832e+01
  -4.598756e+01   2.483914e+02
  -3.110826e+02  -3.554194e+01
  -2.646792e+02  -4.341123e+02
   1.011368e+02  -4.620969e+02
   4.063281e+02  -3.266064e+01
   2.061535e+02   2.634456e+02
  -2.227522e+02   2.177027e+02
  -2.064963e+02  -2.553417e+02
   9.280755e+01  -3.703615e+02
   4.102452e+02  -1.825840e+02
   4.852289e+02   3.139185e+02
   2.526337e+02   4.509575e+02
  -2.595454e+02   3.061816e+02
  -5.130440e+02  -5.256534e+00
  -3.411570e+02  -2.237357e+02
   8.019420e+01  -2.549072e+02
   3.190127e+02  -6.588679e+01
   2.598883e+02   1.287679e+02
   1.641733e+01   4.097955e+01
  -8.004153e+01  -5.456150e+01
   1.382143e+02  -1.465561e+02
   2.026468e+02   5.808875e+01
   8.495485e+01   2.078850e+02
  -1.906220e+02   2.616899e+02
  -3.362743e+02   8.201547e+01
  -1.957455e+02  -7.638490e+01
   3.043991e+01  -3.176899e+02
   2.561076e+02  -3.690675e+02
   2.283417e+02  -2.201252e+02
   1.847151e+02   1.573950e+02
   4.093786e+01   3.918854e+02
  -3.970534e+01   3.235954e+02
  -9.132920e+01   1.938691e+02
  -6.749740e+01   3.436874e+01
  -1.536240e+02   1.017273e+02
  -1.722234e+02   1.277918e+02
  -2.282913e+02  -1.336346e+02
  -2.684959e+01  -1.844379e+02
   7.530311e+01  -2.350659e+02
   1.731261e+02   5.658577e+00
   1.965507e+02   1.599471e+02
  -1.645912e+01   2.689763e+02
  -2.660463e+02   1.316037e+02
  -3.679358e+02  -1.042117e+02
  -1.822717e+02  -2.710651e+02
   7.996468e+01  -3.072145e+02
   1.413591e+02  -1.764628e+02
   1.474127e+02  -7.590822e+01
   1.591378e+02  -7.136281e+01
   2.583534e+02  -2.378136e+01
   3.947632e+02   2.484357e+01
   2.674372e+02   2.522735e+02
  -6.658914e+01   4.204236e+02
  -3.894497e+02   4.507039e+02
  -4.267120e+02   1.945508e+02
  -2.327594e+02  -8.388462e+01
  -4.761957e+01  -2.147851e+02
   8.384106e+01  -1.790969e+02
   5.731026e+01  -8.248497e+01
  -1.367561e+02   2.424976e+01
  -9.853701e+01   2.762756e+01
  -4.278826e+01  -1.767037e+02
   1.079376e+02  -1.651584e+02
   1.389285e+02   4.623741e+01
  -9.403797e+00   1.567808e+02
  -1.585855e+02  -1.501829e+00
  -1.336720e+02  -2.197085e+02
   3.785519e+01  -2.558034e+02
   2.113180e+02  -2.342045e+02
   3.198492e+02   4.469852e+01
   2.416762e+02   1.518836e+02
   4.601162e+01   2.421935e+02
  -1.139684e+02   1.432875e+02
  -1.693096e+02  -1.181429e+00
  -4.772738e+01   6.463113e+00
   3.732278e+00   4.127366e+01
  -1.874576e+01   8.610937e+01
  -8.469332e+01   6.973492e+01
  -1.313784e+02   1.918322e+01
  -1.150351e+01  -6.795339e+01
   4.386045e+01   2.688678e-01
   4.831865e+01   7.527166e+01
  -1.402783e+02   6.890231e+01
  -2.448251e+02  -8.905378e+00
  -2.114394e+02  -2.168678e+02
   2.775849e-02  -2.745677e+02
   2.016282e+02  -2.448713e+02
   2.934490e+02  -1.090215e+02
   1.615644e+02   2.282660e+01
  -4.307924e+01   3.580579e+01
  -6.472585e+01  -1.507922e+01
   6.580158e+01  -7.640017e+01
   1.151305e+02  -6.826763e+01
   1.914365e+02   5.858076e+01
   5.059190e+01   1.402768e+02
  -4.602558e+01   1.058899e+02
  -1.791350e+02   4.772493e+01
  -3.318900e+01  -3.422128e+01
   2.348257e+01   2.284489e+01
   3.281695e+01   1.433908e+02
  -1.003926e+02   1.158371e+02
  -1.558250e+02   2.039857e+01
  -1.527837e+02  -7.149154e+01
  -4.541872e+01  -1.778624e+02
   1.461649e+02  -1.505292e+02
   1.349975e+02  -2.320613e+01
   4.813047e+01   6.416404e+01
  -8.185871e+01   1.236051e+02
  -8.685072e+01   9.608632e+00
  -1.831581e+01  -1.351739e+01
   4.919260e+01  -1.245649e+01
  -1.635991e+01   2.311438e+01
  -7.499153e+01   5.756599e+00
  -1.458252e+02  -6.166983e+01
  -3.505621e+01  -1.562044e+02
   1.366222e+02  -1.651108e+02
   2.490106e+02   2.231926e+01
   2.067309e+02   1.093635e+02
   2.328861e+01   2.631987e+02
  -1.042857e+02   1.583510e+02
  -1.370513e+02   4.790649e+01
  -1.170059e+01  -4.273872e+01
  -1.638560e+01  -5.517024e+01
  -7.838380e+01   1.908733e+01
  -9.386493e+01   2.983884e+00
  -5.858142e+01  -8.310327e+01
   5.727464e+01  -8.720883e+01
   1.205224e+02  -7.785656e+01
   1.005656e+02   9.637463e+00
  -2.420759e+01   1.073021e+02
  -1.509262e+02   3.782547e+01
  -1.748074e+02  -3.175897e+01
  -8.126821e+01  -2.009236e+02
   1.755343e+02  -1.751195e+02
   2.557988e+02  -1.015925e+02
   2.411501e+02   1.032791e+02
   8.179872e+01   1.125960e+02
  -3.628445e+01   1.386874e+02
  -1.320934e+02   7.008419e+01
  -5.841627e+01   9.226286e+01
  -8.637920e+01   8.579098e+01
  -7.956917e+01   8.152790e+01
  -1.191923e+02   3.909060e+01
  -8.102707e+01  -1.380447e+02
  -2.861147e+01  -1.937294e+02
   9.066552e+01  -1.356530e+02
   1.277699e+02  -9.276487e-01
   1.423052e+02   1.008423e+02
  -1.720205e+01   1.561700e+02
  -2.158368e+01   1.221843e+02
  -3.981635e+01   3.635812e+01
  -8.597438e+00  -5.438653e+01
   1.925978e+01   3.784826e+00
  -9.566489e-01  -4.903699e+01
  -3.775151e+01  -2.665425e+01
  -1.004279e+02  -4.795039e+01
   8.062171e+01  -2.394202e+01
   9.821243e+01  -7.265020e-01
   1.198891e+02   6.544842e+01
   1.723440e+01   1.447092e+02
  -9.938719e+01   9.208861e+01
  -1.532647e+02  -1.313672e+01
  -2.748978e+01  -8.193664e+01
   2.519106e+01  -3.337040e+01
   8.106603e+01   5.497750e+01
   1.649498e+01   9.023997e+01
  -2.419327e+01   8.936145e+01
  -5.582602e+01   2.200465e+01
  -4.527420e+01  -4.741386e+01
  -3.826660e+01  -4.976988e+01
  -7.404912e+01  -6.819852e+00
  -9.330680e+01   3.399998e+01
  -1.308166e+01  -1.053325e+02
   6.453853e+00  -1.497123e+02
   1.163232e+02  -1.666278e+02
   1.458407e+02  -3.221717e+01
   1.387533e+02   8.143802e+01
  -6.252292e+00   1.276958e+02
  -5.182985e+01   6.331783e+01
  -9.963940e+00  -7.498041e+00
   2.178094e+01  -8.845594e+00
   1.071736e+02   8.250268e+01
   6.353405e+01   1.162328e+02
  -7.800203e+01   1.192899e+02
  -1.836355e+02   3.534491e+01
  -1.891076e+02  -3.583443e+01
  -1.959386e+01  -1.005861e+02
   5.199587e+01  -2.794727e+01
   5.741583e+01   1.985316e+01
  -7.284956e+01   1.175712e+01
  -4.622130e+01  -1.669165e+01
  -5.107050e+01  -1.003872e+02
   1.052889e+02  -1.742830e+02
   1.124201e+02  -1.169447e+02
   1.361378e+02   9.789018e+01
  -4.596512e+01   1.671735e+02
  -5.387688e+01   9.143875e+01
  -1.293971e+02  -2.171453e+00
  -5.768388e+01  -1.163690e+02
  -1.663301e+01  -1.227323e+02
   5.173418e+01   7.941068e+00
   3.265546e+01   4.881283e+01
   8.273625e+00  -1.853779e+01
   4.781176e+01  -2.063471e+01
   1.364708e+01   5.288296e+01
   7.975594e+01   8.641768e+01
   5.005152e+01   1.063772e+02
  -6.898648e+01   5.951578e+01
  -1.118504e+02  -2.730812e+01
  -1.387003e+02  -7.371281e+01
  -3.063235e+01  -3.034448e+01
   7.260145e+01  -4.532398e+00
   1.114430e+02   9.427782e+00
   5.335630e+01  -1.439613e+01
  -4.614717e+01   5.168356e+01
  -1.325816e+01  -4.078234e-01
   2.521175e+01  -3.605825e+01
   2.473107e+01   1.404025e+01
  -1.964730e+01  -2.742157e+00
  -8.564710e+01  -3.655073e+01
  -3.064072e+01  -9.091302e+01
   8.509113e+01  -7.302343e+01
   1.789292e+02  -6.000285e+01
   1.361700e+02   1.008717e+01
   5.921545e+01   1.637547e+02
  -7.880129e+01   1.495448e+02
  -8.034472e+01   4.601672e+01
  -6.786700e+01  -4.151565e+01
  -3.486599e+01  -5.399143e+01
  -3.760081e+01  -2.909461e+01
   2.668974e+00  -1.476063e+01
  -7.522993e+01  -4.265571e+01
  -1.360815e+00  -8.571014e+01
  -3.177421e+01  -8.108513e+01
   8.645797e+01   1.869170e+01
   8.119150e+01   2.613738e+01
   1.996146e+01   1.024906e+02
  -5.431733e+01   2.778988e+00
  -8.105981e+01  -4.881000e+01
  -4.523008e+01  -8.078487e+01
   7.362590e+01  -4.679256e+01
   6.887691e+01  -6.270060e+00
   2.246766e+01   4.493549e+01
  -4.291429e+01   7.273728e+01
  -3.678252e+01   4.552328e+01
  -9.679277e+00   3.645060e+01
   6.679470e+01  -1.069689e+01
   3.795405e+01   2.599541e+00
  -8.274099e+01   6.662742e+01
  -1.472004e+02   5.864786e+01
  -8.066571e+01   1.628876e+01
   3.807661e+01  -8.905246e+01
   6.986783e+01  -8.063159e+01
   4.296696e+01  -4.549728e+00
  -2.892768e+01   5.581765e+01
  -3.851912e+01   5.749560e+01
  -3.245451e+01  -3.044015e+01
  -2.455573e+01  -2.846588e+01
   1.661303e+01  -5.077054e+01
   1.377420e+01  -5.902392e+00
   6.075520e+01   5.588061e+01
   2.554635e+01  -8.886539e+00
   4.365291e+01  -2.474532e+00
   1.950180e+01  -3.088626e+00
  -2.656365e+01   1.412461e+01
  -4.417268e+01   1.874401e+01
  -4.395793e+00   3.161212e+01
  -4.885390e+01  -7.970739e+01
   1.148246e+01  -7.017767e+01
   4.565100e+01  -3.095660e+01
   6.732998e+01   3.684429e+01
   1.575949e+01   4.776357e+01
  -7.555382e+01  -1.966489e+01
  -9.753747e+01  -8.457543e-01
  -2.222620e+01  -2.873625e+01
   8.215364e+00  -2.225302e+01
   6.752464e+01  -5.684384e+01
   2.110756e+01  -3.863295e+01
  -4.210789e+01  -2.893396e+00
  -3.894483e+01  -3.125256e+01
   3.572471e+01  -2.986681e+01
   6.461805e+01   1.953707e+01
