
 $NMID
 id='ANONYMOUS ', fmtdat='(2E16.6)'
 volume=1.0
 tramp=1.0
 $END
  -3.417323e+03  -6.955009e+02
  -2.342456e+03  -2.085305e+03
   1.763733e+02  -2.451427e+03
   1.602022e+03  -9.798742e+02
   9.903876e+02   3.898873e+00
  -2.819030e+02   4.325663e+02
  -6.834866e+02  -7.310877e+01
   7.692141e+01  -7.050167e+02
   5.972233e+02  -6.004773e+02
   6.365309e+02   6.707497e+01
   3.356131e+02   5.968928e+02
  -1.504123e+02   5.787108e+02
  -4.153535e+02   1.340687e+02
  -2.730084e+02  -5.146861e+02
  -1.945496e+00  -6.868321e+02
   3.692151e+02  -3.037056e+01
   2.267659e+02   6.423395e+02
  -2.237925e+02   6.081691e+02
  -4.991063e+02   1.385881e+02
  -5.356904e+02  -1.405354e+02
  -8.799830e+01  -4.653183e+02
   1.763496e+02  -2.776411e+02
   1.240569e+02  -3.171201e+01
  -1.346310e+02  -7.529792e+01
  -2.836016e+02  -2.889561e+02
  -2.799833e+01  -3.554638e+02
   5.117244e+02  -1.928619e+02
   5.840022e+02   7.650743e+01
   4.381454e+02   4.321966e+02
  -3.889890e+02   3.322608e+02
  -5.808944e+02  -1.972443e+02
  -1.387298e+02  -4.125138e+02
   2.913253e+02  -4.287280e+02
   5.240844e+02  -1.263384e+02
   3.826176e+02   1.330399e+02
   1.002808e+02   3.507571e+02
  -5.532319e+01   2.410879e+02
  -1.600312e+02  -1.138924e+02
   2.177018e+02  -2.504807e+02
   2.184472e+02   1.793303e+02
  -3.862537e+00   5.000590e+02
  -3.637459e+02   6.005670e+02
  -3.958437e+02  -2.038871e+01
  -1.894096e+02  -4.020095e+02
   2.457884e+02  -1.429624e+02
   1.516329e+02   2.692817e+02
  -3.191459e+01   4.427974e+02
  -4.808204e+02   1.367451e+01
  -4.550317e+02  -3.669972e+02
  -1.622258e+02  -5.111050e+02
   3.563355e+02  -2.218419e+02
   5.731955e+02   1.640267e+02
   3.923103e+02   2.617057e+02
  -6.183561e+01   3.178831e+02
  -3.420138e+02  -1.724000e+01
  -1.817856e+02  -9.773142e+01
   9.938795e+00  -7.860380e+01
   9.473331e+01   8.248712e+01
  -1.385459e+02   1.318575e+02
  -2.525813e+02  -6.431969e+01
  -1.119098e+02  -2.243567e+02
   1.308929e+02  -2.548320e+02
   2.575348e+02  -1.163253e+02
   2.389156e+02   1.029275e+02
  -7.267219e+01   3.056289e+02
  -3.091650e+02   3.132142e+02
  -3.188958e+02   1.442974e+02
  -2.084019e+02  -1.012910e+02
  -6.530257e+01  -4.014297e+02
   9.136073e+01  -3.866943e+02
   1.627052e+01  -1.608284e+02
  -9.396290e+00  -5.746227e+01
   1.467313e+02  -8.378570e+01
   2.330623e+02  -6.934943e+01
   2.590235e+02   9.756859e+01
   1.492969e+02   2.809758e+02
  -1.217282e+02   1.699120e+02
  -2.600702e+02  -2.579701e+01
  -1.967072e+02  -2.549542e+02
   9.434281e+01  -2.239750e+02
   2.937272e+02  -8.097992e+01
   3.067100e+02   1.773843e+02
   1.417870e+02   4.076106e+02
  -6.433571e+01   2.852275e+02
  -1.933537e+02   1.325683e+02
  -1.434386e+02   5.617276e+01
  -1.494619e+02   1.003017e+02
  -2.698024e+02   2.345495e+01
  -4.292163e+02  -8.690811e+01
  -3.410404e+02  -3.421698e+02
   2.675949e+01  -4.035479e+02
   3.962284e+02  -4.157952e+02
   4.633125e+02  -2.015184e+02
   3.083354e+02   7.378971e+01
   4.316496e+01   2.971980e+02
  -1.657501e+02   1.571551e+02
   3.319036e+00   1.815811e+01
   7.844139e+01  -7.563842e+01
   1.596648e+02   6.215622e+00
   1.645690e+01   1.652496e+02
  -1.246046e+02   8.292804e+01
  -9.622721e+01  -3.954447e+01
   1.746610e+01  -1.722426e+02
   1.913567e+02  -1.638139e+01
   9.781271e+01   2.573201e+02
  -6.081145e+01   3.441299e+02
  -2.128412e+02   2.001754e+02
  -3.608039e+02  -1.109075e+02
  -3.040583e+02  -3.174989e+02
  -6.711615e+01  -2.821115e+02
   1.267458e+02  -1.576030e+02
   1.877541e+02  -2.895411e+01
   7.482691e+01  -6.651444e+00
  -7.566896e+01  -2.753650e+01
   1.484853e+01  -1.035990e+02
   1.231146e+02  -1.079767e+02
   1.635247e+02   1.203057e+01
   4.741113e+01   9.587828e+01
  -5.870393e+01   1.369095e+00
  -2.449395e+01  -9.015070e+01
   1.534366e+02  -4.272443e+01
   2.773996e+02   1.966571e+00
   2.791475e+02   1.565156e+02
   4.835429e+00   2.043163e+02
  -2.382936e+02   1.923972e+02
  -2.864253e+02   7.284330e+01
  -1.302449e+02  -7.393022e+01
   8.592991e+01  -9.594692e+01
   6.506363e+01   1.440960e+01
  -3.378996e+01   1.034073e+02
  -1.869693e+02   5.450920e+01
  -2.140272e+02  -1.184253e+02
  -5.148978e+01  -1.975008e+02
   1.009150e+02  -1.311144e+02
   1.352302e+02  -3.303195e+01
   5.076544e+01   4.112486e+01
  -6.839307e+01  -7.011693e+00
  -5.166342e+01  -6.959792e+01
   5.698445e+01  -1.561731e+02
   1.732402e+02   3.053067e+01
   1.884006e+02   1.283427e+02
   3.401027e+01   2.451435e+02
  -1.927383e+02   1.668087e+02
  -1.672555e+02   3.625945e+01
  -7.257371e+01  -8.559085e+01
   4.336359e+01  -7.394877e+01
   9.463425e+01  -8.229453e+01
   1.292740e+01   4.419341e+01
  -6.447549e+01   4.433593e+01
  -5.659779e+00  -1.013164e+01
   1.134075e+02  -3.257950e+01
   9.472676e+01   7.930556e+01
   7.238171e+01   1.243656e+02
  -1.404518e+02   1.625255e+02
  -2.544300e+02   8.559413e+00
  -1.609074e+02  -1.252531e+02
  -7.610798e+01  -1.879118e+02
   9.933834e+01  -1.915087e+02
   1.239450e+02   2.018419e+01
   5.949600e+01   6.692406e+01
   4.411422e+01   2.825775e+01
   7.635235e+01   1.998318e+01
   9.510714e+01  -2.416952e+01
   3.615173e+01   6.691504e+01
  -6.322057e+00   7.260307e+01
  -1.167640e+02   4.614296e+01
  -1.353492e+02  -5.686278e+01
   2.940360e+01  -1.112696e+02
   1.235192e+02  -1.123086e+02
   1.827596e+02   7.782113e+01
   9.012088e+01   2.298138e+02
  -2.025155e+02   2.010947e+02
  -2.863889e+02   9.841143e+01
  -2.478223e+02  -1.297954e+02
  -4.775206e+01  -1.612402e+02
   5.435009e+01  -1.509602e+02
   7.715726e+01  -9.776070e+01
   7.019424e+01  -6.469352e+01
   4.171962e+01  -1.020371e+02
   1.045404e+02  -8.439396e+01
   1.024687e+02   4.874954e+01
   1.269474e+02   1.245642e+02
   1.125315e+02   2.478377e+02
  -1.060351e+02   1.593294e+02
  -1.936720e+02   2.988821e+01
  -1.482254e+02  -7.941547e+01
  -4.605559e+01  -1.412028e+02
   8.897269e+01  -8.536049e+01
   1.129544e+02   1.530840e+01
  -2.509442e+01   2.769611e+01
  -2.836813e+01   3.438373e+01
   6.944022e+01   1.137809e+01
   5.776604e+01   5.580350e+01
   2.163520e+01   2.910009e+01
  -5.378703e+01   4.793293e+01
  -1.815950e+02  -2.053204e+01
  -1.580542e+02  -5.979697e+01
  -1.868174e+01  -7.654151e+01
   1.372812e+02  -8.579413e+01
   1.510786e+02  -3.050013e+00
   4.774590e+01   3.595474e+01
  -3.940566e+01   6.392168e+01
  -8.434381e+01  -2.097461e+01
  -4.032699e+01  -9.922922e+01
   3.607683e+01  -6.379941e+01
   7.212654e+01   2.181198e+01
   5.564057e+01   5.924529e+01
   7.146154e+01   8.903338e+00
   3.237501e+01  -2.296373e+01
   6.584823e+01   9.039894e+00
   2.759445e+01   1.002020e+02
  -3.153305e+01   1.238464e+02
  -1.151211e+02   1.955467e+02
  -1.790438e+02   3.860117e+00
  -1.303770e+02  -8.954620e+01
  -7.288248e+00  -1.244946e+02
   5.814078e+01  -7.851788e+01
   3.149360e+01   2.688614e+01
  -6.521509e+01   6.572885e+00
  -1.425777e+02  -3.169227e+01
  -5.674879e+01  -5.008412e+01
   9.226427e+01  -1.063894e+02
   1.962474e+02  -6.886855e+01
   1.598808e+02   2.421614e+01
   5.159324e+01   8.291086e+01
  -6.799766e+01   7.287214e+01
  -4.514507e+01   2.461973e+01
   5.623050e+01   4.362088e-01
   7.815799e+01  -1.582939e+00
   6.134370e+01   1.016107e+02
  -1.134116e+02   1.154477e+02
  -1.815204e+02   6.824990e+01
  -1.568518e+02  -1.144528e+02
  -3.566428e+01  -2.320632e+02
   5.549411e+01  -1.270818e+02
   1.157324e+02  -4.728737e+00
   4.050251e+01   1.164054e+02
   1.684760e+01   7.363771e+01
  -2.250666e+01   2.466500e+01
  -3.797989e+01  -1.022196e+01
   1.047676e+01  -1.195658e+01
  -3.385695e-01  -1.706089e+00
  -5.181938e+01  -2.967189e+01
  -8.185450e+01  -1.001644e+02
  -3.861395e+01  -8.444341e+01
   6.470772e+01  -4.481866e+01
   1.296634e+02   7.297617e+01
   1.123178e+02   7.254768e+01
   2.252917e+01   6.507458e+01
  -9.994665e+01  -7.396166e+00
  -6.692174e+01  -2.306128e+01
  -4.696776e+01  -8.067062e+00
   8.480769e+01  -2.594201e+01
   3.220198e+01  -2.588674e+01
  -1.997495e+01   2.264522e+00
   4.575423e+01   2.888316e+00
   5.407774e+01  -1.948606e+01
   8.389586e+01   2.674201e+00
  -4.950833e+00   8.134168e+01
  -5.476719e+01   1.141438e+02
  -2.159082e+02   8.128155e+01
  -1.176788e+02  -8.725610e+01
  -3.752762e+01  -1.710125e+02
   7.943992e+01  -1.602207e+02
   1.658499e+02  -8.945604e+01
   4.460761e+01   2.237404e+01
   1.498865e+01   3.919087e+01
  -2.039163e+00   1.620287e+01
   2.578361e+01   3.224991e+01
  -3.645212e-01   2.051772e+01
   2.005525e+01   8.164199e+01
  -1.417378e+01   8.869155e+01
  -9.051180e+01  -2.552720e+01
  -8.612376e+01  -1.068078e+02
  -3.195029e+01  -1.229563e+02
   7.055649e+01  -3.605774e+01
   1.020790e+02   3.331354e+01
   4.940589e+01   1.212565e+02
  -2.719383e+01   1.147529e+01
  -8.558802e+01  -1.074301e+01
  -5.107085e+01  -7.334434e+01
   2.884825e+01  -5.111561e+01
   3.329305e+01   1.697193e+01
  -2.129293e+01  -3.128967e+01
  -1.085460e+02   1.042691e+01
  -3.674876e+01  -3.527158e+01
   6.846676e+01  -7.124570e+01
   1.057021e+02  -6.256549e+01
   8.441229e+01   4.932333e+01
  -1.787726e+01   9.267180e+01
  -4.975944e+01   7.834019e+01
  -3.806201e+01   1.631150e+01
  -3.771472e+01  -4.489995e+01
   2.869961e+01  -4.085808e+01
   2.218791e+01   2.177103e+00
   5.954872e+01   5.361659e+01
  -3.294248e+00  -8.825117e+00
  -4.883454e+01   1.662446e+01
  -3.334391e+01  -3.131560e+01
  -4.651170e+01   4.295889e+00
  -2.698612e+01  -7.937606e+00
   1.119266e+01   2.318351e+01
   6.778837e+00  -4.633458e+01
   2.809553e+00  -6.263383e+01
   1.078784e+01  -5.138152e+01
  -5.341610e+00   5.710974e+01
  -5.349996e+00   8.945464e+01
  -1.046628e+01   1.702499e+01
  -2.463591e+01  -3.791000e+01
  -1.435483e+01  -5.151124e+01
   3.434086e+01  -2.586354e+01
   3.139993e+01   4.178430e+01
   5.949227e+01   5.546853e+01
  -1.992484e+01   4.327198e+01
  -3.498034e+01   1.409993e+01
  -5.352794e+01   2.844071e-01
   3.000649e+01  -9.900210e+00
   2.772756e+01   5.287766e+01
  -1.595012e+01   7.265118e+01
  -6.869362e+01  -1.609162e+00
