
 $NMID
 id='ANONYMOUS ', fmtdat='(2E16.6)'
 volume=1.0
 tramp=1.0
 $END
   3.933640e+03   6.198946e+02
   2.142411e+03   2.285189e+03
  -5.456221e+02   2.458137e+03
  -1.790609e+03   8.900947e+02
  -1.175099e+03  -3.953676e+02
   3.551627e+02  -4.851630e+02
   9.257202e+02   3.448429e+02
  -5.739284e+01   7.686304e+02
  -8.368116e+02   7.807493e+02
  -8.333240e+02   1.004818e+02
  -4.531006e+02  -7.081920e+02
   9.699647e+01  -8.851773e+02
   6.055241e+02  -2.512070e+02
   3.843960e+02   5.502510e+02
  -8.582225e+01   8.197536e+02
  -5.509073e+02  -3.659981e+01
  -2.665883e+02  -6.809651e+02
   2.195753e+02  -6.497887e+02
   5.556160e+02  -2.477566e+02
   5.412609e+02   2.560334e+02
   1.192832e+02   5.088653e+02
  -1.550506e+02   3.001122e+02
  -2.068853e+02   4.071066e+01
   1.224829e+02  -3.360900e+01
   3.559823e+02   2.244517e+02
   1.432287e+02   4.476609e+02
  -5.650807e+02   2.798199e+02
  -7.700931e+02  -4.819570e+01
  -4.414159e+02  -5.201981e+02
   3.647737e+02  -4.301855e+02
   6.450280e+02   1.304764e+02
   3.262209e+02   4.439404e+02
  -2.804221e+02   4.609389e+02
  -5.647095e+02   1.974929e+02
  -4.896448e+02  -1.427674e+02
  -1.441207e+02  -3.757714e+02
   7.579416e+01  -3.803095e+02
   9.083011e+01   1.870887e+02
  -1.857049e+02   3.309054e+02
  -3.186130e+02  -3.036659e+01
  -2.439136e+02  -6.211659e+02
   2.965109e+02  -6.116513e+02
   5.423996e+02  -1.081721e+02
   2.238316e+02   5.011331e+02
  -1.557818e+02   2.054629e+02
  -3.214894e+02  -3.134068e+02
   5.513876e+01  -5.198845e+02
   5.514386e+02  -1.463621e+01
   4.847322e+02   3.734487e+02
   1.876940e+02   5.190756e+02
  -3.746619e+02   3.110375e+02
  -5.570365e+02  -1.668991e+02
  -4.444024e+02  -2.911706e+02
   8.624690e+01  -3.448705e+02
   3.544312e+02  -1.103532e+02
   2.176731e+02   1.931336e+02
  -5.343115e+01   9.191119e+01
  -9.681255e+01  -6.849478e+01
   1.794661e+02  -1.519806e+02
   3.339586e+02   7.102860e+01
   1.856187e+02   2.577646e+02
  -1.818511e+02   2.580433e+02
  -3.589125e+02   5.525275e+01
  -2.368672e+02  -5.162672e+01
   3.433763e+01  -2.743695e+02
   2.575150e+02  -3.301730e+02
   3.315785e+02  -2.084686e+02
   2.914511e+02   1.289126e+02
   1.115456e+02   4.856044e+02
  -6.667680e+01   3.910680e+02
  -1.905031e+01   1.529501e+02
   1.951523e+01   1.157291e+01
  -7.193850e+01   1.088504e+02
  -2.095219e+02   6.766947e+01
  -3.119748e+02  -6.578935e+01
  -1.532283e+02  -3.195960e+02
   1.116766e+02  -2.583933e+02
   2.037848e+02   2.136649e+01
   2.330326e+02   2.583185e+02
  -1.547960e+01   2.718893e+02
  -2.875436e+02   6.834568e+01
  -3.038751e+02  -2.087169e+02
  -2.007697e+02  -4.189808e+02
   7.964394e+01  -3.553572e+02
   1.781343e+02  -1.396051e+02
   1.508106e+02  -7.435223e+01
   1.511615e+02  -3.708911e+01
   3.032222e+02  -1.799038e+01
   4.190724e+02   4.219178e+01
   3.302355e+02   4.070864e+02
  -1.860127e+01   4.310546e+02
  -3.229831e+02   4.319042e+02
  -5.136703e+02   2.047754e+02
  -3.081032e+02  -1.195445e+02
  -9.999579e+01  -2.482380e+02
   1.143633e+02  -1.969411e+02
   2.147020e+01  -6.677120e+01
  -1.473829e+02   1.213655e+02
  -1.727761e+02   9.371154e+00
  -5.998297e+00  -1.908380e+02
   1.488285e+02  -1.703669e+02
   2.060226e+02   2.118857e+01
  -1.689719e+01   1.475470e+02
  -2.018805e+02   1.050154e+01
  -1.512926e+02  -2.495564e+02
   4.450302e+01  -4.006499e+02
   2.098496e+02  -2.760390e+02
   3.160591e+02   6.279753e+01
   2.650557e+02   2.456074e+02
   9.844752e+01   2.683057e+02
  -8.013453e+01   1.639762e+02
  -1.692573e+02  -2.104221e+01
  -6.707062e+01  -5.823864e+00
   4.446735e+01   3.673711e+01
  -1.435194e+01   1.248412e+02
  -1.499455e+02   1.209919e+02
  -2.032807e+02   2.624241e+00
  -4.547935e+01  -9.049717e+01
   9.057606e+01  -2.383029e+01
   4.158688e+01   9.044063e+01
  -1.325983e+02   1.023187e+02
  -3.105283e+02   8.457990e+00
  -2.598506e+02  -1.414885e+02
  -8.979047e+01  -2.647515e+02
   1.780631e+02  -2.489148e+02
   2.907273e+02  -1.301383e+02
   1.569395e+02   9.894438e+01
  -2.110588e+01   1.025140e+02
  -1.248023e+02   1.192449e+01
   5.903413e+01  -1.272481e+02
   1.995303e+02  -7.010470e+01
   1.930681e+02   1.644155e+02
   8.367765e+01   1.999976e+02
  -1.042203e+02   1.429339e+02
  -1.638371e+02   3.421365e+01
  -7.947994e+01  -6.848890e+01
   4.049130e+01   1.360666e+01
   1.737479e+01   9.941838e+01
  -9.070871e+01   1.736009e+02
  -1.895553e+02   9.752317e+00
  -2.549183e+02  -1.324968e+02
  -5.743732e+01  -2.488429e+02
   1.684035e+02  -2.191127e+02
   2.014713e+02  -3.502365e+01
   8.876952e+01   1.186448e+02
  -3.520136e+01   9.578997e+01
  -7.584897e+01   5.205336e+01
  -3.854746e+01  -2.730260e+01
   1.976574e+00  -1.303182e+01
   5.217567e+00   1.349906e+01
  -7.211465e+01  -5.721147e+00
  -1.084397e+02  -8.131814e+01
  -2.373528e+01  -1.472784e+02
   1.527125e+02  -1.616525e+02
   2.609791e+02  -2.629796e+01
   1.701209e+02   1.284473e+02
   9.887972e+01   1.910252e+02
  -9.535442e+01   1.837084e+02
  -1.351847e+02   3.399867e+01
  -8.757259e+01  -8.451407e+00
  -3.316721e+00   9.649113e+00
  -9.248470e+00  -1.373646e+01
  -9.656060e+01   1.434563e+01
  -8.089853e+01  -5.046291e+01
   3.508699e+01  -9.227375e+01
   1.396849e+02  -2.650678e+01
   1.425996e+02   2.511374e+01
   6.100307e+00   1.285211e+02
  -1.656527e+02   8.080890e+01
  -2.331991e+02  -2.933675e+01
  -9.964347e+01  -1.897029e+02
   1.816546e+02  -1.926215e+02
   3.453553e+02  -9.799821e+01
   2.882029e+02   3.229020e+01
   3.466554e+01   1.825824e+02
  -6.080578e+00   1.509485e+02
  -1.329565e+02   9.277172e+01
  -8.251518e+01   4.962161e+01
  -9.668423e+01   1.252639e+02
  -8.950488e+01   4.629553e+01
  -1.208749e+02  -1.266258e+01
  -1.221661e+02  -1.640130e+02
  -7.148808e+01  -2.186793e+02
   1.251274e+02  -1.783000e+02
   1.782041e+02  -2.492955e+01
   1.281038e+02   9.873379e+01
   3.416493e+01   1.753560e+02
  -6.708135e+01   1.048623e+02
  -5.596857e+01  -9.131966e-01
   1.256405e+01  -4.574831e+01
   2.745246e+01  -3.465637e+01
  -4.839936e+00  -2.384272e+01
  -9.986202e+01  -3.497806e+01
  -2.277152e+01  -2.832822e+01
   3.337556e+01  -7.462691e+01
   2.275204e+02  -4.236770e+00
   1.480022e+02   6.676267e+01
   2.811405e+01   8.137081e+01
  -1.789354e+02   6.586989e+01
  -1.478256e+02   3.571801e+01
  -4.751456e+01  -2.165291e+01
   5.217516e+01  -5.768985e+01
   1.033334e+02   5.448233e+01
   5.622190e+00   7.972925e+01
  -4.880470e+01   8.757319e+01
  -3.321718e+01  -1.269487e+01
  -5.614595e+01   2.253422e+00
  -5.768996e+01  -4.962567e+01
  -8.754378e+01   1.211629e+01
  -5.963506e+01  -8.980172e+00
  -4.723448e+01  -3.611512e+01
   4.027896e+01  -1.233286e+02
   8.549480e+01  -1.687530e+02
   2.018282e+02  -7.931193e+01
   1.299873e+02   6.889567e+01
   3.645046e+01   1.256746e+02
  -1.043402e+02   8.820309e+01
  -6.699068e+01  -1.582090e-01
   4.711441e+01  -1.955852e+01
   1.625208e+02   2.904146e+01
   9.796475e+01   9.836360e+01
  -6.230555e+01   9.779902e+01
  -1.760583e+02   2.012330e+01
  -2.079100e+02  -4.850843e+01
  -3.218294e+01  -1.241335e+02
   5.581553e+01  -7.194671e+01
   4.293290e+01  -2.191998e+01
  -3.547004e+01   2.939248e+01
  -8.172861e+01  -6.230722e+01
  -4.622482e+01  -1.443708e+02
   6.891446e+01  -1.498337e+02
   1.817172e+02  -7.355299e+01
   1.348271e+02   7.487803e+01
  -9.651278e+00   1.615318e+02
  -5.162526e+01   1.705480e+02
  -1.371052e+02  -2.461798e+01
  -7.622340e+01  -1.234107e+02
   1.930207e+01  -9.640790e+01
   3.501155e+01  -2.661232e+00
   3.768548e+01   2.333665e+01
   2.734391e+01   5.018405e+01
   8.916262e+00  -2.968456e+01
   4.263371e+01  -2.776136e+00
   5.931380e+01   1.077280e+02
   5.605256e+01   1.251319e+02
  -1.193593e+01   5.892217e+01
  -1.236162e+02  -4.469046e+01
  -1.345588e+02  -9.466290e+00
  -7.569184e+00  -3.733596e+00
   1.003095e+02  -2.984103e+01
   1.109018e+02   3.930660e+00
   2.031685e+01   2.242904e+01
  -3.574133e+01   1.687764e+01
  -2.115214e+01   1.363903e+01
   4.428081e+01   1.167705e+01
  -1.142667e+01   1.153282e+01
  -8.463291e+01  -2.367698e+01
  -8.571205e+01  -3.738197e+01
  -3.808135e+01  -1.140910e+02
   7.565188e+01  -1.153768e+02
   2.124162e+02  -7.339623e+01
   1.499788e+02   4.738238e+01
   5.686842e+01   1.493451e+02
  -6.752757e+01   1.707195e+02
  -1.577147e+02   4.168119e+01
  -5.509002e+01  -4.815928e+01
   6.087211e+00  -7.036863e+01
  -3.277309e+01  -2.609325e+00
  -8.468114e+00  -2.317246e+01
  -3.986487e+01  -7.853623e+01
  -5.592642e+01  -4.421144e+01
   3.695929e+01  -6.003392e+01
   9.330755e+01   5.724327e+01
   9.933462e+01   1.002721e+02
   2.748794e+01   1.293987e+02
  -7.436083e+01   3.561363e+01
  -1.267120e+02  -2.886682e+01
  -1.342203e+01  -1.125371e+02
   6.914646e+01  -6.250105e+01
   8.388760e+01   3.005068e+01
   3.828780e+01   6.147302e+01
  -3.354562e+01   7.645663e+01
  -5.094102e+01   2.692672e+01
   6.197909e+01   1.293540e+01
   3.032163e+01  -6.452700e+00
   5.455074e-01   2.428508e+01
  -8.795106e+01   9.334004e+01
  -1.207732e+02   8.573036e+01
  -5.670147e+01  -1.463461e+01
  -9.211786e+00  -6.573530e+01
   2.101867e+01  -9.490683e+01
   3.577902e+01  -2.030109e+01
   6.670172e+00   6.241511e+01
   5.373849e+00   8.207646e+01
  -3.540080e+01   4.808164e+00
  -1.202770e+01  -5.423529e+01
   2.095312e+01  -2.701660e+01
   4.374613e+01   1.237178e+00
   7.568542e+01   2.438293e+01
   3.984716e+01   4.293915e+00
   9.616082e+00  -5.844126e+01
   2.782847e+00  -4.658006e+00
  -4.760632e+01   1.047331e+01
  -1.937900e+00   8.901213e+01
  -7.117222e+01   5.483199e+01
  -5.948814e+01  -6.239204e+01
  -3.938379e+01  -4.306386e+01
   4.046819e+01  -4.242618e+01
   5.174985e+01   2.576300e+01
   1.293629e+01   3.014288e+01
  -6.161614e+01   1.273383e+01
  -8.227868e+01  -1.278851e+01
  -5.832764e+01  -1.030696e+02
   4.099590e+01  -2.330542e+01
   6.714786e+01  -1.121348e+01
  -2.733210e+00  -3.313224e+01
  -2.333281e+01  -1.754554e+00
  -4.202671e+01  -2.270595e+01
   2.956557e+01  -6.957421e+01
   4.431919e+01  -1.695619e+01
