
 $NMID
 id='ANONYMOUS ', fmtdat='(2E16.6)'
 volume=1.0
 tramp=1.0
 $END
  -4.324197e+03   1.165143e+02
  -2.575000e+03  -2.122324e+03
   2.460477e+02  -2.695397e+03
   2.026530e+03  -9.619952e+02
   9.860647e+02   6.801080e+02
  -5.047276e+02   6.272372e+02
  -9.880793e+02  -3.920410e+02
  -7.476679e+01  -9.927113e+02
   8.419039e+02  -7.851623e+02
   8.929485e+02  -5.276724e+01
   5.227277e+02   9.035384e+02
  -6.420852e+01   9.986936e+02
  -7.085847e+02   2.531612e+02
  -4.113212e+02  -6.526577e+02
   2.169825e+02  -7.152993e+02
   5.550026e+02   2.922110e+01
   3.690897e+02   6.820903e+02
  -1.895348e+02   7.242251e+02
  -5.850285e+02   2.072903e+02
  -4.102750e+02  -3.745057e+02
  -8.459482e+01  -4.398112e+02
   2.394725e+02  -2.952002e+02
   1.955696e+02  -6.823350e+01
  -1.734886e+02   7.030355e+01
  -3.889391e+02  -1.329771e+02
  -2.102449e+02  -5.092322e+02
   5.350966e+02  -3.524210e+02
   1.003911e+03  -3.804436e+00
   3.814352e+02   6.898728e+02
  -3.676424e+02   4.305006e+02
  -7.189760e+02  -9.141022e+01
  -2.882257e+02  -4.965952e+02
   1.802782e+02  -4.250529e+02
   5.075848e+02  -1.572812e+02
   4.394231e+02   1.892447e+02
   1.114698e+02   4.359518e+02
  -1.013816e+02   2.909425e+02
  -1.895601e+02  -2.127514e+02
   1.842810e+02  -4.604949e+02
   3.604275e+02  -1.028002e+02
   2.972346e+02   6.847329e+02
  -3.165100e+02   6.541328e+02
  -5.291395e+02   1.244619e+02
  -2.276402e+02  -4.938515e+02
   1.941236e+02  -3.895192e+02
   4.058095e+02   3.072915e+02
  -5.548619e+01   5.838019e+02
  -5.165942e+02   1.348004e+02
  -5.922797e+02  -3.795034e+02
  -2.100267e+02  -5.571851e+02
   3.288410e+02  -3.779919e+02
   5.820872e+02   8.411910e+01
   4.993430e+02   4.179561e+02
  -6.710176e+01   3.580225e+02
  -4.362811e+02   1.177261e+02
  -2.598103e+02  -1.455599e+02
   6.803594e+01  -9.041409e+01
   1.033232e+02   1.294000e+02
  -1.495652e+02   1.796047e+02
  -3.724577e+02  -3.797762e+01
  -1.209484e+02  -2.472595e+02
   2.676247e+02  -3.204105e+02
   3.762518e+02  -1.010345e+02
   2.788589e+02   3.776991e+01
  -2.438326e+01   2.762917e+02
  -2.374057e+02   3.753068e+02
  -3.667665e+02   2.905322e+02
  -2.979957e+02  -8.992238e+01
  -9.665789e+01  -5.261888e+02
   4.764534e+01  -3.689424e+02
   1.569226e+02  -1.684173e+02
   3.781465e+01  -1.397862e+01
   2.383949e+01  -1.052191e+02
   2.258475e+02  -1.331548e+02
   3.352485e+02   7.278691e+01
   1.297661e+02   3.035750e+02
  -5.540192e+01   1.837711e+02
  -2.586016e+02   2.409141e+01
  -2.122968e+02  -1.932852e+02
   2.513777e+01  -3.142612e+02
   2.253526e+02  -1.621047e+02
   3.709715e+02   1.467071e+02
   2.141830e+02   3.516462e+02
  -8.000854e+01   3.101851e+02
  -1.771100e+02   1.368794e+02
  -1.722831e+02   1.824889e+01
  -1.140579e+02   7.130338e+01
  -2.372527e+02   2.763987e+01
  -3.900040e+02   9.669883e-01
  -2.948661e+02  -2.843909e+02
  -1.236038e+01  -3.701039e+02
   2.969727e+02  -4.635889e+02
   4.831721e+02  -1.904599e+02
   3.843124e+02   1.272902e+02
   5.313972e+01   2.400881e+02
  -7.158367e+01   2.501685e+02
  -1.035455e+02   1.236699e+01
   8.058067e+01  -9.066629e+01
   1.850686e+02   3.727579e+01
   4.104028e+01   1.961044e+02
  -1.379732e+02   1.588855e+02
  -1.865910e+02  -5.172732e+01
   5.407176e+01  -2.148622e+02
   1.803390e+02  -1.650307e+01
   1.374214e+02   2.331004e+02
  -3.282892e+01   3.442464e+02
  -1.973715e+02   1.879096e+02
  -2.943298e+02  -3.665941e+01
  -2.424553e+02  -2.197060e+02
  -1.191645e+02  -2.754136e+02
   1.118030e+02  -1.558334e+02
   1.805958e+02  -1.955169e+01
   1.024749e+02   1.264708e+00
  -4.046808e+01  -4.952452e+01
  -7.822926e+00  -9.897923e+01
   1.191867e+02  -1.200351e+02
   1.592987e+02   3.120110e+01
   7.383394e+01   1.087372e+02
  -7.819112e+01   2.774364e+00
  -3.111376e+01  -1.087612e+02
   1.246463e+02  -1.163006e+02
   2.961133e+02  -1.380225e+00
   2.944877e+02   1.126471e+02
   1.078611e+02   2.774981e+02
  -9.953575e+01   3.190932e+02
  -2.843033e+02   1.407987e+02
  -1.520541e+02  -1.757001e+01
   2.198411e+01  -1.621306e+02
   8.047322e+01  -4.141272e+01
  -4.629000e+01   9.704702e+01
  -2.156083e+02   9.948217e+01
  -2.024817e+02  -1.439397e+02
  -7.942921e+01  -2.548095e+02
   9.501820e+01  -1.891104e+02
   1.439858e+02  -6.269158e+01
   5.597994e+01  -7.609001e+00
  -6.924042e+01  -2.519587e+01
  -2.282309e+01  -6.305384e+01
   6.956572e+01  -1.412600e+02
   1.939328e+02  -3.568572e+01
   1.933633e+02   1.295150e+02
   4.495231e+01   2.522302e+02
  -1.947646e+02   1.501079e+02
  -2.217999e+02   3.245695e+01
  -7.775869e+01  -1.327251e+02
   7.520403e+01  -1.206735e+02
   9.587926e+01  -5.910063e+01
   2.456174e+01   2.954978e+01
   1.823323e+00  -1.193280e+01
   4.429215e+00  -8.135894e-02
   4.187318e+01   3.644791e+01
   8.488783e+01   6.049137e+01
   3.750286e+01   1.844469e+02
  -1.154229e+02   1.306432e+02
  -2.275880e+02   1.324301e+01
  -2.357010e+02  -1.556011e+02
  -1.133168e+02  -2.452037e+02
   1.154417e+02  -1.872900e+02
   1.093113e+02  -6.038379e+01
   7.171061e+01   7.146441e+01
   2.063326e+01   4.120947e+01
   4.240314e+01   6.743072e+00
   6.662098e+01  -3.943657e+01
   4.731190e+01   8.284685e+01
  -7.317213e+01   9.661613e+01
  -4.202796e+01   1.043097e+02
  -8.836440e+01  -5.919623e+01
   2.395064e+01  -1.164006e+02
   1.618724e+02  -9.688166e+01
   1.839293e+02   6.148337e+01
   1.322832e+02   2.123897e+02
  -1.388298e+02   2.248450e+02
  -2.358278e+02   7.963341e+01
  -2.800796e+02  -6.815031e+01
  -4.954984e+01  -1.822832e+02
  -1.524424e+01  -1.620534e+02
   9.610501e+01  -9.298154e+01
   8.419658e+01  -6.951320e+01
   3.971243e+01  -6.462007e+01
   7.946145e+01  -4.896061e+01
   1.326084e+02   1.274098e+01
   1.365227e+02   1.414314e+02
   6.659956e+01   2.203023e+02
  -1.010903e+02   1.626788e+02
  -1.772209e+02   2.479508e+01
  -1.643907e+02  -8.500839e+01
  -1.455755e+01  -1.611348e+02
   6.815880e+01  -5.857852e+01
   5.205259e+01  -1.611280e+01
  -2.073522e+01   5.812280e+01
  -4.624459e+01   3.887228e+01
   2.246243e+01   3.987962e+00
   6.343574e+01   3.643008e+00
   5.348479e+01   3.937210e+01
  -1.576506e+01   7.410478e+01
  -2.024945e+02   1.488506e+01
  -1.610425e+02  -1.386229e+01
  -4.623045e+00  -1.220590e+02
   1.399785e+02  -1.051600e+02
   9.671003e+01  -6.391252e+01
   7.190478e+01   4.117415e+01
  -7.740503e+01   4.391372e+01
  -7.789922e+01  -5.539958e+00
  -8.771358e+00  -9.291409e+01
   6.498965e+01  -6.276624e+01
   3.642143e+01   1.123214e+01
   7.024298e+01   5.355230e+01
   5.921992e+01   3.704988e+01
   3.566468e+01   2.655007e+01
   9.680681e+01  -2.020159e+01
   5.058076e+01   2.296313e+01
  -4.654025e+01   1.677936e+02
  -6.478514e+01   2.032841e+02
  -2.007984e+02   5.701641e+01
  -1.311436e+02  -1.095850e+02
  -1.021915e+01  -1.528735e+02
   7.922304e+01  -7.340086e+01
   4.528972e+01   1.604895e+00
  -5.471521e+01   9.027748e+00
  -1.789524e+02  -3.773100e+01
  -9.033797e+01  -6.135220e+01
   9.814119e+01  -9.783481e+01
   1.825828e+02  -1.033180e+02
   1.661905e+02   3.508836e+01
   1.197934e+01   8.505244e+01
  -9.603009e+01   5.087940e+01
  -5.012865e+01   2.755014e+01
   6.651771e+01  -3.430690e+01
   9.701582e+01   7.259824e+00
   9.078159e+01   7.593640e+01
  -7.029157e+01   1.718889e+02
  -1.427330e+02   3.106239e+01
  -1.221556e+02  -7.311238e+01
   5.608233e+00  -2.112866e+02
   5.877523e+01  -1.742875e+02
   1.331578e+02   6.613731e-01
   8.703818e+01   1.471080e+02
  -2.574775e+01   8.983595e+01
  -4.286802e+01   1.771558e+01
  -5.354300e+01  -5.046916e+00
  -1.278773e+01   4.512518e+00
  -2.163318e+01   2.800494e+01
  -2.656859e+01   2.818104e+00
  -6.543930e+01  -1.037413e+02
  -3.397011e+01  -1.005168e+02
   7.895319e+01  -2.211028e+01
   1.329689e+02   2.889543e+01
   1.375540e+02   1.060938e+02
   3.689840e+01   2.123571e+01
  -8.055792e+01   5.591843e+01
  -8.411311e+01   1.539799e+00
  -3.452968e+01  -4.988830e+00
   1.733756e+01  -1.596098e+01
   3.690203e+01  -1.256642e+01
   8.776541e-01  -1.991394e+01
  -3.121743e+00   8.425397e+00
   7.668867e+01   3.125468e+01
   9.862243e+01   2.482296e+01
   1.771021e+01   6.601434e+01
  -1.296649e+02   1.657279e+02
  -2.131562e+02   8.569544e+01
  -1.259205e+02  -4.156992e+01
  -4.864624e+01  -1.355025e+02
   1.044536e+02  -1.580691e+02
   1.002535e+02  -5.751333e+01
   3.200939e+01   1.218210e+01
   3.574367e+00   3.368339e+00
   2.512680e+00  -4.871859e+01
   2.112639e+01  -3.238752e+01
   3.525817e+01   7.044041e+01
   4.778591e+00   5.732560e+01
  -6.553402e+01   6.491340e+01
  -6.848750e+01  -4.991433e+01
  -6.971817e+01  -1.024934e+02
  -1.164054e+00  -1.283571e+02
   5.956997e+01  -2.877312e+01
   9.429936e+01   1.137450e+02
   5.450394e+00   1.263581e+02
  -3.472344e+01   8.146547e+01
  -9.538345e+01   1.068416e+01
  -3.879077e+01  -5.224237e+01
   5.436835e+01  -7.134174e+01
   4.664869e+01  -4.835967e+01
   2.422964e+01   6.750271e+00
  -6.160936e+01   3.067798e+00
  -3.032031e+01   1.587985e+01
   1.143401e+02  -1.143304e+02
   7.525866e+01  -9.555118e+01
   6.400252e+01  -1.844533e+01
   1.059470e+01   7.775162e+01
  -6.612437e+01   9.496654e+01
  -3.043784e+01   1.713585e+01
  -9.148422e-01  -6.020700e+01
   2.941840e+01  -6.109045e+01
   5.763693e+01  -3.062194e+01
   5.865543e+01   6.154183e+01
  -2.690836e+01   3.197768e+01
  -4.471705e+01   2.148942e+01
  -6.447554e+01  -3.967858e+01
   1.329058e+01   2.266573e+01
   4.408860e+01   6.305697e+01
   1.922792e+01   2.538965e+00
  -2.546275e+01  -4.322652e+01
   6.260748e+00  -6.997304e+01
   2.946483e+01   2.427126e+01
   6.977603e+01   4.204627e+01
   3.336026e+00   6.217754e+01
  -5.345739e+01   1.698245e+01
  -7.822006e+01  -3.891801e+01
   2.223818e+01  -6.703120e+01
   3.635933e+01  -1.054858e+01
   1.223692e+02   2.548349e+01
   3.559303e+01   7.086204e+01
  -1.079226e+01   6.426644e+01
  -8.402709e+01   1.086212e+01
  -4.736768e+01   1.775665e+01
   4.359720e+01   2.479721e+01
   9.372314e+01   7.248508e+00
  -3.002253e+01   1.234386e+01
  -1.008798e+02  -1.945797e+00
