
 $NMID
 id='ANONYMOUS ', fmtdat='(2E16.6)'
 volume=1.0
 tramp=1.0
 $END
   3.188348e+03   3.509020e+00
   2.170965e+03   1.327828e+03
  -2.339265e+02   2.112921e+03
  -1.520701e+03   1.231934e+03
  -8.037964e+02  -1.639339e+02
   9.594302e+01  -2.172563e+02
   5.237018e+02   1.470974e+02
  -2.409783e+01   6.063740e+02
  -4.522804e+02   6.344988e+02
  -6.940522e+02  -1.145721e+02
  -3.915144e+02  -6.310665e+02
   1.381614e+02  -7.146807e+02
   4.939632e+02  -1.880818e+02
   1.209992e+02   4.555586e+02
  -2.903916e+02   5.311837e+02
  -4.845242e+02  -1.623139e+01
  -4.075783e+02  -4.732273e+02
   1.704825e+02  -6.352200e+02
   5.117149e+02  -2.042576e+02
   3.695282e+02   2.451995e+02
   6.756288e+01   3.873015e+02
  -1.414762e+02   2.524563e+02
  -7.707823e+01   2.895858e+01
   1.091637e+02   1.722910e+01
   2.734387e+02   2.401211e+02
   4.924159e+01   3.576816e+02
  -4.370188e+02   2.526006e+02
  -7.005037e+02  -1.069958e+02
  -2.111788e+02  -4.515596e+02
   2.649939e+02  -1.513283e+02
   4.678772e+02   8.796946e+00
   2.298921e+02   3.763424e+02
  -3.900907e+02   3.724076e+02
  -5.225237e+02   1.273344e+02
  -3.195351e+02  -2.305351e+02
  -1.219883e-01  -3.317292e+02
   1.259225e+02  -1.124147e+02
  -6.428589e+00   1.056120e+02
  -1.555512e+02   2.636849e+02
  -2.274636e+02  -2.304201e+02
  -9.506384e+01  -5.766992e+02
   2.705721e+02  -5.583676e+02
   3.003688e+02   9.036430e+01
   1.926181e+02   3.298401e+02
  -1.368442e+02   1.634406e+02
  -2.472009e+02  -2.049254e+02
   1.581302e+02  -3.826884e+02
   4.289013e+02  -7.837609e+01
   4.498019e+02   4.522906e+02
   2.005106e+02   4.902012e+02
  -3.242471e+02   2.677624e+02
  -5.183948e+02  -7.280108e+01
  -3.246482e+02  -2.882765e+02
   5.927846e+01  -3.174176e+02
   2.989986e+02  -9.616483e+01
   1.910286e+02   9.138466e+01
  -1.053185e+00   4.180259e+01
  -6.417517e+01  -6.429272e+01
   1.082527e+02  -6.105121e+01
   1.659866e+02   3.278213e+01
   1.569919e+02   1.970867e+02
  -1.945674e+02   1.831152e+02
  -2.798560e+02   7.190093e+01
  -1.940478e+02  -1.124857e+02
   2.401516e+01  -3.111452e+02
   3.194605e+02  -3.079105e+02
   3.039388e+02  -1.821028e+02
   2.024127e+02   2.023148e+02
   1.998999e+01   3.551155e+02
  -6.461380e+01   3.578269e+02
  -2.503196e+01   1.548867e+02
  -5.864787e+01   5.235394e+01
  -9.568553e+01   9.860431e+01
  -2.136990e+02   9.348702e+01
  -2.019726e+02  -1.105301e+02
  -1.167965e+02  -2.422656e+02
   1.510003e+02  -2.520477e+02
   2.035194e+02   3.241657e+01
   1.741559e+02   2.273917e+02
  -4.299784e+01   2.751266e+02
  -2.937461e+02   5.475404e+01
  -2.896199e+02  -1.467749e+02
  -1.795213e+02  -3.275707e+02
   1.202266e+02  -2.805486e+02
   2.097045e+02  -1.217819e+02
   1.709161e+02  -1.751904e+01
   1.201085e+02  -9.378914e+01
   2.694857e+02  -3.715850e+01
   3.972157e+02   8.954411e+01
   3.023786e+02   2.332564e+02
  -3.250520e+01   5.030741e+02
  -3.356398e+02   3.579530e+02
  -4.776618e+02   1.553942e+02
  -2.042213e+02  -8.114986e+01
  -4.222916e+01  -2.800252e+02
   8.019798e+01  -1.907029e+02
   6.054366e+00  -2.377953e+01
  -1.299844e+02   1.749614e+01
  -1.406682e+02  -7.447558e+01
  -2.773247e+01  -1.744867e+02
   1.013951e+02  -1.230815e+02
   1.122320e+02   1.035292e+02
  -2.032591e+01   1.262360e+02
  -1.367684e+02   1.508182e+01
  -2.011677e+02  -2.351348e+02
   1.921933e+01  -3.370380e+02
   2.369691e+02  -1.429892e+02
   3.135006e+02   3.120967e+01
   2.898933e+02   2.372800e+02
   1.846625e+01   2.197274e+02
  -1.083868e+02   1.358921e+02
  -1.417065e+02  -1.382895e+01
  -3.324917e+01  -1.034875e+01
   3.060270e+01   8.994388e+01
   7.556160e+00   1.787627e+02
  -1.283445e+02   5.599898e+01
  -1.690387e+02  -5.857304e+01
  -2.486040e+01  -1.045624e+02
   7.514506e+01  -2.054731e+01
   3.491733e+01   9.504234e+01
  -1.473880e+02   1.013547e+02
  -3.104673e+02   9.430122e+00
  -2.571911e+02  -1.721912e+02
  -2.096781e+01  -2.772089e+02
   2.032319e+02  -1.903661e+02
   3.082836e+02  -5.270038e+01
   1.508473e+02   5.645762e+01
  -6.078195e+01   8.602943e+01
  -8.243009e+01  -1.337001e+00
   6.050169e+01  -7.604931e+01
   1.654474e+02  -3.127801e+01
   1.859041e+02   1.023222e+02
   3.764635e+01   1.831732e+02
  -9.278803e+01   1.031900e+02
  -1.095349e+02  -8.635252e+00
  -4.079191e+01  -1.038761e+01
   4.616554e+01   3.770935e+01
   2.728673e+01   1.037820e+02
  -1.117982e+02   1.421552e+02
  -1.721644e+02   6.324682e+01
  -1.744749e+02  -1.292456e+02
   1.969368e+01  -2.008517e+02
   1.561500e+02  -1.781255e+02
   1.457195e+02   7.813138e+00
  -2.613775e+00   1.199926e+02
  -4.687818e+01   8.927604e+01
  -5.127312e+01   5.824238e+01
   1.049835e+01  -3.319944e+01
   3.371915e+01  -1.657889e+01
  -9.642861e-01   3.895537e+01
  -8.040317e+01  -2.916262e+01
  -1.417391e+02  -7.363172e+01
  -2.499027e+01  -1.567505e+02
   1.624759e+02  -1.705375e+02
   2.067016e+02   5.028381e+01
   1.489571e+02   1.507599e+02
  -3.536229e+01   2.142093e+02
  -1.051334e+02   1.003690e+02
  -1.596054e+02   7.344765e+01
  -4.888415e+01  -3.787142e+01
   8.535157e+00  -2.942865e+01
  -4.446090e+01   1.075844e+01
  -1.132115e+02  -5.950856e-01
  -7.391143e+00  -5.601587e+01
   2.125916e+01  -6.989582e+01
   1.503859e+02  -7.811399e+01
   1.059580e+02   6.700236e+00
  -1.457372e+01   9.641271e+01
  -1.691532e+02   4.864223e+01
  -1.928312e+02  -5.075556e+01
  -6.841149e+01  -2.177682e+02
   1.379319e+02  -2.037673e+02
   2.951932e+02  -1.327749e+02
   2.526056e+02   4.779478e+01
   6.962971e+01   1.327484e+02
  -7.052024e+01   1.424104e+02
  -1.046032e+02   8.894500e+01
  -9.702063e+01   9.222620e+01
  -3.349884e+01   1.184690e+02
  -1.534301e+02   9.836212e+01
  -1.233246e+02  -5.480113e+01
  -1.021367e+02  -1.593662e+02
  -2.801156e+01  -2.416274e+02
   9.976416e+01  -1.719010e+02
   1.463144e+02  -3.869693e+01
   6.191268e+01   1.354377e+02
   1.776373e+00   1.895493e+02
  -1.258510e+02   5.335943e+01
  -7.489189e+01  -2.933485e+01
  -4.814909e+01  -8.020690e+01
   3.886695e+01  -5.415394e+01
  -3.679489e+01   4.381642e+00
  -7.156682e+01  -4.095535e+01
  -5.072247e+01  -5.882831e+01
   3.387652e+01  -5.114934e+01
   1.450453e+02  -2.892799e+01
   1.502737e+02   8.847357e+01
  -1.877308e+01   9.159960e+01
  -1.292228e+02   4.299185e+01
  -6.429539e+01   1.004057e+01
  -3.623722e+01  -5.322018e+01
   5.391996e+01  -9.655754e+00
   6.791862e+01   3.101569e+01
   3.175705e+01   3.447334e+01
  -5.630125e+01   8.449295e+01
  -6.920738e+01   4.680285e+00
  -4.774115e+01  -4.479395e+01
  -4.853971e+01  -6.237173e+01
  -3.064454e+01  -3.214894e+01
  -6.944210e+01   2.513259e+01
  -4.100032e+01  -6.856601e+01
   1.925679e+01  -1.455466e+02
   1.402555e+02  -1.929337e+02
   1.718369e+02  -8.998872e+00
   1.455981e+02   9.435955e+01
  -1.922735e+01   1.676478e+02
  -4.793893e+01   2.554291e+01
  -5.935624e+01  -3.717259e+01
   3.172279e+01  -2.490956e+01
   1.562455e+02   6.056538e+01
   2.439775e+01   9.844127e+01
  -6.860853e+01   6.674050e+01
  -1.686208e+02   3.751438e+01
  -1.923404e+02  -1.298433e+01
  -4.078188e+01  -9.141952e+01
   7.309059e+01  -8.142368e+01
   4.311399e+01  -1.586517e+00
  -2.054265e+01   2.819716e+01
  -4.793324e+01  -3.150638e+01
  -2.152009e+01  -1.172762e+02
   8.677339e+01  -1.258281e+02
   1.526645e+02  -5.776768e+01
   1.545682e+02   9.926680e+01
   1.952567e+01   1.967181e+02
  -6.542190e+01   1.512477e+02
  -8.282269e+01  -1.565381e+01
   9.304741e+00  -9.700430e+01
   2.011977e+01  -1.132699e+02
   6.026515e+01  -2.129304e+01
   3.449992e+01   3.267431e+01
   6.629992e+00  -1.913599e+01
   2.257096e+01  -1.392168e+01
   3.997042e+01  -1.296232e+01
   4.291590e+01   9.612268e+01
  -1.474421e+01   1.269622e+02
  -1.121665e+02   4.402117e+01
  -9.217667e+01  -7.066502e+01
  -1.016402e+02  -2.555309e+01
   1.192381e+01  -4.150840e+01
   1.119141e+02  -4.843263e+01
   7.594831e+01  -6.689423e+00
   3.470545e+01   2.615301e+01
  -3.391341e+01  -2.912132e+01
  -6.584617e+01   2.898202e+01
   4.535485e+01  -1.451230e+01
  -1.530472e+01   1.588296e+00
  -5.162152e+01   3.603139e+01
  -1.221300e+02  -3.750904e+01
  -1.012370e+01  -4.551493e+01
   8.388823e+01  -1.000188e+02
   1.497878e+02  -1.014027e+02
   1.627397e+02   1.185598e+02
   5.137184e+01   1.486401e+02
  -1.295185e+02   1.568689e+02
  -1.550303e+02   1.400968e+01
  -3.683555e+01  -1.334674e+01
  -1.700588e+01  -2.738340e+01
   1.515143e+01   2.910425e+01
  -1.797676e+01   1.356031e+00
  -4.166818e+01  -6.511202e+01
  -1.264814e+01  -7.395784e+01
   1.249643e+01  -7.823184e+01
   8.334981e+01   2.173567e+00
   7.386869e+01   8.735471e+01
  -1.251859e+01   1.210801e+02
  -1.036468e+01   5.396527e+01
  -1.057968e+02  -5.062911e+01
  -4.860501e+01  -1.031282e+02
   1.021035e+02  -1.434106e+01
   1.199852e+02   2.341375e+01
   6.706459e+01   5.892338e+01
  -1.917380e+01   3.410985e+01
  -3.425242e+01   3.435987e+01
   5.139446e+01  -7.801864e+00
   2.217319e+01   3.307330e+01
   8.436102e+00   9.399053e-01
  -6.314178e+01   8.073087e+01
  -1.294480e+02   2.741356e+01
  -7.221155e+01   2.555294e+01
   1.492291e+01  -8.887887e+01
   4.343713e+01  -5.581911e+01
   4.219940e+01  -9.986474e+00
   6.835060e+00   7.432175e+01
  -6.937584e+00   3.813317e+01
  -2.960152e+01  -1.615909e+01
  -4.941360e+01  -5.673619e+01
  -1.376917e+01  -4.229148e+01
   3.986610e+01   1.340721e+01
   8.609833e+01   1.660088e+01
   6.083659e+01   1.479134e+01
   8.762442e+00  -7.986888e+00
  -2.147628e+01  -9.304883e+00
  -6.027189e+01   4.651158e+01
  -1.869984e+00   5.233127e+01
  -1.601065e+01   4.676403e+00
  -3.229497e+01   1.050247e+01
  -3.147723e+01  -2.279822e+01
   1.615604e+01  -3.601984e+01
   4.060967e+01   3.079496e+01
   4.584558e-01   1.105708e+02
  -3.279504e+01   3.385556e+01
  -1.010196e+02   4.044565e+01
  -5.085433e+01  -1.331195e+01
   3.382128e+01  -3.750041e+01
   7.282841e+01  -1.842156e+01
   3.370841e+01  -4.524000e+00
  -1.684034e+01  -5.557067e+01
  -1.641762e+01  -2.031191e+01
   2.791746e+01  -4.236043e+01
   4.380530e+01  -6.612488e+00
