
 $NMID
 id='ANONYMOUS ', fmtdat='(2E16.6)'
 volume=1.0
 tramp=1.0
 $END
   3.731406e+03  -3.317195e+02
   2.003352e+03   2.235980e+03
  -5.597093e+02   2.954858e+03
  -2.055615e+03   1.223729e+03
  -7.104223e+02  -6.434241e+02
   3.992564e+02  -6.953096e+02
   7.068026e+02   4.678427e+02
  -3.986468e+01   7.297003e+02
  -8.560745e+02   7.885549e+02
  -9.165108e+02  -2.091116e+01
  -3.537537e+02  -8.753740e+02
   2.406204e+02  -8.518972e+02
   6.073687e+02  -7.522459e+01
   3.532959e+02   6.863632e+02
  -1.651662e+02   7.688766e+02
  -5.085144e+02   4.209138e+00
  -2.435172e+02  -7.249492e+02
   2.603524e+02  -6.451424e+02
   5.423338e+02  -1.881285e+02
   4.231110e+02   3.474418e+02
  -8.184960e+00   4.192753e+02
  -2.507182e+02   2.331282e+02
  -1.726601e+02   5.930267e+01
   1.738940e+02  -8.933156e+01
   3.804297e+02   2.345290e+02
   1.196911e+02   3.301803e+02
  -4.235722e+02   4.183767e+02
  -8.668134e+02  -8.056614e+01
  -4.484131e+02  -4.832586e+02
   4.636232e+02  -4.059493e+02
   7.311920e+02   9.499180e+01
   1.972676e+02   5.360667e+02
  -2.132455e+02   5.003457e+02
  -5.987253e+02   1.768468e+02
  -3.765645e+02  -1.432535e+02
  -5.174135e+01  -4.411138e+02
   1.169445e+02  -2.901319e+02
   1.751873e+02   1.953102e+02
  -1.508601e+02   3.700194e+02
  -3.691196e+02  -1.119287e+00
  -1.163608e+02  -6.702292e+02
   3.896325e+02  -6.635640e+02
   6.043756e+02  -7.709713e+01
   2.304789e+02   6.224285e+02
  -2.238909e+02   2.962324e+02
  -4.113770e+02  -3.504582e+02
   2.032854e+01  -5.408912e+02
   5.419784e+02  -8.045926e+01
   4.980100e+02   3.160454e+02
   8.211957e+01   5.854272e+02
  -4.065465e+02   3.707278e+02
  -5.906800e+02  -8.480743e+01
  -4.401375e+02  -3.820652e+02
   1.188316e+02  -4.009080e+02
   3.857039e+02  -8.992073e+01
   2.063842e+02   1.671463e+02
  -1.381928e+02   1.160514e+02
  -1.532378e+02  -1.989160e+02
   1.229156e+02  -1.333312e+02
   3.708977e+02   1.398690e+02
   6.011169e+01   2.707866e+02
  -2.020753e+02   2.530581e+02
  -3.728352e+02   1.114191e+02
  -2.079000e+02  -4.423555e+01
  -1.518946e+01  -3.010721e+02
   2.242045e+02  -4.291613e+02
   4.024661e+02  -1.691371e+02
   3.009832e+02   1.254091e+02
   6.451145e+01   4.687381e+02
  -1.150604e+02   3.504936e+02
  -1.098626e+02   1.165964e+02
   1.939769e+00   7.542784e+00
  -2.851048e+01   1.015959e+02
  -2.470147e+02   9.033939e+01
  -2.846151e+02  -7.507066e+01
  -1.627373e+02  -2.865788e+02
   4.001316e+01  -2.453203e+02
   2.130509e+02  -2.359441e+01
   1.591311e+02   2.630357e+02
  -3.012548e+01   2.506747e+02
  -2.425119e+02   9.381739e+01
  -2.925054e+02  -2.409382e+02
  -1.938311e+02  -3.224818e+02
   7.965233e+01  -3.041612e+02
   1.510609e+02  -1.456427e+02
   1.982520e+02  -2.911015e+01
   1.071593e+02  -3.730073e+01
   2.562402e+02  -4.292456e+01
   3.986828e+02  -2.241093e+01
   3.192856e+02   2.846451e+02
   2.719494e+01   4.610521e+02
  -4.155761e+02   4.126118e+02
  -5.253958e+02   1.992418e+02
  -3.033746e+02  -1.495075e+02
  -4.238043e+01  -3.294393e+02
   1.194358e+02  -2.530470e+02
   1.390160e+02  -2.450337e+01
  -8.920885e+01   1.052970e+02
  -1.826991e+02  -5.428924e+00
  -2.309726e+01  -2.061275e+02
   1.870231e+02  -1.733539e+02
   1.897268e+02   3.621372e+01
  -1.548866e+01   2.807956e+02
  -2.051671e+02   6.508966e+01
  -1.535376e+02  -2.815825e+02
   9.098805e+00  -3.517573e+02
   2.101548e+02  -1.899054e+02
   3.502162e+02   4.794526e+01
   2.606846e+02   2.971950e+02
   8.240933e+01   2.847333e+02
  -1.063749e+02   1.299588e+02
  -1.440940e+02   3.278424e+01
  -5.083370e+01  -2.911058e+01
   6.996463e+01   6.273930e+01
  -1.727365e+01   1.210404e+02
  -9.774876e+01   9.985163e+01
  -1.997174e+02   1.422127e+01
  -8.009553e+01  -7.908263e+01
   9.898776e+01  -3.703512e+01
   4.556093e+01   8.650385e+01
  -7.037215e+01   7.477875e+01
  -2.889255e+02  -3.545643e+01
  -2.638900e+02  -1.460158e+02
  -3.531443e+01  -3.082039e+02
   2.493273e+02  -2.730223e+02
   2.477270e+02  -1.761959e+02
   2.441497e+02   3.807192e+01
  -4.938097e+01   1.174527e+02
  -9.132359e+01   2.063071e+01
   2.617990e+01  -1.323271e+02
   1.760321e+02  -6.954390e+01
   1.449627e+02   1.707780e+02
   6.636280e+01   2.112527e+02
  -1.414622e+02   1.838915e+02
  -9.560938e+01   2.284845e+01
  -2.373212e+01  -4.807615e+01
   6.926626e+01  -4.153961e+01
   3.727163e+01   1.078132e+02
  -7.543347e+01   1.083838e+02
  -2.009299e+02   3.811930e+01
  -2.272986e+02  -1.123770e+02
  -4.236507e+01  -2.451233e+02
   2.095321e+02  -1.427405e+02
   2.017580e+02  -4.767871e+01
   7.049097e+01   8.511751e+01
  -5.939664e+01   1.320000e+02
  -7.088698e+01   1.324058e+01
  -1.739035e+01  -1.740971e+01
   5.468766e+01  -3.293344e+01
   4.884526e+01   2.776073e+01
  -5.859661e+01  -3.916131e+01
  -1.185814e+02  -7.525705e+01
  -1.938099e+01  -1.218461e+02
   1.636951e+02  -1.510674e+02
   2.208580e+02  -3.300844e+01
   1.624116e+02   1.445838e+02
   7.987393e+01   2.094269e+02
  -1.183568e+02   1.657978e+02
  -1.482128e+02   4.276729e+01
  -1.578876e+02  -4.731282e+01
  -3.109419e+01  -1.004133e+02
  -2.572165e+01   1.244850e+01
  -8.805669e+01   3.807634e+00
  -5.179278e+01  -2.877059e+01
   3.073078e+01  -6.441478e+01
   1.424972e+02  -5.845558e+01
   3.732600e+01   2.836350e+01
  -1.090650e+01   7.494550e+01
  -1.369206e+02   1.372657e+02
  -1.775496e+02  -1.002206e+01
  -1.036597e+02  -2.091799e+02
   9.181116e+01  -1.928342e+02
   2.406373e+02  -5.939339e+01
   2.479664e+02   7.994809e+01
   1.187949e+02   1.705359e+02
   1.703488e+01   1.659427e+02
  -1.169393e+02   7.118479e+01
  -8.454396e+01   4.141628e+01
  -1.132918e+02   4.306929e+01
  -6.206006e+01   5.542246e+01
  -1.237019e+02  -3.059392e+01
  -1.033913e+02  -1.457297e+02
   1.768056e+01  -2.090138e+02
   1.056758e+02  -1.994551e+02
   2.165321e+02  -2.680766e+01
   2.058500e+02   1.145328e+02
   6.306494e+01   1.335735e+02
  -7.044328e+01   8.813163e+01
  -5.337002e+01  -3.949607e+00
   6.001554e+00  -4.192855e+01
  -1.299241e+00  -1.927346e+01
  -3.410043e+01   4.510392e+00
  -1.101607e+02  -2.121548e-01
  -2.946130e+01  -2.775806e+01
   7.688997e+01  -2.641278e+01
   1.300773e+02  -4.109308e+00
   1.797533e+02   6.996494e+01
   3.284071e+00   1.035216e+02
  -1.174860e+02   8.592718e+01
  -1.228749e+02   2.453454e+01
  -2.642434e+01  -3.435520e+01
  -4.345627e+00  -4.186704e+01
   1.150001e+02   3.413318e+00
  -7.047938e+00   8.886960e+01
  -5.270037e+01   3.631516e+01
  -8.801315e+01  -1.980523e+01
  -6.024446e+01  -8.341720e+01
  -5.518110e+01  -5.785817e+00
  -7.156140e+00  -2.527684e+01
  -6.275444e+01  -7.795813e+00
  -2.757881e+01  -6.130405e+01
   1.038011e+01  -1.425872e+02
   1.255839e+02  -1.872776e+02
   1.668973e+02  -6.820958e+01
   1.545753e+02   8.735884e+01
   1.393954e+01   1.230950e+02
  -1.078059e+02   5.253992e+01
  -6.076299e+01   1.611800e+00
   4.135252e+01   1.330431e+01
   1.599569e+02   4.990952e+01
   9.656746e+01   1.038838e+02
  -9.215223e+01   1.101593e+02
  -1.837727e+02   8.605225e+01
  -1.772265e+02   9.170578e-01
  -3.382918e+01  -1.054337e+02
   6.112797e+01  -5.628999e+01
   7.499883e+01   8.064968e+00
  -1.444485e+01  -1.448122e+00
  -5.568804e+01  -4.490542e+01
  -1.031318e+02  -1.087465e+02
   9.145735e+01  -1.764666e+02
   1.391169e+02  -4.287949e+01
   1.857240e+02   1.139344e+02
  -3.167119e+00   1.819217e+02
  -5.711824e+01   1.472823e+02
  -1.106402e+02  -1.191267e+01
  -5.610009e+01  -1.638499e+02
   7.336777e+00  -1.071299e+02
   2.010431e+01  -2.257554e+00
   4.895188e+01   4.979227e-01
   2.606339e+01   4.131022e+01
   2.679470e+00  -4.580508e+01
   4.335907e+01   3.855638e+01
   5.744345e+01   8.404358e+01
  -1.921975e+00   1.002509e+02
  -5.064353e+01   4.025870e+01
  -1.369282e+02  -2.087803e+01
  -1.249019e+02  -4.633229e+01
  -4.483153e+01  -5.809270e+01
   9.103627e+01  -5.449760e+01
   9.141579e+01   1.155492e+01
   3.518290e+01  -3.183519e+01
   8.975421e-01   4.714379e+01
  -3.120479e+01   1.261548e+01
  -2.881719e+01   1.524889e+01
  -2.068771e+01  -2.615550e+01
  -6.545726e+01   6.496884e+00
  -1.231287e+02  -2.344066e+01
  -7.504075e+00  -8.618665e+01
   1.285818e+02  -1.213434e+02
   1.792771e+02  -6.965090e+01
   1.735812e+02   4.704219e+01
   5.310134e+01   1.471649e+02
  -9.930347e+01   1.914665e+02
  -1.180635e+02   5.036607e+01
  -1.182763e+02  -3.262414e+01
   7.881792e+00  -5.285632e+01
   1.928744e+01   3.792489e+01
   1.676765e+00  -1.201449e+01
  -4.025737e+01  -4.884309e+01
  -1.510040e+01  -7.265508e+01
  -3.036224e+00  -8.903593e+01
   1.120727e+02   4.103025e+01
   1.079307e+02   1.518933e+02
   1.181940e+01   1.064187e+02
  -4.453774e+01   1.660735e+01
  -7.983411e+01  -7.263606e+01
  -1.264683e+01  -1.112835e+02
   5.047805e+01  -5.636569e+01
   1.012039e+02   2.010791e+01
   3.535860e+01   6.456104e+01
  -2.461703e+01   5.433687e+01
  -1.950224e+01   6.002775e+01
   4.258751e+01   1.429377e+01
   6.649291e+01  -2.599951e+01
   7.526375e+00   4.894248e+01
  -6.568981e+01   2.986326e+01
  -1.273423e+02   5.775779e+01
  -6.344415e+01  -1.936366e+01
   1.929150e+01  -6.770320e+01
   7.665146e+01  -9.165829e+01
   5.226266e+00  -3.994819e+01
   9.022840e+00   4.203068e+01
  -3.153877e+01   4.630037e+01
  -2.224107e+01  -1.827299e+01
   9.630368e-01  -7.148060e+01
   2.235254e+01  -3.193610e+01
   5.058685e+01  -1.029520e+01
   5.121654e+01   5.223923e+01
   4.148298e+01   1.665831e+01
  -8.959669e+00  -7.824135e+00
  -9.934239e+00   3.868790e+00
  -2.600746e+01   1.558363e+01
   3.714504e+00   1.658163e+01
  -5.377802e+01   2.644075e+01
  -2.470019e+01  -3.375115e+01
  -5.635435e+00  -6.328969e+01
   6.139204e+01  -1.335996e+01
   9.680248e+01   6.231550e+01
  -1.404199e+01   1.004208e+02
  -7.082201e+01   2.743939e+01
  -1.365007e+02   1.743648e+01
  -4.262151e+01  -4.533360e+01
   3.000280e+01  -4.377535e+01
   5.436436e+01  -1.914133e+00
   3.205442e+01  -4.841721e+01
  -1.182603e+01  -1.463241e+01
  -7.966176e+01   2.916730e+01
   3.755511e+01  -2.644217e+01
   1.099956e+02  -3.469855e+01
