
 $NMID
 id='ANONYMOUS ', fmtdat='(2E16.6)'
 volume=1.0
 tramp=1.0
 $END
  -3.990467e+03   1.795899e+02
  -1.957674e+03  -2.118012e+03
   7.373066e+02  -3.038872e+03
   2.411503e+03  -1.079710e+03
   6.312277e+02   4.286036e+02
  -3.769981e+02   6.068587e+02
  -7.797184e+02  -5.254614e+02
  -1.066859e+01  -7.942416e+02
   6.205945e+02  -6.609374e+02
   7.677032e+02  -9.636881e+01
   3.208677e+02   6.148781e+02
  -1.427625e+02   8.840612e+02
  -4.867555e+02   1.680258e+02
  -3.459834e+02  -5.493177e+02
   2.210943e+02  -6.006914e+02
   4.934973e+02  -7.590471e+00
   3.121371e+02   6.738217e+02
  -3.540723e+02   6.711903e+02
  -5.373571e+02   1.315681e+02
  -2.840036e+02  -2.833632e+02
  -6.427347e+00  -2.823745e+02
   1.469494e+02  -1.907255e+02
   1.951604e+02  -8.639159e+01
  -1.754152e+02   1.547233e+01
  -3.477934e+02  -1.929211e+02
  -7.525966e+01  -3.794044e+02
   4.504068e+02  -3.402262e+02
   7.496816e+02   1.879654e+02
   2.884178e+02   4.451065e+02
  -4.091604e+02   2.654914e+02
  -6.405795e+02  -2.359989e+01
  -2.490350e+02  -4.248681e+02
   3.048153e+02  -4.349806e+02
   4.421264e+02  -1.451000e+02
   3.386996e+02   1.905246e+02
   1.259185e+02   3.081776e+02
  -1.738031e+02   3.282369e+02
  -1.163712e+02  -1.865581e+02
   8.486418e+01  -3.641277e+02
   2.662371e+02   1.775230e+01
   1.921384e+02   5.371292e+02
  -3.762448e+02   6.121428e+02
  -4.994463e+02   9.047252e+01
  -2.484561e+02  -4.818148e+02
   1.701415e+02  -2.475343e+02
   3.449961e+02   2.790107e+02
  -1.094611e+02   4.634704e+02
  -4.269133e+02   5.236270e+01
  -5.289641e+02  -3.392694e+02
  -1.820804e+02  -5.034594e+02
   3.529089e+02  -3.582449e+02
   6.187328e+02   9.040053e+01
   3.236135e+02   3.380199e+02
  -7.096382e+01   2.735074e+02
  -3.112224e+02   1.296323e+02
  -2.497978e+02  -1.740817e+02
   1.020420e+02  -7.779678e+01
   1.315142e+02   1.161128e+02
  -1.031702e+02   1.474222e+02
  -2.648813e+02  -1.189457e+02
  -1.121052e+02  -2.884233e+02
   1.620710e+02  -2.398457e+02
   3.345386e+02  -1.051147e+02
   2.161795e+02   7.222712e+01
  -4.703193e+01   2.349932e+02
  -2.219924e+02   4.108721e+02
  -3.680576e+02   1.606564e+02
  -2.263568e+02  -1.884089e+02
  -6.418257e+01  -4.038399e+02
   7.431419e+01  -2.738248e+02
   1.152689e+02  -1.571707e+02
  -1.622537e+01  -1.791626e+01
   6.770099e+01  -4.017477e+01
   2.228600e+02  -6.869822e+01
   1.676704e+02   6.836860e+01
   1.407627e+02   2.196196e+02
  -2.845046e+01   2.161933e+02
  -2.334877e+02   6.619489e+00
  -2.194190e+02  -1.702807e+02
   1.624209e+00  -2.778859e+02
   2.132704e+02  -1.327010e+02
   2.874441e+02   1.367056e+02
   2.452273e+02   2.487634e+02
  -3.773837e+01   2.437351e+02
  -1.745349e+02   1.132246e+02
  -1.561552e+02   2.137494e+01
  -7.385438e+01   9.692357e+00
  -2.503636e+02   1.419123e+01
  -3.401546e+02  -3.957013e+01
  -3.209938e+02  -2.790559e+02
   4.007314e+00  -3.311373e+02
   4.000515e+02  -3.413186e+02
   3.748398e+02  -2.115541e+02
   2.720255e+02   9.176057e+01
   6.205578e+01   2.767658e+02
  -1.111853e+02   2.420035e+02
  -6.024612e+01   4.511064e+01
   1.124618e+02  -7.261653e+01
   1.414909e+02   4.678039e+01
   3.536882e+01   1.473364e+02
  -1.441306e+02   1.651825e+02
  -1.545481e+02  -3.638817e+01
  -9.358090e-01  -1.908123e+02
   2.023560e+02  -1.711214e+01
   1.505477e+02   1.820259e+02
  -5.014417e+01   3.414595e+02
  -2.045069e+02   2.293568e+02
  -3.358159e+02  -4.535875e+01
  -2.723436e+02  -1.597172e+02
  -9.141382e+01  -2.782595e+02
   1.396205e+02  -1.713787e+02
   9.580258e+01  -1.074992e+01
   7.445390e+01  -1.075594e+01
  -1.774105e+01  -7.856210e+01
  -3.184659e-01  -9.766489e+01
   1.177986e+02  -6.908975e+01
   1.839301e+02  -1.129745e+01
   5.306540e+01   6.186352e+01
  -7.415566e+01   2.775819e+01
  -2.039751e+01  -8.657150e+01
   1.099794e+02  -4.662800e+01
   2.826886e+02   2.103415e+01
   2.389902e+02   1.113448e+02
   6.757795e+01   2.126815e+02
  -1.980642e+02   2.784284e+02
  -2.349344e+02   1.351333e+02
  -1.472389e+02  -1.596499e+01
   5.320345e+01  -5.918482e+01
   6.476210e+01   1.804086e+01
  -7.819209e+00   6.257275e+01
  -1.803680e+02   4.731477e+01
  -2.026102e+02  -1.833778e+02
  -5.094764e+01  -1.920402e+02
   6.274211e+01  -1.334447e+02
   1.869803e+02  -8.263612e+00
   6.200540e+01   5.159100e+01
  -2.263779e+01   3.205867e+01
  -2.034950e+01  -8.476442e+01
   6.502773e+01  -9.631500e+01
   1.629859e+02   1.202972e+00
   1.935087e+02   1.421296e+02
   4.133920e+01   2.184450e+02
  -1.517996e+02   2.079190e+02
  -1.771377e+02  -4.497249e+01
  -1.221726e+02  -1.259029e+02
   2.693216e+01  -8.206321e+01
   4.514117e+01   2.056308e+01
   2.727229e+01   5.304633e+00
  -4.398246e+01   3.383749e+01
  -3.305030e+01   2.443897e+01
   7.938157e+01   5.583711e+00
   9.272622e+01   9.509485e+01
   1.654797e+01   1.621438e+02
  -1.321574e+02   1.346709e+02
  -2.456600e+02   2.167137e+01
  -1.960530e+02  -1.126079e+02
  -4.300812e+01  -1.854265e+02
   9.435244e+01  -1.550470e+02
   1.608563e+02  -3.454142e+01
   7.734584e+01   5.924164e+01
   3.219158e+01   2.201898e+01
   3.674808e+01  -3.508741e+01
   6.313596e+01   1.705688e+01
   7.047981e+01   1.777193e+01
  -3.543744e+01   1.101311e+02
  -7.853881e+01   9.582196e+01
  -3.777385e+01  -4.114088e+01
   3.519861e+01  -7.878667e+01
   1.480643e+02  -9.483530e+01
   1.968437e+02  -1.033387e+01
   1.082281e+02   1.986488e+02
  -8.036911e+01   1.781419e+02
  -2.382587e+02   9.867592e+01
  -1.969502e+02  -4.351326e+01
  -6.861209e+01  -1.548107e+02
  -1.014338e+00  -1.744998e+02
   7.187944e+01  -4.388211e+01
   8.925628e+01  -4.940186e+01
   1.040031e+02  -1.002776e+02
   6.479929e+01  -7.028544e+01
   1.140883e+02   1.052964e+01
   8.996786e+01   1.120432e+02
  -9.657297e-01   1.503398e+02
  -8.758586e+01   1.313425e+02
  -1.810792e+02  -7.261801e+00
  -1.263779e+02  -1.722964e+02
  -2.326108e+00  -1.142870e+02
   7.715776e+01  -9.336602e+01
   5.281348e+01   2.710077e+01
  -2.494062e+00   3.369499e+01
  -1.255802e+01   5.162860e+01
   5.935637e+01   2.481036e+01
   9.063535e+01   1.255556e+01
   1.047870e+01   4.755701e+00
  -7.920594e+01   3.629864e+00
  -1.530026e+02   3.081777e+01
  -1.137324e+02  -5.555982e+01
   4.326486e-01  -8.669217e+01
   7.542539e+01  -5.457552e+00
   1.437215e+02  -1.372896e+01
   3.483903e+01   5.038565e+01
  -8.344991e+01   7.667306e+00
  -8.234719e+01  -1.048397e+01
  -5.427235e+00  -3.743469e+01
   7.496670e+01  -6.733606e+01
   5.803704e+01   3.024943e+01
   4.995506e+01   5.624731e+01
   2.315168e+01   1.240207e+01
   8.923111e+01  -5.459759e-01
   8.104272e+01   1.404016e+01
   2.891697e+01   3.661825e+01
  -2.210688e+01   1.398768e+02
  -7.193194e+01   1.189015e+02
  -1.535329e+02   3.824358e+01
  -9.049920e+01  -7.011243e+01
  -1.882121e+01  -1.772611e+02
   8.763782e+01  -6.268090e+01
   2.923917e+01  -5.646331e+00
  -3.147746e+01   1.101955e+01
  -1.551322e+02   6.816910e-01
  -4.783240e+01  -6.091145e+01
   9.797900e+01  -1.141073e+02
   1.337186e+02  -7.418735e+01
   1.307515e+02   5.902166e+01
   2.687318e+01   9.270998e+01
  -5.961275e+01   4.980348e+01
  -4.188446e+01   9.424587e+00
   3.593475e+01  -1.316669e+01
   1.009748e+02   3.302747e+01
   6.080644e+01   9.292943e+01
  -5.864143e+01   1.758468e+02
  -1.488219e+02   3.479543e+01
  -1.264563e+02  -6.632459e+01
  -1.876748e+01  -1.410761e+02
   7.735541e+01  -1.446480e+02
   1.308692e+02  -1.830488e+01
   4.682257e+01   1.455420e+02
   1.482082e+01   6.705367e+01
  -4.503161e+01   2.945631e+01
  -4.279612e+01  -3.171197e+01
  -1.713014e+01  -2.338987e+01
  -1.479638e+01   7.318710e+00
  -4.731378e+01  -1.765619e+01
  -3.546103e+01  -7.020691e+01
  -2.364115e+01  -8.164305e+01
   8.153002e+01  -4.074239e+01
   1.509897e+02   2.695116e+01
   1.226597e+02   9.578130e+01
   1.554134e+01   4.420215e+01
  -6.512375e+01   4.399942e+01
  -8.558282e+01   7.650014e+00
  -1.853995e+01  -3.213203e+00
   2.365887e+01  -1.341112e+01
   2.341670e+01   3.647379e+00
   2.347702e+01   5.332975e+01
   1.396898e+00  -1.805182e+01
   4.408772e+01  -3.759374e+01
   1.197662e+02   1.295653e+01
  -1.432502e+01   7.651503e+01
  -1.348671e+02   1.332010e+02
  -1.232053e+02   5.031854e+01
  -1.205080e+02  -4.051762e+01
  -3.251736e+01  -1.156820e+02
   6.088391e+01  -1.441519e+02
   9.502157e+01  -4.269693e+01
   7.324586e+01   2.922012e+01
   2.486570e+01   2.927104e+01
  -2.773274e+01  -2.097595e+01
   3.251611e+01  -4.817794e+00
   7.790502e+00   3.857102e+01
   1.813514e+01   5.020900e+01
  -4.209547e+01   8.806364e+01
  -9.092819e+01  -6.230120e+00
  -8.915984e+01  -1.062379e+02
   1.062356e+01  -1.325909e+02
   9.714343e+01  -1.367425e+01
   8.544476e+01   1.079280e+02
   3.180493e+00   6.296859e+01
  -4.524044e+01   1.642886e+01
  -8.619178e+01   1.872343e+00
  -4.073227e+01  -4.286176e+01
  -8.777914e-01  -6.918281e+01
  -2.165658e+01  -6.477494e+01
  -1.367821e+01  -3.954950e+00
  -4.723096e+01   3.763984e+01
  -9.653927e+00  -1.650764e+01
   7.798414e+01  -6.543005e+01
   1.288646e+02  -7.451452e+01
   3.917549e+01   8.779101e+00
  -2.487598e+01   6.387873e+01
  -8.533060e+01   6.100171e+01
  -7.507611e+01   2.815703e+01
   1.223635e+01  -6.292543e+01
   3.387851e+01  -2.136147e+01
   1.030562e+01   5.385255e+00
   3.126383e+01   2.853858e+01
  -2.579700e+01   6.595167e+01
  -1.656982e+01  -3.257800e+00
   6.742453e+00  -2.811845e+01
  -2.460747e+01  -2.315905e+01
   1.446771e+01   1.286380e+01
   1.069159e+01  -1.152099e+01
   1.831507e+01  -6.295343e+01
   1.969484e+01  -3.510441e+01
   3.836288e+01   3.106803e-01
  -3.439487e+00   5.735338e+01
   1.429158e+01   3.071493e+01
  -4.425582e+01  -6.647900e+00
  -7.490325e+01  -3.841456e+01
  -2.230642e+01  -8.414088e+01
   3.287983e+01  -4.960138e+01
   7.136093e+01   9.587239e+00
   6.947261e+01   4.316683e+00
  -6.709713e+01   3.952553e+01
  -8.710435e+01  -1.014922e+01
  -5.030501e+00   2.871942e+01
   5.330634e+01   6.180728e+00
   4.430040e+01   4.655974e+01
  -2.239729e+01   1.480231e+01
  -7.211674e+01   2.933400e+01
