
 $NMID
 id='ANONYMOUS ', fmtdat='(2E16.6)'
 volume=1.0
 tramp=1.0
 $END
   3.657716e+03   2.128497e+02
   2.090552e+03   2.176987e+03
  -7.991054e+02   2.944731e+03
  -2.131264e+03   9.700839e+02
  -8.114670e+02  -4.127818e+02
   6.151441e+02  -4.205596e+02
   7.938666e+02   2.987460e+02
  -2.354130e+01   8.796884e+02
  -9.348470e+02   6.723126e+02
  -9.781492e+02   1.371586e+01
  -4.753555e+02  -8.203343e+02
   3.365208e+02  -9.134718e+02
   6.408841e+02  -8.497161e+01
   3.524316e+02   6.632225e+02
  -2.403604e+02   5.792475e+02
  -5.441015e+02   1.079838e+01
  -2.531487e+02  -5.925065e+02
   3.945142e+02  -5.863050e+02
   5.539704e+02  -7.091001e+01
   4.038801e+02   3.021903e+02
  -1.712326e+01   3.981724e+02
  -2.067024e+02   2.494115e+02
  -2.347497e+02   1.972150e+01
   1.405447e+02  -6.586014e+01
   3.799000e+02   1.191194e+02
   9.981889e+01   3.954730e+02
  -4.880761e+02   3.415418e+02
  -7.627308e+02  -9.726731e+01
  -3.015844e+02  -4.824665e+02
   2.715466e+02  -2.587937e+02
   7.557834e+02   1.088731e+02
   3.790069e+02   4.107698e+02
  -2.817806e+02   4.573680e+02
  -5.622877e+02   1.950788e+02
  -3.310285e+02  -2.309559e+02
  -1.230062e+02  -4.152803e+02
   1.789011e+02  -2.443362e+02
   1.669964e+02   2.181426e+02
  -1.356538e+02   3.681788e+02
  -3.315547e+02  -5.951072e+01
  -2.617828e+02  -5.590607e+02
   3.013708e+02  -6.740995e+02
   5.788404e+02  -3.822258e+01
   2.289023e+02   5.129749e+02
  -2.641129e+02   2.742967e+02
  -3.359413e+02  -2.925466e+02
   8.505206e+01  -5.202615e+02
   4.926979e+02  -9.320061e+01
   5.172960e+02   3.576876e+02
   1.568127e+02   5.184661e+02
  -4.521464e+02   3.485915e+02
  -5.542555e+02  -7.174684e+01
  -3.123296e+02  -3.991584e+02
   1.366140e+02  -3.027145e+02
   3.547685e+02  -3.301974e+00
   2.373040e+02   2.145974e+02
  -9.600006e+01   5.891491e+01
  -1.156715e+02  -1.181800e+02
   1.102208e+02  -1.175201e+02
   2.706406e+02   7.369860e+01
   1.188431e+02   2.395547e+02
  -2.065400e+02   2.224924e+02
  -4.134336e+02   9.216616e+01
  -1.917219e+02  -1.237721e+02
   5.916746e+01  -1.986564e+02
   3.092520e+02  -3.703256e+02
   3.585014e+02  -1.387665e+02
   2.738617e+02   1.594001e+02
   6.460254e+01   4.403449e+02
  -8.995873e+01   3.155069e+02
  -1.582066e+02   1.382321e+02
  -4.713735e+01  -4.748000e+01
  -8.389389e+01   6.599020e+01
  -2.179038e+02   4.037949e+01
  -2.579328e+02  -6.156661e+01
  -1.306036e+02  -2.458193e+02
   1.087497e+02  -2.603840e+02
   1.529846e+02   2.948521e+01
   1.756951e+02   2.440651e+02
  -3.440307e+01   3.162868e+02
  -2.714564e+02   8.025239e+01
  -3.338647e+02  -8.990773e+01
  -1.624052e+02  -3.281845e+02
   9.409927e+01  -3.190641e+02
   2.635819e+02  -1.021746e+02
   1.371853e+02  -1.597021e+00
   1.167990e+02   4.913519e+00
   2.001997e+02  -9.444915e+01
   4.068947e+02   7.422840e+01
   3.074552e+02   3.236603e+02
  -1.038203e+01   4.182000e+02
  -3.685690e+02   3.731688e+02
  -3.925506e+02   2.003708e+02
  -2.845531e+02  -5.451239e+01
  -4.877552e+01  -2.970608e+02
   1.526689e+02  -2.298158e+02
   9.152623e+01  -5.721035e+01
  -1.186329e+02   7.999836e+01
  -1.318731e+02   2.878513e+01
  -5.733531e+01  -1.343547e+02
   1.633467e+02  -1.504959e+02
   1.979304e+02   5.738654e+01
  -1.804042e+01   1.685278e+02
  -2.117614e+02   2.535016e+01
  -1.899357e+02  -2.274501e+02
   4.989775e+01  -3.307872e+02
   2.478827e+02  -2.203198e+02
   2.906747e+02   1.040450e+02
   2.818844e+02   2.166224e+02
   9.985759e+01   3.151860e+02
  -1.407736e+02   1.011367e+02
  -1.800363e+02   4.621248e+00
  -9.948037e+01  -3.903078e+01
   5.781073e+01   4.800631e+01
   2.727304e+01   9.835012e+01
  -9.021012e+01   8.677909e+01
  -1.325616e+02  -3.321281e+01
  -3.439188e+01  -6.608938e+01
   9.013816e+01  -3.679915e+01
   6.454285e+01   2.580158e+01
  -1.329066e+02   6.545635e+01
  -3.067127e+02   3.171868e+01
  -2.617207e+02  -1.105759e+02
  -5.636805e+01  -2.827396e+02
   1.910337e+02  -2.288036e+02
   2.476324e+02  -1.943951e+02
   1.574385e+02   5.036882e+01
  -6.196193e+00   6.001834e+01
  -9.556205e+01   1.262576e+01
   3.228103e+01  -1.213734e+02
   1.998473e+02  -5.842383e+01
   1.977782e+02   8.389531e+01
   7.692888e+01   2.107165e+02
  -8.042914e+01   1.354223e+02
  -1.315967e+02   6.186184e+00
  -8.449082e+01  -5.568807e+01
   3.162355e+01  -2.316308e+01
   4.791450e+01   1.101132e+02
  -6.021489e+01   8.146384e+01
  -1.901276e+02   7.507238e+00
  -1.794536e+02  -1.371055e+02
  -3.298218e+01  -2.262453e+02
   1.401669e+02  -1.942147e+02
   1.671243e+02   4.313856e+01
   7.095537e+01   1.216451e+02
  -8.165722e+01   1.031436e+02
  -5.029345e+01   2.505877e+01
  -4.890116e+01  -5.812655e+01
  -2.997538e-01  -4.050985e+01
  -1.217590e+01   5.435661e+00
  -9.057238e+01  -1.512290e+01
  -1.319926e+02  -7.598796e+01
   2.910167e+01  -2.050335e+02
   1.426247e+02  -1.493957e+02
   2.376253e+02  -2.023609e+01
   2.390209e+02   1.767138e+02
   5.858008e+01   2.398375e+02
  -9.555038e+01   1.853813e+02
  -1.599294e+02   5.812280e+00
  -6.430460e+01  -3.664968e+01
  -2.385504e+01  -7.993763e+00
  -7.878708e+01   2.319375e+01
  -1.007364e+02   1.920782e+01
  -4.799959e+01  -5.873555e+01
   4.153360e+01  -1.168656e+02
   1.291995e+02  -3.547703e+01
   4.233755e+01   2.416988e+01
  -3.827474e+01   9.703827e+01
  -1.984281e+02   7.541811e+01
  -1.621146e+02  -7.496617e+01
  -5.325458e+01  -2.620810e+02
   1.370150e+02  -2.495221e+02
   2.440083e+02  -8.551590e+01
   1.777534e+02   7.589066e+01
   7.886932e+01   2.038696e+02
  -2.517846e+01   1.411359e+02
  -1.131102e+02   6.891797e+01
  -3.537058e+01   4.892717e+01
  -8.005438e+01   9.408865e+01
  -8.073169e+01   4.105530e+01
  -1.427748e+02  -3.098102e+01
  -1.041172e+02  -1.379556e+02
  -3.306744e+01  -1.976978e+02
   1.059798e+02  -1.600447e+02
   2.005144e+02  -4.106687e+01
   1.450317e+02   1.113269e+02
   9.640654e+00   1.398510e+02
  -5.420395e+01   6.571781e+01
  -6.772598e+01   1.391248e+01
   3.509338e+01  -4.176615e+01
   1.676516e+01   1.440438e+01
  -2.931254e+01  -5.378771e+01
  -9.803000e+01  -1.014768e+02
  -2.297595e+01  -4.368432e+01
   4.660900e+01  -3.548775e+01
   1.766808e+02   1.088170e+01
   1.282170e+02   5.947885e+01
  -5.515518e+00   1.087802e+02
  -8.990026e+01   6.159446e+01
  -9.260042e+01  -7.822219e+00
  -3.666308e+01  -7.197341e+01
   3.079137e+01  -6.334328e+01
   5.325600e+01   3.310286e+01
  -3.367482e+01   5.359531e+01
  -5.714110e+01   7.024294e+01
  -3.472952e+01   1.648438e+01
  -6.623928e+01  -2.318058e+01
  -6.906082e+01  -7.732719e+01
  -5.806450e+01  -3.157793e+01
  -5.981158e+01  -3.134316e+01
  -3.805174e+01  -6.033728e+01
   7.387850e+00  -1.500061e+02
   1.216225e+02  -1.182758e+02
   1.948490e+02  -6.029135e+01
   9.720351e+01   9.030761e+01
  -2.820097e+01   1.598446e+02
  -8.950262e+01   7.253257e+01
  -2.125462e+01  -3.557110e+01
   3.607763e+01  -4.443624e+01
   1.291490e+02   8.084532e+01
   6.161381e+01   8.330806e+01
  -9.046126e+01   1.069280e+02
  -1.629402e+02   3.189809e+01
  -1.686280e+02  -3.199188e+01
  -3.996569e+01  -9.698863e+01
   8.943942e+01  -7.219654e+01
   8.819788e+01   2.441641e+01
  -5.027027e+01   3.772500e+01
  -8.267233e+01  -1.490912e+01
  -2.886551e+01  -1.396899e+02
   1.331887e+02  -1.602863e+02
   1.453124e+02  -7.739772e+01
   1.301633e+02   8.039791e+01
  -3.350998e+00   2.109309e+02
  -8.427007e+01   1.108454e+02
  -7.927996e+01  -2.313735e+00
  -3.569458e+01  -9.327361e+01
   1.180218e+01  -1.035760e+02
   5.450211e+01  -3.198518e+01
   6.272441e+01   1.648689e+01
   2.763958e+01  -1.458352e+01
  -3.691230e+01  -1.000153e+01
   2.601315e+01   4.358607e+01
   2.165933e+01   5.546082e+01
   5.977089e+01   1.219365e+02
  -3.850566e+01   5.319005e+01
  -1.298199e+02  -5.964408e+01
  -9.014439e+01  -7.265877e+01
   1.837529e+00  -8.323697e+01
   1.034593e+02  -2.925408e+01
   4.395900e+01  -1.806678e+01
  -7.935051e+00   4.588714e+01
  -3.489684e+01   4.351184e+01
  -2.739590e+01   4.478694e+00
   1.340545e+01  -1.479046e+01
  -1.132836e+01   1.047320e+01
  -1.165436e+02   1.846477e+01
  -9.103390e+01   1.002567e+01
   1.717233e+01  -1.271912e+02
   1.243754e+02  -1.438156e+02
   1.648298e+02  -1.801474e+01
   1.521453e+02   9.050599e+01
  -1.272064e+00   1.820948e+02
  -5.439563e+01   1.169168e+02
  -1.293691e+02   6.536923e+01
  -5.861134e+01  -2.772734e+01
  -4.517976e+01  -6.392831e+01
  -2.403536e+01  -1.444362e-01
  -1.705197e+01  -4.900889e+00
  -5.203845e+01  -3.570265e+01
  -8.782910e+00  -1.088249e+02
   6.737919e+01  -9.215165e+01
   1.041502e+02   3.136394e+00
   8.816620e+01   8.383802e+01
   1.474396e+00   1.237428e+02
  -7.974408e+01   2.691451e+00
  -9.474101e+01  -5.882011e+01
  -3.693178e+01  -8.405643e+01
   5.931405e+01  -6.918536e+01
   9.065337e+01   1.263066e+01
   2.850002e+01   7.153179e+01
  -1.791960e+01   5.371190e+01
  -6.089209e+01   1.152957e+01
   6.455985e+00   7.013309e+00
   4.986332e+01  -3.632560e+01
  -8.739256e+00   2.333724e+01
  -1.043251e+02   8.180544e+01
  -1.259206e+02   1.124444e+02
  -1.059314e+02  -3.742798e+00
   8.257723e+01  -6.950683e+01
   4.618050e+01  -4.354884e+01
   3.792033e+01  -3.791883e+00
  -4.387371e+01   7.828085e+01
  -7.230115e+01   5.731413e+01
  -1.764458e+01  -3.148117e+01
  -1.686900e+01  -3.343888e+01
   5.115839e+01  -2.346812e+01
  -3.873649e+00  -2.660939e+00
  -8.012127e+00   3.737469e+01
   7.267180e+00   4.392472e+00
   3.557056e+00   6.257046e+00
  -1.517996e+01  -4.461008e+01
   5.628823e+00   1.628671e+01
   8.699117e+00   5.304394e+01
  -4.631034e+01   1.214708e+01
  -2.168095e+01  -6.742818e+01
  -2.979082e+01  -4.902335e+01
   4.021189e+01  -2.799378e+01
   6.767226e+01   1.052919e+02
   2.019160e+01   6.576733e+01
  -3.081548e+01  -1.306284e+01
  -8.889720e+01  -3.815791e+01
  -6.095700e+01  -5.884086e+01
   2.880707e+01  -6.071968e+01
   7.587860e+01   4.946473e+00
   4.447138e+01  -1.428179e+01
  -6.198672e+01  -1.499074e+01
  -3.836196e+01  -2.048932e+00
   3.050670e+01  -1.756630e+01
   1.073162e+02   1.361154e+01
