
 $NMID
 id='ANONYMOUS ', fmtdat='(2E16.6)'
 volume=1.0
 tramp=1.0
 $END
   4.224731e+03  -4.741935e+02
   2.582351e+03   2.612478e+03
  -1.634568e+02   2.796558e+03
  -1.735766e+03   1.139066e+03
  -1.184697e+03  -4.776516e+02
   5.607794e+02  -3.714211e+02
   8.695716e+02   6.218368e+02
   3.012348e+02   9.355024e+02
  -6.525675e+02   8.736922e+02
  -8.763777e+02  -1.582868e+02
  -5.030707e+02  -8.382106e+02
   1.906772e+00  -9.051079e+02
   6.467924e+02  -1.074767e+02
   2.875322e+02   6.707437e+02
  -2.107129e+02   7.654305e+02
  -5.511028e+02   1.178843e+02
  -3.886209e+02  -6.493880e+02
   2.336804e+02  -6.517462e+02
   5.397613e+02  -1.724420e+02
   3.895153e+02   3.783784e+02
  -3.199925e+01   4.498561e+02
  -1.807522e+02   2.276323e+02
  -1.939105e+02   3.313961e+01
   1.515460e+02  -9.771872e+01
   4.650686e+02   1.257143e+02
   1.665915e+02   4.767326e+02
  -3.846482e+02   3.650160e+02
  -7.392175e+02  -1.803503e+01
  -3.817808e+02  -5.517549e+02
   2.804772e+02  -4.200191e+02
   8.005880e+02  -1.184304e+01
   3.757974e+02   4.943202e+02
  -2.348906e+02   5.849328e+02
  -5.875798e+02   1.992812e+02
  -4.620849e+02  -2.563930e+02
  -1.126804e+02  -4.449124e+02
   1.355742e+02  -2.773824e+02
   1.146858e+02   1.536075e+02
  -2.042034e+02   4.341412e+02
  -3.955856e+02  -6.355159e+01
  -2.798166e+02  -5.750229e+02
   2.732349e+02  -6.741871e+02
   4.873840e+02   7.749021e+00
   4.136933e+02   5.389645e+02
  -2.255633e+02   3.090148e+02
  -3.440692e+02  -1.644683e+02
   9.565067e+01  -4.615415e+02
   5.063531e+02  -2.870166e+02
   5.456686e+02   4.705200e+02
   1.622928e+02   6.420872e+02
  -3.457487e+02   3.516260e+02
  -6.645629e+02  -1.138799e+02
  -4.046512e+02  -4.260594e+02
   1.798350e+02  -3.260313e+02
   4.104044e+02  -8.034373e+01
   2.318838e+02   1.766439e+02
  -3.503273e+01   8.104317e+01
  -1.766783e+02  -1.287414e+02
   1.541306e+02  -1.478443e+02
   3.735734e+02   2.039944e+01
   2.283805e+02   2.741305e+02
  -2.145505e+02   3.031601e+02
  -3.536243e+02   7.706443e+01
  -1.855424e+02  -8.206581e+01
   1.500671e+00  -2.812751e+02
   2.657554e+02  -3.513859e+02
   3.508202e+02  -2.135296e+02
   2.309511e+02   1.287510e+02
   2.868496e+01   4.108143e+02
  -8.271716e+01   3.632658e+02
  -1.540062e+02   1.463561e+02
   2.984007e+01  -3.884704e+01
  -7.854509e+01   9.115238e+01
  -1.846523e+02   1.726421e+02
  -2.542000e+02  -9.458466e+01
  -1.574395e+02  -3.089054e+02
   1.147705e+02  -2.616066e+02
   2.200561e+02   1.496059e+01
   1.682719e+02   2.697398e+02
  -2.043895e+01   2.987017e+02
  -2.730525e+02   1.947615e+02
  -4.365023e+02  -1.953116e+02
  -1.919203e+02  -3.878187e+02
   1.224126e+02  -3.259214e+02
   1.891746e+02  -1.672881e+02
   1.081206e+02   1.299177e+01
   1.278655e+02  -2.014556e+01
   2.852430e+02  -5.463189e+01
   4.424212e+02   1.356692e+02
   3.267805e+02   2.940443e+02
  -7.096723e+00   4.501925e+02
  -3.709368e+02   4.313526e+02
  -4.924333e+02   2.479707e+02
  -3.875459e+02  -5.330149e+01
  -5.302095e+01  -2.832162e+02
   1.212082e+02  -2.223849e+02
   5.122903e+01  -2.427966e+01
  -1.022531e+02   6.017186e+01
  -1.978747e+02  -6.211017e+01
  -4.403104e+01  -1.660268e+02
   7.252300e+01  -1.783109e+02
   1.502980e+02   5.043915e+01
  -3.921597e+01   1.911107e+02
  -1.905915e+02  -3.979524e+00
  -1.910158e+02  -2.879565e+02
   1.955394e+01  -3.998378e+02
   2.214335e+02  -1.868668e+02
   3.624737e+02   5.831612e+01
   2.951524e+02   2.954753e+02
   5.423266e+01   2.668797e+02
  -9.027340e+01   1.898566e+02
  -1.999081e+02  -1.224334e+01
  -5.200533e+01  -3.236191e+01
   1.013319e+02   6.255824e+01
   1.978982e+01   1.148302e+02
  -1.252661e+02   1.063715e+02
  -2.239859e+02  -1.376091e+01
  -2.826852e+01  -9.261076e+01
   4.417749e+01  -1.288623e+01
   1.598210e+01   1.083706e+02
  -1.279517e+02   7.780282e+01
  -2.756888e+02   4.096848e+01
  -2.865161e+02  -2.015737e+02
  -7.801121e+01  -2.461369e+02
   1.933123e+02  -2.712547e+02
   2.389463e+02  -1.119563e+02
   1.942139e+02   6.968453e+01
  -1.381861e+01   1.541062e+02
  -9.175907e+01  -2.048359e+00
   4.710620e+01  -1.099012e+02
   1.798320e+02  -7.908025e+01
   2.389522e+02   1.143130e+02
   1.152781e+02   2.471122e+02
  -1.255253e+02   1.723023e+02
  -1.614291e+02   6.395639e+01
  -6.355501e+01  -1.821415e+01
   2.668217e+01   1.462499e+01
   4.335034e+01   7.418636e+01
  -9.921949e+01   1.776391e+02
  -2.432306e+02   1.169920e+01
  -2.079668e+02  -7.485372e+01
   3.026918e+00  -2.284586e+02
   1.855649e+02  -1.675638e+02
   2.097344e+02  -2.957891e+01
   7.380017e+01   8.531680e+01
  -6.027864e+01   1.009927e+02
  -1.150361e+02   1.942467e+01
  -1.159127e+01  -1.571736e+01
   4.549137e+01  -2.485737e+01
  -1.151615e+01   1.949273e+01
  -6.320461e+01   7.829896e+00
  -8.831560e+01  -6.648624e+01
  -2.262791e+01  -2.102845e+02
   1.352383e+02  -1.202021e+02
   2.091670e+02  -3.465710e+01
   2.079797e+02   1.332056e+02
   1.994477e+01   2.192230e+02
  -1.134918e+02   1.558400e+02
  -1.395096e+02   1.000953e+02
  -7.980087e+01  -5.672713e+01
  -2.026108e+01  -3.489043e+01
  -7.558954e+01   3.549552e+01
  -5.064380e+01  -1.709728e+01
  -1.435099e+01  -3.357450e+01
   2.739122e+01  -6.779990e+01
   1.269377e+02  -5.545218e+01
   1.277332e+02   3.196126e+00
  -5.632684e+01   8.980035e+01
  -1.264926e+02   8.409990e+01
  -1.772725e+02  -5.377620e+01
  -7.118095e+01  -1.984505e+02
   5.934264e+01  -3.496006e+02
   2.761290e+02  -1.493976e+02
   2.529957e+02   8.945161e+01
   1.808590e+02   1.190364e+02
  -3.845604e+01   1.421564e+02
  -1.454973e+02   6.956143e+01
  -7.309517e+01   9.955690e+01
  -7.864983e+01   1.126408e+02
  -9.228385e+01   7.663783e+01
  -1.512715e+02  -4.282389e+01
  -1.120092e+02  -1.316533e+02
   2.964714e+00  -2.634557e+02
   9.610950e+01  -2.084779e+02
   2.079205e+02  -2.846210e+01
   1.098024e+02   1.574921e+02
   5.065593e+01   1.962948e+02
  -8.045560e+01   9.191767e+01
  -6.790663e+01  -2.219058e+01
  -2.522467e+01  -4.101588e+01
   1.412752e+01   7.003495e-01
  -1.763554e+01  -5.510686e+01
  -1.088640e+02  -1.421763e+01
  -4.911050e+01  -4.942328e+00
   5.344525e+01  -6.060370e+01
   2.050625e+02  -1.739585e+01
   1.261840e+02   6.322680e+01
  -1.832605e+01   8.589066e+01
  -1.478148e+02   1.048161e+02
  -1.650362e+02  -1.640265e+01
  -6.332434e+01  -2.584039e+01
   2.095346e+01  -6.793185e+01
   8.815556e+01  -4.714669e+00
   2.334028e+01   9.121017e+01
  -1.491352e+01   5.887562e+01
  -9.853346e+01   1.685808e+01
  -1.035961e+02  -8.474902e+01
  -2.056145e+01  -6.883265e+01
  -9.536342e+01   4.236872e+01
  -7.598997e+01  -4.700971e+01
  -4.734391e+01  -8.502975e+01
   1.159436e+01  -1.257834e+02
   9.862440e+01  -1.468152e+02
   1.871945e+02  -3.245653e+00
   1.460439e+02   6.796554e+01
  -8.861945e+00   1.161686e+02
  -1.016937e+02   9.138302e+01
  -8.986735e+01  -6.086934e+00
   7.668908e+01  -3.954551e+01
   1.610665e+02   6.733754e+01
   1.060829e+02   1.102054e+02
  -7.456322e+01   1.383368e+02
  -1.794197e+02   4.821684e+01
  -1.383573e+02  -1.840080e+01
  -4.585963e+01  -9.977081e+01
   5.143056e+01  -7.915237e+01
   4.450982e+01   3.096234e+01
  -3.436845e+01  -3.618333e+00
  -1.242682e+02  -2.791933e+01
  -2.359981e+01  -1.522818e+02
   6.440805e+01  -1.915344e+02
   1.504630e+02  -1.142730e+02
   1.026027e+02   7.631029e+01
   5.951783e+01   1.950951e+02
  -5.483502e+01   1.795719e+02
  -9.153360e+01  -5.345746e+00
  -5.441865e+01  -1.470042e+02
   2.296695e+01  -1.404041e+02
   6.874772e+01  -6.191825e+01
   4.514903e+01  -3.020523e+00
   2.328814e+01  -1.137631e+01
  -6.228224e+00   1.304965e+00
   1.024874e+01   2.109925e+01
   6.216415e+01   4.614634e+01
   6.225961e+01   9.631011e+01
  -7.025126e+01   6.725897e+01
  -1.245300e+02  -2.042483e+01
  -9.768430e+01  -1.461306e+01
  -3.118183e+01  -5.591839e+01
   9.162114e+01  -4.723426e+01
   6.772133e+01  -5.507167e+01
   1.114301e+01   3.234130e+01
  -5.057842e+01   2.635807e+01
   7.399839e+00   1.748927e+01
   1.280077e+01   1.365442e+01
  -1.228256e+01  -9.194909e+00
  -3.626612e+01  -2.466056e+01
  -1.003468e+02  -7.651347e+00
  -2.909076e+01  -9.858575e+01
   1.001149e+02  -1.022615e+02
   2.314398e+02  -5.056565e+01
   1.696620e+02   8.958402e+01
   1.848100e+00   1.974415e+02
  -3.847633e+01   1.652337e+02
  -1.428761e+02   6.709111e+01
  -5.962425e+01  -5.076154e+01
  -2.363505e+01  -4.350948e+01
  -1.846055e+01   1.013623e+01
  -4.881708e+01   3.740135e+01
   2.730648e+01  -2.775919e+01
  -4.859996e+01  -3.182958e+01
   1.713389e+01  -1.076103e+02
   9.720858e+01   1.417768e+01
   8.105696e+01   9.034952e+01
   2.260329e+01   1.674268e+02
  -9.735876e+01   1.605488e+01
  -1.074608e+02  -1.194048e+02
  -3.610049e+01  -6.438073e+01
   5.738266e+01  -3.420727e+01
   6.897463e+01  -2.153534e+01
   5.529135e+01   3.759077e+01
  -5.879847e+01   2.684316e+01
  -3.707480e+01   3.180436e+01
   3.782070e+01   3.938672e+00
   1.086037e+02   3.875570e+00
  -4.644079e-01   3.325887e+01
  -5.576131e+01   7.392324e+01
  -8.277391e+01   7.392038e+01
  -8.807677e+01  -3.413416e+01
  -3.301685e+00  -1.087065e+02
   4.483174e+01  -9.979432e+01
   3.613380e+01  -5.224912e+01
   4.336498e+01   5.112963e+01
  -4.508389e+01   2.179016e+01
  -5.507472e+01  -4.199726e+01
   1.475447e+01  -7.184374e+01
   1.203003e+01  -7.967177e+01
   5.429068e+01   2.556271e+01
   2.836757e+01   4.515595e+01
   3.679395e+01   1.350746e+01
  -4.372821e+00  -3.471828e+01
   6.990691e+00   1.939633e+01
  -3.985264e+01   3.166052e+01
   2.515184e+01   6.088589e+01
  -4.815828e+01   6.841105e+00
  -4.138466e+01  -6.310576e+01
  -4.208159e+00  -7.150058e+01
   6.652443e+01  -2.206986e+01
   5.271553e+01   5.736055e+01
   1.538593e+01   7.383841e+01
  -6.495584e+01   3.859457e+01
  -1.242237e+02   7.861273e+00
  -5.163223e+01  -1.886062e+01
  -7.722901e+00   1.171779e+01
   3.888974e+01   1.146936e+00
   1.480680e+01  -1.230221e+01
  -3.371693e+01   1.326111e+00
  -3.415018e+01   2.071647e+01
   5.705269e+01  -2.963277e+01
   1.230501e+02  -5.545011e+01
