
 $NMID
 id='ANONYMOUS ', fmtdat='(2E16.6)'
 volume=1.0
 tramp=1.0
 $END
   3.181027e+03  -2.679925e+02
   2.139591e+03   2.284008e+03
  -2.662057e+02   2.121870e+03
  -1.225607e+03   1.169925e+03
  -8.403533e+02  -1.844675e+02
   1.811085e+02  -1.962397e+02
   5.098297e+02   4.612131e+02
   1.007098e+02   6.290379e+02
  -7.133734e+02   7.541734e+02
  -8.325003e+02   1.085047e+00
  -3.246990e+02  -7.417960e+02
   3.445352e+00  -7.909348e+02
   4.296014e+02  -1.442011e+02
   2.982168e+02   5.213100e+02
  -2.409710e+02   5.878127e+02
  -5.220481e+02   5.949074e+01
  -1.061896e+02  -5.115023e+02
   1.086991e+02  -5.125803e+02
   4.128198e+02  -1.277069e+02
   3.885117e+02   2.913839e+02
  -1.082270e+02   3.576570e+02
  -1.815206e+02   2.700375e+02
  -8.512883e+01   4.500900e+01
   1.888828e+02   2.418359e+01
   3.683274e+02   1.389433e+02
   2.048135e+01   3.690161e+02
  -4.760472e+02   2.858323e+02
  -8.112734e+02  -2.053094e+02
  -3.178468e+02  -4.841227e+02
   3.814588e+02  -4.095774e+02
   6.487955e+02   8.947198e+01
   1.846730e+02   3.740803e+02
  -2.780721e+02   4.552428e+02
  -5.184076e+02   1.319797e+02
  -3.250715e+02  -2.251413e+02
  -1.235509e+02  -3.720955e+02
   1.412730e+02  -2.166707e+02
   1.284283e+02   1.591555e+02
  -2.304788e+02   2.787066e+02
  -2.358466e+02  -9.983989e+01
  -1.380484e+02  -5.941799e+02
   3.094067e+02  -4.888913e+02
   5.178951e+02   4.798759e-01
   1.019348e+02   4.032590e+02
  -1.799654e+02   3.004118e+02
  -2.723079e+02  -3.268525e+02
   8.195113e+01  -5.138878e+02
   5.074956e+02   1.438926e+01
   4.425223e+02   2.548494e+02
   4.940458e+01   5.202436e+02
  -3.619872e+02   3.207106e+02
  -5.201185e+02  -2.340112e+01
  -3.159728e+02  -4.116553e+02
   1.194269e+02  -3.366572e+02
   4.304241e+02  -5.897278e+01
   2.204101e+02   6.160750e+01
  -7.663597e+01   4.587792e+01
  -7.391288e+01  -1.380709e+02
   1.845400e+02  -1.535541e+02
   2.420149e+02  -1.323586e+01
   1.431006e+02   2.436146e+02
  -1.688210e+02   2.146201e+02
  -2.960067e+02   1.881805e+02
  -2.321095e+02  -1.212236e+02
   1.982940e+01  -3.258311e+02
   2.013966e+02  -2.769427e+02
   4.112875e+02  -1.495991e+02
   2.244448e+02   1.998208e+02
   9.463372e+01   3.817805e+02
  -1.154932e+02   2.959750e+02
  -3.348713e+01   8.326125e+01
  -2.931919e+01   6.667227e+01
  -9.260953e+01   8.007603e+01
  -2.731046e+02   6.773308e+01
  -2.975091e+02  -1.100469e+02
  -1.352993e+02  -2.764180e+02
   1.437962e+02  -1.894322e+02
   1.580723e+02   2.325941e+01
   9.412301e+01   2.362364e+02
  -3.604877e+01   2.762026e+02
  -2.977753e+02   5.179163e+01
  -3.545948e+02  -1.775612e+02
  -1.390111e+02  -3.447512e+02
   1.442146e+02  -2.460088e+02
   2.131922e+02  -1.448910e+02
   1.533169e+02  -2.226162e+01
   7.702386e+01  -1.673887e+01
   1.964511e+02  -7.494372e+01
   3.976237e+02   6.271298e+01
   3.083425e+02   3.042183e+02
   2.639230e+01   5.060749e+02
  -3.455799e+02   4.755534e+02
  -4.976274e+02   1.887623e+02
  -3.677707e+02  -9.200025e+01
  -5.570389e+01  -2.730279e+02
   5.612718e+01  -1.901411e+02
   5.300909e+00  -2.460790e+01
  -1.090950e+02   6.275795e+01
  -1.274343e+02  -1.701153e+01
  -5.052168e+01  -1.972472e+02
   1.497826e+02  -1.011258e+02
   1.624887e+02   4.537424e+01
  -9.083942e+01   1.894728e+02
  -1.715808e+02   4.340134e+01
  -1.508848e+02  -2.543688e+02
   2.247513e+01  -3.581308e+02
   2.080752e+02  -1.981148e+02
   2.993118e+02   6.599587e+01
   2.407725e+02   2.811572e+02
   7.864218e+01   2.627402e+02
  -1.522769e+02   1.692522e+02
  -1.925137e+02   1.291501e+01
  -5.390743e+01  -1.030223e+01
   4.413389e+01   6.706954e+01
   6.112174e+01   1.411960e+02
  -1.290280e+02   6.231881e+01
  -1.845179e+02  -3.916375e+01
  -1.558888e+01  -7.668149e+01
   4.545583e+01  -4.633653e+01
   4.612796e+01   2.702245e+01
  -1.405832e+02   6.092853e+01
  -2.944749e+02  -3.768341e+01
  -2.541968e+02  -1.536660e+02
  -1.105740e+02  -2.468354e+02
   1.804653e+02  -2.316728e+02
   2.739296e+02  -1.073430e+02
   1.727185e+02   3.211519e+01
  -3.326433e+01   7.233021e+01
  -6.971056e+01  -5.397276e+01
   6.328577e+01  -8.681321e+01
   2.127035e+02  -2.292013e+01
   1.899725e+02   7.505446e+01
   8.752994e+01   1.685328e+02
  -8.379306e+01   1.552969e+02
  -1.278211e+02   1.226747e+01
  -5.218121e+01  -4.615182e+01
   6.612539e+01  -1.307029e+00
   5.490977e+01   9.214202e+01
  -7.435064e+01   9.834051e+01
  -2.290326e+02   4.486979e+01
  -2.035484e+02  -1.396625e+02
  -6.909548e+00  -2.215316e+02
   1.358161e+02  -1.339429e+02
   1.706095e+02  -3.383680e+00
   8.223859e+01   1.010548e+02
  -5.607868e+01   1.057794e+02
  -7.076678e+01   1.888640e+01
  -1.330690e+01  -1.776393e+01
   2.003409e+01   4.501042e-01
   5.336902e+00   4.535350e+01
  -2.206833e+01  -6.682124e+00
  -7.045562e+01  -6.929463e+01
  -2.153838e+01  -1.733926e+02
   1.336322e+02  -1.426028e+02
   2.626077e+02  -3.249923e+01
   1.541258e+02   1.667228e+02
   3.190809e+01   2.192184e+02
  -1.162234e+02   1.775061e+02
  -1.080098e+02   4.975145e+01
  -5.544616e+01  -3.387317e+01
  -3.466481e+01  -5.748371e+00
  -2.290078e+01  -1.921857e+01
  -9.305075e+01   2.029149e+00
  -3.163773e+01  -8.689474e+01
   8.498249e+00  -1.106038e+02
   1.222476e+02  -4.167179e+01
   1.270720e+02   2.442504e+01
  -8.857589e+01   1.449354e+02
  -1.726212e+02   6.378588e+01
  -2.458075e+02  -7.980476e+01
  -9.831776e+01  -2.132877e+02
   7.474959e+01  -1.918253e+02
   3.100031e+02  -9.692958e+01
   2.613720e+02   9.620642e+01
   1.048717e+02   1.685182e+02
  -4.612885e+01   1.106633e+02
  -7.137255e+01   5.169328e+01
  -6.409396e+01   4.087552e+01
  -8.034941e+01   1.125268e+02
  -8.387713e+01   1.364222e+02
  -1.036261e+02  -6.440208e+01
  -7.219392e+01  -1.938178e+02
  -2.632909e+01  -2.178078e+02
   8.972404e+01  -9.485661e+01
   1.326041e+02   1.713871e+01
   1.601785e+02   1.596977e+02
   3.800432e+01   1.249226e+02
  -7.035791e+01   1.247753e+02
  -2.801662e+01  -5.088568e+01
   2.959172e+01  -7.054928e+01
   2.384276e+01  -3.206044e+01
  -3.717573e+01  -2.692080e+01
  -1.033233e+02  -1.400287e+01
  -5.152573e+01  -2.553378e+01
   6.662890e+01  -2.604260e+01
   1.089447e+02  -2.644045e+00
   1.411721e+02   8.104834e+01
  -2.766957e+00   1.336197e+02
  -1.315197e+02   9.364645e+01
  -1.145306e+02   3.616686e+00
  -7.319490e+01  -7.966651e+01
   6.418660e+01  -6.884887e+01
   1.267589e+02   5.564552e+01
   7.912669e+00   7.365666e+01
  -5.253228e+01   3.642543e+00
  -6.545695e+00   1.267145e+01
  -7.851293e+01  -6.669609e+01
  -3.592942e+01  -3.637546e+01
  -8.593635e+01   1.541180e+01
  -8.148495e+01   3.853020e+01
  -3.826517e+01  -6.457264e+01
   3.519325e+01  -1.513810e+02
   1.214006e+02  -1.294376e+02
   1.676479e+02  -5.962907e+01
   9.048096e+01   1.115769e+02
  -4.394725e+00   1.073990e+02
  -8.452314e+01   8.670601e+01
  -4.955923e+01  -1.704645e+01
   8.684798e+01  -3.764040e+01
   1.867254e+02   2.581201e+01
   1.155737e+02   1.121171e+02
  -4.156863e+01   1.350616e+02
  -1.452233e+02   6.917324e+01
  -1.626052e+02  -3.675157e+01
  -4.465234e+01  -1.014570e+02
   7.468316e+01  -7.539009e+01
   4.117873e+01   3.001418e+01
  -1.767230e+01   7.561269e+01
  -1.072012e+02  -3.452188e+01
  -2.254747e+01  -1.361991e+02
   2.087482e+01  -1.632046e+02
   1.678920e+02  -3.735423e+01
   9.840622e+01   1.052909e+02
   6.837826e+01   1.784816e+02
  -1.065075e+02   1.741873e+02
  -9.975233e+01  -1.215474e+01
  -6.078312e+01  -8.593062e+01
  -3.936436e+01  -1.311934e+02
   2.866864e+01  -6.619119e+01
   1.790658e+01  -7.435977e+00
   2.276811e+01   2.949071e+01
   2.079018e+01  -4.487994e+01
   1.896802e+01   2.278635e+01
   3.470944e+01   1.121647e+02
   5.947792e+01   1.361365e+02
  -6.716893e+01   4.718421e+01
  -1.252918e+02  -4.889515e+01
  -1.328810e+02  -3.496825e+01
  -3.648580e+01  -5.113046e+01
   1.007783e+02  -5.517750e+00
   5.675882e+01   1.697475e+01
   1.737869e+01  -3.347363e+00
  -4.420750e+01   3.854766e+00
  -1.001111e+01  -2.620052e+01
   6.236744e-01   1.325916e+01
  -3.261410e+00  -3.893786e+00
  -4.570924e+01   2.380783e+00
  -8.073437e+01   7.727395e+00
  -3.760391e+00  -1.041106e+02
   8.166773e+01  -1.386543e+02
   1.746079e+02  -9.638136e+01
   1.183673e+02   7.701853e+01
  -1.466305e+01   1.752425e+02
  -7.374278e+01   1.318055e+02
  -1.355245e+02   6.841049e+01
  -4.713663e+01   6.586341e+00
  -3.497775e+01  -9.160509e+01
  -2.881024e+00   2.654685e+01
  -1.763241e+01  -1.259750e+00
  -5.497538e+01   2.957204e+00
  -2.663747e+01  -7.641273e+01
   2.806827e+01  -7.934973e+01
   1.362940e+02   3.916557e+01
   8.918255e+01   1.083499e+02
  -1.996938e+01   9.917463e+01
  -6.322296e+01   1.679925e+01
  -9.477427e+01  -4.307671e+01
  -8.691834e+01  -1.287171e+02
   6.188194e+01  -8.251516e+01
   7.910165e+01   1.455948e+00
  -1.350889e+00   3.142571e+01
  -1.315502e+01   7.622532e+01
  -4.118043e+01   2.357877e+01
   3.048759e+01  -4.486447e+01
   8.942476e+01   8.364489e+00
   2.017106e+01   2.529021e+01
  -7.090535e+01   6.195710e+01
  -9.378931e+01   7.819018e+01
  -5.640281e+01  -1.939705e+01
  -6.268725e+00  -4.848771e+01
   5.199880e+01  -7.285059e+01
   3.510579e+01   2.836296e+01
  -1.964499e+01   4.291493e+01
  -2.084620e+01   6.719068e+01
  -2.186357e+01  -3.956253e+01
   6.884242e+00  -5.904998e+01
  -1.575484e+01   5.385504e+00
   1.766665e+01   9.760349e+00
   7.508051e+00   3.155995e+01
   6.254548e+00   3.258223e+01
   3.145047e+01  -4.018643e+00
  -1.085690e+01   1.833771e+01
  -4.528615e+01   4.143593e+01
   1.612035e+01   4.898483e+01
  -2.226110e+01   9.606328e+00
  -3.367518e+01  -1.243247e+01
  -2.991630e+00  -4.415100e+01
   7.209222e+01  -2.448197e+01
   6.113198e+01   4.623867e+01
   2.378773e+01   5.021686e+01
  -4.123894e+01   1.229260e+01
  -9.313192e+01   2.455793e+01
  -1.962996e+01  -4.361030e+01
   3.736296e+01  -3.566569e+01
   8.128342e+01  -3.443865e+01
   8.077646e-01  -2.680310e+01
  -2.046414e+01   2.370272e+00
  -1.902823e+01   8.139156e+00
   2.749086e+01  -8.724036e+00
   6.121693e+01  -4.000221e+01
