
 $NMID
 id='ANONYMOUS ', fmtdat='(2E16.6)'
 volume=1.0
 tramp=1.0
 $END
  -4.192182e+03  -1.244201e+02
  -2.437037e+03  -2.480770e+03
   9.659323e+02  -2.757455e+03
   2.021097e+03  -7.580798e+02
   8.167174e+02   7.998271e+02
  -5.219253e+02   7.009277e+02
  -7.296720e+02  -4.669355e+02
  -4.501630e+01  -1.096476e+03
   8.448311e+02  -7.861321e+02
   9.456312e+02   2.862507e+01
   3.402845e+02   8.628757e+02
  -2.314148e+02   9.153775e+02
  -5.695987e+02   1.781665e+01
  -5.069103e+02  -7.110209e+02
   2.758036e+02  -7.481771e+02
   5.431805e+02  -5.039446e+01
   2.031032e+02   6.652164e+02
  -3.731807e+02   6.647448e+02
  -5.709905e+02   8.700987e+01
  -3.757571e+02  -3.472859e+02
   6.600480e+01  -4.765921e+02
   2.530763e+02  -2.561753e+02
   1.863439e+02  -7.508688e+00
  -5.828908e+01   8.265876e+01
  -4.028650e+02  -1.215151e+02
  -1.203028e+02  -3.086084e+02
   3.749592e+02  -3.658599e+02
   8.418026e+02   1.981935e+02
   4.193649e+02   5.508265e+02
  -3.720466e+02   4.869513e+02
  -6.133219e+02  -7.364698e+00
  -2.215545e+02  -4.513083e+02
   2.871692e+02  -5.203751e+02
   5.741610e+02  -2.180120e+02
   3.444667e+02   2.225540e+02
   1.282641e+02   5.164970e+02
  -2.533780e+02   2.967527e+02
  -2.493532e+02  -2.424688e+02
   1.536017e+02  -3.981120e+02
   4.448897e+02  -6.237671e+01
   1.512434e+02   6.615064e+02
  -3.421374e+02   6.170329e+02
  -6.655693e+02   5.372406e+01
  -1.540168e+02  -5.467663e+02
   2.973721e+02  -4.444151e+02
   2.974892e+02   2.813693e+02
  -3.665654e+01   5.011521e+02
  -5.439810e+02   1.386078e+01
  -5.883461e+02  -3.398105e+02
  -4.634734e+01  -6.043867e+02
   4.682957e+02  -4.199211e+02
   5.875118e+02   1.160178e+02
   2.820622e+02   3.836279e+02
  -1.526950e+02   3.942377e+02
  -5.006150e+02   2.209541e+01
  -2.486396e+02  -2.005533e+02
   1.203977e+02  -7.973797e+01
   1.260175e+02   1.835382e+02
  -1.719370e+02   1.503278e+02
  -2.771689e+02  -6.201268e+01
  -1.702099e+02  -2.735640e+02
   1.947644e+02  -2.398395e+02
   3.015023e+02  -3.895163e+01
   2.061761e+02   9.846125e+01
  -5.453676e+01   2.381209e+02
  -1.555137e+02   2.402820e+02
  -3.461040e+02   1.741535e+02
  -2.763553e+02  -9.207851e+01
  -1.138867e+02  -4.417045e+02
   1.514410e+02  -4.437041e+02
   9.983132e+01  -1.243798e+02
   3.560439e+00  -5.598263e+01
   5.672355e+01  -6.815389e+01
   1.890028e+02  -1.215765e+02
   2.270838e+02   6.358021e+01
   1.446813e+02   2.972016e+02
  -1.011734e-01   2.716040e+02
  -1.988861e+02   1.122782e+01
  -1.554735e+02  -2.625685e+02
   2.791603e+01  -3.465098e+02
   2.552151e+02  -1.108611e+02
   3.024123e+02   1.645098e+02
   1.797027e+02   3.530638e+02
  -1.399493e+02   2.818625e+02
  -2.551150e+02   9.204473e+01
  -1.716050e+02  -3.688054e+01
  -1.059309e+02  -2.193754e-01
  -2.170539e+02   6.326680e+01
  -3.876536e+02  -7.616954e+01
  -3.069223e+02  -2.499515e+02
   1.434659e+01  -4.690940e+02
   4.190606e+02  -4.287978e+02
   4.787428e+02  -2.018024e+02
   2.991495e+02   1.363577e+02
   3.475754e+01   2.989036e+02
  -1.188178e+02   2.859270e+02
  -8.308534e+01  -8.654996e+00
   1.180640e+02  -9.266193e+01
   2.332267e+02  -6.226795e+01
   2.354445e+01   1.746604e+02
  -1.535523e+02   1.619532e+02
  -1.903169e+02  -7.079906e+01
   3.546223e+01  -2.051804e+02
   1.665510e+02  -7.494263e+01
   1.179493e+02   2.913227e+02
  -1.538421e+01   3.253299e+02
  -2.139157e+02   2.140031e+02
  -3.653647e+02  -8.723048e+01
  -2.875664e+02  -1.803138e+02
  -6.679299e+01  -2.811335e+02
   1.354509e+02  -1.559160e+02
   1.655777e+02   7.445708e+00
   4.008000e+01   1.952659e+01
  -3.549287e+01  -5.841593e+01
  -2.966737e+01  -9.464203e+01
   1.387707e+02  -9.693554e+01
   1.538702e+02   6.025042e+01
   1.183917e+02   8.356202e+01
  -6.219600e+01   3.182883e+01
  -5.045151e+01  -7.510848e+01
   7.494957e+01  -8.273801e+01
   3.077332e+02   1.463401e+00
   2.521218e+02   1.184153e+02
   7.219246e+01   2.326871e+02
  -2.004989e+02   2.955659e+02
  -2.967375e+02   1.428082e+02
  -1.409188e+02  -3.873333e+01
   4.198071e+01  -1.082164e+02
   6.176525e+01  -5.145432e+00
  -3.495059e+01   1.143259e+02
  -1.489513e+02   3.978402e+01
  -2.078918e+02  -1.276865e+02
  -4.839089e+01  -2.084618e+02
   1.060899e+02  -1.827112e+02
   1.643260e+02  -3.934159e+01
   9.433666e+01   2.030353e+01
  -4.057759e+01   2.443049e+01
  -2.928277e+01  -9.118338e+01
   7.191329e+01  -1.084430e+02
   1.789413e+02  -3.012865e+01
   2.053124e+02   7.087641e+01
   3.460717e+01   1.912787e+02
  -1.142356e+02   1.414449e+02
  -1.747445e+02  -1.436985e+01
  -7.797543e+01  -9.206361e+01
   6.891917e+01  -9.979175e+01
   1.145350e+02   6.281254e-02
   5.280020e+01   4.141738e+01
  -2.220075e+01  -1.850700e+00
  -3.977327e+01   1.553469e+01
   7.872336e+01  -1.977737e+01
   7.740110e+01   7.965357e+01
   1.811590e+01   1.549959e+02
  -1.260852e+02   1.638647e+02
  -2.731907e+02   2.888178e+01
  -1.796772e+02  -1.599433e+02
  -8.730604e+01  -2.480512e+02
   1.094302e+02  -1.956296e+02
   1.255919e+02  -2.177010e+01
   8.526366e+01   5.030595e+01
   2.434474e+01  -6.602032e+00
   5.695066e+01  -4.693322e+01
   2.492602e+01  -9.958688e+00
   6.940011e+01   5.620222e+01
  -1.328733e+01   6.359933e+01
  -9.524532e+01   2.198416e+01
  -8.296229e+01  -5.434663e+01
   1.356420e+01  -1.097426e+02
   1.799669e+02  -1.022941e+02
   2.364697e+02   3.389056e+01
   6.961764e+01   2.232025e+02
  -8.807951e+01   2.340008e+02
  -3.089743e+02   1.032976e+02
  -2.823923e+02  -4.235682e+01
  -1.126382e+02  -1.268415e+02
   4.464601e+00  -1.289754e+02
   1.172702e+02  -7.040622e+01
   7.058513e+01  -6.727856e+01
   7.195164e+01  -9.378921e+01
   1.339481e+02  -8.707251e+01
   9.938219e+01   2.213534e+01
   1.569296e+02   1.455492e+02
  -3.062860e+01   2.261352e+02
  -5.378238e+01   1.409254e+02
  -1.275234e+02   2.938829e+01
  -1.085047e+02  -1.393688e+02
  -2.867096e+01  -1.339164e+02
   7.380579e+01  -8.018156e+01
   5.388367e+01   3.017466e+01
  -1.811538e+01   2.507697e+01
  -9.133915e+01   5.267454e+01
  -1.853694e+01   1.642371e+01
   1.089336e+02   5.299635e+01
   2.909203e+01   5.118102e+01
  -1.086951e+02   3.222220e+01
  -1.390518e+02  -5.150033e+00
  -1.477166e+02  -3.458266e+01
   9.228882e+00  -9.098433e+01
   1.261405e+02  -8.199354e+01
   1.509409e+02  -4.580044e+01
   7.315362e+01   2.801059e+01
  -6.503634e+01   2.848658e+01
  -5.408770e+01  -2.263998e+01
  -5.232838e+00  -4.780044e+01
   5.789986e+01  -8.273531e+01
   4.718563e+01  -2.714477e+01
   2.121221e+01   3.101151e+01
   7.897781e+01   4.788707e+01
   5.116880e+01   5.659112e-01
   9.494752e+01   5.013460e+01
   3.654039e+01   4.111186e+01
  -1.756086e+01   1.522815e+02
  -7.192501e+01   1.532233e+02
  -1.053635e+02   2.255245e+01
  -8.286999e+01  -4.625426e+01
  -2.918855e+01  -1.282971e+02
   9.599817e+01  -3.816042e+01
   5.668225e+01   1.587589e+01
  -4.420454e+01   4.704101e+01
  -1.437502e+02  -1.324602e+01
  -1.052346e+02  -9.691452e+01
   1.025548e+02  -1.226833e+02
   1.396945e+02  -2.798270e+01
   1.516481e+02   1.967812e+01
   4.780395e+01   7.810218e+01
  -9.147080e+01   6.131129e+01
  -3.886184e+01  -3.927800e+01
   5.648443e+00  -8.313308e+00
   1.109520e+02   2.742557e+01
   7.319968e+01   1.514429e+02
  -7.776514e+01   1.827740e+02
  -1.975289e+02   4.815931e+01
  -1.250173e+02  -9.826816e+01
  -5.954985e+01  -1.371249e+02
   1.202263e+02  -1.707083e+02
   4.600489e+01  -9.460503e+00
   2.466250e+01   1.246453e+02
  -3.555772e+01   1.061862e+02
  -5.427695e+01   2.200662e+01
  -3.845086e+01  -5.383287e+01
  -4.108777e+01  -3.366383e+01
   1.025872e+01   2.151336e+01
  -1.023156e+01  -1.710101e+00
  -7.058388e+01  -1.127915e+02
  -2.209667e+01  -1.144064e+02
   7.080037e+01  -3.743803e+01
   1.369844e+02   4.445800e+01
   1.141477e+02   4.552709e+01
  -2.295330e+01   6.535947e+01
  -7.633161e+01   9.221969e+00
  -8.665472e+01  -2.354556e+01
   2.048420e+01   1.654403e+01
   9.199469e+01  -2.980612e+01
  -5.096493e+00  -2.267432e+01
  -1.696357e+01  -3.011686e+00
   1.406885e+01   1.341280e+01
   7.446109e+01  -4.254799e+00
   7.903970e+01   1.190850e+01
   1.126483e+01   8.127426e+01
  -1.232163e+02   7.870850e+01
  -1.147408e+02   6.789326e+01
  -1.526164e+02  -7.514071e+01
   1.577482e+01  -2.153788e+02
   7.562015e+01  -1.536054e+02
   1.126057e+02  -4.326970e+01
   9.568315e+01   1.395804e+01
   4.847207e+01   2.102715e+01
   1.893077e+00  -4.320422e+00
   4.967375e+00  -2.174654e+01
   3.178963e+01   6.216923e+01
   2.308128e+01   6.088319e+01
  -1.312568e+01   8.105671e+01
  -1.002435e+02  -4.413925e+01
  -5.404186e+01  -1.192915e+02
   3.583808e+01  -9.681729e+01
   1.043031e+02  -4.128762e+01
   5.563731e+01   1.096162e+02
  -1.914957e+01   5.353972e+01
  -4.713266e+01  -3.828949e+00
  -1.231365e+02   1.479386e+01
  -7.399885e+01  -6.392616e+01
   8.019447e+00  -6.429639e+01
   1.795768e+01  -8.427599e+01
  -2.726880e+01  -4.967985e+00
  -7.079805e+01   4.790119e+01
   1.221630e+00  -1.770166e+01
   8.067256e+01  -6.960331e+01
   1.048473e+02  -9.322830e+01
   4.448313e+01   1.825322e+01
  -8.028058e+00   5.849339e+01
  -3.084136e+01   9.394957e+01
  -2.067256e+01   1.065293e+01
  -1.813647e+01  -7.282644e+01
   3.222951e+01  -3.852979e+01
  -2.809959e+01   4.040094e+01
   2.417965e+01   6.825639e+01
  -3.194330e+01   1.622830e+01
  -1.699354e+01  -4.804181e+00
  -4.768858e+01  -1.331582e+01
  -2.468985e+01   9.905474e+00
  -3.766111e+01   1.392728e+01
   3.041001e+01   2.486728e+01
   9.065890e-01  -3.642308e+01
   3.270397e+01  -2.512467e+00
   3.718471e+00   5.776809e+00
  -7.386235e+00   7.281458e+01
   2.151369e+01   7.453196e+01
  -1.392634e+01   4.857107e+00
  -5.093559e+01  -3.901172e+01
   9.886095e-01  -6.066458e+01
   3.283380e+01  -4.615586e+01
   7.593026e+01   3.933915e+01
   2.271280e+01   4.081853e+01
   2.828060e+01   6.556572e+01
  -8.127484e+01   4.600231e+01
  -1.840859e+01   4.208483e+00
   3.381357e+01   1.309900e+01
   4.308654e+01  -2.642994e+01
  -3.666243e+01   7.201925e+01
  -4.488811e+01   4.221071e+01
