
 $NMID
 id='ANONYMOUS ', fmtdat='(2E16.6)'
 volume=1.0
 tramp=1.0
 $END
  -3.893890e+03  -5.778963e+01
  -2.392786e+03  -2.305773e+03
   7.946148e+02  -2.202826e+03
   1.876452e+03  -9.173063e+02
   9.557941e+02   5.505353e+02
  -1.647908e+02   3.819252e+02
  -8.849738e+02  -1.800189e+02
   5.629809e+01  -1.052969e+03
   8.575818e+02  -7.105869e+02
   8.520774e+02  -1.189886e+02
   3.598096e+02   8.059045e+02
  -1.125945e+02   8.675516e+02
  -6.416336e+02   2.046135e+02
  -2.751343e+02  -6.596284e+02
   2.367045e+02  -6.316918e+02
   5.705495e+02  -7.589180e+01
   2.155430e+02   6.224199e+02
  -3.800890e+02   6.693623e+02
  -5.746765e+02   1.381477e+02
  -3.990534e+02  -3.181635e+02
  -1.213467e+02  -4.253238e+02
   1.758858e+02  -3.148954e+02
   2.126727e+02   1.485526e+01
  -1.248906e+02   7.693171e+01
  -2.849379e+02  -1.617591e+02
  -1.492914e+02  -3.450935e+02
   4.534510e+02  -3.555576e+02
   7.810416e+02   1.644337e+02
   4.860945e+02   4.189936e+02
  -2.336845e+02   3.143532e+02
  -7.009137e+02  -1.062525e+02
  -2.896371e+02  -3.884955e+02
   2.861341e+02  -3.682508e+02
   5.380742e+02  -1.722000e+02
   3.712928e+02   1.616134e+02
   7.575551e+01   4.173927e+02
  -1.333178e+02   2.756111e+02
  -9.541871e+01  -2.253639e+02
   1.415865e+02  -3.549443e+02
   3.688694e+02   6.342758e+01
   1.465859e+02   5.791951e+02
  -2.217092e+02   5.499420e+02
  -5.473323e+02   1.435119e+01
  -1.839524e+02  -4.198558e+02
   2.496234e+02  -2.714865e+02
   3.123206e+02   3.222608e+02
  -1.541394e+02   5.448001e+02
  -4.779312e+02   1.035346e+02
  -6.206032e+02  -3.626680e+02
  -1.935037e+02  -5.599039e+02
   4.153190e+02  -2.429384e+02
   5.889313e+02   1.336085e+02
   3.942826e+02   3.542850e+02
  -8.140679e+01   3.199704e+02
  -4.573276e+02   7.704408e+01
  -2.482932e+02  -1.650130e+02
   7.740083e+00  -5.724529e+01
   1.064121e+02   1.413217e+02
  -1.378410e+02   1.145284e+02
  -2.981473e+02  -5.075514e+01
  -7.489357e+01  -2.928068e+02
   1.276946e+02  -3.023990e+02
   3.887539e+02  -4.515456e+01
   2.208014e+02   1.017926e+02
  -5.508992e+01   2.107926e+02
  -2.470956e+02   3.166360e+02
  -3.823443e+02   1.310890e+02
  -2.092775e+02  -1.727193e+02
  -1.012435e+02  -4.130260e+02
   6.609365e+01  -3.412343e+02
   1.715124e+02  -1.332044e+02
   7.068868e+01  -3.952725e+00
   8.318922e+01  -2.806726e+01
   2.019802e+02  -6.045206e+01
   2.339743e+02   5.219202e+01
   1.187934e+02   2.611393e+02
  -8.544135e+01   1.855432e+02
  -2.162285e+02  -1.034234e+00
  -1.507675e+02  -1.912418e+02
  -1.568865e+00  -3.290187e+02
   2.627403e+02  -7.490757e+01
   3.388608e+02   2.336144e+02
   2.062199e+02   3.644763e+02
  -5.982154e+01   3.507628e+02
  -2.378516e+02   1.759912e+02
  -1.439261e+02   1.272518e+01
  -1.250728e+02  -1.439155e+00
  -3.015131e+02   3.419153e+01
  -3.808012e+02  -1.544146e+02
  -2.670053e+02  -3.009061e+02
   2.869377e+01  -3.519915e+02
   3.965080e+02  -3.206799e+02
   4.652548e+02  -1.534007e+02
   3.161777e+02   1.188669e+02
   1.558048e+01   2.750970e+02
  -1.270918e+02   2.170790e+02
  -5.513299e+01   4.177584e+01
   1.332346e+02  -6.159674e+01
   1.505515e+02  -1.272388e+01
   5.696388e+01   1.283350e+02
  -1.436644e+02   1.262191e+02
  -1.784090e+02  -7.518526e+01
   7.678482e+00  -1.706742e+02
   2.015723e+02   7.418194e+00
   1.899907e+02   2.619562e+02
  -5.737118e+01   3.534440e+02
  -2.154676e+02   2.141040e+02
  -2.705524e+02  -9.895922e+01
  -2.809808e+02  -2.133410e+02
  -4.311137e+01  -2.113595e+02
   1.140365e+02  -1.158672e+02
   1.634900e+02  -7.488521e-01
   4.466015e+01   3.784825e+01
  -6.521532e+01  -4.289060e+01
  -6.141177e+01  -1.623844e+02
   1.032010e+02  -6.826588e+01
   1.357724e+02   5.411758e+01
   4.850889e+01   3.673479e+01
  -3.914885e+01   7.498428e+00
  -6.356336e+01  -9.105749e+01
   1.540994e+02  -7.689148e+01
   2.502877e+02   3.032890e+01
   1.900318e+02   1.450464e+02
   4.856207e+00   2.680643e+02
  -2.377690e+02   2.400026e+02
  -2.743284e+02   1.344120e+02
  -1.946250e+02  -5.897913e+01
   1.959304e+01  -5.993455e+01
   7.639362e+01  -2.924193e+01
  -6.585800e+01   1.082734e+02
  -2.307640e+02   1.927145e+01
  -2.537702e+02  -1.029802e+02
  -8.780544e+01  -1.835305e+02
   7.763494e+01  -1.400723e+02
   1.394562e+02   7.420572e+00
   6.463656e+01   4.205603e+01
   1.254627e+01  -4.788671e+01
  -2.164751e+01  -1.181207e+02
   7.739869e+01  -1.490470e+02
   1.690138e+02  -3.532485e+01
   1.318840e+02   1.398144e+02
   1.342967e+01   2.435299e+02
  -1.815096e+02   1.605073e+02
  -1.852267e+02  -1.450048e+01
  -6.456871e+01  -1.183822e+02
   6.464582e+01  -1.072774e+02
   5.436088e+01  -2.726649e+01
   4.107312e+01   2.671687e+01
  -1.050676e+01  -3.180202e+00
   1.707344e+01  -2.118361e+01
   9.571898e+01   3.732072e+01
   9.405119e+01   8.678829e+01
  -2.819130e+01   1.594566e+02
  -1.449058e+02   1.435621e+02
  -1.930212e+02  -2.195333e+01
  -2.194333e+02  -2.048777e+02
  -3.817638e+01  -2.366683e+02
   1.148328e+02  -2.004558e+02
   1.057152e+02  -2.536803e+01
   5.327218e+01   9.876800e+01
  -5.216883e+00   2.228809e+01
   9.910750e+01   8.835526e+00
   7.889796e+01  -3.290407e-01
   5.132847e+01   4.642199e+01
  -4.836807e+01   9.007946e+01
  -9.312552e+01   4.700145e+01
  -5.956853e+01  -2.599300e+01
  -8.261274e+00  -1.103816e+02
   1.135717e+02  -1.067817e+02
   2.028950e+02   9.148392e+01
   6.080995e+01   2.298545e+02
  -1.255187e+02   2.318937e+02
  -2.393030e+02   1.050155e+02
  -2.918256e+02  -1.159745e+02
  -6.725366e+01  -1.607454e+02
   2.773953e+01  -1.776787e+02
   9.823530e+01  -8.970771e+01
   1.094570e+02  -5.057223e+01
   1.069604e+02  -9.193458e+01
   1.278064e+02  -9.032115e+01
   8.568806e+01   3.527529e+01
   8.142908e+01   1.812290e+02
  -2.430179e+01   1.896597e+02
  -7.318137e+01   1.783915e+02
  -1.418659e+02  -6.521212e+00
  -1.363939e+02  -1.256590e+02
  -4.174895e+01  -1.407877e+02
   8.275734e+01  -7.334584e+01
   6.548735e+01  -1.910638e+01
   2.126460e+01   8.617326e+01
  -1.313446e+01   1.258208e+01
   5.822697e+01   3.636497e+01
   9.315587e+01   3.331497e+01
   4.299581e+01   2.999857e+01
  -6.918368e+01  -1.880439e+01
  -1.469127e+02  -2.574233e+01
  -1.756783e+02  -2.638349e+01
   1.839726e+01  -1.263107e+02
   1.024745e+02  -3.671946e+01
   1.580059e+02  -5.004210e+01
   4.725705e+01   5.063497e+01
  -8.182494e+01   2.229371e+01
  -5.967095e+01  -4.116133e+01
   1.375393e+01  -4.857284e+01
   7.514337e+01  -6.720355e+01
   3.001389e+01  -1.443037e+01
   4.461342e+01   5.851247e+01
   5.482734e+01   7.034576e+01
   3.830762e+01   1.064493e+00
   8.338162e+01   2.234978e+00
   5.497427e+01   9.117147e+01
  -5.724102e+01   1.082404e+02
  -1.011093e+02   1.035481e+02
  -2.087692e+02  -2.845199e+01
  -9.963682e+01  -8.014432e+01
   1.958736e+01  -1.858731e+02
   8.903237e+01  -2.725566e+01
   6.655798e+01  -1.277723e+01
  -7.213763e+01   3.983700e+01
  -9.454999e+01   1.114886e+01
  -3.496951e+01  -1.004338e+02
   9.720391e+01  -1.075904e+02
   2.243252e+02  -1.327990e+01
   1.507516e+02   5.898827e+01
   1.529207e+00   8.337715e+01
  -7.493550e+01   4.976447e+01
  -5.728764e+01  -1.264863e+00
   3.867307e+01   1.249898e+01
   5.221812e+01   5.601449e+01
   3.357625e+01   1.518926e+02
  -9.250811e+01   1.567806e+02
  -2.017413e+02   7.122042e+01
  -1.618449e+02  -1.048795e+02
   4.098944e+00  -2.217528e+02
   8.537122e+01  -1.252943e+02
   1.236444e+02   1.767101e+01
   1.167904e+01   8.152855e+01
  -3.529737e+01   9.535376e+01
  -7.141089e+01   1.801696e+01
  -4.766651e+01  -5.680136e+01
  -1.094023e+01  -6.160732e+00
  -1.630583e+01  -4.154405e+00
  -2.328864e+01  -4.406874e+01
  -5.432082e+01  -1.322921e+02
  -1.654365e+01  -1.040318e+02
   5.712276e+01  -6.346823e+00
   1.289192e+02   6.639062e+01
   1.074076e+02   1.125819e+02
   1.349426e+01   7.136080e+01
  -9.099867e+01   3.968198e+01
  -8.845577e+01  -1.559600e+01
  -2.358795e+01  -4.386719e+01
   6.103626e+01   2.194515e+01
  -3.446500e+01  -3.938335e+01
  -3.314607e+01  -1.546410e+01
   9.286977e+00   1.062308e+01
   4.511743e+01  -2.865410e+00
   9.624584e+01   2.716968e+01
   3.206739e+01   5.488368e+01
  -1.504255e+02   6.740481e+01
  -2.117855e+02   4.208208e+01
  -1.490947e+02  -9.190563e+01
  -3.341725e+01  -1.736939e+02
   1.045212e+02  -1.183791e+02
   1.020452e+02  -4.011499e+01
   7.023987e+01   6.461389e+00
  -5.025712e+00   4.810345e+01
   2.970716e+01   5.613411e+00
  -3.342023e+00  -7.211916e+00
   1.777194e+01   3.778002e+01
  -2.688706e+01   7.198761e+01
  -5.355620e+01   1.093030e+02
  -7.252040e+01  -5.807326e+01
  -3.473216e+01  -1.198010e+02
  -1.450932e+01  -1.404438e+02
   9.493394e+01   1.842277e+00
   1.053796e+02   5.552623e+01
  -1.061409e+01   1.112004e+02
  -9.657183e+01   5.364521e+01
  -9.633144e+01  -2.338536e+01
  -2.137385e+01  -6.432891e+01
  -7.919716e+00  -5.616002e+01
   3.575869e+01  -5.514055e+01
   1.289686e+01  -1.468293e+01
  -9.168093e+01   4.309639e+00
  -3.086781e+01  -3.516593e+01
   1.120331e+02  -4.211910e+01
   1.206014e+02  -5.891116e+01
   9.264217e+01  -1.136483e+00
   3.143753e+01   6.665725e+01
  -7.730157e+01   9.951494e+01
  -6.748318e+01   2.438948e+01
   2.919004e+01  -4.979033e+01
   5.104491e+01  -1.517567e+01
   1.025991e+01   1.819662e+01
  -2.231616e+00   4.152321e+01
  -1.496825e+01  -1.071533e+00
  -3.929583e+01  -2.138068e+01
  -1.248109e+01  -1.917773e+01
  -4.280839e+01   3.290918e+01
  -7.501017e+00   5.134950e+01
   2.089301e+01  -7.386278e+00
  -1.463256e+01  -1.750181e+01
   2.411243e+01  -3.773185e+01
   2.076043e+01   5.004163e+00
   3.708262e+01   5.060546e+01
  -2.310951e+00   3.562008e+01
  -7.075198e+01  -1.352822e+01
  -7.898470e+01  -1.502389e+01
  -3.490461e+01  -1.046412e+02
   2.951733e+01  -2.569089e+01
   9.054604e+01   5.455764e+01
   2.461801e+01   3.213965e+01
  -4.781587e+00   4.850298e+01
  -5.350339e+01  -7.618032e+00
  -1.970486e+01   1.468373e+01
   3.287813e+01  -3.104894e+00
   2.203064e+01   4.994433e+00
  -1.346848e+01   1.570713e+01
  -7.396766e+01   4.721615e+00
