
 $NMID
 id='ANONYMOUS ', fmtdat='(2E16.6)'
 volume=1.0
 tramp=1.0
 $END
   3.889267e+03   7.927208e+01
   2.870916e+03   2.525611e+03
  -7.300261e+02   2.432224e+03
  -2.134251e+03   5.002042e+02
  -9.163811e+02  -7.875974e+02
   8.113820e+02  -6.370467e+02
   7.315207e+02   5.107972e+02
   7.319205e+00   1.140417e+03
  -9.949001e+02   7.772987e+02
  -8.969523e+02   3.888547e+01
  -5.508428e+02  -8.950330e+02
   4.028092e+02  -9.641123e+02
   6.641350e+02  -1.983550e+02
   4.824314e+02   7.890422e+02
  -1.466881e+02   8.588453e+02
  -5.614504e+02   2.069627e+01
  -2.511467e+02  -7.172116e+02
   3.309174e+02  -6.363544e+02
   4.972254e+02  -1.621213e+02
   4.153119e+02   3.325954e+02
   2.046572e+01   4.914533e+02
  -2.397787e+02   2.501484e+02
  -1.953630e+02  -1.758631e+01
   1.622774e+02  -1.165191e+02
   3.917488e+02   1.289632e+02
   2.684896e+02   4.387172e+02
  -4.959883e+02   4.700529e+02
  -9.647911e+02  -1.684227e+02
  -4.669633e+02  -5.414785e+02
   3.648397e+02  -4.913071e+02
   8.301745e+02  -5.743605e+01
   3.215752e+02   4.697155e+02
  -2.235495e+02   5.074586e+02
  -5.385735e+02   2.270315e+02
  -4.052686e+02  -1.944267e+02
  -1.594106e+02  -4.614188e+02
   1.980112e+02  -2.793697e+02
   1.396624e+02   2.721415e+02
  -1.495943e+02   4.501972e+02
  -4.601683e+02   3.217962e+01
  -2.233454e+02  -6.730366e+02
   2.964292e+02  -7.045145e+02
   6.151993e+02  -2.224918e+00
   2.577835e+02   6.305604e+02
  -2.440051e+02   3.091828e+02
  -3.620309e+02  -4.072617e+02
   7.907970e+01  -5.837683e+02
   5.653303e+02  -1.147595e+02
   6.886636e+02   3.630053e+02
   2.035229e+02   5.596831e+02
  -3.867759e+02   3.438995e+02
  -6.554283e+02  -1.489286e+02
  -4.148015e+02  -3.861362e+02
   9.505990e+01  -3.795847e+02
   4.378300e+02  -3.165894e+01
   2.536791e+02   1.873691e+02
  -1.279995e+02   1.004629e+02
  -1.179485e+02  -1.438222e+02
   9.784406e+01  -1.932903e+02
   3.566764e+02   9.740182e+01
   1.763376e+02   3.455207e+02
  -1.873190e+02   2.490102e+02
  -3.102739e+02   4.454766e+01
  -1.598963e+02  -5.106698e+01
   1.173929e+02  -2.150820e+02
   2.309180e+02  -3.465478e+02
   3.688423e+02  -2.153328e+02
   3.365264e+02   1.110978e+02
   5.788371e+01   4.460721e+02
  -1.209121e+02   4.090806e+02
  -1.168022e+02   1.136243e+02
  -4.627270e+01   2.934036e+01
  -2.825878e+01   6.743734e+01
  -2.275893e+02   9.182410e+01
  -3.202970e+02  -9.115208e+01
  -1.494773e+02  -3.567532e+02
   6.974910e+00  -2.883354e+02
   2.554885e+02  -5.433396e+01
   2.200377e+02   2.124577e+02
  -3.266170e+01   3.015135e+02
  -2.811787e+02   7.304410e+01
  -3.572058e+02  -1.664233e+02
  -2.450098e+02  -3.131033e+02
   1.002914e+02  -3.263606e+02
   2.485123e+02  -1.037467e+02
   1.273266e+02   3.332273e+01
   9.352075e+01  -3.531434e+01
   2.175728e+02  -9.130691e+01
   3.959914e+02  -3.020194e+01
   3.121334e+02   3.343429e+02
  -1.323770e+01   4.934034e+02
  -3.787330e+02   4.322140e+02
  -4.624575e+02   2.648498e+02
  -4.221442e+02  -8.638987e+01
  -1.071015e+01  -3.343875e+02
   1.763873e+02  -2.394297e+02
   1.148918e+02  -4.808653e+01
  -1.219030e+02   1.025549e+02
  -1.860031e+02   2.531502e+01
  -7.203681e+01  -1.894225e+02
   1.516518e+02  -1.693831e+02
   1.470261e+02   1.162367e+02
   2.693615e+01   1.948540e+02
  -2.101547e+02   8.009405e+01
  -1.657386e+02  -2.470591e+02
   5.062299e+01  -3.419328e+02
   2.387220e+02  -2.040809e+02
   3.248254e+02   1.284878e+02
   3.032293e+02   1.946821e+02
   1.088296e+02   2.213431e+02
  -1.457019e+02   1.693699e+02
  -2.351728e+02   2.176332e+01
  -5.528876e+01  -2.406460e+01
   1.138033e+02   3.478001e+01
   2.401483e+01   9.943175e+01
  -9.215854e+01   1.207596e+02
  -1.448768e+02  -3.449231e+01
  -4.102128e+01  -6.842534e+01
   8.964740e+01  -2.898990e+01
   8.887129e+01   7.708030e+01
  -1.297027e+02   7.349500e+01
  -2.336730e+02  -4.283257e+01
  -2.774632e+02  -1.096216e+02
  -2.558945e+01  -2.297749e+02
   1.688301e+02  -2.933819e+02
   2.105302e+02  -1.535678e+02
   1.844258e+02   1.895313e+01
  -4.622950e+01   8.400805e+01
  -1.086184e+02   4.011008e+01
  -2.959353e+01  -1.020308e+02
   2.002050e+02  -5.809957e+01
   2.446557e+02   1.101663e+02
   4.675699e+01   2.197676e+02
  -5.169410e+01   1.715712e+02
  -1.661636e+02   4.071306e+01
  -5.708003e+01  -4.601640e+01
   6.553749e+01  -4.067351e+01
   2.514375e+01   8.532099e+01
  -3.457536e+01   1.462822e+02
  -2.031389e+02   6.662075e+01
  -1.841905e+02  -1.283032e+02
  -5.044322e+01  -2.157715e+02
   1.965748e+02  -1.658969e+02
   1.795507e+02  -1.983076e+01
   6.354104e+01   1.408718e+02
  -1.048713e+02   1.402478e+02
  -6.999615e+01   4.807033e+01
  -1.614927e+01   2.584435e+00
   2.428916e+01   1.566461e+01
   3.206466e+01   3.087473e+01
  -6.385065e+01  -1.401886e+01
  -8.663840e+01  -6.483066e+01
   1.976091e+01  -1.506406e+02
   1.269318e+02  -1.366123e+02
   2.645540e+02  -4.400250e+00
   2.394978e+02   1.619931e+02
   2.867958e+01   2.938475e+02
  -1.137090e+02   1.537234e+02
  -1.416159e+02   2.803408e+01
  -8.250738e+01  -5.020049e+01
  -2.831451e+01  -4.176337e+01
  -7.287798e+01  -6.525685e+00
  -8.427501e+01   2.722992e+01
  -3.493506e+01  -6.881997e+01
   3.047279e+01  -8.467757e+01
   5.173261e+01  -5.300747e+01
   6.817215e+01  -4.260187e+00
  -1.506640e+01   1.418278e+02
  -1.564354e+02   7.468922e+01
  -2.076352e+02  -2.087081e+01
  -9.163415e+01  -1.912333e+02
   9.426187e+01  -2.391046e+02
   2.596511e+02  -9.632092e+01
   3.214921e+02   6.550135e+01
   1.035507e+02   1.956007e+02
  -7.427303e+01   9.757582e+01
  -1.327356e+02   8.204627e+01
  -8.362900e+01   6.490507e+01
  -3.977914e+01   8.263445e+01
  -8.751433e+01   6.079551e+01
  -1.512662e+02  -3.831336e+01
  -1.432434e+02  -1.313916e+02
  -4.078666e+01  -2.159771e+02
   9.079730e+01  -1.372986e+02
   1.840627e+02  -7.486933e+01
   1.474391e+02   9.272894e+01
   1.440068e+01   1.473989e+02
  -8.519896e+01   7.634987e+01
  -5.188859e+01  -7.770251e+00
  -7.439249e+00  -1.056206e+01
  -1.454758e+01  -1.975700e+01
  -3.061305e+01   7.443930e+00
  -9.840182e+01  -5.064219e+01
  -3.771348e+01  -5.587331e+01
   8.905528e+01  -4.828764e+01
   1.905863e+02   2.358959e+01
   1.548112e+02   4.143257e+01
   1.987443e+01   1.440647e+02
  -1.037831e+02   8.091839e+01
  -1.619969e+02   7.492643e+01
  -1.170225e+01  -4.721906e+01
   6.109295e+01  -3.655089e+01
   9.883324e+01   3.998640e+01
   4.617714e+01   7.879616e+01
  -2.963748e+01   1.236733e+01
  -4.238533e+01  -1.465996e+01
  -3.055568e+01  -3.367452e+01
  -5.725351e+01  -7.310000e+01
  -7.367103e+01  -9.736178e+00
  -6.949085e+01   3.409800e+01
  -5.125851e+01  -5.920505e+01
   5.007477e+01  -1.171772e+02
   1.399629e+02  -1.033523e+02
   1.805568e+02  -2.434635e+01
   1.203450e+02   7.939464e+01
   8.122740e+00   1.545273e+02
  -7.564174e+01   4.988343e+01
  -5.022171e+01   6.198860e+00
   9.244813e+01  -6.802742e+01
   1.683228e+02   3.398020e+01
   4.111647e+01   8.818419e+01
  -7.214112e+01   1.386077e+02
  -1.624604e+02   6.744396e+01
  -1.381214e+02  -5.940818e+01
  -5.806130e+00  -9.459722e+01
   6.661389e+01  -8.677848e+01
   4.480070e+01  -1.450024e+01
  -6.318951e+01  -7.821433e-01
  -9.447859e+01  -4.539710e+01
  -7.845575e+01  -1.089841e+02
   4.481445e+01  -1.358400e+02
   1.954193e+02  -2.822720e+01
   1.495702e+02   5.896757e+01
  -3.190491e+01   2.054209e+02
  -9.657578e+01   1.495729e+02
  -1.036127e+02  -6.235581e+00
  -3.570816e+01  -1.297472e+02
   3.675105e+00  -1.254054e+02
   6.297960e+01  -2.442860e+00
   6.796114e+01   3.042519e+01
   5.075116e+01   2.803464e+01
   4.793680e+01  -1.106995e+01
  -4.940242e+00   3.621144e+01
   6.289010e+01   5.398586e+01
   6.013945e+01   1.321846e+02
  -2.085269e+01   4.667841e+01
  -8.206906e+01  -1.111185e+01
  -1.159258e+02  -8.257476e+01
  -4.587713e+01  -3.127094e+01
   1.190869e+02  -1.795707e+01
   9.208692e+01   1.702873e+01
  -3.627648e+01   2.938180e+01
  -8.680630e+01   1.291139e+01
  -2.875925e+00   5.385063e+00
   7.283032e+00   2.921766e+01
   1.592326e+01   8.997640e+00
  -1.280556e+02  -3.266152e+01
  -1.233019e+02  -4.106094e+01
  -4.773273e+00  -7.907424e+01
   1.175752e+02  -1.367784e+02
   2.255413e+02  -9.554429e+01
   1.591138e+02   5.833613e+01
   3.446820e+01   1.591841e+02
  -4.482146e+01   1.530672e+02
  -1.163976e+02   8.822004e+01
  -4.074147e+01  -8.517351e+00
   1.477932e+01  -3.964311e+01
   2.936603e+01  -3.502095e+01
  -9.678722e-01   9.878225e+00
  -1.763686e+01  -4.936360e+01
  -6.768448e+00  -7.100383e+01
   5.931306e-02  -6.796970e+01
   9.933827e+01   8.645868e+00
   1.264248e+02   9.912882e+01
   8.643397e+00   9.443091e+01
  -1.104508e+02   3.156223e+01
  -1.357953e+02  -7.080030e+01
  -1.835867e+01  -8.403981e+01
   8.822597e+01  -8.158404e+01
   1.018332e+02  -8.573254e+00
   1.827068e+01   2.659514e+01
  -6.986856e+01   5.702409e+01
  -5.138196e+00   1.830416e+01
   2.550394e+01   3.697744e+00
   5.030106e+01   2.360310e+00
   9.445843e+00  -8.429466e+00
  -7.938500e+01   7.283386e+01
  -1.229622e+02   7.006155e+01
  -7.991266e+01  -5.497116e+01
   3.764889e+01  -5.738219e+01
   6.878033e+01  -6.917231e+01
   5.164466e+01  -4.744192e+01
  -1.456583e+01   4.659803e+01
  -5.646854e+01   5.659613e+01
  -2.724566e+01  -1.055838e+01
  -2.599446e+01  -5.847388e+01
  -2.723901e+01   5.446697e+00
   5.241636e+01  -7.422309e+00
   3.761658e+01   4.766557e+01
   4.403146e+01  -3.556745e+00
  -2.103308e+01   2.793988e+01
   1.393772e+01   6.604433e+00
  -8.659762e+00   7.157102e+01
  -3.045278e+01   3.414262e+01
  -6.030151e+01   2.759901e+01
  -5.311448e+01  -3.475573e+01
  -1.082059e+01  -5.189248e+01
   7.793793e+01  -1.522356e+01
   1.634342e+01   6.101464e+01
   2.210404e+01   4.403670e+01
  -7.278992e+01   3.204116e+01
  -7.819739e+01  -9.619741e+00
  -2.001446e+01  -6.293666e+01
  -1.217224e+01  -3.593573e+01
   9.010641e+01  -2.005413e+01
   8.120102e+01  -3.290698e+01
  -3.243043e+01  -1.814640e+01
  -3.497350e+01  -1.481875e+01
   2.664943e+01  -1.906401e+01
   1.010194e+02  -5.079766e+01
