
 $NMID
 id='ANONYMOUS ', fmtdat='(2E16.6)'
 volume=1.0
 tramp=1.0
 $END
  -3.841716e+03   8.251245e+01
  -2.539768e+03  -2.119357e+03
   2.110636e+02  -1.898007e+03
   1.630364e+03  -1.243233e+03
   9.295344e+02  -7.992203e+01
  -4.665889e+02   2.474798e+02
  -4.570992e+02  -3.784269e+02
  -9.356126e+01  -7.083949e+02
   6.087765e+02  -5.703415e+02
   7.042756e+02  -1.355184e+02
   5.530282e+02   5.977614e+02
   2.699648e+01   6.533773e+02
  -3.430505e+02   2.732177e+01
  -3.568592e+02  -5.324489e+02
   1.167125e+02  -4.964416e+02
   4.615925e+02  -8.976443e+01
   2.798256e+02   4.653747e+02
  -1.614666e+02   5.870115e+02
  -5.025654e+02   1.893919e+02
  -3.664387e+02  -1.585769e+02
  -1.305285e+02  -3.112685e+02
   1.433348e+02  -2.179725e+02
   8.290273e+01  -4.154616e+01
  -2.629493e+02   7.284722e+00
  -4.140051e+02  -2.069740e+02
  -1.128838e+02  -4.037598e+02
   4.755815e+02  -2.403133e+02
   6.316120e+02   6.879883e+01
   2.682360e+02   4.079895e+02
  -2.924788e+02   3.083645e+02
  -6.763644e+02  -9.129672e+01
  -3.006604e+02  -4.871921e+02
   2.323094e+02  -3.839723e+02
   3.510447e+02  -1.928269e+02
   2.973864e+02   1.520645e+02
   9.436949e+01   3.271723e+02
  -1.391967e+02   1.633199e+02
   5.170356e+01  -1.492656e+02
   2.568161e+02  -3.291206e+02
   3.778328e+02   2.197889e+02
   1.038991e+02   5.207663e+02
  -3.692425e+02   5.615471e+02
  -3.981433e+02   1.664793e+01
  -1.486339e+02  -3.521230e+02
   1.908835e+02  -1.906336e+02
   2.423505e+02   1.801338e+02
  -1.514559e+02   3.592430e+02
  -5.188134e+02   1.538176e+02
  -5.542117e+02  -4.602530e+02
  -2.108864e+02  -5.884544e+02
   2.158070e+02  -3.344048e+02
   5.969060e+02   1.242187e+01
   2.461119e+02   2.026060e+02
  -8.801395e+01   2.307878e+02
  -3.160555e+02   6.155429e+01
  -2.021131e+02  -9.912293e+01
   3.564732e+01  -5.176089e+01
   6.147248e+01   8.410454e+01
  -8.886707e+01   1.489085e+02
  -2.840516e+02  -5.361846e+01
  -1.487959e+02  -1.606476e+02
   1.886094e+02  -1.937886e+02
   3.087549e+02  -1.601333e+02
   2.633811e+02   8.255408e+01
   4.244970e+01   2.442024e+02
  -2.618595e+02   3.932835e+02
  -2.914190e+02   2.338522e+02
  -2.478177e+02  -1.456333e+02
  -2.049721e+01  -3.471420e+02
   6.215587e+01  -3.450362e+02
   3.099815e+01  -1.864894e+02
  -3.542127e+00  -8.882312e+01
   7.453833e+01  -8.585647e+01
   2.519581e+02  -5.587218e+01
   2.061926e+02   1.372327e+02
   8.744056e+01   2.477126e+02
  -1.165478e+02   1.755178e+02
  -2.525176e+02  -1.468876e+01
  -1.687724e+02  -2.992803e+02
   7.953074e+01  -2.945197e+02
   2.659616e+02  -7.637115e+01
   3.425812e+02   1.447152e+02
   1.941800e+02   3.177547e+02
  -7.335165e+01   2.641756e+02
  -1.102000e+02   1.596981e+02
  -1.449297e+02   6.168370e+01
  -1.391412e+02   8.939956e+01
  -2.899623e+02   4.953920e+01
  -4.007034e+02  -5.321442e+01
  -3.186710e+02  -2.241450e+02
   1.871937e+01  -3.762139e+02
   2.885321e+02  -3.701039e+02
   5.352939e+02  -2.639360e+02
   3.094265e+02   1.134820e+02
   7.957694e+00   2.389002e+02
  -8.823258e+01   2.197223e+02
   1.793338e+01   4.582972e+01
   8.962568e+01  -6.621545e+01
   1.382830e+02   4.116567e+01
   2.558658e+01   1.603743e+02
  -1.357476e+02   1.163272e+02
  -1.728047e+02  -5.287941e+01
   2.988576e+01  -1.019859e+02
   1.186503e+02  -5.104853e+01
   1.676500e+02   2.526458e+02
  -1.199840e+01   3.135982e+02
  -1.956257e+02   2.443210e+02
  -3.492840e+02  -7.484668e+01
  -2.805730e+02  -2.815687e+02
  -1.131688e+02  -2.749242e+02
   1.471399e+02  -1.564451e+02
   1.469632e+02   4.495156e+01
   3.705535e+01   5.163549e+01
  -7.097778e+01  -5.126103e+01
  -9.325890e+00  -1.139807e+02
   1.522600e+02  -8.395780e+01
   1.033424e+02   1.450998e+01
   6.439421e+01   6.336546e+01
  -6.853725e+01   1.154063e+01
   3.334114e+00  -9.361760e+01
   1.201077e+02  -8.379071e+01
   3.318897e+02  -3.448939e+01
   2.481332e+02   1.540307e+02
   1.105140e+02   2.120128e+02
  -1.630310e+02   3.026912e+02
  -2.883646e+02   1.200123e+02
  -1.299590e+02  -4.281556e+01
   2.304559e+01  -1.057101e+02
   6.847641e+01   7.192896e+00
  -3.862000e+01   1.047894e+02
  -1.895600e+02   7.099566e+01
  -1.645361e+02  -8.686711e+01
  -5.029145e+01  -2.079973e+02
   1.108425e+02  -1.723820e+02
   1.155747e+02   9.395906e+00
   5.595607e+01   4.840821e+01
  -4.346593e+01   2.806504e+01
  -3.954187e+01  -8.552703e+01
   4.965421e+01  -1.586971e+02
   2.114307e+02  -2.875755e+01
   2.323358e+02   9.474916e+01
   3.509349e+01   2.292536e+02
  -1.738629e+02   1.889092e+02
  -1.992298e+02   3.036018e+01
  -5.540301e+01  -1.065135e+02
   3.892417e+01  -1.131072e+02
   5.788012e+01  -5.208803e+01
  -4.111380e+01   1.237885e+01
  -4.746542e+00  -2.644975e+01
   1.348933e+01  -2.506066e+01
   5.009795e+01   1.661776e+01
   8.463320e+01   9.703168e+01
   3.210765e+01   1.738637e+02
  -1.364872e+02   1.434123e+02
  -2.075854e+02   1.069232e+00
  -2.297919e+02  -1.322623e+02
  -5.489025e+01  -2.174608e+02
   8.666130e+01  -1.483966e+02
   1.284138e+02  -1.879580e+01
   5.701080e+01   4.249572e+01
   1.733857e+01  -7.771276e+00
   5.453011e+01   1.857075e+01
   5.448039e+01  -1.514545e+01
   5.396209e+01   4.445620e+01
  -5.209519e+01   1.142136e+02
  -1.512381e+02   8.456122e+01
  -9.464845e+01   1.931096e+01
  -1.764811e+01  -1.736335e+02
   1.347861e+02  -5.537902e+01
   2.246358e+02   6.273784e+01
   1.103459e+02   1.902669e+02
  -1.616987e+02   2.127641e+02
  -2.008896e+02   3.282653e+01
  -2.860988e+02  -6.140510e+01
  -1.313558e+02  -1.863339e+02
   1.717531e+01  -1.445402e+02
   8.275698e+01  -8.413372e+01
   7.161763e+01  -6.185281e+01
   7.260372e+01  -6.990071e+01
   1.101180e+02  -8.890016e+01
   9.603937e+01  -1.729581e+01
   1.286698e+02   1.180268e+02
   3.937047e+01   2.132846e+02
  -1.087012e+02   2.013836e+02
  -1.817174e+02  -7.735858e+00
  -9.471824e+01  -8.939882e+01
   6.578435e+00  -1.212438e+02
   4.756489e+01  -3.749997e+01
   2.448871e+01  -2.765696e+01
   2.173428e+01   6.553587e+01
  -3.604131e+01   5.866378e+01
   5.316949e+01   1.757030e+01
   1.165020e+02   1.704319e+01
   5.476587e+01   7.157688e+00
  -5.074416e+01   4.746380e+01
  -2.367861e+02   3.307257e+00
  -1.512423e+02  -5.015238e+01
  -4.576025e+00  -1.332642e+02
   8.559787e+01  -6.962223e+01
   1.552730e+02  -2.763548e+01
   7.638488e+01   4.901689e+01
  -8.181235e+01   7.109374e+01
  -7.713058e+01  -5.627117e+01
  -1.955902e+01  -1.190920e+02
   7.409678e+01  -8.039498e+01
   4.042729e+01  -1.361403e+01
   8.785261e+01  -8.461401e+00
   7.431620e+01   7.258216e+01
   2.585184e+01   9.943607e-01
   5.747927e+01   1.760763e+01
   4.094871e+01   6.856506e+01
  -1.220729e+01   1.229963e+02
  -1.196083e+02   1.349991e+02
  -1.683899e+02   4.202305e+01
  -1.219406e+02  -9.839598e+01
   1.069865e+01  -1.169055e+02
   5.436062e+01  -4.110698e+01
   1.111026e+02   1.388538e+01
  -5.138709e+01   2.406485e+01
  -1.342048e+02  -2.489003e+01
  -4.815549e+01  -7.110456e+01
  -8.089804e+00  -7.225288e+01
   1.864071e+02  -1.968129e+01
   1.234154e+02   5.046880e+01
   2.726142e+01   5.326318e+01
  -6.778915e+01   8.327083e+01
  -4.318261e+01  -1.218117e+01
   6.028011e+01  -1.550192e+01
   8.375234e+01   3.193524e+01
   2.704760e+01   7.772878e+01
  -5.190087e+01   1.616767e+02
  -1.787917e+02   8.080894e+01
  -1.307763e+02  -6.583006e+01
   5.014460e+00  -1.886533e+02
   1.021830e+02  -1.253042e+02
   7.647037e+01  -9.883846e+00
   5.806266e+01   1.179599e+02
   3.757600e+01   1.193144e+02
  -6.255363e+01   7.895805e+00
  -1.742184e+01  -1.373385e+01
  -3.199366e+01  -2.532719e+01
  -3.585968e+01   1.983435e+00
  -3.353056e+01   2.760185e+01
  -5.071953e+01  -1.147782e+02
  -5.999024e+01  -1.289603e+02
   9.288529e+01  -4.370203e+01
   1.105342e+02   4.758781e+01
   7.262041e+01   5.987669e+01
   9.949475e+00   3.794216e+01
  -1.104236e+02   4.926082e+01
  -3.835227e+01   1.648614e+01
  -3.222745e+01  -2.011297e+01
   5.972029e+01   2.182654e+01
   1.117886e+01   2.635194e+01
   1.921907e+01  -9.649308e+00
   2.362172e+01   3.611784e+00
   2.763544e+01   2.399896e+00
   1.197288e+02  -1.431605e+01
   3.642029e+01   7.149745e+01
  -9.617320e+01   1.379137e+02
  -2.147459e+02   6.477926e+01
  -1.834146e+02   1.158774e+00
  -6.635602e+01  -8.962388e+01
   9.392728e+01  -1.624684e+02
   1.196839e+02  -7.362543e+01
   6.524461e+01   4.921618e+01
   1.147698e+01   2.168581e+01
   2.864581e+01  -8.706569e+00
   2.759925e+00  -3.247192e+01
   1.777258e+01   8.565461e+01
   3.667382e+01   9.073485e+01
  -1.995860e+01   7.353972e+01
  -9.833640e+01   1.801186e+01
  -9.858463e+01  -1.009295e+02
  -3.324059e+01  -6.938343e+01
   7.359018e+01  -3.746989e+01
   8.991094e+01   9.632900e+01
   8.623775e+01   5.162820e+01
  -4.764107e+01   6.609379e+01
  -8.036284e+01  -2.860919e+00
  -8.768325e+01  -4.072619e+01
   4.260269e+01  -3.042898e+01
   3.150800e+01   9.549237e+00
  -3.405458e+01  -2.731257e+00
  -5.194468e+01  -2.974580e+01
  -1.783010e+01   9.027066e+00
   6.061482e+01  -7.331276e+01
   1.172935e+02  -6.982995e+01
   6.991048e+01   5.145614e+01
   1.542694e+01   6.139119e+01
   2.119788e-01   9.357710e+01
  -7.207435e+01  -7.272413e-02
  -1.582028e+00  -5.274371e+01
   8.107271e+00  -4.150528e+01
   2.279955e+01   3.057171e+01
   5.295648e+01   1.356953e+01
  -3.051484e+01   4.978640e+01
  -1.759815e+01   2.412973e+00
  -2.955576e+01  -3.146761e+01
  -1.775034e+01   3.905910e+01
   1.984615e+01   1.189405e+01
  -3.287246e+01  -6.867032e-01
  -8.590320e+00  -4.671535e+01
  -3.666209e+01  -5.710856e+01
   2.093795e+01  -3.091022e+01
   1.575984e+01   6.116590e+01
   2.497089e+01   4.983374e+01
  -4.044926e+01   2.037958e+01
  -3.362383e+01  -9.471573e+00
  -3.653528e+01  -7.756228e+01
   6.221305e+01  -6.288968e+01
   9.600216e+01  -2.154367e+01
   5.081644e+01   3.505683e+01
  -1.372801e+01   2.841687e+01
  -5.915500e+01   5.797030e+01
   1.420885e+01  -1.153231e+01
   5.365805e+01  -3.517023e+00
   8.724052e+01  -1.630336e+00
  -9.223081e+00   4.298475e+01
  -8.190584e+01   1.701341e+01
