
 $NMID
 id='ANONYMOUS ', fmtdat='(2E16.6)'
 volume=1.0
 tramp=1.0
 $END
   3.590634e+03  -2.280507e+02
   2.609399e+03   1.634191e+03
   1.432529e+02   1.999636e+03
  -1.398799e+03   1.315154e+03
  -9.713190e+02   1.147444e+02
   1.850872e+02  -1.311936e+02
   4.041305e+02   2.484456e+02
  -1.906740e+01   7.578228e+02
  -4.545270e+02   7.912285e+02
  -7.684887e+02  -1.076779e+01
  -5.975651e+02  -6.824396e+02
   4.051711e+01  -5.642045e+02
   3.260924e+02  -1.143943e+02
   3.533481e+02   4.907873e+02
  -2.068641e+02   5.022216e+02
  -4.889526e+02   1.314194e+02
  -2.827457e+02  -4.422733e+02
   7.396071e+01  -6.104520e+02
   4.672420e+02  -1.448686e+02
   3.619034e+02   2.410766e+02
   1.166830e+02   3.494437e+02
  -1.473538e+02   2.398679e+02
  -1.032870e+02   3.078820e+01
   1.559579e+02   7.754195e+01
   3.252686e+02   2.135203e+02
   5.902382e+01   3.735457e+02
  -4.621515e+02   2.616596e+02
  -7.288455e+02  -7.173978e+01
  -2.935777e+02  -4.333021e+02
   3.974881e+02  -3.336166e+02
   6.401051e+02   1.262594e+02
   2.184569e+02   4.034239e+02
  -2.459415e+02   3.801571e+02
  -4.300711e+02   1.353961e+02
  -3.464251e+02  -2.195675e+02
  -1.342836e+02  -3.547842e+02
   1.325554e+02  -1.302066e+02
   3.666714e+01   8.872967e+01
  -2.757508e+02   2.557921e+02
  -2.756847e+02  -1.495981e+02
   1.179228e+00  -5.050251e+02
   2.855512e+02  -3.974770e+02
   4.079255e+02  -4.740935e+01
   1.497190e+02   3.030477e+02
  -1.482525e+02   2.118737e+02
  -3.555269e+02  -2.765070e+02
   7.751611e+01  -4.901367e+02
   5.061937e+02  -5.050040e+01
   5.445161e+02   3.705889e+02
   1.304654e+02   4.779489e+02
  -2.785964e+02   3.584666e+02
  -5.843447e+02   4.225253e+01
  -3.083613e+02  -3.216617e+02
   9.735442e+01  -2.144362e+02
   3.348124e+02  -9.741575e+01
   1.892717e+02   4.065709e+01
  -6.469658e+01   6.624184e+01
  -7.646482e+01  -1.234663e+02
   1.346339e+02  -1.385217e+02
   2.629197e+02   6.258135e+00
   9.801220e+01   2.057460e+02
  -1.799861e+02   2.137816e+02
  -3.340183e+02   1.530428e+02
  -2.597583e+02  -4.203362e+01
  -2.040110e+01  -2.695302e+02
   2.994675e+02  -3.610907e+02
   3.613427e+02  -2.422153e+02
   2.605430e+02   2.084637e+02
   3.738172e+01   3.884863e+02
  -1.316399e+02   3.106362e+02
  -4.870143e+01   1.420579e+02
  -5.751633e+01   6.970255e+01
  -1.083368e+02   8.512828e+01
  -2.030914e+02   8.990711e+01
  -2.357262e+02  -1.178548e+02
  -1.528172e+02  -2.247956e+02
   8.283689e+01  -1.780642e+02
   2.220921e+02   1.686768e+01
   1.139998e+02   2.294656e+02
   1.141763e+01   2.755706e+02
  -2.809749e+02   5.380239e+01
  -2.955807e+02  -1.549844e+02
  -1.408954e+02  -2.797156e+02
   8.587331e+01  -2.341821e+02
   1.709769e+02  -1.476003e+02
   1.199204e+02  -9.992060e+01
   1.026379e+02  -7.930879e+01
   2.404229e+02  -8.328217e+01
   3.442755e+02   5.833729e+01
   3.662916e+02   2.610872e+02
  -2.419639e+01   4.375414e+02
  -3.889056e+02   3.594176e+02
  -5.023671e+02   1.808904e+02
  -3.056760e+02  -7.205413e+01
   1.354901e+01  -2.604939e+02
   1.064785e+02  -1.910228e+02
   4.852759e+01  -7.112523e+01
  -1.358209e+02   7.864998e+01
  -1.437108e+02  -7.774380e+01
  -3.168201e+01  -1.092437e+02
   7.956206e+01  -1.249944e+02
   1.257442e+02   7.637402e+01
   8.009550e+00   1.361846e+02
  -1.460096e+02   4.064492e+01
  -1.417554e+02  -2.109496e+02
   3.734198e+01  -3.830068e+02
   2.530157e+02  -1.401232e+02
   3.022531e+02   9.929999e+01
   2.893723e+02   2.498659e+02
   4.566538e+01   2.071929e+02
  -1.247795e+02   1.888121e+02
  -1.574445e+02  -2.250428e+01
  -6.223568e+01  -6.651477e+01
   3.954121e+01   6.061575e+01
   4.246122e+00   1.553761e+02
  -6.915953e+01   9.112533e+01
  -1.509555e+02  -7.337857e+01
  -6.011627e-01  -3.035447e+01
   1.063389e+02  -9.380823e+00
   8.682013e+00   1.075050e+02
  -1.511476e+02   6.948055e+01
  -3.446319e+02   8.047644e+00
  -2.677241e+02  -2.053521e+02
  -1.021184e+02  -2.192122e+02
   1.642431e+02  -2.678009e+02
   3.473015e+02  -3.605464e+01
   1.353162e+02   5.295646e+01
  -3.947267e+01   8.229250e+01
  -6.091710e+01  -1.949442e+01
   4.340868e+01  -1.431468e+02
   1.896403e+02  -7.897010e+01
   1.590847e+02   1.056915e+02
   3.261932e+01   1.942276e+02
  -9.191074e+01   1.159402e+02
  -9.653166e+01   2.359562e+01
  -4.702724e+01  -5.901184e+01
   6.487835e+01   1.571671e+01
  -3.798080e+00   1.129108e+02
  -5.222678e+01   1.117785e+02
  -1.997891e+02   1.465948e+01
  -2.064984e+02  -1.302958e+02
   3.940290e+01  -2.258189e+02
   1.256796e+02  -1.242629e+02
   1.812652e+02  -3.121710e+01
   6.590593e+01   5.638848e+01
  -8.651144e+01   1.244990e+02
  -1.087705e+02  -2.250073e+01
   1.635933e+01  -1.364402e-01
  -3.284665e+00  -1.862055e+01
  -2.008996e+01   1.384150e+01
  -8.524342e+01   3.129133e+01
  -1.041463e+02  -1.096072e+02
  -1.081833e+01  -1.079413e+02
   8.052314e+01  -1.415650e+02
   2.303283e+02  -2.018030e+01
   2.165558e+02   1.801390e+02
   2.858571e+01   2.436660e+02
  -7.277919e+01   1.453794e+02
  -1.002598e+02   3.463122e+01
  -8.064536e+01  -5.354161e+01
  -5.606230e+01  -3.421656e+01
  -6.979781e+01   1.578791e+01
  -5.993963e+01   1.169467e+01
  -5.633327e+01  -4.585999e+01
   4.775387e+01  -8.060709e+01
   1.205036e+02  -4.361511e+01
   1.275688e+02   1.074816e+01
  -1.414147e+01   1.263145e+02
  -1.899282e+02   8.477082e+01
  -1.915468e+02  -9.064198e+01
  -7.773811e+01  -2.067281e+02
   1.120523e+02  -1.990389e+02
   2.011843e+02  -8.559907e+01
   2.532874e+02   7.517805e+01
   7.266786e+01   1.739367e+02
  -1.012276e+02   1.053438e+02
  -8.685196e+01   1.048733e+02
  -5.717579e+01   7.323216e+01
  -6.223127e+01   1.158173e+02
  -1.075566e+02   3.703231e+01
  -1.505465e+02  -3.141542e+01
  -1.293268e+02  -1.432452e+02
  -3.588492e+01  -2.199373e+02
   8.406007e+01  -1.298702e+02
   1.294955e+02  -1.534661e+01
   1.348644e+02   1.524718e+02
  -1.182758e+01   1.408941e+02
  -7.744677e+01   6.208544e+01
  -1.202537e+01   1.293921e+01
  -1.085888e+01  -4.470115e+01
   2.389032e+01  -3.434990e+01
  -1.454424e+01   6.232599e+00
  -8.162001e+01  -5.904845e+01
  -7.782365e+01  -5.983055e+01
   6.802791e+01  -4.982282e+01
   1.835992e+02   2.319249e+01
   1.426611e+02   1.210110e+02
   9.391824e+00   7.793262e+01
  -1.423817e+02   9.057827e+01
  -1.474444e+02  -2.472923e+01
  -7.219178e+01  -3.521025e+01
   5.117038e+01  -1.829716e+01
   1.001280e+02  -7.261614e+00
   3.840650e+01   7.495037e+01
  -2.558676e+01   7.899145e+01
  -4.378462e+01  -1.467133e+00
  -2.651941e+01  -4.148915e+01
  -4.597394e+01  -9.751019e+01
  -7.108036e+01   1.554669e+01
  -7.402204e+01  -1.287531e+01
  -2.965283e+01  -6.015232e+01
   5.387898e+01  -1.996025e+02
   1.111724e+02  -1.467320e+02
   1.997194e+02  -2.501162e+01
   1.121532e+02   1.248345e+02
  -9.406775e+00   1.641359e+02
  -7.104896e+01   8.335392e+01
  -7.423884e+01  -3.265253e+01
   3.770223e+01  -3.327263e+01
   1.193417e+02   9.578550e+00
   7.334413e+01   1.222023e+02
  -7.989392e+01   9.985000e+01
  -1.819824e+02   5.621844e+01
  -1.166793e+02  -4.624909e+01
  -4.498723e+01  -4.452715e+01
   8.439920e+01  -8.121615e+01
   5.681730e+01  -2.849671e+01
  -5.380066e+01   3.712003e+01
  -9.453924e+01   3.433647e+01
  -3.899091e+01  -1.158668e+02
   7.527968e+01  -1.105566e+02
   1.390110e+02  -1.073554e+02
   1.063066e+02   1.256574e+02
   3.202164e+01   1.917369e+02
  -5.828757e+01   1.385210e+02
  -1.087441e+02  -2.136652e+01
  -5.251659e+01  -1.187097e+02
  -4.204970e+00  -1.012478e+02
   1.165236e+01  -4.327170e+01
   5.479440e+01   3.154056e+00
   7.517073e+00  -3.141443e+01
   4.384265e+00  -5.999608e+00
   5.307619e+01  -4.502832e+00
   7.159175e+01   1.025016e+02
   1.611399e+01   1.067256e+02
  -9.738387e+01   3.631318e+01
  -1.341849e+02  -2.527458e+01
  -1.273990e+02  -5.738979e+01
  -2.307882e+01  -3.471651e+01
   6.023802e+01  -2.320605e+01
   9.076889e+01  -3.284900e+01
  -2.539488e+00   2.542533e+01
  -2.912761e+01  -1.097270e+01
   6.474602e+00   2.097166e+01
  -1.734927e+01  -2.148605e+01
   6.833605e-01  -2.441047e+00
  -6.268135e+01   5.132629e-01
  -5.445059e+01  -1.962328e+01
  -5.327710e+01  -9.293628e+01
   6.037208e+01  -1.183714e+02
   1.969593e+02   3.315148e+00
   1.627256e+02   4.557697e+01
   3.614720e+01   1.521896e+02
  -8.637224e+01   1.451575e+02
  -8.627438e+01   2.629330e+01
  -6.612324e+01  -4.486475e+01
  -3.086682e+01  -5.897601e+01
   8.063347e+00  -1.943500e+01
  -2.091100e+01  -1.280017e+01
   5.142661e+00  -6.317860e+01
  -2.280017e+01  -9.854566e+01
  -9.904787e+00  -1.143896e+02
   1.164571e+02   2.646149e+01
   6.238620e+01   1.453195e+01
  -3.559216e-01   1.150506e+02
  -7.126915e+01   5.860207e+01
  -1.444952e+02  -9.122966e+01
  -4.673940e+01  -6.648473e+01
   9.891016e+01  -3.554837e+01
   1.171289e+02  -1.328343e+01
   4.480899e+01   4.801000e+01
  -1.410316e+01   5.622533e+01
  -3.736021e+01   1.883244e+01
   3.288456e+01  -2.466856e+01
   1.007189e+02   4.602810e+00
   2.701217e+01   4.584863e+01
  -7.831975e+01   7.165643e+01
  -9.959500e+01   1.021035e+02
  -4.587425e+01   7.368148e+00
   4.270974e+01  -9.735882e+01
   5.172529e+01  -8.378701e+01
   4.849562e+01  -3.748849e+01
   1.157391e+00   2.292605e+01
  -1.139059e+01   1.265386e+01
  -9.361468e+00  -7.146874e+00
  -3.138564e+00  -5.539543e+01
  -3.090734e+01  -1.682936e+01
   3.797267e+01  -3.900898e+01
   3.015865e+01   3.699320e+01
   1.317523e+01   2.745522e+01
  -9.110916e+00  -2.903429e+01
  -3.117532e+00  -2.821709e+01
  -1.354631e+01   2.373032e+01
   2.618178e+01   5.582581e+01
  -5.189075e+01  -1.051833e+01
  -2.125921e-01  -5.891176e+01
   2.422267e+01  -5.113533e+01
   4.949745e+01  -2.121141e+01
   1.243410e+02   2.331359e+00
   1.707339e-01   6.997790e+01
  -6.035010e+01   1.333149e+01
  -1.430167e+02  -1.063041e+01
  -4.958719e+01  -2.122526e+00
   2.588749e+01  -7.237580e+01
   9.278598e+01  -5.176189e+01
   1.801680e+00   5.151741e+00
  -4.396935e+01   2.925270e+01
  -1.702562e+01   2.590502e+01
   2.877595e+01  -3.526108e+01
   8.553263e+01  -2.835112e+01
