
 $NMID
 id='ANONYMOUS ', fmtdat='(2E16.6)'
 volume=1.0
 tramp=1.0
 $END
  -4.103677e+03  -5.420929e+02
  -2.144184e+03  -2.803281e+03
   1.160075e+03  -2.805606e+03
   2.134310e+03  -6.956883e+02
   8.287040e+02   7.349781e+02
  -6.645914e+02   3.803639e+02
  -8.219022e+02  -4.354849e+02
  -6.190146e+01  -1.117078e+03
   9.082448e+02  -6.790743e+02
   9.557655e+02   8.511672e+01
   4.208741e+02   7.788774e+02
  -3.421485e+02   7.822726e+02
  -5.502352e+02   1.601511e+02
  -3.518740e+02  -7.644458e+02
   1.020211e+02  -7.711041e+02
   6.560227e+02   3.395843e+01
   2.340089e+02   7.657317e+02
  -3.727448e+02   6.431366e+02
  -6.037777e+02   1.145399e+02
  -4.419458e+02  -3.948143e+02
  -1.428350e+02  -4.093685e+02
   2.197012e+02  -2.854682e+02
   1.921196e+02   1.354292e+01
  -1.099755e+02  -2.935991e+00
  -3.750549e+02  -1.449541e+02
  -2.019470e+02  -4.414665e+02
   4.760248e+02  -3.014513e+02
   8.299759e+02   2.144566e+02
   4.041899e+02   4.297219e+02
  -3.829667e+02   3.991226e+02
  -6.645120e+02  -6.135491e+01
  -3.062542e+02  -4.383873e+02
   2.891242e+02  -5.839600e+02
   6.098571e+02  -1.922365e+02
   4.054932e+02   1.828910e+02
   8.864564e+01   4.542625e+02
  -1.982656e+02   2.885367e+02
  -1.400027e+02  -2.330058e+02
   2.081524e+02  -4.729777e+02
   3.935414e+02   4.408834e+01
   1.513330e+02   6.745855e+02
  -3.162300e+02   6.271575e+02
  -6.415348e+02  -3.200839e+01
  -1.952210e+02  -5.590147e+02
   3.870755e+02  -3.445914e+02
   2.862766e+02   3.782550e+02
  -6.846691e+01   5.627876e+02
  -6.106298e+02   1.146516e+02
  -6.013373e+02  -4.276603e+02
  -1.620679e+02  -6.307553e+02
   4.681718e+02  -3.597667e+02
   6.644789e+02   7.173836e+01
   4.383176e+02   3.851302e+02
  -1.335549e+02   3.551180e+02
  -5.036121e+02  -5.817523e+01
  -1.766143e+02  -1.974284e+02
   1.015749e+02  -9.543986e+01
   1.685283e+02   1.870510e+02
  -2.266664e+02   2.069155e+02
  -3.641807e+02  -1.081811e+02
  -1.692580e+02  -2.810718e+02
   2.323237e+02  -2.131474e+02
   3.014650e+02  -1.865495e+01
   1.930332e+02   7.347364e+01
  -1.012652e+02   3.069071e+02
  -2.113292e+02   2.730471e+02
  -3.677293e+02   1.899296e+02
  -2.971325e+02  -1.101282e+02
   1.740756e+01  -4.951853e+02
   3.760396e+01  -4.250329e+02
   1.586570e+02  -9.094873e+01
   2.674189e+01  -1.687511e+01
   1.189052e+02  -5.843308e+01
   2.282286e+02  -1.084973e+02
   2.901176e+02   9.218516e+01
   1.338385e+02   3.225015e+02
  -1.524517e+01   2.983253e+02
  -2.117290e+02  -3.100300e+00
  -1.573466e+02  -2.111460e+02
   6.149539e+00  -2.723443e+02
   2.446959e+02  -5.516203e+01
   3.873598e+02   1.783076e+02
   2.282945e+02   3.387894e+02
  -8.906773e+01   2.818770e+02
  -2.543262e+02   1.482904e+02
  -1.567033e+02   1.745202e+00
  -8.843331e+01   2.550978e+01
  -2.584482e+02   3.985783e+01
  -4.110246e+02  -1.092829e+02
  -3.262175e+02  -3.588301e+02
   7.767417e+01  -5.066516e+02
   4.320429e+02  -4.498397e+02
   5.192409e+02  -2.032377e+02
   3.734451e+02   9.466653e+01
   1.755190e+01   3.035260e+02
  -9.909492e+01   2.550219e+02
  -4.242653e+01   4.040948e+01
   1.200738e+02  -9.435022e+01
   2.082170e+02  -2.043168e+01
   6.997523e+01   1.738597e+02
  -1.676952e+02   1.385771e+02
  -1.571177e+02  -7.673867e+01
   3.186763e+01  -1.975878e+02
   2.295785e+02  -7.057677e+01
   2.267243e+02   3.238926e+02
  -5.908413e+01   3.723192e+02
  -2.383588e+02   2.305651e+02
  -3.418879e+02  -6.802831e+01
  -3.042591e+02  -2.410419e+02
  -1.047647e+02  -2.418781e+02
   1.667869e+02  -1.992746e+02
   1.644007e+02   2.399709e+00
   5.651235e+01   4.225612e+01
  -8.317339e+01  -7.703360e+01
   3.060866e+00  -1.101766e+02
   1.289791e+02  -1.359737e+02
   1.666059e+02   2.851338e+01
   5.358308e+01   6.963083e+01
  -3.540335e+01   8.602446e+00
  -5.836522e+01  -8.440258e+01
   1.409903e+02  -7.116812e+01
   2.907241e+02  -6.190092e-01
   2.362570e+02   1.653945e+02
   1.580549e+01   2.686844e+02
  -1.434713e+02   2.851451e+02
  -3.313823e+02   1.319933e+02
  -1.321903e+02  -1.103146e+02
   2.224244e+00  -8.167625e+01
   1.158160e+02  -2.591419e+01
   1.254365e+01   8.974505e+01
  -2.237742e+02   6.407235e+01
  -1.879317e+02  -9.917948e+01
  -7.767763e+01  -2.762826e+02
   5.452660e+01  -1.744917e+02
   1.942078e+02  -9.011419e-01
   7.901582e+01   1.968501e+01
  -6.507951e+01  -1.977792e+01
  -2.119569e+01  -1.036061e+02
   5.893341e+01  -1.213436e+02
   1.827502e+02  -3.179060e+01
   1.773358e+02   1.453740e+02
   3.353627e+01   2.190784e+02
  -1.323773e+02   1.368707e+02
  -2.051361e+02  -9.263349e+00
  -1.034456e+02  -1.499591e+02
   9.569870e+01  -6.340393e+01
   1.166592e+02  -6.401880e+01
   4.611879e+01  -1.339904e+01
  -2.312838e+00   5.048399e+00
  -3.907240e+01   7.971002e-01
   5.755304e+01   1.922792e-01
   1.137131e+02   8.006718e+01
   9.438520e+00   1.413286e+02
  -1.098228e+02   1.351550e+02
  -2.212886e+02  -1.591610e+01
  -1.783657e+02  -1.541671e+02
  -1.956847e+01  -2.530371e+02
   1.273233e+02  -2.055123e+02
   1.589413e+02  -1.485930e+01
   7.672208e+01   7.827175e+01
   5.424055e+01   1.373756e+01
   8.827759e+01   4.498192e+01
   3.126362e+01  -1.582797e+01
   3.639403e+01   3.306557e+01
  -7.673824e+01   2.004262e+01
  -9.311560e+01   5.505330e+01
  -7.805582e+01  -3.057188e+01
   1.194169e+01  -1.145311e+02
   1.642417e+02  -1.064324e+02
   1.920924e+02   1.084892e+02
   1.129291e+02   2.058835e+02
  -1.259087e+02   2.246521e+02
  -3.186627e+02   8.925610e+01
  -3.233753e+02  -1.521882e+02
  -7.418121e+01  -1.581520e+02
   4.999694e+01  -1.377567e+02
   7.512743e+01  -1.016626e+02
   7.852135e+01  -5.239139e+01
   7.467566e+01  -9.827690e+01
   1.213272e+02  -3.527334e+01
   1.135478e+02   4.459454e+01
   1.381165e+02   1.654827e+02
   2.640499e+01   2.696648e+02
  -1.031342e+02   2.037587e+02
  -1.929739e+02   8.753467e+00
  -1.049831e+02  -1.100588e+02
  -3.741167e+01  -1.616226e+02
   9.229857e+01  -9.939337e+01
   5.565455e+01  -1.118172e+01
   1.507274e+01   3.812185e+01
  -1.737870e+01   1.956786e+01
   4.790178e+01   1.742532e+00
   7.060770e+01   3.718288e+01
   7.048113e+01   5.194761e+01
  -8.386781e+01   1.080914e+01
  -1.723202e+02  -1.562440e+01
  -1.710493e+02  -4.506947e+01
  -1.324903e+01  -8.671016e+01
   1.032778e+02  -7.969978e+01
   1.676462e+02  -1.087121e+01
   4.138488e+01   4.598983e+01
  -6.386771e+01   4.977658e+01
  -6.883914e+01   8.886263e+00
   5.519567e+01  -6.737351e+01
   7.778835e+01  -5.699202e+01
   7.753549e+01  -7.412182e+00
   7.688313e+01   2.023462e+01
   6.689572e+01   4.180045e+01
   6.626239e+00  -1.760858e+01
   4.050266e+01   2.634928e+01
   4.424147e-01   6.824472e+01
  -4.348637e+00   1.248275e+02
  -1.174349e+02   1.329677e+02
  -1.586213e+02   4.124840e+01
  -1.393523e+02  -8.681250e+01
   1.146231e+00  -1.296056e+02
   8.801163e+01  -6.133877e+01
   8.052093e+01  -2.619246e+01
  -9.513210e+01   1.933214e+01
  -1.488634e+02  -5.884824e+01
  -6.543434e+01  -1.511791e+02
   9.403045e+01  -9.793017e+01
   2.221904e+02   1.905903e+00
   1.638498e+02   6.582730e+01
  -1.413968e+01   4.137540e+01
  -7.034838e+01   9.942814e+01
  -7.370190e+01  -3.999541e+01
   5.639268e+01  -5.164314e+01
   9.370238e+01   2.359756e+01
  -9.667269e+00   1.391312e+02
  -5.647146e+01   1.440100e+02
  -2.093839e+02   4.322688e+01
  -1.257182e+02  -1.163331e+02
  -1.849259e+01  -2.229550e+02
   1.121188e+02  -1.601930e+02
   1.191981e+02   2.272572e+00
   5.297491e+01   1.450575e+02
   1.285284e-01   1.251180e+02
  -3.615739e+01   7.534078e+01
  -3.754571e-02  -7.172479e+01
  -1.050948e+01  -4.335333e+01
  -4.433219e+01   1.522068e+01
  -5.634958e+00  -2.127813e+01
  -5.464594e+01  -9.832539e+01
  -1.881058e+01  -1.059499e+02
   7.327281e+01  -2.854003e+01
   1.374541e+02   6.728007e+01
   1.298026e+02   5.436423e+01
   1.826291e+01   5.902842e+01
  -1.112496e+02   1.127670e+01
  -1.195625e+02  -1.585999e+01
   2.158152e+01   6.649079e+01
   7.060433e+01   6.903813e+00
  -8.387009e-01  -3.314565e+01
  -2.382695e+01  -1.065876e+01
   1.541065e+01  -8.368234e+00
   7.101185e+01   2.808029e+01
   1.084952e+02   3.158594e+01
   4.332856e+00   7.445468e+01
  -1.269626e+02   1.125907e+02
  -1.943167e+02   6.037816e+01
  -1.682415e+02  -8.811395e+01
  -1.679571e+00  -1.982712e+02
   9.767848e+01  -1.471169e+02
   1.176320e+02  -7.130745e+01
   6.360813e+01   1.973567e+01
   1.806821e+01   8.823434e+01
  -8.292863e+00  -1.518758e+01
   1.835696e+01   1.118611e+01
   5.494897e+01   2.032290e+01
   1.472150e+01   1.010739e+02
  -4.698263e+01   8.605336e+01
  -9.245667e+01  -2.282312e+01
  -7.735112e+01  -1.137984e+02
   4.178417e-01  -1.191363e+02
   8.425757e+01  -2.833631e+01
   6.875846e+01   1.401585e+02
   7.300859e+00   1.180751e+02
  -5.709936e+01   3.745849e+01
  -6.985737e+01  -2.792143e+01
  -5.475866e+01  -7.645151e+01
   4.008661e+01  -7.230601e+01
   2.969574e+01  -3.620750e+01
  -2.390461e+01   2.390117e+01
  -6.409685e+01   2.439444e+01
  -1.142074e+01  -2.538747e+01
   1.012737e+02  -5.229748e+01
   1.159281e+02  -5.837086e+01
   7.973390e+01   1.143764e+01
  -2.203576e+01   1.138700e+02
  -4.816123e+01   1.054695e+02
  -4.204962e+01  -4.258326e+00
  -5.300398e+00  -9.141412e+01
   1.791927e+01  -4.900220e+01
   3.464868e+01   1.621732e+01
   1.687467e+01   8.670629e+01
  -3.840032e+01   4.813605e+01
  -3.280936e+01  -7.223219e+01
  -7.414876e+01  -6.696573e+01
  -1.328033e+01   1.756530e+01
   9.882222e+00   1.709381e+01
  -1.467957e+00  -1.624572e+01
  -1.939864e+01  -4.024119e+01
   9.848622e+00  -6.240145e+01
   2.111761e+01   4.378068e+00
   1.817297e+01   5.468425e+01
  -8.640346e+00   7.403569e+01
  -5.285863e+01   1.508075e+00
  -5.705567e+01  -5.510416e+01
  -1.246366e+01  -4.932742e+01
   6.428637e+01  -4.509978e+01
   1.022455e+02   3.092908e+01
   3.369775e+01   7.382143e+01
  -3.477084e+01   4.024426e+01
  -7.401290e+01   2.297676e+01
  -4.927211e+01   3.377630e-01
   1.925587e+01  -1.025892e+01
   3.600860e+01  -4.444059e+01
  -3.514466e+01   3.771282e+01
  -9.669983e+01   3.815791e+01
