
 $NMID
 id='ANONYMOUS ', fmtdat='(2E16.6)'
 volume=1.0
 tramp=1.0
 $END
   4.088731e+03   3.429503e+02
   2.040540e+03   2.922173e+03
  -9.144794e+02   2.551678e+03
  -2.228968e+03   5.915312e+02
  -6.659755e+02  -5.144118e+02
   8.035778e+02  -2.982593e+02
   8.337326e+02   5.250460e+02
  -9.209906e+01   1.207142e+03
  -8.321126e+02   7.448164e+02
  -9.660687e+02  -3.816888e+02
  -3.690105e+02  -8.252228e+02
   3.949446e+02  -9.256287e+02
   5.791726e+02   4.018948e+01
   2.732342e+02   6.738606e+02
  -3.378276e+02   7.429893e+02
  -7.181035e+02  -1.019062e+02
  -2.859987e+02  -7.149650e+02
   3.075749e+02  -5.109105e+02
   5.808305e+02  -3.719534e+01
   3.040149e+02   4.512538e+02
  -6.369511e+01   3.904815e+02
  -2.976525e+02   2.291387e+02
  -1.984884e+02  -3.243398e+01
   1.239075e+02  -6.361583e+01
   4.557288e+02   9.402052e+01
   1.798210e+02   4.220552e+02
  -5.195622e+02   4.128040e+02
  -8.039058e+02  -1.271673e+02
  -2.828041e+02  -6.250512e+02
   3.998614e+02  -4.657035e+02
   7.696808e+02   1.178171e+02
   3.391261e+02   4.722047e+02
  -3.499199e+02   4.735199e+02
  -6.070446e+02   1.825011e+02
  -3.837401e+02  -2.637730e+02
  -9.230320e+01  -4.915322e+02
   2.042445e+02  -2.366876e+02
   1.406623e+02   2.683786e+02
  -2.176282e+02   4.336561e+02
  -4.489110e+02  -1.076244e+02
  -2.225331e+02  -8.112502e+02
   4.363339e+02  -6.847087e+02
   6.228742e+02   4.842287e+01
   2.865551e+02   4.942496e+02
  -2.840879e+02   3.312104e+02
  -4.799358e+02  -3.351747e+02
   1.144085e+02  -5.896825e+02
   5.374116e+02  -1.571835e+02
   5.071815e+02   4.563444e+02
   7.726569e+01   5.424348e+02
  -3.895841e+02   3.125810e+02
  -6.262165e+02  -1.474150e+02
  -2.826321e+02  -3.355202e+02
   2.520305e+02  -3.515191e+02
   4.675837e+02   1.002893e+01
   1.695667e+02   1.945609e+02
  -1.856465e+02   9.248892e+01
  -1.303229e+02  -1.932748e+02
   1.565938e+02  -1.742234e+02
   3.605171e+02   6.787562e+01
   1.951049e+02   2.830854e+02
  -1.734840e+02   2.272586e+02
  -3.367760e+02   8.115269e+01
  -1.901335e+02  -8.145031e+01
  -3.186974e+00  -1.829919e+02
   2.309832e+02  -3.328249e+02
   2.933500e+02  -2.574802e+02
   2.877780e+02   1.585898e+02
   5.309185e+00   3.911800e+02
  -9.363989e+01   3.096882e+02
  -1.602351e+02   9.670399e+01
   4.497353e+00  -3.492743e+01
   1.016769e+01   7.425192e+01
  -1.672796e+02   1.610471e+02
  -2.801316e+02  -5.946076e+01
  -1.348521e+02  -2.750478e+02
   9.409605e+01  -2.515294e+02
   1.984960e+02  -3.925235e+00
   1.487453e+02   3.009000e+02
   8.819349e+00   2.875158e+02
  -2.809271e+02   4.275136e+01
  -3.503661e+02  -1.412040e+02
  -1.467419e+02  -3.295967e+02
   1.568097e+02  -2.439097e+02
   2.380906e+02  -4.998237e+01
   1.304726e+02  -5.842133e+00
   7.995280e+01  -2.771893e+01
   2.062095e+02  -2.536720e+01
   3.831726e+02   8.451567e+01
   3.169208e+02   2.801612e+02
   3.873837e+00   4.065227e+02
  -3.558347e+02   3.816128e+02
  -3.986699e+02   1.526852e+02
  -3.512720e+02  -4.043551e+01
  -8.603468e+01  -3.335355e+02
   1.154513e+02  -2.551996e+02
   7.197922e+01  -1.509483e+01
  -9.092920e+01   9.888944e+01
  -2.449782e+02  -2.512871e+01
  -3.361880e+01  -1.814239e+02
   1.788613e+02  -2.210905e+02
   1.933703e+02   8.073166e+01
  -4.515505e+01   1.750131e+02
  -2.016198e+02   2.623863e+01
  -1.690596e+02  -2.498816e+02
   2.290111e+01  -3.605645e+02
   2.049805e+02  -1.815361e+02
   2.807663e+02   3.462120e+01
   2.602992e+02   1.751795e+02
   8.879554e+01   2.716846e+02
  -8.388747e+01   1.561908e+02
  -1.659117e+02   3.634612e+01
  -6.434293e+01   8.016565e-01
   5.611091e+01   1.121267e+01
   5.801606e+00   1.391651e+02
  -1.407713e+02   8.287438e+01
  -1.765557e+02  -6.369845e+01
  -4.306143e+01  -9.026247e+01
   5.626561e+01  -5.641346e+01
   3.189536e+01   9.045900e+01
  -1.651282e+02   8.211644e+01
  -2.844071e+02   4.090347e+01
  -2.344076e+02  -2.329282e+02
  -4.926896e+01  -2.641913e+02
   1.799025e+02  -3.055681e+02
   3.135637e+02  -9.338642e+01
   1.958247e+02   1.000691e+02
  -3.804023e+01   1.257885e+02
  -6.178127e+01  -4.444637e+00
   6.531634e+01  -7.448663e+01
   2.014184e+02  -4.443948e+01
   2.292247e+02   7.622565e+01
   4.963850e+01   2.245409e+02
  -1.069565e+02   1.603196e+02
  -1.320975e+02   5.067628e+01
  -1.045326e+02  -5.200473e+01
   2.295460e+01  -5.400414e+00
   8.753723e+01   7.655892e+01
  -3.127464e+01   1.018499e+02
  -1.501295e+02   8.829241e+00
  -1.725795e+02  -1.091927e+02
   7.127724e-01  -2.296550e+02
   1.658760e+02  -1.999416e+02
   2.252709e+02  -7.064868e+00
   4.951932e+01   1.316949e+02
  -1.240142e+01   8.442422e+01
  -9.488269e+01   3.797516e+01
  -3.239046e+01  -2.534035e+01
   4.048347e+01  -4.953162e+01
  -3.106890e+01   7.196743e+00
  -3.629060e+01  -2.991246e-01
  -9.887689e+01  -5.304096e+01
  -1.793163e+01  -1.494817e+02
   1.364701e+02  -1.117308e+02
   2.420078e+02   5.203340e+00
   1.776490e+02   1.316105e+02
   3.566453e+01   2.610911e+02
  -1.629057e+02   1.621528e+02
  -1.115546e+02   4.903544e+01
  -9.255719e+01  -6.742239e+01
  -1.313379e+01  -4.727024e+01
  -5.409912e+01   3.481195e+01
  -9.764477e+01  -7.248757e+00
  -3.964372e+01  -3.063876e+01
   5.317109e+01  -7.432123e+01
   1.737643e+02  -3.064528e+01
   1.002100e+02   2.444826e+01
  -1.955195e+01   1.058170e+02
  -1.464606e+02   7.631119e+01
  -2.110081e+02  -5.568587e+01
  -1.419320e+02  -1.968447e+02
   1.091953e+02  -2.870034e+02
   2.669971e+02  -8.685798e+01
   2.487503e+02   6.203325e+01
   1.031372e+02   1.635864e+02
  -6.917809e+01   1.465460e+02
  -1.063085e+02   2.790239e+01
  -2.916608e+01   3.611336e+01
  -9.159194e+01   8.747088e+01
  -1.013509e+02   5.193503e+01
  -1.221353e+02  -1.258894e+01
  -1.075939e+02  -1.301754e+02
  -6.052181e+01  -2.144585e+02
   1.376264e+02  -1.468001e+02
   1.870025e+02  -2.804366e+01
   1.437355e+02   1.485331e+02
  -1.770970e+01   1.690723e+02
  -4.841957e+01   1.142703e+02
  -2.790643e+01  -1.091937e+01
  -3.086519e+01  -6.328268e+01
   2.267815e+01  -5.438299e+01
  -1.996740e+01  -1.788124e+01
  -9.437026e+01  -2.306149e+01
  -5.870796e+01  -3.939642e+01
   3.108353e+01  -3.025584e+01
   8.542353e+01   1.145676e+01
   1.497284e+02   5.272368e+01
   3.096617e+01   1.086346e+02
  -1.083807e+02   7.517021e+01
  -1.713658e+02  -4.976632e+01
  -1.049911e+01  -4.083926e+01
   2.023911e+01  -3.852697e+01
   7.910297e+01  -2.175646e+01
   1.831854e+01   2.929236e+01
  -7.201351e+01   8.350278e+01
  -5.819200e+01   5.043150e+00
  -1.570587e+01  -4.288013e+01
  -4.399004e+01   1.301736e+01
  -4.727480e+01   3.904186e+01
  -4.379993e+01   2.763618e+01
  -6.556062e+01  -4.843577e+01
   6.101640e+01  -1.287278e+02
   1.492239e+02  -1.315737e+02
   1.541242e+02  -3.374391e+01
   1.504254e+02   5.684084e+01
   3.077751e+01   1.294994e+02
  -6.107038e+01   4.433611e+01
  -7.548461e+01   9.606597e+00
   2.324408e+01   7.635335e+00
   1.241707e+02   4.126118e+01
   4.102392e+01   1.086862e+02
  -5.559850e+01   1.667622e+02
  -1.614610e+02   1.881649e+01
  -1.823505e+02  -2.943070e+01
  -2.151296e+01  -9.372030e+01
   7.047704e+01  -4.310283e+01
   2.630490e+01  -1.382992e+01
  -5.703364e+01   5.173269e+01
  -8.993298e+01  -3.475644e+01
  -3.847164e+01  -9.898200e+01
   7.641725e+01  -1.469271e+02
   1.772947e+02  -9.161620e+01
   1.287080e+02   1.020178e+02
  -3.402953e+00   2.295816e+02
  -1.057377e+02   1.220008e+02
  -1.164458e+02  -2.432844e+01
  -2.409560e+01  -1.252723e+02
  -6.500192e+00  -1.332172e+02
   6.683849e+01  -1.586857e+01
   2.123984e+01   4.835340e-01
   4.998142e+01   2.845658e+01
  -1.053851e-01  -2.626447e+01
   3.038924e+01  -5.476824e+00
   4.258907e+01   7.023974e+01
   9.258876e+01   1.220275e+02
  -6.472101e+01   4.726346e+01
  -1.493557e+02  -4.218316e+01
  -1.232877e+02  -4.299366e+01
  -4.870116e+01  -3.198552e+01
   6.340023e+01  -3.340361e+01
   5.887187e+01  -2.821429e+01
  -6.901856e+00   4.034754e+00
  -4.699860e+01   2.386659e+01
  -4.263307e+01   2.549602e+01
   1.981852e+01   1.279482e+01
   4.543264e+00  -1.723098e+01
  -1.034655e+02  -1.458672e+01
  -7.193063e+01  -2.928097e+01
   3.729725e+00  -5.968407e+01
   1.428826e+02  -6.800672e+01
   1.469529e+02  -3.573606e+01
   1.288604e+02   9.299496e+01
   5.432012e+01   1.636929e+02
  -1.193009e+02   1.428149e+02
  -9.141951e+01   6.597333e+01
  -9.569037e+01  -5.287057e+01
  -2.365675e+00  -2.483323e+01
  -5.790692e+01   2.127583e+01
  -2.041075e+01  -2.860990e+01
  -3.769547e+01  -3.562694e+01
   9.804256e+00  -5.921700e+01
   3.496209e+00  -5.848698e+01
   8.190915e+01  -2.192329e+01
   1.154361e+02   1.310427e+02
   5.988452e+00   1.062426e+02
  -8.315157e+01  -2.011453e+01
  -1.141917e+02  -7.313945e+01
  -2.327748e+01  -9.103395e+01
   7.189414e+01  -5.241219e+01
   1.016798e+02  -1.304801e+00
   7.382609e+01   3.207612e+01
  -4.716281e+01   3.625805e+01
  -5.140977e+01   6.553922e+00
   3.043898e+01  -1.952232e+01
   8.710104e+01  -1.153270e+01
   4.772064e+01   4.679094e+01
  -6.547657e+01   2.352102e+01
  -1.028491e+02   4.896093e+01
  -6.274832e+01  -3.346287e+01
   3.273381e+01  -6.024214e+01
   5.012095e+01  -2.775095e+01
   2.172211e+01  -5.392405e+00
  -2.574395e+01   5.406962e+01
  -3.720963e+01   6.953580e+01
  -2.317249e+01  -2.048839e+01
  -1.474083e-01  -5.347104e+01
  -1.154594e+01  -3.793769e+01
   2.532920e+01  -1.171150e+01
   2.905157e+01   2.022980e+01
   2.963117e+01  -2.024578e+01
  -9.174015e+00   3.997516e+00
  -3.223841e+01  -1.884841e+01
  -2.649500e+01   6.280371e+01
  -5.207811e+01   3.857767e+01
  -9.658025e+00   7.095697e+00
  -5.143418e+01  -2.108414e+01
   5.947927e+01  -5.560900e+01
   4.338620e+01   4.582306e+01
   4.414009e+01   5.894393e+01
  -1.315893e+01   6.830186e+01
  -5.977328e+01   2.236917e+01
  -5.488223e+01  -1.745900e+01
  -4.872963e+01  -4.836057e+00
   5.233367e+01  -7.545082e+01
   5.828016e+01  -1.351101e+01
  -1.559504e+01  -2.097674e+01
  -3.635647e+01   5.459753e+00
  -3.350198e+01  -2.740432e+01
   6.618857e+01  -2.253292e+01
   9.718508e+01  -3.309411e+01
