
 $NMID
 id='ANONYMOUS ', fmtdat='(2E16.6)'
 volume=1.0
 tramp=1.0
 $END
   3.814952e+03   5.026822e+01
   2.184160e+03   1.988349e+03
  -7.567332e+01   2.107218e+03
  -1.567756e+03   7.433776e+02
  -7.839884e+02  -2.146482e+02
   5.001445e+02  -3.261139e+02
   5.873992e+02   2.401291e+02
   6.941026e+01   7.503195e+02
  -5.857041e+02   7.358826e+02
  -8.710149e+02  -1.917102e+02
  -3.482887e+02  -6.566221e+02
   9.087709e+01  -7.730914e+02
   4.114249e+02  -6.106306e+01
   2.967914e+02   6.258677e+02
  -3.229078e+02   6.272482e+02
  -4.553410e+02  -2.160236e+01
  -3.359435e+02  -6.074983e+02
   2.306345e+02  -5.979618e+02
   4.922453e+02  -1.684972e+02
   3.868372e+02   3.331174e+02
   6.206333e+01   3.340465e+02
  -1.654510e+02   2.099338e+02
  -1.125307e+02   1.999241e+00
   2.046383e+02   2.550718e+01
   3.387031e+02   2.204249e+02
   6.606734e+01   3.318679e+02
  -5.669085e+02   2.063205e+02
  -7.395220e+02  -1.780778e+02
  -1.859147e+02  -5.745831e+02
   3.780327e+02  -3.257287e+02
   5.287277e+02   1.475254e+02
   2.755744e+02   4.609629e+02
  -3.097759e+02   4.277083e+02
  -5.380290e+02   1.827297e+02
  -3.589469e+02  -1.999721e+02
   7.341811e+00  -4.457096e+02
   1.733328e+02  -1.451813e+02
   8.653660e+01   2.000722e+02
  -1.776692e+02   2.467649e+02
  -3.148844e+02  -1.109318e+02
  -1.894633e+02  -5.565472e+02
   2.994010e+02  -5.151612e+02
   5.368035e+02   1.077165e+02
   2.503288e+02   4.504694e+02
  -2.794065e+02   2.072244e+02
  -3.682877e+02  -2.895999e+02
   1.253300e+02  -5.313102e+02
   4.769172e+02  -5.320231e+01
   4.475705e+02   4.267129e+02
   1.536718e+02   4.356935e+02
  -2.892476e+02   2.581059e+02
  -6.251494e+02  -1.439207e+02
  -3.155620e+02  -3.009888e+02
   9.124220e+01  -3.293073e+02
   3.097542e+02  -1.158001e+01
   2.143823e+02   1.301199e+02
  -7.807843e+01   8.569967e+01
  -1.165290e+02  -1.601757e+02
   1.677448e+02  -1.584625e+02
   2.839220e+02   6.615905e+01
   1.377543e+02   2.191560e+02
  -1.627386e+02   2.198606e+02
  -3.559548e+02   9.938435e+01
  -2.164793e+02  -1.192391e+02
   6.430142e+01  -2.179535e+02
   3.036689e+02  -3.502998e+02
   3.561162e+02  -1.969058e+02
   2.478969e+02   2.020306e+02
   7.325172e+01   3.813360e+02
  -6.600001e+01   3.096791e+02
  -6.005042e+01   1.053257e+02
  -2.149230e+01   1.410213e+01
  -6.605084e+01   1.211969e+02
  -1.936246e+02   7.957448e+01
  -2.662500e+02  -7.666044e+01
  -1.168895e+02  -2.554575e+02
   1.119254e+02  -1.972961e+02
   1.863966e+02   7.635737e+01
   1.456566e+02   2.448653e+02
  -2.476645e+01   2.474180e+02
  -2.377515e+02   9.298438e+01
  -2.930630e+02  -1.485604e+02
  -1.408324e+02  -2.738253e+02
   1.085502e+02  -2.293991e+02
   1.914049e+02  -1.230468e+02
   1.228989e+02  -5.265519e+01
   1.380440e+02   5.058170e+00
   2.865935e+02  -8.828793e+01
   4.042326e+02   7.292522e+01
   3.666026e+02   3.431943e+02
  -6.209663e+01   4.550852e+02
  -3.713233e+02   3.759506e+02
  -4.494756e+02   6.844262e+01
  -2.958426e+02  -7.527286e+01
  -8.975710e+00  -2.616373e+02
   1.484046e+02  -1.998265e+02
   5.953024e+01   7.975052e+00
  -1.010937e+02   7.322544e+01
  -1.398788e+02  -5.927675e+01
  -1.785574e+01  -1.426481e+02
   1.629434e+02  -1.406849e+02
   1.200319e+02   7.013195e+01
  -1.682957e+01   1.495839e+02
  -1.958370e+02  -1.895491e+01
  -1.532796e+02  -2.072322e+02
   7.838493e+01  -3.478148e+02
   2.366084e+02  -1.413182e+02
   2.683251e+02   6.929817e+01
   2.635644e+02   2.181494e+02
   1.057825e+02   2.668858e+02
  -1.314742e+02   1.277659e+02
  -1.952668e+02  -2.521910e+01
  -7.150049e+01  -1.915627e+01
   4.088368e+01   2.244058e+01
   2.449144e+01   1.046947e+02
  -1.462604e+02   8.822348e+01
  -1.426028e+02  -5.163880e+01
  -5.693915e+01  -9.377110e+01
   8.682306e+01  -1.815103e+01
   4.018088e+01   1.082277e+02
  -1.308703e+02   4.225490e+01
  -2.999635e+02  -4.736668e+01
  -2.180644e+02  -2.020619e+02
  -1.079195e+01  -3.121617e+02
   1.744794e+02  -2.238318e+02
   3.271963e+02  -4.108048e+01
   1.823881e+02   3.598557e+01
  -3.096831e+01   1.075769e+02
  -7.900250e+01  -2.482942e+01
   5.983973e+01  -1.046793e+02
   1.807123e+02   1.372526e+01
   1.576581e+02   8.295925e+01
   1.925529e+01   2.071540e+02
  -6.735415e+01   1.547029e+02
  -1.192388e+02   2.156986e+01
  -7.837159e+01  -4.150777e+01
   9.172556e+01   8.428349e+00
   4.266774e+01   1.120095e+02
  -9.962090e+01   1.410931e+02
  -1.963668e+02   2.957579e+01
  -1.621269e+02  -1.562738e+02
  -2.303601e+01  -2.285422e+02
   1.416279e+02  -1.378439e+02
   2.144207e+02  -1.521288e+01
   3.886619e+01   8.834270e+01
  -8.499749e+01   8.115913e+01
  -1.105752e+02   1.535772e+01
  -4.146862e+01  -5.511843e+01
   4.761060e+01   2.309799e+01
   3.626371e+01   4.267643e+00
  -8.501264e+01   3.529118e+01
  -1.302245e+02  -3.776404e+01
   3.213215e+00  -1.610447e+02
   1.437889e+02  -1.588051e+02
   2.028315e+02  -2.186561e+01
   1.182408e+02   1.866490e+02
   5.212472e+01   2.439335e+02
  -1.499318e+02   2.029756e+02
  -1.187796e+02  -2.997652e+01
  -1.048730e+02  -2.497687e+01
   2.606323e+01  -4.923915e+01
  -4.126893e+01   2.158663e+01
  -9.871015e+01   1.487824e+01
  -5.541353e+01  -2.760818e+01
   4.955519e+01  -1.004227e+02
   7.574207e+01  -3.307938e+01
   8.170633e+01   5.172094e+01
  -5.225631e+01   7.559609e+01
  -1.571698e+02   6.843178e+01
  -1.900169e+02  -7.666472e+01
  -7.660015e+01  -1.697529e+02
   1.295834e+02  -1.918216e+02
   2.633797e+02  -7.311250e+01
   2.001772e+02   1.234491e+02
   7.841605e+01   2.105767e+02
  -1.105703e+02   9.908203e+01
  -1.160135e+02   5.652119e+01
  -6.898049e+01   4.119118e+01
  -6.743060e+01   7.591117e+01
  -1.046495e+02   3.507910e+01
  -1.407346e+02  -2.942000e+01
  -1.057839e+02  -1.517660e+02
  -3.153647e+01  -2.522064e+02
   1.042886e+02  -1.481426e+02
   1.575316e+02   1.016305e+01
   1.550550e+02   1.610562e+02
  -5.728247e+00   1.084659e+02
  -4.977307e+01   8.069619e+01
  -5.740290e+01  -1.876389e+01
  -5.758491e+01  -1.198294e+02
   6.669073e+00  -3.245553e+01
  -5.183217e+01  -1.934371e+00
  -9.408538e+01  -2.919195e+01
  -3.349131e+01  -5.174757e+01
   7.078419e+01  -7.999174e+00
   1.480464e+02   2.964972e+01
   1.168098e+02   4.472824e+01
   1.256389e+01   1.049807e+02
  -1.404610e+02   7.904068e+01
  -1.481750e+02  -1.477976e+01
  -7.472414e+01  -2.101653e+01
   2.446701e+01  -3.249808e+01
   4.937391e+01   5.126703e+00
   3.938576e+01   6.967317e+01
   1.932102e+01   4.524276e+01
  -1.284019e+01   1.266242e+01
   1.382063e+01   7.537613e+00
  -1.263169e+01  -2.303273e+01
  -7.239802e+01  -9.679049e+00
  -5.017448e+01   3.877453e+01
  -1.408647e+01  -7.989778e+01
   9.710562e+01  -1.350879e+02
   9.625602e+01  -1.429362e+02
   2.305183e+02  -1.956602e+01
   8.293928e+01   1.060647e+02
   6.375160e+00   9.684366e+01
  -6.277284e+01   6.772734e+01
  -8.108712e+01  -7.810739e+00
   4.989901e+01  -1.789918e+01
   1.016047e+02   2.812755e+01
   5.605298e+01   1.021444e+02
  -7.723081e+01   1.133679e+02
  -2.056391e+02   1.185626e+01
  -1.611119e+02  -6.715720e+01
  -4.432963e+01  -6.071601e+01
   7.241549e+01  -4.861907e+01
   6.517893e+01  -1.846173e+01
  -3.142232e+01   2.368257e+01
  -4.065977e+01  -3.004108e+00
  -3.627267e+01  -8.479846e+01
   5.536345e+01  -1.695772e+02
   1.173079e+02  -5.093185e+01
   1.133972e+02   7.645992e+01
   1.458750e+01   1.469491e+02
  -1.033426e+02   1.008014e+02
  -1.070844e+02  -2.076927e+01
  -7.524430e+01  -9.844115e+01
  -3.180102e+00  -1.663556e+02
   3.066031e+01  -1.710325e+01
   5.447077e+01  -2.555987e+01
   1.432556e+01   3.007352e+01
  -1.935316e+01  -3.654736e+01
   1.916302e+01   1.177509e+01
   6.863602e+01   6.489037e+01
  -5.019473e+00   1.100326e+02
  -6.885260e+01   6.857160e+01
  -1.525744e+02  -3.811037e+01
  -1.360242e+02  -7.242242e+01
  -1.355829e+01  -3.717198e+01
   1.025258e+02  -4.008984e+00
   8.178778e+01  -2.492131e+01
   1.413443e+01   2.029361e+01
  -5.402465e+01  -3.453206e+01
  -5.313040e+01   1.694775e+01
   8.438660e+00   4.627594e+01
  -1.165231e+01   3.514701e+01
  -7.552370e+01  -1.442710e+01
  -1.096797e+02  -1.322007e+01
  -5.237687e-01  -6.346131e+01
   8.627048e+01  -1.213158e+02
   1.636658e+02  -4.017047e+01
   1.329934e+02   1.027973e+02
   3.205143e+01   1.494982e+02
  -8.815372e+01   7.996017e+01
  -1.033305e+02   1.301668e+01
  -8.197767e+01  -5.765721e+01
  -4.249753e+01  -4.027462e+01
  -1.733438e+01  -1.307697e+01
  -1.671592e+01   2.108377e+01
  -1.234441e+01  -5.586890e+01
   1.883825e+01  -9.861461e+01
   5.274880e+01  -8.699043e+01
   8.677098e+01   2.617531e+01
   9.365826e+01   1.027840e+02
   1.074535e+01   9.921929e+01
  -6.376312e+01   2.329295e+01
  -8.278859e+01  -7.061876e+01
  -2.266958e+01  -6.125540e+01
   8.419688e+01  -3.130432e+01
   1.143129e+02   2.090498e+01
   4.000888e+01   2.507983e+01
  -7.304007e+00   7.437540e+01
  -6.357854e+01   3.394871e+01
   4.974614e+01  -1.415263e+01
   8.140582e+01   3.320515e+01
  -3.880713e+01   3.668711e+01
  -5.267977e+01   7.294628e+01
  -1.398246e+02   8.432004e+01
  -6.835014e+01  -3.880207e+01
   5.174578e+01  -1.141830e+02
   4.540065e+01  -9.457292e+01
   4.343397e+01  -4.299951e+01
  -2.734651e+01   6.698765e+01
  -4.574926e+01   3.642913e+01
  -5.104612e+00  -2.506204e+01
  -4.978018e+01  -5.294268e+01
   7.954224e-01  -3.668484e+01
   5.159123e+01  -5.492754e+00
   7.013852e+01   6.099676e+01
   3.147942e+01  -4.997803e+00
   5.224749e+00  -4.564654e+01
   1.598246e+00  -1.615947e+01
  -1.123996e+00   1.932663e+01
   2.286140e+01   9.901982e+00
  -2.237482e+01   1.602802e+00
  -3.007562e+01   2.753278e+00
   3.639339e+01  -5.458638e+01
   2.179660e+01  -3.209376e+01
   5.197138e+01   5.090918e+01
  -2.870182e+00   9.529972e+01
  -5.268574e+01   2.181079e+01
  -1.081462e+02   1.920725e+01
  -2.495520e+01  -7.205499e+01
   1.675272e+01  -5.271484e+00
   9.043150e+01  -3.383359e+01
   2.735316e+01  -7.024846e+00
  -2.829546e+01  -6.861743e+00
  -5.269298e+01  -2.218181e+00
   4.192055e+01  -5.248139e+01
   7.158242e+01   1.988111e+01
