
 $NMID
 id='ANONYMOUS ', fmtdat='(2E16.6)'
 volume=1.0
 tramp=1.0
 $END
  -4.331227e+03  -5.121290e+02
  -2.392231e+03  -2.623448e+03
   9.652209e+02  -2.862291e+03
   1.909006e+03  -5.769702e+02
   9.855174e+02   3.468132e+02
  -7.879012e+02   4.480113e+02
  -5.897906e+02  -4.868256e+02
   6.032829e+01  -9.846330e+02
   8.461287e+02  -6.296007e+02
   9.133154e+02   2.097814e+02
   4.932783e+02   8.366305e+02
  -2.191995e+02   8.184712e+02
  -5.606725e+02   1.340138e+02
  -2.236059e+02  -8.082373e+02
   3.452081e+02  -7.619254e+02
   5.929731e+02   8.031833e+00
   3.635222e+02   6.580392e+02
  -2.813832e+02   5.976208e+02
  -5.795670e+02   5.252864e+01
  -4.912076e+02  -3.591809e+02
  -5.806687e+01  -4.239945e+02
   2.692326e+02  -2.526793e+02
   1.906560e+02  -3.974215e+01
  -1.532300e+02   7.466264e+00
  -4.198261e+02  -2.308055e+02
  -1.428791e+02  -3.949535e+02
   5.663205e+02  -3.300380e+02
   8.616574e+02   8.351591e+01
   4.048338e+02   5.580165e+02
  -3.822439e+02   4.538647e+02
  -6.199824e+02  -7.058513e+01
  -3.884639e+02  -3.450613e+02
   2.316266e+02  -4.879055e+02
   5.672528e+02  -1.709741e+02
   4.247615e+02   2.922769e+02
   5.489359e+01   4.909840e+02
  -2.365595e+02   1.852007e+02
  -1.232780e+02  -2.777497e+02
   1.595896e+02  -3.493212e+02
   4.165172e+02   5.966825e+01
   2.963703e+02   6.317352e+02
  -1.671462e+02   6.344943e+02
  -6.264139e+02   3.127851e+00
  -3.209090e+02  -5.832247e+02
   3.682377e+02  -2.455383e+02
   3.787917e+02   3.862529e+02
  -1.284266e+02   5.969118e+02
  -5.044041e+02   1.321905e+02
  -5.461021e+02  -4.228420e+02
  -1.587475e+02  -5.482559e+02
   4.030330e+02  -3.715555e+02
   6.635223e+02   8.011377e+01
   4.063773e+02   4.246748e+02
  -1.789935e+02   3.456605e+02
  -3.566114e+02   8.265937e+00
  -2.453689e+02  -2.313312e+02
   1.420202e+02  -9.377677e+01
   1.176884e+02   1.409671e+02
  -2.073769e+02   2.024992e+02
  -3.881970e+02  -4.466708e+01
  -1.596962e+02  -2.614329e+02
   2.317091e+02  -2.410509e+02
   3.536081e+02  -1.174600e+02
   2.487480e+02   1.032831e+02
   2.970193e+01   2.627581e+02
  -2.931254e+02   3.179675e+02
  -4.246278e+02   2.581132e+02
  -2.901658e+02  -1.592530e+02
  -4.893853e+01  -4.587180e+02
   6.060677e+01  -4.202120e+02
   1.191560e+02  -1.569343e+02
   3.489113e+01  -8.082983e+00
   4.845798e+01  -8.694841e+01
   1.771941e+02  -1.536456e+02
   3.133434e+02   6.109318e+01
   1.350279e+02   3.331364e+02
  -6.817659e+01   2.497034e+02
  -2.384154e+02  -3.679396e+01
  -1.866233e+02  -2.566390e+02
   7.539305e+00  -2.683424e+02
   2.966074e+02  -1.470798e+02
   3.841726e+02   1.467535e+02
   1.360665e+02   3.459388e+02
  -1.357938e+02   3.203613e+02
  -2.276879e+02   1.374690e+02
  -1.283864e+02   1.394325e+01
  -1.061693e+02   3.247207e+01
  -2.769942e+02   1.881877e+01
  -4.144818e+02  -1.069586e+02
  -3.570647e+02  -2.936933e+02
   2.601568e+01  -4.515018e+02
   3.269196e+02  -4.294060e+02
   4.688424e+02  -1.288800e+02
   3.581123e+02   8.547901e+01
   9.487079e+01   2.993608e+02
  -1.748984e+02   2.659256e+02
  -8.001183e+01   3.565698e+01
   1.093216e+02  -7.743116e+01
   2.261250e+02  -9.922447e+00
   7.318397e+01   2.076117e+02
  -1.860675e+02   1.431984e+02
  -1.865459e+02  -3.614223e+01
  -1.786784e+00  -1.789562e+02
   2.410592e+02  -3.107585e+01
   1.391136e+02   2.334829e+02
  -2.636740e+01   3.747434e+02
  -2.176978e+02   1.268910e+02
  -3.232304e+02  -6.768341e+01
  -2.686432e+02  -2.313181e+02
  -1.560419e+02  -2.590619e+02
   1.133668e+02  -1.892303e+02
   2.161746e+02  -7.238440e+00
   7.367775e+01   8.299524e+01
  -6.887517e+01  -2.931145e+01
  -2.165925e+01  -1.076908e+02
   1.280883e+02  -8.574520e+01
   2.034394e+02   4.220344e+00
   1.001172e+02   7.819309e+01
  -7.636108e+01   1.823728e+01
  -3.114642e+01  -4.952793e+01
   1.781792e+02  -7.456338e+01
   2.529253e+02  -4.766036e+01
   2.054074e+02   2.106290e+02
   4.928007e+01   2.573680e+02
  -2.100506e+02   2.580109e+02
  -3.095774e+02   8.424360e+01
  -1.614774e+02  -5.544934e+01
   7.709350e+01  -8.791695e+01
   4.312852e+01   1.155847e+01
  -7.341404e+01   1.184990e+02
  -2.014564e+02   1.016222e+01
  -2.510140e+02  -8.164851e+01
  -6.530778e+01  -2.328622e+02
   9.463974e+01  -2.048146e+02
   1.576310e+02  -5.027017e+01
   8.951369e+01   6.124414e+01
  -3.224252e+01   1.446398e+01
  -3.097777e+01  -9.591713e+01
   8.462159e+01  -8.568040e+01
   2.377548e+02  -1.729698e+01
   1.929012e+02   1.140941e+02
   2.724885e+01   2.156188e+02
  -1.651179e+02   1.744130e+02
  -2.007676e+02  -2.846359e+01
  -6.353812e+01  -1.717114e+02
   8.707970e+01  -9.102302e+01
   7.023429e+01  -1.652506e+01
   5.310734e+01   3.404252e+01
  -2.274225e+01   8.654709e+00
  -1.265648e+01  -6.784548e+00
   8.477508e+01  -1.903048e+01
   8.691885e+01   7.957877e+01
   2.730784e+01   1.757969e+02
  -1.629381e+02   1.626875e+02
  -1.951709e+02   4.161034e+01
  -2.020971e+02  -1.508124e+02
  -4.453878e+01  -2.377087e+02
   1.467330e+02  -1.925691e+02
   1.224717e+02   1.337017e+01
   7.713872e+01   8.845636e+01
   2.434633e+01   3.990410e+01
   7.322008e+01  -3.029178e+01
   7.952076e+01  -1.395100e+01
   3.132797e+01   2.446092e+01
  -4.297280e+01   8.364256e+01
  -1.212131e+02   3.397221e+01
  -1.108529e+02  -2.434136e+01
   6.273694e+01  -9.816714e+01
   1.521243e+02  -7.885039e+01
   2.221588e+02   8.660028e+01
   1.267837e+02   1.559226e+02
  -1.048414e+02   2.329520e+02
  -3.184519e+02   8.682525e+01
  -2.562880e+02  -6.305210e+01
  -9.118152e+01  -1.786671e+02
   6.914254e+01  -1.348541e+02
   9.999584e+01  -4.844921e+01
   1.163928e+02  -9.348412e+01
   1.282255e+02  -1.052033e+02
   1.244928e+02  -8.644152e+01
   1.352592e+02   1.420281e+01
   1.156663e+02   1.517999e+02
   4.183144e+01   2.600909e+02
  -8.695348e+01   1.598284e+02
  -1.672021e+02   3.342641e+01
  -1.495108e+02  -1.685085e+02
   1.248609e+01  -1.759286e+02
   4.843239e+01  -1.113479e+02
   2.656133e+01  -2.365455e+01
   6.359707e+01   3.399838e+01
  -2.416719e+01  -1.860278e+01
   3.655223e+01   8.282136e+01
   1.043508e+02   7.069071e+01
   3.424002e+01   2.363285e+01
  -6.012236e+01   7.489766e+00
  -1.269905e+02  -1.650178e+01
  -1.498418e+02  -6.137158e+01
   6.342411e+00  -1.023962e+02
   1.361280e+02  -6.346062e+01
   1.380688e+02   3.005454e+01
   6.178234e+01   6.491575e+01
  -3.276319e+01  -1.452719e+00
  -6.986367e+01  -3.669266e+01
  -4.903150e+01  -9.156731e+01
   7.261967e+01  -2.110154e+01
   2.979025e+01  -6.709633e+00
   4.920397e+01   6.658105e+01
   3.135098e+01   3.259157e+01
   2.634612e+01   1.936505e+01
   6.589706e+01   3.390158e+01
   5.621397e+01   5.075056e+01
  -4.239141e+01   1.391387e+02
  -1.055378e+02   1.516146e+02
  -1.760843e+02   5.526448e+01
  -1.139133e+02  -7.154825e+01
  -2.522246e+01  -1.479089e+02
   7.614524e+01  -4.763799e+01
   3.541946e+01   1.376907e+01
  -8.304833e+01  -8.675419e+00
  -1.170709e+02  -4.942686e+01
  -5.984326e+01  -1.305773e+02
   1.412700e+02  -1.257468e+02
   1.884874e+02  -5.724346e+00
   1.789770e+02   1.132089e+01
   2.132887e+01   6.203900e+01
  -6.758324e+01   7.921992e+01
  -7.307091e+01  -2.145075e+01
   2.452003e+01  -3.674822e+01
   6.469616e+01   4.301293e+01
   3.778206e+01   1.095926e+02
  -1.173496e+02   1.763192e+02
  -2.026270e+02   7.193075e+01
  -8.923853e+01  -1.454484e+02
  -3.986230e+00  -1.665089e+02
   8.444458e+01  -1.423805e+02
   1.417328e+02   1.534123e+01
   4.755717e+01   8.899837e+01
  -5.610587e+01   1.739578e+02
  -6.984917e+01   1.406453e+00
  -8.094338e+01  -6.981758e+00
  -2.516004e+01  -1.433997e+01
  -3.370131e+01   4.253025e+01
   4.792070e+00  -2.817245e+00
  -7.835003e+01  -8.570838e+01
  -5.684612e+01  -9.575200e+01
   4.894256e+01  -1.186762e+01
   1.480192e+02   7.361379e+01
   1.450094e+02   6.757036e+01
   9.660867e+00   3.542281e+01
  -9.428018e+01  -8.355628e+00
  -1.418824e+02   5.049048e+00
  -1.197660e+01   2.882856e+01
   1.658708e+01   8.318587e+00
   7.072017e+00   1.230520e+01
   1.150840e+01  -3.125361e+01
   1.694685e+01  -1.094977e+01
   9.729552e+01  -5.152078e+00
   1.056719e+02   2.511032e+01
   1.275549e+01   1.138780e+02
  -1.854069e+02   1.365533e+02
  -1.682636e+02   8.429606e+01
  -1.349096e+02  -5.663663e+01
  -1.444274e+01  -1.571273e+02
   5.104613e+01  -1.191939e+02
   8.913767e+01  -6.950299e+01
   7.737449e+01   1.242766e+01
   1.548943e+01  -1.704509e+01
  -2.595905e+01   1.373885e+01
   5.065285e+01   1.451925e+01
   4.128311e+01   2.857443e+01
   2.882602e+01   9.276902e+01
  -2.110749e+01   1.182873e+02
  -1.223602e+02  -1.026082e+01
  -9.474899e+01  -1.234073e+02
  -4.562930e+00  -1.240153e+02
   9.281434e+01  -3.655180e+01
   1.224791e+02   7.419685e+01
   4.375362e+01   1.308308e+02
  -1.000403e+02   3.961651e+01
  -1.418986e+02  -2.871037e+01
  -4.261978e+01  -2.068452e+01
  -4.158433e+00  -2.517646e+01
   2.543083e+01  -4.095030e+01
  -4.077817e+01   1.016838e+01
  -6.428415e+01  -2.443043e+00
  -3.248477e+01  -2.077357e+01
   7.511999e+01  -1.262910e+02
   1.226720e+02  -2.111313e+01
   6.672286e+01   1.353715e+01
   7.429636e+00   9.801714e+01
  -4.430311e+01   4.907715e+01
  -3.848402e+01  -2.062349e+01
   1.545104e+01  -5.959318e+01
   4.748614e+01  -4.540247e+01
   4.558957e+01   2.153026e+01
   1.691948e+01   8.052215e+01
  -2.560893e+01   4.862132e+01
   8.445607e+00  -2.870047e+01
  -2.449887e+01   2.458222e+01
  -4.560642e+01   1.053478e+01
   7.156373e+00   3.514817e+01
   5.082721e+01  -1.628380e+01
  -8.050642e-01  -1.359340e+01
  -2.406073e+01  -3.693341e+01
   4.475594e+01   5.119471e+00
   1.590160e+01   2.950720e+01
  -1.475625e+01   6.881099e+01
  -5.131512e+01  -4.024617e+00
  -5.064331e+01  -3.382527e+01
  -5.541545e+01  -1.143940e+02
   4.066588e+01  -6.357860e+01
   7.778666e+01   1.045176e+01
   6.233684e+01   2.571276e+01
  -1.330671e+01   4.369271e+01
  -6.994963e+01   3.765906e+01
   1.018954e+01   3.331448e+01
  -1.778999e+01   1.312597e+01
   5.232542e+01   1.636133e+01
   9.053053e+00   2.575311e+01
  -1.167235e+02   3.307822e+01
