
 $NMID
 id='ANONYMOUS ', fmtdat='(2E16.6)'
 volume=1.0
 tramp=1.0
 $END
  -4.010631e+03   4.663539e+02
  -2.575616e+03  -2.910937e+03
   8.117459e+02  -2.525120e+03
   1.999757e+03  -9.142594e+02
   7.593246e+02   5.887624e+02
  -6.338514e+02   5.949532e+02
  -7.517619e+02  -5.023498e+02
   1.296748e+02  -1.037243e+03
   7.558348e+02  -6.729994e+02
   9.621542e+02   6.573542e+00
   3.234236e+02   8.415309e+02
  -4.190132e+02   7.741521e+02
  -5.949980e+02   2.200969e+01
  -3.838640e+02  -6.209378e+02
   2.092479e+02  -7.221022e+02
   6.006922e+02  -9.919428e+00
   2.048573e+02   7.451532e+02
  -3.615245e+02   5.689224e+02
  -5.297156e+02   1.638097e+02
  -4.055633e+02  -3.247809e+02
   2.588467e+01  -4.393598e+02
   2.852600e+02  -2.226640e+02
   2.114890e+02   6.312483e+00
  -9.551480e+01   7.261327e+01
  -3.243588e+02  -6.284614e+01
  -2.091146e+02  -3.672437e+02
   4.422212e+02  -4.161327e+02
   8.393211e+02   1.033755e+02
   4.000891e+02   5.799111e+02
  -4.985104e+02   5.240631e+02
  -8.091333e+02   3.182081e+01
  -4.188691e+02  -5.263838e+02
   3.247359e+02  -5.674621e+02
   5.127982e+02  -2.030230e+02
   3.962807e+02   1.337235e+02
  -1.439557e+01   5.234012e+02
  -2.345411e+02   2.453462e+02
  -1.464197e+02  -2.466546e+02
   2.136042e+02  -4.452917e+02
   4.171162e+02   9.375863e+00
   2.039976e+02   6.786077e+02
  -3.762281e+02   7.579294e+02
  -5.911952e+02  -3.051394e+01
  -1.715550e+02  -5.522942e+02
   2.765398e+02  -3.327438e+02
   4.029693e+02   3.832126e+02
  -1.561789e+02   5.483955e+02
  -5.160048e+02   1.363938e+02
  -5.915212e+02  -3.914726e+02
  -1.502955e+02  -5.931422e+02
   4.518322e+02  -3.427887e+02
   6.098477e+02   1.177770e+02
   3.128755e+02   3.865648e+02
  -8.853352e+01   3.947955e+02
  -4.400385e+02   3.155305e+01
  -1.940595e+02  -1.084988e+02
   1.501224e+02  -1.093754e+02
   1.202772e+02   1.768194e+02
  -2.212465e+02   1.205021e+02
  -3.489554e+02  -1.362458e+02
  -1.679226e+02  -2.768587e+02
   1.441297e+02  -2.274822e+02
   3.458941e+02  -6.656636e+01
   2.512134e+02   2.754392e+01
  -1.345525e+01   1.962285e+02
  -1.514844e+02   3.733945e+02
  -3.962960e+02   1.888237e+02
  -3.144537e+02  -9.178637e+01
  -8.630593e+01  -4.424725e+02
   5.568096e+01  -4.081964e+02
   1.093562e+02  -3.838167e+01
  -3.752024e+00   1.255520e+01
   3.941029e-01  -6.311615e+01
   2.453574e+02  -1.386425e+02
   2.683751e+02   5.284728e+01
   1.750687e+02   2.897309e+02
  -1.428988e+01   2.994219e+02
  -2.371887e+02   3.180655e+01
  -1.771269e+02  -2.462362e+02
   5.463418e+01  -2.982404e+02
   2.723823e+02  -1.431563e+02
   3.618351e+02   1.721238e+02
   1.750842e+02   3.457747e+02
  -3.915349e+01   2.746848e+02
  -1.856803e+02   8.621247e+01
  -1.425554e+02   3.558150e+01
  -1.297330e+02   3.830251e+01
  -1.998690e+02   9.211433e+01
  -4.694895e+02   7.256844e+00
  -3.194620e+02  -3.124965e+02
  -3.344233e+01  -4.393632e+02
   3.243630e+02  -5.006717e+02
   4.640609e+02  -1.733852e+02
   3.180117e+02   7.972050e+01
   3.525253e+00   3.709798e+02
  -1.431173e+02   2.160882e+02
  -3.766430e+01  -7.971515e+00
   1.086531e+02  -1.333138e+02
   1.849010e+02  -3.198180e+00
   9.601239e+01   2.012818e+02
  -1.510779e+02   1.761912e+02
  -2.040278e+02  -7.194834e+01
  -5.795756e+01  -2.004018e+02
   1.719049e+02  -4.120891e+01
   1.777349e+02   2.207758e+02
  -1.242889e+02   3.195102e+02
  -2.450494e+02   2.289266e+02
  -3.672968e+02  -6.108872e+01
  -2.804921e+02  -2.195669e+02
  -8.984976e+01  -3.172159e+02
   9.082393e+01  -1.660256e+02
   1.605915e+02  -3.941944e+01
   8.050840e+01   2.259680e-01
  -8.107686e+01  -7.811528e+01
  -1.835691e+01  -9.770793e+01
   1.215855e+02  -1.480759e+02
   1.885774e+02   3.684345e+01
   6.279809e+01   6.465215e+01
  -1.038083e+02  -1.932255e+00
  -5.512806e+01  -5.213543e+01
   1.339678e+02  -7.457861e+01
   2.614018e+02  -3.849347e+01
   2.777615e+02   1.214453e+02
   5.156104e+01   1.975234e+02
  -1.793646e+02   2.763989e+02
  -2.622101e+02   1.287823e+02
  -1.622388e+02  -5.524169e+01
  -2.102943e+00  -8.093110e+01
   8.334860e+01   3.375480e+01
  -1.195294e+01   8.339141e+01
  -2.034786e+02   4.480791e+01
  -2.192597e+02  -6.507710e+01
  -1.223068e+02  -1.823602e+02
   6.096873e+01  -1.693768e+02
   1.710015e+02  -3.584158e+01
   8.097339e+01   4.292774e+01
  -6.894718e+00   4.129335e+01
  -6.372386e+01  -1.220758e+02
   5.925049e+01  -1.139584e+02
   2.049542e+02  -4.460073e+01
   1.890017e+02   6.988851e+01
   4.619813e+01   1.881257e+02
  -1.635868e+02   1.662764e+02
  -1.499311e+02  -7.312953e-01
  -5.339676e+01  -1.157512e+02
   1.074304e+02  -9.736097e+01
   9.441689e+01  -4.934966e+01
   3.984302e+01   3.841993e-01
  -2.898189e+01   8.348660e+00
   2.917555e+00   1.333519e+01
   7.474761e+01   3.936557e+01
   1.215991e+02   7.307523e+01
  -5.275479e+00   1.332802e+02
  -9.751442e+01   9.166058e+01
  -2.043403e+02   1.732800e+01
  -1.781927e+02  -1.413694e+02
  -4.261321e+01  -2.135583e+02
   1.408893e+02  -1.441067e+02
   1.681665e+02  -2.697803e+01
   4.855599e+01   7.586074e+01
   1.396232e+01   7.892564e+01
   4.621905e+01  -3.538489e+01
   1.066349e+02  -9.697076e+00
   7.709025e+01   5.122045e+01
  -6.777503e+01   1.078578e+02
  -1.124981e+02   1.013788e+02
  -1.067066e+02  -3.805417e+01
   3.288895e+01  -8.113524e+01
   1.218208e+02  -1.224870e+02
   1.474949e+02   6.184985e+01
   9.009594e+01   1.989382e+02
  -1.818110e+01   2.228056e+02
  -2.439149e+02   1.228492e+02
  -2.937139e+02  -8.073760e+01
  -9.863458e+01  -1.935027e+02
   6.272529e+01  -1.420110e+02
   1.148483e+02  -4.665322e+01
   8.514540e+01  -7.082842e+01
   1.117773e+02  -8.367857e+01
   9.459024e+01  -5.604586e+01
   1.198879e+02   5.107517e+01
   1.687418e+02   1.492533e+02
  -1.737167e+01   2.185499e+02
  -1.132848e+02   1.859807e+02
  -1.823911e+02   1.531700e+01
  -1.027363e+02  -1.277225e+02
  -2.203183e+01  -1.885819e+02
   9.102592e+01  -1.417625e+02
   6.354309e+01   6.008393e+00
  -2.949943e+00   2.021712e+01
   5.578074e+00   1.441734e+01
   5.988605e+01   3.352280e+01
   7.084102e+01   3.655271e+01
   4.908731e+01   3.961420e+01
  -8.255195e+01   4.915790e+01
  -1.278567e+02   2.559357e+01
  -1.453453e+02  -2.230333e+01
   1.105254e+01  -6.944443e+01
   1.215013e+02  -4.923841e+01
   1.017518e+02  -2.629518e+00
   3.142377e+01   1.540200e+01
  -5.730430e+01   3.896658e+01
  -7.541153e+01  -5.446346e+01
  -2.478602e+01  -4.516883e+01
   3.484315e+01  -4.970147e+01
   1.061557e+02   3.671833e+00
   5.331503e+01   1.359427e+01
   4.285248e+01   6.074129e+01
   4.322857e+01  -1.331485e+01
   5.482664e+01  -2.832916e+01
   4.123659e+00   7.816745e+01
  -5.060222e+00   1.560287e+02
  -1.301342e+02   1.337609e+02
  -1.709652e+02   6.374744e+01
  -1.245954e+02  -9.088811e+01
   4.071239e+00  -1.110042e+02
   6.212932e+01  -7.404155e+01
   1.156870e+02   1.220507e+00
  -8.532176e+01   3.663189e+01
  -7.996822e+01  -5.183629e+01
  -9.349330e+01  -1.260262e+02
   1.459978e+02  -1.245517e+02
   1.693738e+02  -6.425923e+01
   1.473047e+02   2.436014e+01
   6.847602e+01   1.171861e+02
  -8.840002e+01   9.286492e+01
  -6.841891e+01  -2.585690e+01
  -5.730145e+00  -4.172958e+01
   1.134218e+02  -9.897922e+00
   6.243209e+01   1.113460e+02
  -9.390180e+01   1.429968e+02
  -1.645862e+02   6.171505e+01
  -1.881180e+02  -1.107352e+02
   6.639948e+00  -2.032890e+02
   1.357328e+02  -1.487285e+02
   9.838249e+01  -1.831743e+01
   5.992134e+01   9.751323e+01
  -2.726491e+01   1.365329e+02
  -1.875561e+01   4.264695e+01
  -4.463793e+01  -2.435453e+01
  -4.593966e+01   4.190432e+00
   5.416824e+00   8.438014e+00
  -5.153930e+01  -2.335023e+01
  -7.860989e+01  -1.057522e+02
  -6.246363e+01  -8.462022e+01
   7.771287e+01  -5.303446e+01
   1.546191e+02   2.532106e+01
   1.343376e+02   4.140273e+01
  -3.504643e+01   5.315243e+01
  -9.207325e+01  -1.925972e+01
  -9.684316e+01   2.171672e+01
  -1.119585e+01   5.425972e+01
   3.676377e+01  -4.467861e+01
   2.996617e+01  -4.093648e+01
  -3.204978e+01   3.719582e+01
   1.273014e+01  -6.697047e+00
   6.043172e+01   3.565284e+01
   1.090015e+02  -2.599273e+01
  -5.094846e+00   7.974841e+01
  -9.639947e+01   9.167138e+01
  -1.291056e+02   1.007823e+02
  -1.664181e+02  -5.508259e+01
  -5.956324e+01  -1.827077e+02
   9.062457e+01  -1.653000e+02
   1.245314e+02  -9.914117e+01
   7.416941e+01  -2.149095e+01
   6.132311e+01   8.387961e+01
  -1.491513e+01  -1.301718e+01
   1.698794e+01   4.536533e+01
   5.024124e+01   4.096493e+01
   2.659080e+01   1.001159e+02
  -6.451362e+01   7.678438e+01
  -8.532989e+01  -2.028410e+01
  -7.216643e+01  -9.407475e+01
  -2.840711e+01  -1.122757e+02
   5.597088e+01  -5.076109e+01
   9.829420e+01   7.022200e+01
   2.692408e+01   1.212424e+02
  -9.477552e+01   1.731596e+01
  -1.115726e+02  -1.898702e+01
  -7.838495e+01  -6.153921e+01
   1.565967e+01  -5.414719e+01
   4.087136e+01  -4.437768e+01
  -2.380267e+01   7.891237e-02
  -2.729083e+01   9.073647e+00
  -3.079418e+01  -2.849168e+00
   7.740513e+01  -7.928521e+01
   1.285169e+02  -7.526963e+01
   5.180449e+01   3.124394e+01
   1.045353e+00   1.073752e+02
  -6.394023e+01   9.434104e+01
   1.005210e+01   1.049318e+01
  -7.619089e+00  -5.264983e+01
   2.518046e+01  -6.475086e+01
   1.387537e+01   2.503793e+01
   3.755638e+01   8.450050e+01
  -1.877476e+00   6.188924e+01
  -3.307757e+01  -5.049367e+00
  -3.950758e+01   1.056994e+00
  -3.602178e+01   2.062640e+01
  -1.381062e+01   4.943823e+00
   3.434143e+01   4.999169e-01
   1.844440e+01  -5.189724e+01
   2.687160e+00  -4.502352e+01
   5.349293e+01  -5.703627e+00
   3.832283e+01   5.686041e+01
  -1.778006e+01   7.043424e+01
  -3.454174e+01   3.110668e+01
  -5.002433e+01  -6.637391e+01
  -3.629295e+01  -1.012855e+02
   5.552917e+01  -2.076764e+01
   8.827596e+01  -6.314517e+00
   5.650572e+01   6.145405e+01
  -4.688428e+01   4.102843e+01
  -6.380652e+01  -3.061203e+01
  -2.261738e+01  -3.786263e+00
   1.119806e+01   3.622506e+00
   2.105973e+01   3.782031e+01
  -4.680870e+01  -1.694000e+01
  -1.202600e+02   5.477258e+00
