
 $NMID
 id='ANONYMOUS ', fmtdat='(2E16.6)'
 volume=1.0
 tramp=1.0
 $END
  -2.984781e+03  -1.662389e+02
  -1.178560e+03  -1.705855e+03
   6.301411e+02  -1.616275e+03
   1.579490e+03  -3.601441e+02
   6.162865e+02   2.709646e+02
  -3.448281e+02   4.491281e+02
  -3.589919e+02  -3.273643e+02
   7.586439e+01  -6.054602e+02
   5.086333e+02  -3.266758e+02
   5.744654e+02   2.950902e+01
   5.710524e+01   5.763747e+02
  -2.704682e+01   5.802377e+02
  -2.939788e+02   1.140439e+02
  -1.817773e+02  -5.209035e+02
   2.541625e+02  -3.649204e+02
   3.343353e+02   4.174220e+01
   5.317359e+01   3.412562e+02
  -2.363475e+02   3.904752e+02
  -3.234970e+02   1.225448e+02
  -2.022766e+02  -1.816189e+02
   2.711009e+00  -2.316983e+02
   1.581000e+02  -8.312061e+01
   1.327629e+02  -2.276058e+01
  -1.419364e+02   6.381364e+01
  -2.622073e+02  -9.419792e+01
  -6.878375e+01  -3.099114e+02
   3.207378e+02  -2.438285e+02
   4.049366e+02   1.077015e+02
   2.674457e+02   2.536666e+02
  -2.807991e+02   1.912298e+02
  -4.386082e+02  -1.619447e+02
  -1.240669e+02  -3.306450e+02
   1.780939e+02  -2.445429e+02
   3.241159e+02  -4.857647e+01
   1.409199e+02   2.097309e+02
  -2.428469e+01   2.685197e+02
  -1.119616e+02   1.556032e+02
  -4.652523e+01  -1.405567e+02
   1.600111e+02  -2.231193e+02
   3.545991e+02  -8.851307e+01
   7.877452e+01   4.290685e+02
  -1.624236e+02   3.511015e+02
  -3.969251e+02  -6.622340e+01
  -7.884450e+01  -4.146917e+02
   1.767649e+02  -1.723765e+02
   1.461684e+02   2.560941e+02
  -1.841855e+02   2.717859e+02
  -3.523144e+02  -2.185937e+01
  -3.960077e+02  -1.866477e+02
   4.299038e+01  -3.373782e+02
   2.677164e+02  -1.841123e+02
   3.897093e+02   1.920995e+01
   1.581813e+02   1.699272e+02
  -1.424312e+02   1.821418e+02
  -1.687778e+02  -8.611717e+00
  -1.795125e+02  -8.369950e+01
   4.920509e+01   2.733246e+01
   8.768883e+01   3.471212e+01
  -5.366996e+01   3.424744e+01
  -2.190609e+02  -1.166543e+02
  -3.065451e+01  -1.569321e+02
   2.152698e+02  -1.271548e+02
   1.554835e+02  -6.802985e+01
   5.744370e+01   2.984583e+01
  -4.748679e+01   1.750664e+02
  -1.329447e+02   1.547395e+02
  -1.555515e+02   1.732560e+01
  -1.676224e+02  -7.348391e+01
  -7.446061e+01  -2.433771e+02
   8.337298e+01  -2.675880e+02
   9.968522e+01  -6.744529e+01
   5.862889e+01  -4.790628e+01
  -2.807631e+01  -1.024268e+01
   1.230924e+02  -8.504653e+01
   1.436302e+02   2.402031e+01
   2.918201e+01   1.584520e+02
  -6.191492e+01   1.728969e+02
  -1.435750e+02  -5.539213e+00
  -1.389724e+02  -1.088342e+02
   1.991616e+00  -1.770492e+02
   1.121369e+02  -6.824334e+01
   1.514424e+02   1.492974e+02
   8.157032e+01   1.815987e+02
  -5.943353e+01   1.876504e+02
  -1.364073e+02   3.434354e+01
  -4.067509e+01  -3.167453e+01
  -5.209532e+01  -7.078451e+00
  -9.930769e+01   2.001338e+01
  -1.704263e+02  -7.579892e+01
  -9.495686e+01  -1.475539e+02
   1.449105e+01  -2.282912e+02
   2.838925e+02  -2.035351e+02
   2.689827e+02  -5.275152e+01
   1.674540e+02   6.894825e+01
   2.788160e+01   1.452913e+02
  -8.770167e+01   1.398529e+02
  -5.454124e+01   1.875188e+01
   7.945721e+01  -7.383348e+01
   1.003971e+02   2.092044e+01
  -3.141804e+01   1.016714e+02
  -9.208776e+01   1.218486e+02
  -7.202562e+01  -2.553707e+01
   3.424083e+01  -1.317006e+02
   8.701477e+01  -1.203954e+00
   5.486584e+01   2.046211e+02
   9.032388e+00   1.154691e+02
  -1.388427e+02   9.585103e+01
  -1.202199e+02  -1.007869e+02
  -1.386320e+02  -1.240608e+02
  -4.086370e+01  -1.414462e+02
   3.140063e+01  -6.801928e+01
   1.114711e+02   1.061406e+01
   1.905475e+01   3.765303e+01
  -2.756870e+01   7.867342e+00
  -2.459674e+01  -1.086835e+02
   4.131102e+01  -3.697027e+01
   8.253401e+01   6.860727e+01
   5.951334e+01   1.943649e+01
   8.620872e-01   3.182399e+01
  -3.702108e+01  -6.611240e+01
   6.096692e+01  -7.243570e+01
   1.909820e+02   4.723556e+01
   1.675010e+02   5.644161e+01
   6.825075e+01   1.597422e+02
  -1.342928e+02   1.326171e+02
  -2.090741e+02   7.154933e+01
  -6.243577e+01  -4.880333e+01
   7.589645e+01  -6.675719e+01
   2.395580e+01  -4.731233e+00
  -4.429235e+01   4.130619e+00
  -9.917964e+01   5.081620e+01
  -1.256978e+02  -1.005552e+02
  -4.999869e+01  -1.222133e+02
   1.126891e+02  -3.458905e+01
   1.074387e+02   1.104253e+01
  -1.117410e+01   1.831442e+01
  -2.786437e+01   6.074020e+00
  -4.678278e+01  -5.565247e+01
   9.801422e+01  -3.534080e+01
   9.680098e+01   3.028565e+01
   1.002247e+02   1.660003e+02
   2.558162e+01   8.397822e+01
  -1.145721e+02   6.454274e+01
  -1.008243e+02  -8.995774e+00
   9.825875e+00  -3.662332e+01
   3.997799e+01  -4.751554e+01
   3.345023e+01  -2.907805e+01
  -1.278230e+01  -2.887689e+00
  -2.057752e+01   2.359019e+00
  -1.109987e+01   1.921438e+01
   2.037166e+01   7.946926e-01
   2.034162e+01   5.023601e+01
  -7.282877e+00   1.254365e+02
  -8.997064e+01   1.018197e+02
  -9.537019e+01  -1.865870e+01
  -1.053845e+02  -1.690874e+02
  -5.734325e+01  -1.198871e+02
   9.107791e+01  -7.588542e+01
   8.274433e+01  -1.477013e+01
   7.360721e+01   6.056851e+01
   9.517294e-01   5.112896e+01
   4.847564e+01   1.136917e+00
   7.056348e+01   1.947652e+01
   6.411398e+01   3.990101e+01
   6.082886e-01   4.456620e+01
  -4.568131e+01  -5.681914e+00
  -6.875037e+01  -5.941334e+01
   8.337211e+00  -6.056611e+01
   7.668789e+01  -3.796390e+01
   1.149905e+02   3.977004e+01
   5.546733e+01   1.644683e+02
  -4.027376e+01   1.484423e+02
  -1.816267e+02   5.899179e+01
  -1.188807e+02  -9.311595e+01
  -4.311522e+01  -6.816848e+01
   6.233571e+01  -1.124277e+02
   4.103534e+01  -5.533459e+01
   4.306808e+01  -4.504673e+01
   5.669169e+01  -3.300920e+01
   3.663883e+01  -3.289529e+01
   4.978157e+01   7.127692e+00
   6.511472e+01   7.023402e+01
  -5.709956e+01   1.308334e+02
  -6.652009e+01   7.518909e+01
  -8.585015e+01  -2.250989e+01
  -9.815228e+01  -5.259939e+01
   1.907530e+01  -8.047710e+01
   1.685185e+01  -4.278863e+01
   7.136503e+01   2.495470e+01
  -1.841366e+00   1.179493e+01
  -1.656785e+01  -8.597575e+00
  -6.576909e+00   2.296528e+00
   6.082991e+01   1.784815e+01
   1.798152e+01   7.782143e+00
  -4.897031e+01   3.414004e+01
  -1.383355e+02  -5.682763e-01
  -5.233489e+01  -3.088416e+01
  -1.884253e+01  -3.346540e+01
   3.524491e+01  -2.531938e+01
   8.338046e+01  -3.100959e+01
   4.124137e+01   4.052071e+01
  -2.185823e+01  -1.865868e+00
  -7.735889e+01  -8.296163e+00
  -8.739773e+00  -3.966014e+01
   3.815021e+01  -1.206936e+01
   4.266948e+01   3.048416e+01
  -1.579849e+01   4.145992e+01
   2.622724e+01   2.424417e+01
   3.754928e+01  -2.665386e+01
   6.062240e+01  -1.295449e+00
   3.334370e+01   4.448093e+00
  -3.865788e+01   6.609861e+01
  -4.442377e+01   9.654838e+01
  -6.607457e+01   2.448296e+01
  -6.787425e+01  -3.740504e+01
   1.182334e+01  -6.308133e+01
   9.090903e+01  -5.957785e-01
   1.287243e+01  -5.110731e+00
  -4.170887e+01  -3.098057e+01
  -4.005298e+01  -5.671781e+01
  -2.646068e+01  -6.075338e+01
   1.105205e+01  -3.535469e+01
   1.329798e+02  -2.485717e+01
   6.536029e+01   6.689593e+01
   8.450972e+00   5.927365e+01
  -3.881028e+01   2.406360e+01
  -4.058282e+01   4.049243e+01
   3.787826e+01  -9.487798e+00
   4.080772e+01  -2.774390e+00
   3.329831e+00   6.694717e+01
  -8.140689e+01   5.492319e+01
  -1.446148e+02  -1.482028e+01
  -7.614692e+01  -4.367945e+01
  -7.633457e+00  -1.425953e+02
   6.627526e+01  -7.885314e+01
   1.074030e+02  -8.236398e+00
   2.018378e+01   1.115934e+02
   4.043420e+01   1.006348e+02
  -6.672367e+00  -2.647939e+01
  -8.807577e+00  -1.315488e+01
  -7.504010e+00  -2.512327e+01
   2.025230e+01   3.999696e+00
   4.679820e+00  -2.438812e+01
  -4.644939e+01  -5.069012e+01
  -1.199109e+01  -6.573556e+01
   2.683721e+01  -3.507204e+01
   4.810926e+01   1.705280e+01
   5.034998e+01   5.772563e+01
   5.559682e+00  -2.599228e+01
  -7.742736e+01   1.120092e+01
  -1.974205e+01   4.208067e+01
   2.516702e+01   5.180633e+00
   4.529641e+01  -1.108890e+01
   1.665059e+00   1.115159e+01
  -8.796218e+00  -7.920953e+00
   1.400728e+01   1.510836e+01
   2.687810e-01   2.052780e+01
   6.474341e+01   3.072333e+01
  -1.134484e+01   5.877870e+01
  -8.701133e+01   3.967188e+01
  -1.097537e+02   7.082931e+01
  -1.047913e+02  -3.106158e+01
   2.182588e+01  -6.426066e+01
   5.256754e+01  -2.732409e+01
   5.904864e+01  -1.049886e+01
   3.464949e+01   2.022549e+01
   4.732540e+01   2.584557e+01
   1.691340e+01   2.482513e+01
   5.497375e+00  -1.085014e+01
   2.180037e+01   2.180443e+01
   1.764263e+01   7.097013e+01
  -5.440985e+01   2.657161e+01
  -4.882786e+01   3.408758e+00
  -1.111574e+01  -2.851600e+01
   1.718991e+01  -5.419968e+01
   8.528348e+01   5.562594e-01
   7.241299e+01   6.829329e+01
   4.229425e+01   4.537332e+01
  -5.505492e+01   1.376196e+01
  -2.896637e+01   2.547656e+01
  -4.392180e+01  -4.853854e+01
   2.293967e+01  -3.754026e+01
   4.285595e+00  -1.733500e+01
  -4.248950e+01   2.969005e+00
  -5.868741e+01  -4.249811e+01
  -1.761808e+00  -7.450064e+00
   1.440161e+01  -2.773148e+01
   9.247939e+01  -6.603362e+00
  -4.505369e-01   2.960330e+01
  -8.595658e+00   2.494654e+01
  -3.848182e+01   5.805638e+01
   1.184106e+01  -3.526137e+01
  -1.914052e-01  -4.013588e+01
  -1.675226e+01   5.563362e+00
   1.857408e+01   3.682791e-01
  -2.160153e+01   3.333139e+01
   8.219270e+00  -2.017929e+00
   1.981066e+01  -2.615615e+01
   8.064970e+00  -1.886203e+01
  -2.694434e+01   1.260428e+01
  -2.561066e+01   4.083592e+01
  -1.315166e+01   1.584792e+01
   2.194513e+01  -2.486514e+01
   4.008564e+01  -1.973128e+01
  -1.982417e+01   4.816974e+00
   1.152338e+01   5.214190e+01
   1.675991e+01   2.041520e+01
  -3.639492e+01   3.748020e+01
  -3.234832e+00  -5.068403e+01
   2.833373e+00  -1.453211e+01
   9.888755e+00  -2.813973e+01
   3.293276e+01   2.530350e+01
   4.327132e+01   3.899421e+01
  -3.433405e+01   2.384881e+01
  -4.184615e+01  -6.260937e+00
  -6.075635e+01  -5.605501e+01
   4.022916e+01  -2.130298e+01
   4.721866e+01   1.417235e+01
  -1.825886e+01   2.444370e+01
  -2.797678e+01  -3.533229e+00
