
 $NMID
 id='ANONYMOUS ', fmtdat='(2E16.6)'
 volume=1.0
 tramp=1.0
 $END
   2.882690e+03   5.849860e+02
   8.565163e+02   1.841288e+03
  -7.238873e+02   1.613427e+03
  -1.816464e+03   2.922684e+02
  -3.209300e+02  -3.988405e+02
   2.810071e+02  -1.309464e+02
   3.346662e+02   3.700737e+02
  -1.842519e+02   6.234970e+02
  -5.765418e+02   4.480283e+02
  -4.895842e+02  -1.775436e+02
  -1.414488e+02  -5.775904e+02
   2.861839e+02  -6.674935e+02
   3.308050e+02  -7.668485e+01
   1.849913e+02   4.861617e+02
  -2.139751e+02   3.630441e+02
  -3.533453e+02  -1.399193e+02
  -5.878368e+01  -4.672346e+02
   3.152729e+02  -3.570405e+02
   3.958238e+02   2.309700e+01
   2.154257e+02   1.000040e+02
  -1.955632e+01   2.397596e+02
  -1.682468e+02   1.231542e+02
  -1.060712e+02   3.547350e+01
   1.706154e+02  -4.994848e+01
   2.161512e+02   1.378204e+02
   2.151736e+01   2.907000e+02
  -3.476921e+02   1.565498e+02
  -4.186350e+02  -1.719011e+02
  -2.788022e+02  -2.983375e+02
   2.166806e+02  -1.960598e+02
   5.032641e+02   4.121457e+01
   1.934796e+02   3.379778e+02
  -1.273875e+02   3.111834e+02
  -3.874174e+02   1.630135e+01
  -1.714900e+02  -1.807829e+02
  -4.126135e+01  -3.338298e+02
   1.336905e+02  -1.557367e+02
   6.644401e+01   1.236495e+02
  -1.306354e+02   2.804222e+02
  -3.026270e+02  -8.756907e+01
  -1.379355e+02  -5.085128e+02
   2.340199e+02  -5.174402e+02
   4.263490e+02  -8.775416e+01
   1.786212e+02   3.761299e+02
  -2.526582e+02   1.330365e+02
  -1.425065e+02  -2.545375e+02
   8.067330e+01  -2.937255e+02
   3.777684e+02   4.313385e+01
   3.616050e+02   2.571963e+02
  -8.262239e+00   4.485043e+02
  -1.928496e+02   1.977012e+02
  -3.675305e+02  -5.241907e+01
  -2.112046e+02  -1.968464e+02
   1.056498e+02  -1.669026e+02
   2.699047e+02  -2.473933e+01
   1.633618e+02   1.487374e+02
  -8.947265e+01   5.956172e+01
  -5.666393e+01  -8.548675e+01
   1.223134e+02  -7.279478e+01
   2.068808e+02   7.971915e+01
   5.913858e+01   2.129428e+02
  -1.654086e+02   1.579262e+02
  -1.943336e+02   5.440214e+01
  -1.015146e+02  -7.214247e+01
   3.650197e+01  -1.181162e+02
   1.421252e+02  -1.843559e+02
   1.414953e+02  -1.254574e+02
   1.161032e+02   1.056383e+02
   6.880058e+00   2.850954e+02
  -8.696136e+01   1.807066e+02
  -1.154442e+02   1.146111e+02
  -2.983046e+01  -3.682130e+01
  -5.000396e+01   7.105719e+01
  -7.926790e+01   8.264089e+01
  -1.267315e+02  -2.642500e+01
  -3.212670e+01  -1.347178e+02
   3.981584e+01  -1.966018e+02
   1.233304e+02   2.896531e+01
   1.430062e+02   1.604872e+02
  -2.932513e+01   2.219390e+02
  -1.544971e+02   2.876840e+01
  -1.569356e+02  -1.329192e+02
  -1.116049e+02  -1.892620e+02
   6.145648e+01  -1.605710e+02
   1.814729e+02  -1.046242e+01
   6.999633e+01   2.608037e+01
   1.137116e+01   2.648439e+00
   1.599568e+02  -6.980660e+01
   2.596386e+02   9.827047e+01
   1.648772e+02   1.437635e+02
   2.161628e+01   2.478995e+02
  -3.139760e+02   2.366144e+02
  -2.769006e+02   1.257939e+02
  -1.395692e+02  -5.138451e+01
  -2.715254e+01  -1.440913e+02
   7.894007e+01  -1.227167e+02
   6.060874e+01  -2.460503e+01
  -7.415940e+01   4.959237e+01
  -1.256067e+02  -3.640563e+01
   3.404289e+01  -1.000216e+02
   1.071723e+02  -1.068669e+02
   1.209967e+02   4.156748e+01
  -2.823455e+01   1.014744e+02
  -7.972390e+01   7.920710e+00
  -5.236023e+01  -1.145235e+02
   1.366546e+01  -2.030940e+02
   1.086439e+02  -5.128729e+01
   1.500639e+02   6.755706e+01
   2.127864e+02   6.385711e+01
   5.912352e+01   1.401371e+02
  -8.627168e+01   1.480123e+02
  -8.296598e+01   2.544834e+01
  -3.690641e+01  -2.941786e+01
   4.636392e+01   2.363672e+00
   5.665492e+00   6.355980e+01
  -4.055599e+01   7.814639e+01
  -8.910156e+01  -3.418660e+01
  -3.570678e+01  -4.519178e+01
   7.154830e+01  -1.591350e+00
   7.724119e+01   6.941150e+01
  -6.785274e+01   2.576820e+01
  -1.938081e+02  -5.563041e+01
  -1.851334e+02  -1.051764e+02
   6.979271e+00  -1.304747e+02
   1.205702e+02  -1.270609e+02
   2.039230e+02  -9.164664e+01
   9.701416e+01   2.501662e+01
  -6.554636e+01   3.506208e+01
  -5.530432e+01   2.551144e+01
   5.315385e+01  -6.895319e+01
   1.346627e+02  -3.113037e+01
   8.429998e+01   9.920361e+01
   6.033507e+01   1.130524e+02
  -9.249969e+01   6.887376e+01
  -8.691571e+01  -1.818355e+01
  -4.766910e+01  -3.911966e+01
  -2.465271e+01   9.145327e+00
   1.965383e+01   5.655241e+01
  -3.540984e+01   2.610836e+01
  -9.781175e+01  -9.900960e+00
  -9.786241e+01  -1.050354e+02
  -1.133856e+01  -1.416516e+02
   7.554340e+01  -6.865202e+01
   1.015121e+02  -7.247545e+00
   2.144902e+01   7.628846e+01
  -4.307658e+01   2.041393e+01
  -8.229352e+01   7.877886e+00
  -1.374331e+01   1.018579e+01
   2.914261e+01  -2.857513e+01
   1.631840e+01  -2.932085e+00
  -6.197129e+01   6.178467e+01
  -4.170199e+01  -2.528438e+01
   2.078499e+01  -1.153937e+02
   9.758217e+01  -9.345492e+01
   1.437753e+02   6.211583e+00
   9.705573e+01   9.669675e+01
   1.988315e+01   1.563059e+02
  -6.826818e+01   3.085618e+01
  -9.715830e+01   3.713202e+01
  -4.184060e+01  -7.431998e+01
  -2.357319e+01  -1.828986e+01
  -9.311204e+01  -4.765851e+01
  -3.662638e+01  -6.304001e+01
  -2.085598e+01   7.802120e+00
  -2.427773e+00  -3.298176e+01
   4.376488e+01  -2.597624e+01
   8.253855e+01  -5.687239e+00
  -9.879086e+00   6.759089e+01
  -7.801033e+01   5.593830e+01
  -9.175231e+01  -2.233200e+01
  -4.153827e+01  -1.249912e+02
   7.586217e+01  -1.843968e+02
   1.959636e+02  -6.528348e+01
   1.878227e+02   6.172216e+01
   2.796669e+01   1.136040e+02
   7.555702e+00   9.044274e+01
  -9.096065e+01   4.016227e+01
  -4.260709e+01   6.372312e+01
  -4.271487e+01   5.840082e+01
  -7.858123e+01   3.845118e+01
  -5.756612e+01  -1.407662e+01
  -6.516762e+01  -8.181095e+01
  -1.127881e+01  -8.818539e+01
   2.175565e+01  -1.371245e+02
   1.231095e+02  -3.839109e+01
   9.529138e+01   8.698389e+01
   7.460127e+00   8.491663e+01
  -8.231186e+01   5.449351e+01
  -4.234055e+01  -3.943333e+01
  -4.545166e+00  -3.996297e+01
   1.613119e+01  -5.117639e+01
   5.124855e+00   1.823468e+01
  -9.144350e+01  -8.983826e+00
   9.249690e+00   1.356673e+01
   6.270462e+01   1.146527e+01
   1.254604e+02   2.615309e+01
   6.530644e+01   4.370023e+01
   2.919229e+00   8.988459e+01
  -6.997463e+01   1.187508e+01
  -6.821872e+01  -4.752093e+00
   6.288603e-01  -3.495238e+01
   7.761871e+00   5.516958e+00
   3.876094e+01  -6.138536e+00
  -1.246980e+01  -4.395735e+00
  -6.519697e+01   2.071881e+01
  -4.655103e+01   9.769566e+00
  -3.375597e+01  -4.221891e+01
  -7.824770e+01  -1.185887e+01
  -4.368554e+01   4.331831e+00
  -3.334972e+01  -9.248676e+00
  -8.841426e+01  -8.573437e+00
   8.467602e+01  -6.646156e+01
   7.828374e+01  -7.690673e+01
   7.869047e+01  -1.736937e+01
   7.777422e+01   6.317232e+01
  -1.227316e+01   1.031940e+02
  -1.569724e+01  -3.611175e+00
  -5.474162e+01  -2.603175e+01
   3.382892e+01   1.175841e+01
   4.922657e+01   5.156794e+01
   6.219970e+00   4.289084e+01
  -1.565110e+01   7.110747e+01
  -1.004514e+02   8.228114e-01
  -8.376739e+01  -4.137262e+01
  -3.510605e+01  -3.518504e+01
   5.377970e+01  -6.612488e+01
   1.028284e+01   1.714537e+00
   1.316916e+01   2.589480e+01
  -4.924408e+01   3.241479e+01
   1.210628e+01  -5.371451e+01
   7.337476e+01  -5.281039e+01
   1.028524e+02  -2.612835e+01
   8.939711e+01   7.098011e+01
  -2.724078e+01   1.345808e+02
  -6.199895e+01   5.081698e+01
  -7.606252e+01  -1.051044e+01
  -1.715393e+01  -4.920641e+01
  -1.004357e+01  -5.136957e+01
  -3.339425e+01  -1.290793e+01
   4.414622e+01   3.645241e+01
   1.080168e+01   1.666654e+01
   1.745592e-01  -2.292007e+01
   7.147922e+00   3.659710e+01
   1.989881e+01   5.271404e+01
   1.612880e+01   5.953567e+01
  -9.284874e+01   3.436774e+01
  -5.750708e+01  -5.418470e+01
  -4.177134e+01  -2.385189e+01
  -3.891717e+01  -2.255889e+01
   7.210892e+01   3.055926e-01
   8.321522e+01  -1.042743e+01
  -5.680298e+00  -8.437312e+00
  -2.954121e+01   1.995723e+01
  -4.202467e+01  -2.055607e+01
   7.138267e+00  -2.203940e+01
   2.062882e+01  -4.619383e+00
  -5.375399e+01   6.731615e+00
  -5.454477e+01  -3.023043e+01
   2.514760e+01  -8.779343e+01
   7.060030e+01  -4.304114e+01
   1.296383e+02  -6.568395e+01
   8.008166e+01   3.294773e+01
   4.178828e+01   8.892248e+01
  -2.267656e+01   2.975310e+01
  -7.356883e+01  -1.385489e+00
  -3.818506e+01   6.467842e+00
  -6.734727e+01  -4.156938e+00
   8.188915e+00  -3.193108e+00
  -2.163140e+01  -9.541803e+00
  -3.849699e+01  -3.745072e+01
  -6.484781e+00  -4.944043e+01
   2.218460e+01  -1.843246e+01
   5.983402e+01   1.147401e+01
   5.798083e+01   7.938233e-01
  -2.252321e+01   5.386117e+01
  -2.256338e+01   6.095231e+00
  -3.071832e+01  -4.568228e+01
  -1.825908e+01  -5.365633e+01
   1.132451e+01  -2.931810e+00
   6.254729e+01   1.306108e+01
  -8.758998e+00   3.519488e+01
  -4.871167e+00   5.155973e+01
   3.405522e+01  -1.419487e+01
   2.212703e+01   2.124622e+01
   3.991679e+01  -3.003492e+01
   9.849291e+00   2.103575e+01
  -1.757110e+01   2.951886e+01
  -3.017764e+01   3.583853e+01
  -4.703533e+01   6.236825e+00
  -3.440526e+01  -5.874222e+01
   6.465890e+00  -1.200968e+01
   2.083634e+01  -1.656797e+00
   2.113535e+01   1.554102e+01
  -3.045349e+01   3.599299e+01
  -3.778772e+01  -8.720806e+00
   1.605624e+01  -2.290837e+01
  -2.747660e+00  -6.319340e+01
   5.253957e+01  -2.632033e+01
   5.152296e+01   4.369161e+00
  -1.515552e+01   8.857698e+00
  -3.589547e+01   8.373724e+00
  -3.501489e+01  -2.481484e+00
   1.013672e+01   2.228674e+01
   1.969043e+00   2.595807e+01
  -1.560235e+01   2.411888e+01
  -1.950777e+01  -4.353065e+01
   6.406058e+00  -2.597647e+01
   3.883027e+01  -6.334434e+01
   5.679069e+01   4.884886e+01
   1.629972e+01   6.985707e+01
  -3.399985e+01   3.108462e+01
  -3.527986e+01  -1.175513e+01
  -3.818992e+01  -9.229709e-02
   2.105691e+01  -2.277281e+01
   4.220165e+01  -2.416873e+01
   1.247168e+01  -2.045606e+01
  -4.175319e+00   1.496158e+01
   2.868869e+01  -4.049725e+00
   3.875867e+01  -3.545809e+01
   5.513012e+01   5.605747e+01
