
 $NMID
 id='ANONYMOUS ', fmtdat='(2E16.6)'
 volume=1.0
 tramp=1.0
 $END
  -3.744916e+03  -2.025239e+02
  -1.748612e+03  -2.981909e+03
   1.052331e+03  -2.550985e+03
   2.155119e+03  -6.208467e+02
   8.961600e+02   6.946393e+02
  -5.466327e+02   2.670444e+02
  -8.146917e+02  -6.254734e+02
   2.173400e+02  -1.125410e+03
   1.052756e+03  -8.247024e+02
   8.741496e+02   3.885355e+02
   4.261140e+02   8.368572e+02
  -3.430666e+02   9.506584e+02
  -7.232361e+02  -1.672834e+01
  -2.695021e+02  -7.095934e+02
   3.121377e+02  -6.992704e+02
   6.229018e+02   1.473328e+02
   1.895466e+02   6.427207e+02
  -4.031628e+02   5.041263e+02
  -5.361838e+02  -3.894181e+00
  -2.718763e+02  -3.833899e+02
   6.347552e+00  -3.422613e+02
   2.646011e+02  -1.878703e+02
   1.626374e+02  -2.048153e-01
  -9.408698e+01   5.319342e+01
  -3.797107e+02  -9.858718e+01
  -1.876317e+02  -4.523563e+02
   5.340840e+02  -3.153985e+02
   6.939451e+02   1.406742e+02
   3.293521e+02   5.640801e+02
  -4.175209e+02   4.252705e+02
  -7.561054e+02  -1.242177e+02
  -2.257105e+02  -4.738340e+02
   2.997152e+02  -4.483785e+02
   6.664396e+02  -1.613618e+02
   3.603708e+02   2.729123e+02
  -4.525003e+01   5.343956e+02
  -2.587139e+02   2.400251e+02
  -1.706648e+02  -2.321731e+02
   1.932508e+02  -4.272434e+02
   3.894800e+02   1.060480e+02
   1.313063e+02   7.316350e+02
  -4.148175e+02   7.102974e+02
  -6.812627e+02  -4.509938e+01
  -2.322247e+02  -5.122873e+02
   3.095655e+02  -2.358908e+02
   3.662715e+02   3.964702e+02
  -1.678590e+02   5.138424e+02
  -5.144297e+02   4.289081e+01
  -4.850450e+02  -5.114090e+02
  -7.722894e+01  -5.280274e+02
   3.998449e+02  -3.372806e+02
   6.025540e+02   1.364068e+02
   2.824436e+02   3.941093e+02
  -2.362761e+02   3.045457e+02
  -4.070263e+02  -2.725564e+01
  -2.456861e+02  -1.894786e+02
   1.883858e+02  -1.006172e+02
   1.271219e+02   1.370499e+02
  -2.196985e+02   1.979910e+02
  -3.502497e+02  -1.086283e+02
  -1.584772e+02  -3.403238e+02
   2.328708e+02  -2.248222e+02
   3.239604e+02  -7.952853e+01
   1.697950e+02   5.544655e+01
  -2.971872e+00   2.175530e+02
  -2.320475e+02   3.076538e+02
  -3.339225e+02   2.038087e+02
  -2.879442e+02  -1.450111e+02
  -9.545352e+01  -4.847042e+02
   1.297152e+02  -3.385387e+02
   1.485084e+02  -1.160277e+02
  -5.783650e+00  -1.960004e+01
  -3.106663e+00  -9.453361e+01
   2.023371e+02  -1.286324e+02
   2.737494e+02   2.489368e+01
   1.661114e+02   2.274887e+02
  -1.290496e+02   2.215195e+02
  -2.158484e+02  -4.825751e+01
  -1.775736e+02  -2.833716e+02
   3.847510e+01  -3.325155e+02
   2.317803e+02  -6.152246e+01
   3.728897e+02   2.014675e+02
   1.774565e+02   3.668815e+02
  -1.639593e+02   2.930230e+02
  -1.918488e+02   7.900025e+01
  -1.524365e+02   2.392351e+01
  -9.112252e+01  -1.198080e+00
  -2.362292e+02   1.170502e+02
  -4.112177e+02  -2.149680e+02
  -2.738998e+02  -2.520015e+02
   2.633223e+01  -4.030963e+02
   4.421198e+02  -2.641349e+02
   4.807500e+02  -1.922058e+02
   2.288366e+02   1.169310e+02
   2.584766e+01   2.317581e+02
  -1.565260e+02   1.936490e+02
  -1.153323e+02   9.609055e+00
   1.504048e+02  -9.297643e+01
   1.957419e+02   1.043748e+01
  -9.229899e+00   1.115048e+02
  -2.091840e+02   1.426576e+02
  -2.117729e+02  -4.883926e+01
   1.183985e+01  -1.785991e+02
   2.282261e+02   2.371981e+00
   1.394680e+02   2.740568e+02
  -2.465674e+01   3.196812e+02
  -2.659747e+02   1.423761e+02
  -3.129477e+02  -1.950258e+01
  -2.718584e+02  -2.692608e+02
  -5.995086e+01  -2.651889e+02
   1.424629e+02  -1.493725e+02
   1.909772e+02  -3.779545e+01
   2.530638e+01   2.770457e+01
  -6.773591e+01  -4.755626e+01
  -1.165280e+00  -1.587363e+02
   1.719785e+02  -8.275839e+01
   1.862595e+02   6.399745e+01
   9.416590e+01   1.067818e+02
  -7.791416e+01  -5.087947e+00
  -9.298023e+01  -8.287371e+01
   1.595024e+02  -6.544017e+01
   2.374849e+02   3.347663e+01
   2.451149e+02   1.990939e+02
   4.331966e+01   1.957350e+02
  -2.045954e+02   2.564013e+02
  -3.232207e+02   6.661130e+01
  -1.393585e+02  -4.726993e+01
   2.088261e+01  -1.117741e+02
   3.944648e+01  -9.489158e+00
  -7.149457e+01   1.093968e+02
  -2.209917e+02   5.456213e+01
  -2.195280e+02  -8.689740e+01
  -7.077368e+01  -2.126896e+02
   1.048434e+02  -1.026136e+02
   1.382887e+02   5.205249e+00
   6.415223e+01   5.172592e+01
  -4.534146e+01   1.487270e+01
  -4.843304e+01  -9.310672e+01
   4.055541e+01  -1.098152e+02
   1.983294e+02   5.631040e+00
   1.348960e+02   1.127464e+02
   6.854524e+00   2.393834e+02
  -1.816904e+02   2.004984e+02
  -1.789540e+02  -1.880808e+01
  -4.080950e+01  -8.724003e+01
   9.889936e+01  -7.823773e+01
   1.090890e+02  -1.266730e+01
   3.932220e+01   5.991007e-01
  -2.111051e+01   8.976450e+00
  -1.745100e+01  -3.044754e+01
   5.405062e+01   1.737517e+01
   3.747321e+01   7.303741e+01
  -1.801151e+01   1.742082e+02
  -1.880998e+02   1.309636e+02
  -2.391028e+02   1.067752e+01
  -1.714005e+02  -1.669579e+02
  -4.408194e+00  -2.135484e+02
   1.659500e+02  -1.378975e+02
   1.554190e+02  -7.052697e+00
   3.794779e+01   6.370938e+01
   1.382542e+01   2.300764e+01
   3.745599e+01   1.791919e+01
   1.001142e+02   2.799767e+01
   2.300203e+01   2.237296e+01
  -1.256262e+01   5.315902e+01
  -6.601396e+01   3.809053e+01
  -7.440846e+01  -1.056847e+00
   9.909946e+00  -7.383771e+01
   1.203605e+02  -6.334086e+01
   2.081256e+02   2.448933e+01
   9.123188e+01   2.351023e+02
  -1.215561e+02   1.904050e+02
  -2.680351e+02   6.257217e+01
  -2.040162e+02  -3.746095e+01
  -3.961690e+01  -2.101364e+02
   9.467365e+01  -1.549616e+02
   8.346310e+01  -9.525626e+01
   7.625596e+01  -6.942307e+01
   4.727408e+01  -7.677814e+01
   9.145578e+01  -6.122315e+01
   1.491832e+02   4.398028e+01
   1.035018e+02   1.426662e+02
   1.393525e+01   2.250581e+02
  -6.778003e+01   1.545810e+02
  -1.445672e+02   3.492739e+01
  -8.634111e+01  -9.896492e+01
  -1.019065e+01  -1.666618e+02
   6.202628e+01  -9.948555e+01
   7.526421e+01  -1.349319e+01
  -5.326461e+00   2.814722e+01
  -3.020426e+01   2.507157e+01
   8.529367e+00   2.872022e+01
   6.580268e+01   4.709805e+01
   2.493439e+01   5.587193e+01
  -6.681481e+01   4.076548e+01
  -1.468083e+02   1.056432e+01
  -1.495377e+02  -2.549066e+01
   1.315352e+01  -5.176734e+01
   9.363244e+01  -4.757043e+01
   1.906348e+02  -5.957422e+00
   4.698249e+01   5.683514e+01
  -5.695342e+01   4.471736e+01
  -9.134613e+01  -1.736354e+01
  -4.644730e+01  -4.380168e+01
   4.373189e+01  -3.895705e+01
   6.059765e+01   2.758144e+01
   4.222373e+00   3.251605e+01
   5.227694e+01   3.837336e+01
   6.285675e+01   1.246570e+01
   6.798642e+01  -1.185922e+01
   8.750902e+01   5.714174e+01
   2.481687e+01   5.491282e+01
  -1.221236e+02   1.284457e+02
  -1.816861e+02   1.689406e+01
  -9.835604e+01  -1.256827e+02
  -2.126550e+01  -1.156728e+02
   6.411545e+01  -6.903294e+01
   1.035969e+02   2.887777e+01
  -4.205714e+01  -9.197284e+00
  -1.625573e+02  -8.270518e+01
  -7.429081e+01  -7.592980e+01
   7.024447e+01  -1.090571e+02
   1.631169e+02  -4.135011e+01
   1.588172e+02   8.131410e+01
   1.425663e+01   1.125850e+02
  -7.748438e+01   7.601965e+01
  -4.555382e+01   3.554528e+00
   9.395001e+01  -4.257227e+01
   8.954557e+01   3.470163e+01
   2.336962e+01   1.188393e+02
  -1.154049e+02   1.100361e+02
  -1.709330e+02   5.056898e+01
  -8.158966e+01  -7.853824e+01
  -3.099515e+01  -2.065543e+02
   6.752429e+01  -7.948858e+01
   9.487395e+01  -7.639430e+00
  -1.212712e+00   9.776254e+01
  -1.719721e+01   1.223235e+02
  -5.241120e+01  -6.308363e+00
  -4.626231e+01  -6.684614e+00
  -1.007953e+01   1.775651e+01
   3.632010e+01   3.394001e+01
  -4.862260e+01  -1.667029e+01
  -5.406132e+01  -9.206232e+01
  -1.944992e+01  -1.078399e+02
   3.894209e+01  -3.948153e+01
   1.070179e+02   1.993087e+01
   7.752662e+01   4.204437e+01
   2.774270e+01   4.537996e+01
  -9.346762e+01  -8.244843e+00
  -5.854104e+01  -6.976496e+00
   2.399907e+01  -2.496403e+01
   7.178588e+01  -1.170948e+00
   2.976379e+01  -3.157396e+01
  -1.115354e+01  -2.125998e+01
  -9.820174e+00   3.845437e+01
   8.050001e+01   4.206367e+01
   7.340588e+01   4.336419e+01
  -7.550264e+00   8.330346e+01
  -1.178155e+02   1.006478e+02
  -1.863635e+02   5.144712e-01
  -1.086145e+02  -1.138022e+02
  -1.253748e+01  -1.504397e+02
   7.496076e+01  -1.529854e+02
   5.813527e+01  -3.252808e+01
   1.136385e+02   4.745253e+01
   1.844814e+01   1.915314e+01
  -5.026186e+01   1.685387e+01
  -1.657408e+01  -1.469406e+01
  -3.032408e+01   2.701260e+01
   1.580176e+01   7.146854e+01
  -2.795586e+01   5.200399e+01
  -6.266939e+01  -3.544669e+01
  -8.639954e+01  -9.763976e+01
  -8.045518e-01  -8.723571e+01
   5.001589e+01   4.111353e+00
   7.867594e+01   7.168701e+01
   2.917816e+01   7.612860e+01
  -5.600863e+01   3.288871e+01
  -1.027240e+02  -1.108366e+01
  -7.134099e+01  -5.695476e+01
   1.395842e+01  -7.536195e+01
   8.289932e+00   2.805638e+00
  -4.601543e+01  -1.604108e+01
  -5.788738e+01  -1.910185e+01
   1.734599e+01  -2.553758e+01
   9.896017e+01  -7.035655e+01
   1.035762e+02  -4.924667e+01
   7.822944e+01  -1.472485e+01
  -2.196172e+01   1.061733e+01
  -6.224442e+01   6.118648e+01
  -3.237460e+01  -8.609106e+00
  -3.401320e+01  -4.188500e+01
   2.080586e+01  -7.128785e+01
   2.841550e+01   2.246227e+01
   1.482583e+01   3.418446e+01
  -1.932117e+01   1.599135e+01
  -2.013466e+01  -7.961826e+00
   5.818380e+00  -1.149004e+00
  -1.877794e+01  -7.213746e+00
  -1.427369e+01   3.261534e+01
   2.848599e+01  -1.218753e+01
   1.529131e+01  -2.209343e+01
  -1.396359e+01  -5.583469e+01
   2.025637e+01   1.892191e+01
   5.033496e+01   6.191789e+01
  -4.496789e+01   4.188597e+01
  -2.777583e+01  -1.792394e+01
  -4.211747e+01  -6.367345e+01
  -1.533679e+01  -5.086145e+01
   4.240177e+01  -6.850201e+01
   8.077110e+01  -9.342390e+00
   4.204575e+01   1.659951e+01
  -1.740866e+01   5.801875e+01
  -3.631515e+01   3.770729e+00
  -2.329744e+01  -1.172674e+01
  -2.425362e+01  -3.160387e+00
   3.844841e+01   6.204977e+01
  -3.893747e+01   9.321417e+00
  -8.812173e+01   3.933840e+01
