
 $NMID
 id='ANONYMOUS ', fmtdat='(2E16.6)'
 volume=1.0
 tramp=1.0
 $END
  -4.416922e+03   7.824314e+02
  -2.899015e+03  -2.791742e+03
   4.233809e+02  -2.929722e+03
   2.066849e+03  -1.078385e+03
   9.336458e+02   6.508266e+02
  -4.372608e+02   7.633708e+02
  -8.291436e+02  -1.744774e+02
  -5.154864e+01  -1.094589e+03
   8.088871e+02  -8.456541e+02
   9.894692e+02   6.163756e+01
   4.666045e+02   9.046587e+02
  -1.096571e+02   9.479107e+02
  -6.160064e+02   2.709089e+02
  -4.596431e+02  -6.854553e+02
   3.066876e+02  -8.652243e+02
   6.349662e+02  -3.263009e+00
   3.097913e+02   6.818212e+02
  -2.658733e+02   6.093570e+02
  -6.069759e+02   1.550717e+02
  -3.977000e+02  -2.832226e+02
  -5.333790e+01  -4.141228e+02
   2.543203e+02  -2.877413e+02
   1.424111e+02  -1.013307e+02
  -4.408352e+01   1.095857e+02
  -3.863977e+02  -7.549793e+01
  -1.851390e+02  -4.217901e+02
   3.005429e+02  -3.841559e+02
   7.629975e+02   1.033256e+02
   4.865561e+02   5.197416e+02
  -4.864101e+02   5.280339e+02
  -7.696488e+02  -9.008348e+01
  -3.901490e+02  -4.346703e+02
   2.108997e+02  -5.945615e+02
   5.361340e+02  -2.554776e+02
   5.921499e+02   1.679824e+02
   1.194079e+02   5.197561e+02
  -1.394489e+02   3.193790e+02
  -1.695664e+02  -1.475949e+02
   1.989409e+02  -3.698477e+02
   4.934383e+02  -8.071986e+01
   3.581680e+02   6.099704e+02
  -2.197293e+02   7.870887e+02
  -5.775716e+02   1.494527e+01
  -2.154849e+02  -6.451033e+02
   2.174993e+02  -3.911752e+02
   4.204647e+02   2.762123e+02
  -3.792538e+01   5.172373e+02
  -5.852984e+02   2.081257e+02
  -6.256093e+02  -3.242279e+02
  -1.619067e+02  -5.986293e+02
   3.917426e+02  -3.611361e+02
   6.247187e+02   1.575099e+01
   4.264516e+02   3.556773e+02
  -1.894555e+02   4.639574e+02
  -4.334246e+02   1.046033e+02
  -2.232666e+02  -1.760512e+02
   1.294180e+02  -1.084439e+02
   1.415820e+02   1.408669e+02
  -1.718091e+02   1.739164e+02
  -3.679998e+02  -1.345662e+02
  -1.556863e+02  -2.884894e+02
   1.784113e+02  -2.869248e+02
   3.799239e+02  -1.125296e+02
   2.441984e+02   9.645350e+01
  -3.140431e+01   2.375886e+02
  -1.451916e+02   3.174714e+02
  -2.748195e+02   2.015191e+02
  -3.081326e+02  -1.085596e+02
  -1.108189e+02  -4.489596e+02
   7.186061e+01  -4.544174e+02
   9.150701e+01  -1.362904e+02
   1.271723e+01  -2.502077e+01
  -1.190287e+01  -7.039101e+01
   1.906367e+02  -1.379089e+02
   3.221406e+02   3.983934e+01
   1.046933e+02   2.257405e+02
  -6.785848e+01   2.822274e+02
  -1.926818e+02   4.426651e+01
  -2.144972e+02  -2.198226e+02
  -4.295714e+01  -3.077136e+02
   2.363488e+02  -1.131057e+02
   4.235159e+02   1.415832e+02
   2.589638e+02   3.684574e+02
  -1.009854e+02   3.468134e+02
  -2.494786e+02   1.461545e+02
  -2.042499e+02  -2.980859e+01
  -8.753930e+01   3.234888e+01
  -2.226710e+02   6.485235e+01
  -4.362882e+02   5.676208e-01
  -2.811936e+02  -3.312884e+02
  -6.981861e+01  -4.877028e+02
   3.494036e+02  -4.594115e+02
   5.223621e+02  -2.579568e+02
   3.656914e+02   1.117955e+02
   2.564250e+01   3.043761e+02
  -1.125008e+02   2.417287e+02
  -6.588352e+01   2.513364e+01
   1.558064e+02  -1.124816e+02
   2.220625e+02  -1.209048e+01
   3.971238e+01   2.254284e+02
  -1.264880e+02   1.768956e+02
  -1.381830e+02  -2.320508e+01
  -2.439665e+01  -1.762991e+02
   1.612130e+02   3.152576e+01
   1.856456e+02   2.739959e+02
  -7.211964e+01   3.088228e+02
  -2.085032e+02   2.374713e+02
  -3.655157e+02  -6.169850e+01
  -3.196938e+02  -2.688969e+02
  -1.158656e+02  -2.759333e+02
   7.932254e+01  -1.807557e+02
   1.923734e+02  -2.739405e+00
   3.370332e+01   7.506038e+01
  -9.874147e+01  -5.890733e+01
  -4.676402e+01  -1.105003e+02
   1.001482e+02  -5.503125e+01
   1.899680e+02  -6.248957e+00
   8.927484e+01   3.285778e+01
  -9.719336e+01   2.095560e+01
  -9.962899e+01  -8.449933e+01
   1.284351e+02  -5.891564e+01
   2.565819e+02  -2.162928e+01
   2.571107e+02   1.511582e+02
   5.505220e+01   2.858773e+02
  -1.343379e+02   2.813658e+02
  -2.537064e+02   1.070916e+02
  -1.751551e+02  -4.929552e+01
   5.777294e+00  -1.386297e+02
   8.618140e+01  -1.411542e+01
  -2.416700e+01   8.525666e+01
  -1.948539e+02   7.011611e+01
  -2.525149e+02  -9.873777e+01
  -1.140440e+02  -2.047150e+02
   7.973321e+01  -1.801834e+02
   9.380378e+01  -2.912664e+01
   9.721392e+01   3.215624e+01
  -2.899891e+01   3.175290e+01
   2.612451e+00  -6.289818e+01
   7.092495e+01  -7.773878e+01
   2.143001e+02  -1.134112e+01
   1.988005e+02   1.272336e+02
   1.191469e+01   1.910070e+02
  -1.400434e+02   1.444675e+02
  -2.165492e+02  -8.954878e+00
  -4.403918e+01  -1.302194e+02
   5.915800e+01  -1.288324e+02
   1.078343e+02  -6.298518e+00
  -1.826489e+01   1.669606e+01
  -2.620143e+01  -1.537235e+01
   2.472213e+01  -1.508423e+01
   1.039155e+02  -4.647156e+00
   9.385558e+01   8.109981e+01
  -3.962503e+01   1.502527e+02
  -1.132438e+02   1.734397e+02
  -2.492540e+02   3.353888e+01
  -2.306827e+02  -9.865308e+01
  -8.813773e+01  -2.166457e+02
   1.061408e+02  -1.822838e+02
   1.140809e+02  -6.740962e+01
   3.149270e+01   2.666526e+01
   4.480068e+01  -7.866252e+00
   4.891600e+01  -3.236416e+01
   7.678944e+01  -1.222954e+01
   3.970587e+01   1.070919e+02
  -3.840163e+01   3.136082e+01
  -9.389728e+01   7.850650e+01
  -8.904861e+01  -8.483304e+00
   1.857678e+01  -9.160438e+01
   1.734442e+02  -8.133871e+01
   1.954834e+02   6.552268e+01
   1.359588e+02   1.832742e+02
  -6.711649e+01   2.126275e+02
  -2.640160e+02   9.937480e+01
  -2.946024e+02  -9.743737e+00
  -1.113717e+02  -1.718107e+02
   6.872306e+00  -1.372918e+02
   1.223265e+02  -8.615198e+01
   4.461602e+01  -8.036946e+01
   1.037889e+02  -8.682718e+01
   1.222101e+02  -1.148498e+02
   1.433777e+02   1.097346e+01
   9.624149e+01   1.868921e+02
   1.803243e+01   2.183778e+02
  -9.234904e+01   1.898389e+02
  -1.707432e+02   1.202593e+01
  -1.095904e+02  -1.451437e+02
  -2.674626e+01  -1.805619e+02
   4.214638e+01  -9.885734e+01
   2.564020e+01   3.568752e+01
  -7.907487e+00   1.069031e+01
  -3.264883e+01   4.885127e+01
   5.193839e+01   3.149234e+01
   6.316704e+01   4.450037e+01
  -1.364007e+01   2.923792e+01
  -7.708931e+01   4.643667e+01
  -1.184135e+02   1.326895e+01
  -1.595805e+02  -6.218586e+01
   1.352886e+00  -1.187066e+02
   9.621985e+01  -3.846851e+01
   1.309565e+02   8.028988e+00
   8.036207e+01   2.610043e+01
  -4.355815e+01   7.581852e+01
  -8.453616e+01  -1.423696e+01
  -1.976279e+00  -5.835885e+01
   5.919063e+01  -7.111522e+01
   6.888434e+01  -4.698691e+00
   2.998902e+01   5.569827e+01
   5.658279e+01   1.744602e+01
   7.035515e+01   1.352786e+01
   8.531863e+01   1.334086e+01
   1.566191e+01   7.155983e+01
   6.186367e-01   1.737346e+02
  -1.602001e+02   7.443221e+01
  -1.441981e+02   1.254518e+01
  -1.589829e+02  -2.735223e+01
  -8.962980e+00  -7.129021e+01
   7.446823e+01  -8.900013e+01
   7.602754e+01   3.706663e+00
  -9.827897e+00  -2.703207e+01
  -1.057194e+02  -4.076283e+01
  -8.872834e+01  -8.313246e+01
   6.771325e+01  -6.586583e+01
   1.341423e+02  -5.710507e+01
   1.872083e+02   1.792190e+01
   6.395822e+01   6.519620e+01
  -5.823522e+01   7.858731e+01
  -4.746382e+01  -2.290267e+01
   5.351872e+01  -5.765999e+01
   8.551542e+01   5.988096e+01
   7.245336e+01   9.862711e+01
  -8.156050e+01   1.353857e+02
  -1.658406e+02   9.011995e+01
  -1.266350e+02  -1.135270e+02
  -2.671899e+01  -1.759548e+02
   7.798525e+01  -1.682245e+02
   9.313157e+01  -7.686409e+00
   8.602072e+01   1.060767e+02
  -1.202705e+01   9.680834e+01
  -3.871478e+01   1.185370e+01
  -2.655409e+01  -6.274457e+01
  -4.668223e+00  -3.724538e+01
   6.431827e-01  -2.300027e+00
  -6.122057e+00  -4.184400e+01
  -3.553144e+01  -7.192826e+01
  -5.635327e+01  -7.874955e+01
   4.211244e+01  -3.191225e+01
   1.549095e+02   7.475492e+01
   1.090322e+02   6.785133e+01
   5.434817e+00   7.555822e+01
  -8.972498e+01  -1.559133e+01
  -6.300541e+01  -3.337735e+00
  -1.618114e+00   2.152391e+00
   2.596102e+01  -1.558283e+01
   9.298582e+00  -6.627395e+01
  -3.688939e+01  -1.600673e+01
  -1.246016e+01  -2.859878e+01
   6.749109e+01  -1.075108e+01
   9.234290e+01   1.972039e+01
   3.415129e+01   8.432974e+01
  -1.276765e+02   8.931299e+01
  -1.909403e+02   5.464370e+01
  -1.403446e+02  -6.420719e+01
  -3.831890e+01  -2.188833e+02
   1.194579e+02  -1.823733e+02
   1.512221e+02  -6.669124e+01
   8.443145e+01   2.341335e+01
   4.172207e+01   5.035823e+01
   5.056630e+00   9.423778e+00
  -1.150275e+01  -1.161011e+01
  -5.452278e+00   2.003928e+01
   4.038137e+01   7.984925e+01
   1.193611e+00   8.277204e+01
  -1.300655e+02  -2.500195e+01
  -5.565616e+01  -1.467651e+02
  -5.511369e+01  -1.057261e+02
   1.223748e+02  -5.591475e+01
   6.112984e+01   1.120176e+02
  -1.136450e+01   1.493307e+02
  -2.684701e+01   5.618274e+01
  -1.124322e+02  -3.675043e+00
  -1.411314e+01  -7.463514e+00
   3.754459e+01  -3.386514e+01
   3.322471e+01  -4.278859e+01
  -2.468535e+01   3.992703e+01
  -1.025906e+02   5.591357e+00
  -3.981612e+01   1.260817e+01
   5.228902e+01  -8.757805e+01
   1.041221e+02  -7.315825e+01
   4.100013e+01   2.640130e+01
  -4.412244e+01   8.153571e+01
  -4.111461e+01   3.587675e+01
  -5.066323e+01   2.958327e+01
  -6.229939e+01  -7.345863e+01
   2.672269e+01  -5.522207e+01
  -2.098353e+00   3.602810e+00
   4.583143e+01   4.224979e+01
   7.920537e+00   2.239901e+01
  -1.204685e+01   3.052578e+01
  -7.959634e+01  -2.070224e+01
   2.737278e+01   3.158224e+01
   5.106457e+00   3.445348e+01
   5.060787e+00  -3.901251e+01
   3.894650e+01  -3.413663e+01
   1.038590e+01  -4.424567e+01
  -8.667506e+00   1.603861e+01
  -4.603423e+00   1.974472e+01
   1.457245e+01   7.035845e+01
  -3.785888e+01   2.422681e+01
  -3.029662e+01  -1.587852e+01
  -2.265620e+01  -3.392750e+01
   2.661029e+01  -4.593047e+01
   6.038183e+01   7.233984e+01
   6.778996e+01   8.506473e+00
  -3.351702e+01  -6.270737e+00
  -6.828144e+01   1.243167e+01
  -1.642640e+01  -1.758606e+01
   9.487703e+00  -1.923026e+01
   3.127952e+01   4.838587e+00
  -3.058470e+01   2.533547e+01
  -1.087759e+02   2.007141e+01
