
 $NMID
 id='ANONYMOUS ', fmtdat='(2E16.6)'
 volume=1.0
 tramp=1.0
 $END
  -3.054561e+03   1.643455e+02
  -2.498497e+03  -2.066374e+03
   7.723419e+02  -2.592759e+03
   1.714410e+03  -1.081848e+03
   9.710202e+02   5.023794e+02
  -5.400003e+02   5.343382e+02
  -6.169744e+02  -4.009528e+02
   5.562635e+01  -9.745038e+02
   7.982879e+02  -7.785194e+02
   7.764697e+02   1.572618e+02
   3.975003e+02   7.782551e+02
  -1.162523e+02   9.047827e+02
  -5.529315e+02   1.460673e+02
  -2.842578e+02  -6.454210e+02
   3.140602e+02  -6.504033e+02
   5.277385e+02  -3.412816e+01
   2.224148e+02   5.552508e+02
  -2.084169e+02   5.204092e+02
  -5.770789e+02   1.401913e+02
  -3.081692e+02  -2.934432e+02
  -4.864866e+00  -4.277979e+02
   2.490834e+02  -1.969264e+02
   1.690707e+02  -2.638046e+01
  -1.192132e+02   1.634916e+00
  -4.276242e+02  -6.939319e+01
  -1.834591e+02  -4.105786e+02
   4.123018e+02  -2.801851e+02
   8.866431e+02   9.727249e+00
   4.376114e+02   6.071008e+02
  -4.405528e+02   5.510043e+02
  -7.891480e+02  -9.770579e+00
  -3.746022e+02  -4.665851e+02
   2.907872e+02  -5.690475e+02
   5.935931e+02  -1.411118e+02
   3.499391e+02   2.609185e+02
   5.302884e+01   4.028622e+02
  -1.540782e+02   1.565331e+02
  -1.231470e+02  -2.445795e+02
   2.152503e+02  -4.279850e+02
   4.550062e+02   3.380005e+00
   2.050706e+02   6.548459e+02
  -2.523710e+02   6.011311e+02
  -5.513171e+02  -4.456967e+01
  -2.355272e+02  -4.936531e+02
   2.975220e+02  -2.671135e+02
   4.108757e+02   2.645699e+02
  -1.035291e+02   5.099805e+02
  -5.168659e+02   1.897491e+02
  -6.039858e+02  -4.343404e+02
  -1.256096e+02  -5.760683e+02
   3.390022e+02  -3.490172e+02
   4.901934e+02   8.213421e-01
   3.977251e+02   3.661666e+02
  -1.646896e+02   3.534401e+02
  -4.185549e+02   6.393090e+01
  -2.411108e+02  -1.416332e+02
   1.443432e+02  -8.334672e+01
   1.237742e+02   1.236904e+02
  -1.478586e+02   1.656914e+02
  -3.463636e+02  -6.804102e+01
  -1.414713e+02  -2.985038e+02
   1.806009e+02  -2.149125e+02
   2.940740e+02  -9.069224e+01
   2.229906e+02   1.219811e+01
  -1.513746e+01   2.295031e+02
  -2.159994e+02   3.019471e+02
  -3.561348e+02   2.202399e+02
  -3.041632e+02  -1.043256e+02
  -8.610349e+01  -3.991299e+02
   1.232204e+02  -3.873549e+02
   9.269206e+01  -1.600901e+02
  -7.050228e+00   3.025642e+01
   4.464481e+01  -7.821088e+01
   2.167748e+02  -1.935466e+02
   3.169017e+02   2.499369e+01
   1.568807e+02   3.259538e+02
  -7.008718e+01   2.177035e+02
  -2.058506e+02  -9.195957e+00
  -1.904255e+02  -2.341983e+02
   1.479697e+01  -2.538996e+02
   2.704884e+02  -1.051403e+02
   3.704869e+02   8.491755e+01
   1.765263e+02   3.735977e+02
  -9.629942e+01   3.015498e+02
  -2.410228e+02   1.338958e+02
  -1.294293e+02   1.532537e+01
  -6.487965e+01   2.641588e+01
  -2.581284e+02   7.901099e+01
  -3.942758e+02  -7.936135e+01
  -3.252759e+02  -2.279059e+02
  -5.193365e+00  -3.451550e+02
   3.106605e+02  -3.333096e+02
   4.994585e+02  -2.448461e+02
   3.816007e+02   1.020664e+02
   7.208000e+01   3.109621e+02
  -9.875505e+01   1.962351e+02
  -5.944463e+01  -7.227049e+00
   1.349686e+02  -1.143379e+02
   2.107329e+02  -3.592737e+01
   8.996028e+01   2.106671e+02
  -1.611666e+02   1.385542e+02
  -1.251093e+02  -4.651844e+01
   7.926969e+00  -1.760106e+02
   1.966901e+02   1.339552e+01
   1.446314e+02   2.431502e+02
   1.784135e+01   3.645129e+02
  -1.788489e+02   2.082133e+02
  -2.940510e+02   1.283624e+01
  -2.404457e+02  -2.231476e+02
  -9.850149e+01  -2.543874e+02
   1.027392e+02  -1.620252e+02
   1.677619e+02  -1.881429e+00
   2.920930e+01  -1.008438e+01
  -8.134180e+01  -6.025303e+01
  -2.889400e+01  -1.242825e+02
   1.257263e+02  -1.313495e+02
   1.854258e+02   2.368171e+00
   6.053306e+01   1.180961e+02
  -1.084652e+02   3.254199e+01
  -1.171157e+01  -1.223229e+02
   1.018278e+02  -7.345105e+01
   1.931056e+02  -2.176014e+01
   2.821900e+02   8.319398e+01
   8.599319e+01   2.450442e+02
  -1.776407e+02   2.315180e+02
  -2.417576e+02   1.272264e+02
  -1.190491e+02  -5.699725e+01
   1.643652e+01  -1.412227e+02
   1.500155e+02  -7.338201e+00
  -3.329882e+01   1.239988e+02
  -1.331192e+02   1.030956e+02
  -2.143527e+02  -2.341015e+01
  -5.297466e+01  -2.613057e+02
   1.145843e+02  -1.910147e+02
   1.528376e+02  -1.467686e+01
   8.669094e+01   6.180188e+01
  -5.508812e+01  -5.213932e-01
  -1.143559e+01  -1.460647e+02
   6.983231e+01  -1.027613e+02
   1.993900e+02  -4.433247e+01
   2.659617e+02   1.174456e+02
   4.007174e+01   2.213951e+02
  -1.770772e+02   1.358327e+02
  -1.748063e+02   3.131843e+01
  -5.395663e+01  -1.142122e+02
   6.806468e+01  -6.885911e+01
   4.901116e+01  -5.492698e+01
   1.885345e+01   4.980697e+01
  -3.727398e+01  -8.722695e+00
   2.878518e+01   1.366696e+01
   8.428094e+01  -4.762920e+01
   7.040047e+01   1.008867e+02
   5.515074e+01   1.592893e+02
  -1.391258e+02   1.448303e+02
  -2.192562e+02  -3.715560e+00
  -1.968477e+02  -1.143054e+02
  -3.143717e+01  -2.317525e+02
   1.370913e+02  -1.528977e+02
   1.037333e+02   7.408681e+00
   1.141884e+02   1.070704e+02
   3.031572e+01   1.005235e+01
   5.229961e+01  -5.123228e+01
   6.976311e+01   1.120707e+01
   6.608134e+01   8.159488e+01
  -5.494634e+01   1.110676e+02
  -9.269079e+01   2.825113e+01
  -7.446157e+01  -1.877242e+01
   5.597471e+01  -1.305308e+02
   1.379748e+02  -8.934350e+01
   1.878189e+02   4.631076e+01
   1.150695e+02   2.114295e+02
  -6.263737e+01   2.335297e+02
  -2.137872e+02   7.467911e+01
  -2.578389e+02  -1.120362e+02
  -1.405506e+02  -1.270843e+02
   3.515960e+01  -1.257979e+02
   6.640237e+01  -1.034784e+02
   6.859793e+01  -5.287050e+01
   7.780660e+01  -1.019664e+02
   7.870774e+01  -8.071333e+01
   1.460274e+02   2.612750e+01
   1.572964e+02   1.548974e+02
   2.646745e+01   2.715302e+02
  -9.903877e+01   1.633285e+02
  -1.417905e+02  -5.785648e-01
  -1.050639e+02  -1.601029e+02
  -5.667276e+01  -1.847077e+02
   6.608097e+01  -1.024994e+02
   4.211716e+01   2.117700e+01
  -5.011784e+00   3.889852e+01
  -7.964390e+00   3.795396e+01
   1.080597e+01  -5.808180e+00
   8.593543e+01   7.973095e+00
   5.986347e+01   4.017606e+01
  -3.671346e+01   7.764297e+01
  -1.110144e+02   2.141266e+01
  -1.337443e+02  -4.339596e+01
  -2.779115e+01  -8.685794e+01
   1.405987e+02  -1.084450e+02
   1.412916e+02  -3.850869e+00
   2.857936e+01   4.544451e+01
  -5.031163e+01   4.132895e+01
  -4.950999e+01  -6.107830e+01
  -9.989755e+00  -7.716917e+01
   4.444040e+01  -6.828567e+01
   8.316969e+01   4.223604e+00
   3.542248e+01   5.397508e+01
   1.906963e+01   3.486556e+01
   3.849900e+01   4.304069e+01
   3.638142e+01   9.750329e+00
   8.493496e+01   8.131478e+01
  -1.181645e+01   1.134682e+02
  -1.324146e+02   1.459463e+02
  -1.811056e+02   4.376848e+01
  -1.127426e+02  -8.680222e+01
  -5.260788e+00  -1.134994e+02
   1.138125e+02  -8.553947e+01
   4.454740e+01   1.681329e+01
  -6.334044e+01   5.082620e+01
  -9.657761e+01  -3.237245e+01
  -6.257750e+01  -1.156479e+02
   1.111913e+02  -9.136819e+01
   1.636272e+02  -5.075110e+01
   1.956287e+02  -3.668205e+00
   5.657453e-01   8.661831e+01
  -7.964439e+01   6.935541e+01
  -2.763998e+01   4.182221e+00
   6.623947e+01  -5.984741e+01
   6.807118e+01  -5.735289e+00
   2.809615e+01   7.081615e+01
  -5.178469e+01   8.784952e+01
  -1.385950e+02   7.979969e+01
  -1.466658e+02  -8.945252e+01
   1.527828e+01  -1.948536e+02
   1.052176e+02  -1.756245e+02
   7.310553e+01   1.599566e+01
   8.106547e+01   1.020191e+02
  -1.621949e+01   1.316208e+02
   8.585073e-01   2.542996e+01
  -6.490687e+01  -3.005499e+01
  -4.617346e+00  -5.204266e+01
  -7.599639e+00   1.368060e+01
   1.179088e+01  -2.593661e+00
  -4.088943e+01  -1.087777e+02
  -3.270113e+01  -5.874309e+01
   4.889020e+01  -4.164612e+01
   1.564700e+02  -9.500256e-02
   1.393820e+02   6.170659e+01
   9.167350e-01   3.896591e+01
  -1.143818e+02   3.306681e+01
  -7.356843e+01   3.283398e+01
  -2.027484e+01  -8.219865e+00
   4.588742e+01  -2.926759e+01
   3.294195e+01   8.154274e+00
  -5.537110e+01  -2.765953e+01
  -8.828965e-01   3.696636e+01
   5.899203e+01   1.289556e+01
   7.505281e+01   5.239967e+00
   6.791175e+00   7.043970e+01
  -1.304685e+02   1.300787e+02
  -1.723802e+02   7.503456e+01
  -1.586732e+02  -6.888219e+01
  -3.300278e+01  -1.616541e+02
   9.415907e+01  -1.480712e+02
   5.921351e+01  -5.084215e+01
   7.083214e+01  -1.994343e+01
   2.819608e+01   6.261906e+01
  -2.627579e+01   1.255103e+01
   1.492205e+01   2.473020e+01
   6.390982e+01   2.791307e+01
  -5.365854e+01   9.458919e+01
  -4.882129e+01   3.216436e+01
  -1.082224e+02  -3.992255e+01
  -8.198859e+01  -1.444679e+02
   8.498476e-03  -1.064144e+02
   8.364941e+01  -3.697729e+01
   1.330810e+02   8.052713e+01
   4.315032e+01   1.026166e+02
  -8.646494e+01   1.208394e+00
  -9.293644e+01   1.923460e+01
  -7.208359e+01  -2.776212e+01
   6.374758e+01  -5.548648e+01
   4.930285e+01  -4.932272e+01
  -2.408574e+01  -7.101905e+00
  -2.929339e+01  -1.431692e+01
  -1.323533e+01  -9.714731e+00
   6.606265e+01  -8.522651e+01
   1.018146e+02  -2.554502e+01
   5.103330e+01   2.666933e+01
   5.293234e+00   6.993674e+01
  -5.190145e+01   1.038346e+02
  -2.147918e+01  -1.733964e+01
   1.952746e+01  -5.740209e+01
   1.991583e+01  -6.862008e+01
   3.118520e+01   2.361902e+01
   2.018406e+01   6.967923e+01
   1.159803e+01   3.963660e+01
  -4.017910e+01   7.255395e+00
  -6.925907e+01  -3.319402e+01
  -2.953999e+01   1.399245e+01
   3.399816e+00  -1.177547e+01
   8.122551e-01  -3.442468e+01
   3.754561e+01  -3.893389e+01
  -1.185905e+01  -4.240895e+01
   5.719554e+01   1.307228e+01
  -7.667428e+00   5.303170e+01
  -3.466696e+01   5.149521e+01
  -2.318695e+01   2.308872e+00
  -8.367822e+00   6.327209e-01
  -5.040489e+01  -2.249086e+01
   2.926417e+01  -6.517462e+01
   9.382598e+01  -1.828214e+00
   3.255801e+01   7.490740e+01
  -1.588992e+01   2.306331e+01
  -6.409730e+01   6.979366e+01
   2.020129e+01   1.877972e+01
   2.980384e+01  -5.687497e+00
   4.138133e+01   2.167952e+01
   1.379066e+01   4.057147e+01
  -8.667685e+01   5.802050e+00
