
 $NMID
 id='ANONYMOUS ', fmtdat='(2E16.6)'
 volume=1.0
 tramp=1.0
 $END
  -2.283483e+03  -4.054673e+02
  -9.739769e+02  -1.293741e+03
   1.643936e+02  -1.391199e+03
   1.388701e+03  -1.677912e+02
   5.438582e+02   2.639965e+02
  -1.929315e+02   1.608539e+02
  -3.001942e+02  -1.064942e+02
   3.533961e+02  -4.463564e+02
   4.879281e+02  -3.280838e+02
   4.548663e+02   1.870677e+02
   1.909513e+02   3.067955e+02
  -2.089065e+02   3.862787e+02
  -3.343816e+02   7.621165e+01
  -3.302135e+02  -3.618288e+02
   1.221426e+02  -3.563755e+02
   2.721143e+02   8.154160e+01
   1.223376e+02   3.094517e+02
  -1.129082e+02   4.079644e+02
  -3.780276e+02  -4.098250e+01
  -2.618430e+02  -1.122184e+02
  -6.013847e+01  -1.743683e+02
   1.095534e+02  -1.435336e+02
   1.166655e+02  -1.589144e+01
  -7.367082e+01  -6.510248e+00
  -1.896361e+02  -1.391116e+02
  -7.686554e-01  -2.820843e+02
   2.325288e+02  -1.265020e+02
   3.967081e+02   2.689734e+01
   2.020157e+02   1.927043e+02
  -1.287630e+02   1.723472e+02
  -3.217815e+02  -1.140716e+02
  -2.096909e+02  -2.193420e+02
   1.471559e+02  -2.795803e+02
   2.540393e+02   4.765183e+00
   1.997072e+02   1.242851e+02
   2.127996e+01   2.833786e+02
  -1.199950e+02   1.596786e+02
  -1.269797e+02  -1.036588e+02
   1.072303e+02  -1.740232e+02
   3.047900e+02   6.377311e+01
  -2.946717e+01   4.481726e+02
  -1.848834e+02   3.402069e+02
  -3.333778e+02   1.000008e+02
  -1.583641e+01  -2.873685e+02
   1.128936e+02  -1.473230e+02
   7.778887e+01   1.594095e+02
   7.390412e+00   1.572733e+02
  -2.654641e+02  -7.986664e+01
  -2.700020e+02  -2.377097e+02
  -9.031075e+01  -2.222797e+02
   1.496518e+02  -1.782508e+02
   2.958589e+02   5.351985e+01
   1.928079e+02   1.734188e+02
   3.288076e+01   1.406578e+02
  -2.107890e+02   2.108760e+01
  -1.162637e+02  -1.470490e+02
   1.053424e+01  -5.192092e+01
   8.752181e+01   4.386018e+01
  -9.971441e+01   6.988034e+01
  -1.127417e+02  -9.202457e+01
  -2.071829e+00  -1.250703e+02
   9.907309e+01  -1.250053e+02
   1.432044e+02  -4.739046e+00
   6.667256e+01   4.601735e+01
  -2.374577e+01   1.188238e+02
  -1.191104e+02   1.679135e+02
  -1.124750e+02   6.948564e+01
  -1.140251e+02  -8.521425e+01
  -7.612367e+00  -2.163824e+02
   8.047807e+01  -1.895242e+02
   8.793244e+01  -1.121223e+02
   7.505838e+01  -3.802121e+01
   3.630008e+01  -4.675334e+01
   1.196876e+02  -8.269077e+01
   1.387008e+02   4.582942e+01
   5.172739e+01   7.185036e+01
  -8.069224e+01   1.178452e+02
  -9.259524e+01  -3.371451e+01
  -1.071102e+02  -1.572006e+02
  -5.947507e+00  -1.408890e+02
   8.794343e+01  -2.073462e+01
   1.249580e+02   1.225547e+02
   6.417396e+01   1.460459e+02
  -8.803580e+01   1.584796e+02
  -6.387300e+01   1.786044e+01
  -1.224965e+02  -3.049470e+01
  -8.672668e+00   2.319871e+01
  -6.122120e+01  -1.367680e+01
  -1.428021e+02  -1.137660e+02
  -1.674823e+02  -1.370738e+02
  -2.522455e+01  -2.110312e+02
   1.864809e+02  -1.047552e+02
   2.064296e+02  -7.652465e+01
   1.304118e+02   2.305737e+01
  -1.130440e+01   1.430452e+02
  -6.486409e+01   1.001865e+02
  -7.603695e+00   3.966096e+01
   6.602929e+00  -3.790212e+01
   1.091711e+02   2.350984e+01
   2.632092e+00   7.778853e+01
  -5.886086e+01   1.094072e+02
  -1.542949e+02   1.294810e+00
  -1.679128e+01  -3.762334e+01
   5.068561e+01  -2.589509e+01
   4.447664e+01   1.824572e+02
  -1.942574e+00   1.572870e+02
  -1.008653e+02   8.788032e+01
  -1.546526e+02  -4.613656e+01
  -1.497672e+02  -1.352259e+02
  -9.497901e+01  -4.765101e+01
   4.879398e+01  -9.039529e+01
   7.448438e+01  -3.263100e+01
   2.654024e+01   3.876769e+00
  -3.769811e+01  -8.478931e+00
  -1.115135e+01  -5.448941e+01
   2.502779e+01  -3.781560e+01
   6.918101e+01   6.084171e+01
   3.532982e+01   4.834739e+01
  -6.134654e+01  -1.158493e+01
  -5.325287e+01  -3.522294e+01
   5.569782e+01  -5.287668e+01
   1.024962e+02   3.461822e+01
   1.165078e+02   3.827325e+01
  -2.549343e+01   1.436077e+02
  -8.713016e+01   1.162881e+02
  -1.723289e+02   7.908677e+01
  -4.246864e+01  -8.498056e+00
   2.275203e+01  -4.728083e+00
   2.354782e+01  -2.308508e+01
   5.021644e+00   4.955101e+01
  -9.229296e+01   2.609954e+00
  -1.040826e+02  -6.412107e+01
  -2.551910e+01  -1.090503e+02
   8.610679e+00  -6.938287e+01
   3.610229e+01  -8.470243e+00
  -1.070471e+01   6.049687e+01
  -3.160424e+01   9.709958e+00
  -9.565316e+00  -3.787225e+01
   7.270494e+01  -2.793542e+01
   9.353126e+01  -1.165429e+01
   4.692479e+01   2.770710e+01
   1.889117e+01   7.083970e+01
  -8.598366e+01   6.272374e+01
  -5.713671e+01   1.796262e+01
  -3.631954e+01  -6.260538e+01
   1.361123e+01  -1.524278e+01
   3.500093e+01  -1.710681e+01
   1.167132e+01   3.033077e+01
  -4.000153e+01   5.649844e+00
   3.027933e+00   4.883847e+00
   2.909091e+01   1.494111e+01
   1.554760e+01   3.196883e+01
   1.849238e+00   9.740157e+01
  -5.358228e+01   1.017262e+02
  -1.170823e+02  -9.692053e+00
  -6.816444e+01  -8.836788e+01
  -1.677578e-01  -1.119963e+02
   4.451196e+01  -5.245578e+01
   7.537640e+01  -1.866605e+01
   2.937703e+01   5.022968e+01
   3.118137e+01   3.766636e+01
   2.826070e+01  -4.303695e+00
   2.601389e+01   3.802864e+01
  -7.180325e+00  -8.944342e+00
   4.935453e+00   3.720241e+01
  -7.159236e+01   2.735471e+00
  -7.502042e+01  -1.979263e+01
  -1.806175e+01  -3.670531e+01
   5.570275e+01  -7.247146e+00
   1.130999e+02   3.209086e+01
   8.255234e+01   5.229256e+01
  -6.308686e+01   1.389444e+02
  -1.666136e+02   3.304323e+00
  -1.121063e+02  -7.609208e+01
  -5.099666e+01  -9.135611e+01
   1.133410e+01  -5.341819e+01
   7.631814e+01  -6.602984e+01
   3.662537e+01  -4.597339e+01
   9.030450e+01  -2.264797e+01
   3.298988e+01  -1.478703e+01
   9.017687e+01   3.887844e+00
   2.518550e+01   5.206094e+01
   1.465421e+01   5.399373e+01
  -5.042611e+01   8.323305e+01
  -7.312434e+01  -9.612156e+00
  -3.556507e+01  -6.228948e+01
  -2.257939e+00  -8.998004e+01
   2.648021e+01  -3.874128e+01
   2.230358e+01  -3.084152e+01
  -2.899831e+01  -7.586590e+00
  -1.424415e+01  -3.241664e+01
   1.937182e+01   1.530159e+01
   4.583251e+01   4.940405e+01
   1.258418e+01  -8.723473e+00
  -5.450103e+01  -7.835162e+00
  -3.257029e+01  -8.541546e+00
  -7.396907e+01  -2.382442e+01
   9.084908e+00  -5.344784e+01
   4.020400e+01  -3.353893e+01
   1.028897e+02  -2.414474e+00
   1.645065e+01   8.409130e+00
  -4.031943e+01   3.713085e+01
  -1.101486e+01  -1.526461e+00
  -1.700544e+01  -4.875907e+01
   1.573491e+01  -2.906696e+01
   1.048626e+01   3.322056e+01
  -3.066804e+01   5.279843e+00
   3.016088e+01  -2.851184e+01
   8.722372e+01  -1.860596e+01
   1.517975e+01  -2.256028e+01
   3.295184e+01   1.831064e+01
  -3.234327e+01   3.141995e+01
  -5.818576e+01   1.192624e+02
  -5.951842e+01   3.856135e+01
  -9.434585e+01  -6.277109e+01
  -1.724019e+00  -3.234909e+01
   4.999567e+01   7.089194e+00
   1.551845e+01   3.192069e+01
  -1.090456e+01   2.959278e+01
  -3.014215e+01  -3.276824e+01
  -5.043887e+01  -7.216807e+01
   5.038451e+01  -6.251149e+01
   7.544000e+01  -5.987551e+01
   1.798766e+01   1.872665e+01
   6.119421e+01   4.066526e+01
  -2.594918e+01   3.992611e+01
  -2.890214e+01   6.151810e+00
   3.855970e+00  -8.949694e+00
   1.795458e+01   2.981131e+00
   5.686963e+00   6.779444e+01
  -4.657826e+01   8.207355e+01
  -9.526052e+01   2.384287e+01
  -9.271689e+01  -1.264131e+01
  -1.740145e+01  -9.842885e+01
   5.233369e+01  -6.168345e+01
   3.013096e+01   2.050781e+01
   9.082833e+01   2.954976e+01
  -2.146990e+01   5.350325e+01
   1.321018e+01  -8.956894e-01
  -4.170207e+01  -1.751270e+01
   8.235535e+00  -9.990269e+00
   1.408249e+01   2.243052e+01
   9.842712e+00   8.608107e+00
   9.372480e+00  -1.149811e+01
  -2.569437e+01  -6.509908e+01
   3.206958e+01  -1.399468e+01
   3.740104e+01   1.490135e+01
   7.456575e+01   3.750443e+01
  -9.440340e+00   1.580465e+01
  -2.027151e+01   2.024917e+01
  -4.948950e+01  -1.002063e+01
   3.210040e+01   5.950362e+00
   3.171076e+01  -1.667319e+01
  -2.516463e+00   1.082967e+01
   2.491497e+01   2.348927e+01
  -6.371524e+01   1.594651e+01
  -6.306291e+00  -1.003997e+01
   4.739118e+01  -2.375408e+01
  -3.041758e+01   2.684369e+01
  -6.793051e+01   5.072752e+01
  -8.431146e+01   6.637596e+00
  -5.812482e+01  -4.467355e+01
   9.252373e-01  -7.792195e+01
   2.714316e+01  -4.104691e+01
   8.246003e+01  -1.620732e+01
   1.312420e+01   3.708010e+01
  -1.042758e+01   2.229355e+01
   3.446823e+01   1.693909e+01
   1.608981e+00   1.807631e+01
   5.486978e+01  -7.784813e+00
  -2.125540e+01   6.451043e+01
  -1.479304e+01   3.860914e+01
  -2.902398e+01  -4.851091e+00
   5.750965e-01  -8.561005e+00
  -9.657061e+00  -3.805314e+01
   5.216182e+01  -9.968547e+00
   3.360066e+01   5.385305e+01
   2.920761e+01   3.130678e+01
  -1.925186e+01   3.246668e+01
  -8.965187e+01  -6.092793e+00
  -2.239939e+01  -3.055852e+01
  -2.593623e+01  -2.326735e+01
   3.649078e+01  -1.281444e+01
  -2.720450e+01  -1.797026e+00
  -4.040035e+01  -1.160247e+01
  -2.459460e+01   6.060881e+00
   5.865544e+00  -1.400673e+01
   2.877824e+01  -5.790154e+00
   2.444131e+01   1.347544e+00
  -3.566294e+01   6.474955e+00
  -6.795145e+00   5.084783e+01
  -1.221966e+01  -1.778514e+01
  -5.574867e+00  -7.703235e+00
   1.056071e+01   9.305929e+00
  -4.926366e+01   2.801802e+01
   3.169124e+00   2.451767e+01
  -7.345891e+00   2.236294e+01
  -1.335901e+01  -3.030400e+01
  -3.232560e+01   8.078980e+00
   8.080990e+00  -1.622020e+01
   2.021159e+01   5.846659e+01
  -1.068183e+01   3.600784e+01
   3.174866e+00   2.140919e+01
  -3.143042e+01  -3.515482e+01
  -1.243270e+01  -1.315155e+01
   3.394363e+01   2.235974e+01
  -4.696244e+01   1.755773e+01
  -2.288659e+01  -2.597640e+00
  -1.314733e+01  -2.726407e+01
   1.201554e+01  -5.171693e+01
   4.349236e+01   1.579206e+00
   3.010911e+01   2.003608e+01
   1.419405e+00  -2.417074e+00
  -1.538758e+01   4.828084e+01
  -4.392434e+01  -1.433810e+01
   4.356435e+00   7.476310e+00
   7.204284e+00   7.861961e+00
   2.200707e-01   9.400075e+00
  -3.382199e+01  -1.544143e+01
  -5.510367e+01   1.270154e+00
