
 $NMID
 id='ANONYMOUS ', fmtdat='(2E16.6)'
 volume=1.0
 tramp=1.0
 $END
   3.100246e+03   5.841752e+01
   2.336472e+03   1.555140e+03
   1.867180e+02   2.610604e+03
  -1.641634e+03   1.080540e+03
  -1.051939e+03  -3.167489e+02
   6.496641e+01  -3.842717e+02
   6.874678e+02   1.013411e+02
   1.158357e+02   6.353234e+02
  -6.755586e+02   8.464507e+02
  -6.298498e+02   8.639040e+00
  -3.638468e+02  -5.519670e+02
  -2.266341e+01  -7.725619e+02
   4.270595e+02  -2.225647e+02
   2.802552e+02   5.866587e+02
  -2.807981e+02   5.964776e+02
  -4.494472e+02   9.612246e+01
  -3.139517e+02  -5.772052e+02
   1.544046e+02  -6.189413e+02
   4.168384e+02  -2.281467e+02
   3.795388e+02   2.570464e+02
   7.312642e+01   3.783348e+02
  -1.083047e+02   2.894784e+02
  -1.142888e+02   2.095322e+01
   5.818003e+01   7.153890e+01
   3.141999e+02   2.305545e+02
   7.284805e+01   3.980193e+02
  -4.596878e+02   2.097275e+02
  -7.168964e+02  -1.029169e+02
  -2.762641e+02  -4.768608e+02
   3.032218e+02  -3.325717e+02
   6.016202e+02  -3.191675e+01
   3.430439e+02   4.020259e+02
  -2.239736e+02   3.988391e+02
  -4.708809e+02   1.475873e+02
  -3.463535e+02  -2.692961e+02
  -2.436943e+01  -3.426604e+02
   3.793078e+01  -2.251788e+02
   7.574701e+01   8.353400e+01
  -1.104150e+02   3.046522e+02
  -3.373064e+02  -1.372747e+01
  -2.686100e+02  -4.154941e+02
   2.181323e+02  -5.172685e+02
   4.002066e+02  -5.084039e+01
   2.478890e+02   4.204858e+02
  -1.583217e+02   2.179227e+02
  -2.241611e+02  -1.948101e+02
   8.924204e+01  -3.652743e+02
   4.871949e+02  -9.886756e+01
   5.371916e+02   4.154087e+02
   1.858185e+02   4.352173e+02
  -2.808908e+02   2.216309e+02
  -4.596509e+02  -8.001278e-01
  -3.426458e+02  -3.244942e+02
   1.300286e+02  -2.694501e+02
   2.804247e+02  -5.454491e+01
   2.310488e+02   5.070568e+01
  -5.220927e+01   1.822934e+01
  -1.211931e+02  -8.815834e+01
   1.022884e+02  -1.224501e+02
   3.047226e+02   7.986323e+01
   1.111863e+02   2.207672e+02
  -1.119958e+02   2.175207e+02
  -3.240890e+02   1.305608e+02
  -2.714403e+02  -6.052434e+01
   4.771516e+01  -2.357375e+02
   2.626829e+02  -3.477387e+02
   3.277396e+02  -1.613065e+02
   2.090701e+02   1.255058e+02
   2.959419e+01   3.548942e+02
  -8.629183e+01   3.336252e+02
  -9.523688e-01   1.372506e+02
   1.463522e+01   3.658004e+01
  -6.631889e+01   4.809798e+01
  -2.051145e+02   1.032033e+02
  -2.605211e+02  -4.139842e+01
  -1.302470e+02  -2.013542e+02
   5.871905e+01  -2.128407e+02
   1.691371e+02   2.110856e+01
   2.146022e+02   2.033752e+02
  -1.722578e+01   2.352720e+02
  -1.684934e+02   8.029908e+01
  -3.661111e+02  -1.135581e+02
  -1.534625e+02  -2.347219e+02
   9.392845e+01  -2.608719e+02
   1.790828e+02  -1.310245e+02
   1.433602e+02  -3.095000e+01
   1.088077e+02  -1.175083e+01
   2.607154e+02  -2.587936e+01
   3.056242e+02   1.883964e+01
   3.315436e+02   2.296595e+02
  -1.491757e+01   3.532306e+02
  -3.172245e+02   3.611496e+02
  -3.996850e+02   2.426950e+02
  -3.426051e+02  -1.508901e+02
  -3.381167e+01  -2.472999e+02
   7.098407e+01  -1.579593e+02
   7.284461e+00  -4.276338e+01
  -8.553322e+01   9.076497e+01
  -2.299942e+02   9.179916e+00
   2.584267e+01  -1.296868e+02
   8.281659e+01  -1.757418e+02
   1.431516e+02   1.856121e+01
   2.246881e+00   1.555824e+02
  -1.538624e+02   1.987873e+01
  -1.452519e+02  -1.841378e+02
   3.381962e+00  -3.593757e+02
   1.845221e+02  -2.184935e+02
   2.868885e+02   2.252234e+01
   2.215330e+02   2.451347e+02
   1.241405e+02   2.455916e+02
  -1.109186e+02   1.116394e+02
  -1.788660e+02   2.273586e+01
  -1.837423e+01   1.120594e+01
   2.108391e+01   3.754405e+01
   7.577511e+01   9.006264e+01
  -9.906032e+01   7.468393e+01
  -8.895467e+01  -5.311014e+01
  -2.822955e+01  -6.521105e+01
   8.457496e+01   1.065273e+01
   5.746946e+01   8.724243e+01
  -1.009348e+02   5.443266e+01
  -2.191829e+02  -4.032584e+01
  -2.340747e+02  -1.168459e+02
  -3.894016e+01  -2.141959e+02
   1.791690e+02  -2.363925e+02
   2.573425e+02  -4.878780e+01
   1.297096e+02   3.973261e+01
  -2.507349e+01   6.719087e+01
  -1.015201e+02  -8.768375e+00
   5.428081e+01  -9.052043e+01
   1.160816e+02  -6.124497e+01
   1.768690e+02   8.316744e+01
   2.167620e+01   2.299306e+02
  -9.097546e+01   1.698897e+02
  -9.278172e+01   3.490127e+01
  -7.673155e+01  -6.496067e+00
   6.011005e+00  -2.140912e+01
   4.143176e+01   7.783629e+01
  -8.488562e+01   1.037824e+02
  -1.745946e+02   4.224023e+01
  -2.144110e+02  -1.003205e+02
  -2.317374e+01  -1.617267e+02
   1.499118e+02  -1.602430e+02
   2.193978e+02  -4.315967e+01
   5.240216e+01   1.297319e+02
  -3.993948e+01   9.025555e+01
  -7.137875e+01   1.051082e+01
   1.636796e+01  -1.294161e+01
   4.023744e+01  -9.464477e+00
  -1.847899e+01   5.190049e+01
  -4.087115e+01   1.176409e+01
  -8.205174e+01  -7.620013e+01
  -5.413003e+01  -2.182405e+02
   1.710589e+02  -1.044870e+02
   2.344786e+02   5.691881e-01
   1.726026e+02   1.093490e+02
   2.158203e+01   2.639024e+02
  -5.037247e+01   1.571643e+02
  -1.164325e+02   2.814552e+00
  -1.044737e+02  -4.868071e+01
  -4.191888e+01  -8.674543e+00
  -6.243945e+01   4.324178e+01
  -6.398625e+01   6.231514e+00
  -7.237940e+01  -6.672731e+01
   4.923877e+01  -8.499349e+01
   1.283029e+02  -9.113855e+01
   2.125605e+01   6.165263e+01
   1.296340e+01   9.089493e+01
  -1.278876e+02   1.097047e+02
  -1.793699e+02  -2.341780e+01
  -1.028478e+02  -1.808925e+02
   4.536331e+01  -2.036553e+02
   2.215647e+02  -6.124108e+01
   2.001023e+02   1.206101e+02
   1.205797e+02   9.877942e+01
  -4.264066e+01   1.420147e+02
  -5.052942e+01   8.656639e+01
  -6.962019e+01   7.305750e+01
  -5.085382e+01   8.097781e+01
  -8.322143e+01   1.030023e+02
  -1.344635e+02  -4.089574e+01
  -1.457278e+02  -1.708168e+02
  -2.230097e+01  -2.306990e+02
   4.994661e+01  -1.647546e+02
   1.723360e+02   5.652394e+00
   1.009322e+02   1.410533e+02
   2.873901e+01   1.634281e+02
  -6.393773e+00   5.494722e+01
  -5.557656e+01   6.960510e+00
  -7.502521e+00  -3.354757e+01
   4.157803e+01  -1.679038e+01
  -2.642919e+01  -2.834672e+00
  -1.331435e+02   1.381932e+01
  -5.269873e+01  -5.412459e+01
   8.675413e+01  -6.911569e+01
   1.986283e+02  -5.188713e+01
   9.736293e+01   5.688013e+01
   9.196686e+00   8.083809e+01
  -9.620497e+01   7.813380e+01
  -1.176761e+02  -1.312957e+01
  -7.180115e+01  -4.901133e+01
   4.259982e+01  -7.272771e+01
   8.649659e+01   4.456491e+01
   2.822140e+01   7.279298e+01
  -8.887535e+01   1.529900e+01
  -4.806220e+01  -2.682374e+01
  -8.149923e+01  -4.515388e+01
  -2.236998e+01  -8.183784e+01
  -5.173846e+01  -1.164696e+01
  -6.973793e+01  -3.190040e+01
  -2.373603e+01  -8.450380e+01
   4.178667e+01  -9.237323e+01
   1.021616e+02  -1.631859e+02
   1.706525e+02   1.324908e+01
   1.128152e+02   7.787819e+01
  -3.352268e+00   1.235871e+02
  -1.439756e+02   7.156688e+01
  -5.266678e+01  -3.791687e+00
   6.316566e+01   4.969874e+00
   1.157378e+02   7.713191e+01
   6.121942e+01   9.508424e+01
  -7.838759e+01   9.035353e+01
  -1.815722e+02   4.915886e+01
  -1.640556e+02  -1.672215e+01
  -5.270096e+01  -7.987652e+01
   6.515143e+01  -5.024937e+01
   6.051990e+01   7.648640e+00
  -8.625374e-01   2.100832e+01
  -9.371759e+01  -2.792168e+01
  -3.542727e+01  -1.461026e+02
   9.367864e+01  -1.346131e+02
   1.499500e+02  -7.882625e+01
   1.197697e+02   4.460043e+01
   2.184501e+01   1.686127e+02
  -1.108060e+02   1.484082e+02
  -7.245977e+01  -4.511034e+01
  -6.488962e+01  -1.030374e+02
   4.347140e+01  -5.800379e+01
   3.257461e+01  -1.149402e+01
   7.036801e+01   1.773356e-01
   4.690379e+01   1.594802e+01
  -4.213566e+01   9.210694e-01
   2.344743e+00   2.067544e+01
   5.490123e+01   1.288028e+02
   1.772539e+01   1.116998e+02
  -4.026576e+01   1.055698e+02
  -1.283043e+02  -1.669045e+01
  -5.961066e+01  -5.231177e+01
  -2.536682e+00   4.871938e-01
   1.154819e+02  -2.656456e+01
   7.246893e+01  -6.119740e+00
  -3.340310e+01  -1.898420e+01
  -1.951726e+01   1.856289e+01
  -3.055193e+01   1.731223e+01
   1.691659e+01  -3.101611e+01
  -2.247804e+01  -1.067008e+01
  -2.613692e+01  -2.568175e+00
  -9.531089e+01   4.595255e+00
  -3.249462e+01  -7.296570e+01
   8.665498e+01  -1.573171e+02
   1.670438e+02  -8.600441e+01
   1.026396e+02   5.223013e+01
   3.937921e+01   1.657496e+02
  -1.161309e+02   1.737001e+02
  -6.577285e+01   8.386833e+01
  -4.235289e+01  -3.399939e+00
  -4.460366e+01  -7.790781e+01
   1.554041e+01   2.828231e+01
   4.021725e+00  -1.872667e+01
  -5.923755e+01  -2.654170e+01
  -3.166225e+01  -8.761132e+01
  -2.924889e+01  -7.902453e+01
   8.254146e+01  -4.266356e+00
   6.010042e+01   8.359981e+01
  -1.301932e+01   1.147610e+02
  -7.916704e+01   4.969820e+01
  -9.138220e+01  -6.769351e+01
  -9.021855e+00  -7.499177e+01
   9.333517e+01  -3.016320e+01
   7.999778e+01  -6.104856e+01
   7.338554e+01   5.161960e+01
  -3.683834e+01   7.768745e+01
  -3.480217e+01   1.374438e+01
   2.020592e+01  -1.287791e+00
   4.515812e+01  -3.989576e+00
   3.720818e+01   1.775036e+01
  -1.235595e+02   1.194679e+01
  -1.130129e+02   9.720944e+01
  -6.825505e+01  -2.421201e+01
   1.373928e+01  -7.720491e+01
   8.527612e+01  -8.176063e+01
   1.029578e+01   7.067099e+00
  -3.867089e+01   5.208009e+01
  -1.302370e+01   5.152039e+01
  -1.600364e+01  -1.118773e+01
   1.534821e+00  -9.839700e+01
   6.863391e+00  -2.091157e+01
   2.336149e+01  -1.833863e+01
   1.370189e+01   5.100648e+01
  -1.091762e+01   4.349786e+01
  -2.920598e+01  -2.817473e+01
  -8.059621e+00  -5.603253e+00
  -3.336743e+01   2.493902e+01
  -5.086554e+01   4.796389e+01
  -3.186799e+01   4.684954e+01
  -2.966120e+01  -1.592269e+01
  -4.825728e+01  -3.611920e+01
   9.425998e+01  -1.761261e+01
   2.558014e+01   1.072212e+01
   5.025590e+01   3.539578e+01
  -5.145797e+01   5.213592e+01
  -1.208768e+02  -3.082118e+01
  -2.888892e+01  -2.575662e+01
   7.062520e+00  -5.022307e+01
   8.581045e+01  -2.603876e+00
  -1.213483e+01   9.046736e-01
  -1.658087e+01   1.532402e+01
  -2.647957e+01  -2.912976e+00
  -1.484608e+01  -1.025549e+01
   8.916470e+01  -3.748835e+01
