
 $NMID
 id='ANONYMOUS ', fmtdat='(2E16.6)'
 volume=1.0
 tramp=1.0
 $END
   3.029411e+03  -1.474695e+02
   2.036105e+03   1.716020e+03
  -4.282328e+02   1.813414e+03
  -9.440649e+02   1.272919e+03
  -7.290461e+02  -9.281757e+01
   1.964229e+02  -4.116925e+02
   4.661010e+02   3.023683e+02
   4.274769e+01   6.827701e+02
  -6.285248e+02   5.242911e+02
  -6.944692e+02  -1.732709e+01
  -4.686470e+02  -6.148229e+02
   1.507739e+00  -6.015902e+02
   3.399391e+02  -1.162244e+02
   2.638870e+02   5.302300e+02
  -1.780829e+02   5.637758e+02
  -4.469662e+02   1.797659e+01
  -1.372832e+02  -4.640199e+02
   1.116727e+02  -4.641214e+02
   4.445874e+02  -7.431994e+01
   3.417517e+02   3.004041e+02
   8.345449e+01   3.961898e+02
  -1.608022e+02   2.204150e+02
  -1.337425e+02   6.016820e+01
   8.571654e+01  -5.661667e-01
   2.503310e+02   9.434750e+01
   1.055322e+02   3.191411e+02
  -3.515312e+02   2.092790e+02
  -6.451623e+02  -1.019573e+02
  -2.947582e+02  -4.503057e+02
   3.504089e+02  -3.142459e+02
   6.302428e+02   8.787997e+01
   1.929086e+02   3.751993e+02
  -1.892675e+02   4.227489e+02
  -5.283706e+02   2.928407e+02
  -3.248188e+02  -1.422395e+02
  -1.416390e+02  -4.008139e+02
   8.582841e+01  -2.345490e+02
   9.039137e+01   1.225926e+02
  -1.182456e+02   1.715851e+02
  -3.450903e+02  -1.044116e+02
  -1.993219e+02  -5.695738e+02
   2.576971e+02  -4.604533e+02
   4.410713e+02  -3.874664e+01
   2.293202e+02   3.743994e+02
  -2.499234e+02   2.178937e+02
  -2.765671e+02  -3.139966e+02
  -1.862831e+01  -4.122246e+02
   4.583095e+02  -1.216601e+02
   5.753007e+02   3.551880e+02
   1.501706e+02   4.702490e+02
  -2.771731e+02   2.913060e+02
  -4.933460e+02   4.348609e+01
  -3.127258e+02  -3.104163e+02
   1.621268e+02  -1.430917e+02
   3.278122e+02  -4.057483e+01
   2.054677e+02   9.395545e+01
  -7.625642e+00   6.600948e+01
  -1.151053e+02  -8.281613e+01
   1.203368e+02  -1.350839e+02
   2.212149e+02   9.559643e+01
   1.196384e+02   1.933507e+02
  -1.341788e+02   2.412123e+02
  -2.695107e+02   4.698770e+01
  -2.109581e+02  -1.062464e+02
   2.862135e+01  -1.676034e+02
   1.483127e+02  -3.066433e+02
   2.913726e+02  -2.135530e+02
   1.971165e+02   1.767886e+02
   4.352112e+01   4.310692e+02
  -1.229148e+02   3.541567e+02
  -7.508596e+01   1.341501e+02
  -2.077349e+01   4.819725e+01
  -4.795796e+01   8.833948e+01
  -1.564933e+02   7.184716e+01
  -1.876454e+02  -7.848300e+01
  -1.569891e+02  -2.140891e+02
   5.630053e+01  -2.293849e+02
   2.232210e+02   1.211310e+01
   1.221037e+02   2.201035e+02
  -1.995798e+01   2.174790e+02
  -3.049383e+02   1.026534e+02
  -3.006540e+02  -1.421086e+02
  -1.731533e+02  -2.959509e+02
   5.655317e+01  -2.380246e+02
   1.332316e+02  -1.330658e+02
   1.422743e+02  -5.598319e+01
   1.297559e+02  -4.561579e+01
   2.059717e+02  -1.091125e+01
   3.482514e+02   4.348649e+01
   2.530535e+02   2.779703e+02
   1.153305e+01   4.345953e+02
  -2.994006e+02   4.233082e+02
  -4.358539e+02   1.910103e+02
  -3.283559e+02  -8.375660e+01
  -3.079321e+01  -2.404316e+02
   1.360125e+02  -2.034249e+02
   3.914795e+01  -5.938841e+01
  -7.517321e+01   6.971212e+01
  -1.786352e+02  -4.426403e+01
  -1.163939e+01  -1.456207e+02
   1.057340e+02  -1.086222e+02
   8.634034e+01   6.268821e+01
  -4.786310e+01   1.623971e+02
  -1.718194e+02   5.269925e+00
  -1.379103e+02  -2.183309e+02
   9.249831e+01  -2.777794e+02
   2.126388e+02  -1.601921e+02
   3.187631e+02   9.735414e+01
   2.436757e+02   2.140839e+02
   3.515919e+01   2.060173e+02
  -1.233792e+02   1.357276e+02
  -1.712788e+02   3.669998e+01
  -3.322784e+01  -9.024555e+00
   8.636223e+01   5.150226e+01
  -2.997194e+01   8.439033e+01
  -8.390877e+01   7.529653e+01
  -1.013647e+02  -9.922182e+00
  -4.549890e+01  -5.349869e+01
   4.975219e+01   2.048013e+01
   2.533316e+01   6.274317e+01
  -1.028081e+02   8.448471e+01
  -2.373190e+02   4.353637e+01
  -2.218847e+02  -1.489067e+02
  -4.360924e+01  -2.338669e+02
   1.479598e+02  -2.165574e+02
   2.550213e+02  -1.013431e+02
   1.359291e+02   3.456857e+01
  -1.305540e+01   1.144695e+02
  -7.577417e+01  -1.688321e+01
   4.726086e+01  -7.681392e+01
   1.641219e+02  -6.285992e+01
   1.592158e+02   8.540347e+01
   8.207185e+01   1.593139e+02
  -8.440531e+01   1.282376e+02
  -1.390530e+02   1.410016e+01
  -6.014938e+01  -4.797905e+01
   3.416983e+01   2.918988e+01
   1.540477e+01   7.617782e+01
  -6.733759e+01   8.961089e+01
  -1.904558e+02   1.932412e+01
  -1.567158e+02  -1.356571e+02
  -5.160120e+01  -1.728828e+02
   9.659262e+01  -1.048063e+02
   1.376592e+02   2.722510e+01
   2.542515e+01   7.967015e+01
  -3.821660e+01   1.018879e+02
  -3.694320e+01   1.541045e+01
  -2.352061e+01  -2.264402e+01
   4.379398e+01  -4.139908e+01
  -3.233972e+01  -8.111216e+00
  -8.581432e+01   2.324278e+01
  -8.643954e+01  -1.061738e+02
  -1.203958e+01  -1.467116e+02
   1.240883e+02  -1.221140e+02
   1.999947e+02  -3.196131e+01
   1.527959e+02   1.216233e+02
   4.269297e+01   1.731154e+02
  -6.527246e+01   1.321648e+02
  -1.124625e+02   3.339816e+01
  -6.611903e+01  -4.017732e+01
  -2.012833e+01  -4.838322e+01
  -7.703819e+01   4.996310e+01
  -6.022387e+01  -1.537574e+01
  -2.386176e+01  -5.566252e+01
   3.235326e+01  -9.445048e+01
   9.672392e+01  -7.129047e+01
   7.625773e+01  -3.676452e-01
  -3.042998e+01   1.120241e+02
  -1.426125e+02   7.105917e+01
  -2.171224e+02  -1.608537e+01
  -9.239113e+01  -2.137890e+02
   4.692639e+01  -2.057751e+02
   1.963934e+02  -1.158423e+02
   2.710349e+02   4.830400e+01
   9.562773e+01   1.094439e+02
  -6.095335e+01   1.270535e+02
  -7.503276e+01   5.456841e+01
  -3.613037e+01   8.392522e+01
  -4.767937e+01   6.728718e+01
  -1.159637e+02   1.200702e+02
  -1.101379e+02   1.521684e+01
  -1.077282e+02  -7.893237e+01
  -9.411063e+00  -1.977146e+02
   4.880571e+01  -1.461239e+02
   1.894326e+02   3.708471e+01
   8.134762e+01   1.166024e+02
  -3.455034e+00   1.378419e+02
  -4.485203e+01   6.976059e+01
  -7.997133e+01  -4.134268e+01
   2.266944e+01  -2.697560e+01
   3.353882e+01  -3.489356e+00
  -3.208900e+01   1.181775e+01
  -6.551821e+01  -1.838980e+01
  -8.334711e+01  -6.013490e+01
   5.049353e+01  -2.302096e+01
   1.282189e+02   2.247841e+01
   1.036916e+02   6.790991e+01
   3.829378e+00   9.026544e+01
  -8.787710e+01   8.333753e+01
  -1.577144e+02   2.918407e+00
  -5.340554e+01  -3.788181e-01
   3.605278e+01  -4.664011e+01
   4.343368e+01   1.876762e+01
   1.255332e+00   3.145238e+01
  -3.142540e+01   5.287133e+01
  -4.600204e+01  -9.577853e+00
  -6.413494e+01  -4.089946e+01
  -4.410023e+01  -5.154292e+01
  -4.475465e+01  -1.246458e+01
  -4.002306e+01  -1.534297e+01
  -5.795888e+01  -1.045272e+02
   6.418254e+00  -8.343565e+01
   1.408515e+02  -8.581745e+01
   1.569548e+02  -6.891332e+00
   1.243322e+02   1.001657e+02
  -1.986123e+01   1.406901e+02
  -8.936978e+01   5.319675e+01
  -2.350695e+01   7.775660e+00
   7.141650e+01  -1.950609e+01
   8.863497e+01  -7.494243e+00
   9.791459e+01   1.299224e+02
  -9.466243e+01   1.006772e+02
  -1.684843e+02   6.072044e+01
  -1.650369e+02  -2.368947e+01
  -3.472734e+01  -4.443968e+01
   6.346189e+01  -5.930499e+01
   2.225449e+01  -8.697147e+00
  -5.390858e+01   2.158229e+01
  -6.235329e+01  -4.546171e+01
  -9.390605e+01  -1.178854e+02
   5.365790e+01  -1.153418e+02
   1.202430e+02  -3.596622e+01
   9.297663e+01   5.238111e+01
  -1.176184e+01   1.635065e+02
  -1.439990e+02   1.502301e+02
  -1.063464e+02  -1.928670e+01
  -5.524503e+01  -7.683674e+01
  -3.381102e+01  -1.461850e+02
  -1.585988e+01   1.661958e+01
   7.901393e+01   6.250967e+01
   1.834130e+01   1.866111e+01
   1.521867e+01  -2.115963e+01
   3.711257e+01   4.682966e+01
   4.489912e+01   7.354874e+01
   2.658408e+01   8.622466e+01
  -7.379102e+01   5.442019e+01
  -8.649885e+01  -2.478186e+01
  -1.062550e+02  -6.840768e+01
  -2.712252e+01  -2.145207e+01
   7.562467e+01   1.928695e+01
   9.042904e+01  -1.573373e+01
   2.000970e+01  -2.621693e+00
  -4.469349e+01   1.205826e+01
  -2.885737e+01  -1.777186e+01
  -1.330520e+01  -1.170820e+01
  -1.285539e+01  -3.906099e+01
  -6.569724e+01   9.682589e+00
  -7.606918e+01  -2.089350e+01
   6.295604e+00  -7.743779e+01
   1.134075e+02  -7.520947e+01
   1.375048e+02  -6.293380e+01
   1.415842e+02   5.188038e+01
   2.610205e+01   1.250105e+02
  -1.166071e+02   1.173358e+02
  -1.335824e+02   7.444222e+01
  -9.932478e+01  -1.551445e+01
  -5.992715e+01  -3.845477e+01
   2.355379e+01  -7.274228e+00
  -1.502487e+01   1.738960e+01
  -3.092198e+01  -4.846188e+01
  -5.850762e-01  -8.259640e+01
   1.412702e+01  -4.398085e+01
   6.968536e+01   1.707464e+01
   1.003840e+02   9.161038e+01
   1.052605e+01   9.611902e+01
  -1.092654e+02   2.643024e+01
  -8.071418e+01  -5.675599e+01
  -2.572121e+01  -8.212996e+01
   3.729106e+01  -2.040321e+01
   5.236554e+01  -1.965567e+01
   2.806774e+01   7.539826e+01
   5.310738e+00   4.960861e+01
  -4.822394e+01   6.424267e-01
   4.271264e+00   1.627909e+01
   4.202270e+01  -1.245061e+01
   6.418177e+01   3.592444e+01
  -7.812324e+01   9.160053e+01
  -1.311480e+02   8.593339e+01
  -4.039184e+01  -2.788036e+01
  -1.848368e+01  -8.574056e+01
   4.042186e+01  -6.508383e+01
   3.342003e+01  -2.140210e+01
  -2.249674e+01   6.926646e+01
  -1.769838e+00   6.763313e+01
  -2.444309e+01  -3.515722e+01
  -6.600201e+00  -7.000021e+01
  -1.826027e+01  -4.198446e+01
   2.531614e+01   6.390142e+00
   3.941521e+01   1.566338e+01
   5.288653e+01   1.748852e+01
  -3.135270e+01  -4.234856e+01
  -1.924722e+01  -2.721402e+01
   2.128597e+01   4.393849e+01
  -2.264981e+01   3.628929e+01
  -4.546959e+01   9.596545e+00
  -6.434307e+00  -3.446240e+01
  -2.521984e+01  -6.346557e+00
   3.195806e+01  -1.058306e+01
   3.802340e+01   3.878252e+01
   1.085952e+01   2.377888e+01
  -7.126905e+01   8.511000e+00
  -8.597501e+01  -1.140844e+01
  -3.130162e+01  -3.195744e+01
   2.648687e+01  -7.256332e+00
   8.165311e+01   1.019415e+01
   3.404829e+01  -7.578570e+00
   1.234145e+00   3.248409e+01
  -4.870116e+01  -2.241451e+01
  -4.213376e+00  -6.675098e+01
   7.692373e+01  -5.396941e+01
