
 $NMID
 id='ANONYMOUS ', fmtdat='(2E16.6)'
 volume=1.0
 tramp=1.0
 $END
  -2.473264e+03   8.453282e+01
  -1.357450e+03  -1.542180e+03
   6.985007e+01  -1.404766e+03
   7.800519e+02  -9.769964e+02
   5.226177e+02   2.329627e+02
  -6.662180e+01   3.653579e+02
  -4.033348e+02  -1.025323e+02
  -7.390600e+01  -5.518996e+02
   4.692742e+02  -4.461499e+02
   4.434023e+02   2.874428e+01
   2.490099e+02   5.411242e+02
   8.441706e+01   4.548636e+02
  -2.710659e+02   7.670040e+01
  -2.287806e+02  -4.180387e+02
   5.484071e+01  -3.737220e+02
   3.477754e+02  -2.056737e+01
   1.420028e+02   2.501566e+02
  -5.879144e+01   3.063286e+02
  -1.808219e+02   1.662338e+02
  -1.873412e+02  -1.266549e+02
  -7.056354e+01  -2.799112e+02
   1.122685e+02  -1.010596e+02
   8.802923e+01  -8.552715e+01
  -7.445131e+01   3.665911e+01
  -1.922640e+02  -7.342473e+01
  -1.614324e+02  -2.866809e+02
   2.588361e+02  -1.949757e+02
   3.912448e+02   2.079865e+01
   2.046087e+02   2.917867e+02
  -2.601290e+02   2.469497e+02
  -4.963573e+02  -4.757514e+01
  -1.335390e+02  -2.378919e+02
   1.115787e+02  -3.310769e+02
   3.545157e+02  -1.737310e+02
   2.037547e+02   1.330652e+02
   6.406021e+01   2.777418e+02
  -6.578863e+01   1.494937e+02
  -1.108609e+02  -4.338500e+01
   9.715863e+01  -2.119521e+02
   2.104636e+02  -4.278059e+01
   1.900175e+02   5.205400e+02
  -8.535324e+01   2.940153e+02
  -3.114894e+02   1.200291e+02
  -6.873446e+01  -2.148137e+02
   2.075402e+02  -1.934983e+02
   1.424973e+02   2.406750e+02
   7.259361e+00   3.119276e+02
  -2.844131e+02   4.939850e+01
  -4.276427e+02  -7.503125e+01
  -3.883205e+01  -2.611364e+02
   1.955979e+02  -1.980832e+02
   3.855876e+02   7.096923e+01
   2.067908e+02   1.460183e+02
  -1.037579e+02   1.681481e+02
  -2.205214e+02   9.933334e+01
  -1.483578e+02  -7.997583e+01
   5.360100e+01  -8.211592e+01
   8.157490e+01   3.146249e+01
  -9.172011e+01   1.137075e+02
  -1.598639e+02   2.570939e-01
  -2.566367e+01  -1.427681e+02
   1.544718e+02  -9.661402e+01
   1.873306e+02  -9.796227e+00
   1.206689e+02   1.234876e+02
  -1.348289e+01   1.429138e+02
  -1.565287e+02   2.069378e+02
  -2.136329e+02   7.547861e+01
  -1.195484e+02  -4.224411e+01
  -3.210070e+01  -1.928148e+02
   5.926453e+01  -2.493057e+02
   3.010992e+01  -6.740939e+01
   8.501617e+00  -8.350681e-04
   2.736687e+01  -6.934273e+01
   1.250959e+02  -3.343269e+01
   1.035599e+02   5.583852e+01
   7.625696e+01   1.517605e+02
  -1.984414e+01   1.577796e+02
  -1.537572e+02   2.637748e+01
  -5.327493e+01  -1.267050e+02
  -1.829260e+01  -1.822649e+02
   1.946710e+02  -2.867084e+01
   1.990838e+02   1.542600e+02
   8.625723e+01   2.147944e+02
  -2.684411e-01   2.182965e+02
  -1.423336e+02   7.390633e+01
  -5.592233e+01   1.501878e+00
  -8.925128e+01   7.374361e+00
  -1.175355e+02   2.216408e+00
  -2.485954e+02   8.867714e+01
  -7.596328e+01  -2.243021e+02
  -3.989158e+01  -3.320262e+02
   2.128031e+02  -2.625612e+02
   3.052698e+02  -1.154437e+02
   2.389132e+02   2.059199e+01
   2.401159e+01   1.383806e+02
  -2.245729e+01   1.071233e+02
  -3.155865e+01   1.671812e+01
   8.205514e+01  -2.746372e+01
   1.223831e+02  -2.151079e+01
   3.405157e+00   9.524665e+01
  -5.865030e+01   8.068833e+01
  -5.020686e+01  -1.695546e+01
   2.508827e+01  -1.147514e+02
   1.172999e+02  -1.293418e+01
   9.743824e+01   1.184887e+02
   1.605096e+01   1.894615e+02
  -1.293029e+02   1.382609e+02
  -1.674150e+02  -3.313109e+01
  -1.941704e+02  -1.133270e+02
  -4.921152e+01  -9.406888e+01
   6.438822e+01  -1.350533e+02
   1.264457e+02  -9.714367e+00
  -8.803170e+00  -4.461691e+01
  -4.732284e+01  -2.879719e+01
  -2.510077e+01  -6.934992e+01
   3.830519e+01  -5.114422e+01
   6.933589e+01   6.264716e+00
   2.096388e+01   4.226162e+01
  -1.742556e+01  -1.230112e+01
  -2.669324e+01  -3.933007e+01
   8.905428e+01  -8.062488e+01
   1.686454e+02  -3.467327e+01
   1.567043e+02   7.016205e+01
   4.710375e+01   1.434865e+02
  -8.900729e+01   1.647766e+02
  -1.376510e+02   7.651280e+01
  -6.914902e+01  -2.138861e+01
  -2.045187e+01  -4.464107e+01
   3.035569e+01  -1.723935e+00
   7.278649e+00   6.068019e+01
  -1.343841e+02   2.426083e+01
  -1.039289e+02  -8.783544e+01
  -8.585668e+01  -1.080237e+02
   8.872072e+01  -5.015763e+01
   1.000879e+02  -2.619141e+01
   5.800009e+01   2.486387e+01
  -2.426980e+01   1.509599e+01
  -3.697192e+01  -8.122012e+01
   4.557987e+01  -3.923001e+01
   1.271090e+02  -1.204460e+01
   8.987740e+01   5.636408e+01
  -5.024779e+00   9.706115e+01
  -3.683127e+01   1.025211e+02
  -1.239110e+02   2.658577e+01
  -6.248420e+01  -8.338647e+01
   5.019194e+01  -4.911357e+01
   3.503934e+01  -1.294563e+01
  -6.068951e+00   8.926070e+00
  -2.990649e+01   4.457208e+01
   3.926974e+01   8.702035e+00
   7.479897e+01  -7.796953e+00
   7.182602e+01   3.892484e+01
  -5.021286e-01   1.068982e+02
  -6.042540e+01   7.081377e+01
  -1.386170e+02   4.522942e+00
  -1.154963e+02  -9.137789e+01
  -7.488968e+00  -1.503974e+02
   2.068556e+01  -1.039661e+02
   8.252621e+01  -2.378022e+01
   5.733585e+01   4.319942e+00
  -6.179288e+00   9.051236e+00
   5.176189e+01   6.871624e+00
   7.020026e+01   7.933239e+00
   2.005991e+01   4.532425e+01
  -3.732875e+01   4.852865e+01
  -6.134077e+01   1.130292e+01
  -5.003354e+01  -1.317233e+01
   3.689722e-01  -7.348256e+01
   9.106360e+01  -8.584923e+01
   1.398831e+02   3.223201e+01
   4.072787e+01   1.188916e+02
   5.460360e+00   1.066106e+02
  -1.311336e+02   3.314288e+01
  -1.986144e+02  -7.150693e+01
  -8.226648e+01  -1.031681e+02
   4.333430e+01  -8.061827e+01
   3.433739e+01  -8.570251e+01
   8.133392e+01  -4.059972e+01
   2.979022e+01  -1.022622e+02
   6.494427e+01  -5.916686e+01
   7.141325e+01  -1.900227e+01
   7.896297e+00   9.090569e+01
   7.742655e+01   1.117215e+02
  -6.850497e+01   1.046086e+02
  -1.030659e+02  -9.064018e+00
  -6.858066e+01  -7.501905e+01
  -2.381940e+01  -6.098490e+01
   2.531823e+01  -9.640539e+01
   3.914152e+01  -3.334312e+01
   1.390296e+01   5.331291e+00
   9.055318e+00  -3.206384e+01
   2.035554e+00  -2.207267e+01
   7.139880e+01   5.449916e-01
   2.564658e+01   6.885585e+01
  -3.617003e+01  -1.920147e+01
  -1.032552e+02   5.857027e+00
  -7.058723e+01  -5.835377e+01
   1.726392e+01  -1.982109e+01
   2.297933e+01  -8.193545e+01
   9.856298e+01   9.855083e+00
   5.544306e+01   4.647061e+00
  -1.943198e+01   6.353816e-01
  -1.066023e+01   1.921113e+01
  -6.497116e+00  -6.637950e+01
   3.382899e+01  -4.607414e+01
   4.253715e+01  -1.641842e+01
   5.839962e+00   3.554892e+01
   1.245043e+01   1.365517e+01
   3.175015e+01  -2.906601e+01
   2.233064e+01   4.299054e+01
   9.372250e+01   2.078743e+01
  -1.984611e+01   1.263284e+02
  -2.778495e+01   1.069488e+02
  -7.400880e+01  -1.502014e+00
  -9.457078e+01  -7.568302e+01
  -2.386825e+01  -8.273006e+01
   3.378796e+01  -4.323930e+01
  -4.324966e+00   4.132595e-01
  -5.406883e+01   7.058187e+01
  -8.940954e+01  -4.691021e+01
  -2.372879e+01  -8.650842e+01
   2.188292e+01  -7.697523e+01
   9.514494e+01  -5.841557e+01
   1.143694e+02  -2.326502e+00
   3.436438e+01   6.209198e+01
  -4.912349e+01   7.151137e+01
  -2.070033e+01   6.796631e+00
  -1.348421e+00  -3.665387e+00
   9.086214e+01   2.480248e+01
   5.291850e+01   5.034724e+01
  -4.210749e+01   5.823169e+01
  -9.326643e+01   7.342298e+01
  -9.299294e+01  -4.878267e+01
  -4.490719e+00  -6.778444e+01
   7.251641e+01  -9.638334e+01
   5.731073e+01  -3.079767e+01
   5.431592e+01   6.813264e+01
   1.287225e+01   4.879469e+01
  -2.035572e+01   1.365285e+01
  -2.101683e+00  -8.314029e+00
   1.282472e+01   1.798587e+01
  -3.266356e+00   1.559837e+01
  -2.053812e+00  -4.233304e+00
  -1.707380e+01  -5.728161e+01
   5.693946e+00  -6.168925e+01
   1.186229e+00  -3.541974e+01
   8.737607e+01   3.517337e+01
   7.037823e+01   6.226035e+01
   1.182831e+01   3.690503e+01
  -7.977448e+01   1.197904e+01
   1.317437e+01   1.005340e+01
  -5.627442e+01  -1.103251e+01
   5.679031e+01  -1.823254e+01
  -7.887381e+00  -4.039322e+00
   7.891865e+00  -6.360952e+00
   6.685604e+00   2.063168e+01
   6.517935e+01   1.845649e+01
   4.850359e+01   2.939182e+01
   1.311969e+01   4.693075e+01
  -4.970955e+01   5.429959e+01
  -1.424358e+02   4.465047e+01
  -1.293093e+02  -1.338662e+01
  -5.927236e+01  -7.116635e+01
   5.879160e+01  -8.196880e+01
   4.149709e+01  -7.624320e+01
   4.546144e+01   5.110124e+00
  -1.949281e+01   1.360037e+01
  -2.263505e+01   4.509500e+01
  -2.447768e+01   1.930051e+00
   3.380162e+01   4.969981e+01
  -3.688819e+01   5.510900e+01
  -5.374735e+00   4.747803e+01
  -7.617260e+01  -2.575071e+01
  -6.336137e+01  -6.344818e+01
  -4.616516e+01  -6.744192e+01
   7.845855e+01  -1.547777e+01
   2.876160e+01   5.272290e+00
   5.224273e+01   9.984305e+01
  -8.420965e+00   5.859100e+00
  -8.369452e+01  -5.105215e+01
   1.120484e+00  -5.903721e+01
   4.468598e+01  -2.405756e+01
   2.748784e+01   3.883144e+01
  -6.361452e+01  -2.318763e+01
  -3.971434e+01   1.212482e+01
  -2.496055e+01  -1.454154e+01
   3.452798e+01  -3.883166e+01
   7.757630e+01  -1.668887e+01
   6.188736e+01   2.129125e+01
  -9.364680e+00   1.275800e+01
   3.117182e+00   2.785127e+01
   1.565510e+01  -2.697924e+01
  -3.851252e-01  -1.366500e+01
  -1.414054e+00  -3.133794e+01
   1.484628e+01   1.252630e+01
   3.595410e+00  -1.767684e+01
   1.053653e+01   4.520604e+01
  -3.321901e+01  -8.157755e+00
  -5.023638e+01  -1.921888e+00
  -5.929446e+00   6.082703e+01
   1.077407e+01  -1.179063e+01
   1.310150e+01   1.043186e+01
  -6.694235e+00  -3.123158e+01
  -1.072669e+01  -1.624328e+01
   2.938823e+01   1.029898e+01
   4.779622e+01   3.023338e+01
   7.750009e+00   4.847020e+00
   3.530330e+00   4.239102e+01
   3.140466e+00  -3.988727e+01
  -3.460139e+00  -4.540734e+01
   3.043261e+01  -1.487699e+01
   3.675227e+01   1.906501e+01
   3.156673e+01   4.797995e+01
  -5.134557e+01   3.378730e+01
  -1.091648e+02  -1.626355e+01
  -1.130349e+00   6.194166e+00
   1.042123e+00  -1.503430e+01
   9.230323e+00   1.724535e+01
   1.229992e+01   2.251990e+01
  -3.711572e+01   3.068489e+01
