
 $NMID
 id='ANONYMOUS ', fmtdat='(2E16.6)'
 volume=1.0
 tramp=1.0
 $END
   4.483640e+03   7.336544e+00
   2.751367e+03   2.346402e+03
  -4.758017e+02   2.754211e+03
  -2.139818e+03   1.183978e+03
  -9.715951e+02  -7.497164e+02
   3.744277e+02  -6.682411e+02
   1.069123e+03   4.157366e+02
   1.889353e+01   8.594088e+02
  -8.483698e+02   7.668310e+02
  -7.776122e+02  -6.407136e+01
  -5.207030e+02  -8.748371e+02
   2.785989e+02  -9.016310e+02
   6.170734e+02  -1.356864e+02
   3.792363e+02   6.780914e+02
  -2.393727e+02   8.312452e+02
  -4.847261e+02   3.798556e+00
  -2.205851e+02  -7.819797e+02
   3.424157e+02  -6.344990e+02
   5.078107e+02  -7.151658e+01
   4.954287e+02   3.234145e+02
   4.347334e+01   4.266027e+02
  -2.084125e+02   2.503020e+02
  -2.433266e+02  -1.453418e+00
   4.856593e+01  -6.602628e+01
   3.901240e+02   7.939054e+01
   1.533542e+02   3.761988e+02
  -3.105783e+02   4.141546e+02
  -9.208346e+02   4.291554e+00
  -4.411959e+02  -5.486253e+02
   3.721338e+02  -4.510422e+02
   6.891945e+02   5.713601e+01
   2.636497e+02   5.047178e+02
  -2.850776e+02   4.699292e+02
  -4.681827e+02   2.170931e+02
  -3.564642e+02  -1.765684e+02
  -6.522719e+01  -4.064798e+02
   1.447401e+02  -2.541719e+02
   1.994617e+02   1.560302e+02
  -1.535619e+02   3.897045e+02
  -3.991072e+02  -2.795956e+01
  -2.356797e+02  -6.449160e+02
   3.179174e+02  -6.622829e+02
   4.924726e+02  -1.561505e+01
   3.475837e+02   5.499917e+02
  -2.319832e+02   3.006779e+02
  -3.141801e+02  -2.357526e+02
   3.999284e+00  -4.820132e+02
   5.100909e+02  -1.099971e+02
   4.827021e+02   3.408826e+02
   1.903082e+02   4.887236e+02
  -3.333754e+02   3.685435e+02
  -5.770291e+02  -7.329355e+01
  -3.484661e+02  -2.764882e+02
   9.619320e+01  -3.829850e+02
   3.581835e+02  -1.158509e+02
   2.449580e+02   1.888617e+02
  -1.541424e+02   1.386577e+02
  -1.703902e+02  -1.051699e+02
   1.286051e+02  -1.748335e+02
   3.425904e+02   9.929226e+01
   1.237439e+02   2.906309e+02
  -1.924635e+02   2.294734e+02
  -3.674073e+02   6.082914e+01
  -1.978352e+02  -7.624576e+01
   3.108704e+00  -1.972727e+02
   2.075996e+02  -2.684879e+02
   3.211589e+02  -1.749270e+02
   3.144492e+02   1.128300e+02
   8.192018e+01   4.231435e+02
  -1.533584e+02   3.017560e+02
  -1.178255e+02   1.245500e+02
  -1.081543e+02  -1.320698e+01
  -4.414057e+01   7.040341e+01
  -1.570939e+02   8.154301e+01
  -2.970915e+02  -1.685257e+01
  -1.772290e+02  -2.539563e+02
   8.541667e+01  -2.235966e+02
   2.000649e+02  -3.507293e+01
   1.926315e+02   2.393168e+02
  -1.525878e+01   2.529341e+02
  -2.343022e+02   1.150984e+02
  -3.370914e+02  -1.668971e+02
  -1.917372e+02  -2.550601e+02
   8.552993e+01  -2.809006e+02
   1.970106e+02  -1.179979e+02
   1.798141e+02  -3.915540e+00
   9.952208e+01  -4.717567e+01
   1.718021e+02  -4.035366e+01
   3.650131e+02   6.479793e+01
   3.277173e+02   3.224203e+02
   1.069902e+01   4.256404e+02
  -3.193468e+02   4.076779e+02
  -4.551826e+02   2.012061e+02
  -3.126415e+02  -1.037047e+02
  -5.850628e+01  -3.115774e+02
   7.242622e+01  -2.236541e+02
   2.386563e+01  -5.600895e+01
  -7.619056e+01   6.717380e+01
  -1.823838e+02  -1.677852e+01
  -2.673903e+01  -1.815312e+02
   1.609628e+02  -1.694957e+02
   1.633737e+02   5.752891e+01
   8.464494e+00   1.868592e+02
  -1.080815e+02   2.802653e+01
  -1.996672e+02  -1.973270e+02
   2.237391e+01  -3.534392e+02
   1.853681e+02  -2.218441e+02
   3.058182e+02   4.468709e+01
   3.062770e+02   2.260457e+02
   6.807076e+01   2.857466e+02
  -1.090098e+02   1.301184e+02
  -1.847578e+02   2.833594e+01
  -7.566150e+01  -4.848621e+01
   5.377426e+01   2.433975e+01
   3.645492e+01   1.282723e+02
  -1.195048e+02   1.076755e+02
  -1.451057e+02  -1.826244e+01
  -8.650192e+01  -9.001254e+01
   5.424631e+01  -3.046633e+00
   5.128631e+01   6.786219e+01
  -1.449865e+02   7.012027e+01
  -2.829983e+02  -6.935259e+01
  -2.191385e+02  -9.994448e+01
  -8.528842e+01  -2.294886e+02
   1.703866e+02  -2.954118e+02
   2.621803e+02  -1.038783e+02
   1.252933e+02   3.040123e+01
  -2.553649e+01   1.153802e+02
  -5.535925e+01   3.032391e+01
   3.567016e+01  -4.799462e+01
   1.748220e+02  -6.257625e+01
   1.764194e+02   9.850934e+01
   5.065477e+01   2.021619e+02
  -8.314269e+01   1.454486e+02
  -1.428776e+02   4.505073e+01
  -5.377661e+01  -7.207287e+01
   1.474631e+01  -2.379340e+01
   2.567923e+01   4.762331e+01
  -7.073635e+01   9.861502e+01
  -1.767671e+02   1.837816e+00
  -1.688745e+02  -9.638602e+01
  -3.167165e+01  -2.375165e+02
   1.165579e+02  -1.579460e+02
   1.732268e+02  -4.064887e+01
   8.101428e+01   1.085340e+02
  -2.963674e+01   9.711502e+01
  -9.292191e+01   2.112856e+01
  -5.010197e+00  -1.763770e+00
   9.329770e+00  -1.136322e+01
  -2.070266e+01  -4.933027e+01
  -6.599186e+01   9.888735e+00
  -6.152048e+01  -8.587449e+01
  -5.180134e+01  -1.504827e+02
   1.804792e+02  -1.225815e+02
   2.211324e+02  -3.224866e+01
   2.013099e+02   1.359328e+02
   3.298065e+01   2.408886e+02
  -5.958619e+01   1.677279e+02
  -1.093391e+02   4.619143e+01
  -5.975220e+01  -5.702718e+01
   9.543379e+00  -4.146559e+01
  -7.089255e+01   1.525032e+01
  -8.121961e+01  -7.559188e+00
  -2.231226e+01  -5.537429e+01
   5.589900e+01  -1.262849e+02
   8.158646e+01  -4.495266e+01
   7.280261e+01   4.744477e+01
   4.396473e+01   9.844557e+01
  -1.046386e+02   8.325287e+01
  -2.111248e+02  -7.626029e+01
  -6.993170e+01  -2.266502e+02
   8.752760e+01  -2.354895e+02
   2.678633e+02  -1.249499e+02
   2.180450e+02   6.672136e+01
   1.052874e+02   1.585438e+02
  -6.122102e+00   1.146655e+02
  -1.040558e+02   4.840203e+01
  -8.845372e+01   7.530001e+01
  -6.773449e+01   6.137087e+01
  -1.273838e+02   6.608723e+01
  -1.232447e+02  -1.159097e+01
  -1.426277e+02  -1.299466e+02
  -3.676782e+01  -2.036909e+02
   1.069573e+02  -1.962823e+02
   1.520418e+02  -3.828517e+01
   1.617889e+02   8.701581e+01
   3.659919e+01   1.781000e+02
  -6.771917e+01   8.971031e+01
  -5.018123e+01  -3.457296e+00
   4.998205e+00  -1.946429e+01
   4.099459e+00  -2.503102e+01
  -7.991765e+01  -4.870655e+00
  -7.385999e+01  -9.612750e+00
  -2.138369e+01  -4.237593e+01
   5.919916e+01  -2.391053e+01
   2.018960e+02  -1.749081e+01
   1.376813e+02   4.524336e+01
   4.943812e+01   9.285187e+01
  -1.319570e+02   6.604493e+01
  -1.361269e+02  -4.242793e+00
  -2.194761e+01  -2.127945e+01
   3.887715e+01  -2.390960e+00
   6.379693e+01  -2.245168e+01
  -2.468018e+01   8.212379e+01
  -8.683692e+01   7.719261e+01
  -8.645798e+01   2.488043e+01
  -4.142357e+01  -7.334592e+01
  -6.031387e+01  -1.722497e+01
   3.126814e+01  -1.846215e+01
  -4.451685e+01   2.399797e+01
  -4.931805e+01  -1.009069e+02
   1.583916e+01  -1.239951e+02
   8.599221e+01  -1.601457e+02
   1.324194e+02  -3.897677e+01
   1.028764e+02   2.584958e+01
  -2.434988e+01   1.148843e+02
  -6.874618e+01   7.229663e+01
  -8.117393e+01  -1.673312e+01
   5.406029e+01  -5.479905e+00
   1.480423e+02   4.750314e+01
   7.357762e+01   1.025733e+02
  -7.529014e+01   8.424237e+01
  -1.482397e+02   1.967377e+01
  -1.931403e+02  -2.295235e+01
  -1.410373e+01  -6.856619e+01
   5.367858e+01  -5.013616e+01
   7.075320e+01  -2.224452e+01
  -5.701530e+01   3.161365e+01
  -1.022715e+02  -1.894531e+01
  -1.536193e+01  -1.159308e+02
   9.096410e+01  -1.146827e+02
   1.721380e+02  -4.039542e+01
   8.610106e+01   6.689745e+01
   1.973870e+01   1.855393e+02
  -9.175270e+01   1.269831e+02
  -1.237971e+02  -2.029106e+01
  -2.188206e+01  -1.185128e+02
  -1.941913e+01  -9.724533e+01
   4.362079e+01   2.715760e+01
   7.177858e+01   3.153939e+01
   1.026339e+01  -2.886091e+01
  -8.169689e-01   3.153503e+01
  -1.846387e+01   6.859493e+00
   4.595817e+01   1.015353e+02
   4.831893e+01   1.156507e+02
  -4.529680e+01   3.754567e+00
  -1.048231e+02  -5.143422e+01
  -1.233544e+02  -7.282942e+01
  -4.286614e+01  -1.864414e+01
   7.252181e+01  -1.066374e+01
   8.303630e+01   1.500639e+01
   1.342870e+00  -1.848716e+00
  -3.677805e+01   2.496296e+01
  -1.545675e+01   3.662299e+01
   4.924411e+01   2.164672e+01
   1.964074e+00  -3.952019e+01
  -5.565465e+01  -1.250452e+01
  -6.022814e+01  -3.590691e+01
   7.857875e+00  -7.587770e+01
   1.438923e+02  -6.805994e+01
   1.850605e+02  -4.874866e+01
   1.824517e+02   2.827638e+01
   2.470196e+01   1.599440e+02
  -7.860182e+01   1.741734e+02
  -1.018071e+02   7.042965e+01
  -8.983936e+01  -6.455970e-01
   8.532746e+00  -3.874747e+01
   2.795617e+01   3.428027e+01
  -1.673066e+01  -1.725769e+01
  -3.549175e+01  -3.736692e+01
   1.977522e+01  -6.369856e+01
   9.178182e+00  -1.078524e+02
   4.804002e+01   2.169373e+01
   8.243454e+01   9.934720e+01
   4.163996e+01   7.714338e+01
  -1.037523e+02   4.253197e+01
  -9.748506e+01  -8.073431e+01
  -4.911755e+00  -1.051489e+02
   9.481259e+01  -3.274015e+01
   9.822718e+01  -1.107313e+01
   5.049143e+01   7.201637e+01
  -3.456346e+01   7.060558e+01
  -3.631157e+01   4.890928e+01
   4.513256e+01  -1.847884e+00
   4.493214e+01   3.445544e+01
   1.231086e+01  -2.982923e+00
  -6.573846e+01   3.414310e+01
  -1.146836e+02   5.584068e+01
  -5.805342e+01   3.284445e+00
   6.622061e-01  -1.133914e+02
   3.616918e+01  -3.666376e+01
   3.701388e+01  -8.080621e+00
  -2.202910e+01   2.387155e+01
  -5.068615e+01   1.334244e+01
  -3.429550e+01  -1.520585e+01
   3.000799e+00  -5.414167e+01
   1.997789e+01  -2.973439e+01
   4.120978e+01  -7.732994e+00
   9.430250e+01   1.502832e+01
   3.507623e+01  -2.116337e+01
  -8.353207e+00  -4.019956e+01
   3.142205e+01  -2.011465e+01
  -1.350984e+00   9.040074e+00
   2.119827e+01   5.681091e+01
  -1.416386e+01  -1.608028e+01
  -4.397319e+01  -8.939935e+01
  -3.531341e+01  -6.797144e+01
   3.532492e+01   1.080529e+01
   4.927389e+01   5.348677e+01
  -2.945060e+01   1.848262e+01
  -3.863968e+01   1.481040e+00
  -9.640786e+01  -1.668017e+01
  -5.075823e+01  -7.507738e+01
   6.374407e+01  -4.672175e+01
   5.615091e+01  -3.734262e+01
  -1.080709e+00  -2.461585e+01
  -5.145013e+01  -1.527305e+01
  -8.572866e+00  -2.220205e+01
   1.726620e+01  -3.239871e+01
   8.479501e+01  -4.188002e+01
