
 $NMID
 id='ANONYMOUS ', fmtdat='(2E16.6)'
 volume=1.0
 tramp=1.0
 $END
   2.630346e+03   8.449058e+01
   1.653862e+03   1.652848e+03
  -1.103499e+02   1.959168e+03
  -1.106564e+03   1.087509e+03
  -8.562174e+02  -3.312521e+02
   1.044410e+01  -4.423922e+02
   4.892953e+02  -7.477733e+00
  -6.125034e+01   5.026227e+02
  -3.571748e+02   3.452747e+02
  -5.692344e+02   1.878054e+02
  -4.184407e+02  -4.741739e+02
   1.738439e+01  -5.831505e+02
   3.083951e+02  -1.583348e+02
   2.358474e+02   1.968960e+02
  -2.006826e+01   5.044376e+02
  -3.628769e+02   2.619289e+01
  -2.688971e+02  -4.445080e+02
   1.303286e+02  -6.160410e+02
   3.239985e+02  -2.411792e+02
   4.697057e+02   1.909529e+02
   8.783070e+01   3.131670e+02
  -1.688031e+02   2.021311e+02
  -2.413784e+01   1.338233e+02
   4.737256e+01   3.084669e+01
   1.764616e+02   2.035185e+02
  -4.875246e+01   3.006372e+02
  -2.712292e+02   1.629907e+02
  -6.397760e+02  -1.492790e+02
  -2.566625e+02  -3.221743e+02
   1.844979e+02  -2.938539e+02
   4.488173e+02   1.913629e+02
   1.857331e+02   3.789175e+02
  -2.903172e+02   3.012593e+02
  -3.102801e+02   7.062975e+01
  -3.076199e+02  -1.765178e+02
  -1.267344e+01  -2.361819e+02
  -8.971140e+00  -2.628595e+02
  -1.529951e+01   5.717589e+01
  -9.985198e+01   1.979882e+02
  -1.112264e+02  -4.943988e+01
  -1.559407e+01  -4.045180e+02
   2.352814e+02  -4.764934e+02
   2.687303e+02  -1.355809e+02
   3.793792e+01   1.915768e+02
  -8.470407e+01   1.793045e+02
  -1.866127e+02  -2.283504e+02
   3.906460e+01  -3.923800e+02
   4.239963e+02  -8.430615e+01
   3.588763e+02   2.577103e+02
   6.707259e+01   4.362970e+02
  -3.185727e+02   1.941864e+02
  -3.336395e+02  -1.025822e+02
  -3.038379e+02  -2.061488e+02
   5.024110e+01  -2.627255e+02
   2.568197e+02  -6.977709e+01
   2.031052e+02   7.289157e+01
  -1.164471e+01   3.044218e+01
  -1.115618e+02  -3.827707e+01
   3.962301e+01  -4.855746e+01
   1.678286e+02   4.318607e+01
   1.099921e+02   1.833472e+02
  -1.757363e+02   1.853302e+02
  -2.802743e+02   8.657234e+01
  -2.218745e+02  -1.165872e+02
   3.827911e+01  -2.741029e+02
   2.200971e+02  -3.023556e+02
   2.538941e+02  -9.705370e+01
   2.028130e+02   1.014766e+02
   1.043507e+02   3.099587e+02
  -1.096490e+02   2.997336e+02
  -7.962204e+00   1.255376e+02
  -4.938647e+01   6.022769e+01
  -8.459141e+01   7.856721e+01
  -2.292068e+02   7.024109e+01
  -1.944433e+02  -5.078437e+01
  -1.242104e+02  -2.273254e+02
   9.295217e+01  -1.851043e+02
   1.484301e+02   6.317720e+00
   7.089114e+01   2.051227e+02
  -8.493258e+01   1.977870e+02
  -1.936559e+02   5.035925e+01
  -2.060420e+02  -1.775203e+02
  -1.679793e+02  -2.231414e+02
   1.343126e+01  -2.436528e+02
   1.462722e+02  -7.006123e+01
   1.328857e+02  -5.139578e+01
   8.543907e+01  -6.636695e+01
   1.882258e+02  -5.598480e+01
   3.009677e+02   5.265882e+01
   2.373232e+02   2.748216e+02
   2.250493e+01   3.431239e+02
  -3.314806e+02   3.148837e+02
  -3.759209e+02   2.355970e+01
  -2.437974e+02  -1.204149e+02
  -2.944275e+01  -2.294141e+02
   8.212532e+01  -2.110734e+02
   4.002959e+01  -4.316391e+01
  -4.933537e+01   4.754251e+01
  -1.208413e+02  -1.425418e+01
  -5.628492e+01  -1.162483e+02
   1.164559e+02  -1.167548e+02
   1.019106e+02   3.755428e+01
   3.377995e+01   8.801711e+01
  -9.613470e+01  -1.510264e+01
  -9.556932e+01  -2.108864e+02
   5.435693e+01  -2.945691e+02
   2.116252e+02  -1.598414e+02
   2.782384e+02   5.178240e+01
   2.029398e+02   2.537504e+02
   7.215186e+01   1.858302e+02
  -6.475370e+01   1.260354e+02
  -1.297754e+02   2.133945e+01
  -2.184018e+01  -2.190053e+01
   4.934488e+01   4.600953e+01
   3.071152e+01   7.388110e+01
  -5.505855e+01   5.108699e+01
  -1.444020e+02  -5.094417e+00
  -4.628860e+01  -7.748690e+01
   3.803840e+01   1.277108e+01
  -9.172045e+00   8.058381e+01
  -1.136504e+02   1.143864e+02
  -2.519086e+02  -3.610667e+00
  -2.234843e+02  -1.261290e+02
  -3.373237e+01  -1.860588e+02
   1.535372e+02  -1.598263e+02
   1.648243e+02  -6.014682e+01
   1.069927e+02   9.737419e+00
  -1.958193e+01   6.097538e+01
  -5.244321e+01  -2.212933e+01
   4.868559e+01  -8.496987e+01
   1.368383e+02   1.902412e+01
   1.278503e+02   9.393075e+01
   3.432919e+01   1.462901e+02
  -6.779261e+01   1.664070e+02
  -1.250211e+02   8.109589e+00
  -3.648036e+01  -2.862317e+01
   3.500951e+01   1.469525e+01
   2.409450e+01   1.144419e+02
  -7.976607e+01   9.934888e+01
  -1.619481e+02   5.781297e+01
  -1.432173e+02  -1.511619e+02
  -3.830942e+01  -2.016689e+02
   1.582473e+02  -1.233805e+02
   1.245962e+02  -3.425614e+01
   3.858491e+01   9.049011e+01
  -1.298145e+01   6.699447e+01
  -3.321978e+01  -8.079540e+00
  -1.865369e+00   1.403500e+01
   4.018826e+01   2.365774e+01
   1.970050e+00   1.716408e+01
  -1.077467e+02   1.968692e+01
  -1.025814e+02  -5.132296e+01
  -2.667449e+01  -1.366907e+02
   8.654143e+01  -1.056665e+02
   1.723795e+02  -1.187422e+01
   1.906967e+02   1.087032e+02
   7.664143e+01   2.104136e+02
  -3.830373e+01   1.091997e+02
  -9.981462e+01   2.656231e+01
  -7.370902e+01  -4.210595e+00
  -2.720106e+01  -5.168990e+01
  -4.077023e+01   7.747106e+01
  -9.883309e+01  -2.409248e+01
  -7.654488e+01  -4.014365e+01
   3.018326e+01  -7.785504e+01
   1.537852e+02  -5.648668e+01
   1.074711e+02   3.076947e+01
  -1.034013e+01   7.170904e+01
  -1.077056e+02   5.093656e+01
  -1.524593e+02  -4.342586e+01
  -9.159842e+01  -1.944135e+02
   8.857469e+01  -1.599756e+02
   1.967910e+02  -3.538726e+01
   1.580127e+02   7.852557e+01
   7.011573e+01   1.037414e+02
  -5.774829e+01   1.158655e+02
  -9.223032e+01   4.968640e+01
  -5.089625e+01   5.233852e+01
  -3.255094e+01   6.968540e+01
  -1.214872e+02   5.854776e+01
  -9.561030e+01  -2.106237e+00
  -1.040041e+02  -1.193588e+02
  -2.699888e+01  -1.837169e+02
   1.089155e+02  -1.417812e+02
   1.015444e+02   3.970823e+01
   9.661667e+01   6.015057e+01
   1.310876e+01   1.424862e+02
  -1.091413e+02   4.110880e+01
  -4.208456e+01   9.570517e+00
   1.156509e+01  -4.486277e+01
   3.316251e+01  -5.872737e+01
  -4.827166e-01  -3.316855e+01
  -5.175439e+01   1.615415e+01
  -3.099649e+01  -3.766652e+01
   5.846848e+01  -6.138471e+01
   1.641814e+02  -4.372746e+01
   1.091670e+02   6.061597e+01
   5.543084e-01   7.703845e+01
  -9.150489e+01   6.440839e+01
  -1.063663e+02  -1.869854e+01
  -5.137303e+01   3.602900e+01
   2.537195e+01  -5.561503e+01
   6.355762e+01   3.436434e+01
   1.473263e+01   8.683713e+01
  -3.970682e+01   5.006682e+01
  -7.504234e+01   2.054000e+01
  -1.496858e+01  -7.328879e+01
  -1.520192e+01  -4.572874e+01
  -1.504205e+01  -3.965508e+00
  -8.821152e+01  -3.080544e+01
  -2.849287e+01  -9.963933e+01
   5.411611e+01  -1.001279e+02
   1.136774e+02  -1.009674e+02
   1.259746e+02  -7.337784e+01
   1.065244e+02   9.225483e+01
   2.817639e+01   1.305765e+02
  -5.200248e+01   4.382214e+01
  -4.601151e+01  -3.142712e+00
   6.504699e+01  -2.327287e+01
   1.000479e+02  -7.068006e+00
   4.276901e+01   8.910890e+01
  -4.236767e+01   4.632609e+01
  -1.621013e+02   3.025477e+01
  -1.078753e+02  -4.113784e+01
  -3.751595e+01  -8.044142e+01
   6.938172e+01  -3.907142e+01
   3.586294e+01   3.041607e+01
  -3.513957e+01   3.766671e+01
  -5.051011e+01   3.963755e+00
  -3.285208e+01  -9.432216e+01
   6.040276e+01  -1.420498e+02
   1.127306e+02  -6.554842e+01
   1.302149e+02   1.821112e+01
   6.943259e+01   1.292905e+02
  -6.263720e+01   1.787874e+02
  -7.631851e+01   2.026876e+01
  -1.140344e+01  -1.044411e+02
  -1.628750e+01  -8.091734e+01
   5.475509e+01  -1.840142e+01
   2.595156e+01   3.349030e+01
  -1.382007e+01   2.508411e+00
  -5.465411e+01  -4.110463e+01
   1.832624e+01   9.490016e-01
   3.891656e+01   8.074724e+01
   1.499399e+01   8.744518e+01
  -6.644147e+01   3.041206e+00
  -1.108412e+02  -2.031243e+01
  -1.198628e+02  -6.243514e+01
  -6.498508e+00  -6.526026e+01
   7.400924e+01  -1.371291e+01
   8.033972e+01  -7.080880e+00
  -5.499844e+01   3.506389e+01
   5.045471e+00   1.036828e+01
  -4.220221e+00  -3.497141e+00
   3.266171e+01   1.950801e+01
  -1.554605e+00   2.538480e+01
  -6.255402e+01   6.423405e+00
  -2.558511e+01  -2.876101e+01
  -1.505770e+01  -7.413082e+01
   1.050428e+02  -6.296786e+01
   1.122260e+02  -6.406072e+01
   1.681891e+02   3.890977e+01
   2.200733e+01   1.026745e+02
  -8.650468e+01   1.186768e+02
  -1.117428e+02   1.003539e+02
  -8.231949e+01  -5.539707e+01
   6.423585e+00  -7.963307e+01
   2.525678e+01  -1.065096e+00
   2.506892e+01  -3.468926e+01
  -3.993875e+00  -6.228967e+01
   2.019073e+01  -7.174679e+01
   2.999518e+01  -5.385594e+01
   4.215057e+01   3.262156e+01
   1.004812e+02   9.342177e+01
   2.118164e+01   8.301191e+01
  -1.559557e+01   3.531890e+01
  -8.147471e+01  -3.370458e+01
  -4.712792e+01  -5.006158e+01
   5.745287e+01  -1.096408e+01
   9.913988e+01   3.221114e+01
   4.227750e+01   5.870692e+01
  -4.525364e+01   5.645033e+01
  -3.420012e+01   8.270466e+00
   2.565264e+00   9.560990e+00
   7.056598e+01   1.226968e+01
   4.440276e+00  -3.637921e+00
  -1.959008e+01   6.106822e+01
  -9.220545e+01   6.426132e+01
  -5.956721e+01   2.290231e+01
   4.253181e+00  -7.096810e+01
   3.559229e+01  -4.335346e+01
   3.337859e+01  -6.664670e+00
   2.766668e+01   4.103081e+01
  -2.121951e+01   3.748405e+01
   1.166607e+01  -7.744113e+01
   1.314122e+01  -4.330856e+01
   2.891349e+01  -3.371472e+01
   5.871059e+01  -5.051767e+00
   3.321412e+01   3.376189e-01
   2.292995e+00   5.640630e+01
   9.025814e+00  -2.466427e+01
   1.497170e+00  -1.539640e+01
  -5.972938e+00   2.273758e+01
   2.023245e+01   9.159361e+01
  -3.769684e+01   3.118385e+01
  -3.748741e+01  -7.141809e+01
  -3.168081e+00  -5.774990e+01
   2.583628e+01  -5.258337e-01
   6.134669e+01   3.844078e+01
   4.615259e+00   8.518158e+01
  -6.018811e+01   5.875700e+01
  -1.037121e+02  -3.392078e+01
  -4.368009e+01  -3.751496e+01
  -1.212237e+00  -6.825770e+01
   4.885272e+01  -4.545763e+01
   7.676653e+00  -1.896726e+00
  -1.839650e+01  -4.293993e+00
  -3.106969e+01   2.044419e+01
   7.584833e+01  -2.192239e+01
   3.212698e+01  -2.655332e+01
