
 $NMID
 id='ANONYMOUS ', fmtdat='(2E16.6)'
 volume=1.0
 tramp=1.0
 $END
  -2.866602e+03   2.255312e+02
  -1.973258e+03  -1.797815e+03
   3.112872e+02  -2.472237e+03
   1.355785e+03  -1.361159e+03
   9.661589e+02   2.094925e+02
  -5.558823e+01   5.049545e+02
  -6.275708e+02  -1.788668e+02
  -5.031914e+01  -5.035461e+02
   4.818887e+02  -5.857340e+02
   7.210000e+02  -2.305035e+02
   3.909642e+02   6.453222e+02
  -2.834122e+01   7.363996e+02
  -4.051856e+02   1.520383e+02
  -3.252537e+02  -3.641862e+02
   1.254923e+02  -6.266129e+02
   4.230940e+02  -6.536130e+01
   2.433986e+02   5.808634e+02
  -1.513823e+02   6.424139e+02
  -3.754617e+02   2.221419e+02
  -4.738792e+02  -2.758669e+02
  -8.416516e+01  -3.833702e+02
   2.019467e+02  -2.251981e+02
   1.252940e+02  -1.218312e+02
  -1.172457e+02  -3.118488e+01
  -2.241666e+02  -2.008417e+02
   1.892344e+01  -3.342312e+02
   3.138530e+02  -2.692341e+02
   7.387826e+02   1.400468e+02
   3.713883e+02   3.640553e+02
  -3.234580e+02   2.518813e+02
  -4.527628e+02  -6.299673e+01
  -1.496005e+02  -3.604247e+02
   2.054848e+02  -2.950936e+02
   4.041984e+02  -1.213108e+02
   3.061756e+02   1.109544e+02
   4.969639e+01   2.354508e+02
  -7.498605e+00   2.831296e+02
  -2.973440e+01  -1.242370e+02
   7.789729e+01  -2.125831e+02
   1.963353e+02   1.244919e+02
   9.277073e+01   4.622590e+02
  -2.906791e+02   4.112339e+02
  -2.968600e+02   1.120423e+02
  -1.576237e+02  -3.674524e+02
   9.373290e+01  -1.930381e+02
   1.859397e+02   2.258266e+02
  -7.611164e+00   3.656245e+02
  -4.338411e+02   3.931546e+01
  -3.773490e+02  -2.731661e+02
  -1.098907e+02  -4.927108e+02
   2.834031e+02  -3.318626e+02
   4.017825e+02   1.120996e+01
   2.975012e+02   1.955533e+02
  -8.341985e+01   2.578275e+02
  -2.739260e+02   9.910490e+01
  -2.186850e+02  -6.606755e+01
   5.014535e+01  -7.106130e+01
   8.297449e+01   8.291094e+01
  -7.648128e+01   7.131347e+01
  -2.213440e+02  -5.793715e+01
  -1.160814e+02  -1.731310e+02
   1.646501e+02  -2.407039e+02
   3.374046e+02  -9.240157e+01
   2.265582e+02   9.633920e+01
  -4.254934e+01   2.914532e+02
  -2.128094e+02   3.340685e+02
  -2.807760e+02   1.022883e+02
  -2.197207e+02  -1.296738e+02
  -4.111353e+01  -3.501541e+02
   3.676530e+01  -2.791110e+02
   3.971030e+01  -1.300110e+02
   4.100997e+01  -6.852181e+01
   7.837393e+01  -7.770693e+01
   2.394815e+02  -8.323910e+01
   2.434641e+02   1.028898e+02
   1.006408e+02   2.207782e+02
  -1.150396e+02   1.685636e+02
  -1.447568e+02  -3.187536e+01
  -1.350262e+02  -2.295862e+02
   2.367114e+01  -2.179346e+02
   1.974913e+02  -1.029529e+02
   2.775181e+02   2.169345e+02
   1.773987e+02   2.718820e+02
  -8.921613e+01   2.533340e+02
  -1.474029e+02   1.290050e+02
  -1.788026e+02   6.874601e+01
  -9.238963e+01   7.115422e+01
  -1.827669e+02   2.533013e+01
  -3.362453e+02  -3.497727e+01
  -2.859905e+02  -2.962613e+02
   1.083743e+01  -3.505359e+02
   3.547136e+02  -3.420708e+02
   4.404240e+02  -7.396676e+01
   2.230167e+02   4.484760e+01
   4.201129e+01   2.510692e+02
  -5.188468e+01   1.806211e+02
  -3.792481e+01   4.262534e+01
   1.297320e+02  -3.230705e+01
   1.334045e+02   3.359477e+01
   6.344234e+01   9.208688e+01
  -1.265729e+02   4.487417e+01
  -1.529254e+02  -1.688695e+01
   1.071895e+01  -1.636345e+02
   1.485907e+02  -2.391834e+01
   1.133271e+02   2.122709e+02
  -5.534587e+01   2.586542e+02
  -2.153430e+02   1.569032e+02
  -3.011717e+02  -8.111764e+01
  -2.446601e+02  -2.018914e+02
  -6.331993e+01  -2.830767e+02
   7.735730e+01  -1.274340e+02
   1.053219e+02  -1.345495e+01
   6.233925e+01  -1.685737e+01
  -6.282848e+01  -4.208968e+01
  -3.630337e+01  -9.285872e+01
   9.434957e+01  -8.604906e+01
   1.653785e+02   2.357919e+01
   4.476727e+01   5.936375e+01
  -8.270442e+01  -7.195057e+00
  -3.832873e+01  -5.215700e+01
   1.391206e+02  -9.276007e+01
   2.758977e+02   3.635862e+01
   2.015015e+02   1.370757e+02
   1.332241e+01   2.021206e+02
  -1.714242e+02   2.114113e+02
  -2.304929e+02   1.147184e+02
  -1.192433e+02  -9.117145e+00
   3.728959e+00  -5.567106e+01
   1.030674e+02   9.628782e+00
  -2.438249e+01   6.575334e+01
  -1.418428e+02   4.523039e+01
  -1.658323e+02  -1.444996e+02
  -8.172371e+01  -1.424690e+02
   1.347183e+02  -1.242804e+02
   1.157618e+02  -3.166347e+01
   8.944102e+01   2.758877e+01
  -1.191838e+01  -3.043275e+01
  -3.789491e+01  -9.074641e+01
   8.072790e+01  -1.462047e+02
   1.692951e+02  -1.936663e+01
   1.673066e+02   1.407360e+02
   5.126315e+00   1.969917e+02
  -1.308573e+02   1.412699e+02
  -1.805636e+02   3.144211e+01
  -4.285306e+01  -8.350100e+01
   4.082169e+01  -8.790772e+01
   6.638829e+01  -3.727861e+01
   3.369778e+01   1.227790e+00
  -6.323294e+01  -1.279760e+01
  -1.003181e+01  -1.200164e+01
   9.800486e+01   1.543349e+01
   9.429039e+01   5.867699e+01
   1.333101e+01   1.545267e+02
  -1.201627e+02   1.644499e+02
  -1.385686e+02   1.870908e+01
  -1.588190e+02  -1.328309e+02
  -5.023883e+00  -2.191294e+02
   4.287381e+01  -1.663240e+02
   8.822678e+01  -6.693113e+01
   9.695941e+01   6.902452e+01
   5.880341e+01   5.656668e+01
   3.711790e+01  -4.971305e+00
   9.663733e+01   5.446554e+01
   3.349386e+01   3.400558e+01
  -2.215704e+01   7.292366e+01
  -1.232269e+02   1.993601e+01
  -1.096450e+02  -7.561142e+00
   1.123065e+01  -1.312853e+02
   1.365834e+02  -8.472781e+01
   2.158012e+02   4.717943e+01
   6.274155e+01   1.992870e+02
  -1.124247e+02   1.896034e+02
  -2.535713e+02   5.884971e+01
  -2.023734e+02  -1.010402e+02
  -8.769091e+01  -1.726965e+02
   3.720900e+01  -7.700676e+01
   7.778456e+01  -9.284157e+01
   5.724834e+01  -3.880340e+01
   8.436114e+01  -1.268984e+02
   1.064014e+02  -5.014330e+01
   1.233669e+02   2.158763e+01
   1.143809e+02   1.590974e+02
   9.410004e+00   1.585483e+02
  -1.489653e+02   1.695247e+02
  -1.523299e+02  -1.177469e+01
  -1.344612e+02  -1.092873e+02
  -1.581311e+01  -1.432749e+02
   4.639355e+01  -9.635015e+01
   8.525929e+01  -2.474907e+01
  -4.048693e+00   8.459395e+01
  -3.404714e+01   3.320013e+00
   1.230720e+01   4.644386e+00
   7.968923e+01   2.921272e+01
   3.966741e+01   3.511809e+01
  -7.957481e+01   1.138629e+01
  -1.311153e+02   1.063150e+01
  -1.248986e+02  -3.280824e+01
  -1.360567e+01  -8.014027e+01
   9.162071e+01  -6.140712e+01
   1.148499e+02  -5.201658e+01
   2.323429e+01   3.113367e+01
  -6.057971e+01   5.488550e+01
  -7.038627e+01  -5.242535e+00
  -1.536507e+01  -5.721073e+01
   7.133010e+01  -1.124066e+02
   6.946714e+01   2.435939e+01
   4.403240e+01   7.071285e+01
   4.298861e+01   6.065651e+01
   9.251523e+01   3.458690e+00
   6.144191e+01   4.920673e+01
   6.352331e+01   7.560336e+01
  -1.142625e+01   1.494316e+02
  -1.324858e+02   1.225735e+02
  -1.400953e+02   8.853419e+01
  -1.344525e+02  -9.241481e+01
   2.887076e+01  -9.112775e+01
   7.969095e+01  -3.409378e+01
   8.891908e+01   2.324916e+01
  -5.146484e+01   3.152109e+01
  -1.362585e+02  -1.380155e+01
  -5.271739e+01  -9.397234e+01
   9.509141e+01  -1.023355e+02
   1.393603e+02  -5.730863e+01
   1.539531e+02   3.241645e+01
   1.465648e+01   7.605583e+01
  -3.785355e+01   3.802785e+01
  -5.304491e+01  -9.078893e+00
   6.221648e+00   8.575517e-01
   5.380781e+01  -7.023141e+00
   1.326077e+01   6.757423e+01
  -1.068239e+02   1.784793e+02
  -1.483210e+02   1.218986e+02
  -9.158434e+01  -1.234497e+02
  -3.265719e+01  -1.683425e+02
   3.560241e+01  -1.304532e+02
   8.002942e+01   3.184449e+01
  -2.707985e+00   1.231462e+02
   2.163101e+01   1.230074e+02
  -4.036097e+01  -8.972889e+00
  -3.149447e+01  -1.811510e+01
   1.408877e+01  -2.882963e+01
   1.130703e+01   4.013936e+00
  -4.402918e+01  -1.185469e+00
  -1.898741e+01  -4.129083e+01
  -5.429639e+01  -8.211921e+01
   6.381305e+01  -2.754827e+01
   1.373280e+02   3.780372e+01
   1.181890e+02   6.437413e+01
   1.766165e+01   5.931274e+01
  -1.114838e+02  -2.672943e+00
  -9.809198e+01   2.066872e+01
   2.585816e+01   5.041571e-01
   1.215141e+01  -1.709003e+00
   3.314295e+01   8.439400e+00
   2.150994e+01  -9.907772e+00
  -2.969544e+01   5.812770e+00
   6.043144e+01  -2.811599e+01
   1.465240e+02   2.905431e+01
   3.900632e+00   9.479949e+01
  -9.492855e+01   1.024709e+02
  -1.648156e+02   5.797159e+01
  -1.543274e+02  -5.500331e+01
  -5.660012e+01  -1.472288e+02
   5.800310e+01  -1.521016e+02
   8.554586e+01  -7.690153e+01
   4.698438e+01   6.150677e+00
   4.038713e+01   4.530667e+01
   2.813957e+01   7.316433e+00
   1.920831e+01  -2.911816e+00
   4.402834e+01   2.692902e+01
   2.500082e+01   7.054810e+01
  -3.274691e+01   5.141171e+01
  -5.116091e+01  -3.159932e+01
  -1.000579e+02  -7.457496e+01
  -2.914735e+01  -7.329864e+01
   6.146476e+01  -1.830616e+01
   1.391022e+02   9.175037e+01
   2.672193e+01   6.751083e+01
  -7.635757e+01   6.679846e+01
  -1.404918e+02  -2.108877e+01
  -1.221398e+01  -5.649037e+01
   9.883393e+00  -4.052298e+01
   1.371941e+01  -4.508830e+01
  -3.341491e+01   1.299974e+01
  -4.225250e+01  -3.286688e+01
  -4.457955e+01  -2.041698e+01
   4.653316e+01  -2.639313e+01
   1.272321e+02   3.257504e-01
   6.897238e+01   2.391540e+01
  -3.142985e+01   5.712921e+01
  -5.484377e+01   9.719880e+01
  -6.644297e+01   4.081716e+00
   1.972574e+01  -3.356481e+01
  -1.819095e+01  -5.539309e+01
   1.013045e+01   1.677526e+00
   1.052158e+01   4.727275e+01
   5.579574e+00   6.000877e+01
  -3.796974e+01  -2.902423e+01
  -3.013809e+01  -1.064771e+01
   4.068313e-01  -1.782017e+01
   1.226429e+01   2.104987e+01
   6.133842e+00   2.759700e+01
  -2.500998e+01   2.902876e+01
   1.834684e+01  -4.768843e+01
   1.871302e+01   5.073902e-01
   3.590039e+01   6.029367e+01
   2.230672e+01   3.296924e+01
  -7.056664e+01  -1.549779e+01
  -1.656786e+01  -5.210070e+01
   2.354834e+01  -6.756853e+01
   6.720603e+01  -3.912565e+01
   1.004887e+02   2.229182e+01
   2.987976e+01   3.357552e+01
   2.189946e+01   9.997651e+01
  -5.242011e+01   4.350040e+01
  -4.697261e+01   3.711088e+01
   7.452451e+00   3.920685e+01
   3.970325e+01  -2.131226e+01
  -5.071716e+01   3.049406e+01
  -1.063127e+02   1.742047e+01
