
 $NMID
 id='ANONYMOUS ', fmtdat='(2E16.6)'
 volume=1.0
 tramp=1.0
 $END
  -3.315924e+03   3.100855e+01
  -1.846822e+03  -2.751716e+03
   5.389893e+02  -1.985819e+03
   1.408866e+03  -1.264546e+03
   9.598865e+02   1.673763e+02
  -1.611021e+02   3.742561e+02
  -3.421460e+02  -1.398933e+02
   1.624643e+02  -6.142035e+02
   4.901045e+02  -3.749969e+02
   7.374037e+02  -1.218713e+01
   3.452099e+02   7.107404e+02
   5.256438e+01   5.504048e+02
  -2.926559e+02   7.611979e+01
  -2.090372e+02  -5.079992e+02
   2.085635e+02  -4.610548e+02
   3.482358e+02  -2.731799e+00
   3.089040e+02   4.800477e+02
  -1.400463e+02   5.561164e+02
  -4.399027e+02   1.783021e+02
  -4.446370e+02  -2.155204e+02
  -3.963930e+01  -3.915698e+02
   1.394627e+02  -2.730932e+02
   3.254244e+01  -7.088053e+01
  -1.664597e+02  -6.297820e+01
  -2.405359e+02  -3.183691e+02
   4.217336e+01  -3.650058e+02
   3.966007e+02  -5.439161e+01
   6.941274e+02   2.056957e+02
   2.690267e+02   3.272056e+02
  -2.940616e+02   2.608931e+02
  -4.842693e+02  -9.953261e+01
  -2.151792e+02  -4.840399e+02
   3.081916e+02  -2.856263e+02
   4.853230e+02  -5.138686e+01
   3.253994e+02   2.357809e+02
   1.625178e+01   2.603117e+02
  -4.071859e+01   3.001328e+02
  -2.058790e+01  -6.273170e+01
   1.141170e+02  -1.737865e+02
   2.057576e+02   1.473953e+02
  -1.435409e+02   5.609082e+02
  -2.789859e+02   4.132031e+02
  -3.185793e+02   1.318918e+02
  -1.081539e+02  -3.516478e+02
   2.082353e+02  -1.345484e+02
   1.320094e+02   3.031951e+02
  -1.007288e+02   3.950957e+02
  -4.718845e+02  -3.258928e+01
  -4.808497e+02  -3.600972e+02
  -9.230248e+01  -5.546505e+02
   2.967315e+02  -2.555575e+02
   5.460216e+02   1.639102e+02
   3.520231e+02   2.411290e+02
  -4.895975e+01   2.592792e+02
  -3.142988e+02   8.846727e+01
  -1.946595e+02  -7.966651e+01
  -3.228350e+01  -5.163688e+01
   7.979770e+01   1.337818e+02
  -1.230676e+02   8.508333e+01
  -2.940252e+02  -3.247279e+01
  -9.601988e+01  -2.340584e+02
   1.877601e+02  -2.247824e+02
   3.451459e+02  -1.044835e+02
   2.427687e+02   1.472848e+02
  -4.551765e+01   3.384288e+02
  -3.330312e+02   3.361286e+02
  -3.750082e+02   9.901147e+01
  -2.264529e+02  -1.652872e+02
  -2.180945e+01  -2.869369e+02
   1.172921e+02  -2.900939e+02
   6.722945e+01  -1.549857e+02
   5.147618e+01  -6.625986e+01
   1.245963e+02  -1.305227e+02
   2.440702e+02  -8.737636e+01
   2.476760e+02   6.285881e+01
   1.210332e+02   2.673601e+02
  -1.101898e+02   1.773914e+02
  -1.788080e+02  -5.272718e+00
  -6.846188e+01  -2.649980e+02
   7.487259e+01  -2.387926e+02
   2.665366e+02  -2.684046e+01
   3.220362e+02   1.971840e+02
   8.383831e+01   3.142158e+02
  -1.074264e+02   2.725676e+02
  -1.850680e+02   1.463400e+02
  -1.459628e+02   5.299088e+01
  -1.653972e+02   5.825271e+01
  -2.708232e+02   6.861814e+00
  -3.587949e+02  -1.324071e+02
  -2.890786e+02  -3.196938e+02
   1.882490e+01  -4.472033e+02
   4.992619e+02  -2.825823e+02
   4.595788e+02  -7.324014e+01
   3.162936e+02   1.426281e+02
   1.418178e+00   1.974718e+02
  -1.045043e+02   1.986807e+02
  -6.834419e+01   1.783370e+00
   1.244086e+02  -5.124670e+01
   1.241780e+02   6.502948e+01
   7.224622e+00   1.907628e+02
  -1.333344e+02   4.977263e+01
  -1.641829e+01  -4.281018e+01
   8.947878e+00  -1.294029e+02
   1.748406e+02   1.014026e+01
   8.790171e+01   2.804417e+02
  -6.508925e+01   3.027861e+02
  -2.705090e+02   1.573898e+02
  -2.999354e+02  -5.732749e+01
  -2.740192e+02  -2.962568e+02
   3.237616e+01  -2.831278e+02
   7.589286e+01  -2.000067e+02
   1.801103e+02  -3.223034e+01
   4.160560e+01   3.407793e+01
  -6.426273e+01  -7.045981e+01
  -7.406432e+00  -8.466738e+01
   1.087880e+02  -4.967973e+01
   1.474763e+02   4.755139e+01
   1.518197e+01   4.663544e+01
  -7.632315e+01  -2.732804e+01
  -2.646924e+01  -4.046893e+01
   1.289309e+02  -8.451278e+01
   2.885929e+02   4.521116e+01
   2.475440e+02   2.124299e+02
   6.850781e+01   2.426304e+02
  -1.709443e+02   2.136659e+02
  -2.541269e+02   1.073640e+02
  -1.418638e+02  -3.502969e+01
   9.912322e+01  -8.795561e+01
   5.322069e+01   5.449062e+01
  -7.807127e+01   8.968410e+01
  -2.048566e+02  -7.345826e+01
  -1.946762e+02  -4.709510e+01
  -7.035202e+01  -2.271559e+02
   6.769744e+01  -1.466842e+02
   1.279223e+02  -1.531378e+01
   2.878808e+01   2.398632e+01
  -1.370451e+01  -4.227348e+01
  -1.664083e+01  -1.413332e+02
   8.048603e+01  -1.108570e+02
   2.485905e+02  -4.919175e+01
   2.043858e+02   1.315442e+02
  -2.004063e+01   1.882240e+02
  -2.080720e+02   1.678167e+02
  -1.386461e+02  -2.155696e+00
  -7.615515e+01  -8.899460e+01
   1.106752e+02  -8.753984e+01
   7.560088e+01   2.563623e+01
  -4.047807e+00   2.428471e+00
  -4.332118e+01  -4.588126e+00
  -8.560532e+00  -2.936999e+01
   1.031042e+02   3.901012e+01
   8.320485e+01   2.707133e+01
   2.514173e+01   1.576231e+02
  -1.556590e+02   1.683120e+02
  -2.649799e+02  -2.837775e+01
  -2.091043e+02  -1.489551e+02
  -5.686648e+01  -2.150919e+02
   1.155112e+02  -1.140485e+02
   1.127253e+02  -2.669545e+01
   5.608121e+01   5.670880e+01
   1.811335e+01   1.143420e+01
   5.246087e+01   6.014936e+00
   8.319137e+01  -1.623781e+01
   7.129233e+01   7.948255e+01
  -3.310748e+01   1.005082e+02
  -1.036382e+02   3.535488e+01
  -5.896933e+01  -5.266854e+01
   4.012059e+01  -1.587883e+02
   1.342832e+02  -1.267300e+02
   1.888539e+02   7.144678e+01
   1.825428e+01   2.163468e+02
  -1.399474e+02   1.626720e+02
  -2.090746e+02   3.351924e+01
  -2.170582e+02  -1.400846e+02
  -8.424920e+01  -1.782008e+02
   5.253296e+01  -1.548720e+02
   1.056292e+02  -8.649453e+01
   5.454440e+01  -5.409551e+01
   5.518687e+01  -9.079115e+01
   1.258433e+02  -9.910938e+01
   1.041725e+02   3.486527e+01
   1.303242e+02   1.299208e+02
   4.034877e+00   2.079229e+02
  -1.110023e+02   1.313348e+02
  -1.101029e+02  -1.922676e+01
  -9.758062e+01  -9.472307e+01
   2.634721e+01  -1.555194e+02
   1.025250e+02  -7.441341e+01
   5.347748e+01  -3.609312e+00
   4.240112e+01   2.699864e+01
  -4.003775e+00   3.752605e+01
   1.055448e+01   1.153834e+01
   7.721758e+01   2.188851e+01
   2.836195e+01   6.799293e+01
  -6.148712e+01   3.265039e+01
  -1.285960e+02   3.339508e+01
  -1.631023e+02  -5.315738e+01
   4.248125e+01  -9.514928e+01
   1.111888e+02  -7.041156e+01
   1.648360e+02   1.375480e+01
   3.443672e+01   5.897836e+01
  -7.184521e+01   3.920672e+01
  -7.226585e+01  -3.394201e+01
   1.581031e+01  -6.988504e+01
   9.950601e+00  -3.814975e+01
   5.919440e+01   1.661340e+01
   7.883538e+01   8.343215e+01
   3.921096e+01   5.260730e+01
   2.358934e+01  -3.592053e+01
   9.806197e+01   1.825030e+01
  -1.043300e+00   7.131436e+01
  -4.677060e+01   1.354400e+02
  -9.719454e+01   1.080341e+02
  -1.682210e+02   9.148253e+00
  -1.154536e+02  -1.095161e+02
   4.005527e+01  -1.373471e+02
   8.320853e+01  -8.578589e+01
   3.639540e+01   2.692172e+01
  -7.863679e+01  -2.767204e+01
  -1.095495e+02  -5.088205e+01
  -4.115735e+01  -1.095796e+02
   8.662961e+01  -7.750869e+01
   1.539338e+02  -2.950445e+01
   1.450811e+02   5.993933e+01
   1.547860e+01   5.892401e+01
  -7.662015e+01   2.585923e+01
  -2.295643e+01   1.199288e-01
   5.864777e+01  -2.390013e+01
   7.902834e+01   1.359894e+01
   3.409489e+01   9.497408e+01
  -9.066126e+01   1.144361e+02
  -1.343687e+02   5.831626e+01
  -8.780558e+01  -5.918020e+01
   2.999906e+00  -2.161993e+02
   7.826540e+01  -1.324340e+02
   1.427067e+02   1.176964e+01
   3.537425e+01   1.116945e+02
  -2.573499e+01   1.070568e+02
  -3.292744e+01   3.236648e+01
   1.507226e+00   4.909626e+00
   9.685613e+00  -2.039975e+01
  -3.591740e+00   2.635178e+01
  -7.109526e+01  -1.812439e+00
  -4.995959e+01  -8.356088e+01
  -9.031422e+00  -1.386150e+02
   7.574081e+01  -5.824672e+01
   1.262967e+02   3.216730e+01
   1.350776e+02   8.616274e+01
   8.476068e+00   3.004433e+01
  -7.341547e+01   4.696982e+01
  -9.579867e+01  -4.690404e+01
  -3.907659e+01   2.716819e+01
   6.981492e+00  -3.067028e+01
   9.072821e+00  -1.008125e+01
   8.107164e-01  -2.699922e+01
  -2.174463e+00   6.082097e+01
   7.028742e+01   1.749263e+01
   6.434689e+01   4.963606e+00
   1.204474e+01   7.907464e+01
  -8.995375e+01   9.851399e+01
  -1.754323e+02   3.221415e+01
  -1.818934e+02  -5.117255e+01
  -1.182815e+01  -1.584071e+02
   1.397889e+02  -1.470324e+02
   1.433903e+02  -6.540953e+01
   9.217127e+01   1.036555e+01
  -3.902606e+00   4.449205e+01
  -1.895555e+01   1.159296e+01
   3.105571e+01   4.158834e+01
   2.766032e+01   2.969743e+01
   1.546375e+01   6.366115e+01
  -7.798459e+01   7.243072e+01
  -7.333724e+01  -4.175914e+01
  -6.283188e+01  -9.670949e+01
   7.669067e+00  -1.286833e+02
   7.784248e+01  -4.373720e+01
   8.739170e+01   7.906886e+01
   3.966931e+01   6.581773e+01
  -7.034132e+01   5.565748e+01
  -9.696920e+01   3.650972e+01
  -7.918161e+01  -7.073633e+01
   2.898434e+01  -2.925329e+01
   6.641609e+00  -2.511902e+01
  -1.397843e+01   1.476661e+01
  -4.657243e+01  -7.858516e+00
   5.500674e+00  -2.627317e+01
   5.805971e+01  -6.993426e+01
   8.855822e+01  -1.447339e+00
   9.363510e+01  -2.612615e+01
  -9.671486e+00   9.727581e+01
  -8.302319e+01   8.083967e+01
  -2.077456e+01   4.038223e+01
  -2.322780e+01  -6.583773e+01
   5.195358e+01  -3.089045e+01
   2.508689e+01  -5.672190e+00
   4.270625e+00   7.218395e+01
   3.318132e+01   3.609740e+01
  -3.933768e+01  -1.602098e+01
  -7.503055e+01  -2.926920e+01
  -2.160331e+01   4.660670e-01
   9.715507e+00   1.692720e+01
   2.400659e+00   2.389115e+01
   2.371800e+01  -1.606408e+01
  -8.619312e+00   1.046810e+01
   1.326612e+01  -3.385643e+01
   4.465680e+01   1.417012e+01
  -7.482822e-01   4.138069e+01
  -3.210837e+01   3.667540e+01
  -8.295029e+01  -2.738593e+01
  -5.444940e+00  -4.080388e+01
   5.521667e+01  -3.317322e+01
   7.298207e+01  -8.935531e-01
   4.942623e+01   4.109044e+01
  -1.730027e+01   4.342295e+01
  -8.630262e+01   3.571754e+01
  -9.411411e+00   8.056234e+00
   3.647834e+01  -3.628656e+01
   4.068822e+01  -1.146051e+01
  -5.606456e+01   4.839349e+01
  -1.040436e+02   1.282105e+01
