
 $NMID
 id='ANONYMOUS ', fmtdat='(2E16.6)'
 volume=1.0
 tramp=1.0
 $END
  -1.971725e+03  -9.284377e+01
  -1.545315e+03  -1.343131e+03
   5.135545e+02  -1.977466e+03
   1.389518e+03  -4.066598e+02
   6.786492e+02   2.355913e+02
  -4.867699e+02   8.284150e+01
  -4.106630e+02  -3.249502e+02
   1.415028e+01  -7.445522e+02
   4.383122e+02  -3.720151e+02
   4.133228e+02   1.062396e+02
   3.154258e+02   4.885825e+02
  -1.619603e+02   3.799094e+02
  -4.257194e+02   2.574690e+01
  -1.115133e+02  -3.151119e+02
   1.316490e+02  -3.577788e+02
   3.231019e+02  -4.625632e+01
   1.305598e+02   4.223497e+02
  -1.782516e+02   3.389079e+02
  -3.030679e+02   5.932361e+01
  -1.696823e+02  -1.959658e+02
   2.272075e+01  -2.534668e+02
   1.275839e+02  -1.721923e+02
   9.305878e+01  -1.686794e+01
  -8.944019e+01   2.352007e+01
  -1.438846e+02  -1.954822e+02
  -8.517313e+01  -2.568134e+02
   3.110131e+02  -1.658510e+02
   4.461612e+02  -2.841356e+00
   1.188645e+02   2.756845e+02
  -2.335315e+02   1.818378e+02
  -4.981199e+02  -5.920150e+01
  -1.358450e+02  -2.312080e+02
   1.762483e+02  -2.714501e+02
   3.845524e+02  -6.690695e+01
   2.533300e+02   1.025663e+02
   5.373495e+01   3.247426e+02
  -1.648137e+02   1.893721e+02
  -1.336993e+02  -1.522422e+02
   3.421077e+01  -2.691811e+02
   2.068413e+02   6.298414e+01
   1.331905e+02   3.766395e+02
  -1.779100e+02   3.654538e+02
  -2.982819e+02  -6.570749e+01
  -2.003846e+02  -2.379961e+02
   1.154083e+02  -1.544643e+02
   1.765511e+02   1.874086e+02
   1.627866e+01   3.130171e+02
  -3.645406e+02   9.044387e+01
  -2.116797e+02  -3.173985e+02
  -1.042561e+02  -3.667082e+02
   2.739724e+02  -2.101385e+02
   3.287942e+02   5.954961e+01
   2.467657e+02   2.585312e+02
  -5.189810e+01   1.795653e+02
  -3.241703e+02  -5.409096e+00
  -1.695452e+02  -1.069680e+02
   4.874928e+01  -9.354044e+01
   6.250521e+01   8.364590e+01
  -8.551731e+01   8.748550e+01
  -1.634034e+02  -4.737291e+01
  -1.244878e+02  -1.436434e+02
   1.176424e+02  -1.721273e+02
   2.246065e+02  -3.523093e+01
   1.180563e+02   7.297243e+00
  -1.799596e+01   1.872870e+02
  -1.645697e+02   1.871674e+02
  -1.587926e+02   1.084259e+02
  -1.313574e+02  -1.062122e+02
  -5.294557e+01  -2.166648e+02
   7.346173e+01  -3.065024e+02
   8.600695e+01  -4.892020e+01
   8.030488e+00  -2.792807e+01
   6.311328e+01  -5.171994e+01
   9.418342e+01  -4.450386e+01
   1.584342e+02   5.489156e+01
   1.181384e+02   1.609939e+02
  -3.378437e+01   1.635747e+02
  -1.637147e+02  -5.931839e+00
  -1.596833e+02  -1.439490e+02
   1.704785e+00  -1.680334e+02
   1.600975e+02  -5.742199e+01
   1.982699e+02   1.328536e+02
   1.646386e+02   2.513064e+02
  -4.255343e+01   1.895631e+02
  -1.852544e+02   1.063602e+02
  -9.831369e+01   1.208681e+01
  -3.699540e+01  -2.981171e+01
  -1.681278e+02   3.833676e+01
  -2.582911e+02  -8.614360e+01
  -2.127555e+02  -1.350537e+02
   3.673089e+01  -2.858325e+02
   2.331055e+02  -2.818615e+02
   3.761874e+02  -1.397400e+02
   2.394608e+02   1.015156e+02
   5.018329e+01   1.347474e+02
  -6.624921e+01   1.006537e+02
  -1.297578e+01   5.460310e+01
   2.960886e+01  -6.322700e+01
   7.782020e+01  -5.615046e+00
   1.472850e+01   1.278022e+02
  -2.143636e+01   8.397550e+01
  -8.449895e+01  -2.586313e+01
   4.140169e+01  -2.115893e+02
   1.038966e+02  -1.683344e+00
   7.059740e+01   1.072697e+02
  -7.582009e+00   1.941876e+02
  -1.959522e+02   1.091678e+02
  -1.822368e+02  -2.873890e+01
  -2.181012e+02  -1.874221e+02
  -1.696211e+01  -1.121034e+02
   1.218078e+02  -1.125174e+02
   9.682794e+01  -4.208176e+00
   4.719876e+01  -1.698568e+01
  -2.740883e+01  -4.358738e+01
  -1.286000e+00  -7.261323e+01
   1.024946e+02  -5.029978e+01
   7.667503e+01  -1.172115e+01
   4.370454e+01   3.983160e+01
  -1.478593e+01   3.978823e-01
  -4.611256e+01  -1.470858e+01
   1.294603e+02  -6.490189e+01
   1.833983e+02   1.589619e+01
   1.535107e+02   8.702242e+01
   2.414967e+01   1.912488e+02
  -1.025361e+02   8.078813e+01
  -1.927335e+02   5.263131e+01
  -9.425387e+01  -7.419168e+01
   2.927039e+01  -6.540767e+01
   5.986646e+01   6.602432e+00
  -4.330475e+01   4.943456e+01
  -1.415228e+02   4.578523e+01
  -1.814030e+02  -1.053672e+02
  -1.784108e+01  -1.073076e+02
   3.988376e+01  -9.982427e+01
   7.813315e+01  -3.225927e+01
   2.316984e+01   3.801047e+01
  -2.461315e+01   1.091352e+01
  -1.414909e+01  -6.190558e+01
   3.777319e+01  -5.068524e+01
   1.102582e+02   1.738665e+01
   1.617955e+02   9.579133e+01
  -7.813977e+00   1.263573e+02
  -1.048575e+02   6.055734e+01
  -8.828030e+01   4.466678e+01
  -8.916226e+01  -1.067609e+02
   2.084430e+01  -8.239028e+01
   6.840670e+01   2.552582e+00
   1.786344e+01   1.872610e+01
   4.465837e+00   2.842147e+01
   5.315821e+01  -3.770155e+01
   2.901501e+01   2.758154e-01
   5.778282e+01   8.702439e+01
  -4.799948e+00   9.322100e+01
  -5.979124e+01   8.448938e+01
  -1.823957e+02  -1.469904e+01
  -9.112762e+01  -1.130059e+02
   7.755893e+00  -1.252337e+02
   7.882073e+01  -1.111877e+02
   9.764225e+01  -1.858639e+01
   6.276174e+01   3.781777e+01
  -1.325253e+01   3.721939e+01
   3.459649e+01   1.312698e+00
   1.003888e+01   1.278732e+00
   3.474863e+01   2.852835e+01
  -1.499626e+01   7.832522e+01
  -6.379307e+01   4.974384e+01
  -5.710737e+01  -6.542938e+00
   1.419277e+01  -9.062169e+01
   8.053364e+01  -3.211164e+01
   9.096070e+01  -1.325411e+01
   7.793668e+01   1.381765e+02
  -3.635675e+01   1.425202e+02
  -9.599296e+01   3.744670e+01
  -1.326258e+02  -4.590024e+01
  -4.593714e+01  -1.224757e+02
   2.858436e+01  -1.235711e+02
   5.962338e+01  -3.467673e+01
   4.033774e+01  -3.362542e+01
   3.654198e+01  -3.753116e+01
   4.525509e+01  -5.518568e+01
   5.628731e+01   2.090899e+01
   7.509125e+01   7.927068e+01
   6.859355e+00   1.385777e+02
  -7.730652e+01   1.622285e+02
  -9.845722e+01   2.462948e+01
  -7.117069e+01  -8.219249e+01
   6.774920e+00  -5.980518e+01
   2.476218e+01  -6.702397e+00
   5.261733e+01   1.269907e+01
   6.760034e+00   8.116341e-01
  -1.368934e+01   3.753348e+01
  -1.020242e+01  -1.404962e+01
   3.028144e+01   2.948646e+01
  -2.647286e+01   4.879812e+00
  -6.849404e+01   1.077505e+01
  -8.589066e+01   2.205913e+01
  -1.239964e+02  -8.645355e+01
  -2.173265e+01  -4.981533e+01
   3.470916e+01  -5.401737e+01
   1.067608e+02   1.303799e+01
   5.915511e+01   5.249859e+01
  -1.188820e+01   1.860006e+01
  -3.205224e+01   1.011787e+01
  -3.770534e+01  -1.776560e+01
   3.349426e+01  -2.743377e+01
   4.770281e+01  -1.675016e+01
   2.433216e+01   2.531239e+01
  -3.453579e-01   5.788786e+01
   3.131691e+01  -1.834320e+01
   4.259777e+01  -1.076447e+01
  -2.465501e+01   2.101514e+01
  -2.110580e+01   6.566133e+01
  -5.897830e+01   9.978840e+01
  -9.837371e+01   2.293707e+01
  -1.122075e+02  -1.074995e+02
  -1.749412e+01  -5.803127e+01
   6.921673e+01   1.716162e+00
   5.528304e+01   1.150114e+01
  -2.724978e+01   5.436947e+00
  -6.758498e+01  -2.182394e+01
  -6.147594e+01  -1.277346e+01
   9.498014e+01  -4.619010e+01
   1.117076e+02  -2.587419e+01
   1.095498e+02   2.356718e+01
   4.436677e+01   5.418137e+01
  -2.736530e+01   3.536570e+01
  -2.748336e+01  -1.487407e+01
   4.931396e+01  -5.707782e+01
   4.070645e+01   1.972316e+01
   2.448360e+01   8.791051e+01
  -7.056496e+01   9.274043e+01
  -1.085564e+02   3.702004e+01
  -7.687443e+01  -4.907066e+01
  -1.441276e+01  -1.103520e+02
   5.514184e+01  -7.943800e+01
   7.710716e+01   2.410478e+01
   5.119344e+01   9.993250e+01
  -4.479963e+01   4.365529e+01
  -1.398028e+01   2.846818e+00
  -3.526068e+01   6.477548e+00
   1.290775e+01  -1.014238e+01
   4.266574e+01   3.009819e+00
  -2.051723e+01  -2.939657e+00
  -3.806372e+01  -5.748958e+01
  -2.429873e+01  -5.686524e+01
   6.942156e+01  -1.990382e+01
   6.416342e+01  -3.378476e+01
   3.355455e+01   4.914713e+01
   2.122021e+01   5.588118e+01
  -7.359242e+01   4.980494e+00
  -2.858546e+01   4.409450e+00
  -6.349705e+01  -1.058259e+01
   3.801575e+01  -2.533601e+01
  -1.412931e+01  -3.016655e+01
   1.001930e+00  -1.723445e+01
   2.788930e+00  -1.408997e+01
   4.980290e+01   2.611699e+01
   4.841897e+01  -1.971744e+01
  -2.788773e+01   6.292514e+01
  -7.793345e+01   6.659630e+01
  -1.374578e+02   1.355241e+01
  -1.064130e+02  -3.639116e+01
  -2.475929e+01  -1.546970e+02
   6.170632e+01  -6.410930e+01
   1.000960e+02  -1.912733e+01
   5.964718e+01  -7.596605e-01
   2.133632e+01   1.034949e+02
  -2.501339e+00   2.666471e+01
   2.303667e+00  -2.679346e+01
  -2.447596e+01   1.915142e+01
  -7.546136e+00   5.028676e+01
   8.603381e-01   2.917999e+01
  -3.815382e+01  -1.785675e+01
  -7.044694e+01  -5.005820e+01
   2.292712e+01  -1.087666e+02
   4.623922e+01  -4.051732e+01
   2.197852e+01   7.329563e+01
   1.141074e+01   4.523453e+01
  -2.661953e+01   2.419552e+01
  -7.161449e+01   1.110324e+01
  -2.029157e+01  -1.860167e+01
   3.009540e+01  -4.833302e+01
   3.882221e+01   1.269280e+01
   2.921939e+01  -5.220525e-01
  -6.640621e+01   2.982444e+00
  -1.193505e+00  -3.084299e+01
   4.609936e+01  -2.428746e+01
   1.049772e+02  -2.181368e+01
   7.711454e+01   4.387617e+01
  -1.595418e+01   7.785884e+01
  -5.616616e+01   6.062918e+01
  -3.467395e+01   1.387651e+01
   2.083686e+00  -4.004934e+01
   8.671889e+00  -3.607530e+01
   1.486895e+01  -4.337783e+01
   1.615177e+01   5.787221e+01
  -7.408875e+00   4.378253e+00
  -2.253755e+01  -6.799804e+00
  -1.512263e+01  -1.069096e+01
  -1.347157e+01  -2.259468e+01
  -3.354475e+00  -1.554317e+01
  -4.075705e+01   1.918300e+00
   1.160608e+01  -9.788419e+00
   2.427817e+01   3.494826e+00
  -8.208574e+00   6.617619e+00
   4.120307e+01   3.874792e+01
  -1.862566e+01   2.900760e+01
  -7.133514e+01   1.601496e+01
  -3.117509e+01  -4.023977e+01
  -1.758184e+00   1.820999e+00
   3.346165e+01   4.520109e+00
   5.300317e+01   3.323700e+01
   2.170252e+00   4.138374e+01
   8.660098e+00   3.906678e+01
  -1.766806e+01  -1.868941e+00
  -5.171788e+01   1.559734e+01
   5.189274e+01   1.703051e+01
   1.985790e+01   4.289593e+01
  -3.711264e+01   1.171670e+00
  -4.312151e+01   1.755314e+01
