
 $NMID
 id='ANONYMOUS ', fmtdat='(2E16.6)'
 volume=1.0
 tramp=1.0
 $END
   2.472901e+03   2.746425e+01
   1.700230e+03   1.859795e+03
  -5.124775e+02   2.304647e+03
  -1.596487e+03   5.581307e+02
  -7.493201e+02  -3.342468e+02
   4.143226e+02  -2.841715e+02
   6.643945e+02   1.106993e+02
  -1.243196e+02   7.258177e+02
  -5.108840e+02   5.966912e+02
  -6.711040e+02  -4.248114e+01
  -3.380738e+02  -6.476468e+02
   3.698055e+01  -6.545131e+02
   5.446577e+02  -2.068588e+02
   2.335345e+02   4.152886e+02
  -1.385593e+02   4.885852e+02
  -5.278959e+02  -6.329471e-01
  -2.542699e+02  -5.055347e+02
   2.042202e+02  -3.717843e+02
   4.182252e+02  -1.661948e+02
   3.012604e+02   2.243580e+02
  -1.168407e+01   3.506684e+02
  -1.640539e+02   2.567079e+02
  -1.398942e+02   6.157541e+01
   4.530919e+01   8.303507e+00
   2.317864e+02   1.707368e+02
   8.174569e+01   2.475391e+02
  -3.414007e+02   1.890825e+02
  -6.018878e+02  -8.169133e+01
  -3.351315e+02  -3.472645e+02
   3.095407e+02  -3.209247e+02
   6.148868e+02   7.691043e+01
   1.650613e+02   3.457618e+02
  -1.958420e+02   3.426087e+02
  -4.019733e+02   1.618624e+02
  -2.914499e+02  -1.716197e+02
  -5.510505e-01  -3.856192e+02
   1.259159e+02  -2.843355e+02
   1.275941e+02   1.262970e+02
  -1.328865e+02   3.300811e+02
  -3.752348e+02  -4.195443e+01
  -1.820277e+02  -5.555833e+02
   1.782662e+02  -4.926440e+02
   4.174233e+02   2.095984e+01
   1.349682e+02   3.796910e+02
  -8.941173e+01   2.314806e+02
  -2.100380e+02  -2.869741e+02
   3.777389e+01  -3.588569e+02
   4.637510e+02  -8.668416e+01
   4.263208e+02   2.807574e+02
   6.434491e+01   4.875229e+02
  -3.255754e+02   2.996091e+02
  -4.130089e+02  -1.382948e+02
  -3.343954e+02  -3.291647e+02
   9.328160e+01  -2.464920e+02
   3.478981e+02  -8.596528e+01
   2.083565e+02   1.409865e+02
  -5.860560e+01   8.859370e+01
  -1.116348e+02  -1.088522e+02
   1.095127e+02  -1.068838e+02
   2.370375e+02   6.584311e+01
   1.105273e+02   2.209561e+02
  -1.832666e+02   1.785526e+02
  -2.977251e+02   6.272039e+01
  -1.806685e+02  -3.972445e+01
   1.451501e+01  -2.067711e+02
   1.854815e+02  -2.532294e+02
   2.493378e+02  -1.410724e+02
   1.831008e+02   9.406981e+01
   4.358448e+01   3.027843e+02
  -1.380576e+02   3.035186e+02
  -5.073784e+01   6.522148e+01
  -4.445491e+01  -1.318779e+01
  -6.676214e+01   6.430302e+01
  -1.505419e+02   8.629023e+01
  -1.846262e+02  -3.962125e+01
  -8.251115e+01  -2.130014e+02
   8.652509e+01  -1.443870e+02
   1.863986e+02  -1.517802e+00
   1.367430e+02   2.056042e+02
  -4.108746e+01   1.894321e+02
  -2.582419e+02   6.843190e+01
  -2.803286e+02  -1.542503e+02
  -1.064292e+02  -3.489304e+02
   3.946805e+01  -1.963789e+02
   1.238406e+02  -6.808310e+01
   9.337867e+01   1.795205e+00
   7.446129e+01  -1.895649e+01
   2.111173e+02  -4.045150e+01
   2.713415e+02   2.189700e+01
   2.449106e+02   3.071005e+02
  -7.464263e+01   3.029970e+02
  -3.107929e+02   3.331281e+02
  -4.810648e+02   1.341657e+02
  -3.084400e+02  -9.321612e+01
  -2.185772e+01  -2.201036e+02
   1.115316e+02  -2.155621e+02
   6.783908e+01  -1.763792e+01
  -3.153024e+01   1.004398e+02
  -1.477405e+02   1.952036e+01
  -1.164392e+01  -1.492571e+02
   1.283871e+02  -9.265185e+01
   1.372921e+02   9.959178e+01
  -4.428552e+01   1.518256e+02
  -1.564568e+02   2.866856e+00
  -9.053236e+01  -1.677844e+02
   4.751711e+01  -2.473379e+02
   1.655380e+02  -1.737285e+02
   2.557338e+02   6.412802e+01
   2.512158e+02   2.294410e+02
   5.849799e+01   1.393646e+02
  -1.085564e+02   1.544710e+02
  -1.493721e+02  -1.228462e+01
  -3.475020e+01  -2.132081e+01
   4.060579e+01   2.151237e+01
  -2.479231e+01   8.975863e+01
  -7.869784e+01   7.611831e+01
  -1.122338e+02  -4.582984e+01
  -4.229011e+01  -6.310217e+01
   1.459699e+01  -2.163123e+00
   6.351749e+01   6.322560e+01
  -7.705318e+01   5.420904e+01
  -2.082088e+02   1.665488e+00
  -2.265385e+02  -1.419765e+02
   3.174282e+00  -1.445256e+02
   1.369176e+02  -1.794172e+02
   2.442485e+02  -6.891730e+01
   1.402974e+02   8.177140e+01
  -4.158842e+01   8.308535e+01
  -6.917356e+01   1.209065e+01
   3.807826e+01  -7.492489e+01
   1.633276e+02  -3.016510e+01
   2.147925e+02   1.305176e+02
   8.098690e+01   1.405805e+02
  -8.646654e+01   1.259257e+02
  -9.011760e+01   8.703014e+00
  -2.715484e+01   6.944482e-01
  -2.838627e+00  -2.136006e+01
   4.573896e+01   9.728684e+01
  -9.576761e+01   1.071841e+02
  -1.619395e+02  -3.467977e+01
  -1.615499e+02  -1.539458e+02
  -2.838401e+01  -1.479780e+02
   2.004341e+02  -1.142421e+02
   1.110240e+02  -3.613261e+01
   3.388679e+01   1.026123e+02
  -7.188686e+01   5.374662e+01
  -7.020465e+01   3.016868e+01
  -4.434067e+00   1.176499e+01
   1.454491e+01  -1.954619e+01
  -1.294519e+01   2.721414e+00
  -2.427570e+01  -1.929192e+01
  -5.225748e+01  -4.989531e+01
   3.284869e+01  -1.044035e+02
   1.429913e+02  -1.453202e+02
   2.064349e+02  -1.140597e+01
   1.662799e+02   1.096798e+02
   2.896669e-01   1.861756e+02
  -7.536172e+01   1.846287e+02
  -9.582903e+01   4.754016e+01
  -5.424022e+01  -4.273061e+01
  -1.227287e+01  -2.203778e+01
  -3.331123e+01   2.480713e+01
  -3.425845e+01  -1.885721e+01
  -5.026285e+01  -4.943553e+01
  -7.367288e+00  -1.132233e+02
   1.210901e+02  -3.232187e+01
   4.400870e+01  -1.640529e+01
   3.663985e+01   1.107565e+02
  -9.791611e+01   8.000279e+01
  -1.582222e+02  -4.474794e+00
  -5.538294e+01  -1.706966e+02
   1.401316e+02  -1.522236e+02
   2.040141e+02  -8.677659e+01
   1.834296e+02   2.708891e+01
   3.197908e+01   1.110684e+02
  -1.940386e+01   1.675841e+02
  -1.099592e+02   9.211602e+01
  -8.932968e+01   7.675105e+01
  -3.326218e+01   7.273077e+01
  -5.842647e+01   3.722305e+01
  -1.021076e+02  -2.047889e+01
  -7.106791e+01  -8.047155e+01
  -5.614786e+01  -1.818052e+02
   5.968243e+01  -1.546631e+02
   1.405671e+02  -1.003034e+01
   1.083498e+02   7.738426e+01
   1.937101e+01   1.116943e+02
  -9.930978e+01   4.622584e+01
  -5.370823e+01  -1.797484e+01
  -1.543234e+01  -5.031944e+01
  -9.380713e-01  -1.785164e+01
  -2.417493e+01  -4.469074e+01
  -8.453808e+00  -1.472830e+01
  -4.695743e+01  -6.215852e+01
   5.190683e+01  -6.518410e+01
   1.769292e+02   1.932909e+01
   1.267290e+02   6.612055e+01
  -2.044946e+01   7.778624e+01
  -7.050058e+01   7.084605e+01
  -1.410797e+02  -1.668099e+01
  -5.881930e+01  -4.709642e+01
   8.200281e+01  -3.171739e+01
   1.452878e+01  -1.569710e+01
   4.513832e+01   2.649968e+01
  -6.851253e+01   6.200906e+01
  -7.397592e+01   2.524867e+01
  -2.343522e+01  -3.399830e+01
  -2.276488e+01   1.541974e+01
  -6.255849e+01  -5.568468e+01
  -5.101466e+01  -2.672400e+01
  -6.077747e+01  -3.777222e+01
   3.170770e+01  -8.441420e+01
   6.109450e+01  -1.202544e+02
   1.301473e+02  -2.383978e+01
   8.196715e+01   9.250793e+01
   2.377579e+01   6.128286e+01
  -5.202751e+01   4.433637e+01
  -6.533892e+01  -2.965299e+01
   5.422464e+01  -7.095748e+01
   1.089714e+02   4.851705e+01
   4.659632e+01   9.652132e+01
  -3.873847e+01   5.926720e+01
  -1.412932e+02   4.220621e+00
  -1.143426e+02  -3.186511e+01
  -2.754426e+01  -4.092259e+01
   6.686762e+01  -4.805902e+01
   5.759288e+01  -3.024951e+01
  -6.700515e+01   4.435752e+01
  -7.196257e+01   1.237217e+01
  -3.308374e+01  -9.743548e+01
   3.324038e+01  -1.003455e+02
   1.294185e+02  -3.184858e+01
   1.001782e+02   4.260544e+01
   1.732128e+01   1.668714e+02
  -5.268169e+01   1.337996e+02
  -8.994791e+01  -1.677323e+01
  -1.680773e+01  -1.192706e+02
  -1.081437e+01  -1.129594e+02
   1.382408e+01  -3.249980e+01
   4.504137e+01   3.617713e+01
   1.306313e+01   6.810424e+00
  -1.258414e+01  -2.878538e+01
   4.867238e+01  -1.589772e+01
   5.114066e+01   5.490131e+01
   4.745536e+01   6.014445e+01
  -2.824498e+01   3.119397e+01
  -7.110684e+01  -3.234959e+01
  -6.135818e+01  -6.058255e+01
   2.374303e+01  -4.163434e+00
   2.163027e+01  -3.157667e+01
   8.474245e+01  -3.161788e+01
   4.643188e+01   3.368378e+01
  -2.013864e+01   1.153109e+01
  -2.195416e+00   4.075174e+01
   1.367571e+00   6.176565e+00
   1.638682e+01  -1.154613e+01
  -3.198219e+01  -1.070248e+01
  -6.122548e+01   3.311388e+01
  -3.724944e+00  -1.277801e+02
   9.805797e+01  -1.096203e+02
   1.234806e+02  -1.503706e+01
   1.283285e+02   4.167594e+01
   3.998913e+01   1.390488e+02
  -7.744612e+01   1.452452e+02
  -1.188394e+02   3.843611e+01
  -5.370729e+01  -2.246523e+01
  -3.189115e+01  -6.219918e+01
   9.245550e+00  -1.904068e+01
   1.033603e+01  -3.122879e+01
  -4.591952e+01  -5.738818e-01
  -7.542345e+00  -6.369019e+01
   5.744560e+01  -7.253146e+01
   4.406094e+01   3.670792e+01
   1.003903e+02   6.371931e+01
   3.981529e+01   9.859398e+01
  -3.919240e+01  -1.991935e+01
  -5.336879e+01  -6.286530e+01
  -4.911155e+01  -1.166699e+02
   2.582449e+01  -3.263186e+01
   9.484779e+01   2.974833e+01
   5.098405e+01   4.610819e+01
  -8.578248e+00   4.757516e+01
  -1.171358e+01   5.132736e+00
   1.330818e+01   1.282970e+01
  -2.280230e+01  -1.056748e+01
   1.020553e+01   6.470228e+01
  -6.048152e+01   5.532742e+01
  -8.603917e+01   1.278393e+01
  -8.479710e+01  -1.761339e+01
   1.349676e+01  -7.470080e+01
   3.610171e+01  -6.564676e+01
  -7.340744e+00   1.969741e+01
   1.186724e+01   4.246165e+01
   1.289790e+01   2.817539e+01
  -4.264036e+01  -2.520304e+01
  -1.525105e+01  -2.695657e+01
   3.389653e+01  -3.248296e+01
   5.388086e+01  -1.790728e+01
   4.197840e+01   1.589567e+01
   1.586320e+01  -2.235447e+00
   1.051489e+01  -1.472345e+01
  -1.405153e+01  -9.645863e-01
  -3.647876e+00   5.114775e+01
  -2.378409e-01   4.151806e+01
  -1.016453e+01  -3.656231e+00
  -3.558832e+01  -1.672119e+01
   1.409399e+01  -4.819886e+01
   3.902886e+01  -1.276221e+01
   4.856925e+01   3.639557e+01
   2.142938e+01   2.296730e+01
  -2.252189e+01   4.324548e+01
  -8.168859e+01  -2.064511e+01
  -4.666751e+01  -3.350032e+01
   2.931635e+01  -3.628186e+01
   5.370433e+01  -5.053610e+01
  -8.303262e+00   1.353677e+01
  -8.095419e+00  -1.810301e+01
  -2.101498e+01   1.749935e+01
   2.325221e+01  -4.354040e+00
   8.592428e+01  -6.053761e+01
