
 $NMID
 id='ANONYMOUS ', fmtdat='(2E16.6)'
 volume=1.0
 tramp=1.0
 $END
  -1.838067e+03  -3.249723e+02
  -1.419594e+03  -1.193570e+03
   1.260809e+02  -1.383192e+03
   9.195005e+02  -7.570452e+02
   5.362649e+02  -8.610721e+01
   1.405743e+01   3.301346e+02
  -3.256734e+02   3.180638e+01
   5.582007e+01  -2.542726e+02
   1.132598e+02  -3.518936e+02
   4.657772e+02  -1.726831e+02
   3.261048e+02   4.357285e+02
   1.729740e+02   5.174436e+02
  -2.405211e+02   6.352258e+01
  -2.279669e+02  -1.688111e+02
   8.080511e+01  -3.693970e+02
   2.205585e+02   1.251197e+01
   1.861257e+02   4.043294e+02
  -7.754218e+01   4.433162e+02
  -2.990902e+02   2.742434e+02
  -3.565546e+02  -1.254073e+02
  -5.157680e+01  -2.323446e+02
   1.367132e+02  -1.613410e+02
   8.004765e+01  -7.498760e+01
  -7.517934e+01  -1.057431e+02
  -7.707752e+01  -2.460543e+02
  -1.173383e+01  -1.836203e+02
   2.520735e+02  -1.053284e+02
   4.460251e+02   2.232862e+02
   1.651646e+02   1.201428e+02
  -2.305684e+02   2.540603e+02
  -3.032109e+02  -2.667529e+02
  -7.965193e+01  -1.961612e+02
   1.778720e+02  -1.741111e+02
   2.759760e+02  -1.624444e+02
   1.512125e+02   1.029971e+02
   5.603817e+01   1.775506e+02
  -5.185336e+01   1.784297e+02
   1.774803e+01  -7.790585e+01
   1.616868e+02  -1.725455e+02
   1.161249e+02   1.836121e+02
  -6.168229e+01   3.102812e+02
  -1.465809e+02   2.667270e+02
  -2.492174e+02   1.119783e+01
  -5.999349e+01  -1.518823e+02
   5.710859e+01  -1.616006e+02
   4.069419e+01   1.419469e+02
  -5.987537e+01   2.218047e+02
  -3.105319e+02   2.854875e+01
  -3.575897e+02  -1.785974e+02
  -8.484557e+01  -4.150092e+02
   3.076786e+02  -1.737223e+02
   2.474448e+02   3.753804e+01
   2.351637e+02   1.860699e+02
  -3.571151e+01   1.850562e+02
  -2.052033e+02   1.043679e+02
  -1.412705e+02  -4.432276e+01
   3.354637e+00   3.414235e+00
   5.913399e+01   8.919750e+01
  -3.486647e+01   7.199215e+01
  -1.893471e+02  -5.061926e-02
  -8.756594e+01  -1.374145e+02
   1.580984e+02  -1.654140e+02
   2.614408e+02  -5.952417e+01
   1.876773e+02   7.395086e+01
  -9.719174e+00   1.735139e+02
  -1.992654e+02   3.000699e+02
  -2.809786e+02   9.044633e+01
  -1.340944e+02  -1.214183e+02
  -3.709519e+01  -1.856001e+02
   3.654656e+01  -1.963996e+02
  -1.084300e+01  -1.308207e+02
   4.407722e+01  -7.387910e+01
   1.053273e+02  -5.412564e+01
   1.814229e+02  -6.685042e+01
   1.475788e+02   1.074758e+02
   4.996003e+01   1.085169e+02
  -7.450206e+01   1.120508e+02
  -1.067158e+02  -5.486351e+01
  -9.078579e+01  -1.816380e+02
   4.486465e+01  -1.454401e+02
   2.076817e+02  -1.246944e+01
   1.948948e+02   1.604553e+02
   8.878561e+01   2.182894e+02
  -1.890607e+01   2.228915e+02
  -8.747347e+01   1.283305e+02
  -1.217949e+02   3.825098e+01
  -8.429469e+01   9.746678e+00
  -1.758715e+02   2.894221e+01
  -2.693196e+02  -5.387503e+01
  -1.552645e+02  -2.350190e+02
   9.633916e+01  -2.340797e+02
   2.011732e+02  -2.903942e+02
   3.800312e+02  -1.663613e+01
   1.970898e+02  -1.226603e+01
   4.450429e+01   1.853979e+02
  -6.481290e+01   1.139818e+02
  -2.907352e+01   4.459518e+01
   7.161467e+01  -2.564758e+01
   5.059564e+01  -2.662918e+01
  -1.001588e+01   1.517618e+02
  -7.484493e+01   6.732423e+01
  -6.846446e+01  -3.869312e+00
   5.574921e+01  -1.195654e+02
   9.330971e+01   7.334422e+00
   9.737738e+01   1.044494e+02
  -2.323774e+00   2.190718e+02
  -1.556889e+02   1.098068e+02
  -2.376154e+02  -6.418549e+01
  -2.009701e+02  -1.822862e+02
  -4.803957e+01  -1.842272e+02
   9.928416e+01  -1.336822e+02
   1.144424e+02  -2.129177e+01
   2.119209e+01  -1.224229e+00
  -8.181055e+01  -4.841289e+01
   2.395223e+01  -7.203209e+01
   7.072639e+01  -5.804256e+01
   6.747477e+01   3.507687e+01
  -3.365887e+01   4.630512e+01
  -5.621198e+01  -1.717116e+01
  -5.786279e+01  -2.666152e+01
   9.005118e+01  -5.482809e+01
   2.036065e+02   1.290824e+01
   1.710162e+02   1.603581e+02
  -9.110617e+00   1.630808e+02
  -1.354165e+02   1.275626e+02
  -1.894041e+02   5.414083e+01
  -6.207124e+01  -6.238856e+01
   1.395381e+01  -4.726599e+01
   5.679140e+01   4.477796e+00
  -2.482502e+01   6.305954e+01
  -7.622151e+01  -5.569305e+01
  -1.351910e+02  -7.232431e+01
  -1.585166e+01  -1.618956e+02
   5.256986e+01  -9.994897e+01
   1.082719e+02   1.879070e-01
   4.421265e+01   7.164604e+01
  -2.833085e+01  -3.088975e+01
   6.269038e+00  -9.445628e+01
   5.696878e+01  -8.026758e+01
   1.318388e+02   2.653390e+01
   9.708807e+01   1.334600e+02
  -3.914842e+01   1.300405e+02
  -7.943804e+01   8.500610e+01
  -1.033224e+02   2.734702e+01
  -5.164420e+01  -6.050169e+01
   4.772007e+01  -5.050085e+01
   5.231741e+01  -2.650039e+01
  -2.729583e+01   1.021201e+01
  -5.318361e+01   2.840556e+00
   1.895935e+00  -1.126517e-01
   5.731808e+01   8.688006e+00
   5.603487e+01   5.261884e+01
   1.624859e+01   1.532604e+02
  -1.061474e+02   8.182277e+01
  -2.046946e+02   4.201042e+00
  -1.478505e+02  -8.742764e+01
  -2.629122e+01  -1.610053e+02
   8.444024e+01  -1.000827e+02
   8.613663e+01  -5.786750e+01
   5.327648e+01  -4.462850e+00
   1.795045e+01   2.197953e+01
   2.910942e+00  -4.217247e+01
   7.626995e+01  -2.702906e+01
   3.546975e+01   3.107730e+01
  -1.724449e+01   4.459877e+01
  -8.884961e+01   1.465195e+01
  -7.374766e+01  -2.512264e+01
   3.560652e+01  -1.042815e+02
   8.189235e+01  -6.254682e+01
   1.845704e+02   3.633371e+01
   1.895182e+01   1.343182e+02
  -5.960476e+01   9.567363e+01
  -1.748415e+02   2.026602e+01
  -1.442789e+02  -6.998105e+01
  -5.225270e+01  -1.086909e+02
  -1.375820e+01  -1.152032e+02
   4.121502e+01  -6.386135e+01
   9.143653e+01  -1.755942e+01
   8.506746e+01  -7.092728e+01
   3.529047e+01  -6.198450e+00
   6.723880e+01   2.185683e+01
   1.287222e+02   1.052804e+02
   3.575303e+01   1.067956e+02
  -1.158835e+02   9.168055e+01
  -1.103336e+02  -3.599120e+01
  -7.318238e+01  -7.229050e+01
   5.993919e+01  -1.024482e+02
   7.870788e+01  -6.974494e+01
   5.870511e+01   4.219450e+00
   2.945696e+01   6.372565e+01
  -1.574831e+01   7.924709e-01
  -1.580528e+01   1.518362e+01
   3.160373e+01   8.421888e+01
   6.291303e+00   6.279294e+01
  -3.559923e+01   1.638366e+01
  -1.117540e+02   5.434542e+00
  -9.713921e+01  -7.417570e+01
   7.198769e+00  -1.149435e+02
   3.575303e+01  -7.154677e+01
   1.048953e+02   1.800943e+01
   2.867980e+01   4.287271e+01
  -4.952995e+01  -1.749858e+01
  -5.317670e+01   5.632087e+01
   1.943252e+00  -3.865408e+01
   7.279251e+01  -6.975534e+01
   8.651967e+01  -8.307768e+00
   6.606258e+00   2.816229e+01
   3.287897e+00   3.957485e+01
   5.586269e+01   2.646549e+01
   5.034004e+01   4.645584e+01
   3.873094e+01   4.867151e+01
  -1.721041e+01   7.763102e+01
  -6.433376e+01   1.081772e+02
  -1.295683e+02   5.184112e+01
  -5.499833e+01  -7.716245e+01
  -1.888512e+01  -9.843260e+01
   2.109030e+01  -3.759762e+01
   3.882267e+01   1.341908e+00
  -4.162338e+01   1.878187e+01
  -9.160216e+01  -7.212740e+01
  -4.901684e+01  -7.994172e+01
   1.117850e+02  -6.994659e+01
   8.912027e+01  -4.127314e+01
   1.076112e+02   5.859613e+01
   3.348624e+00   6.523654e+01
  -6.472030e+01   2.836661e+01
  -9.632149e+01   1.821520e-01
   5.083589e+01  -3.248867e+01
   4.169375e+01  -7.756880e+00
   3.865718e+00   9.260877e+01
  -4.241978e+01   5.680957e+01
  -1.011976e+02   3.465458e+01
  -1.022012e+02  -7.124955e+01
   2.272850e+01  -1.035395e+02
   6.238810e+01  -9.048495e+01
   1.013748e+02   2.350472e+01
   1.296962e+01   6.894631e+01
  -6.591905e+00   6.786175e+01
  -3.415877e+01  -3.265771e+01
  -4.425872e+01  -2.078888e+01
  -2.287146e+01  -2.143763e+01
   2.789012e+01  -1.415225e+01
  -2.481000e+01   1.319137e+00
  -4.000738e+01  -1.957699e+01
   5.614524e+00  -7.019299e+01
   2.434979e+01   6.471260e+00
   5.644685e+01   3.914334e+01
   1.014286e+02   3.395155e+01
   2.162210e+01   6.243022e+01
  -4.527665e+01   1.112839e+00
  -9.375887e+01   2.696305e+01
  -2.196173e+01   6.668796e+00
   1.503881e+01  -2.810617e+01
  -3.412929e+00   9.369460e+00
  -2.534131e+01   3.133129e+01
   1.402644e+01  -1.767557e+01
   5.331147e+01  -4.520239e+01
   6.354239e+01   3.022179e+01
   2.805573e+01   4.814776e+01
  -9.111156e+01   4.574046e+01
  -1.250822e+02   4.490332e+01
  -8.429884e+01  -2.119038e+01
  -3.531039e+01  -1.157527e+02
   9.265989e+01  -9.225453e+01
   1.330549e+02  -6.610064e+01
   3.904797e+01   5.131479e+00
   3.189000e-01   8.471872e+01
  -7.616691e+00   1.768449e+01
  -1.279963e+00   1.916542e+01
   6.396285e+01   3.258064e+01
   9.370539e+00   6.246976e+01
  -2.268013e+01   3.812502e+01
  -6.614585e+01  -2.927951e+01
  -7.922469e+01  -5.508305e+01
  -2.760823e+01  -4.771170e+01
   2.752730e+01  -1.823137e+01
   8.270080e+01   6.170169e+01
   1.992649e+01   2.355433e+01
  -1.619030e+01   5.160987e+01
  -5.663775e+01  -2.488681e+01
  -3.564965e+00  -2.622454e+01
  -5.234042e+00  -2.199912e+01
   3.106359e+01  -3.857774e+01
  -2.126595e+01   1.205760e+01
  -4.109498e+01  -1.086953e+01
  -2.391131e+00  -1.523026e+00
   4.945868e+01  -5.941993e+01
   7.788256e+01  -5.184877e+01
   5.440172e+01   1.945476e+01
  -1.557948e+01   6.441225e+01
  -4.271793e+01   3.306367e+01
  -7.707214e+00   1.206327e+01
  -2.458026e+01  -5.593649e+00
   8.682889e+01   2.354615e+00
  -2.143250e+01   7.987217e+00
   4.785690e+00   3.245088e+01
   3.555756e+00   4.145294e+01
  -1.340781e+01  -1.228476e+01
   4.143719e+01   1.062850e+01
  -6.940763e+00  -1.131663e+01
  -1.117901e+01   2.143677e+01
  -3.591729e-01  -4.457971e+00
   3.621831e+01  -6.993926e+00
   4.732847e+01  -9.653146e+00
   2.496570e+01  -3.657829e+01
   2.839362e+01   3.645023e+01
   9.652014e+00   6.724343e+01
   1.297141e+01   2.874711e+01
  -9.035630e+01  -5.142447e+01
   5.638689e+00  -4.157417e+01
  -3.059124e+00   6.688659e-01
   3.751793e+01   2.759413e+01
   4.923382e+00   4.391773e+00
  -5.364340e+01   9.886165e+00
  -7.266093e+01   4.166148e+01
   2.588465e+01  -1.267273e+01
   1.783103e+01  -2.376576e+01
   2.613763e+01  -1.102040e+01
  -2.345458e+01   3.648596e+01
  -2.273117e+01   3.754828e+01
