
 $NMID
 id='ANONYMOUS ', fmtdat='(2E16.6)'
 volume=1.0
 tramp=1.0
 $END
  -2.396821e+03  -5.405656e+02
  -2.159657e+03  -1.768062e+03
   9.738457e+01  -2.056920e+03
   1.245989e+03  -8.356721e+02
   8.485741e+02  -1.011727e+02
  -1.821679e+02   1.317963e+02
  -2.617693e+02  -3.355356e+01
  -4.644106e+01  -4.488086e+02
   2.600583e+02  -3.761469e+02
   4.484730e+02   2.439398e+01
   4.645762e+02   5.883118e+02
   1.999703e+01   4.860235e+02
  -2.326765e+02   1.355036e+02
  -1.814045e+02  -4.672446e+02
   4.300024e+01  -3.013660e+02
   3.274106e+02  -4.147250e+01
   2.474808e+02   4.746880e+02
  -1.294240e+02   5.027146e+02
  -3.904152e+02   2.316646e+02
  -2.912878e+02  -1.713176e+02
  -8.623296e+01  -3.427892e+02
   2.100487e+02  -2.025258e+02
   3.906706e+01  -1.109200e+02
  -1.781536e+02  -1.202040e+02
  -2.462043e+02  -3.051307e+02
   6.149066e+01  -3.129289e+02
   4.457979e+02  -9.122185e+01
   5.067536e+02   1.279183e+02
   1.658487e+02   3.906630e+02
  -4.128629e+02   1.705110e+02
  -5.199386e+02  -1.772217e+02
  -6.555725e+01  -3.357122e+02
   3.446463e+02  -3.234862e+02
   3.940230e+02  -2.510926e+01
   2.425504e+02   1.572912e+02
   3.189715e-01   3.601266e+02
  -1.289798e+02   1.729310e+02
   2.756368e+01  -9.645014e+01
   2.620002e+02  -1.455973e+02
   1.731702e+02   2.296725e+02
  -1.038049e+02   4.130028e+02
  -3.097116e+02   3.525926e+02
  -1.933253e+02  -1.298514e+02
   2.062028e+01  -2.001687e+02
   1.420369e+02  -1.610307e+02
   1.338961e+02   2.225545e+02
  -1.564040e+02   3.240369e+02
  -3.935246e+02   5.835251e+01
  -3.968810e+02  -4.944332e+02
  -1.163589e+02  -5.174262e+02
   3.015811e+02  -2.175977e+02
   4.578721e+02   6.618080e+01
   3.169408e+02   2.684658e+02
  -2.110039e+00   1.135796e+02
  -3.242102e+02   9.707767e+01
  -2.446160e+02  -6.802858e+01
   6.313186e+01  -3.842076e+01
   3.816200e+01   3.393673e+01
  -7.762913e+01   6.701593e+01
  -2.307010e+02  -9.425059e+01
  -1.686142e+02  -1.336993e+02
   1.771980e+02  -2.440604e+02
   3.813211e+02  -1.732345e+02
   2.310486e+02   6.860335e+01
  -3.283204e+01   2.906338e+02
  -3.359880e+02   3.844745e+02
  -3.449056e+02   1.425456e+02
  -2.020109e+02  -2.092037e+02
   8.802830e+00  -2.808947e+02
   5.741514e+01  -2.788324e+02
  -3.922295e+01  -1.215669e+02
  -1.976077e+01  -9.336652e+01
   1.213048e+02  -1.437814e+02
   2.183255e+02  -6.951074e+01
   1.323132e+02   1.259338e+02
   1.109427e+02   2.266640e+02
  -1.372632e+02   1.111765e+02
  -2.021412e+02  -8.054133e+01
  -1.640770e+02  -2.740690e+02
   6.578375e+01  -2.367344e+02
   2.871133e+02  -7.500509e+01
   3.818823e+02   2.015617e+02
   1.656844e+02   3.136317e+02
  -1.001520e+02   2.584292e+02
  -9.499226e+01   1.349994e+02
  -1.335024e+02   4.663243e+01
  -1.584034e+02   9.380012e+01
  -2.706601e+02   7.251313e+01
  -3.492745e+02  -1.160723e+02
  -3.106774e+02  -3.175912e+02
   3.427750e+01  -3.663902e+02
   4.875322e+02  -3.658728e+02
   4.798080e+02  -1.600638e+02
   3.171046e+02   1.581229e+02
  -3.256466e+01   2.544467e+02
  -1.096102e+02   1.784271e+02
   2.747317e+00   2.709149e+01
   1.431490e+02  -2.672890e+01
   1.110045e+02   6.000582e+01
   1.967042e+00   1.690582e+02
  -8.988165e+01   5.186995e+01
  -8.055045e+01  -4.630814e+01
   4.310880e+01  -1.362641e+02
   1.516001e+02   1.904391e+00
   1.173552e+02   2.105803e+02
  -1.609711e+01   2.654809e+02
  -2.687748e+02   2.333266e+02
  -3.383304e+02  -6.304652e+01
  -2.768338e+02  -2.358797e+02
  -3.541520e+01  -2.465835e+02
   1.103690e+02  -1.140678e+02
   2.057412e+02   4.263151e+00
   2.633117e+01  -4.526470e+00
  -5.708524e+01  -8.105231e+01
   7.795402e+01  -1.082549e+02
   8.807638e+01  -4.285349e+01
   1.537228e+02   5.713260e+01
   5.059738e+00   5.961783e+01
  -4.706757e+01   3.520559e+00
  -4.046413e+01  -1.399618e+02
   1.284712e+02  -3.352433e+01
   2.286331e+02   1.052070e+02
   2.590266e+02   2.129971e+02
  -5.190671e+01   2.025270e+02
  -1.761053e+02   1.920950e+02
  -2.774788e+02   9.475742e+01
  -1.097837e+02  -6.917538e+01
   7.804461e+01  -5.758134e+01
   5.107764e+01   5.876594e+00
  -5.398878e+01   6.058088e+01
  -1.571509e+02  -1.408111e+01
  -2.011482e+02  -1.662173e+02
  -2.986772e+01  -1.852130e+02
   1.034490e+02  -1.469918e+02
   1.158210e+02   6.648743e+00
   5.538289e+01   1.758481e+01
  -3.240486e+01  -3.303888e+00
  -4.795966e+01  -1.354331e+02
   7.382878e+01  -9.471432e+01
   2.295953e+02   2.508843e+00
   1.721157e+02   1.494785e+02
   4.684028e+01   2.122139e+02
  -1.921017e+02   1.238116e+02
  -1.358965e+02   4.047506e+01
  -2.220222e+01  -7.935470e+01
   1.133703e+02  -6.991895e+01
   8.309570e+01  -1.121144e+01
  -3.104172e+01   4.215281e+01
  -2.643551e+01  -1.874852e+01
   5.813572e+01  -2.596117e+01
   1.383749e+02  -2.600265e+01
   9.386798e+01   9.182195e+01
  -4.707656e+01   1.409816e+02
  -1.787713e+02   1.443369e+02
  -2.431220e+02   4.711974e-01
  -2.239101e+02  -2.521577e+02
   1.370472e+01  -1.867845e+02
   5.256328e+01  -9.960482e+01
   1.415344e+02  -5.468397e+01
   1.677071e+01   6.279365e+01
   5.440555e+01   3.359873e+01
   8.912042e+01  -2.814478e+01
   6.933421e+01  -2.865136e+01
   5.124904e+01   1.077491e+01
  -3.011607e+01   7.418839e+01
  -1.404228e+02   6.848850e+01
  -9.776599e+01  -4.712918e+01
   3.740088e+01  -1.373728e+02
   1.333506e+02  -5.384192e+01
   1.588021e+02   9.531274e+01
   9.419136e+01   2.074192e+02
  -8.754346e+01   1.603752e+02
  -2.615932e+02   9.130042e+01
  -2.240922e+02  -1.545048e+02
  -9.938732e+01  -1.780466e+02
   8.103800e+01  -1.361247e+02
   3.885703e+01  -4.861139e+01
   5.788881e+01  -5.352289e+01
   5.846040e+01  -5.905196e+01
   8.216044e+01  -7.593881e+01
   1.276114e+02   1.741539e+01
   9.165416e+01   1.591977e+02
  -2.280225e+01   1.766518e+02
  -9.918968e+01   1.525420e+02
  -1.722083e+02   1.227621e+01
  -1.146375e+02  -1.640176e+02
  -2.088073e+00  -1.375272e+02
   5.477200e+01  -5.261517e+01
   2.476319e+01  -1.718908e+00
   1.206967e+01   4.200349e+01
  -3.705146e+01   8.363594e+01
   3.766321e+00  -7.107746e+00
   3.226600e+01   4.120240e+01
   3.279950e+01   6.878465e+01
  -5.668685e+01   8.740164e+01
  -1.577882e+02   5.523269e+00
  -1.174787e+02  -7.557276e+01
  -1.650516e+01  -6.373391e+01
   1.419420e+02  -6.185984e+01
   1.492266e+02   5.868608e+00
   7.033581e+01   4.400410e+01
  -4.034892e+01   4.516132e+01
  -6.989951e+01  -1.618610e+01
  -2.279124e+01  -9.889143e+01
   6.823497e+01  -5.994818e+01
   7.462460e+01  -5.818452e+01
   7.786809e+01   4.697285e+01
   6.163282e+01   6.099058e+01
   6.522756e+01   6.785817e+00
   6.629208e+01   2.975809e+01
   6.760496e+01   7.202487e+01
  -1.314119e+01   1.458765e+02
  -8.642264e+01   1.187490e+02
  -1.394849e+02  -5.177960e+00
  -1.444945e+02  -1.257076e+02
   3.208566e+01  -1.090167e+02
   7.861976e+01  -4.189618e+01
   5.378500e+01   1.810197e+01
  -9.095630e+01   6.320239e+01
  -1.208455e+02  -1.773397e+01
  -1.133408e+02  -9.568161e+01
   8.403803e+01  -9.268946e+01
   2.211673e+02  -1.715349e+01
   1.428120e+02   7.058992e+01
   5.484331e+01   1.010016e+02
  -4.471258e+01   6.411136e+01
  -2.988926e+01  -3.929182e+01
   4.144662e+01  -2.336959e+01
   4.693657e+01   1.803610e+01
   2.712754e+01   8.557004e+01
  -8.626588e+01   1.854994e+02
  -8.960955e+01   6.298169e+01
  -9.619759e+01  -5.604945e+01
  -1.458969e+01  -1.607783e+02
   1.037935e+02  -9.928823e+01
   9.974725e+01   3.029651e+01
   3.996261e+01   1.273274e+02
  -5.488011e+01   9.077999e+01
  -6.695995e+01  -3.566180e+01
  -4.360064e+01  -5.284635e+01
   1.308511e+01  -1.934394e+01
   2.275116e+00   3.795466e+01
  -1.152100e+01  -2.219024e+01
  -7.687002e+01  -1.122537e+02
  -3.402722e+01  -8.305522e+01
   5.089733e+01  -4.301232e+01
   1.183840e+02   6.086525e+01
   1.021823e+02   6.360271e+01
   2.134726e+01   6.668727e+01
  -7.815668e+01   4.218359e+01
  -8.637191e+01   9.520343e+00
  -2.351902e+01  -1.864708e+01
   2.809031e+01  -4.059348e+01
   2.417832e+01   1.458735e+01
   3.748130e+00  -9.687213e+00
   1.202634e+01  -2.402135e+01
   2.818374e+01   4.101310e+01
   8.727601e+01  -1.114955e+01
   1.169162e+01   8.435832e+01
  -1.393939e+02   1.007498e+02
  -1.644225e+02   5.409866e+01
  -1.227307e+02  -4.034612e+01
  -1.886346e+01  -1.764531e+02
   9.399437e+01  -1.393247e+02
   1.151379e+02  -7.642173e+01
   8.791842e+01   4.488672e-01
  -3.763809e+00  -1.852152e+00
   3.740613e+01   4.132088e+00
   5.653625e+01  -1.127524e+01
   1.239469e+01   3.730923e+01
   1.106141e+01   1.263786e+02
  -6.131659e+01   2.916094e+01
  -5.425577e+01  -7.006570e+00
  -9.759369e+01  -6.510973e+01
   5.610339e-01  -1.286127e+02
   7.962903e+01  -2.251226e+01
   7.535688e+01   4.367881e+01
   4.046283e+01   1.505899e+02
  -4.647394e+01   7.930275e+01
  -1.096205e+02  -4.420638e+00
  -1.817809e+01  -7.717060e+01
   3.173167e+01  -5.074556e+01
   2.644193e+01  -3.859162e+01
  -1.461578e+01   3.214279e+01
  -8.520320e+01   2.138412e+01
   1.887444e+01  -5.953880e+01
   9.555362e+01  -1.045992e+02
   8.784934e+01  -2.921737e+01
   7.728237e+01  -6.706918e+00
   1.142221e+01   5.709543e+01
  -4.495282e+01   9.814152e+01
  -3.569124e+01   1.934869e+01
   7.264682e+00  -5.760127e+01
  -7.527311e+00  -5.417351e+01
   3.652821e+01   4.732634e+01
   4.845070e+01   4.337052e+01
   2.704567e+01   4.481591e+01
  -5.097775e+01  -2.707026e+01
  -5.610968e+01  -6.318073e+01
  -9.107419e+00   8.570550e+00
   4.094426e+01   2.132791e+01
   1.681421e+01  -1.807234e+01
  -2.978571e-01  -7.142849e+00
   2.845630e+01  -3.999074e+01
   3.157928e+01   3.809324e+00
   5.239866e+01   2.522662e+01
   2.943501e+01   4.795622e+01
  -6.713821e+01   2.995896e+00
  -6.828374e+01  -6.215368e+01
  -2.292667e+01  -9.056982e+01
   3.735726e+01  -6.658116e+01
   5.449807e+01   4.975509e+00
   2.657857e+01   4.576854e+01
  -1.929282e+01   2.756995e+01
  -7.386877e+01   1.220955e+00
  -3.804704e+01  -1.922311e+01
  -1.513715e+01  -1.439674e+00
   3.532826e+01  -1.747910e+01
  -2.564937e+01  -1.677546e+01
  -5.863429e+01  -1.078743e+01
