
 $NMID
 id='ANONYMOUS ', fmtdat='(2E16.6)'
 volume=1.0
 tramp=1.0
 $END
   4.972268e+02  -5.036481e+02
   4.190864e+02  -3.990259e+01
   2.591955e+02   4.736696e+02
  -3.789225e+02   6.268786e+02
  -2.209784e+02   3.444649e+02
  -1.256590e+02   2.127316e+01
   7.923128e+00   5.243993e+01
   8.862892e+01   1.108122e+02
   9.130761e+01   5.581928e+01
   4.728706e+00   1.680485e+02
  -1.734498e+02  -3.729063e+01
  -4.063088e+01  -1.563529e+02
   4.824469e+01  -1.078085e+02
  -2.839069e+01   1.617786e+01
   1.409869e+02   1.211455e+02
  -9.588733e+01   1.063304e+02
  -4.409139e+01  -6.625429e+01
   3.197273e+01  -1.465393e+02
   2.160582e+01  -1.391658e+02
   1.788824e+02  -1.990160e+01
   9.461770e+01   4.105332e+01
  -1.618424e+01   5.287161e+01
  -5.488205e+01   1.833613e+01
   4.556787e+01   1.449782e+01
   9.573586e+01   1.625752e+01
  -2.426693e+01   9.797025e+01
  -1.354389e+02   4.422476e+01
  -1.190102e+02  -2.680547e+01
  -8.133763e+01   1.967855e+01
   3.254819e+00  -4.250362e+01
   3.341301e+01  -2.601890e+01
   2.977732e+00  -9.968731e+00
  -3.554593e+01   2.074201e+01
  -4.145423e+00   5.847475e+01
  -7.662370e+01   2.454465e+01
   9.310620e+00   1.611444e+01
   1.461480e+01  -7.426031e-01
  -3.187911e+01   5.673727e+01
  -4.824648e+01   7.727413e+00
  -3.472300e+01  -5.898309e+01
   3.243752e+01  -6.558678e+01
  -3.103355e+00  -1.170480e+01
   1.555500e+01  -5.205338e+01
  -5.336226e+01  -8.044434e+01
   3.784383e+01  -7.727068e+01
   1.394396e+01  -6.843174e+01
   4.691306e-01  -2.151145e+01
   3.627255e+01  -3.176679e+01
   2.004428e+02   1.179357e+02
   7.772923e+01   1.227434e+02
  -1.401001e+02   6.640325e+01
  -1.984697e+01   2.789249e+01
  -4.498938e+01   2.739032e+01
   2.515037e+00   2.779006e+01
   1.830493e+01   4.380861e+01
   1.759917e+01  -3.730204e+01
   1.103368e+02  -3.997285e+01
   3.975325e+01   4.788934e+01
  -6.768779e+00  -1.685492e+01
   1.909954e+01  -5.073017e+01
   1.807446e+01  -5.043005e+00
  -1.228286e+01   1.084790e+02
  -4.808109e+01   7.987593e+01
  -7.574686e+01  -1.386962e+01
  -4.427522e+01  -1.418135e+02
   6.024057e+01  -8.049004e+01
   1.333707e+02  -4.673143e+01
   2.231650e+01   3.801259e+01
   1.566433e+01   7.576213e+01
   3.115733e+01   5.964879e+00
  -1.923442e+01   7.365544e+01
  -6.243364e+00   1.217305e+02
  -8.727427e+01   2.852488e+01
  -8.897192e+01   1.601618e+01
  -6.532778e+01  -5.056216e+01
   3.916413e+01  -4.000257e+01
   2.112243e+01  -3.836755e+01
   1.489114e+01   2.991842e+01
   2.765407e+01   3.635570e+01
  -6.441576e+00   9.426551e+01
  -8.405252e+01   2.228238e+01
  -9.736575e+01  -7.170628e+01
  -5.072499e+01  -5.079510e+01
  -2.902470e+01  -7.187036e+01
  -1.133624e+01  -1.274092e+01
   5.598972e+01  -9.728001e+01
   2.681542e+01  -4.280458e+01
   9.114555e+01  -6.402252e+00
   1.054699e+02   6.154234e+01
   6.456549e+01   5.941917e+01
  -9.883048e+00   9.749179e+01
  -5.106725e+01   1.612055e+02
  -5.717039e+01   7.447514e+01
  -3.952272e+01   4.090610e+01
  -1.990576e+01  -5.280291e+01
   2.686940e+01   3.980368e+00
  -5.019437e+00  -2.302083e+01
  -3.062709e+01   1.231523e+01
  -1.536098e+01   3.902299e+00
  -3.557672e-01  -4.718262e+01
   1.788058e+00  -3.293996e+01
   1.829107e+01   3.881448e+01
  -2.275053e+01   1.823154e+01
   2.335748e-01   2.116110e+01
  -5.705902e+01  -9.602250e+01
  -3.023714e+01  -1.415517e+02
   1.999436e+01  -5.246793e+01
   1.581364e+02  -3.433621e+01
   7.241899e+01   3.606414e+01
   1.726137e+01   1.048824e+02
  -2.776689e-01   5.153806e+01
  -4.671825e+01  -8.189482e-01
   1.349770e+01  -1.012958e+01
   2.187734e+01   1.609775e+01
   6.118572e-02   1.221539e+01
  -3.923820e+01   5.910767e+01
  -4.132575e+01  -3.702407e+01
  -1.266870e+01  -3.028296e+01
  -1.299040e+01  -9.145941e-01
   5.972616e+01   7.391741e+00
  -7.655020e+01  -8.363572e+00
  -1.053331e+02   2.551327e+01
  -6.773413e+01  -1.800368e+01
  -1.283291e+01  -3.616929e+01
   8.705618e+01  -5.558436e+01
   5.597571e+01  -5.057866e+01
   2.145807e+01   1.045318e+01
  -2.648162e+01   2.472701e+01
  -2.188615e+01   1.481652e+01
   2.695285e+01  -6.780014e+00
   4.095090e+01  -9.228631e+00
   8.982672e+01   1.404416e+01
   4.074830e+01   5.047996e+01
  -1.109608e+01  -3.416824e+00
  -3.977614e+01   2.248720e+01
  -1.263573e+01  -2.008319e+00
  -7.339099e+00  -7.152071e+00
   1.018348e+01   4.881578e+01
  -5.938264e+00  -1.422759e+01
  -6.084185e+01   9.652808e+01
  -5.864024e+01   2.884125e+01
   4.040504e+00  -3.359140e+01
   3.744308e+01  -3.650216e+01
   7.262130e+01   2.886805e+01
   4.230874e+01   8.766203e+00
   8.044011e+00   8.495224e+00
  -6.755915e+00   1.641000e+01
   6.537014e+00   1.764251e+01
   5.436213e+01   1.177187e+00
  -1.106663e+01   2.174283e+01
  -3.914763e+01   7.823118e+00
  -4.961227e+01  -6.187045e+01
   1.363431e+01  -6.221780e+01
   3.088560e+01  -4.990066e+01
   7.042921e+01  -4.569851e+01
   7.669366e+01   2.430499e+01
  -7.482961e+00   1.219881e+02
  -2.258755e+01   1.432817e+01
  -8.989642e+01  -3.097318e+00
  -5.544868e+01  -3.693590e+01
   8.120860e-01   9.040341e+00
  -1.911251e+01   1.978929e+01
  -4.726086e+01   1.243283e+01
   1.377551e-01  -4.284468e+01
   1.317048e+01  -3.100568e+01
   3.333743e+01  -3.747753e+01
   7.131394e+01  -6.112608e-01
   7.932741e+00   2.843188e+01
  -3.058093e+01   4.431582e+01
  -3.641303e+01  -5.576707e+01
  -2.281474e+01  -4.458941e+01
   2.713422e+01  -7.352556e+01
   3.828165e+01  -8.513110e+00
   9.720399e+01   2.883997e+01
   6.948241e+01   4.447702e+01
   1.535474e+01   5.236421e+01
  -4.789079e+00   1.756883e+01
  -2.056369e+01   5.224921e+00
   1.768621e+01   3.042349e+01
   4.979887e+00   2.893437e+01
  -7.469600e+01   8.995913e+00
  -5.591575e+01  -4.216586e+01
  -2.579316e+00  -3.679969e+01
  -2.130293e+00  -4.701746e+01
   4.184463e+01   5.856624e+00
   3.382012e+01   5.506359e+01
  -1.610404e+00   1.625408e+01
  -1.415386e+01   1.689269e+01
  -8.286685e+00   1.767221e+00
  -2.834638e+01  -1.665580e+00
  -1.382883e+01  -3.979980e+01
  -2.853605e+01   9.148830e+00
  -9.218101e-01   3.636634e+01
  -1.698961e+01   1.503370e+01
   8.333132e+00   1.066150e+01
   3.363414e+01  -3.321183e+01
   4.714711e+01  -1.036409e+01
  -6.698986e+00   7.439874e+01
  -5.548733e+01  -5.253592e+00
  -1.962227e+01  -4.976168e+01
   4.310374e+00  -1.073442e+00
   5.417200e+01  -2.512662e+01
   3.149708e+00   1.597208e+01
  -2.181396e+01   1.204235e+01
   3.138564e+01   4.253274e+01
  -6.060601e+01  -3.612168e+01
  -5.272142e+01   4.940230e+00
  -1.588912e+01  -5.123867e+00
  -3.582113e+01  -4.809581e-01
  -1.641571e+01   8.498869e+00
  -4.983851e+00  -6.842770e+00
  -3.884046e-01  -3.376820e+01
   4.625520e+01  -6.125947e+01
   2.705655e+01   3.303451e+01
   2.846560e+01   2.393197e+01
  -4.135570e+00   3.466596e+01
  -4.274801e+01   1.345639e+01
  -3.995553e+01   2.688923e+01
   1.010424e+00   3.186394e+01
   3.970318e+01  -3.121363e+01
   3.895516e+01   5.695194e+00
  -8.024831e+01   5.238029e+01
  -4.798709e+01   3.187598e-01
  -4.287518e+01  -3.976440e+01
   2.287486e+01  -4.008226e+01
  -1.964234e+01  -4.572517e+01
   5.462065e+01   3.175119e+01
  -1.736715e+01  -5.622245e+00
  -2.177502e+01  -2.183760e+01
   1.205186e+01  -4.116748e+01
   3.562019e+01  -2.859979e+01
   1.611332e+00  -2.593235e+01
   3.103382e+01  -1.725371e+01
   1.855863e+01   8.188986e+01
   1.045511e+01   1.842182e+01
  -5.692215e+01   3.523937e+01
  -3.981571e+01  -2.906261e+01
   6.200134e+00  -6.890335e+01
   2.158764e+01   1.571671e+01
   3.459680e+00   1.619854e+01
  -5.858880e+01   2.011050e+01
  -4.190435e+00   1.709187e+01
   6.959857e+01  -2.011823e+01
  -2.166928e+01   2.657141e+01
  -2.329340e+00   1.675887e+01
   8.037534e+00   5.459335e+00
  -1.445079e+01   1.654220e+01
  -2.781321e+01   1.872093e+00
   2.343023e+01   1.568192e+01
   1.313435e+01  -6.018161e+00
   4.025480e+01  -1.109119e+01
  -2.061433e+01   2.983074e+01
  -1.610777e+01  -4.559011e+00
  -1.108292e+01  -1.975412e+01
   1.916921e+01   8.265727e+00
   1.950665e+01   2.722770e+01
  -1.086352e+01  -8.883415e-01
  -1.642055e+01  -1.855559e+01
   3.945937e+01  -3.365865e+01
  -7.408509e-01  -3.526894e+01
   4.621725e+01  -2.987960e+01
   7.493807e+01   9.422243e+00
   1.518502e+01   3.744316e+01
  -2.840447e+01   3.875867e+01
  -4.410186e+01   4.976924e+01
  -3.050389e-01  -4.241954e+01
  -2.268922e+01  -9.840229e+00
  -2.331275e+01  -1.046582e+01
  -4.604301e+01   3.922616e+00
  -2.206606e+01  -2.355641e+01
  -6.389158e+00  -1.209195e+01
  -8.679468e-01  -1.742746e+01
   3.724175e+00  -4.440733e+00
   1.579958e+01   2.342402e+01
   1.498433e+01  -1.324653e+01
   1.593174e+01   4.998705e+01
  -6.694292e+01  -2.519050e+01
   9.537747e+00  -3.383226e+01
   2.461433e+01   2.830504e+01
   5.156083e+00  -1.528537e+01
   4.966313e+01   9.508253e+00
  -2.143430e+01   4.026819e+01
  -1.655444e+01   5.029107e-01
   1.767662e+01   2.953174e+00
   1.640964e+01  -1.128608e+01
   1.182828e+01   1.972455e+01
  -2.466389e+01  -3.914802e+01
  -6.379343e+01   5.726885e+00
  -4.605207e+01  -1.544193e+01
  -4.914786e+01  -9.037885e+00
   5.280706e+01  -7.228704e+01
   7.826679e+00  -1.842241e+01
  -6.611604e+00   3.091584e+01
   1.673441e+01  -2.150192e+01
  -2.187404e+01   1.271801e+01
   3.047654e+00   1.064563e+01
   3.552618e+01   1.342168e+01
   2.859915e+01   2.465213e+00
   1.270815e+01  -1.139704e+01
  -1.404337e+01   2.828958e+01
   1.853509e+00  -3.312688e+01
   3.112716e+01  -1.582205e+01
   3.544490e+00   3.738664e+01
   6.682013e+00   3.093980e+01
   1.613263e+01   8.829538e+00
  -1.732880e+01  -9.841051e+00
  -3.468028e+01  -8.704505e+00
   3.859913e+01  -5.513271e+01
   5.216991e+01  -2.459101e+01
   1.154466e+01  -2.995997e+00
  -1.030944e+01   3.384873e+01
  -9.305471e+00   4.321960e-01
  -1.655507e+01  -1.488333e+01
  -4.169331e+01  -3.924929e+01
  -1.409092e+00  -6.135857e+00
  -3.809192e+00  -2.891136e+01
  -1.358470e+01  -1.146280e+01
   2.520071e+01  -7.537993e+00
   2.421850e+01  -5.151031e+00
  -1.013916e+01  -5.803416e+00
