
 $NMID
 id='ANONYMOUS ', fmtdat='(2E16.6)'
 volume=1.0
 tramp=1.0
 $END
  -6.070233e+02   1.169833e+02
  -4.020401e+02  -2.150779e+01
  -2.383709e+02  -1.723455e+02
   4.010851e+02  -4.331065e+02
   1.593501e+02  -2.203227e+02
  -2.015145e+02   5.969495e+01
   6.259749e+01  -2.259336e+01
  -1.713927e+02  -7.924851e+00
   1.754064e+01  -1.170527e+02
   1.953827e+02   3.945178e+01
   6.041102e+01   4.982484e+01
  -3.792489e+01   1.836308e+02
  -1.563236e+02   1.215956e+02
   1.485017e+02  -7.386128e+01
   3.822046e+01  -1.106076e+02
   9.655289e+01  -8.306264e+01
   1.175806e+02   8.295941e+01
  -7.729930e+00   3.538367e+01
  -5.596654e+01   8.698360e+01
  -7.070517e+01  -5.165723e+01
  -5.419538e+01  -5.258982e+01
   1.797203e+01  -6.163136e+01
   2.128118e+01   2.025685e+01
  -8.840216e+01  -1.736876e+01
  -5.217575e+01  -2.379944e+01
  -4.695064e+00  -7.720187e+01
   1.580587e+02  -9.257316e+01
   6.075598e+01   1.528053e+01
   3.633052e+01   8.756785e+01
  -9.263549e+01  -2.097186e+01
  -1.925029e+01  -2.292865e+01
  -7.771015e+01  -3.917073e+01
   1.039369e+02   2.818301e+01
   9.918635e+01  -1.590939e+01
   8.516997e+01   2.924853e+01
  -1.329352e+01   1.721338e+01
  -5.551732e+01  -1.943606e+01
   3.012450e+01  -5.575661e+01
  -1.414153e+01  -3.939216e+01
  -6.393185e+00   2.573451e+01
  -5.439232e+01   9.178023e+01
  -5.322128e+01   2.735468e+01
  -5.245190e+01   3.702277e+01
   6.533674e+01  -3.974235e+01
   6.079328e+01   4.511586e+00
  -1.922912e+01   3.702038e+01
  -4.252677e+00  -1.472992e+00
  -6.962896e+01   1.004984e+02
  -1.049808e+02  -5.982561e+01
  -5.989398e+01  -5.551086e+01
   1.266991e+02  -9.030546e+01
   6.662041e+01  -4.215905e+01
   4.976693e+00   6.364503e+01
   2.099809e+01   7.091378e+01
  -8.779110e+00   7.155169e+00
  -4.133061e+01  -1.166769e+01
  -2.830176e+01   2.506132e+00
   1.505354e+01  -1.310688e+01
  -5.383342e+01  -3.375335e+01
  -2.925603e+01  -6.577523e+01
  -4.637814e+01  -2.185607e+00
   3.240918e+01  -1.001081e+02
   6.882146e+01  -5.295909e+01
   1.513791e+02   4.522415e+00
   5.538335e+01   1.140590e+02
  -1.367778e+02   8.537537e+01
  -4.926370e+01  -2.559255e+00
  -2.400498e+01  -3.779941e+00
   5.690896e+00  -7.270933e+01
  -6.687432e+00  -3.499427e+01
   9.787265e+00   1.566575e+01
   1.985877e+01  -6.222806e+00
   2.958546e+01  -2.994808e+01
   1.111826e+02   2.809358e+01
   4.137851e+01   6.325999e+01
   1.104714e+01   3.565183e+01
  -6.033657e+01   3.186227e+01
  -2.847013e+01  -5.872563e+01
  -4.990965e+01  -4.470192e+01
   7.145144e+01  -8.666778e+01
   6.082447e+01  -3.953087e+01
   9.091308e+01  -5.728789e+00
   5.047793e+01   7.251332e+01
  -5.715300e+00   7.341432e+01
   3.293837e+01   2.314212e+01
  -2.845564e+00   4.828137e+01
  -7.995929e-01   2.710315e+01
  -5.792347e+01   2.691469e+01
  -7.108677e+01   1.678897e+00
  -5.489313e+01  -8.999277e+00
  -2.550471e+01  -1.280939e+02
   1.287211e+02  -8.450198e+01
   4.772056e+01  -1.058686e+02
   3.762765e+01   4.493291e+01
  -1.045042e+01   4.239961e+01
  -1.994770e+01   6.155307e+01
   4.445116e+01   1.943188e+01
   5.654588e+01   9.248033e+00
   2.468174e+01   5.422485e+00
   1.508837e+01   3.760799e+01
  -1.810319e+01   1.921831e+01
   2.270163e+00  -6.123237e+01
  -4.157092e+01  -3.847931e+01
   1.980869e+01   3.868656e+01
   4.714553e+01   5.213528e+01
   1.924582e+01   8.706455e+01
  -1.703536e+01   2.900070e+01
  -8.425593e+01  -2.041670e+01
  -6.544835e+01  -6.654102e+01
  -1.187798e+01  -1.009970e+02
   4.213678e+01  -5.987118e+01
   3.172125e+01   1.180795e+01
   3.109387e+01   2.917746e+01
   9.047190e-01  -1.590229e+01
   1.235471e+01  -1.222261e+01
   4.082535e+01  -4.852196e+01
  -7.980976e-01  -2.166534e+01
  -1.124983e+01   5.633793e+00
  -1.609554e+01   1.605550e+01
  -6.188149e+01   2.756063e+00
   5.407794e+01  -1.476011e+01
   7.451297e+01  -2.997223e+00
   7.830692e+00   5.274937e+01
  -3.610814e+01   5.576849e+01
  -5.227144e+01   4.009629e+01
  -5.658130e+01   6.427012e+00
  -6.858785e+01  -2.349210e+01
   2.591176e+01  -1.566868e+01
   1.369858e+01   2.151287e+01
  -1.805237e+01  -3.849939e+01
  -1.840970e+01   1.181577e+01
  -8.332925e+01  -3.210489e+01
   6.805135e+00  -5.591218e+01
   6.914744e+00  -5.297648e+00
   7.099788e+01   3.980587e+00
  -1.569862e+01   4.653622e+01
  -5.783042e+00  -9.315384e-01
  -1.549256e+01  -5.097423e+01
  -7.156620e+00  -1.158015e+01
   5.939269e+01   4.212245e+01
   4.327318e+01  -3.352501e+00
   1.419509e+01   1.736022e+01
  -3.146242e+01   3.725288e+01
  -2.451180e+01  -8.934340e+00
   9.869217e+00  -7.880143e+00
   7.270281e+00  -7.666918e+01
  -1.908260e+00   6.892727e+01
  -1.255014e+01  -7.531882e+00
   7.265920e+00   1.957420e+01
  -1.692038e+01  -2.125876e+01
   4.175199e+01  -2.177686e+00
   1.331361e+01   4.071594e+01
   1.706277e+01   9.828007e+00
  -3.800657e+01   2.831776e+01
  -3.713560e+01   9.598114e-01
  -4.653071e+01  -3.413417e+01
   4.667359e+00  -5.255679e+01
   4.690570e+01  -2.229828e+01
   6.321513e+01   1.953199e+01
   6.725595e+00   1.810260e+01
   9.992270e+00  -2.706612e+01
   2.676652e+01  -3.251766e+01
   2.139218e+01   2.750239e+01
   3.402136e+01   1.409187e+01
   2.423930e+01  -1.575969e+01
   2.408942e+01   1.104152e+01
  -2.114543e+01  -4.348152e+01
  -2.751256e+01  -1.415870e+01
   4.614167e+00   8.257679e+00
   5.009324e+01  -2.246920e+01
   7.537271e+01   3.189321e+01
  -1.781062e+01   7.930129e+01
  -5.934341e+01   2.386307e+01
  -3.470993e+01  -9.581489e-01
   5.531620e+00  -6.905029e+01
   4.021207e+01  -3.449145e+01
  -4.790575e+00   2.363948e+01
   5.796151e+01   9.005130e-01
   1.945941e+01  -6.161403e+00
  -5.613127e+01  -2.850231e+00
   4.252965e+01  -1.777718e+01
   1.273514e+01   5.127399e+01
  -2.434034e+01   2.894345e+01
   6.547702e+00   3.633204e+01
  -1.113671e+01  -3.751652e+01
   2.862832e+00  -8.242731e+01
  -4.844278e+01  -5.010970e+00
   4.664050e+01   9.955531e+00
   5.079104e+01  -2.574719e-01
  -2.515271e+01   4.142007e+01
  -2.113250e+01  -3.047184e+00
   8.829180e+00  -2.384974e+01
   1.828984e+01  -1.495175e+01
   1.711636e+01  -1.316587e+01
  -1.228358e+00   2.450471e+00
  -8.024885e+00   1.209259e+01
  -1.795346e+01  -3.551997e+00
  -2.033488e+01  -3.652131e+01
   4.785700e+01  -3.782440e+00
   4.407713e+01  -1.781408e+00
   9.833504e+00  -1.647300e+00
  -5.951582e+01   3.860984e+01
  -4.200988e+01   2.520747e+00
   1.047262e+01  -1.983304e+01
   1.769305e+00  -3.183012e+01
   1.525420e+01   9.705952e+00
   1.358050e+00   2.232446e+01
  -1.068977e+01   2.933916e+01
   5.220888e+01   2.105611e+01
   2.262518e+01  -2.383103e+00
  -7.229052e+00   3.052706e+01
  -2.187053e+01   2.407532e+01
  -4.259530e+01  -1.284659e+01
  -3.011381e+01   2.027223e+01
  -2.707908e+01  -1.058167e+01
   7.408355e+00  -4.958571e+01
   2.847573e+01  -4.630500e+01
   2.025505e+01  -1.096626e+00
  -1.662139e+01  -3.104333e+01
  -5.137684e+01   1.180481e+00
  -8.942598e+00  -2.033098e+01
   1.108165e+01  -5.541347e+00
   7.595684e+01   2.598161e+00
   6.308673e+01   9.026359e+00
   8.263838e+00   7.985996e+01
  -3.697253e+01   1.550279e+01
  -3.111975e+01   2.014923e+01
  -5.623996e+00   1.415708e+01
  -8.190735e+00   6.530439e+00
  -9.878481e+00   4.303476e+01
  -1.983265e+01   4.077331e+01
  -7.397043e+01   4.096768e+01
  -2.249192e+01  -1.525596e+01
  -5.137078e-01  -7.328649e+01
   3.037752e+01  -5.271178e+01
  -2.156513e+01  -7.475213e+00
   3.193328e+01   2.289001e+01
  -2.404799e+01   2.093397e+01
   3.668228e+00  -5.308140e+01
   4.021766e+01   8.099904e+00
  -1.807167e+01   2.223793e+01
   3.033451e+01   2.635753e+01
  -1.429768e+01  -6.506971e+00
   1.210532e+01   7.573641e+00
  -5.454498e+00  -3.912981e+01
   3.716286e+01  -1.015125e+01
  -2.123835e+01  -2.001140e+01
   6.276232e+01   1.385681e+01
  -3.294629e+00   3.924045e+01
  -1.954012e+01  -1.001794e+01
   1.490571e+01  -1.768541e+01
  -2.809578e+01   5.509798e+00
   3.740096e+01  -3.330910e+01
  -7.133696e+00  -2.737141e+01
  -1.480829e+01  -3.346486e+01
  -7.249786e+00   2.180323e+00
   4.318547e+01  -1.133948e+01
   1.851934e+01   6.698963e+00
  -1.362939e+01  -1.975596e+01
  -3.301555e+01   6.933007e+01
  -4.629764e+01   1.151693e+01
  -7.313383e+01   5.989666e+01
  -1.884444e+01  -6.094500e+01
  -2.157169e+01  -2.076231e+01
   2.793349e+01  -2.050890e+01
  -1.318158e+01   9.590850e+00
   1.525703e+01   1.483432e+01
   3.291588e+01   3.149222e+01
  -3.092112e+00   2.029061e+01
   8.595758e+00  -6.825628e+00
  -3.673897e+00  -5.109195e-01
  -2.558395e+01   7.568875e+00
   8.275443e+00   1.011725e+01
  -1.072353e+01  -2.307841e+01
  -2.717345e+01   1.817491e+00
   2.603531e+01  -3.549075e+01
   1.960205e+01   5.625571e-01
   3.925957e+01  -3.816656e+01
   2.188530e+01  -1.071181e+01
  -2.266696e+01   1.013852e+00
  -5.957645e+01  -1.839314e+01
  -2.580272e+01  -2.150733e+01
   1.320950e+01   3.021400e+01
  -4.027900e+00  -3.757356e+00
  -8.594196e+00  -1.639759e+01
  -4.125390e+01   2.740125e+01
   1.229065e+01   1.611441e+01
   2.702697e+01  -8.762169e+00
  -4.305616e+00   2.559967e+01
   4.149622e+01   1.865168e+01
  -3.536155e+01   2.593613e+01
  -4.362830e+00   4.371541e+01
  -2.600781e+01  -1.639896e+00
  -3.045392e+01  -1.786903e+01
  -1.782786e+00   2.817557e+00
   9.698091e+00  -6.355604e+00
  -2.600252e+01   2.618370e+00
   1.827746e+01   2.674270e+00
  -6.115158e+00   8.866314e+00
  -1.698780e+01  -4.152792e+00
   2.043898e+01   8.069245e-01
  -3.498558e+01   1.769719e+01
   2.119495e+01  -1.286148e+01
  -1.641607e+01  -1.993605e+01
   4.954529e+00  -2.963461e+01
   4.746571e+01  -1.164108e+00
   1.530262e+01   9.317902e+00
  -1.190469e+01  -4.058912e+00
   8.429879e+00  -7.119106e+00
   2.208854e+01   9.713643e+00
   2.981146e+01   1.648606e+01
   2.800712e+01  -1.866512e+01
  -5.928323e+01   4.709574e+00
   3.012700e+01   1.777036e+01
   1.166539e+01   3.391475e+01
   2.369371e+01  -5.966604e+00
   1.421385e+01   1.594755e+01
   6.409675e+00   1.439462e+01
  -5.171966e+01  -1.419079e+01
  -2.666045e+01   9.625863e+00
