
 $NMID
 id='ANONYMOUS ', fmtdat='(2E16.6)'
 volume=1.0
 tramp=1.0
 $END
  -4.646929e+07   7.618573e+05
  -2.906664e+07  -2.710391e+07
   4.503843e+06  -3.125354e+07
   2.217063e+07  -1.383417e+07
   1.437105e+07   4.200557e+06
  -1.946998e+06   7.908383e+06
  -8.451243e+06   4.844898e+04
  -3.313143e+06  -7.989285e+06
   4.532754e+06  -8.772635e+06
   8.134574e+06  -2.513632e+06
   6.162882e+06   5.222689e+06
   7.934675e+05   7.582432e+06
  -3.487313e+06   2.245654e+06
  -2.464669e+06  -5.157468e+06
   3.004598e+06  -6.233258e+06
   6.786590e+06   6.408515e+05
   4.197974e+06   8.519478e+06
  -2.781708e+06   1.014060e+07
  -8.353925e+06   5.126483e+06
  -8.951749e+06  -1.724846e+06
  -5.261952e+06  -6.126831e+06
  -4.834118e+05  -6.738223e+06
   1.890229e+06  -4.644215e+06
   5.927397e+05  -2.532195e+06
  -1.510321e+06  -2.702250e+06
   4.473204e+04  -4.266610e+06
   5.339697e+06  -3.810849e+06
   8.814199e+06  -8.059334e+04
   6.044995e+06   3.809716e+06
  -2.726027e+05   4.326233e+06
  -3.747353e+06   1.852523e+06
  -2.116340e+06  -6.106214e+05
   1.295754e+06  -1.287724e+06
   2.851924e+06  -2.539323e+05
   2.073988e+06   1.939572e+06
   1.578997e+05   3.871277e+06
  -1.753656e+06   3.140377e+06
  -2.358076e+06  -4.642565e+05
  -9.940355e+05  -3.016228e+06
   6.310106e+05  -1.063102e+06
  -2.844932e+04   2.676702e+06
  -2.293624e+06   2.281507e+06
  -2.299659e+06  -2.574419e+06
   1.520035e+06  -5.231530e+06
   5.321175e+06  -1.148218e+06
   4.295340e+06   5.464350e+06
  -1.229957e+06   7.046127e+06
  -6.171224e+06   2.159702e+06
  -6.332150e+06  -3.713570e+06
  -2.043287e+06  -5.378836e+06
   3.016163e+06  -2.728855e+06
   4.996390e+06   1.035578e+06
   2.562396e+06   2.989840e+06
  -1.874191e+06   2.074716e+06
  -3.952340e+06  -5.581900e+05
  -1.855658e+06  -2.212569e+06
   1.408465e+06  -1.227011e+06
   1.703723e+06   8.517549e+05
  -8.571177e+05   1.075123e+06
  -2.242590e+06  -9.581863e+05
  -7.126897e+04  -2.625475e+06
   3.408205e+06  -1.850596e+06
   4.489292e+06   6.777995e+05
   2.202779e+06   3.173550e+06
  -1.602168e+06   4.626096e+06
  -4.672663e+06   4.285902e+06
  -5.578636e+06   1.420269e+06
  -3.895419e+06  -2.919801e+06
  -7.631965e+05  -5.539885e+06
   1.443997e+06  -4.429585e+06
   1.401099e+06  -1.502161e+06
   3.971140e+05  -1.941755e+05
   5.502660e+05  -1.005891e+06
   1.949937e+06  -1.379030e+06
   2.748049e+06   2.333773e+05
   1.750396e+06   2.223860e+06
  -2.872322e+05   2.226787e+06
  -1.793596e+06   1.021765e+05
  -1.717765e+06  -2.225843e+06
   9.906303e+04  -2.889120e+06
   2.673939e+06  -1.402561e+06
   4.005368e+06   1.278603e+06
   2.728505e+06   3.377062e+06
  -7.494279e+04   3.581633e+06
  -1.867466e+06   2.278461e+06
  -1.792915e+06   1.074360e+06
  -1.593567e+06   8.052175e+05
  -2.786459e+06   6.218853e+05
  -4.184520e+06  -5.967443e+05
  -3.408925e+06  -2.595652e+06
  -1.777781e+05  -4.018115e+06
   3.148789e+06  -3.813075e+06
   4.140772e+06  -1.963861e+06
   2.542391e+06   5.775525e+05
   7.883008e+04   2.227698e+06
  -1.211752e+06   1.794029e+06
  -5.272024e+05  -1.017335e+05
   1.116008e+06  -1.250078e+06
   1.819313e+06  -3.732460e+05
   8.173128e+05   1.140637e+06
  -5.701880e+05   1.092883e+06
  -5.386215e+05  -3.727926e+05
   8.805258e+05  -8.816886e+05
   1.854836e+06   8.424091e+05
   1.025218e+06   3.153341e+06
  -1.075246e+06   3.555283e+06
  -2.927084e+06   1.574554e+06
  -3.481213e+06  -1.134567e+06
  -2.520918e+06  -2.769645e+06
  -5.322573e+05  -2.706211e+06
   1.267147e+06  -1.457640e+06
   1.583870e+06  -1.852704e+05
   4.846081e+05   4.460151e+04
  -3.614068e+05  -7.368809e+05
   3.560493e+05  -1.281983e+06
   1.791653e+06  -5.789416e+05
   1.973038e+06   7.872757e+05
   4.288275e+05   1.340253e+06
  -1.137682e+06   5.965457e+05
  -9.485368e+05  -4.439539e+05
   7.948791e+05  -6.338541e+05
   2.255177e+06   1.753394e+05
   1.894531e+06   1.338821e+06
  -1.596374e+05   2.064240e+06
  -2.293669e+06   1.729871e+06
  -2.755108e+06   3.069217e+05
  -1.198759e+06  -1.204417e+06
   8.673986e+05  -1.423909e+06
   1.462595e+06  -1.817748e+05
   1.651834e+05   1.023538e+06
  -1.477946e+06   7.202607e+05
  -1.708991e+06  -7.300835e+05
  -4.056656e+05  -1.628201e+06
   1.026795e+06  -1.040887e+06
   1.271899e+06   2.248962e+05
   3.083790e+05   7.530255e+05
  -7.514960e+05   7.767893e+04
  -7.204201e+05  -1.023531e+06
   5.755303e+05  -1.397446e+06
   1.983188e+06  -5.229652e+05
   2.000567e+06   1.037397e+06
   3.880641e+05   2.034861e+06
  -1.389207e+06   1.628284e+06
  -1.694445e+06   2.396015e+05
  -5.260082e+05  -8.465328e+05
   6.369721e+05  -8.163485e+05
   6.659003e+05  -6.883133e+04
  -8.865394e+04   4.322149e+05
  -5.474518e+05   2.777097e+05
  -2.339492e+05  -9.248589e+04
   3.923184e+05  -3.045306e+04
   5.559315e+05   5.827945e+05
  -1.382071e+05   1.163857e+06
  -1.339207e+06   9.102996e+05
  -2.058816e+06  -3.856401e+05
  -1.454226e+06  -1.906823e+06
   2.056798e+05  -2.408400e+06
   1.605046e+06  -1.453146e+06
   1.725979e+06   8.321901e+04
   9.228208e+05   9.374229e+05
   3.277772e+05   7.613903e+05
   4.039290e+05   2.794559e+05
   5.511489e+05   2.700240e+05
   8.978112e+04   7.033796e+05
  -8.360135e+05   9.105277e+05
  -1.446124e+06   3.697050e+05
  -1.094925e+06  -7.240042e+05
   2.078405e+05  -1.509082e+06
   1.707079e+06  -1.115623e+06
   2.253399e+06   4.550968e+05
   1.171136e+06   2.064317e+06
  -9.303250e+05   2.348910e+06
  -2.473074e+06   1.078560e+06
  -2.364821e+06  -5.836042e+05
  -1.037632e+06  -1.327272e+06
   1.611855e+05  -1.014822e+06
   4.411906e+05  -5.684292e+05
   1.668899e+05  -7.270466e+05
   1.366755e+05  -1.230258e+06
   6.370334e+05  -1.235643e+06
   1.247449e+06  -3.099395e+05
   1.314026e+06   1.067892e+06
   5.511911e+05   1.876160e+06
  -6.184555e+05   1.424831e+06
  -1.281056e+06   1.456705e+04
  -8.299375e+05  -1.241421e+06
   3.349065e+05  -1.384307e+06
   1.103337e+06  -4.662299e+05
   8.094298e+05   6.033660e+05
  -5.459057e+04   1.025851e+06
  -4.569848e+05   7.954523e+05
  -5.727512e+04   4.446429e+05
   4.146430e+05   3.433007e+05
   5.202349e+04   3.834231e+05
  -1.110916e+06   2.260681e+05
  -2.009732e+06  -2.986305e+05
  -1.608250e+06  -9.934175e+05
  -1.741633e+04  -1.393517e+06
   1.514441e+06  -1.128607e+06
   1.797452e+06  -3.169676e+05
   8.512545e+05   4.297917e+05
  -2.288247e+05   5.400137e+05
  -4.933173e+05   6.167359e+04
  -1.927270e+04  -3.783647e+05
   4.533511e+05  -2.437964e+05
   4.701507e+05   3.362762e+05
   2.101822e+05   7.197432e+05
   5.733471e+04   4.710715e+05
   1.434380e+05  -1.224790e+05
   3.116271e+05  -3.230970e+05
   2.832673e+05   2.231804e+05
  -1.557770e+05   9.878512e+05
  -8.807067e+05   1.053568e+06
  -1.295586e+06   1.614866e+05
  -8.006143e+05  -8.953695e+05
   3.995611e+05  -1.092246e+06
   1.210151e+06  -3.053720e+05
   7.207424e+05   5.757698e+05
  -6.832616e+05   6.546354e+05
  -1.594594e+06  -6.856701e+04
  -1.054694e+06  -8.481552e+05
   4.414306e+05  -1.020659e+06
   1.502645e+06  -5.348584e+05
   1.263650e+06   1.603851e+05
   1.540481e+05   5.219297e+05
  -6.420794e+05   2.892495e+05
  -3.728103e+05  -2.764459e+05
   5.925349e+05  -5.007063e+05
   1.166751e+06   1.011052e+05
   6.368408e+05   1.177473e+06
  -6.133062e+05   1.672696e+06
  -1.483233e+06   8.588635e+05
  -1.246769e+06  -7.602244e+05
  -2.024239e+05  -1.787541e+06
   7.352683e+05  -1.308768e+06
   9.318845e+05   1.515328e+05
   4.571890e+05   1.185874e+06
  -1.896670e+05   9.874391e+05
  -5.534232e+05   1.000633e+05
  -4.851742e+05  -3.826189e+05
  -1.843461e+05  -1.480221e+05
  -4.124453e+04   1.035263e+05
  -2.517131e+05  -2.714663e+05
  -5.010230e+05  -9.513338e+05
  -2.192571e+05  -1.083648e+06
   6.813401e+05  -4.071214e+05
   1.474627e+06   4.586755e+05
   1.302134e+06   8.328191e+05
   1.913781e+05   6.900137e+05
  -8.672264e+05   4.143768e+05
  -9.883267e+05   1.919378e+05
  -3.451709e+05  -3.540447e+04
   1.513981e+05  -2.212788e+05
   1.445693e+04  -2.206825e+05
  -2.855600e+05  -1.110175e+05
  -4.201309e+04  -1.316855e+05
   6.803028e+05  -2.234601e+05
   1.037195e+06   1.264127e+04
   4.012399e+05   6.748396e+05
  -8.500820e+05   1.156834e+06
  -1.668116e+06   7.477102e+05
  -1.375276e+06  -4.278700e+05
  -2.710314e+05  -1.398862e+06
   7.483735e+05  -1.366519e+06
   1.037070e+06  -5.268268e+05
   6.535792e+05   2.399135e+05
   1.265054e+05   3.532964e+05
  -8.428914e+04   4.985681e+04
   7.762982e+04  -3.277301e+04
   3.120815e+05   3.606848e+05
   2.583393e+05   8.052616e+05
  -1.777254e+05   6.717925e+05
  -6.789269e+05  -1.302990e+05
  -7.261189e+05  -9.515697e+05
  -1.016090e+05  -1.017518e+06
   7.531135e+05  -2.308846e+05
   1.023219e+06   7.240824e+05
   3.423457e+05   1.076833e+06
  -7.036226e+05   6.648636e+05
  -1.102921e+06  -6.928566e+04
  -5.266580e+05  -5.911397e+05
   2.750161e+05  -6.615964e+05
   3.603110e+05  -3.692739e+05
  -2.587067e+05  -1.801171e+04
  -6.486167e+05   3.975000e+04
  -1.435632e+05  -3.007412e+05
   8.174500e+05  -6.821298e+05
   1.240131e+06  -5.597880e+05
   7.482477e+05   1.556985e+05
  -8.988457e+04   8.588630e+05
  -5.292003e+05   8.529786e+05
  -4.045152e+05   1.581928e+05
  -4.722712e+04  -4.792482e+05
   2.348510e+05  -4.260544e+05
   3.475881e+05   1.563442e+05
   2.545267e+05   5.720530e+05
  -4.886970e+04   4.128969e+05
  -3.867187e+05  -4.684846e+04
  -4.735165e+05  -2.659247e+05
  -2.441913e+05  -8.662786e+04
   3.248430e+04   1.375048e+05
   8.925022e+04   2.293370e+04
   4.942575e+03  -3.531890e+05
   6.443598e+04  -5.258831e+05
   3.151976e+05  -1.952946e+05
   4.376592e+05   3.819864e+05
   1.393408e+05   6.370239e+05
  -4.071919e+05   3.079327e+05
  -6.521757e+05  -2.774286e+05
  -2.493102e+05  -5.705688e+05
   4.976925e+05  -3.669360e+05
   8.695640e+05   7.078557e+04
   4.757870e+05   3.708768e+05
  -2.859047e+05   3.918987e+05
  -6.267943e+05   2.225271e+05
  -2.394621e+05   2.163469e+04
   3.523654e+05  -5.714053e+04
   4.056538e+05   7.426579e+04
  -1.775260e+05   2.942757e+05
  -7.525837e+05   2.689589e+05
