
 $NMID
 id='ANONYMOUS ', fmtdat='(2E16.6)'
 volume=1.0
 tramp=1.0
 $END
   2.496971e+07   5.738459e+05
   1.643839e+07   1.179994e+07
  -1.746351e+05   1.565191e+07
  -1.080987e+07   1.053421e+07
  -9.125017e+06   1.223856e+06
  -6.442537e+05  -4.494464e+06
   5.108989e+06  -2.416719e+06
   3.967918e+06   3.995855e+06
  -1.103248e+06   7.082467e+06
  -4.739656e+06   3.200337e+06
  -4.114570e+06  -3.357421e+06
  -4.669412e+05  -5.418018e+06
   2.531337e+06  -1.061734e+06
   2.002007e+06   4.568335e+06
  -1.483334e+06   5.320257e+06
  -4.261899e+06   5.180674e+05
  -3.155692e+06  -5.009349e+06
   1.183675e+06  -6.321885e+06
   4.889459e+06  -2.923579e+06
   4.887974e+06   1.614372e+06
   1.922877e+06   3.628561e+06
  -5.343765e+05   2.690996e+06
  -9.401042e+04   1.338415e+06
   2.056415e+06   1.887069e+06
   2.466650e+06   3.819963e+06
  -7.378575e+05   4.532019e+06
  -5.389853e+06   2.449480e+06
  -7.073766e+06  -1.128612e+06
  -3.772185e+06  -3.411708e+06
   1.594703e+06  -2.847719e+06
   3.964718e+06  -2.771582e+05
   1.477789e+06   2.049641e+06
  -2.702903e+06   2.184424e+06
  -4.149690e+06  -1.565648e+05
  -1.933045e+06  -3.115023e+06
   1.051690e+06  -3.916669e+06
   1.884042e+06  -1.597177e+06
   5.862515e+05   1.478258e+06
  -7.271293e+05   1.868371e+06
  -5.441757e+05  -8.394249e+05
   8.124982e+05  -3.233702e+06
   1.978033e+06  -2.154234e+06
   1.804952e+06   1.293875e+06
   1.562076e+05   3.021421e+06
  -1.780867e+06   9.558088e+05
  -2.068303e+06  -2.552832e+06
   2.290193e+05  -3.636344e+06
   3.542292e+06  -1.195330e+06
   4.736463e+06   2.352291e+06
   2.228190e+06   3.928828e+06
  -2.029298e+06   2.611121e+06
  -4.270764e+06  -8.597161e+04
  -2.717066e+06  -1.897593e+06
   7.154480e+05  -1.663605e+06
   2.597184e+06  -6.847481e+04
   1.525096e+06   1.139744e+06
  -7.603927e+05   8.270863e+05
  -1.571411e+06  -4.826174e+05
  -1.962520e+05  -1.273980e+06
   1.509176e+06  -6.807116e+05
   1.316410e+06   6.750008e+05
  -8.127201e+05   1.372669e+06
  -2.558883e+06   5.137925e+05
  -1.707613e+06  -1.503997e+06
   1.401152e+06  -3.177775e+06
   4.150719e+06  -2.933083e+06
   4.348118e+06  -4.831678e+05
   2.314075e+06   2.626881e+06
   1.510676e+05   4.221599e+06
  -6.755676e+05   3.568422e+06
  -5.755084e+05   2.005296e+06
  -8.076372e+05   1.208554e+06
  -1.807296e+06   1.176826e+06
  -2.786756e+06   5.262429e+05
  -2.676716e+06  -1.302689e+06
  -1.173971e+06  -2.904773e+06
   9.492262e+05  -2.436354e+06
   2.293393e+06   7.587485e+04
   1.784152e+06   2.510507e+06
  -3.565873e+05   2.769175e+06
  -2.517247e+06   7.903577e+05
  -2.969905e+06  -1.622899e+06
  -1.507258e+06  -2.692548e+06
   3.706221e+05  -2.179824e+06
   1.127201e+06  -1.188449e+06
   8.747299e+05  -7.883946e+05
   1.042937e+06  -9.688431e+05
   2.377257e+06  -8.335383e+05
   3.708248e+06   3.385421e+05
   3.105528e+06   2.249697e+06
   1.977058e+05   3.692425e+06
  -3.035958e+06   3.489165e+06
  -4.054456e+06   1.524978e+06
  -2.276618e+06  -9.585612e+05
   3.766409e+05  -2.212891e+06
   1.478473e+06  -1.474580e+06
   4.498656e+05   2.432064e+05
  -1.170592e+06   1.081245e+06
  -1.584226e+06   2.760747e+05
  -5.449259e+05  -9.983585e+05
   6.695378e+05  -1.031565e+06
   7.482443e+05   2.859205e+05
  -3.986240e+05   1.193338e+06
  -1.659383e+06   1.330266e+05
  -1.708793e+06  -2.256171e+06
  -9.499019e+04  -3.643955e+06
   2.281932e+06  -2.472712e+06
   3.702067e+06   4.136970e+05
   2.997216e+06   2.689790e+06
   6.963421e+05   2.845046e+06
  -1.318430e+06   1.406433e+06
  -1.577727e+06   7.519519e+04
  -4.570096e+05  -4.582932e+04
   3.451150e+05   6.783908e+05
  -2.399805e+05   1.082746e+06
  -1.472115e+06   5.131172e+05
  -1.735797e+06  -5.569320e+05
  -4.911139e+05  -1.099820e+06
   1.003384e+06  -6.123331e+05
   1.035786e+06   3.828436e+05
  -6.193466e+05   8.381623e+05
  -2.312088e+06   1.579609e+05
  -2.167653e+06  -1.231188e+06
  -6.172531e+04  -2.191693e+06
   2.186065e+06  -1.833150e+06
   2.628029e+06  -3.517102e+05
   1.098547e+06   1.037319e+06
  -7.496698e+05   1.176775e+06
  -1.191972e+06   1.230173e+05
  -5.328844e+04  -8.629737e+05
   1.345777e+06  -6.331144e+05
   1.610229e+06   5.956299e+05
   5.429284e+05   1.495961e+06
  -8.147795e+05   1.135693e+06
  -1.230532e+06  -1.945313e+03
  -4.386720e+05  -6.265431e+05
   5.979579e+05  -9.785221e+04
   6.218093e+05   9.307053e+05
  -5.901423e+05   1.271815e+06
  -1.874876e+06   4.183807e+05
  -1.835705e+06  -1.011320e+06
  -3.532345e+05  -1.877276e+06
   1.239919e+06  -1.516231e+06
   1.558077e+06  -2.889684e+05
   5.623946e+05   7.514194e+05
  -5.538452e+05   8.078546e+05
  -7.182659e+05   6.236997e+04
  -5.828373e+03  -5.676335e+05
   6.403115e+05  -4.407027e+05
   4.962481e+05   1.202580e+05
  -2.158598e+05   2.588667e+05
  -5.953333e+05  -3.513613e+05
  -5.129068e+03  -1.052512e+06
   1.205589e+06  -8.882860e+05
   1.929235e+06   3.397235e+05
   1.350293e+06   1.784410e+06
  -2.014136e+05   2.305908e+06
  -1.532906e+06   1.497377e+06
  -1.754646e+06   2.508272e+04
  -1.073136e+06  -9.975852e+05
  -3.858996e+05  -1.012505e+06
  -2.362239e+05  -4.561481e+05
  -3.301362e+05  -1.984687e+05
  -4.858071e+04  -5.450813e+05
   7.308642e+05  -8.888775e+05
   1.399388e+06  -4.471915e+05
   1.172475e+06   7.156786e+05
  -1.024655e+05   1.577867e+06
  -1.627784e+06   1.164012e+06
  -2.190861e+06  -3.998413e+05
  -1.193096e+06  -1.915733e+06
   7.394593e+05  -2.197410e+06
   2.223017e+06  -1.112694e+06
   2.298101e+06   3.940337e+05
   1.196634e+06   1.236660e+06
  -2.599850e+04   1.138366e+06
  -5.406674e+05   7.146703e+05
  -4.006157e+05   6.778352e+05
  -2.589555e+05   1.020555e+06
  -5.708537e+05   1.051836e+06
  -1.105655e+06   2.474219e+05
  -1.202135e+06  -1.032706e+06
  -4.932077e+05  -1.787266e+06
   6.131719e+05  -1.346024e+06
   1.225189e+06  -4.079417e+04
   8.187427e+05   1.103048e+06
  -2.062111e+05   1.289505e+06
  -9.028026e+05   5.675334e+05
  -7.351276e+05  -3.625840e+05
  -8.466055e+04  -8.431398e+05
   2.481737e+05  -7.655985e+05
  -2.424888e+04  -4.914577e+05
  -3.581148e+05  -3.710273e+05
  -2.469246e+04  -3.822060e+05
   9.863263e+05  -2.291315e+05
   1.806337e+06   2.590961e+05
   1.510868e+06   8.826809e+05
   1.194815e+05   1.223377e+06
  -1.303973e+06   1.013316e+06
  -1.647444e+06   3.737813e+05
  -8.372927e+05  -2.537624e+05
   1.621175e+05  -4.344782e+05
   4.224643e+05  -1.163942e+05
  -3.672382e+04   2.697389e+05
  -4.832755e+05   2.034324e+05
  -4.249381e+05  -3.267032e+05
  -8.082886e+04  -7.234560e+05
   5.626315e+04  -4.606770e+05
  -1.460673e+05   1.946220e+05
  -3.803662e+05   4.058100e+05
  -2.870483e+05  -2.007005e+05
   2.111383e+05  -9.774415e+05
   8.388006e+05  -9.678325e+05
   1.098011e+06  -5.712323e+04
   6.158349e+05   8.675724e+05
  -3.947815e+05   9.236190e+05
  -1.078494e+06   1.628073e+05
  -6.623948e+05  -5.911196e+05
   6.221452e+05  -6.381943e+05
   1.561977e+06   8.024281e+03
   1.149142e+06   7.738438e+05
  -3.075069e+05   1.057800e+06
  -1.454980e+06   6.645325e+05
  -1.301663e+06  -6.894809e+04
  -2.050752e+05  -5.219882e+05
   5.954152e+05  -3.261205e+05
   3.124658e+05   2.307970e+05
  -6.259615e+05   4.161698e+05
  -1.101834e+06  -1.968545e+05
  -4.883995e+05  -1.178952e+06
   7.329318e+05  -1.547335e+06
   1.490238e+06  -7.227821e+05
   1.177012e+06   7.884242e+05
   1.545952e+05   1.741779e+06
  -7.202270e+05   1.307127e+06
  -9.097472e+05  -8.228388e+04
  -5.010221e+05  -1.128645e+06
   9.261268e+04  -9.956888e+05
   5.003357e+05  -1.297039e+05
   5.334759e+05   3.860623e+05
   2.558045e+05   1.656289e+05
   8.778844e+03  -1.223844e+05
   1.209672e+05   2.142792e+05
   4.249953e+05   8.975489e+05
   2.951624e+05   1.056256e+06
  -5.474491e+05   3.950386e+05
  -1.427010e+06  -4.614151e+05
  -1.331709e+06  -8.119897e+05
  -1.849519e+05  -6.452965e+05
   9.191665e+05  -3.804074e+05
   9.803801e+05  -2.026800e+05
   2.610330e+05  -5.623005e+03
  -1.803105e+05   2.032607e+05
   7.960735e+04   2.546499e+05
   3.750772e+05   1.612524e+05
  -1.884965e+03   1.350538e+05
  -7.667302e+05   1.665644e+05
  -9.813080e+05  -6.659724e+04
  -2.194687e+05  -6.457111e+05
   9.397355e+05  -1.031232e+06
   1.549625e+06  -5.976431e+05
   1.183481e+06   5.070772e+05
   1.853623e+05   1.364983e+06
  -7.251931e+05   1.253382e+06
  -1.006836e+06   4.084858e+05
  -6.360512e+05  -3.018852e+05
  -6.803981e+04  -3.414745e+05
   1.716453e+05   9.434042e+03
  -3.927664e+04   9.548727e+04
  -3.342148e+05  -3.201612e+05
  -2.664684e+05  -7.736918e+05
   2.090631e+05  -6.168857e+05
   6.681878e+05   2.092913e+05
   6.119363e+05   9.987600e+05
  -4.080195e+04   9.705707e+05
  -7.904340e+05   1.083819e+05
  -9.300956e+05  -8.114257e+05
  -2.316546e+05  -1.037889e+06
   7.121014e+05  -5.441632e+05
   1.006140e+06   1.298526e+05
   4.272193e+05   5.184125e+05
  -2.809485e+05   5.364103e+05
  -2.778840e+05   3.170090e+05
   3.350273e+05   5.378084e+04
   6.448529e+05  -5.395385e+03
   9.723729e+04   2.767572e+05
  -8.009498e+05   6.398091e+05
  -1.124347e+06   5.595853e+05
  -6.205783e+05  -1.076649e+05
   1.214333e+05  -7.840780e+05
   4.578408e+05  -7.596108e+05
   3.086256e+05  -7.128965e+04
  -1.383894e+04   4.979002e+05
  -2.570162e+05   3.536381e+05
  -3.364739e+05  -2.375133e+05
  -2.127505e+05  -5.586000e+05
   8.495696e+04  -3.231433e+05
   3.665345e+05   9.165039e+04
   4.136599e+05   2.164968e+05
   2.271337e+05   4.199373e+04
   1.621473e+04  -7.344892e+04
  -7.624421e+04   1.016933e+05
  -1.219387e+05   3.936182e+05
  -2.377346e+05   4.231797e+05
  -3.651235e+05   3.617804e+04
  -3.066104e+05  -4.788545e+05
   2.687275e+04  -6.337268e+05
   4.418735e+05  -2.435672e+05
   5.639965e+05   3.430366e+05
   1.796674e+05   5.879162e+05
  -4.653719e+05   3.202636e+05
  -7.835615e+05  -1.361735e+05
  -4.182095e+05  -3.742865e+05
   2.902168e+05  -3.052495e+05
   5.894960e+05  -1.168437e+05
   1.685396e+05   3.847214e+03
  -4.287924e+05  -1.658199e+04
  -4.240240e+05  -1.716607e+05
   2.480001e+05  -3.315993e+05
   8.454598e+05  -2.334612e+05
