
 $NMID
 id='ANONYMOUS ', fmtdat='(2E16.6)'
 volume=1.0
 tramp=1.0
 $END
   3.783597e+07  -6.760970e+04
   2.363196e+07   2.121252e+07
  -3.118842e+06   2.489843e+07
  -1.756217e+07   1.212981e+07
  -1.196339e+07  -2.243930e+06
   1.022139e+06  -6.421368e+06
   6.923527e+06  -8.427963e+05
   3.378781e+06   6.284700e+06
  -3.140271e+06   7.831341e+06
  -6.646651e+06   2.651589e+06
  -5.297034e+06  -4.410544e+06
  -7.105398e+05  -6.622122e+06
   3.070125e+06  -1.812885e+06
   2.309862e+06   4.755003e+06
  -2.317060e+06   5.700775e+06
  -5.674872e+06  -2.334038e+05
  -3.695415e+06  -7.049194e+06
   2.170162e+06  -8.515692e+06
   6.958181e+06  -4.208754e+06
   7.345855e+06   1.676799e+06
   3.970647e+06   5.176540e+06
   4.711822e+04   5.221431e+06
  -1.315685e+06   3.340610e+06
   3.194005e+05   2.113381e+06
   1.884930e+06   2.908210e+06
  -1.778785e+05   4.248928e+06
  -5.173137e+06   3.338318e+06
  -8.003962e+06  -2.361412e+05
  -5.150799e+06  -3.542942e+06
   6.809812e+05  -3.765827e+06
   3.731188e+06  -1.361828e+06
   1.921282e+06   1.052631e+06
  -1.644571e+06   1.642547e+06
  -3.207647e+06   2.343880e+05
  -2.065931e+06  -2.240090e+06
   1.674036e+05  -3.832200e+06
   1.764194e+06  -2.574319e+06
   1.763348e+06   8.311223e+05
   3.934395e+05   2.607114e+06
  -6.604778e+05   4.032318e+05
   2.059225e+05  -2.815602e+06
   2.077686e+06  -2.192104e+06
   2.046943e+06   2.042904e+06
  -9.223109e+05   4.261814e+06
  -3.952355e+06   9.630483e+05
  -3.362845e+06  -4.344217e+06
   9.000544e+05  -5.643718e+06
   5.099324e+06  -1.746256e+06
   5.589155e+06   3.097622e+06
   2.065770e+06   4.668685e+06
  -2.537726e+06   2.609784e+06
  -4.560708e+06  -6.216111e+05
  -2.539248e+06  -2.469669e+06
   1.397447e+06  -1.851804e+06
   3.348561e+06   3.167392e+05
   1.680892e+06   1.760076e+06
  -1.136072e+06   1.049871e+06
  -1.603974e+06  -6.701969e+05
   4.392830e+05  -1.067851e+06
   1.855868e+06   3.700697e+05
   4.372213e+05   1.817062e+06
  -2.417811e+06   1.558426e+06
  -3.651125e+06  -2.730519e+05
  -1.939844e+06  -2.498193e+06
   1.474365e+06  -4.015390e+06
   4.341105e+06  -3.759343e+06
   5.012156e+06  -1.103746e+06
   3.284410e+06   2.737057e+06
   5.750541e+05   4.940774e+06
  -1.098759e+06   3.991124e+06
  -1.028468e+06   1.610108e+06
  -4.710501e+05   5.564672e+05
  -9.262786e+05   1.102769e+06
  -2.180297e+06   1.127333e+06
  -2.691221e+06  -5.317921e+05
  -1.581289e+06  -2.370240e+06
   4.385423e+05  -2.263057e+06
   1.905126e+06  -1.050418e+05
   1.743672e+06   2.205773e+06
  -1.274534e+05   2.769382e+06
  -2.537355e+06   1.199244e+06
  -3.574257e+06  -1.326906e+06
  -2.264481e+06  -3.052337e+06
   1.757738e+05  -3.018046e+06
   1.576760e+06  -1.839569e+06
   1.426749e+06  -9.296933e+05
   1.335485e+06  -8.336169e+05
   2.535102e+06  -7.020928e+05
   3.885707e+06   4.380423e+05
   3.227709e+06   2.346821e+06
   2.389277e+05   3.772332e+06
  -2.951501e+06   3.633475e+06
  -3.961412e+06   1.829860e+06
  -2.402381e+06  -6.470263e+05
   3.078399e+04  -2.171001e+06
   1.240173e+06  -1.669753e+06
   4.937029e+05   1.347971e+05
  -1.078565e+06   1.176987e+06
  -1.676357e+06   3.555334e+05
  -7.168040e+05  -1.051284e+06
   5.608723e+05  -1.054811e+06
   5.909590e+05   3.051398e+05
  -6.538575e+05   9.447708e+05
  -1.688139e+06  -4.643565e+05
  -1.231087e+06  -2.693652e+06
   5.749387e+05  -3.426023e+06
   2.537070e+06  -1.843902e+06
   3.425831e+06   7.787052e+05
   2.648268e+06   2.578280e+06
   6.296219e+05   2.644649e+06
  -1.218152e+06   1.420873e+06
  -1.533460e+06   1.744931e+05
  -4.615849e+05  -3.516889e+04
   3.550999e+05   6.852333e+05
  -2.896951e+05   1.172116e+06
  -1.615705e+06   5.565580e+05
  -1.831056e+06  -6.548295e+05
  -4.515906e+05  -1.200228e+06
   1.037704e+06  -5.965956e+05
   9.479650e+05   3.822385e+05
  -6.867403e+05   6.822016e+05
  -2.182495e+06  -1.439514e+04
  -1.940913e+06  -1.206973e+06
   3.395411e+04  -2.028202e+06
   2.142209e+06  -1.745700e+06
   2.613773e+06  -3.599805e+05
   1.142313e+06   1.089711e+06
  -7.828121e+05   1.305976e+06
  -1.323307e+06   1.727473e+05
  -1.355323e+05  -9.370683e+05
   1.373520e+06  -6.894959e+05
   1.626195e+06   6.311167e+05
   4.646619e+05   1.513466e+06
  -8.937488e+05   1.047355e+06
  -1.206791e+06  -1.175079e+05
  -3.508545e+05  -6.690671e+05
   6.689570e+05  -8.604660e+04
   6.746529e+05   9.490000e+05
  -5.426997e+05   1.318218e+06
  -1.876400e+06   5.009797e+05
  -1.897307e+06  -9.649779e+05
  -3.949430e+05  -1.909155e+06
   1.267145e+06  -1.557033e+06
   1.586209e+06  -2.762715e+05
   5.345990e+05   7.722745e+05
  -5.695524e+05   7.943211e+05
  -6.582911e+05   8.289289e+04
   3.828723e+04  -4.557116e+05
   5.438149e+05  -3.359703e+05
   3.141055e+05   7.930966e+04
  -3.088936e+05   1.005665e+05
  -5.481955e+05  -4.762924e+05
   7.201528e+04  -1.083691e+06
   1.235754e+06  -8.901257e+05
   1.952536e+06   3.264590e+05
   1.401200e+06   1.781683e+06
  -1.562587e+05   2.299573e+06
  -1.497095e+06   1.448448e+06
  -1.675244e+06  -8.373260e+03
  -9.664924e+05  -9.005020e+05
  -3.675372e+05  -8.115495e+05
  -3.510951e+05  -3.324620e+05
  -4.599862e+05  -2.413182e+05
  -7.576803e+04  -6.301388e+05
   7.599744e+05  -8.837314e+05
   1.373650e+06  -4.062053e+05
   1.098158e+06   6.749209e+05
  -1.349213e+05   1.481252e+06
  -1.602029e+06   1.121993e+06
  -2.164132e+06  -3.831723e+05
  -1.170485e+06  -1.922601e+06
   7.995014e+05  -2.226928e+06
   2.284901e+06  -1.087665e+06
   2.264944e+06   4.582459e+05
   1.077657e+06   1.222938e+06
  -8.314856e+04   1.017547e+06
  -4.399867e+05   6.133159e+05
  -2.280970e+05   7.045330e+05
  -1.613266e+05   1.130597e+06
  -5.808122e+05   1.142720e+06
  -1.156965e+06   2.949058e+05
  -1.252458e+06  -1.002048e+06
  -5.453259e+05  -1.777416e+06
   5.727449e+05  -1.363510e+06
   1.217787e+06  -4.484817e+04
   8.144153e+05   1.138537e+06
  -2.595683e+05   1.305655e+06
  -9.844023e+05   4.936954e+05
  -7.544641e+05  -4.922573e+05
  -2.014629e+03  -9.234228e+05
   3.585053e+05  -7.546432e+05
   1.593338e+04  -4.416162e+05
  -3.911060e+05  -3.377598e+05
  -4.820721e+04  -3.720866e+05
   1.029275e+06  -2.330419e+05
   1.879826e+06   2.504747e+05
   1.535184e+06   8.988632e+05
   6.701345e+04   1.283320e+06
  -1.379707e+06   1.068901e+06
  -1.678296e+06   3.518047e+05
  -8.155572e+05  -3.405437e+05
   1.955806e+05  -4.873853e+05
   4.490389e+05  -8.282040e+04
   3.907532e+01   3.342005e+05
  -4.473263e+05   2.342854e+05
  -4.466163e+05  -3.161522e+05
  -1.749213e+05  -7.029132e+05
  -2.640815e+04  -4.589882e+05
  -1.330720e+05   1.455574e+05
  -3.128486e+05   3.499850e+05
  -2.772886e+05  -2.040927e+05
   1.520297e+05  -9.594212e+05
   8.239658e+05  -1.004028e+06
   1.191118e+06  -1.322523e+05
   7.281262e+05   8.540564e+05
  -3.751809e+05   1.007794e+06
  -1.130869e+06   2.626751e+05
  -6.906178e+05  -5.521396e+05
   6.290335e+05  -6.377108e+05
   1.529868e+06   1.663995e+04
   1.064080e+06   7.690149e+05
  -3.600164e+05   1.000147e+06
  -1.418984e+06   5.873761e+05
  -1.232292e+06  -9.721463e+04
  -1.764443e+05  -4.984434e+05
   5.969510e+05  -3.017006e+05
   3.424785e+05   2.485342e+05
  -5.801352e+05   4.697256e+05
  -1.115270e+06  -1.111564e+05
  -5.899569e+05  -1.137077e+06
   6.085631e+05  -1.597089e+06
   1.429882e+06  -8.159265e+05
   1.200572e+06   7.249511e+05
   2.125455e+05   1.713944e+06
  -6.805816e+05   1.279585e+06
  -8.925122e+05  -1.066188e+05
  -4.763759e+05  -1.116124e+06
   1.310126e+05  -9.547040e+05
   5.134333e+05  -1.135690e+05
   4.930346e+05   3.583264e+05
   2.061504e+05   1.401867e+05
   2.548231e+04  -1.051685e+05
   2.011115e+05   2.475441e+05
   4.746487e+05   8.975290e+05
   2.575325e+05   1.029412e+06
  -6.070179e+05   3.941749e+05
  -1.420350e+06  -4.184239e+05
  -1.285079e+06  -7.708280e+05
  -1.935176e+05  -6.495513e+05
   8.508062e+05  -4.106518e+05
   9.491201e+05  -2.084138e+05
   3.037690e+05   1.966981e+04
  -1.527721e+05   2.133352e+05
   2.430809e+04   2.189073e+05
   3.115902e+05   1.124549e+05
   2.837137e+04   1.306461e+05
  -6.867113e+05   2.165264e+05
  -9.886438e+05  -1.360077e+04
  -3.388058e+05  -6.478924e+05
   8.380474e+05  -1.100612e+06
   1.569994e+06  -6.983744e+05
   1.280817e+06   4.265592e+05
   2.590957e+05   1.342938e+06
  -6.973231e+05   1.297561e+06
  -9.911964e+05   4.883393e+05
  -6.353040e+05  -2.412607e+05
  -1.087251e+05  -3.392935e+05
   1.139318e+05  -3.604422e+04
  -5.728816e+04   5.146558e+04
  -3.135050e+05  -3.276704e+05
  -2.663418e+05  -7.625218e+05
   1.726623e+05  -6.370212e+05
   6.610525e+05   1.396164e+05
   6.866247e+05   9.296453e+05
   6.795948e+04   9.766650e+05
  -7.450574e+05   2.002830e+05
  -9.796404e+05  -7.158019e+05
  -3.130593e+05  -1.029936e+06
   6.789763e+05  -6.176183e+05
   1.040427e+06   7.224599e+04
   4.827331e+05   5.441949e+05
  -2.638871e+05   6.039239e+05
  -3.172130e+05   3.408673e+05
   2.790232e+05   1.876618e+04
   6.280782e+05  -3.950821e+04
   1.277172e+05   2.835048e+05
  -7.747423e+05   6.610788e+05
  -1.149976e+06   5.582330e+05
  -6.810953e+05  -1.286041e+05
   8.550654e+04  -8.100768e+05
   4.777470e+05  -7.997056e+05
   3.624418e+05  -1.252780e+05
   3.619478e+04   4.734263e+05
  -2.313718e+05   3.943258e+05
  -3.415611e+05  -1.723048e+05
  -2.427838e+05  -5.469224e+05
   5.746220e+04  -3.730600e+05
   3.715254e+05   5.393838e+04
   4.399979e+05   2.354724e+05
   2.292187e+05   6.522781e+04
  -1.332470e+04  -1.143714e+05
  -7.364227e+04   2.034469e+04
  -3.392806e+04   3.636077e+05
  -1.169701e+05   4.881017e+05
  -3.290443e+05   1.457060e+05
  -3.942446e+05  -4.024920e+05
  -9.178595e+04  -6.243139e+05
   4.040515e+05  -2.870314e+05
   6.117628e+05   2.836639e+05
   2.304911e+05   5.578639e+05
  -4.667898e+05   3.470391e+05
  -8.186367e+05  -7.909741e+04
  -4.487601e+05  -3.545184e+05
   2.762838e+05  -3.562615e+05
   5.969870e+05  -1.900214e+05
   2.094954e+05  -1.229296e+04
  -3.703784e+05   4.319773e+04
  -4.070118e+05  -9.481150e+04
   1.866503e+05  -3.057004e+05
   7.562617e+05  -2.700950e+05
