
 $NMID
 id='ANONYMOUS ', fmtdat='(2E16.6)'
 volume=1.0
 tramp=1.0
 $END
  -3.092644e+07   2.535427e+06
  -2.120710e+07  -1.483417e+07
   3.640770e+04  -2.032309e+07
   1.324126e+07  -1.215045e+07
   1.045726e+07  -2.603906e+04
   1.175644e+05   5.442818e+06
  -5.839825e+06   1.877657e+06
  -3.872798e+06  -4.872107e+06
   1.676231e+06  -7.370694e+06
   5.405193e+06  -3.186494e+06
   4.872103e+06   3.406911e+06
   1.034796e+06   5.758863e+06
  -2.568361e+06   1.640097e+06
  -2.382476e+06  -4.274243e+06
   1.498238e+06  -5.418991e+06
   4.865571e+06  -4.614549e+05
   3.793413e+06   5.647308e+06
  -1.080330e+06   7.389923e+06
  -5.501306e+06   3.992154e+06
  -6.132508e+06  -1.035263e+06
  -3.350674e+06  -4.014424e+06
  -2.134444e+05  -3.969320e+06
   5.261194e+05  -2.511522e+06
  -1.104461e+06  -1.925149e+06
  -2.179748e+06  -2.985776e+06
   1.073665e+05  -4.131447e+06
   4.744932e+06  -3.158207e+06
   7.223307e+06   2.141725e+04
   4.586241e+06   2.942059e+06
  -7.294453e+05   3.243596e+06
  -3.512168e+06   1.116060e+06
  -1.700747e+06  -1.241469e+06
   1.860730e+06  -1.848378e+06
   3.370714e+06  -2.667020e+05
   2.035843e+06   2.312782e+06
  -2.433094e+05   3.652532e+06
  -1.527360e+06   2.179355e+06
  -1.264355e+06  -8.943160e+05
  -1.314608e+05  -2.141119e+06
   5.320389e+05   4.383592e+04
  -2.480074e+05   2.826179e+06
  -1.784402e+06   2.199049e+06
  -1.992838e+06  -1.511284e+06
   1.632823e+05  -3.644636e+06
   2.855895e+06  -1.207443e+06
   3.010345e+06   3.190518e+06
  -1.916246e+05   4.654295e+06
  -4.113402e+06   1.807219e+06
  -5.184973e+06  -2.268571e+06
  -2.336600e+06  -4.006984e+06
   2.038838e+06  -2.645947e+06
   4.257623e+06   8.183250e+04
   2.642324e+06   1.957132e+06
  -9.404024e+05   1.783902e+06
  -2.912256e+06   7.814507e+04
  -1.657272e+06  -1.317691e+06
   8.609141e+05  -9.896845e+05
   1.552597e+06   4.579059e+05
  -1.097192e+05   1.128589e+06
  -1.668530e+06   1.749246e+05
  -8.857486e+05  -1.275027e+06
   1.575714e+06  -1.592625e+06
   3.074534e+06  -2.990894e+05
   1.930368e+06   1.856555e+06
  -1.088451e+06   3.581928e+06
  -3.774691e+06   3.534362e+06
  -4.408996e+06   1.151091e+06
  -2.923008e+06  -2.315643e+06
  -7.208721e+05  -4.358454e+06
   6.099929e+05  -3.696888e+06
   7.025493e+05  -1.749232e+06
   5.477496e+05  -7.990863e+05
   1.139557e+06  -1.117534e+06
   2.209596e+06  -9.716759e+05
   2.563393e+06   6.191815e+05
   1.487744e+06   2.335567e+06
  -4.642003e+05   2.227022e+06
  -1.940443e+06   1.478360e+05
  -1.804332e+06  -2.090421e+06
   2.648739e+04  -2.625385e+06
   2.308215e+06  -1.146545e+06
   3.235796e+06   1.122821e+06
   2.063374e+06   2.590276e+06
  -2.662004e+04   2.546976e+06
  -1.189152e+06   1.606474e+06
  -1.077453e+06   9.306561e+05
  -1.101115e+06   9.336593e+05
  -2.296690e+06   8.838132e+05
  -3.642096e+06  -1.186461e+05
  -3.165091e+06  -1.970769e+06
  -4.593420e+05  -3.524552e+06
   2.585251e+06  -3.577219e+06
   3.659667e+06  -1.874694e+06
   2.262929e+06   5.710670e+05
  -1.898339e+04   2.066696e+06
  -1.151274e+06   1.583003e+06
  -4.571729e+05  -1.360857e+05
   9.774743e+05  -1.146671e+06
   1.527251e+06  -4.172796e+05
   6.827477e+05   9.251779e+05
  -5.030940e+05   1.023741e+06
  -6.392335e+05  -2.465757e+05
   4.656701e+05  -1.036173e+06
   1.629281e+06   1.025465e+05
   1.531131e+06   2.312578e+06
  -7.011479e+04   3.375757e+06
  -2.195865e+06   2.154784e+06
  -3.405337e+06  -3.790781e+05
  -2.805977e+06  -2.315503e+06
  -7.910140e+05  -2.539385e+06
   1.097507e+06  -1.417637e+06
   1.454841e+06  -2.272336e+05
   4.371496e+05   6.931115e+03
  -3.772874e+05  -6.228772e+05
   1.773390e+05  -1.095763e+06
   1.438146e+06  -6.186125e+05
   1.741794e+06   4.616634e+05
   5.222392e+05   1.069573e+06
  -9.312804e+05   6.389651e+05
  -9.558669e+05  -3.023750e+05
   5.832253e+05  -7.517619e+05
   2.119937e+06  -1.924237e+05
   2.002236e+06   1.029000e+06
   1.339157e+05   1.986199e+06
  -1.931903e+06   1.825320e+06
  -2.455876e+06   5.085520e+05
  -1.136832e+06  -9.360672e+05
   6.407567e+05  -1.239009e+06
   1.190587e+06  -2.334781e+05
   1.595294e+05   8.487345e+05
  -1.243803e+06   7.216582e+05
  -1.575323e+06  -4.774599e+05
  -5.686259e+05  -1.397147e+06
   7.495168e+05  -1.084621e+06
   1.161199e+06  -1.061257e+04
   4.094931e+05   5.962945e+05
  -6.016964e+05   1.309951e+05
  -6.816332e+05  -8.467969e+05
   4.445449e+05  -1.265636e+06
   1.741748e+06  -5.662858e+05
   1.835404e+06   8.056033e+05
   4.837606e+05   1.768661e+06
  -1.086488e+06   1.541937e+06
  -1.472815e+06   3.705564e+05
  -5.670771e+05  -6.887561e+05
   4.818611e+05  -7.944328e+05
   6.401089e+05  -1.121973e+05
   7.858846e+03   4.776144e+05
  -5.318101e+05   3.916929e+05
  -3.710741e+05  -7.371377e+04
   2.536569e+05  -1.776316e+05
   5.707819e+05   3.682937e+05
   3.304141e+04   1.020457e+06
  -1.099984e+06   9.239069e+05
  -1.860961e+06  -1.854296e+05
  -1.424182e+06  -1.594852e+06
   1.429954e+04  -2.188646e+06
   1.336720e+06  -1.487036e+06
   1.616957e+06  -1.130521e+05
   1.012246e+06   8.276271e+05
   4.041112e+05   8.202103e+05
   3.084030e+05   3.360233e+05
   4.032592e+05   1.793733e+05
   1.048380e+05   5.588022e+05
  -6.502039e+05   8.892215e+05
  -1.284255e+06   4.901903e+05
  -1.111534e+06  -5.833716e+05
   1.978984e+04  -1.448410e+06
   1.453507e+06  -1.183046e+06
   2.083848e+06   2.274317e+05
   1.242967e+06   1.741335e+06
  -5.876574e+05   2.150854e+06
  -2.068982e+06   1.190194e+06
  -2.188005e+06  -2.617839e+05
  -1.144966e+06  -1.094660e+06
  -7.153550e+03  -1.015534e+06
   4.163419e+05  -6.457702e+05
   2.343578e+05  -6.683902e+05
   1.132722e+05  -1.037311e+06
   4.693383e+05  -1.085687e+06
   1.055619e+06  -3.381177e+05
   1.231773e+06   8.770999e+05
   6.128822e+05   1.649623e+06
  -4.678063e+05   1.320949e+06
  -1.152722e+06   1.205305e+05
  -8.480315e+05  -1.011226e+06
   1.396774e+05  -1.248085e+06
   8.703155e+05  -5.614579e+05
   7.419405e+05   3.672057e+05
   9.531880e+04   8.455008e+05
  -2.485510e+05   7.443871e+05
   2.795160e+04   4.387131e+05
   3.793260e+05   3.058238e+05
   6.110267e+04   3.523574e+05
  -9.427797e+05   2.876903e+05
  -1.768240e+06  -1.153708e+05
  -1.503564e+06  -7.436643e+05
  -1.686087e+05  -1.189155e+06
   1.206430e+06  -1.083079e+06
   1.554603e+06  -4.519560e+05
   8.044084e+05   2.367160e+05
  -1.394277e+05   4.549923e+05
  -4.103332e+05   1.211275e+05
  -9.574509e+03  -2.911814e+05
   4.208182e+05  -2.387092e+05
   4.350713e+05   2.734072e+05
   1.758460e+05   6.595930e+05
   2.390031e+04   4.316283e+05
   1.222796e+05  -1.648170e+05
   2.998893e+05  -3.716333e+05
   2.799105e+05   1.738334e+05
  -1.033918e+05   9.239018e+05
  -7.189897e+05   9.908645e+05
  -1.082426e+06   1.771768e+05
  -7.028576e+05  -7.634711e+05
   2.946289e+05  -9.466186e+05
   1.031462e+06  -2.864072e+05
   6.785453e+05   4.914239e+05
  -5.510098e+05   6.452798e+05
  -1.461594e+06   8.723170e+04
  -1.089771e+06  -6.617429e+05
   2.565447e+05  -9.932602e+05
   1.319955e+06  -6.775089e+05
   1.199745e+06   1.983236e+03
   2.100240e+05   4.697852e+05
  -5.453410e+05   3.339807e+05
  -3.296194e+05  -2.055864e+05
   5.345861e+05  -4.616427e+05
   1.056286e+06   6.409875e+04
   5.939444e+05   1.051398e+06
  -5.171429e+05   1.530431e+06
  -1.320811e+06   8.298107e+05
  -1.173825e+06  -6.309089e+05
  -2.912308e+05  -1.617797e+06
   5.758468e+05  -1.265525e+06
   8.589571e+05   3.356508e+04
   5.332512e+05   1.030651e+06
  -4.784254e+04   9.287551e+05
  -4.741062e+05   1.476002e+05
  -5.049448e+05  -3.182393e+05
  -2.225196e+05  -1.299063e+05
  -1.132039e+04   1.080434e+05
  -1.771815e+05  -2.069208e+05
  -4.894924e+05  -8.175120e+05
  -3.248587e+05  -9.685749e+05
   5.264097e+05  -4.145756e+05
   1.373628e+06   3.192933e+05
   1.283796e+06   6.619333e+05
   2.227198e+05   6.004266e+05
  -8.035577e+05   4.317069e+05
  -8.964959e+05   2.567441e+05
  -2.733242e+05   1.178176e+04
   1.407956e+05  -2.075459e+05
  -5.743948e+04  -2.202541e+05
  -3.252718e+05  -1.057780e+05
  -2.399093e+04  -1.228830e+05
   6.649676e+05  -2.295265e+05
   9.329689e+05  -3.217492e+04
   3.183663e+05   5.877325e+05
  -7.579749e+05   1.068569e+06
  -1.430628e+06   7.266402e+05
  -1.202113e+06  -3.479766e+05
  -3.051617e+05  -1.261038e+06
   5.845376e+05  -1.256945e+06
   9.105069e+05  -4.969870e+05
   6.162974e+05   2.095698e+05
   1.098523e+05   3.140666e+05
  -1.262520e+05   2.324382e+04
   4.503278e+04  -6.946092e+04
   3.262790e+05   2.872785e+05
   3.019659e+05   7.086758e+05
  -1.350009e+05   6.060492e+05
  -6.361948e+05  -1.152443e+05
  -6.813634e+05  -8.595033e+05
  -8.754462e+04  -9.154829e+05
   7.072878e+05  -2.028599e+05
   9.536147e+05   6.483105e+05
   3.331141e+05   9.557044e+05
  -6.131232e+05   6.008688e+05
  -9.755624e+05  -2.106426e+04
  -4.724049e+05  -4.726225e+05
   2.151542e+05  -5.633083e+05
   2.626696e+05  -3.354132e+05
  -2.856554e+05  -1.384748e+04
  -5.975774e+05   6.542740e+04
  -1.281940e+05  -2.567938e+05
   6.994835e+05  -6.680745e+05
   1.042443e+06  -6.049704e+05
   6.308874e+05   6.786572e+04
  -4.077950e+04   7.619174e+05
  -3.914444e+05   7.737517e+05
  -3.134530e+05   1.232431e+05
  -4.595890e+04  -4.539215e+05
   2.019176e+05  -3.726136e+05
   3.313105e+05   1.651358e+05
   2.541641e+05   5.055775e+05
  -3.918178e+04   3.375498e+05
  -3.525529e+05  -4.078932e+04
  -4.224810e+05  -1.863458e+05
  -2.209933e+05  -3.791492e+04
   9.891890e+03   9.136097e+04
   7.114047e+04  -5.465704e+04
   4.206362e+04  -3.558245e+05
   1.227634e+05  -4.426642e+05
   3.131228e+05  -1.174914e+05
   3.649593e+05   3.820008e+05
   8.297495e+04   5.859526e+05
  -3.769638e+05   2.810533e+05
  -5.784877e+05  -2.497050e+05
  -2.350269e+05  -5.232114e+05
   4.180197e+05  -3.491274e+05
   7.657448e+05   4.189540e+04
   4.361606e+05   3.129626e+05
  -2.423269e+05   3.358772e+05
  -5.482733e+05   1.916464e+05
  -1.817234e+05   2.019751e+04
   3.685012e+05  -4.137970e+04
   3.962440e+05   9.238710e+04
  -1.803342e+05   3.100506e+05
  -7.310154e+05   2.895437e+05
