
 $NMID
 id='ANONYMOUS ', fmtdat='(2E16.6)'
 volume=1.0
 tramp=1.0
 $END
  -2.292765e+07   9.173947e+05
  -1.574401e+07  -1.093598e+07
  -6.922668e+04  -1.495789e+07
   1.007225e+07  -9.462185e+06
   8.300713e+06  -4.564754e+05
   3.053679e+05   4.207226e+06
  -4.679016e+06   1.745256e+06
  -3.266690e+06  -3.798737e+06
   1.292850e+06  -6.056366e+06
   4.299775e+06  -2.620661e+06
   3.665819e+06   2.830521e+06
   5.322524e+05   4.600034e+06
  -2.088222e+06   1.063927e+06
  -1.689955e+06  -3.692843e+06
   1.351330e+06  -4.442493e+06
   3.817297e+06  -3.791966e+05
   2.851366e+06   4.433487e+06
  -9.612619e+05   5.664532e+06
  -4.265128e+06   2.834317e+06
  -4.481848e+06  -1.073296e+06
  -2.154208e+06  -3.064885e+06
   5.513414e+04  -2.676566e+06
   1.611601e+05  -1.643372e+06
  -1.279622e+06  -1.729226e+06
  -1.763818e+06  -2.914458e+06
   4.919923e+05  -3.523664e+06
   4.198087e+06  -2.149358e+06
   5.810858e+06   6.201112e+05
   3.352162e+06   2.646661e+06
  -9.957435e+05   2.411176e+06
  -3.036603e+06   4.414379e+05
  -1.193455e+06  -1.382965e+06
   1.985462e+06  -1.530014e+06
   3.080557e+06   1.291369e+05
   1.492503e+06   2.287301e+06
  -6.569807e+05   3.033773e+06
  -1.390500e+06   1.486339e+06
  -6.700902e+05  -9.301260e+05
   2.626947e+05  -1.561409e+06
   3.442693e+05   3.805168e+05
  -5.558849e+05   2.444037e+06
  -1.606654e+06   1.747928e+06
  -1.573702e+06  -1.188788e+06
   3.748955e+03  -2.815911e+06
   1.926455e+06  -9.787278e+05
   2.130699e+06   2.337151e+06
  -1.424189e+05   3.446878e+06
  -3.148334e+06   1.237227e+06
  -4.072928e+06  -1.978244e+06
  -1.823575e+06  -3.340845e+06
   1.749271e+06  -2.144019e+06
   3.548521e+06   1.669995e+05
   2.190667e+06   1.673383e+06
  -7.201901e+05   1.441576e+06
  -2.295900e+06   3.325441e+04
  -1.313993e+06  -1.045942e+06
   6.804692e+05  -7.500901e+05
   1.286055e+06   4.309058e+05
  -1.231384e+04   1.038089e+06
  -1.393948e+06   3.366862e+05
  -9.640446e+05  -8.917066e+05
   1.002767e+06  -1.300854e+06
   2.378787e+06  -3.378678e+05
   1.519328e+06   1.411409e+06
  -1.058695e+06   2.747294e+06
  -3.293045e+06   2.559814e+06
  -3.580590e+06   5.930732e+05
  -2.088042e+06  -2.040118e+06
  -2.842687e+05  -3.511179e+06
   6.004837e+05  -2.999063e+06
   6.019028e+05  -1.559541e+06
   6.301394e+05  -7.875528e+05
   1.254909e+06  -8.453434e+05
   2.043302e+06  -5.041344e+05
   2.081330e+06   8.693602e+05
   9.835433e+05   2.174865e+06
  -6.665516e+05   1.869377e+06
  -1.738998e+06  -5.983189e+04
  -1.393468e+06  -1.954644e+06
   2.373668e+05  -2.202959e+06
   1.988598e+06  -7.278307e+05
   2.492989e+06   1.179304e+06
   1.415195e+06   2.170383e+06
  -1.730311e+05   1.920330e+06
  -9.428119e+05   1.144370e+06
  -8.118852e+05   7.182603e+05
  -9.159872e+05   7.761802e+05
  -1.957990e+06   6.560886e+05
  -3.028453e+06  -2.758159e+05
  -2.531223e+06  -1.816385e+06
  -1.758801e+05  -2.980451e+06
   2.405035e+06  -2.827844e+06
   3.205950e+06  -1.284249e+06
   1.827029e+06   6.892475e+05
  -2.293283e+05   1.735478e+06
  -1.116795e+06   1.203752e+06
  -3.613794e+05  -1.695326e+05
   9.124970e+05  -8.819798e+05
   1.288210e+06  -2.462520e+05
   4.806230e+05   7.997711e+05
  -5.149606e+05   8.227782e+05
  -5.692785e+05  -2.522508e+05
   4.044152e+05  -9.291856e+05
   1.400632e+06   2.580220e+04
   1.307053e+06   1.958669e+06
  -9.866069e+04   2.942675e+06
  -1.952429e+06   1.867804e+06
  -2.944590e+06  -4.422181e+05
  -2.315394e+06  -2.169070e+06
  -5.242026e+05  -2.245947e+06
   1.034226e+06  -1.122363e+06
   1.246806e+06  -7.733427e+04
   3.663598e+05   3.443791e+04
  -2.804499e+05  -5.466879e+05
   1.963752e+05  -8.964633e+05
   1.213008e+06  -4.356725e+05
   1.426674e+06   4.632026e+05
   3.937436e+05   9.133750e+05
  -8.188835e+05   4.925898e+05
  -8.149229e+05  -3.179222e+05
   5.275602e+05  -6.475275e+05
   1.846037e+06  -7.704600e+04
   1.688783e+06   1.005654e+06
   1.210701e+04   1.733708e+06
  -1.755223e+06   1.448523e+06
  -2.107122e+06   2.817509e+05
  -8.962838e+05  -8.422595e+05
   5.989606e+05  -9.776843e+05
   9.833141e+05  -1.211468e+05
   6.776857e+04   7.037035e+05
  -1.083556e+06   5.240808e+05
  -1.301179e+06  -4.865190e+05
  -4.187201e+05  -1.214805e+06
   6.834470e+05  -8.998204e+05
   9.959651e+05   3.219341e+04
   3.360921e+05   5.244446e+05
  -5.000532e+05   8.478052e+04
  -5.161214e+05  -7.469021e+05
   4.572448e+05  -1.029491e+06
   1.498555e+06  -3.567598e+05
   1.484735e+06   7.954831e+05
   2.961380e+05   1.511553e+06
  -9.990768e+05   1.229423e+06
  -1.259363e+06   2.301127e+05
  -4.461016e+05  -6.131184e+05
   4.520503e+05  -6.479391e+05
   5.631100e+05  -4.734702e+04
  -1.595186e+04   4.374989e+05
  -5.038432e+05   3.227103e+05
  -3.551140e+05  -1.051603e+05
   2.088241e+05  -1.828515e+05
   4.802000e+05   3.133200e+05
  -8.705615e+03   8.594965e+05
  -9.738167e+05   7.176921e+05
  -1.553636e+06  -2.664665e+05
  -1.096327e+06  -1.427003e+06
   1.523882e+05  -1.845807e+06
   1.228516e+06  -1.187348e+06
   1.394244e+06  -3.908196e+03
   8.264950e+05   7.900991e+05
   2.840454e+05   7.690475e+05
   2.025778e+05   3.258013e+05
   2.990467e+05   1.545394e+05
   5.481706e+04   4.527614e+05
  -5.922151e+05   7.153084e+05
  -1.120481e+06   3.487880e+05
  -9.205428e+05  -5.709192e+05
   9.795248e+04  -1.247918e+06
   1.304350e+06  -9.238173e+05
   1.751894e+06   3.188845e+05
   9.547935e+05   1.542689e+06
  -6.040839e+05   1.778807e+06
  -1.802527e+06   8.949320e+05
  -1.845356e+06  -3.348433e+05
  -9.327117e+05  -1.003128e+06
   4.653444e+04  -8.932284e+05
   4.220431e+05  -5.406088e+05
   2.800265e+05  -5.323246e+05
   1.746402e+05  -8.341646e+05
   4.514452e+05  -8.662741e+05
   8.947946e+05  -2.148127e+05
   9.738610e+05   8.173867e+05
   4.069556e+05   1.428187e+06
  -4.818431e+05   1.081142e+06
  -9.826102e+05   3.288930e+04
  -6.608671e+05  -8.947032e+05
   1.759314e+05  -1.045338e+06
   7.516548e+05  -4.481802e+05
   6.089747e+05   3.181609e+05
   5.825637e+04   7.042763e+05
  -2.252943e+05   6.247676e+05
   4.766277e+03   3.879692e+05
   2.911595e+05   2.863466e+05
   2.425611e+04   3.015372e+05
  -8.008182e+05   1.899038e+05
  -1.466187e+06  -1.972123e+05
  -1.221195e+06  -7.096104e+05
  -9.119582e+04  -1.002426e+06
   1.058377e+06  -8.352555e+05
   1.332977e+06  -2.985632e+05
   6.774150e+05   2.259668e+05
  -1.317566e+05   3.644777e+05
  -3.487611e+05   8.899745e+04
   1.415060e+04  -2.263294e+05
   3.762309e+05  -1.656505e+05
   3.444395e+05   2.575219e+05
   8.353050e+04   5.655151e+05
  -2.697308e+04   3.603592e+05
   1.193623e+05  -1.438155e+05
   2.961221e+05  -3.065947e+05
   2.291565e+05   1.618424e+05
  -1.571385e+05   7.739940e+05
  -6.653967e+05   7.846266e+05
  -8.943319e+05   7.423880e+04
  -5.187520e+05  -6.808098e+05
   3.028578e+05  -7.586608e+05
   8.664995e+05  -1.592203e+05
   5.338151e+05   4.626694e+05
  -5.011174e+05   5.130027e+05
  -1.247857e+06  -1.192421e+04
  -9.031659e+05  -6.294962e+05
   2.648715e+05  -8.421483e+05
   1.168772e+06  -5.125270e+05
   1.033049e+06   6.915737e+04
   1.557351e+05   4.171719e+05
  -4.815513e+05   2.567999e+05
  -2.600628e+05  -1.861429e+05
   4.864627e+05  -3.415722e+05
   8.786896e+05   1.371470e+05
   4.105607e+05   9.261705e+05
  -5.551798e+05   1.239946e+06
  -1.172803e+06   5.944506e+05
  -9.432381e+05  -6.163447e+05
  -1.339636e+05  -1.385941e+06
   5.725101e+05  -1.039130e+06
   7.295515e+05   7.327552e+04
   3.957996e+05   9.064063e+05
  -8.731082e+04   7.952200e+05
  -4.066932e+05   1.024732e+05
  -4.166053e+05  -3.083394e+05
  -1.917072e+05  -1.330803e+05
  -1.288000e+04   9.628317e+04
  -1.190159e+05  -1.704747e+05
  -3.525592e+05  -7.154111e+05
  -2.255540e+05  -8.468396e+05
   4.532250e+05  -3.239257e+05
   1.139789e+06   3.617403e+05
   1.054508e+06   6.481369e+05
   1.510852e+05   5.180786e+05
  -7.193598e+05   3.045054e+05
  -7.797057e+05   1.606492e+05
  -2.220237e+05   3.824872e+03
   1.376787e+05  -1.622919e+05
  -4.743274e+04  -2.026227e+05
  -2.817318e+05  -1.255924e+05
  -5.098335e+03  -1.040568e+05
   5.921462e+05  -1.361204e+05
   7.839525e+05   4.057224e+04
   2.033539e+05   5.055235e+05
  -7.241338e+05   8.323227e+05
  -1.237686e+06   5.049921e+05
  -9.630974e+05  -3.780147e+05
  -1.630237e+05  -1.082876e+06
   5.708365e+05  -1.013540e+06
   7.959225e+05  -3.445528e+05
   5.040324e+05   2.287220e+05
   6.380151e+04   2.691951e+05
  -1.197391e+05  -3.844897e+03
   4.053854e+04  -6.894577e+04
   2.648406e+05   2.611148e+05
   2.129974e+05   6.191127e+05
  -1.574987e+05   4.961426e+05
  -5.274542e+05  -1.532371e+05
  -5.005528e+05  -7.783858e+05
   7.780843e+03  -7.686478e+05
   6.143294e+05  -1.024120e+05
   7.472362e+05   6.246906e+05
   2.034262e+05   8.224801e+05
  -5.560245e+05   4.497638e+05
  -8.092200e+05  -8.726666e+04
  -3.587439e+05  -4.156799e+05
   2.138879e+05  -4.441755e+05
   2.292801e+05  -2.647414e+05
  -2.523834e+05  -4.183045e+04
  -5.101886e+05   1.020223e+04
  -8.571079e+04  -2.202106e+05
   6.349956e+05  -5.157204e+05
   9.089498e+05  -4.521934e+05
   5.143466e+05   8.420330e+04
  -8.653117e+04   6.314808e+05
  -3.675119e+05   6.213712e+05
  -2.536400e+05   7.553284e+04
   2.707569e+03  -3.886475e+05
   1.959288e+05  -2.901872e+05
   2.638804e+05   1.755552e+05
   1.763177e+05   4.425621e+05
  -5.632946e+04   2.675441e+05
  -2.912257e+05  -6.461447e+04
  -3.403332e+05  -1.751197e+05
  -1.855185e+05  -3.866461e+04
  -1.687721e+03   6.478698e+04
   6.997432e+04  -6.320942e+04
   8.169557e+04  -2.994004e+05
   1.565272e+05  -3.405701e+05
   2.726530e+05  -4.936867e+04
   2.570966e+05   3.575022e+05
   3.895563e+03   4.932711e+05
  -3.414093e+05   2.010482e+05
  -4.568836e+05  -2.566626e+05
  -1.523404e+05  -4.596087e+05
   3.709433e+05  -2.634647e+05
   6.306818e+05   9.247725e+04
   3.405229e+05   2.926848e+05
  -2.241707e+05   2.550169e+05
  -4.668136e+05   1.110362e+05
  -1.426009e+05   5.135102e+03
   3.246465e+05   6.644924e+03
   3.280250e+05   1.227365e+05
  -1.885117e+05   2.536085e+05
  -6.550068e+05   1.855241e+05
