
 $NMID
 id='ANONYMOUS ', fmtdat='(2E16.6)'
 volume=1.0
 tramp=1.0
 $END
   5.606175e+07  -5.436150e+05
   3.404775e+07   3.441142e+07
  -7.057366e+06   3.801952e+07
  -2.732733e+07   1.482839e+07
  -1.646455e+07  -6.837386e+06
   3.211186e+06  -9.318913e+06
   9.793420e+06   1.131564e+06
   2.850854e+06   9.698693e+06
  -6.086310e+06   9.344997e+06
  -9.584006e+06   2.073115e+06
  -7.017987e+06  -6.101064e+06
  -8.971268e+05  -8.547200e+06
   3.942678e+06  -2.772592e+06
   2.670064e+06   5.379538e+06
  -3.684942e+06   6.543656e+06
  -7.845918e+06  -1.258832e+06
  -4.516573e+06  -1.011211e+07
   3.650486e+06  -1.177405e+07
   9.996688e+06  -5.977761e+06
   1.077877e+07   1.929351e+06
   6.673843e+06   7.383035e+06
   7.841618e+05   8.608401e+06
  -2.842350e+06   6.065239e+06
  -1.834262e+06   2.700817e+06
   1.112777e+06   2.122764e+06
   3.010802e+05   4.140644e+06
  -5.317851e+06   4.429977e+06
  -9.600197e+06   6.024056e+05
  -7.054770e+06  -4.028881e+06
  -3.128197e+05  -5.035170e+06
   3.665297e+06  -2.605086e+06
   2.462923e+06  -4.965034e+04
  -5.844586e+05   9.358980e+05
  -2.254380e+06   5.151928e+05
  -2.199133e+06  -1.394291e+06
  -7.380193e+05  -3.900033e+06
   1.749372e+06  -3.856778e+06
   3.222172e+06   6.391109e+04
   1.747219e+06   3.599999e+06
  -7.508014e+05   1.929141e+06
  -3.703431e+05  -2.437398e+06
   2.423118e+06  -2.317158e+06
   2.468464e+06   3.155132e+06
  -2.355493e+06   6.130179e+06
  -6.908329e+06   1.081480e+06
  -5.166256e+06  -6.841839e+06
   1.816519e+06  -8.507142e+06
   7.366668e+06  -2.481736e+06
   6.961938e+06   4.360251e+06
   1.895366e+06   5.987473e+06
  -3.435989e+06   2.733550e+06
  -5.252614e+06  -1.471094e+06
  -2.448383e+06  -3.452343e+06
   2.385560e+06  -2.212818e+06
   4.517743e+06   8.749841e+05
   1.969065e+06   2.690840e+06
  -1.696815e+06   1.381993e+06
  -1.743483e+06  -1.006991e+06
   1.308153e+06  -9.307904e+05
   2.487822e+06   1.719649e+06
  -5.735220e+05   3.433581e+06
  -4.585299e+06   1.944543e+06
  -5.293050e+06  -1.293756e+06
  -2.348818e+06  -3.935145e+06
   1.742914e+06  -5.259678e+06
   4.939550e+06  -4.871742e+06
   6.150405e+06  -1.801121e+06
   4.594625e+06   3.098211e+06
   1.002226e+06   6.138820e+06
  -1.808125e+06   4.773244e+06
  -1.747873e+06   1.237260e+06
  -1.704590e+05  -2.496058e+05
   3.573238e+04   9.743043e+05
  -1.582167e+06   1.799528e+06
  -2.805461e+06   2.669711e+05
  -2.044859e+06  -1.909006e+06
  -4.652004e+04  -2.144961e+06
   1.552974e+06  -2.209148e+05
   1.699862e+06   2.060820e+06
   3.262649e+04   2.934952e+06
  -2.747192e+06   1.681304e+06
  -4.476837e+06  -1.142901e+06
  -3.254960e+06  -3.719011e+06
  -8.054034e+03  -4.220420e+06
   2.243567e+06  -2.737770e+06
   2.218608e+06  -1.160508e+06
   1.827580e+06  -7.015552e+05
   2.941401e+06  -5.070778e+05
   4.361750e+06   7.231965e+05
   3.516290e+06   2.740555e+06
   1.660440e+05   4.135490e+06
  -3.180060e+06   3.937621e+06
  -4.164385e+06   2.163916e+06
  -2.667248e+06  -3.960018e+05
  -2.988312e+05  -2.237523e+06
   1.084183e+06  -1.950765e+06
   5.660931e+05   2.971090e+04
  -1.079841e+06   1.324579e+06
  -1.912319e+06   4.177998e+05
  -9.381981e+05  -1.202182e+06
   5.092406e+05  -1.123208e+06
   4.313759e+05   3.894595e+05
  -1.071097e+06   7.066840e+05
  -1.878583e+06  -1.287005e+06
  -6.697617e+05  -3.504193e+06
   1.584847e+06  -3.435633e+06
   3.152206e+06  -1.129614e+06
   3.327297e+06   1.435362e+06
   2.293839e+06   2.754924e+06
   4.701844e+05   2.613256e+06
  -1.233408e+06   1.479212e+06
  -1.582214e+06   2.427855e+05
  -4.960105e+05  -4.245518e+04
   3.658098e+05   7.546569e+05
  -4.085814e+05   1.356164e+06
  -1.921236e+06   5.976272e+05
  -2.057413e+06  -8.840618e+05
  -3.955505e+05  -1.428810e+06
   1.178565e+06  -5.816922e+05
   8.935033e+05   4.546378e+05
  -8.569935e+05   5.212415e+05
  -2.191750e+06  -3.207322e+05
  -1.750553e+06  -1.357245e+06
   2.466798e+05  -1.977213e+06
   2.312992e+06  -1.672243e+06
   2.789871e+06  -2.908710e+05
   1.235704e+06   1.270021e+06
  -9.175186e+05   1.525616e+06
  -1.577114e+06   2.043127e+05
  -2.144536e+05  -1.090844e+06
   1.525005e+06  -7.546157e+05
   1.736797e+06   7.809382e+05
   3.429187e+05   1.665450e+06
  -1.102251e+06   9.841495e+05
  -1.268171e+06  -3.172438e+05
  -2.452922e+05  -7.909160e+05
   8.080767e+05  -5.932472e+04
   7.524485e+05   1.058647e+06
  -5.684360e+05   1.441829e+06
  -2.019923e+06   5.645818e+05
  -2.061919e+06  -1.043065e+06
  -4.014118e+05  -2.091461e+06
   1.445150e+06  -1.666836e+06
   1.741694e+06  -2.192563e+05
   5.081926e+05   8.757341e+05
  -6.619214e+05   8.120777e+05
  -6.331956e+05   8.108040e+04
   1.227011e+05  -3.554896e+05
   4.876262e+05  -2.029319e+05
   1.085484e+05   6.412653e+04
  -4.612321e+05  -8.723624e+04
  -5.221222e+05  -6.855128e+05
   2.088871e+05  -1.200402e+06
   1.391266e+06  -9.091788e+05
   2.101698e+06   4.057684e+05
   1.490604e+06   1.950505e+06
  -2.022266e+05   2.439693e+06
  -1.617895e+06   1.426489e+06
  -1.696377e+06  -1.228111e+05
  -8.578612e+05  -8.918974e+05
  -3.188673e+05  -6.382359e+05
  -4.901071e+05  -2.067479e+05
  -6.447184e+05  -3.146276e+05
  -9.859565e+04  -7.764020e+05
   8.811131e+05  -9.114250e+05
   1.455383e+06  -3.297559e+05
   1.053267e+06   7.198222e+05
  -2.492811e+05   1.463005e+06
  -1.727615e+06   1.084306e+06
  -2.264282e+06  -4.750661e+05
  -1.150151e+06  -2.111304e+06
   1.011298e+06  -2.391772e+06
   2.562780e+06  -1.049526e+06
   2.369235e+06   6.596723e+05
   9.579899e+05   1.344372e+06
  -2.099153e+05   9.430289e+05
  -3.813850e+05   5.052644e+05
  -5.857100e+04   7.598314e+05
  -8.698576e+04   1.326525e+06
  -6.686966e+05   1.310358e+06
  -1.306084e+06   3.330049e+05
  -1.358154e+06  -1.077684e+06
  -5.762647e+05  -1.904290e+06
   6.145944e+05  -1.452722e+06
   1.294516e+06  -4.694603e+03
   8.247925e+05   1.292557e+06
  -3.916342e+05   1.410672e+06
  -1.178311e+06   4.077887e+05
  -8.239551e+05  -7.113304e+05
   1.262032e+05  -1.093198e+06
   5.479661e+05  -7.907029e+05
   8.834490e+04  -4.148268e+05
  -4.415676e+05  -3.319419e+05
  -6.490496e+04  -3.844602e+05
   1.160687e+06  -2.184507e+05
   2.088090e+06   3.222001e+05
   1.637590e+06   1.037541e+06
  -3.579926e+04   1.453131e+06
  -1.603036e+06   1.164633e+06
  -1.847701e+06   2.870065e+05
  -8.410237e+05  -5.037991e+05
   2.632426e+05  -5.811249e+05
   5.187981e+05  -3.301752e+04
   3.841993e+04   4.313612e+05
  -4.399298e+05   2.664132e+05
  -4.899664e+05  -3.400998e+05
  -2.719210e+05  -7.230839e+05
  -1.107141e+05  -4.810178e+05
  -1.367311e+05   8.937280e+04
  -2.713008e+05   2.876284e+05
  -2.773704e+05  -2.331829e+05
   1.287686e+05  -9.913729e+05
   8.973571e+05  -1.084396e+06
   1.383962e+06  -1.969208e+05
   8.807282e+05   9.129057e+05
  -4.073880e+05   1.163200e+06
  -1.272218e+06   3.639151e+05
  -7.469251e+05  -5.665063e+05
   7.054428e+05  -6.571193e+05
   1.596065e+06   9.101654e+04
   1.003342e+06   8.658944e+05
  -4.932762e+05   9.900074e+05
  -1.503432e+06   4.751483e+05
  -1.231893e+06  -1.931592e+05
  -1.319925e+05  -5.139464e+05
   6.544071e+05  -2.698027e+05
   3.950382e+05   2.976264e+05
  -5.770937e+05   5.403031e+05
  -1.195533e+06  -5.635567e+04
  -7.057965e+05  -1.176941e+06
   5.560721e+05  -1.731090e+06
   1.476895e+06  -9.234992e+05
   1.276969e+06   7.418530e+05
   2.281347e+05   1.800180e+06
  -7.316999e+05   1.303565e+06
  -9.314011e+05  -1.799261e+05
  -4.347319e+05  -1.198837e+06
   2.279749e+05  -9.697862e+05
   5.709425e+05  -8.347075e+04
   4.612113e+05   3.726034e+05
   1.519966e+05   1.322005e+05
   5.355390e+04  -9.215806e+04
   3.064490e+05   3.045592e+05
   5.329114e+05   9.727397e+05
   1.865707e+05   1.081764e+06
  -7.368269e+05   4.029296e+05
  -1.489323e+06  -4.508864e+05
  -1.282592e+06  -8.286092e+05
  -1.925722e+05  -7.059723e+05
   8.389076e+05  -4.354902e+05
   9.839260e+05  -1.896632e+05
   3.785369e+05   5.905734e+04
  -1.371470e+05   2.313813e+05
  -5.359911e+04   1.970632e+05
   2.465183e+05   7.943690e+04
   6.186549e+04   1.322646e+05
  -6.397921e+05   2.573623e+05
  -1.059753e+06   1.241685e+04
  -4.824919e+05  -6.958690e+05
   8.075964e+05  -1.217685e+06
   1.719533e+06  -8.102148e+05
   1.462433e+06   3.974574e+05
   3.122518e+05   1.410894e+06
  -7.570288e+05   1.410800e+06
  -1.050992e+06   5.792639e+05
  -6.626330e+05  -2.087170e+05
  -1.525224e+05  -3.600491e+05
   4.817496e+04  -8.349421e+04
  -8.973322e+04   1.143466e+03
  -2.980881e+05  -3.737101e+05
  -2.538937e+05  -8.119997e+05
   1.629807e+05  -6.951128e+05
   6.854223e+05   9.087715e+04
   7.815539e+05   9.286172e+05
   1.675945e+05   1.042699e+06
  -7.393863e+05   2.921409e+05
  -1.069551e+06  -6.816684e+05
  -3.928392e+05  -1.094795e+06
   7.016589e+05  -7.197119e+05
   1.144995e+06   4.382111e+04
   5.652825e+05   6.259329e+05
  -2.775416e+05   7.157942e+05
  -3.977221e+05   3.853996e+05
   2.255391e+05  -5.777661e+03
   6.488252e+05  -5.767544e+04
   1.633145e+05   3.129340e+05
  -8.196928e+05   6.996664e+05
  -1.282256e+06   5.530883e+05
  -7.988415e+05  -1.830479e+05
   7.646453e+04  -8.904246e+05
   5.617111e+05  -8.871174e+05
   4.520171e+05  -1.912109e+05
   7.860170e+04   4.723570e+05
  -2.270756e+05   4.593034e+05
  -3.576862e+05  -1.175346e+05
  -2.736013e+05  -5.766415e+05
   3.718670e+04  -4.543652e+05
   3.971483e+05   2.569997e+04
   4.952139e+05   2.891354e+05
   2.474268e+05   1.066715e+05
  -5.007856e+04  -1.694807e+05
  -8.490866e+04  -8.036867e+04
   5.352324e+04   3.415831e+05
   9.758213e+03   5.834531e+05
  -3.019409e+05   2.723874e+05
  -5.043294e+05  -3.434076e+05
  -2.172448e+05  -6.469198e+05
   3.924065e+05  -3.400242e+05
   6.947629e+05   2.496396e+05
   2.834404e+05   5.633076e+05
  -5.112941e+05   3.855920e+05
  -9.086614e+05  -4.316012e+04
  -5.010219e+05  -3.691188e+05
   2.868775e+05  -4.306862e+05
   6.469461e+05  -2.696938e+05
   2.724759e+05  -2.889314e+04
  -3.203164e+05   9.833905e+04
  -4.026047e+05  -2.553387e+04
   1.395396e+05  -2.815850e+05
   7.065372e+05  -2.944857e+05
