
 $NMID
 id='ANONYMOUS ', fmtdat='(2E16.6)'
 volume=1.0
 tramp=1.0
 $END
   2.153166e+07   2.143042e+06
   1.288366e+07   1.197646e+07
  -1.945558e+06   1.358213e+07
  -1.016948e+07   7.472455e+06
  -7.400651e+06  -3.684200e+05
   1.720780e+05  -3.809465e+06
   4.329362e+06  -1.228836e+06
   2.635348e+06   3.677309e+06
  -1.616758e+06   5.435028e+06
  -4.137205e+06   2.020081e+06
  -3.170141e+06  -3.059896e+06
  -6.242572e+04  -4.445085e+06
   2.171822e+06  -8.155765e+05
   1.397084e+06   3.654439e+06
  -1.555889e+06   4.035554e+06
  -3.508298e+06  -2.799193e+04
  -2.149958e+06  -4.390662e+06
   1.532715e+06  -5.107900e+06
   4.339986e+06  -2.091739e+06
   4.103780e+06   1.637006e+06
   1.585164e+06   3.276511e+06
  -5.739687e+05   2.548724e+06
  -4.993515e+05   1.336242e+06
   1.103517e+06   1.472190e+06
   1.624198e+06   2.796853e+06
  -6.404452e+05   3.384708e+06
  -4.217979e+06   1.811206e+06
  -5.582491e+06  -1.055582e+06
  -3.004596e+06  -2.893990e+06
   1.214095e+06  -2.367001e+06
   3.070717e+06  -2.844184e+05
   1.194352e+06   1.455486e+06
  -1.921680e+06   1.498067e+06
  -2.990379e+06  -1.904761e+05
  -1.378605e+06  -2.317496e+06
   8.428579e+05  -2.973492e+06
   1.564481e+06  -1.310285e+06
   6.486258e+05   1.116736e+06
  -4.629570e+05   1.610178e+06
  -4.643724e+05  -4.259202e+05
   6.283019e+05  -2.375322e+06
   1.627202e+06  -1.541857e+06
   1.325993e+06   1.242682e+06
  -2.894389e+05   2.505194e+06
  -1.823891e+06   5.407183e+05
  -1.628138e+06  -2.449206e+06
   5.609516e+05  -3.110201e+06
   3.075808e+06  -7.774636e+05
   3.625645e+06   2.190115e+06
   1.443666e+06   3.229353e+06
  -1.775075e+06   1.875533e+06
  -3.287818e+06  -3.859969e+05
  -1.913728e+06  -1.699866e+06
   7.856983e+05  -1.263987e+06
   2.132102e+06   1.831642e+05
   1.115798e+06   1.096691e+06
  -7.117200e+05   6.392994e+05
  -1.182333e+06  -4.887667e+05
   2.641929e+04  -9.269729e+05
   1.210647e+06  -2.264312e+05
   7.548156e+05   7.689736e+05
  -1.001323e+06   9.689244e+05
  -2.143756e+06   5.508874e+04
  -1.217567e+06  -1.432416e+06
   1.281406e+06  -2.495752e+06
   3.379104e+06  -2.165238e+06
   3.488075e+06  -2.363513e+05
   1.811783e+06   2.185224e+06
  -5.087720e+04   3.388335e+06
  -8.044212e+05   2.746684e+06
  -6.173605e+05   1.385685e+06
  -5.756356e+05   7.495284e+05
  -1.242442e+06   8.299439e+05
  -2.044575e+06   4.254861e+05
  -2.019035e+06  -9.561023e+05
  -8.745315e+05  -2.185290e+06
   7.255827e+05  -1.817071e+06
   1.687267e+06   1.003414e+05
   1.261222e+06   1.937896e+06
  -3.556720e+05   2.114193e+06
  -1.985712e+06   5.662732e+05
  -2.319469e+06  -1.354270e+06
  -1.141081e+06  -2.236441e+06
   4.008608e+05  -1.812903e+06
   1.039538e+06  -9.433726e+05
   8.157018e+05  -5.451631e+05
   8.843366e+05  -6.409698e+05
   1.864537e+06  -4.895670e+05
   2.825524e+06   4.580792e+05
   2.270055e+06   1.881283e+06
  -1.672261e+04   2.834289e+06
  -2.459326e+06   2.542088e+06
  -3.155658e+06   1.032674e+06
  -1.736320e+06  -7.839828e+05
   3.177366e+05  -1.681687e+06
   1.167613e+06  -1.110056e+06
   3.581638e+05   1.878577e+05
  -9.273576e+05   8.013832e+05
  -1.251824e+06   1.542159e+05
  -4.070111e+05  -8.113736e+05
   5.436484e+05  -7.798162e+05
   5.385832e+05   2.413976e+05
  -3.864350e+05   8.382012e+05
  -1.242923e+06  -7.857108e+04
  -1.082013e+06  -1.851294e+06
   2.150707e+05  -2.703627e+06
   1.866733e+06  -1.640909e+06
   2.721596e+06   5.495798e+05
   2.090265e+06   2.152686e+06
   3.931192e+05   2.155212e+06
  -1.052553e+06   1.012493e+06
  -1.204536e+06   4.482522e+02
  -3.480904e+05  -5.786553e+04
   2.375023e+05   5.334942e+05
  -2.414220e+05   8.320087e+05
  -1.176087e+06   3.306362e+05
  -1.319622e+06  -5.256181e+05
  -3.214163e+05  -8.854474e+05
   7.963375e+05  -4.297225e+05
   7.639099e+05   3.241368e+05
  -5.009022e+05   5.761967e+05
  -1.724497e+06  -5.422449e+03
  -1.550559e+06  -1.014166e+06
   6.009427e+04  -1.633018e+06
   1.734168e+06  -1.280558e+06
   2.017359e+06  -1.469191e+05
   7.970053e+05   8.582405e+05
  -6.402649e+05   8.899889e+05
  -9.476322e+05   4.237519e+04
  -1.815315e+04  -6.824950e+05
   1.062416e+06  -4.351156e+05
   1.204663e+06   5.340862e+05
   3.325266e+05   1.168605e+06
  -6.850849e+05   8.144303e+05
  -9.348221e+05  -7.448092e+04
  -2.971801e+05  -5.048215e+05
   4.662126e+05  -5.254160e+04
   4.423490e+05   7.311842e+05
  -4.917167e+05   9.463748e+05
  -1.442339e+06   2.490631e+05
  -1.361889e+06  -8.455187e+05
  -1.889882e+05  -1.453038e+06
   1.023162e+06  -1.104538e+06
   1.210514e+06  -1.422911e+05
   3.935609e+05   6.075262e+05
  -4.606954e+05   5.949610e+05
  -5.468377e+05   2.701434e+04
   1.302220e+04  -4.094438e+05
   4.765743e+05  -2.973497e+05
   3.414698e+05   8.935271e+04
  -1.767789e+05   1.486987e+05
  -4.132278e+05  -3.120829e+05
   6.213722e+04  -7.947592e+05
   9.591517e+05  -6.134285e+05
   1.451200e+06   3.459221e+05
   9.504589e+05   1.419271e+06
  -2.542636e+05   1.745273e+06
  -1.229608e+06   1.061143e+06
  -1.321569e+06  -6.729537e+04
  -7.544374e+05  -7.921933e+05
  -2.498156e+05  -7.572169e+05
  -1.801964e+05  -3.442394e+05
  -2.561258e+05  -1.787224e+05
  -6.121110e+03  -4.270909e+05
   6.019007e+05  -6.306419e+05
   1.070150e+06  -2.624865e+05
   8.376401e+05   5.868084e+05
  -1.543326e+05   1.169230e+06
  -1.279579e+06   7.973931e+05
  -1.637893e+06  -4.013311e+05
  -8.143892e+05  -1.508386e+06
   6.720077e+05  -1.636830e+06
   1.749197e+06  -7.366155e+05
   1.721729e+06   4.147089e+05
   8.355059e+05   9.886225e+05
  -7.507149e+04   8.425607e+05
  -4.230233e+05   5.067697e+05
  -3.106347e+05   5.097270e+05
  -2.358165e+05   7.869583e+05
  -4.902256e+05   7.874581e+05
  -8.628367e+05   1.416493e+05
  -8.756625e+05  -8.385331e+05
  -3.015079e+05  -1.382874e+06
   5.226535e+05  -1.000928e+06
   9.329542e+05   2.268515e+04
   5.697996e+05   8.803302e+05
  -2.248079e+05   9.704674e+05
  -7.203105e+05   3.751408e+05
  -5.373118e+05  -3.289028e+05
  -9.245953e+03  -6.514160e+05
   2.381497e+05  -5.631424e+05
   7.565011e+03  -3.667142e+05
  -2.585235e+05  -2.964546e+05
  -2.376498e+03  -2.899460e+05
   7.648455e+05  -1.239759e+05
   1.367547e+06   2.842900e+05
   1.108706e+06   7.430996e+05
   2.609864e+04   9.397173e+05
  -1.049685e+06   7.138539e+05
  -1.273702e+06   2.039986e+05
  -6.184192e+05  -2.419590e+05
   1.509812e+05  -3.274055e+05
   3.276880e+05  -6.195281e+04
  -4.210228e+04   2.132805e+05
  -3.762026e+05   1.354657e+05
  -3.101304e+05  -2.702293e+05
  -3.865463e+04  -5.564210e+05
   5.396595e+04  -3.521778e+05
  -1.156325e+05   1.332772e+05
  -2.931741e+05   2.857215e+05
  -2.027315e+05  -1.630914e+05
   1.984564e+05  -7.284931e+05
   6.786837e+05  -6.986275e+05
   8.485044e+05   2.512187e+03
   4.411486e+05   6.902090e+05
  -3.443079e+05   6.937383e+05
  -8.382020e+05   8.211659e+04
  -4.803983e+05  -4.774405e+05
   5.045465e+05  -4.545667e+05
   1.181802e+06   8.060709e+04
   8.245138e+05   6.373952e+05
  -2.883767e+05   7.778078e+05
  -1.127686e+06   4.274259e+05
  -9.745597e+05  -1.132319e+05
  -1.290610e+05  -4.015884e+05
   4.663373e+05  -2.179880e+05
   2.305782e+05   1.924678e+05
  -4.904822e+05   2.964864e+05
  -8.337722e+05  -1.896508e+05
  -3.313189e+05  -9.182280e+05
   6.167711e+05  -1.154403e+06
   1.164570e+06  -4.936388e+05
   8.636284e+05   6.488577e+05
   4.336038e+04   1.330810e+06
  -6.026232e+05   9.576537e+05
  -6.833953e+05  -1.072033e+05
  -3.255396e+05  -8.771851e+05
   1.179298e+05  -7.445533e+05
   3.854467e+05  -7.319764e+04
   3.838193e+05   3.115501e+05
   1.827410e+05   1.312935e+05
   1.387586e+04  -9.018894e+04
   9.000930e+04   1.761740e+05
   2.876878e+05   7.045255e+05
   1.725718e+05   8.119366e+05
  -4.415660e+05   2.718474e+05
  -1.064594e+06  -4.120913e+05
  -9.703031e+05  -6.721108e+05
  -1.104725e+05  -4.994091e+05
   7.099262e+05  -2.525668e+05
   7.506938e+05  -1.102570e+05
   2.019341e+05   1.341823e+04
  -1.443499e+05   1.493025e+05
   4.297416e+04   1.902397e+05
   2.718385e+05   1.298415e+05
  -3.560916e+03   1.022180e+05
  -5.825613e+05   1.006849e+05
  -7.456938e+05  -8.978590e+04
  -1.507109e+05  -5.070908e+05
   7.538087e+05  -7.535179e+05
   1.213128e+06  -3.924963e+05
   8.908700e+05   4.366032e+05
   8.642989e+04   1.046758e+06
  -6.081281e+05   9.240849e+05
  -7.851023e+05   2.732881e+05
  -4.715381e+05  -2.508321e+05
  -4.113356e+04  -2.634399e+05
   1.250125e+05   6.815140e+03
  -3.390193e+04   6.441979e+04
  -2.360707e+05  -2.580107e+05
  -1.678686e+05  -5.983071e+05
   1.833064e+05  -4.637905e+05
   5.008487e+05   1.804256e+05
   4.317132e+05   7.828754e+05
  -6.346648e+04   7.425584e+05
  -6.055834e+05   5.891925e+04
  -6.798749e+05  -6.516594e+05
  -1.372012e+05  -8.028131e+05
   5.664379e+05  -3.901272e+05
   7.648244e+05   1.406477e+05
   3.052982e+05   4.188752e+05
  -2.392448e+05   4.025601e+05
  -2.307260e+05   2.290248e+05
   2.475531e+05   5.036520e+04
   4.895256e+05   2.151966e+04
   6.374331e+04   2.171262e+05
  -6.365564e+05   4.526388e+05
  -8.833378e+05   3.712989e+05
  -4.724715e+05  -1.165898e+05
   1.261777e+05  -5.952693e+05
   3.878818e+05  -5.592454e+05
   2.467452e+05  -4.279716e+04
  -2.699807e+04   3.774723e+05
  -2.110523e+05   2.623581e+05
  -2.484034e+05  -1.891606e+05
  -1.394914e+05  -4.345135e+05
   7.917185e+04  -2.486817e+05
   2.769355e+05   8.261228e+04
   3.063970e+05   1.874317e+05
   1.695894e+05   4.550593e+04
   1.434385e+04  -6.119426e+04
  -5.808502e+04   6.448023e+04
  -9.921311e+04   2.946663e+05
  -1.900322e+05   3.244503e+05
  -2.810088e+05   2.491030e+04
  -2.247639e+05  -3.742089e+05
   3.603288e+04  -4.854575e+05
   3.450183e+05  -1.712171e+05
   4.208169e+05   2.826843e+05
   1.163416e+05   4.539938e+05
  -3.698964e+05   2.243763e+05
  -5.958339e+05  -1.352364e+05
  -3.049075e+05  -3.031785e+05
   2.358606e+05  -2.252216e+05
   4.584532e+05  -6.941830e+04
   1.337538e+05   1.149136e+04
  -3.217036e+05  -2.208864e+04
  -3.167916e+05  -1.404208e+05
   1.953007e+05  -2.410501e+05
   6.451525e+05  -1.471426e+05
