
 $NMID
 id='ANONYMOUS ', fmtdat='(2E16.6)'
 volume=1.0
 tramp=1.0
 $END
   3.664087e+07  -9.988938e+05
   2.367343e+07   1.947592e+07
  -1.952960e+06   2.407607e+07
  -1.655334e+07   1.273434e+07
  -1.191898e+07  -1.332047e+06
   5.634511e+05  -6.307462e+06
   6.810173e+06  -1.353832e+06
   3.779584e+06   5.987949e+06
  -2.666396e+06   8.050567e+06
  -6.450202e+06   3.024893e+06
  -5.361864e+06  -4.217051e+06
  -8.560199e+05  -6.590448e+06
   3.015149e+06  -1.803672e+06
   2.436844e+06   4.824842e+06
  -2.100455e+06   5.886580e+06
  -5.612059e+06   5.483231e+04
  -3.911014e+06  -6.802394e+06
   1.821475e+06  -8.448321e+06
   6.677284e+06  -4.298547e+06
   7.161659e+06   1.513056e+06
   3.854119e+06   4.931512e+06
   9.411624e+04   4.901015e+06
  -1.017565e+06   3.114317e+06
   7.215322e+05   2.157711e+06
   2.119824e+06   3.149284e+06
  -1.976323e+05   4.447486e+06
  -5.304728e+06   3.397773e+06
  -8.091516e+06  -2.207026e+05
  -5.140882e+06  -3.501459e+06
   7.852501e+05  -3.717248e+06
   3.858614e+06  -1.276952e+06
   1.910369e+06   1.233309e+06
  -1.876069e+06   1.826778e+06
  -3.488736e+06   2.288171e+05
  -2.151574e+06  -2.432820e+06
   2.536626e+05  -3.967969e+06
   1.771039e+06  -2.512345e+06
   1.603863e+06   9.257843e+05
   2.596340e+05   2.527717e+06
  -6.345253e+05   1.935982e+05
   2.706257e+05  -2.989708e+06
   2.077762e+06  -2.310602e+06
   2.126543e+06   1.916575e+06
  -6.315559e+05   4.204333e+06
  -3.646998e+06   1.115360e+06
  -3.353047e+06  -4.053699e+06
   6.443597e+05  -5.481985e+06
   4.927214e+06  -1.839692e+06
   5.699511e+06   2.919929e+06
   2.286758e+06   4.640684e+06
  -2.466059e+06   2.763992e+06
  -4.681964e+06  -4.304544e+05
  -2.723941e+06  -2.384877e+06
   1.268832e+06  -1.916281e+06
   3.328795e+06   1.674156e+05
   1.754479e+06   1.657762e+06
  -1.076121e+06   1.071634e+06
  -1.668988e+06  -6.194194e+05
   3.111488e+05  -1.160958e+06
   1.874102e+06   1.336106e+05
   6.769450e+05   1.660431e+06
  -2.153323e+06   1.653584e+06
  -3.582153e+06  -3.015569e+04
  -2.033603e+06  -2.343128e+06
   1.403899e+06  -4.027799e+06
   4.352605e+06  -3.834625e+06
   5.021437e+06  -1.149276e+06
   3.275537e+06   2.718943e+06
   6.383784e+05   4.950905e+06
  -9.546220e+05   4.076194e+06
  -9.414236e+05   1.771541e+06
  -5.457746e+05   7.097669e+05
  -1.103732e+06   1.166903e+06
  -2.339953e+06   1.093137e+06
  -2.783904e+06  -6.371874e+05
  -1.603787e+06  -2.513313e+06
   5.034244e+05  -2.376519e+06
   2.040483e+06  -1.109161e+05
   1.857022e+06   2.301102e+06
  -1.126943e+05   2.863453e+06
  -2.586914e+06   1.219793e+06
  -3.606582e+06  -1.337925e+06
  -2.272201e+06  -3.023418e+06
   1.366392e+05  -2.960614e+06
   1.491061e+06  -1.820547e+06
   1.344694e+06  -9.763966e+05
   1.307246e+06  -9.244219e+05
   2.577971e+06  -8.134142e+05
   3.997715e+06   3.403107e+05
   3.371830e+06   2.331528e+06
   3.281541e+05   3.880935e+06
  -2.982986e+06   3.798962e+06
  -4.068619e+06   1.924997e+06
  -2.470648e+06  -6.723285e+05
   4.942216e+04  -2.249553e+06
   1.287025e+06  -1.713664e+06
   5.026285e+05   1.493725e+05
  -1.105714e+06   1.222021e+06
  -1.706489e+06   3.910031e+05
  -7.320771e+05  -1.058296e+06
   5.771361e+05  -1.096200e+06
   6.483042e+05   3.021621e+05
  -6.102133e+05   1.043825e+06
  -1.760978e+06  -3.266520e+05
  -1.434585e+06  -2.680426e+06
   3.890112e+05  -3.608305e+06
   2.541023e+06  -2.091373e+06
   3.620014e+06   6.582126e+05
   2.865057e+06   2.630853e+06
   7.231234e+05   2.760477e+06
  -1.245586e+06   1.494156e+06
  -1.588598e+06   1.965089e+05
  -4.768596e+05  -2.739736e+04
   3.810305e+05   6.995906e+05
  -2.625254e+05   1.202717e+06
  -1.630558e+06   6.059838e+05
  -1.891463e+06  -6.158335e+05
  -5.022390e+05  -1.212450e+06
   1.054614e+06  -6.434881e+05
   1.006396e+06   3.765770e+05
  -6.850440e+05   7.538610e+05
  -2.286853e+06   6.730038e+04
  -2.079781e+06  -1.211897e+06
  -2.792330e+04  -2.132213e+06
   2.185335e+06  -1.871866e+06
   2.697628e+06  -4.311440e+05
   1.198450e+06   1.089756e+06
  -7.715766e+05   1.343915e+06
  -1.338295e+06   2.009341e+05
  -1.461858e+05  -9.508045e+05
   1.399154e+06  -7.340189e+05
   1.693874e+06   6.086228e+05
   5.302480e+05   1.552364e+06
  -8.867869e+05   1.121332e+06
  -1.256852e+06  -7.279420e+04
  -3.945933e+05  -6.775831e+05
   6.780792e+05  -1.072789e+05
   7.107715e+05   9.631453e+05
  -5.396836e+05   1.367971e+06
  -1.928882e+06   5.464909e+05
  -1.973078e+06  -9.623187e+05
  -4.452467e+05  -1.959092e+06
   1.268751e+06  -1.632273e+06
   1.628409e+06  -3.250424e+05
   5.753550e+05   7.827445e+05
  -5.687227e+05   8.369243e+05
  -6.901028e+05   9.503875e+04
   2.320617e+04  -4.954118e+05
   5.760551e+05  -3.790501e+05
   3.618188e+05   8.608273e+04
  -3.020118e+05   1.441181e+05
  -5.900942e+05  -4.562164e+05
   3.318422e+04  -1.118446e+06
   1.251801e+06  -9.505361e+05
   2.023338e+06   2.940718e+05
   1.481696e+06   1.810236e+06
  -1.165948e+05   2.382846e+06
  -1.522309e+06   1.541777e+06
  -1.748476e+06   3.570142e+04
  -1.039337e+06  -9.285135e+05
  -3.994500e+05  -8.688700e+05
  -3.473395e+05  -3.570597e+05
  -4.580010e+05  -2.283668e+05
  -9.021797e+04  -6.334521e+05
   7.593163e+05  -9.341684e+05
   1.417271e+06  -4.610049e+05
   1.166344e+06   6.807669e+05
  -9.945835e+04   1.554921e+06
  -1.636686e+06   1.206718e+06
  -2.253093e+06  -3.490791e+05
  -1.260368e+06  -1.961050e+06
   7.634932e+05  -2.318166e+06
   2.327231e+06  -1.184228e+06
   2.360998e+06   4.097446e+05
   1.165478e+06   1.244596e+06
  -5.352638e+04   1.078473e+06
  -4.616191e+05   6.623569e+05
  -2.517883e+05   7.261828e+05
  -1.571694e+05   1.150672e+06
  -5.707401e+05   1.178458e+06
  -1.179457e+06   3.238728e+05
  -1.308964e+06  -1.012429e+06
  -5.954395e+05  -1.827088e+06
   5.682564e+05  -1.419842e+06
   1.260229e+06  -7.364082e+04
   8.705127e+05   1.152416e+06
  -2.277821e+05   1.354681e+06
  -9.928641e+05   5.490451e+05
  -7.907702e+05  -4.668412e+05
  -4.069100e+04  -9.416613e+05
   3.327993e+05  -7.932080e+05
  -3.861688e+02  -4.672286e+05
  -4.058621e+05  -3.456379e+05
  -5.430239e+04  -3.852056e+05
   1.051134e+06  -2.655439e+05
   1.936874e+06   2.151081e+05
   1.605107e+06   8.906168e+05
   1.101130e+05   1.316079e+06
  -1.387342e+06   1.129043e+06
  -1.722616e+06   4.076119e+05
  -8.572726e+05  -3.175331e+05
   1.835994e+05  -4.995028e+05
   4.582212e+05  -1.031032e+05
   2.502705e+03   3.327212e+05
  -4.629828e+05   2.463654e+05
  -4.650321e+05  -3.178895e+05
  -1.795264e+05  -7.248708e+05
  -2.252508e+04  -4.728401e+05
  -1.374704e+05   1.628424e+05
  -3.293672e+05   3.789174e+05
  -2.941862e+05  -2.040644e+05
   1.457283e+05  -9.987201e+05
   8.311116e+05  -1.051500e+06
   1.210725e+06  -1.527182e+05
   7.522425e+05   8.669372e+05
  -3.665572e+05   1.035414e+06
  -1.152000e+06   2.806885e+05
  -7.213415e+05  -5.616388e+05
   6.343754e+05  -6.746287e+05
   1.589058e+06  -1.974541e+04
   1.134708e+06   7.729932e+05
  -3.400759e+05   1.054877e+06
  -1.462342e+06   6.547253e+05
  -1.290701e+06  -6.773130e+04
  -1.990917e+05  -5.164946e+05
   6.108135e+05  -3.305735e+05
   3.548570e+05   2.454229e+05
  -5.968827e+05   4.887036e+05
  -1.152334e+06  -1.047639e+05
  -6.171106e+05  -1.168449e+06
   6.144645e+05  -1.654646e+06
   1.469444e+06  -8.588993e+05
   1.253194e+06   7.331536e+05
   2.486587e+05   1.772020e+06
  -6.819940e+05   1.344015e+06
  -9.295559e+05  -8.517153e+04
  -5.233499e+05  -1.146420e+06
   1.069480e+05  -9.993166e+05
   5.265779e+05  -1.328316e+05
   5.255290e+05   3.652561e+05
   2.252930e+05   1.460844e+05
   2.114702e+04  -1.128516e+05
   1.995901e+05   2.436499e+05
   5.026818e+05   9.164783e+05
   2.968232e+05   1.064671e+06
  -6.077097e+05   4.232730e+05
  -1.479467e+06  -4.078135e+05
  -1.355310e+06  -7.759510e+05
  -2.139804e+05  -6.664669e+05
   8.826075e+05  -4.377479e+05
   9.827169e+05  -2.361464e+05
   3.072797e+05   7.617725e+03
  -1.579854e+05   2.217280e+05
   3.991524e+04   2.335668e+05
   3.359702e+05   1.194624e+05
   2.676771e+04   1.348635e+05
  -7.193191e+05   2.292352e+05
  -1.020762e+06  -7.113632e+02
  -3.434840e+05  -6.595618e+05
   8.588102e+05  -1.143192e+06
   1.602022e+06  -7.408328e+05
   1.315248e+06   4.242946e+05
   2.853332e+05   1.385835e+06
  -6.953078e+05   1.350000e+06
  -1.015392e+06   5.133272e+05
  -6.619490e+05  -2.460738e+05
  -1.128405e+05  -3.481890e+05
   1.268972e+05  -3.036929e+04
  -5.560391e+04   6.317431e+04
  -3.360583e+05  -3.307267e+05
  -2.931271e+05  -7.848453e+05
   1.702537e+05  -6.586082e+05
   6.871512e+05   1.422210e+05
   7.166962e+05   9.571596e+05
   7.292580e+04   1.005435e+06
  -7.726652e+05   2.065213e+05
  -1.018981e+06  -7.343963e+05
  -3.326531e+05  -1.057969e+06
   6.926165e+05  -6.405079e+05
   1.070544e+06   6.039523e+04
   5.024102e+05   5.458349e+05
  -2.607016e+05   6.181646e+05
  -3.125274e+05   3.564616e+05
   2.987065e+05   2.047905e+04
   6.512803e+05  -4.894617e+04
   1.332650e+05   2.884027e+05
  -7.904759e+05   6.975096e+05
  -1.171893e+06   6.051439e+05
  -6.967594e+05  -1.119818e+05
   7.569078e+04  -8.344353e+05
   4.710017e+05  -8.314277e+05
   3.608955e+05  -1.291793e+05
   3.873442e+04   4.924254e+05
  -2.340381e+05   4.052851e+05
  -3.550969e+05  -1.822518e+05
  -2.581473e+05  -5.616784e+05
   5.480371e+04  -3.774381e+05
   3.839021e+05   5.404490e+04
   4.561612e+05   2.292590e+05
   2.387292e+05   5.773548e+04
  -1.179862e+04  -1.098204e+05
  -7.785741e+04   3.784118e+04
  -4.359624e+04   3.807311e+05
  -1.307284e+05   4.931160e+05
  -3.414351e+05   1.373037e+05
  -3.993816e+05  -4.195583e+05
  -8.730672e+04  -6.430230e+05
   4.174170e+05  -2.975514e+05
   6.294428e+05   2.891871e+05
   2.414652e+05   5.762970e+05
  -4.739792e+05   3.650224e+05
  -8.410825e+05  -7.257704e+04
  -4.664529e+05  -3.593288e+05
   2.790593e+05  -3.652246e+05
   6.102396e+05  -1.970372e+05
   2.084307e+05  -1.546113e+04
  -3.918184e+05   4.096141e+04
  -4.248241e+05  -1.032600e+05
   1.979388e+05  -3.241530e+05
   7.918976e+05  -2.884131e+05
