
 $NMID
 id='ANONYMOUS ', fmtdat='(2E16.6)'
 volume=1.0
 tramp=1.0
 $END
   3.057564e+07  -6.218045e+05
   1.959132e+07   1.720096e+07
  -2.305753e+06   2.051082e+07
  -1.444324e+07   9.878780e+06
  -9.903063e+06  -2.090570e+06
   9.175913e+05  -5.340048e+06
   5.759955e+06  -5.103311e+05
   2.651585e+06   5.268139e+06
  -2.770537e+06   6.295513e+06
  -5.482052e+06   2.038555e+06
  -4.228091e+06  -3.528992e+06
  -5.370848e+05  -5.241699e+06
   2.394166e+06  -1.460365e+06
   1.713870e+06   3.728514e+06
  -1.990263e+06   4.489511e+06
  -4.623696e+06  -2.455221e+05
  -2.969101e+06  -5.705789e+06
   1.751216e+06  -6.879381e+06
   5.562336e+06  -3.450570e+06
   5.905930e+06   1.210304e+06
   3.332781e+06   4.034202e+06
   2.555142e+05   4.240760e+06
  -1.001495e+06   2.903884e+06
   3.515873e+04   1.869759e+06
   1.215232e+06   2.272131e+06
  -2.238975e+05   3.189555e+06
  -3.967101e+06   2.515849e+06
  -6.184011e+06  -1.935749e+05
  -4.052457e+06  -2.734014e+06
   4.266404e+05  -2.887301e+06
   2.775448e+06  -1.040302e+06
   1.389716e+06   7.105525e+05
  -1.269026e+06   1.046979e+06
  -2.343622e+06   2.733983e+04
  -1.449967e+06  -1.679216e+06
   1.484279e+05  -2.846740e+06
   1.305715e+06  -2.033059e+06
   1.389396e+06   4.845578e+05
   4.388284e+05   1.975346e+06
  -3.890253e+05   4.394685e+05
   2.189612e+05  -2.058954e+06
   1.671908e+06  -1.657500e+06
   1.642399e+06   1.686842e+06
  -7.968046e+05   3.532471e+06
  -3.314358e+06   8.955413e+05
  -2.834987e+06  -3.490966e+06
   6.821537e+05  -4.637064e+06
   4.094291e+06  -1.457669e+06
   4.422600e+06   2.525241e+06
   1.544789e+06   3.766037e+06
  -2.088237e+06   2.011510e+06
  -3.607071e+06  -6.257554e+05
  -1.946189e+06  -2.060189e+06
   1.183241e+06  -1.494439e+06
   2.708167e+06   2.887691e+05
   1.341266e+06   1.455116e+06
  -9.225652e+05   8.493128e+05
  -1.248450e+06  -5.782722e+05
   4.613379e+05  -8.672511e+05
   1.586498e+06   4.075550e+05
   3.296030e+05   1.642942e+06
  -2.061617e+06   1.350005e+06
  -3.026095e+06  -2.635423e+05
  -1.576110e+06  -2.062741e+06
   1.156097e+06  -3.165636e+06
   3.381533e+06  -2.904435e+06
   3.905523e+06  -8.653256e+05
   2.584907e+06   2.103060e+06
   4.427229e+05   3.865137e+06
  -9.517198e+05   3.153042e+06
  -9.318731e+05   1.228915e+06
  -4.182732e+05   3.096474e+05
  -6.607636e+05   7.191688e+05
  -1.583669e+06   8.085632e+05
  -1.981322e+06  -3.997520e+05
  -1.141538e+06  -1.773229e+06
   3.668462e+05  -1.662239e+06
   1.415980e+06  -3.602161e+03
   1.250917e+06   1.727155e+06
  -1.486864e+05   2.113580e+06
  -1.950463e+06   9.060430e+05
  -2.760349e+06  -1.019972e+06
  -1.793608e+06  -2.371484e+06
   9.716977e+04  -2.396502e+06
   1.239695e+06  -1.503289e+06
   1.169889e+06  -7.615345e+05
   1.102146e+06  -6.301996e+05
   2.013063e+06  -4.814617e+05
   3.026774e+06   4.310005e+05
   2.460707e+06   1.897577e+06
   9.891444e+04   2.930162e+06
  -2.354854e+06   2.740187e+06
  -3.069211e+06   1.332762e+06
  -1.819150e+06  -5.174596e+05
   5.010921e+04  -1.635024e+06
   9.567001e+05  -1.251637e+06
   3.704818e+05   1.018518e+05
  -8.459175e+05   8.819317e+05
  -1.308070e+06   2.490864e+05
  -5.508244e+05  -8.188933e+05
   4.491370e+05  -7.909091e+05
   4.354912e+05   2.734160e+05
  -5.880692e+05   7.183142e+05
  -1.368614e+06  -4.639504e+05
  -8.827245e+05  -2.220103e+06
   6.324289e+05  -2.692280e+06
   2.113425e+06  -1.323652e+06
   2.644341e+06   7.641764e+05
   1.931281e+06   2.094771e+06
   3.868011e+05   2.050366e+06
  -9.679636e+05   1.057214e+06
  -1.174970e+06   9.946962e+04
  -3.553341e+05  -3.786449e+04
   2.586290e+05   5.397805e+05
  -2.504573e+05   9.153785e+05
  -1.276152e+06   4.092717e+05
  -1.421809e+06  -5.554957e+05
  -3.246907e+05  -9.572098e+05
   8.257592e+05  -4.367859e+05
   7.151602e+05   3.320597e+05
  -5.751518e+05   5.024228e+05
  -1.696243e+06  -1.017243e+05
  -1.444225e+06  -1.009806e+06
   1.091998e+05  -1.563428e+06
   1.710280e+06  -1.280329e+06
   2.030304e+06  -2.083483e+05
   8.657283e+05   8.744896e+05
  -6.294201e+05   1.007596e+06
  -1.037108e+06   1.187634e+05
  -9.708559e+04  -7.276147e+05
   1.078340e+06  -5.065056e+05
   1.248087e+06   5.339656e+05
   3.129229e+05   1.195281e+06
  -7.390167e+05   7.868507e+05
  -9.424917e+05  -1.386542e+05
  -2.492380e+05  -5.429116e+05
   5.299463e+05  -5.644701e+04
   5.057940e+05   7.485026e+05
  -4.441599e+05   1.006174e+06
  -1.456442e+06   3.476684e+05
  -1.444513e+06  -7.849588e+05
  -2.633100e+05  -1.486906e+06
   1.020391e+06  -1.179091e+06
   1.239556e+06  -1.732709e+05
   3.923191e+05   6.179791e+05
  -4.659167e+05   6.002420e+05
  -5.034835e+05   4.124654e+04
   5.958838e+04  -3.459976e+05
   4.324882e+05  -2.238392e+05
   2.176072e+05   8.692504e+04
  -2.699448e+05   6.455641e+04
  -4.217640e+05  -4.013378e+05
   8.829829e+04  -8.492728e+05
   9.827429e+05  -6.604722e+05
   1.503798e+06   2.998139e+05
   1.042809e+06   1.409750e+06
  -1.777492e+05   1.769775e+06
  -1.199254e+06   1.071979e+06
  -1.291908e+06  -6.387333e+04
  -7.010712e+05  -7.248786e+05
  -2.368632e+05  -6.185609e+05
  -2.603220e+05  -2.395746e+05
  -3.686509e+05  -1.876292e+05
  -5.541623e+04  -4.951174e+05
   6.146596e+05  -6.669133e+05
   1.075706e+06  -2.713738e+05
   8.196278e+05   5.552316e+05
  -1.579297e+05   1.136517e+06
  -1.271592e+06   8.191168e+05
  -1.660344e+06  -3.548114e+05
  -8.539466e+05  -1.522692e+06
   6.805094e+05  -1.713309e+06
   1.807134e+06  -7.864079e+05
   1.745372e+06   4.254855e+05
   7.875622e+05   9.880741e+05
  -1.118187e+05   7.795820e+05
  -3.582530e+05   4.403567e+05
  -1.737345e+05   5.214655e+05
  -1.313076e+05   8.707742e+05
  -4.700147e+05   8.799484e+05
  -9.031472e+05   2.088578e+05
  -9.447043e+05  -7.995371e+05
  -3.794787e+05  -1.383095e+06
   4.731343e+05  -1.037403e+06
   9.427795e+05  -2.018436e+03
   6.042682e+05   9.072357e+05
  -2.391517e+05   1.012040e+06
  -7.926793e+05   3.582291e+05
  -5.887931e+05  -4.123217e+05
   2.182458e+04  -7.333752e+05
   3.104625e+05  -5.869882e+05
   3.438285e+04  -3.410221e+05
  -2.932332e+05  -2.640557e+05
  -2.886881e+04  -2.851946e+05
   8.067833e+05  -1.589602e+05
   1.455228e+06   2.334167e+05
   1.169295e+06   7.350442e+05
   1.978731e+04   1.008098e+06
  -1.097582e+06   8.062023e+05
  -1.314482e+06   2.293261e+05
  -6.306122e+05  -2.970876e+05
   1.613268e+05  -3.817626e+05
   3.566095e+05  -5.198072e+04
   2.984941e+03   2.607988e+05
  -3.446919e+05   1.682267e+05
  -3.381912e+05  -2.526879e+05
  -1.242422e+05  -5.348987e+05
  -1.681269e+04  -3.456845e+05
  -1.112997e+05   1.024011e+05
  -2.509934e+05   2.487586e+05
  -2.088584e+05  -1.665010e+05
   1.385589e+05  -7.294675e+05
   6.581051e+05  -7.577707e+05
   9.262431e+05  -9.058643e+04
   5.514617e+05   6.650843e+05
  -3.045623e+05   7.767778e+05
  -8.755652e+05   1.905035e+05
  -5.181751e+05  -4.379880e+05
   5.044789e+05  -4.777335e+05
   1.181293e+06   5.809616e+04
   7.937324e+05   6.331083e+05
  -3.175711e+05   7.648808e+05
  -1.119414e+06   4.046741e+05
  -9.474392e+05  -1.191813e+05
  -1.175249e+05  -3.915056e+05
   4.732958e+05  -2.154007e+05
   2.639904e+05   1.997206e+05
  -4.501055e+05   3.484765e+05
  -8.514177e+05  -1.047483e+05
  -4.323100e+05  -8.789394e+05
   4.940116e+05  -1.210211e+06
   1.110543e+06  -5.962205e+05
   9.048068e+05   5.832576e+05
   1.219566e+05   1.322194e+06
  -5.597441e+05   9.647132e+05
  -6.892150e+05  -1.107341e+05
  -3.352197e+05  -8.782415e+05
   1.356595e+05  -7.360509e+05
   4.038572e+05  -7.437465e+04
   3.646037e+05   2.924164e+05
   1.475644e+05   1.174227e+05
   2.642589e+04  -8.093466e+04
   1.617430e+05   1.906269e+05
   3.489635e+05   7.012515e+05
   1.648339e+05   8.054868e+05
  -4.867355e+05   2.963162e+05
  -1.082409e+06  -3.576958e+05
  -9.643934e+05  -6.319676e+05
  -1.341183e+05  -5.072579e+05
   6.584301e+05  -2.901936e+05
   7.361668e+05  -1.330584e+05
   2.422333e+05   2.063755e+04
  -1.197886e+05   1.587401e+05
   2.781211e+03   1.730349e+05
   2.255994e+05   9.786556e+04
   2.127954e+04   9.772525e+04
  -5.226683e+05   1.450041e+05
  -7.592555e+05  -3.008576e+04
  -2.580762e+05  -4.960382e+05
   6.585139e+05  -8.246791e+05
   1.223511e+06  -5.123041e+05
   9.805619e+05   3.434909e+05
   1.702217e+05   1.034948e+06
  -5.655801e+05   9.872945e+05
  -7.686665e+05   3.584770e+05
  -4.779601e+05  -1.971498e+05
  -7.932453e+04  -2.603172e+05
   7.744563e+04  -2.265204e+04
  -5.301012e+04   3.590019e+04
  -2.328121e+05  -2.652561e+05
  -1.847044e+05  -5.961973e+05
   1.441909e+05  -4.862908e+05
   4.987972e+05   1.190430e+05
   5.063913e+05   7.213314e+05
   3.903120e+04   7.451141e+05
  -5.659443e+05   1.394725e+05
  -7.328812e+05  -5.637613e+05
  -2.227732e+05  -7.946426e+05
   5.293163e+05  -4.638608e+05
   8.000159e+05   7.303092e+04
   3.684247e+05   4.298774e+05
  -2.100512e+05   4.656299e+05
  -2.558078e+05   2.629311e+05
   2.051886e+05   2.509443e+04
   4.812277e+05  -1.558775e+04
   9.544129e+04   2.197590e+05
  -6.117822e+05   4.902979e+05
  -9.078032e+05   4.047693e+05
  -5.327940e+05  -1.123017e+05
   8.059677e+04  -6.231295e+05
   3.880881e+05  -6.131089e+05
   2.828847e+05  -9.975657e+04
   1.779859e+04   3.586533e+05
  -1.817579e+05   3.002738e+05
  -2.523372e+05  -1.348563e+05
  -1.752418e+05  -4.248274e+05
   4.526697e+04  -2.891514e+05
   2.820554e+05   4.696963e+04
   3.394980e+05   1.926683e+05
   1.787784e+05   5.874065e+04
  -1.546967e+04  -8.958839e+04
  -6.728683e+04   4.878908e+03
  -3.025689e+04   2.665602e+05
  -8.267307e+04   3.667272e+05
  -2.412441e+05   1.112227e+05
  -2.943994e+05  -3.031023e+05
  -6.595849e+04  -4.700695e+05
   3.109765e+05  -2.114612e+05
   4.638054e+05   2.235411e+05
   1.653916e+05   4.284678e+05
  -3.673299e+05   2.593389e+05
  -6.282933e+05  -7.246617e+04
  -3.388208e+05  -2.804258e+05
   2.155338e+05  -2.721611e+05
   4.589240e+05  -1.399659e+05
   1.648044e+05  -1.071299e+04
  -2.743466e+05   2.276898e+04
  -3.012974e+05  -7.814562e+04
   1.492874e+05  -2.214282e+05
   5.786171e+05  -1.819831e+05
