
 $NMID
 id='ANONYMOUS ', fmtdat='(2E16.6)'
 volume=1.0
 tramp=1.0
 $END
  -4.063481e+07   5.889729e+05
  -2.462842e+07  -2.526618e+07
   5.356403e+06  -2.772722e+07
   1.994836e+07  -1.038532e+07
   1.177712e+07   5.393852e+06
  -2.535837e+06   6.735169e+06
  -7.036766e+06  -1.120033e+06
  -1.796396e+06  -7.074498e+06
   4.582729e+06  -6.480256e+06
   6.904922e+06  -1.273479e+06
   4.989027e+06   4.345986e+06
   6.504574e+05   6.021272e+06
  -2.768851e+06   2.031496e+06
  -1.847111e+06  -3.665712e+06
   2.688324e+06  -4.492875e+06
   5.612994e+06   1.017537e+06
   3.167715e+06   7.273077e+06
  -2.676668e+06   8.428030e+06
  -7.189108e+06   4.321810e+06
  -7.803567e+06  -1.297205e+06
  -4.962902e+06  -5.297074e+06
  -6.856754e+05  -6.356991e+06
   2.167961e+06  -4.554498e+06
   1.636973e+06  -1.902156e+06
  -5.842165e+05  -1.237451e+06
  -3.062901e+05  -2.707598e+06
   3.524173e+06  -3.154925e+06
   6.650315e+06  -5.907266e+05
   5.045624e+06   2.736869e+06
   4.192260e+05   3.575758e+06
  -2.397257e+06   1.978319e+06
  -1.733901e+06   2.612473e+05
   1.683824e+05  -4.770578e+05
   1.292950e+06  -4.031561e+05
   1.481206e+06   7.430548e+05
   6.794542e+05   2.583914e+06
  -1.141278e+06   2.806085e+06
  -2.419476e+06   1.198674e+05
  -1.433757e+06  -2.570208e+06
   5.093566e+05  -1.581492e+06
   3.672378e+05   1.530195e+06
  -1.661106e+06   1.559059e+06
  -1.719993e+06  -2.298189e+06
   1.827037e+06  -4.423372e+06
   5.147784e+06  -7.528766e+05
   3.785888e+06   5.001985e+06
  -1.362020e+06   6.190020e+06
  -5.307862e+06   1.802258e+06
  -4.877289e+06  -3.111721e+06
  -1.230146e+06  -4.208144e+06
   2.439200e+06  -1.835658e+06
   3.605756e+06   1.127632e+06
   1.604372e+06   2.467685e+06
  -1.766346e+06   1.537407e+06
  -3.216197e+06  -6.782258e+05
  -1.362847e+06  -1.956748e+06
   1.228288e+06  -9.822775e+05
   1.180078e+06   7.272391e+05
  -1.034958e+06   5.888646e+05
  -1.771111e+06  -1.399672e+06
   5.739948e+05  -2.590330e+06
   3.455149e+06  -1.370302e+06
   3.823326e+06   1.046022e+06
   1.640306e+06   2.878221e+06
  -1.190303e+06   3.722951e+06
  -3.365260e+06   3.448833e+06
  -4.280212e+06   1.343506e+06
  -3.301351e+06  -2.104310e+06
  -7.622867e+05  -4.286578e+06
   1.323048e+06  -3.308960e+06
   1.293885e+06  -7.446164e+05
   5.184555e+04   3.264460e+05
  -2.202558e+05  -6.170874e+05
   9.181782e+05  -1.326676e+06
   1.872573e+06  -3.445353e+05
   1.447188e+06   1.160471e+06
   1.343972e+05   1.390672e+06
  -9.523621e+05   1.735601e+05
  -1.117583e+06  -1.324816e+06
  -6.156246e+04  -1.968452e+06
   1.849423e+06  -1.212894e+06
   3.136774e+06   7.051915e+05
   2.355063e+06   2.578517e+06
   5.260150e+04   3.025090e+06
  -1.607111e+06   1.991502e+06
  -1.619502e+06   8.168586e+05
  -1.302137e+06   4.403311e+05
  -2.019597e+06   3.024929e+05
  -2.973284e+06  -5.230441e+05
  -2.383411e+06  -1.877049e+06
  -1.055435e+05  -2.799178e+06
   2.132361e+06  -2.665645e+06
   2.780954e+06  -1.504986e+06
   1.813206e+06   2.035169e+05
   2.694524e+05   1.488077e+06
  -6.783564e+05   1.345882e+06
  -3.880344e+05   3.106086e+03
   7.087156e+05  -9.059634e+05
   1.307291e+06  -2.929998e+05
   6.663332e+05   8.206782e+05
  -3.223302e+05   7.557985e+05
  -2.532176e+05  -2.723922e+05
   7.881151e+05  -4.204096e+05
   1.279599e+06   1.009458e+06
   3.370598e+05   2.471390e+06
  -1.239281e+06   2.270383e+06
  -2.198581e+06   6.086266e+05
  -2.177061e+06  -1.069747e+06
  -1.448078e+06  -1.845476e+06
  -2.848681e+05  -1.715162e+06
   8.123548e+05  -9.902768e+05
   1.052404e+06  -1.780344e+05
   3.340797e+05   2.816767e+04
  -2.453115e+05  -5.105399e+05
   2.898282e+05  -9.321966e+05
   1.326661e+06  -4.072104e+05
   1.404267e+06   6.236956e+05
   2.531892e+05   9.869590e+05
  -8.037757e+05   3.835838e+05
  -5.792446e+05  -3.118107e+05
   5.977399e+05  -3.132884e+05
   1.447387e+06   2.673543e+05
   1.119217e+06   9.202230e+05
  -2.001645e+05   1.293721e+06
  -1.554798e+06   1.093731e+06
  -1.874007e+06   1.851727e+05
  -8.367969e+05  -8.704368e+05
   6.281516e+05  -1.052478e+06
   1.090445e+06  -1.451063e+05
   1.601305e+05   7.496732e+05
  -1.033969e+06   5.146221e+05
  -1.169325e+06  -5.404801e+05
  -2.059087e+05  -1.127628e+06
   7.660148e+05  -6.389059e+05
   8.491526e+05   2.460251e+05
   1.425055e+05   5.452270e+05
  -5.605527e+05   3.578676e+04
  -5.144721e+05  -7.180537e+05
   3.761785e+05  -9.769465e+05
   1.359150e+06  -3.903120e+05
   1.395294e+06   6.980327e+05
   2.714033e+05   1.414555e+06
  -9.842837e+05   1.124797e+06
  -1.179018e+06   1.376143e+05
  -3.320314e+05  -5.968318e+05
   4.528183e+05  -5.406981e+05
   4.121830e+05  -5.486248e+04
  -9.682852e+04   2.143744e+05
  -3.094419e+05   1.083191e+05
  -3.028002e+04  -3.870733e+04
   3.348487e+05   9.432425e+04
   3.405800e+05   4.927267e+05
  -1.622322e+05   8.153547e+05
  -9.461783e+05   6.068063e+05
  -1.416690e+06  -2.780235e+05
  -1.005818e+06  -1.316066e+06
   1.361872e+05  -1.637219e+06
   1.087177e+06  -9.402853e+05
   1.122907e+06   9.951045e+04
   5.461010e+05   5.839125e+05
   2.022956e+05   3.849816e+05
   3.518063e+05   1.098068e+05
   4.630405e+05   2.206686e+05
   7.150669e+04   5.411157e+05
  -6.029445e+05   6.086947e+05
  -9.750371e+05   2.057656e+05
  -6.872096e+05  -4.807921e+05
   1.834978e+05  -9.614126e+05
   1.161376e+06  -7.117483e+05
   1.514175e+06   3.257722e+05
   7.596587e+05   1.426881e+06
  -7.031619e+05   1.612592e+06
  -1.742765e+06   6.908651e+05
  -1.584620e+06  -4.692500e+05
  -6.109803e+05  -9.081211e+05
   1.613365e+05  -6.071571e+05
   2.381775e+05  -3.124221e+05
   2.471352e+03  -5.124209e+05
   3.900343e+04  -9.143678e+05
   4.552295e+05  -8.994087e+05
   8.902892e+05  -2.305850e+05
   9.195406e+05   7.222122e+05
   3.911507e+05   1.279537e+06
  -4.098159e+05   9.773603e+05
  -8.688724e+05  -1.588749e+03
  -5.491871e+05  -8.810018e+05
   2.811307e+05  -9.521290e+05
   8.147414e+05  -2.545125e+05
   5.589140e+05   5.109768e+05
  -1.062795e+05   7.551543e+05
  -3.973542e+05   5.298467e+05
  -7.168879e+04   2.682656e+05
   3.021811e+05   2.165584e+05
   4.715973e+04   2.558149e+05
  -7.911180e+05   1.440477e+05
  -1.419413e+06  -2.215072e+05
  -1.102925e+06  -7.076996e+05
   4.058655e+04  -9.922339e+05
   1.098838e+06  -7.911937e+05
   1.251480e+06  -1.809608e+05
   5.608028e+05   3.628047e+05
  -1.857286e+05   4.026539e+05
  -3.559576e+05   1.304952e+04
  -3.410315e+04  -3.039167e+05
   2.878959e+05  -1.833075e+05
   3.326615e+05   2.277964e+05
   2.007288e+05   4.801799e+05
   9.124265e+04   3.213711e+05
   9.059262e+04  -4.796176e+04
   1.696569e+05  -1.778302e+05
   1.834553e+05   1.588619e+05
  -7.761079e+04   6.604074e+05
  -6.035884e+05   7.334373e+05
  -9.508169e+05   1.463479e+05
  -6.137778e+05  -6.115346e+05
   2.721283e+05  -7.992550e+05
   8.663826e+05  -2.635761e+05
   5.052964e+05   3.744573e+05
  -4.787572e+05   4.389632e+05
  -1.065799e+06  -7.078542e+04
  -6.514902e+05  -5.876552e+05
   3.494046e+05  -6.518566e+05
   1.006840e+06  -2.945997e+05
   8.125252e+05   1.433741e+05
   7.943199e+04   3.415678e+05
  -4.422628e+05   1.731552e+05
  -2.717812e+05  -2.051018e+05
   3.784874e+05  -3.719857e+05
   8.045898e+05   2.299439e+04
   4.917800e+05   7.822201e+05
  -3.515512e+05   1.169856e+06
  -9.808390e+05   6.344469e+05
  -8.592769e+05  -4.891746e+05
  -1.582837e+05  -1.203649e+06
   4.892428e+05  -8.661863e+05
   6.223123e+05   1.309362e+05
   2.813575e+05   8.058443e+05
  -1.672445e+05   6.429223e+05
  -3.877434e+05   5.043711e+04
  -2.986502e+05  -2.472590e+05
  -8.966956e+04  -8.507961e+04
  -4.069945e+04   5.825699e+04
  -2.240112e+05  -2.115701e+05
  -3.656165e+05  -6.551119e+05
  -1.115679e+05  -7.231796e+05
   5.108637e+05  -2.692548e+05
   9.969891e+05   2.998892e+05
   8.472820e+05   5.545024e+05
   1.286019e+05   4.762984e+05
  -5.495648e+05   2.943865e+05
  -6.551900e+05   1.238703e+05
  -2.647439e+05  -4.593754e+04
   8.667407e+04  -1.565754e+05
   5.047726e+04  -1.255892e+05
  -1.496700e+05  -4.499017e+04
  -4.788245e+04  -8.739332e+04
   4.117230e+05  -1.796682e+05
   7.130136e+05  -1.619243e+04
   3.488598e+05   4.673148e+05
  -5.231824e+05   8.286070e+05
  -1.161765e+06   5.611532e+05
  -1.001866e+06  -2.524648e+05
  -2.202826e+05  -9.431199e+05
   5.074799e+05  -9.549159e+05
   7.035110e+05  -4.029716e+05
   4.429716e+05   1.293063e+05
   1.103198e+05   2.411960e+05
  -1.834636e+04   6.480292e+04
   6.563710e+04   9.176072e+03
   1.943766e+05   2.548426e+05
   1.670128e+05   5.446205e+05
  -1.036972e+05   4.704374e+05
  -4.571049e+05  -4.828386e+04
  -5.368963e+05  -6.100398e+05
  -1.332895e+05  -7.004183e+05
   4.856589e+05  -2.131019e+05
   7.251385e+05   4.397851e+05
   2.779332e+05   7.339037e+05
  -4.653600e+05   4.969272e+05
  -7.761080e+05  -2.021253e+04
  -3.909040e+05  -4.277144e+05
   1.839372e+05  -4.951808e+05
   2.774433e+05  -2.640407e+05
  -1.379453e+05   9.413379e+03
  -4.318186e+05   4.339904e+04
  -1.156484e+05  -2.118486e+05
   5.476472e+05  -4.712168e+05
   8.705497e+05  -3.669153e+05
   5.508258e+05   1.296352e+05
  -4.629148e+04   6.034609e+05
  -3.849659e+05   6.039009e+05
  -3.156172e+05   1.404560e+05
  -6.162986e+04  -3.110509e+05
   1.476889e+05  -3.165202e+05
   2.394490e+05   6.552221e+04
   1.881071e+05   3.854695e+05
  -1.930590e+04   3.160615e+05
  -2.671036e+05  -1.021968e+04
  -3.383350e+05  -2.001672e+05
  -1.670383e+05  -7.803200e+04
   4.081221e+04   1.227425e+05
   5.835393e+04   7.305284e+04
  -5.383999e+04  -2.207268e+05
  -3.341311e+04  -4.039917e+05
   1.930249e+05  -2.059381e+05
   3.556644e+05   2.132831e+05
   1.702053e+05   4.306288e+05
  -2.555190e+05   2.359170e+05
  -4.754834e+05  -1.559670e+05
  -1.990409e+05  -3.717874e+05
   3.450705e+05  -2.633086e+05
   6.173711e+05   1.888095e+04
   3.418264e+05   2.450162e+05
  -1.901999e+05   2.997010e+05
  -4.359627e+05   1.955377e+05
  -1.922716e+05   2.305352e+04
   2.009024e+05  -7.685752e+04
   2.647003e+05   1.796822e+03
  -8.172844e+04   1.812229e+05
  -4.550496e+05   2.010215e+05
