
 $NMID
 id='ANONYMOUS ', fmtdat='(2E16.6)'
 volume=1.0
 tramp=1.0
 $END
  -2.617059e+07  -2.970308e+05
  -1.746719e+07  -1.236373e+07
   5.951390e+04  -1.657784e+07
   1.141657e+07  -1.109102e+07
   9.660627e+06  -1.175495e+06
   6.452903e+05   4.772168e+06
  -5.415064e+06   2.464403e+06
  -4.126826e+06  -4.258860e+06
   1.242440e+06  -7.401822e+06
   5.005180e+06  -3.315196e+06
   4.296065e+06   3.489670e+06
   4.890009e+05   5.624671e+06
  -2.608182e+06   1.119194e+06
  -2.039835e+06  -4.725166e+06
   1.593447e+06  -5.520999e+06
   4.480222e+06  -5.253438e+05
   3.309245e+06   5.246717e+06
  -1.226549e+06   6.627631e+06
  -5.092651e+06   3.098701e+06
  -5.116069e+06  -1.615402e+06
  -2.082075e+06  -3.733768e+06
   4.561199e+05  -2.834738e+06
   7.072369e+04  -1.496690e+06
  -2.055742e+06  -2.044000e+06
  -2.454233e+06  -3.958551e+06
   7.967712e+05  -4.638466e+06
   5.542719e+06  -2.497965e+06
   7.284309e+06   1.164205e+06
   3.911479e+06   3.504497e+06
  -1.604583e+06   2.916427e+06
  -4.041392e+06   2.750798e+05
  -1.480112e+06  -2.077552e+06
   2.795481e+06  -2.168295e+06
   4.233734e+06   2.243039e+05
   1.936908e+06   3.197492e+06
  -1.093635e+06   3.994502e+06
  -1.915616e+06   1.660026e+06
  -6.054429e+05  -1.461242e+06
   7.005098e+05  -1.901095e+06
   5.084555e+05   8.249904e+05
  -8.648889e+05   3.291390e+06
  -2.063538e+06   2.210161e+06
  -1.888350e+06  -1.367074e+06
  -1.453668e+05  -3.203135e+06
   1.919507e+06  -1.055232e+06
   2.224021e+06   2.663218e+06
  -2.147878e+05   3.844415e+06
  -3.697798e+06   1.279863e+06
  -4.923692e+06  -2.463889e+06
  -2.286265e+06  -4.106747e+06
   2.135234e+06  -2.695364e+06
   4.436909e+06   1.350493e+05
   2.803350e+06   2.008828e+06
  -7.679046e+05   1.742342e+06
  -2.720190e+06   6.347846e+04
  -1.593007e+06  -1.203674e+06
   7.954621e+05  -8.679088e+05
   1.625260e+06   5.171173e+05
   1.616105e+05   1.333746e+06
  -1.616121e+06   6.668744e+05
  -1.367242e+06  -7.810008e+05
   8.983374e+05  -1.478024e+06
   2.713518e+06  -5.231228e+05
   1.795487e+06   1.592462e+06
  -1.445108e+06   3.298379e+06
  -4.285161e+06   3.024561e+06
  -4.490188e+06   5.055515e+05
  -2.401109e+06  -2.697961e+06
  -1.597551e+05  -4.365555e+06
   7.272714e+05  -3.707465e+06
   6.429788e+05  -2.069585e+06
   8.594578e+05  -1.205568e+06
   1.850233e+06  -1.160628e+06
   2.837234e+06  -5.126837e+05
   2.720000e+06   1.343444e+06
   1.176518e+06   2.974312e+06
  -9.918894e+05   2.478679e+06
  -2.345096e+06  -1.092366e+05
  -1.803802e+06  -2.598377e+06
   3.860317e+05  -2.844838e+06
   2.589289e+06  -8.065836e+05
   3.058426e+06   1.668498e+06
   1.570516e+06   2.774898e+06
  -3.627868e+05   2.266970e+06
  -1.163877e+06   1.256238e+06
  -9.234693e+05   8.325313e+05
  -1.100922e+06   9.972435e+05
  -2.471991e+06   8.395579e+05
  -3.834075e+06  -3.807693e+05
  -3.192046e+06  -2.349443e+06
  -1.738219e+05  -3.813580e+06
   3.157597e+06  -3.573940e+06
   4.183310e+06  -1.542497e+06
   2.332083e+06   9.948573e+05
  -3.994668e+05   2.264790e+06
  -1.523276e+06   1.504949e+06
  -4.585696e+05  -2.495393e+05
   1.211163e+06  -1.103968e+06
   1.636788e+06  -2.762287e+05
   5.606208e+05   1.029921e+06
  -6.954608e+05   1.054144e+06
  -7.641530e+05  -3.089798e+05
   4.412238e+05  -1.228792e+06
   1.737983e+06  -1.019690e+05
   1.743218e+06   2.378197e+06
   3.265095e+04   3.780318e+06
  -2.411621e+06   2.519182e+06
  -3.821998e+06  -4.846809e+05
  -3.051971e+06  -2.813758e+06
  -6.818482e+05  -2.938505e+06
   1.369829e+06  -1.435845e+06
   1.623413e+06  -6.470371e+04
   4.709562e+05   5.085646e+04
  -3.501491e+05  -7.031063e+05
   2.561674e+05  -1.119779e+06
   1.526919e+06  -5.225098e+05
   1.792582e+06   5.905083e+05
   4.987288e+05   1.143938e+06
  -1.042784e+06   6.225663e+05
  -1.061629e+06  -4.085622e+05
   6.561209e+05  -8.562301e+05
   2.390186e+06  -1.298083e+05
   2.216649e+06   1.299371e+06
   3.319159e+04   2.260597e+06
  -2.275220e+06   1.866468e+06
  -2.714451e+06   3.381123e+05
  -1.127433e+06  -1.080537e+06
   7.805154e+05  -1.212800e+06
   1.233379e+06  -1.226863e+05
   5.241028e+04   8.900046e+05
  -1.393335e+06   6.434336e+05
  -1.657779e+06  -6.303427e+05
  -5.441727e+05  -1.552226e+06
   8.574009e+05  -1.164095e+06
   1.273095e+06   1.847437e+04
   4.450554e+05   6.551838e+05
  -6.209445e+05   9.707487e+04
  -6.350750e+05  -9.653755e+05
   6.181052e+05  -1.306726e+06
   1.935944e+06  -4.167491e+05
   1.885228e+06   1.057139e+06
   3.495165e+05   1.940075e+06
  -1.293014e+06   1.555489e+06
  -1.611794e+06   2.844537e+05
  -5.730189e+05  -7.820687e+05
   5.800597e+05  -8.282001e+05
   7.385042e+05  -5.582523e+04
  -5.750130e+03   5.835233e+05
  -6.660048e+05   4.409753e+05
  -5.029554e+05  -1.348879e+05
   2.350767e+05  -2.633952e+05
   6.146962e+05   3.746472e+05
  -6.104880e+03   1.090740e+06
  -1.253811e+06   9.067777e+05
  -1.988310e+06  -3.675103e+05
  -1.378473e+06  -1.852325e+06
   2.281234e+05  -2.375907e+06
   1.596576e+06  -1.527855e+06
   1.809595e+06  -5.310842e+03
   1.090831e+06   1.040151e+06
   3.805397e+05   1.042122e+06
   2.389146e+05   4.641976e+05
   3.452723e+05   2.045467e+05
   4.943597e+04   5.652740e+05
  -7.640072e+05   9.118493e+05
  -1.449627e+06   4.460868e+05
  -1.199569e+06  -7.513440e+05
   1.255069e+05  -1.625739e+06
   1.691984e+06  -1.183695e+06
   2.255938e+06   4.338315e+05
   1.212671e+06   1.989583e+06
  -7.849702e+05   2.264181e+06
  -2.307866e+06   1.128854e+06
  -2.369233e+06  -4.318023e+05
  -1.218538e+06  -1.291558e+06
   4.425168e+04  -1.172483e+06
   5.650758e+05  -7.250110e+05
   4.126537e+05  -6.900575e+05
   2.690536e+05  -1.050917e+06
   5.958023e+05  -1.083759e+06
   1.143361e+06  -2.486164e+05
   1.231505e+06   1.074057e+06
   4.936191e+05   1.846757e+06
  -6.433622e+05   1.382348e+06
  -1.264321e+06   3.033994e+04
  -8.357224e+05  -1.147559e+06
   2.262665e+05  -1.331482e+06
   9.428460e+05  -5.776580e+05
   7.609696e+05   3.850939e+05
   7.952156e+04   8.770504e+05
  -2.677977e+05   7.916047e+05
   1.705786e+04   5.071109e+05
   3.661644e+05   3.838277e+05
   2.243980e+04   3.935328e+05
  -1.021622e+06   2.290746e+05
  -1.864313e+06  -2.813015e+05
  -1.552493e+06  -9.249248e+05
  -1.120427e+05  -1.267894e+06
   1.355984e+06  -1.038373e+06
   1.705630e+06  -3.706054e+05
   8.641862e+05   2.737682e+05
  -1.705963e+05   4.501248e+05
  -4.394000e+05   1.159709e+05
   3.648441e+04  -2.790787e+05
   4.981027e+05  -2.053371e+05
   4.359686e+05   3.398570e+05
   7.941699e+04   7.430661e+05
  -5.938203e+04   4.716726e+05
   1.540244e+05  -1.972805e+05
   3.961906e+05  -4.106006e+05
   2.942949e+05   2.105505e+05
  -2.256617e+05   1.004126e+06
  -8.730999e+05   9.918012e+05
  -1.134502e+06   5.483869e+04
  -6.310685e+05  -8.965040e+05
   4.122455e+05  -9.519209e+05
   1.112777e+06  -1.636112e+05
   6.776835e+05   6.137564e+05
  -6.483205e+05   6.531086e+05
  -1.611155e+06  -2.441095e+04
  -1.175479e+06  -8.125162e+05
   3.313969e+05  -1.088790e+06
   1.509520e+06  -6.680007e+05
   1.341298e+06   8.710115e+04
   2.047812e+05   5.408740e+05
  -6.185403e+05   3.300702e+05
  -3.220191e+05  -2.406849e+05
   6.462707e+05  -4.238081e+05
   1.132523e+06   2.099121e+05
   4.951056e+05   1.215926e+06
  -7.644410e+05   1.587143e+06
  -1.538974e+06   7.331447e+05
  -1.205814e+06  -8.214430e+05
  -1.443396e+05  -1.795821e+06
   7.551581e+05  -1.339759e+06
   9.384492e+05   9.504190e+04
   5.050605e+05   1.170050e+06
  -1.080132e+05   1.026670e+06
  -5.187519e+05   1.289928e+05
  -5.443629e+05  -4.040169e+05
  -2.595766e+05  -1.743070e+05
  -1.145836e+04   1.261988e+05
  -1.270602e+05  -2.204975e+05
  -4.319947e+05  -9.284058e+05
  -2.922484e+05  -1.093262e+06
   5.709510e+05  -4.047616e+05
   1.466514e+06   4.882471e+05
   1.363470e+06   8.507622e+05
   1.853179e+05   6.675892e+05
  -9.485035e+05   3.825305e+05
  -1.012342e+06   1.989926e+05
  -2.720331e+05   4.031329e+03
   1.865491e+05  -2.073916e+05
  -7.639042e+04  -2.643356e+05
  -3.813688e+05  -1.706005e+05
   2.297121e+03  -1.381097e+05
   7.880337e+05  -1.635114e+05
   1.010403e+06   7.574610e+04
   2.249609e+05   6.640335e+05
  -9.731125e+05   1.054164e+06
  -1.601845e+06   6.067690e+05
  -1.217253e+06  -5.277407e+05
  -1.804059e+05  -1.406877e+06
   7.575459e+05  -1.287370e+06
   1.039401e+06  -4.144899e+05
   6.512839e+05   3.153696e+05
   6.840377e+04   3.514749e+05
  -1.732013e+05  -1.185119e+04
   4.379098e+04  -9.722042e+04
   3.414183e+05   3.346652e+05
   2.672460e+05   8.005958e+05
  -2.194821e+05   6.340144e+05
  -6.846955e+05  -2.200049e+05
  -6.222733e+05  -1.031105e+06
   4.694542e+04  -9.973594e+05
   8.115757e+05  -1.061319e+05
   9.504956e+05   8.407026e+05
   2.320789e+05   1.069950e+06
  -7.360246e+05   5.564194e+05
  -1.036293e+06  -1.400344e+05
  -4.390866e+05  -5.379518e+05
   2.918500e+05  -5.528565e+05
   2.903809e+05  -3.269009e+05
  -3.418427e+05  -5.942267e+04
  -6.636824e+05   1.522821e+02
  -9.916659e+04  -2.856506e+05
   8.308464e+05  -6.525849e+05
   1.166654e+06  -5.678637e+05
   6.425189e+05   1.154302e+05
  -1.303560e+05   8.076668e+05
  -4.788803e+05   7.819183e+05
  -3.191720e+05   7.475173e+04
   1.800224e+04  -5.109195e+05
   2.660790e+05  -3.631289e+05
   3.427566e+05   2.456440e+05
   2.150058e+05   5.769349e+05
  -8.779299e+04   3.335365e+05
  -3.761693e+05  -9.643059e+04
  -4.265827e+05  -2.270333e+05
  -2.349841e+05  -4.625895e+04
  -1.477566e+04   7.606837e+04
   8.263126e+04  -1.010854e+05
   1.273877e+05  -4.006181e+05
   2.423330e+05  -4.323582e+05
   3.716479e+05  -3.665211e+04
   3.123291e+05   4.908869e+05
  -2.958997e+04   6.489361e+05
  -4.552655e+05   2.474246e+05
  -5.784042e+05  -3.553020e+05
  -1.806656e+05  -6.054132e+05
   4.823528e+05  -3.272175e+05
   8.065551e+05   1.444441e+05
   4.284861e+05   3.883177e+05
  -2.999271e+05   3.136785e+05
  -6.069749e+05   1.180753e+05
  -1.748227e+05  -3.372019e+03
   4.378989e+05   2.114027e+04
   4.324215e+05   1.789047e+05
  -2.577483e+05   3.365738e+05
  -8.700026e+05   2.309748e+05
