
 $NMID
 id='ANONYMOUS ', fmtdat='(2E16.6)'
 volume=1.0
 tramp=1.0
 $END
   4.774908e+07  -1.432509e+06
   3.037343e+07   2.713498e+07
  -3.898421e+06   3.207275e+07
  -2.240997e+07   1.485986e+07
  -1.494203e+07  -3.713651e+06
   1.673659e+06  -8.101969e+06
   8.656146e+06  -3.744007e+05
   3.690177e+06   8.077929e+06
  -4.371575e+06   9.230471e+06
  -8.303399e+06   2.872265e+06
  -6.479166e+06  -5.256813e+06
  -9.874112e+05  -7.843375e+06
   3.541811e+06  -2.358154e+06
   2.642129e+06   5.370533e+06
  -2.973225e+06   6.597202e+06
  -7.036172e+06  -4.693583e+05
  -4.553311e+06  -8.727646e+06
   2.640130e+06  -1.058530e+07
   8.541364e+06  -5.481456e+06
   9.271255e+06   1.646904e+06
   5.467162e+06   6.233847e+06
   5.621091e+05   6.843905e+06
  -1.763622e+06   4.714264e+06
  -3.353016e+05   2.678917e+06
   1.750601e+06   2.983892e+06
  -4.952603e+04   4.587551e+06
  -5.649230e+06   4.023891e+06
  -9.236323e+06   1.202262e+05
  -6.292075e+06  -3.901475e+06
   3.271161e+05  -4.440933e+06
   3.949441e+06  -1.869182e+06
   2.184153e+06   7.398016e+05
  -1.485679e+06   1.462634e+06
  -3.155769e+06   2.889928e+05
  -2.267028e+06  -2.122337e+06
  -1.753610e+05  -4.136071e+06
   1.804721e+06  -3.275670e+06
   2.372014e+06   5.103541e+05
   9.680464e+05   3.085192e+06
  -6.489801e+05   9.774217e+05
   5.464137e+04  -2.908455e+06
   2.388383e+06  -2.474007e+06
   2.453752e+06   2.581702e+06
  -1.399820e+06   5.401892e+06
  -5.354957e+06   1.283063e+06
  -4.461830e+06  -5.521193e+06
   1.138833e+06  -7.248571e+06
   6.338617e+06  -2.311057e+06
   6.679758e+06   3.759544e+06
   2.284983e+06   5.587502e+06
  -3.077066e+06   2.945322e+06
  -5.276508e+06  -9.359619e+05
  -2.809010e+06  -3.024240e+06
   1.833243e+06  -2.179234e+06
   4.081358e+06   4.709751e+05
   1.984883e+06   2.201401e+06
  -1.410723e+06   1.274777e+06
  -1.810351e+06  -8.341651e+05
   7.954024e+05  -1.153356e+06
   2.323700e+06   8.412946e+05
   2.118669e+05   2.606309e+06
  -3.386829e+06   1.975453e+06
  -4.639274e+06  -5.405655e+05
  -2.368023e+06  -3.208314e+06
   1.614158e+06  -4.866644e+06
   4.882389e+06  -4.569635e+06
   5.843110e+06  -1.542993e+06
   4.086713e+06   3.028267e+06
   8.707843e+05   5.789853e+06
  -1.379401e+06   4.684277e+06
  -1.380675e+06   1.692813e+06
  -4.571330e+05   3.334220e+05
  -7.004846e+05   1.113416e+06
  -2.151450e+06   1.420797e+06
  -2.933554e+06  -3.112656e+05
  -1.847192e+06  -2.402334e+06
   3.262365e+05  -2.385760e+06
   1.942395e+06  -1.162896e+05
   1.865032e+06   2.364959e+06
  -7.794160e+04   3.065163e+06
  -2.811048e+06   1.487111e+06
  -4.211429e+06  -1.323143e+06
  -2.877354e+06  -3.499449e+06
   3.544109e+04  -3.712704e+06
   1.892502e+06  -2.385465e+06
   1.824124e+06  -1.166799e+06
   1.648679e+06  -9.067526e+05
   2.940859e+06  -7.266184e+05
   4.452338e+06   5.510660e+05
   3.667781e+06   2.691219e+06
   2.554249e+05   4.266001e+06
  -3.300311e+06   4.102594e+06
  -4.385637e+06   2.132821e+06
  -2.695224e+06  -6.038695e+05
  -7.944196e+04  -2.371713e+06
   1.275229e+06  -1.904785e+06
   5.427104e+05   1.080702e+05
  -1.175631e+06   1.327519e+06
  -1.901844e+06   4.142361e+05
  -8.601661e+05  -1.182644e+06
   5.882722e+05  -1.154388e+06
   5.806966e+05   3.857970e+05
  -8.924328e+05   9.680079e+05
  -1.974069e+06  -8.037777e+05
  -1.201513e+06  -3.279987e+06
   9.889096e+05  -3.818940e+06
   3.046798e+06  -1.806779e+06
   3.763798e+06   1.085962e+06
   2.787219e+06   2.904534e+06
   6.301385e+05   2.895863e+06
  -1.333130e+06   1.580547e+06
  -1.686097e+06   2.215922e+05
  -5.160501e+05  -3.518435e+04
   3.906331e+05   7.759984e+05
  -3.557268e+05   1.351253e+06
  -1.873204e+06   6.328866e+05
  -2.085895e+06  -7.897916e+05
  -4.731438e+05  -1.390825e+06
   1.191991e+06  -6.380399e+05
   1.012484e+06   4.637290e+05
  -8.410717e+05   7.027138e+05
  -2.425296e+06  -1.343582e+05
  -2.067122e+06  -1.398556e+06
   1.237241e+05  -2.219423e+06
   2.415007e+06  -1.892409e+06
   2.924429e+06  -3.788739e+05
   1.289122e+06   1.245647e+06
  -8.898230e+05   1.507449e+06
  -1.527966e+06   2.129022e+05
  -1.776548e+05  -1.070055e+06
   1.553936e+06  -7.784043e+05
   1.822045e+06   7.413317e+05
   4.673451e+05   1.713411e+06
  -1.057231e+06   1.126098e+06
  -1.346275e+06  -2.042856e+05
  -3.396509e+05  -7.802982e+05
   7.932054e+05  -8.026615e+04
   7.705804e+05   1.088526e+06
  -6.073339e+05   1.496075e+06
  -2.111700e+06   5.773060e+05
  -2.142659e+06  -1.079220e+06
  -4.433841e+05  -2.154904e+06
   1.442665e+06  -1.751190e+06
   1.787291e+06  -2.913061e+05
   5.723739e+05   8.771928e+05
  -6.583562e+05   8.702239e+05
  -7.036705e+05   7.900342e+04
   9.334369e+04  -4.701852e+05
   5.950620e+05  -3.093657e+05
   2.689462e+05   1.059513e+05
  -4.154142e+05   5.925879e+04
  -6.151017e+05  -6.017097e+05
   1.181544e+05  -1.246871e+06
   1.413191e+06  -9.976378e+05
   2.202948e+06   3.776770e+05
   1.580311e+06   2.009264e+06
  -1.770322e+05   2.570844e+06
  -1.681496e+06   1.583234e+06
  -1.846246e+06  -4.755987e+04
  -1.017192e+06  -9.825341e+05
  -3.752638e+05  -8.204343e+05
  -4.319087e+05  -3.046057e+05
  -5.842757e+05  -2.796058e+05
  -1.092343e+05  -7.481492e+05
   8.733779e+05  -9.959943e+05
   1.547548e+06  -4.306529e+05
   1.199832e+06   7.583157e+05
  -1.878395e+05   1.630405e+06
  -1.808485e+06   1.229940e+06
  -2.418185e+06  -4.468911e+05
  -1.285329e+06  -2.180394e+06
   9.480476e+05  -2.514899e+06
   2.609427e+06  -1.192744e+06
   2.528890e+06   5.717545e+05
   1.138747e+06   1.391153e+06
  -1.456149e+05   1.092274e+06
  -4.660495e+05   6.254685e+05
  -1.795288e+05   7.796895e+05
  -1.324987e+05   1.305358e+06
  -6.558725e+05   1.319400e+06
  -1.319507e+06   3.474742e+05
  -1.415177e+06  -1.117557e+06
  -6.159878e+05  -1.990088e+06
   6.369768e+05  -1.526636e+06
   1.363516e+06  -3.614057e+04
   9.041517e+05   1.305700e+06
  -3.287399e+05   1.477582e+06
  -1.159185e+06   5.186853e+05
  -8.688078e+05  -6.205364e+05
   3.651873e+04  -1.086663e+06
   4.661258e+05  -8.527435e+05
   4.832818e+04  -4.753747e+05
  -4.505653e+05  -3.613129e+05
  -6.373501e+04  -4.115788e+05
   1.179744e+06  -2.622301e+05
   2.147374e+06   2.847374e+05
   1.730327e+06   1.031098e+06
   4.176255e+04   1.479638e+06
  -1.592056e+06   1.222845e+06
  -1.904889e+06   3.697430e+05
  -9.114777e+05  -4.367765e+05
   2.335641e+05  -5.762932e+05
   5.229667e+05  -7.675169e+04
   2.707213e+04   4.020631e+05
  -4.791855e+05   2.716124e+05
  -5.083041e+05  -3.483210e+05
  -2.360744e+05  -7.672793e+05
  -6.639896e+04  -5.031729e+05
  -1.505634e+05   1.386810e+05
  -3.320269e+05   3.556093e+05
  -3.111298e+05  -2.370500e+05
   1.507576e+05  -1.065182e+06
   9.269491e+05  -1.140127e+06
   1.380829e+06  -1.868079e+05
   8.655991e+05   9.467860e+05
  -4.109008e+05   1.169368e+06
  -1.286261e+06   3.422431e+05
  -7.800800e+05  -6.024750e+05
   7.145959e+05  -7.114613e+05
   1.702732e+06   3.959902e+04
   1.146540e+06   8.814236e+05
  -4.455555e+05   1.099229e+06
  -1.591485e+06   6.045420e+05
  -1.353227e+06  -1.441328e+05
  -1.758945e+05  -5.536789e+05
   6.779093e+05  -3.196412e+05
   3.985744e+05   2.892135e+05
  -6.281556e+05   5.425891e+05
  -1.247696e+06  -9.254060e+04
  -6.964953e+05  -1.249050e+06
   6.295496e+05  -1.795880e+06
   1.569728e+06  -9.417264e+05
   1.344482e+06   7.891349e+05
   2.489175e+05   1.904316e+06
  -7.596300e+05   1.411823e+06
  -9.965680e+05  -1.427568e+05
  -5.103062e+05  -1.256244e+06
   1.829319e+05  -1.056466e+06
   5.884887e+05  -1.156827e+05
   5.264113e+05   4.000446e+05
   2.008866e+05   1.543517e+05
   4.009201e+04  -1.106001e+05
   2.683971e+05   2.868198e+05
   5.485926e+05   1.006082e+06
   2.554014e+05   1.149279e+06
  -7.160023e+05   4.436601e+05
  -1.581385e+06  -4.625716e+05
  -1.406710e+06  -8.631663e+05
  -2.168787e+05  -7.328342e+05
   9.201892e+05  -4.599244e+05
   1.051566e+06  -2.239135e+05
   3.665344e+05   3.182684e+04
  -1.577464e+05   2.386379e+05
  -6.704636e+03   2.348436e+05
   3.110324e+05   1.141139e+05
   4.530895e+04   1.424457e+05
  -7.269910e+05   2.516535e+05
  -1.107589e+06   2.235729e+03
  -4.352152e+05  -7.164991e+05
   8.909492e+05  -1.249261e+06
   1.766869e+06  -8.230945e+05
   1.473517e+06   4.369043e+05
   3.131850e+05   1.489910e+06
  -7.760202e+05   1.470632e+06
  -1.100840e+06   5.780647e+05
  -7.037891e+05  -2.474461e+05
  -1.389440e+05  -3.769617e+05
   9.343384e+04  -5.499721e+04
  -8.013807e+04   3.744334e+04
  -3.395884e+05  -3.784436e+05
  -2.891157e+05  -8.543539e+05
   1.803604e+05  -7.187578e+05
   7.282590e+05   1.301668e+05
   7.898192e+05   1.006204e+06
   1.224808e+05   1.085497e+06
  -8.027968e+05   2.580113e+05
  -1.105355e+06  -7.577194e+05
  -3.823798e+05  -1.144675e+06
   7.417479e+05  -7.205977e+05
   1.178357e+06   5.721004e+04
   5.691651e+05   6.226666e+05
  -2.853273e+05   7.089205e+05
  -3.778818e+05   3.969628e+05
   2.793856e+05   1.240876e+04
   6.931642e+05  -5.398370e+04
   1.576764e+05   3.190181e+05
  -8.602836e+05   7.421611e+05
  -1.310334e+06   6.182823e+05
  -7.973799e+05  -1.534819e+05
   8.202100e+04  -9.170875e+05
   5.490231e+05  -9.168236e+05
   4.286975e+05  -1.725472e+05
   5.873676e+04   5.126980e+05
  -2.449037e+05   4.584611e+05
  -3.759081e+05  -1.623938e+05
  -2.813525e+05  -6.066573e+05
   4.725317e+04  -4.404113e+05
   4.140397e+05   4.429948e+04
   5.077167e+05   2.749475e+05
   2.610003e+05   8.689008e+04
  -3.435971e+04  -1.457933e+05
  -9.254554e+04  -1.997967e+04
  -6.836026e+02   3.806730e+05
  -6.531143e+04   5.638507e+05
  -3.373566e+05   2.117578e+05
  -4.734160e+05  -4.046348e+05
  -1.568146e+05  -6.811631e+05
   4.313172e+05  -3.358795e+05
   7.011897e+05   2.875564e+05
   2.756978e+05   6.068641e+05
  -5.249846e+05   3.994639e+05
  -9.292253e+05  -6.289355e+04
  -5.134858e+05  -3.883935e+05
   2.998002e+05  -4.214350e+05
   6.659094e+05  -2.458832e+05
   2.537864e+05  -2.595811e+04
  -3.781935e+05   6.695442e+04
  -4.364700e+05  -7.352472e+04
   1.849508e+05  -3.194779e+05
   8.011198e+05  -3.022894e+05
