
 $NMID
 id='ANONYMOUS ', fmtdat='(2E16.6)'
 volume=1.0
 tramp=1.0
 $END
   1.974671e+07  -1.790491e+06
   1.365408e+07   9.556589e+06
  -2.088424e+04   1.311830e+07
  -8.556959e+06   7.716315e+06
  -6.724060e+06  -1.425156e+05
  -2.670746e+04  -3.529625e+06
   3.758475e+06  -1.118728e+06
   2.415938e+06   3.162417e+06
  -1.147980e+06   4.652745e+06
  -3.474127e+06   1.975632e+06
  -3.095169e+06  -2.155220e+06
  -6.615633e+05  -3.633119e+06
   1.608442e+06  -1.066986e+06
   1.481118e+06   2.649864e+06
  -9.824055e+05   3.384335e+06
  -3.103106e+06   2.588619e+05
  -2.393285e+06  -3.604326e+06
   7.110767e+05  -4.701357e+06
   3.504965e+06  -2.551959e+06
   3.915244e+06   6.201590e+05
   2.193382e+06   2.528520e+06
   2.079546e+05   2.570350e+06
  -3.484334e+05   1.691181e+06
   5.804827e+05   1.263330e+06
   1.263738e+06   1.828180e+06
  -7.216541e+04   2.516213e+06
  -2.908036e+06   1.960500e+06
  -4.482738e+06   2.230536e+04
  -2.899721e+06  -1.806605e+06
   3.830645e+05  -2.025507e+06
   2.126804e+06  -7.297657e+05
   1.039318e+06   7.054396e+05
  -1.119225e+06   1.071991e+06
  -2.025139e+06   1.353114e+05
  -1.225648e+06  -1.401906e+06
   1.341851e+05  -2.236116e+06
   9.310249e+05  -1.387770e+06
   8.253854e+05   4.952511e+05
   1.517264e+05   1.331224e+06
  -2.968220e+05   3.690601e+04
   1.520316e+05  -1.704456e+06
   1.121902e+06  -1.350103e+06
   1.260833e+06   9.779608e+05
  -1.364292e+05   2.344612e+06
  -1.878571e+06   7.941661e+05
  -1.958200e+06  -2.035956e+06
   1.194618e+05  -2.988550e+06
   2.610448e+06  -1.163079e+06
   3.250178e+06   1.443087e+06
   1.431430e+06   2.530932e+06
  -1.300451e+06   1.640674e+06
  -2.662075e+06  -9.252779e+04
  -1.634883e+06  -1.264683e+06
   6.158853e+05  -1.136998e+06
   1.852985e+06  -4.029836e+04
   1.051752e+06   8.532024e+05
  -5.457251e+05   6.348395e+05
  -9.681909e+05  -2.993014e+05
   1.075080e+05  -7.095503e+05
   1.082981e+06  -5.999496e+04
   5.361592e+05   8.755755e+05
  -1.055330e+06   1.031346e+06
  -1.981084e+06   1.569278e+05
  -1.221327e+06  -1.204020e+06
   6.800592e+05  -2.249089e+06
   2.345996e+06  -2.202558e+06
   2.748332e+06  -7.298134e+05
   1.842611e+06   1.429146e+06
   4.596823e+05   2.724899e+06
  -4.117910e+05   2.318991e+06
  -4.866864e+05   1.072141e+06
  -3.531746e+05   4.439787e+05
  -6.698823e+05   6.469182e+05
  -1.317610e+06   5.954094e+05
  -1.553542e+06  -3.572830e+05
  -9.110754e+05  -1.410205e+06
   2.755313e+05  -1.350272e+06
   1.173615e+06  -8.159597e+04
   1.093675e+06   1.285386e+06
  -1.801975e+04   1.616164e+06
  -1.421794e+06   7.176036e+05
  -2.015054e+06  -6.815726e+05
  -1.307259e+06  -1.612242e+06
   4.573954e+02  -1.612129e+06
   7.521804e+05  -1.030025e+06
   6.983847e+05  -5.886322e+05
   7.056550e+05  -5.689910e+05
   1.434373e+06  -5.270558e+05
   2.257978e+06   9.886692e+04
   1.949426e+06   1.240197e+06
   2.651826e+05   2.181276e+06
  -1.610806e+06   2.195096e+06
  -2.259005e+06   1.146868e+06
  -1.392911e+06  -3.456484e+05
   6.554020e+03  -1.263839e+06
   7.029955e+05  -9.770234e+05
   2.829516e+05   7.646433e+04
  -6.003362e+05   7.054253e+05
  -9.478917e+05   2.593500e+05
  -4.294914e+05  -5.720463e+05
   3.074138e+05  -6.314971e+05
   3.863813e+05   1.566401e+05
  -3.097216e+05   6.310322e+05
  -1.020037e+06  -1.004093e+05
  -9.184469e+05  -1.472255e+06
   1.037870e+05  -2.093078e+06
   1.400453e+06  -1.292019e+06
   2.098153e+06   2.844090e+05
   1.698133e+06   1.454288e+06
   4.627383e+05   1.565378e+06
  -6.828948e+05   8.660619e+05
  -8.966909e+05   1.350266e+05
  -2.710093e+05  -6.723346e+03
   2.304055e+05   3.854942e+05
  -1.139330e+05   6.805257e+05
  -8.959406e+05   3.812236e+05
  -1.081426e+06  -2.943949e+05
  -3.211868e+05  -6.680007e+05
   5.765159e+05  -3.911601e+05
   5.826052e+05   1.903091e+05
  -3.700058e+05   4.505754e+05
  -1.304712e+06   9.202781e+04
  -1.215710e+06  -6.519234e+05
  -6.105638e+04  -1.220166e+06
   1.203908e+06  -1.108978e+06
   1.519484e+06  -2.993159e+05
   7.019530e+05   5.864467e+05
  -3.999092e+05   7.701028e+05
  -7.425739e+05   1.452484e+05
  -1.018512e+05  -5.255563e+05
   7.704957e+05  -4.426980e+05
   9.720236e+05   3.040839e+05
   3.413771e+05   8.689964e+05
  -4.737882e+05   6.649511e+05
  -7.193236e+05  -3.685150e+03
  -2.491683e+05  -3.727913e+05
   3.716231e+05  -7.881553e+04
   4.156991e+05   5.233797e+05
  -2.785622e+05   7.757489e+05
  -1.074550e+06   3.407213e+05
  -1.128395e+06  -5.048956e+05
  -2.906501e+05  -1.095113e+06
   6.805205e+05  -9.488776e+05
   9.150665e+05  -2.213804e+05
   3.482926e+05   4.299361e+05
  -3.008691e+05   4.887471e+05
  -3.920261e+05   6.786063e+04
   1.235613e+03  -2.874123e+05
   3.257327e+05  -2.295703e+05
   2.164373e+05   4.899535e+04
  -1.662183e+05   9.961474e+04
  -3.485996e+05  -2.401335e+05
  -8.411285e+03  -6.327522e+05
   6.870230e+05  -5.619138e+05
   1.147219e+06   1.265801e+05
   8.699648e+05   9.926553e+05
  -2.145725e+04   1.350221e+06
  -8.347534e+05   9.071389e+05
  -9.971929e+05   5.577043e+04
  -6.136818e+05  -5.170755e+05
  -2.393446e+05  -5.020298e+05
  -1.903711e+05  -2.026042e+05
  -2.532792e+05  -1.137153e+05
  -6.163213e+04  -3.496093e+05
   4.112395e+05  -5.435618e+05
   7.962301e+05  -2.881388e+05
   6.758655e+05   3.698994e+05
  -2.802548e+04   8.896238e+05
  -9.054991e+05   7.155405e+05
  -1.282154e+06  -1.553894e+05
  -7.540701e+05  -1.083039e+06
   3.785515e+05  -1.325147e+06
   1.287584e+06  -7.211521e+05
   1.348910e+06   1.789047e+05
   6.946930e+05   6.846963e+05
  -6.877837e+03   6.226570e+05
  -2.589091e+05   3.893705e+05
  -1.410505e+05   4.090136e+05
  -7.031923e+04   6.430146e+05
  -2.955490e+05   6.716898e+05
  -6.551720e+05   2.049611e+05
  -7.562094e+05  -5.470517e+05
  -3.698085e+05  -1.020599e+06
   2.948121e+05  -8.123815e+05
   7.113869e+05  -6.747091e+04
   5.170633e+05   6.307523e+05
  -9.622561e+04   7.708822e+05
  -5.451863e+05   3.390489e+05
  -4.580304e+05  -2.367196e+05
  -5.089275e+04  -5.269264e+05
   1.627917e+05  -4.586524e+05
  -1.233120e+04  -2.697387e+05
  -2.327181e+05  -1.903931e+05
  -3.532791e+04  -2.175918e+05
   5.859813e+05  -1.711458e+05
   1.093036e+06   8.282167e+04
   9.237074e+05   4.693145e+05
   9.500997e+04   7.372751e+05
  -7.536166e+05   6.633829e+05
  -9.639460e+05   2.687511e+05
  -4.952751e+05  -1.546994e+05
   8.998905e+04  -2.824102e+05
   2.557128e+05  -7.068488e+04
   5.483774e+03   1.827403e+05
  -2.607798e+05   1.456373e+05
  -2.679865e+05  -1.717109e+05
  -1.073559e+05  -4.072664e+05
  -1.516525e+04  -2.658830e+05
  -7.719155e+04   9.842304e+04
  -1.853518e+05   2.233461e+05
  -1.696411e+05  -1.102522e+05
   6.957272e+04  -5.676070e+05
   4.496700e+05  -6.063708e+05
   6.711776e+05  -1.048363e+05
   4.321267e+05   4.743209e+05
  -1.868604e+05   5.849235e+05
  -6.398022e+05   1.738180e+05
  -4.163051e+05  -3.065163e+05
   3.451776e+05  -3.948408e+05
   9.022149e+05  -4.295765e+04
   6.647848e+05   4.171645e+05
  -1.683658e+05   6.099015e+05
  -8.191179e+05   4.056282e+05
  -7.380004e+05  -1.136472e+04
  -1.251135e+05  -2.907411e+05
   3.387755e+05  -2.017167e+05
   2.032229e+05   1.289426e+05
  -3.303916e+05   2.825620e+05
  -6.507847e+05  -4.311993e+04
  -3.629733e+05  -6.501942e+05
   3.242922e+05  -9.420997e+05
   8.180770e+05  -5.065244e+05
   7.210270e+05   3.949734e+05
   1.707644e+05   9.994601e+05
  -3.629694e+05   7.759734e+05
  -5.294550e+05  -2.775352e+04
  -3.209028e+05  -6.393435e+05
   3.748716e+04  -5.711966e+05
   2.937951e+05  -8.710644e+04
   3.074269e+05   1.989169e+05
   1.343080e+05   8.076376e+04
   8.383933e+03  -6.632043e+04
   1.111355e+05   1.293478e+05
   2.986674e+05   5.072985e+05
   1.927632e+05   5.992639e+05
  -3.298051e+05   2.529185e+05
  -8.453178e+05  -2.046948e+05
  -7.859755e+05  -4.161539e+05
  -1.335232e+05  -3.723203e+05
   4.963909e+05  -2.616275e+05
   5.539156e+05  -1.523022e+05
   1.705679e+05  -4.664100e+03
  -8.712066e+04   1.276140e+05
   3.153541e+04   1.357439e+05
   1.969050e+05   6.614954e+04
   1.473402e+04   7.526152e+04
  -4.085329e+05   1.381456e+05
  -5.756562e+05   1.561920e+04
  -1.969308e+05  -3.640036e+05
   4.706530e+05  -6.563442e+05
   8.879615e+05  -4.428131e+05
   7.427202e+05   2.193435e+05
   1.822749e+05   7.791550e+05
  -3.681090e+05   7.730275e+05
  -5.640191e+05   3.030440e+05
  -3.780792e+05  -1.312836e+05
  -6.695652e+04  -1.938785e+05
   7.552165e+04  -1.458366e+04
  -2.926577e+04   4.099007e+04
  -1.985522e+05  -1.798495e+05
  -1.815216e+05  -4.386421e+05
   8.553888e+04  -3.734230e+05
   3.907994e+05   7.263367e+04
   4.171186e+05   5.316467e+05
   5.219019e+04   5.650826e+05
  -4.355791e+05   1.237072e+05
  -5.855274e+05  -4.026732e+05
  -2.020997e+05  -5.913574e+05
   3.808525e+05  -3.691532e+05
   6.027384e+05   1.735508e+04
   2.903397e+05   2.953509e+05
  -1.355219e+05   3.482531e+05
  -1.653446e+05   2.061923e+05
   1.742174e+05   9.677784e+03
   3.684467e+05  -3.728742e+04
   7.847090e+04   1.595032e+05
  -4.351199e+05   4.082919e+05
  -6.484193e+05   3.665764e+05
  -3.913863e+05  -4.649073e+04
   2.872414e+04  -4.708026e+05
   2.473255e+05  -4.765856e+05
   1.959877e+05  -7.619801e+04
   2.693099e+04   2.793472e+05
  -1.260493e+05   2.299056e+05
  -2.031780e+05  -1.018344e+05
  -1.544552e+05  -3.131743e+05
   2.514986e+04  -2.097339e+05
   2.172815e+05   2.607714e+04
   2.606564e+05   1.183329e+05
   1.364361e+05   2.577013e+04
  -6.834646e+03  -5.768639e+04
  -4.472043e+04   3.027224e+04
  -2.529085e+04   2.176599e+05
  -7.388001e+04   2.740453e+05
  -1.920824e+05   7.425072e+04
  -2.254725e+05  -2.348994e+05
  -5.152737e+04  -3.611633e+05
   2.329544e+05  -1.722377e+05
   3.566926e+05   1.556280e+05
   1.430930e+05   3.230824e+05
  -2.602682e+05   2.135696e+05
  -4.732088e+05  -2.872808e+04
  -2.680941e+05  -1.951467e+05
   1.509172e+05  -2.075084e+05
   3.395229e+05  -1.174673e+05
   1.138635e+05  -1.212617e+04
  -2.250853e+05   2.503968e+04
  -2.429094e+05  -5.682477e+04
   1.111661e+05  -1.888386e+05
   4.496075e+05  -1.746762e+05
