
 $NMID
 id='ANONYMOUS ', fmtdat='(2E16.6)'
 volume=1.0
 tramp=1.0
 $END
  -3.482821e+07  -1.177929e+06
  -2.104432e+07  -1.987617e+07
   3.429558e+06  -2.256500e+07
   1.624476e+07  -1.089745e+07
   1.091194e+07   1.987029e+06
  -9.470652e+05   5.815287e+06
  -6.340565e+06   8.417203e+05
  -3.132181e+06  -5.747893e+06
   2.874883e+06  -7.292560e+06
   6.142928e+06  -2.448211e+06
   4.843114e+06   4.235324e+06
   5.168194e+05   6.246028e+06
  -2.952729e+06   1.584287e+06
  -2.132406e+06  -4.602845e+06
   2.197829e+06  -5.374373e+06
   5.234555e+06   2.646133e+05
   3.301418e+06   6.592972e+06
  -2.173314e+06   7.838963e+06
  -6.552130e+06   3.696836e+06
  -6.739014e+06  -1.828483e+06
  -3.413180e+06  -4.952203e+06
   2.405545e+05  -4.736767e+06
   1.264226e+06  -2.863257e+06
  -5.093781e+05  -1.895979e+06
  -1.933666e+06  -2.904475e+06
   2.625801e+05  -4.172921e+06
   5.106455e+06  -3.073467e+06
   7.653958e+06   4.756151e+05
   4.744691e+06   3.534592e+06
  -8.734551e+05   3.563345e+06
  -3.714476e+06   1.150489e+06
  -1.850390e+06  -1.195322e+06
   1.706477e+06  -1.712678e+06
   3.247428e+06  -2.095468e+05
   2.013829e+06   2.301331e+06
  -3.047024e+05   3.762052e+06
  -1.801221e+06   2.345198e+06
  -1.577579e+06  -9.793942e+05
  -1.588918e+05  -2.492621e+06
   7.067700e+05  -2.100217e+05
  -2.753273e+05   2.810214e+06
  -2.011066e+06   2.086434e+06
  -1.875224e+06  -1.903392e+06
   8.636874e+05  -3.867610e+06
   3.532318e+06  -7.525469e+05
   2.918076e+06   4.066081e+06
  -9.576612e+05   5.126853e+06
  -4.763175e+06   1.467262e+06
  -5.204496e+06  -2.991557e+06
  -1.927576e+06  -4.411728e+06
   2.402030e+06  -2.462585e+06
   4.320214e+06   5.855726e+05
   2.413699e+06   2.314284e+06
  -1.286054e+06   1.702441e+06
  -3.101312e+06  -3.328892e+05
  -1.543169e+06  -1.638876e+06
   1.070281e+06  -9.475940e+05
   1.524047e+06   6.373124e+05
  -3.356195e+05   1.011201e+06
  -1.671466e+06  -2.562077e+05
  -4.472346e+05  -1.546847e+06
   2.144315e+06  -1.353183e+06
   3.322258e+06   2.600653e+05
   1.754632e+06   2.308233e+06
  -1.499106e+06   3.745197e+06
  -4.245944e+06   3.469169e+06
  -4.795858e+06   8.982349e+05
  -3.009452e+06  -2.715629e+06
  -4.105331e+05  -4.701978e+06
   1.063500e+06  -3.755713e+06
   9.174000e+05  -1.567037e+06
   4.592382e+05  -6.426740e+05
   1.014853e+06  -1.125442e+06
   2.234015e+06  -1.030134e+06
   2.641443e+06   6.392593e+05
   1.486340e+06   2.398205e+06
  -4.994097e+05   2.235892e+06
  -1.902614e+06   8.595476e+04
  -1.688629e+06  -2.180896e+06
   1.770435e+05  -2.685260e+06
   2.481836e+06  -1.079595e+06
   3.375633e+06   1.388486e+06
   2.034786e+06   2.964135e+06
  -2.748282e+05   2.810488e+06
  -1.518089e+06   1.645507e+06
  -1.318914e+06   8.306789e+05
  -1.247071e+06   7.926068e+05
  -2.422040e+06   6.641975e+05
  -3.715332e+06  -4.522079e+05
  -3.072279e+06  -2.285144e+06
  -1.889456e+05  -3.633477e+06
   2.897855e+06  -3.467922e+06
   3.868892e+06  -1.698321e+06
   2.315578e+06   6.941604e+05
  -9.133856e+04   2.122467e+06
  -1.254786e+06   1.589389e+06
  -4.759127e+05  -1.523050e+05
   1.069453e+06  -1.119598e+06
   1.613152e+06  -3.115217e+05
   6.556984e+05   1.024621e+06
  -5.666222e+05   1.016015e+06
  -5.872250e+05  -2.875619e+05
   5.892549e+05  -9.226863e+05
   1.582768e+06   3.846294e+05
   1.200794e+06   2.519407e+06
  -4.794107e+05   3.285460e+06
  -2.387518e+06   1.825218e+06
  -3.311211e+06  -7.120424e+05
  -2.587289e+06  -2.500545e+06
  -6.078486e+05  -2.578754e+06
   1.200763e+06  -1.365440e+06
   1.492750e+06  -1.453579e+05
   4.448238e+05   3.936712e+04
  -3.350297e+05  -6.640906e+05
   2.888818e+05  -1.113459e+06
   1.547471e+06  -5.080207e+05
   1.741744e+06   6.408632e+05
   4.234575e+05   1.146120e+06
  -1.001518e+06   5.663939e+05
  -9.234779e+05  -3.719996e+05
   6.495221e+05  -6.698350e+05
   2.112293e+06   7.312845e+01
   1.894840e+06   1.169018e+06
  -2.602646e+04   1.972297e+06
  -2.081293e+06   1.681142e+06
  -2.526812e+06   3.254688e+05
  -1.083308e+06  -1.056584e+06
   7.703374e+05  -1.233733e+06
   1.263651e+06  -1.400153e+05
   1.066873e+05   9.008718e+05
  -1.331176e+06   6.442842e+05
  -1.559112e+06  -6.189939e+05
  -4.445540e+05  -1.456565e+06
   8.550847e+05  -1.009207e+06
   1.158863e+06   1.071466e+05
   3.411699e+05   6.375752e+05
  -6.369157e+05   7.441890e+04
  -6.355594e+05  -9.228081e+05
   5.437560e+05  -1.265106e+06
   1.820038e+06  -4.573181e+05
   1.817669e+06   9.567240e+05
   3.576779e+05   1.843653e+06
  -1.234355e+06   1.484315e+06
  -1.527616e+06   2.529486e+05
  -5.109885e+05  -7.450363e+05
   5.536833e+05  -7.620890e+05
   6.451976e+05  -7.499286e+04
  -2.798674e+04   4.521134e+05
  -5.341461e+05   3.401726e+05
  -3.297906e+05  -7.307352e+04
   2.762042e+05  -1.102320e+05
   5.236731e+05   4.438887e+05
  -6.952492e+04   1.035962e+06
  -1.195436e+06   8.469643e+05
  -1.879090e+06  -3.338666e+05
  -1.330975e+06  -1.733918e+06
   1.750231e+05  -2.220868e+06
   1.457675e+06  -1.393739e+06
   1.624234e+06   1.221060e+04
   9.451040e+05   8.823079e+05
   3.631082e+05   8.109363e+05
   3.287898e+05   3.470013e+05
   4.221982e+05   2.388963e+05
   5.951049e+04   5.988580e+05
  -7.356046e+05   8.455424e+05
  -1.329192e+06   3.885926e+05
  -1.066878e+06  -6.600809e+05
   1.311388e+05  -1.438792e+06
   1.555250e+06  -1.077234e+06
   2.089604e+06   3.874483e+05
   1.116343e+06   1.862233e+06
  -7.835091e+05   2.134528e+06
  -2.203650e+06   1.030126e+06
  -2.181673e+06  -4.501119e+05
  -1.046147e+06  -1.182973e+06
   7.337712e+04  -9.933540e+05
   4.363165e+05  -6.078893e+05
   2.502264e+05  -6.852185e+05
   1.847010e+05  -1.080998e+06
   5.740970e+05  -1.085013e+06
   1.114844e+06  -2.655541e+05
   1.195470e+06   9.842098e+05
   5.053297e+05   1.723900e+06
  -5.702363e+05   1.311045e+06
  -1.176615e+06   3.314323e+04
  -7.748371e+05  -1.100259e+06
   2.550953e+05  -1.252118e+06
   9.384781e+05  -4.728958e+05
   7.133249e+05   4.652076e+05
   3.186023e+02   8.752538e+05
  -3.369051e+05   7.198024e+05
  -1.067701e+04   4.299278e+05
   3.723710e+05   3.352372e+05
   4.122244e+04   3.620490e+05
  -9.894084e+05   2.134979e+05
  -1.802571e+06  -2.623331e+05
  -1.469751e+06  -8.790660e+05
  -5.736189e+04  -1.227778e+06
   1.333431e+06  -1.008149e+06
   1.616676e+06  -3.266041e+05
   7.815338e+05   3.225828e+05
  -1.914784e+05   4.596365e+05
  -4.283037e+05   7.909124e+04
   1.130220e+04  -3.160492e+05
   4.397960e+05  -2.204869e+05
   4.259953e+05   3.111962e+05
   1.520435e+05   6.878434e+05
   1.101359e+04   4.482609e+05
   1.281195e+05  -1.466612e+05
   3.101216e+05  -3.468208e+05
   2.673021e+05   1.979029e+05
  -1.606981e+05   9.305012e+05
  -8.071872e+05   9.585292e+05
  -1.142865e+06   1.026776e+05
  -6.818707e+05  -8.384999e+05
   3.777871e+05  -9.595407e+05
   1.092368e+06  -2.280828e+05
   6.604782e+05   5.450182e+05
  -6.110131e+05   6.097343e+05
  -1.479364e+06  -2.528969e+04
  -1.031787e+06  -7.458259e+05
   3.448930e+05  -9.662608e+05
   1.373650e+06  -5.675354e+05
   1.195463e+06   9.578619e+04
   1.713720e+05   4.836502e+05
  -5.767674e+05   2.892938e+05
  -3.234381e+05  -2.421992e+05
   5.728573e+05  -4.443648e+05
   1.078660e+06   1.283353e+05
   5.492454e+05   1.113518e+06
  -6.193631e+05   1.536924e+06
  -1.399600e+06   7.670364e+05
  -1.153085e+06  -7.188167e+05
  -1.852886e+05  -1.662336e+06
   6.704265e+05  -1.234968e+06
   8.609914e+05   1.058343e+05
   4.545829e+05   1.080839e+06
  -1.266557e+05   9.231523e+05
  -4.936838e+05   1.067907e+05
  -4.798058e+05  -3.509138e+05
  -2.058003e+05  -1.373141e+05
  -2.223816e+04   1.024412e+05
  -1.795693e+05  -2.410107e+05
  -4.441304e+05  -8.728226e+05
  -2.465580e+05  -9.964781e+05
   5.810408e+05  -3.718399e+05
   1.370350e+06   4.204315e+05
   1.242115e+06   7.566191e+05
   1.801157e+05   6.281727e+05
  -8.348510e+05   3.894825e+05
  -9.217908e+05   1.945427e+05
  -2.858020e+05  -2.069271e+04
   1.533440e+05  -2.048667e+05
  -3.107484e+04  -2.126343e+05
  -3.110343e+05  -1.135399e+05
  -2.271400e+04  -1.287594e+05
   6.777596e+05  -2.017250e+05
   9.560263e+05   2.849845e+04
   3.059353e+05   6.347746e+05
  -8.349369e+05   1.052131e+06
  -1.523785e+06   6.466582e+05
  -1.224398e+06  -4.382702e+05
  -2.308298e+05  -1.305042e+06
   6.895394e+05  -1.242189e+06
   9.671425e+05  -4.537299e+05
   6.148323e+05   2.457675e+05
   9.702430e+04   3.310435e+05
  -1.205063e+05   3.145008e+04
   5.067371e+04  -5.385890e+04
   3.020962e+05   3.164601e+05
   2.514712e+05   7.393633e+05
  -1.777961e+05   6.128110e+05
  -6.418562e+05  -1.487712e+05
  -6.493194e+05  -9.160779e+05
  -4.303479e+04  -9.485963e+05
   7.319110e+05  -1.779000e+05
   9.386104e+05   7.140010e+05
   2.835490e+05   1.002127e+06
  -6.687982e+05   5.827945e+05
  -1.002229e+06  -8.768489e+04
  -4.525887e+05  -5.289545e+05
   2.657805e+05  -5.728218e+05
   3.051905e+05  -3.208567e+05
  -2.783863e+05  -2.152991e+04
  -6.105150e+05   2.963692e+04
  -1.165592e+05  -2.754901e+05
   7.575171e+05  -6.303077e+05
   1.110583e+06  -5.278576e+05
   6.468923e+05   1.305216e+05
  -9.533578e+04   7.796077e+05
  -4.672189e+05   7.612270e+05
  -3.469152e+05   1.076665e+05
  -2.604584e+04  -4.632280e+05
   2.321871e+05  -3.748119e+05
   3.313904e+05   1.777880e+05
   2.265952e+05   5.329513e+05
  -6.504950e+04   3.546039e+05
  -3.596209e+05  -6.028121e+04
  -4.180011e+05  -2.298740e+05
  -2.189294e+05  -6.187778e+04
   5.613605e+03   1.069158e+05
   6.664835e+04  -2.978629e+04
   4.535254e+04  -3.597422e+05
   1.364665e+05  -4.687643e+05
   3.299254e+05  -1.257899e+05
   3.702581e+05   4.067393e+05
   6.859820e+04   6.114318e+05
  -3.996818e+05   2.702683e+05
  -5.852766e+05  -2.892280e+05
  -2.130619e+05  -5.470636e+05
   4.545842e+05  -3.274763e+05
   7.880420e+05   9.249518e+04
   4.272877e+05   3.500965e+05
  -2.743489e+05   3.356525e+05
  -5.809291e+05   1.684651e+05
  -1.978123e+05   5.581849e+03
   3.689257e+05  -3.436291e+04
   3.987368e+05   1.038017e+05
  -1.890249e+05   3.004855e+05
  -7.456564e+05   2.550202e+05
