
 $NMID
 id='ANONYMOUS ', fmtdat='(2E16.6)'
 volume=1.0
 tramp=1.0
 $END
  -2.935853e+07   7.062031e+05
  -1.937091e+07  -1.440351e+07
   5.812135e+05  -1.885129e+07
   1.272342e+07  -1.144367e+07
   1.002522e+07  -3.138311e+05
   2.130259e+05   5.125769e+06
  -5.627467e+06   2.017574e+06
  -3.870628e+06  -4.635429e+06
   1.560907e+06  -7.323331e+06
   5.258681e+06  -3.152781e+06
   4.625983e+06   3.534334e+06
   7.616155e+05   5.766917e+06
  -2.648429e+06   1.418851e+06
  -2.259240e+06  -4.502796e+06
   1.567180e+06  -5.454926e+06
   4.710027e+06  -4.095662e+05
   3.518108e+06   5.566401e+06
  -1.271072e+06   7.094583e+06
  -5.459596e+06   3.556732e+06
  -5.782094e+06  -1.411816e+06
  -2.793095e+06  -4.056503e+06
   1.939198e+05  -3.592508e+06
   4.694124e+05  -2.063055e+06
  -1.473524e+06  -1.883313e+06
  -2.361377e+06  -3.354496e+06
   3.581169e+05  -4.397060e+06
   5.146655e+06  -2.942143e+06
   7.359577e+06   5.190505e+05
   4.353889e+06   3.265245e+06
  -1.130602e+06   3.196943e+06
  -3.811974e+06   8.121079e+05
  -1.688409e+06  -1.604095e+06
   2.208207e+06  -2.052648e+06
   3.758703e+06  -1.351000e+05
   2.067123e+06   2.683714e+06
  -5.702474e+05   3.868205e+06
  -1.747837e+06   2.002027e+06
  -1.055701e+06  -1.192259e+06
   2.353483e+05  -2.131200e+06
   6.009876e+05   3.560877e+05
  -4.644965e+05   3.067415e+06
  -1.908837e+06   2.216795e+06
  -1.924687e+06  -1.480397e+06
   1.154138e+05  -3.438255e+06
   2.513181e+06  -1.030907e+06
   2.623676e+06   3.085754e+06
  -3.182932e+05   4.336694e+06
  -4.016448e+06   1.526438e+06
  -5.082970e+06  -2.410818e+06
  -2.294923e+06  -4.067777e+06
   2.091568e+06  -2.658015e+06
   4.330911e+06   1.178821e+05
   2.693918e+06   1.980994e+06
  -8.911132e+05   1.742016e+06
  -2.838132e+06   2.997838e+04
  -1.609330e+06  -1.292155e+06
   8.552935e+05  -9.282613e+05
   1.582726e+06   4.858769e+05
   8.058578e+03   1.180274e+06
  -1.599263e+06   3.488752e+05
  -1.013954e+06  -1.039861e+06
   1.334075e+06  -1.466773e+06
   2.911741e+06  -3.263707e+05
   1.835767e+06   1.781009e+06
  -1.283795e+06   3.496885e+06
  -4.051507e+06   3.355466e+06
  -4.512835e+06   8.719537e+05
  -2.738031e+06  -2.539549e+06
  -4.676888e+05  -4.421505e+06
   6.834180e+05  -3.706405e+06
   6.601384e+05  -1.862175e+06
   6.344567e+05  -9.848952e+05
   1.421391e+06  -1.196867e+06
   2.508263e+06  -8.379417e+05
   2.692025e+06   9.065387e+05
   1.411531e+06   2.627749e+06
  -6.627419e+05   2.374281e+06
  -2.125295e+06   7.267461e+04
  -1.838296e+06  -2.302730e+06
   1.656832e+05  -2.746324e+06
   2.460583e+06  -1.023307e+06
   3.211286e+06   1.379032e+06
   1.868020e+06   2.727114e+06
  -2.061752e+05   2.469895e+06
  -1.226401e+06   1.456900e+06
  -1.033693e+06   8.680125e+05
  -1.101372e+06   9.496708e+05
  -2.375745e+06   8.660778e+05
  -3.741335e+06  -2.300071e+05
  -3.197267e+06  -2.140009e+06
  -3.491773e+05  -3.668687e+06
   2.836347e+06  -3.612206e+06
   3.911223e+06  -1.768237e+06
   2.327367e+06   7.474706e+05
  -1.640836e+05   2.181676e+06
  -1.316727e+06   1.580234e+06
  -4.679361e+05  -1.840575e+05
   1.081934e+06  -1.145502e+06
   1.587138e+06  -3.609167e+05
   6.379589e+05   9.835771e+05
  -5.833527e+05   1.050661e+06
  -6.923892e+05  -2.635019e+05
   4.447233e+05  -1.105259e+06
   1.650057e+06   2.413741e+04
   1.602289e+06   2.327959e+06
  -1.541288e+04   3.521963e+06
  -2.259546e+06   2.301289e+06
  -3.574724e+06  -4.047277e+05
  -2.933283e+06  -2.506641e+06
  -7.684440e+05  -2.711757e+06
   1.212799e+06  -1.443078e+06
   1.538338e+06  -1.691346e+05
   4.545335e+05   2.413699e+04
  -3.697849e+05  -6.597852e+05
   2.142795e+05  -1.111416e+06
   1.486964e+06  -5.785199e+05
   1.770480e+06   5.205114e+05
   5.119159e+05   1.104909e+06
  -9.814281e+05   6.363585e+05
  -1.005440e+06  -3.407419e+05
   6.068425e+05  -7.954056e+05
   2.232836e+06  -1.787337e+05
   2.104751e+06   1.128404e+06
   1.066676e+05   2.104113e+06
  -2.075620e+06   1.860333e+06
  -2.577273e+06   4.485518e+05
  -1.139927e+06  -1.002110e+06
   7.075842e+05  -1.237367e+06
   1.219900e+06  -1.849818e+05
   1.150445e+05   8.766967e+05
  -1.315452e+06   6.961711e+05
  -1.618733e+06  -5.411436e+05
  -5.635248e+05  -1.464295e+06
   7.920379e+05  -1.120358e+06
   1.207678e+06  -1.336888e+03
   4.245193e+05   6.189158e+05
  -6.136117e+05   1.150625e+05
  -6.687179e+05  -9.028986e+05
   5.178976e+05  -1.295410e+06
   1.836575e+06  -5.137060e+05
   1.873342e+06   9.129505e+05
   4.345632e+05   1.852384e+06
  -1.177566e+06   1.558998e+06
  -1.538206e+06   3.391616e+05
  -5.731414e+05  -7.289553e+05
   5.230349e+05  -8.135286e+05
   6.850395e+05  -9.491467e+04
   9.490140e+03   5.205059e+05
  -5.823103e+05   4.203426e+05
  -4.282689e+05  -8.725591e+04
   2.389704e+05  -2.074309e+05
   5.855917e+05   3.705223e+05
   1.698738e+04   1.051756e+06
  -1.168589e+06   9.238760e+05
  -1.927005e+06  -2.581601e+05
  -1.419342e+06  -1.710626e+06
   9.611987e+04  -2.282495e+06
   1.445387e+06  -1.518192e+06
   1.703445e+06  -7.763300e+04
   1.057476e+06   9.104644e+05
   4.105620e+05   9.122335e+05
   2.913058e+05   3.953557e+05
   3.815777e+05   1.979866e+05
   7.953443e+04   5.674026e+05
  -6.989856e+05   9.041480e+05
  -1.356635e+06   4.795380e+05
  -1.157945e+06  -6.485254e+05
   5.446174e+04  -1.527724e+06
   1.555323e+06  -1.195661e+06
   2.169431e+06   3.068918e+05
   1.242194e+06   1.850550e+06
  -6.698963e+05   2.209797e+06
  -2.177143e+06   1.173800e+06
  -2.273251e+06  -3.269925e+05
  -1.184654e+06  -1.172881e+06
   5.111437e+03  -1.081863e+06
   4.714841e+05  -6.882411e+05
   3.070539e+05  -6.926511e+05
   1.808380e+05  -1.056976e+06
   5.272356e+05  -1.093603e+06
   1.101173e+06  -3.036294e+05
   1.244219e+06   9.634196e+05
   5.730196e+05   1.742914e+06
  -5.404197e+05   1.358523e+06
  -1.206022e+06   8.747201e+04
  -8.488296e+05  -1.072040e+06
   1.747836e+05  -1.287943e+06
   9.011588e+05  -5.682182e+05
   7.481703e+05   3.778674e+05
   8.580179e+04   8.599198e+05
  -2.570041e+05   7.627089e+05
   2.710759e+04   4.666734e+05
   3.794661e+05   3.404407e+05
   4.736827e+04   3.726480e+05
  -9.813650e+05   2.653253e+05
  -1.820958e+06  -1.841866e+05
  -1.534670e+06  -8.210188e+05
  -1.451967e+05  -1.226607e+06
   1.277361e+06  -1.070970e+06
   1.624865e+06  -4.231146e+05
   8.294916e+05   2.513761e+05
  -1.555302e+05   4.549922e+05
  -4.230257e+05   1.188458e+05
   1.187557e+04  -2.909530e+05
   4.560603e+05  -2.299919e+05
   4.397771e+05   3.025655e+05
   1.412810e+05   7.029625e+05
  -8.043126e+03   4.556208e+05
   1.326841e+05  -1.797016e+05
   3.364645e+05  -3.941040e+05
   2.878223e+05   1.887909e+05
  -1.502397e+05   9.663789e+05
  -7.865308e+05   1.000836e+06
  -1.116001e+06   1.262355e+05
  -6.819693e+05  -8.277888e+05
   3.472479e+05  -9.578714e+05
   1.077352e+06  -2.384797e+05
   6.864010e+05   5.444282e+05
  -5.930900e+05   6.536149e+05
  -1.531476e+06   4.719876e+04
  -1.132948e+06  -7.203815e+05
   2.838562e+05  -1.035857e+06
   1.399919e+06  -6.823632e+05
   1.263286e+06   3.039560e+04
   2.113913e+05   4.996206e+05
  -5.768105e+05   3.354792e+05
  -3.284981e+05  -2.225460e+05
   5.854369e+05  -4.537323e+05
   1.099838e+06   1.216447e+05
   5.634008e+05   1.129855e+06
  -6.198600e+05   1.572794e+06
  -1.421765e+06   8.032942e+05
  -1.200101e+06  -7.111070e+05
  -2.389639e+05  -1.703832e+06
   6.481734e+05  -1.307643e+06
   8.957021e+05   5.627304e+04
   5.280693e+05   1.091819e+06
  -6.874018e+04   9.724869e+05
  -4.944419e+05   1.411253e+05
  -5.263470e+05  -3.516832e+05
  -2.403973e+05  -1.452997e+05
  -1.040603e+04   1.150518e+05
  -1.572940e+05  -2.184815e+05
  -4.716251e+05  -8.701445e+05
  -3.169852e+05  -1.022874e+06
   5.478445e+05  -4.110518e+05
   1.423949e+06   3.866159e+05
   1.328333e+06   7.375755e+05
   2.101156e+05   6.319561e+05
  -8.682481e+05   4.205721e+05
  -9.492973e+05   2.387261e+05
  -2.736048e+05   6.555603e+03
   1.602785e+05  -2.108810e+05
  -6.752916e+04  -2.360175e+05
  -3.527813e+05  -1.280515e+05
  -1.428595e+04  -1.315970e+05
   7.212598e+05  -2.107518e+05
   9.739873e+05   9.502242e+03
   2.848029e+05   6.291073e+05
  -8.515652e+05   1.078185e+06
  -1.514680e+06   6.856065e+05
  -1.222869e+06  -4.258898e+05
  -2.610941e+05  -1.332477e+06
   6.586444e+05  -1.281233e+06
   9.726708e+05  -4.704205e+05
   6.387306e+05   2.521509e+05
   9.492918e+04   3.335716e+05
  -1.482484e+05   1.318058e+04
   4.231891e+04  -7.985731e+04
   3.346488e+05   3.067418e+05
   2.920254e+05   7.502373e+05
  -1.698852e+05   6.241984e+05
  -6.645310e+05  -1.562699e+05
  -6.685092e+05  -9.375112e+05
  -3.600224e+04  -9.612811e+05
   7.590546e+05  -1.698677e+05
   9.662547e+05   7.310336e+05
   2.975152e+05   1.012713e+06
  -6.700385e+05   5.908151e+05
  -1.010705e+06  -6.902528e+04
  -4.621361e+05  -5.049530e+05
   2.504190e+05  -5.650394e+05
   2.768419e+05  -3.327702e+05
  -3.119748e+05  -2.831502e+04
  -6.302596e+05   4.186061e+04
  -1.177031e+05  -2.718630e+05
   7.573514e+05  -6.695298e+05
   1.099090e+06  -5.946778e+05
   6.394769e+05   9.009926e+04
  -7.710186e+04   7.881903e+05
  -4.306391e+05   7.824411e+05
  -3.213295e+05   1.024213e+05
  -2.308926e+04  -4.827940e+05
   2.307456e+05  -3.736157e+05
   3.424072e+05   1.980022e+05
   2.419899e+05   5.391911e+05
  -6.115608e+04   3.403988e+05
  -3.669038e+05  -6.290899e+04
  -4.265977e+05  -2.050288e+05
  -2.269568e+05  -4.146349e+04
  -1.967301e+03   8.786026e+04
   7.145990e+04  -7.342540e+04
   7.374447e+04  -3.813869e+05
   1.739296e+05  -4.493904e+05
   3.448336e+05  -8.920489e+04
   3.521129e+05   4.325094e+05
   4.065326e+04   6.222137e+05
  -4.129828e+05   2.726937e+05
  -5.868517e+05  -2.953797e+05
  -2.178422e+05  -5.624224e+05
   4.479161e+05  -3.436582e+05
   7.913546e+05   8.380575e+04
   4.381258e+05   3.464582e+05
  -2.695619e+05   3.309578e+05
  -5.798471e+05   1.644307e+05
  -1.814510e+05   8.903192e+03
   4.020867e+05  -2.094088e+04
   4.181607e+05   1.256859e+05
  -2.103469e+05   3.266453e+05
  -7.932562e+05   2.747217e+05
