
 $NMID
 id='ANONYMOUS ', fmtdat='(2E16.6)'
 volume=1.0
 tramp=1.0
 $END
  -2.924022e+07  -7.805620e+05
  -1.794376e+07  -1.748512e+07
   3.232140e+06  -1.958923e+07
   1.436716e+07  -8.659769e+06
   9.370740e+06   2.632654e+06
  -1.201628e+06   5.082178e+06
  -5.547373e+06   1.085517e+05
  -2.201990e+06  -5.209999e+06
   3.038764e+06  -5.811398e+06
   5.351682e+06  -1.608779e+06
   3.834558e+06   3.560071e+06
   2.454278e+05   4.979169e+06
  -2.325977e+06   1.280380e+06
  -1.405591e+06  -3.577943e+06
   2.150487e+06  -4.116871e+06
   4.397154e+06   4.970344e+05
   2.527221e+06   5.589337e+06
  -2.022237e+06   6.462834e+06
  -5.463482e+06   3.025947e+06
  -5.574434e+06  -1.403080e+06
  -3.031932e+06  -3.981115e+06
  -9.790491e+04  -4.092279e+06
   1.111902e+06  -2.795704e+06
   1.651757e+05  -1.807786e+06
  -9.433122e+05  -2.154905e+06
   3.701088e+05  -2.929381e+06
   3.806982e+06  -2.159879e+06
   5.781390e+06   4.616339e+05
   3.701290e+06   2.751638e+06
  -4.878331e+05   2.692962e+06
  -2.604621e+06   8.634227e+05
  -1.251079e+06  -6.750188e+05
   1.200918e+06  -8.426791e+05
   2.123587e+06   1.155442e+05
   1.236707e+06   1.597657e+06
  -2.571400e+05   2.615803e+06
  -1.300667e+06   1.870526e+06
  -1.314036e+06  -4.629443e+05
  -3.782011e+05  -1.876202e+06
   3.587939e+05  -4.594312e+05
  -3.016529e+05   1.866679e+06
  -1.659169e+06   1.453785e+06
  -1.469007e+06  -1.702584e+06
   9.709398e+05  -3.347850e+06
   3.262235e+06  -7.066989e+05
   2.565351e+06   3.480745e+06
  -8.829408e+05   4.414915e+06
  -3.972159e+06   1.198163e+06
  -4.046775e+06  -2.626739e+06
  -1.235215e+06  -3.646589e+06
   2.091837e+06  -1.769715e+06
   3.359028e+06   8.132982e+05
   1.702230e+06   2.070772e+06
  -1.222500e+06   1.355665e+06
  -2.561730e+06  -4.255197e+05
  -1.193162e+06  -1.464747e+06
   9.239665e+05  -7.621440e+05
   1.138112e+06   6.210346e+05
  -5.215511e+05   7.893217e+05
  -1.505607e+06  -5.198863e+05
  -1.969030e+05  -1.639938e+06
   2.083810e+06  -1.196451e+06
   2.889596e+06   4.327573e+05
   1.391883e+06   2.062835e+06
  -1.240938e+06   2.933152e+06
  -3.307666e+06   2.563626e+06
  -3.710456e+06   6.344321e+05
  -2.345456e+06  -2.088588e+06
  -2.333809e+05  -3.657306e+06
   1.081230e+06  -2.920653e+06
   9.766769e+05  -1.082963e+06
   4.080788e+05  -2.183582e+05
   6.108242e+05  -6.027411e+05
   1.472344e+06  -6.783787e+05
   1.803034e+06   4.439980e+05
   9.692504e+05   1.678225e+06
  -4.149068e+05   1.504740e+06
  -1.294119e+06  -7.954773e+04
  -1.055806e+06  -1.667271e+06
   2.481489e+05  -1.955863e+06
   1.860582e+06  -7.553709e+05
   2.539892e+06   1.076935e+06
   1.587504e+06   2.313139e+06
  -1.943401e+05   2.269703e+06
  -1.248970e+06   1.378876e+06
  -1.161264e+06   6.660144e+05
  -1.084107e+06   5.248178e+05
  -1.917328e+06   3.299315e+05
  -2.809972e+06  -5.771229e+05
  -2.194311e+06  -1.913427e+06
   7.247325e+04  -2.741187e+06
   2.345233e+06  -2.424551e+06
   2.925028e+06  -1.079519e+06
   1.664497e+06   5.668571e+05
  -1.232635e+05   1.509528e+06
  -9.458176e+05   1.115821e+06
  -3.391051e+05  -1.091906e+05
   8.319292e+05  -7.763102e+05
   1.237166e+06  -1.638093e+05
   4.774536e+05   7.935535e+05
  -4.580060e+05   7.099525e+05
  -3.824188e+05  -2.856596e+05
   6.110288e+05  -6.296605e+05
   1.268254e+06   5.436412e+05
   6.810845e+05   2.159068e+06
  -7.886228e+05   2.481252e+06
  -2.079404e+06   1.084744e+06
  -2.416761e+06  -8.936141e+05
  -1.657210e+06  -2.068895e+06
  -2.326976e+05  -1.925087e+06
   9.577484e+05  -9.277006e+05
   1.096105e+06  -2.896671e+04
   3.290974e+05   5.518684e+04
  -2.108120e+05  -5.183728e+05
   2.865240e+05  -8.455705e+05
   1.220375e+06  -3.145645e+05
   1.301997e+06   6.028039e+05
   2.483364e+05   9.182213e+05
  -7.976247e+05   3.599732e+05
  -6.430381e+05  -3.533136e+05
   5.733137e+05  -4.286580e+05
   1.573509e+06   2.059477e+05
   1.275155e+06   1.030141e+06
  -2.020791e+05   1.445259e+06
  -1.668839e+06   1.088980e+06
  -1.904264e+06   7.697550e+04
  -7.607029e+05  -8.672045e+05
   6.433039e+05  -9.113804e+05
   9.798889e+05  -5.734749e+04
   5.525030e+04   6.859213e+05
  -1.034732e+06   4.140204e+05
  -1.134964e+06  -5.715202e+05
  -2.189649e+05  -1.135992e+06
   7.415593e+05  -6.885626e+05
   8.730384e+05   1.907697e+05
   1.975982e+05   5.256565e+05
  -5.016217e+05   2.364940e+04
  -4.319462e+05  -7.264624e+05
   4.681445e+05  -9.137026e+05
   1.375734e+06  -2.447149e+05
   1.303648e+06   8.110023e+05
   1.628555e+05   1.402265e+06
  -1.019981e+06   1.043570e+06
  -1.167893e+06   9.000147e+04
  -3.292751e+05  -6.010258e+05
   4.704247e+05  -5.326601e+05
   4.681250e+05  -8.843176e+03
  -8.102050e+04   3.143450e+05
  -4.138050e+05   1.753153e+05
  -1.867173e+05  -9.648865e+04
   2.649756e+05  -3.852027e+04
   3.709675e+05   4.067535e+05
  -1.347477e+05   7.906123e+05
  -9.560329e+05   5.599845e+05
  -1.385715e+06  -3.650107e+05
  -8.936036e+05  -1.373103e+06
   2.657404e+05  -1.638300e+06
   1.179695e+06  -9.265475e+05
   1.197576e+06   1.384044e+05
   6.031066e+05   7.142772e+05
   1.782097e+05   5.800316e+05
   2.315386e+05   2.283284e+05
   3.411833e+05   1.947968e+05
   2.694174e+04   4.686333e+05
  -6.133861e+05   5.867508e+05
  -1.018323e+06   1.878079e+05
  -7.267490e+05  -5.649357e+05
   2.175201e+05  -1.046112e+06
   1.232702e+06  -6.871779e+05
   1.525642e+06   4.266077e+05
   7.072667e+05   1.470147e+06
  -7.358982e+05   1.561610e+06
  -1.734597e+06   6.293236e+05
  -1.602966e+06  -5.020676e+05
  -6.703889e+05  -9.695622e+05
   1.559323e+05  -7.155215e+05
   3.569276e+05  -3.814394e+05
   1.819300e+05  -4.726548e+05
   1.642471e+05  -8.075586e+05
   4.870384e+05  -7.986129e+05
   8.556400e+05  -1.466512e+05
   8.365601e+05   7.969748e+05
   2.765101e+05   1.309549e+06
  -4.983925e+05   9.397981e+05
  -8.787098e+05  -5.254675e+04
  -5.118515e+05  -8.829071e+05
   2.838996e+05  -9.322932e+05
   7.664151e+05  -2.865942e+05
   5.300064e+05   4.249704e+05
  -6.488271e+04   6.893324e+05
  -3.297034e+05   5.320146e+05
  -5.540412e+04   3.144771e+05
   2.589403e+05   2.603941e+05
   1.138719e+04   2.663250e+05
  -7.636452e+05   1.030286e+05
  -1.347103e+06  -2.991200e+05
  -1.049613e+06  -7.530887e+05
   4.085168e+04  -9.459118e+05
   1.072484e+06  -6.935637e+05
   1.241273e+06  -1.376046e+05
   5.722171e+05   3.187935e+05
  -1.727647e+05   3.504827e+05
  -3.379253e+05   2.680209e+04
   8.470371e+03  -2.457553e+05
   3.283140e+05  -1.375139e+05
   3.015831e+05   2.539938e+05
   8.939598e+04   5.020893e+05
   1.193434e+02   3.208122e+05
   1.104093e+05  -8.597867e+04
   2.463174e+05  -2.124524e+05
   1.846276e+05   1.677190e+05
  -1.686662e+05   6.693851e+05
  -6.554893e+05   6.700396e+05
  -8.716781e+05   3.775553e+04
  -4.814447e+05  -6.479732e+05
   3.253385e+05  -7.106641e+05
   8.273263e+05  -1.339541e+05
   4.582307e+05   4.354178e+05
  -4.984048e+05   4.164613e+05
  -1.096629e+06  -1.238688e+05
  -6.987423e+05  -6.384216e+05
   3.448573e+05  -6.932302e+05
   1.067457e+06  -3.073990e+05
   8.735945e+05   1.694229e+05
   8.472822e+04   3.714040e+05
  -4.545619e+05   1.722452e+05
  -2.367806e+05  -2.015482e+05
   4.357651e+05  -3.005010e+05
   7.860714e+05   1.418155e+05
   3.565974e+05   8.393071e+05
  -5.223992e+05   1.098972e+06
  -1.064004e+06   4.950301e+05
  -8.093910e+05  -5.920416e+05
  -3.961192e+04  -1.236723e+06
   5.763401e+05  -8.645358e+05
   6.360192e+05   1.448942e+05
   2.601312e+05   8.383013e+05
  -1.722653e+05   6.773841e+05
  -3.820236e+05   4.554282e+04
  -3.200857e+05  -2.933871e+05
  -1.274038e+05  -1.180785e+05
  -3.073051e+04   7.350539e+04
  -1.451045e+05  -1.865454e+05
  -2.875605e+05  -6.725946e+05
  -1.043498e+05  -7.602575e+05
   4.742180e+05  -2.498711e+05
   9.870052e+05   3.939552e+05
   8.589989e+05   6.441389e+05
   9.632239e+04   4.807048e+05
  -6.261446e+05   2.321666e+05
  -6.922589e+05   8.092540e+04
  -2.277112e+05  -3.336149e+04
   1.191014e+05  -1.408432e+05
   1.144969e+04  -1.611881e+05
  -1.998463e+05  -1.034852e+05
  -1.571202e+04  -9.120903e+04
   4.899420e+05  -1.053698e+05
   7.050666e+05   6.883512e+04
   2.184851e+05   4.740698e+05
  -6.541665e+05   7.316965e+05
  -1.168614e+06   4.130235e+05
  -8.973616e+05  -3.697658e+05
  -1.022472e+05  -9.715145e+05
   5.816121e+05  -8.894658e+05
   7.342503e+05  -2.936958e+05
   4.324598e+05   2.081762e+05
   6.106849e+04   2.459920e+05
  -6.907161e+04   1.741913e+04
   5.375455e+04  -2.855979e+04
   2.008591e+05   2.617848e+05
   1.374636e+05   5.659837e+05
  -1.599792e+05   4.451445e+05
  -4.558096e+05  -1.362494e+05
  -4.325318e+05  -6.959485e+05
   6.100226e+02  -6.941974e+05
   5.306482e+05  -1.009860e+05
   6.506780e+05   5.614234e+05
   1.659600e+05   7.510242e+05
  -5.164264e+05   4.049256e+05
  -7.419044e+05  -1.102121e+05
  -3.224408e+05  -4.218771e+05
   2.198575e+05  -4.251699e+05
   2.551260e+05  -2.328326e+05
  -1.858334e+05  -3.501738e+04
  -4.477053e+05  -1.192551e+04
  -7.812879e+04  -2.098981e+05
   5.967473e+05  -4.222062e+05
   8.712822e+05  -3.256450e+05
   4.941835e+05   1.348677e+05
  -1.084646e+05   5.767318e+05
  -3.972006e+05   5.520021e+05
  -2.708591e+05   8.114639e+04
   2.149620e+03  -3.326703e+05
   1.842586e+05  -2.709229e+05
   2.258641e+05   1.366654e+05
   1.401310e+05   4.047435e+05
  -5.597872e+04   2.688876e+05
  -2.594573e+05  -5.791512e+04
  -3.074049e+05  -1.995245e+05
  -1.640945e+05  -6.629749e+04
   1.203781e+04   8.577224e+04
   6.525600e+04   3.799863e+03
   3.974497e+04  -2.426195e+05
   8.987644e+04  -3.371526e+05
   2.262362e+05  -9.461851e+04
   2.594916e+05   2.929663e+05
   4.045924e+04   4.381526e+05
  -2.988768e+05   1.804416e+05
  -4.203904e+05  -2.306428e+05
  -1.313214e+05  -4.059675e+05
   3.567881e+05  -2.220741e+05
   5.818803e+05   9.977156e+04
   3.007979e+05   2.790998e+05
  -2.144600e+05   2.436672e+05
  -4.342823e+05   1.081562e+05
  -1.560298e+05   2.523037e+03
   2.522411e+05  -6.905655e+03
   2.732767e+05   8.663054e+04
  -1.494430e+05   1.946645e+05
  -5.441684e+05   1.356314e+05
