
 $NMID
 id='ANONYMOUS ', fmtdat='(2E16.6)'
 volume=1.0
 tramp=1.0
 $END
   2.393464e+07  -2.916584e+06
   1.846206e+07   8.717047e+06
   2.812941e+06   1.551491e+07
  -9.510587e+06   1.257695e+07
  -9.778366e+06   2.763533e+06
  -1.498625e+06  -4.716143e+06
   5.309481e+06  -3.335120e+06
   4.866533e+06   3.805957e+06
  -4.308361e+05   7.759535e+06
  -4.658552e+06   4.001897e+06
  -4.445657e+06  -2.948517e+06
  -8.854617e+05  -5.398058e+06
   2.362434e+06  -1.181185e+06
   2.234615e+06   4.621072e+06
  -1.157059e+06   5.735480e+06
  -4.373785e+06   1.113600e+06
  -3.826209e+06  -4.683369e+06
   3.823134e+05  -6.508750e+06
   4.394262e+06  -3.465373e+06
   4.779817e+06   9.766115e+05
   2.137222e+06   3.034465e+06
  -1.648646e+04   2.295999e+06
   5.769692e+05   1.337419e+06
   2.551196e+06   2.234732e+06
   2.617110e+06   4.182973e+06
  -7.655348e+05   4.696307e+06
  -5.403193e+06   2.560189e+06
  -7.100588e+06  -8.860423e+05
  -3.864127e+06  -3.128052e+06
   1.531530e+06  -2.688817e+06
   3.950593e+06  -1.937044e+05
   1.331158e+06   2.165766e+06
  -3.042660e+06   2.240493e+06
  -4.415652e+06  -2.851189e+05
  -1.918932e+06  -3.300122e+06
   1.125816e+06  -3.950605e+06
   1.721187e+06  -1.547926e+06
   3.290359e+05   1.378912e+06
  -7.230267e+05   1.619263e+06
  -3.139515e+05  -1.035966e+06
   9.260452e+05  -3.349929e+06
   1.969293e+06  -2.338855e+06
   2.051554e+06   1.118506e+06
   7.050860e+05   3.188001e+06
  -1.479889e+06   1.525602e+06
  -2.428412e+06  -2.036497e+06
  -4.245944e+05  -3.637125e+06
   3.297916e+06  -1.619905e+06
   5.062525e+06   1.995465e+06
   2.653028e+06   3.949716e+06
  -1.952626e+06   2.909360e+06
  -4.539010e+06   2.042881e+05
  -3.054766e+06  -1.835139e+06
   5.457536e+05  -1.874944e+06
   2.675057e+06  -3.793364e+05
   1.736216e+06   1.006546e+06
  -6.627332e+05   9.329320e+05
  -1.693172e+06  -4.152871e+05
  -3.035667e+05  -1.493756e+06
   1.724062e+06  -1.004833e+06
   1.783018e+06   6.668202e+05
  -5.060945e+05   1.778835e+06
  -2.650729e+06   9.880195e+05
  -2.014602e+06  -1.302913e+06
   1.160318e+06  -3.253693e+06
   4.028397e+06  -3.121841e+06
   4.290319e+06  -7.008575e+05
   2.379094e+06   2.440283e+06
   3.898808e+05   4.202096e+06
  -4.232989e+05   3.775778e+06
  -5.400472e+05   2.276245e+06
  -9.919221e+05   1.326602e+06
  -2.006600e+06   1.121095e+06
  -2.869531e+06   4.231624e+05
  -2.681307e+06  -1.392338e+06
  -1.147902e+06  -3.000034e+06
   1.031668e+06  -2.500686e+06
   2.427846e+06   1.153209e+05
   1.893524e+06   2.625585e+06
  -3.164838e+05   2.860511e+06
  -2.516260e+06   8.508270e+05
  -3.001698e+06  -1.513460e+06
  -1.624597e+06  -2.542487e+06
   1.627630e+05  -2.114508e+06
   9.232264e+05  -1.273738e+06
   7.658307e+05  -9.521089e+05
   1.038427e+06  -1.136059e+06
   2.461978e+06  -1.011595e+06
   3.886018e+06   1.691730e+05
   3.329846e+06   2.203021e+06
   3.461664e+05   3.835953e+06
  -3.038027e+06   3.716848e+06
  -4.138966e+06   1.667490e+06
  -2.327669e+06  -9.489751e+05
   3.834694e+05  -2.261756e+06
   1.493438e+06  -1.509304e+06
   4.479418e+05   2.498416e+05
  -1.184024e+06   1.136598e+06
  -1.617290e+06   3.478917e+05
  -5.864619e+05  -9.818302e+05
   6.805270e+05  -1.073405e+06
   8.230556e+05   3.073863e+05
  -3.906389e+05   1.358930e+06
  -1.858759e+06   2.986563e+05
  -2.038658e+06  -2.334374e+06
  -2.866621e+05  -3.989031e+06
   2.396099e+06  -2.823620e+06
   4.010479e+06   3.033835e+05
   3.261432e+06   2.802467e+06
   7.954856e+05   2.999470e+06
  -1.342853e+06   1.493578e+06
  -1.633034e+06   1.074541e+05
  -4.759868e+05  -3.281475e+04
   3.844281e+05   6.958398e+05
  -1.877075e+05   1.138707e+06
  -1.491871e+06   6.110105e+05
  -1.841442e+06  -4.889819e+05
  -5.775030e+05  -1.128266e+06
   1.030119e+06  -6.849397e+05
   1.113026e+06   3.866299e+05
  -6.427519e+05   9.414451e+05
  -2.474521e+06   2.469425e+05
  -2.344222e+06  -1.266385e+06
  -1.210350e+05  -2.339613e+06
   2.250466e+06  -1.999350e+06
   2.738218e+06  -4.542805e+05
   1.188466e+06   1.030009e+06
  -7.118199e+05   1.243014e+06
  -1.211160e+06   1.886974e+05
  -8.696098e+04  -8.726261e+05
   1.371224e+06  -7.056406e+05
   1.710907e+06   5.596411e+05
   6.349836e+05   1.561420e+06
  -8.214015e+05   1.247108e+06
  -1.317086e+06   5.191104e+04
  -5.025130e+05  -6.547743e+05
   6.165105e+05  -1.409916e+05
   6.809929e+05   9.396217e+05
  -5.705427e+05   1.336351e+06
  -1.930605e+06   4.917309e+05
  -1.937348e+06  -9.885844e+05
  -4.349993e+05  -1.938524e+06
   1.232099e+06  -1.628621e+06
   1.618021e+06  -3.632449e+05
   6.216338e+05   7.705440e+05
  -5.540467e+05   8.697850e+05
  -7.555909e+05   7.191383e+04
  -7.912123e+03  -6.238912e+05
   6.948619e+05  -4.807734e+05
   5.457134e+05   1.553790e+05
  -2.358433e+05   3.261745e+05
  -6.712153e+05  -3.355366e+05
  -6.298928e+04  -1.113260e+06
   1.224755e+06  -9.792521e+05
   2.024832e+06   2.843071e+05
   1.467376e+06   1.809372e+06
  -1.388617e+05   2.410999e+06
  -1.568429e+06   1.619844e+06
  -1.854736e+06   7.523559e+04
  -1.152475e+06  -1.044743e+06
  -3.972081e+05  -1.081224e+06
  -2.175290e+05  -4.626653e+05
  -3.417966e+05  -1.596849e+05
  -8.579248e+04  -5.482971e+05
   7.284007e+05  -9.635311e+05
   1.461105e+06  -5.199894e+05
   1.255872e+06   7.288018e+05
  -6.638212e+04   1.677445e+06
  -1.675350e+06   1.277730e+06
  -2.307907e+06  -3.493460e+05
  -1.321411e+06  -1.967566e+06
   6.811005e+05  -2.335051e+06
   2.283797e+06  -1.260029e+06
   2.438402e+06   3.296713e+05
   1.311079e+06   1.281373e+06
  -5.365779e+03   1.224299e+06
  -5.793373e+05   7.606250e+05
  -4.170693e+05   6.806885e+05
  -2.265214e+05   1.037599e+06
  -5.389747e+05   1.108254e+06
  -1.129813e+06   3.013507e+05
  -1.279397e+06  -1.032600e+06
  -5.680218e+05  -1.843481e+06
   5.976152e+05  -1.418410e+06
   1.281577e+06  -8.289731e+04
   9.042731e+05   1.121540e+06
  -1.587858e+05   1.366341e+06
  -9.289320e+05   6.556141e+05
  -8.084024e+05  -3.288096e+05
  -1.493816e+05  -8.854871e+05
   2.181081e+05  -8.368677e+05
  -3.737457e+04  -5.303851e+05
  -3.750388e+05  -3.729236e+05
  -3.368767e+04  -3.949833e+05
   1.016135e+06  -2.839324e+05
   1.886097e+06   1.918108e+05
   1.612365e+06   8.627909e+05
   1.897912e+05   1.279290e+06
  -1.305005e+06   1.114892e+06
  -1.711448e+06   4.589337e+05
  -9.083627e+05  -2.279022e+05
   1.370019e+05  -4.596437e+05
   4.413636e+05  -1.481308e+05
  -1.978034e+04   2.643832e+05
  -4.965538e+05   2.163407e+05
  -4.498672e+05  -3.233952e+05
  -9.041176e+04  -7.354793e+05
   5.626308e+04  -4.652971e+05
  -1.588701e+05   2.137258e+05
  -4.072109e+05   4.321307e+05
  -3.106588e+05  -2.008611e+05
   1.989770e+05  -1.019776e+06
   8.375996e+05  -1.034229e+06
   1.115704e+06  -1.086632e+05
   6.546431e+05   8.626324e+05
  -3.643528e+05   9.629681e+05
  -1.091669e+06   2.047056e+05
  -7.004365e+05  -5.948485e+05
   6.275295e+05  -6.911488e+05
   1.641548e+06  -4.044922e+04
   1.241958e+06   7.894276e+05
  -2.893157e+05   1.138657e+06
  -1.522474e+06   7.504598e+05
  -1.382120e+06  -3.782949e+04
  -2.320271e+05  -5.493949e+05
   6.173590e+05  -3.663173e+05
   3.346705e+05   2.212520e+05
  -6.356280e+05   4.388639e+05
  -1.138563e+06  -1.778151e+05
  -5.269250e+05  -1.200109e+06
   7.209931e+05  -1.608523e+06
   1.522159e+06  -7.799099e+05
   1.240811e+06   7.883519e+05
   2.072461e+05   1.808168e+06
  -7.203891e+05   1.388301e+06
  -9.633164e+05  -5.426790e+04
  -5.650717e+05  -1.171347e+06
   6.543424e+04  -1.060947e+06
   5.210044e+05  -1.591082e+05
   5.720554e+05   3.991063e+05
   2.755642e+05   1.800565e+05
   6.356317e+03  -1.348244e+05
   1.293135e+05   1.963841e+05
   4.683556e+05   9.131562e+05
   3.453698e+05   1.108117e+06
  -5.500756e+05   4.464503e+05
  -1.500626e+06  -4.412819e+05
  -1.419896e+06  -8.203262e+05
  -2.159566e+05  -6.660963e+05
   9.521881e+05  -4.097458e+05
   1.022465e+06  -2.383990e+05
   2.721136e+05  -2.897615e+04
  -1.836790e+05   2.109206e+05
   9.265245e+04   2.818874e+05
   3.971352e+05   1.778782e+05
  -2.721428e+03   1.352726e+05
  -7.976045e+05   1.750556e+05
  -1.016128e+06  -4.189079e+04
  -2.341681e+05  -6.401959e+05
   9.473397e+05  -1.077748e+06
   1.574347e+06  -6.686502e+05
   1.222401e+06   4.792286e+05
   2.252412e+05   1.408354e+06
  -7.090135e+05   1.323942e+06
  -1.023412e+06   4.469516e+05
  -6.626147e+05  -3.032451e+05
  -7.649553e+04  -3.460961e+05
   1.785165e+05   2.421678e+04
  -4.510424e+04   1.124296e+05
  -3.661217e+05  -3.270075e+05
  -3.034911e+05  -8.024265e+05
   1.984354e+05  -6.415690e+05
   6.918906e+05   2.083074e+05
   6.477289e+05   1.017623e+06
  -2.449485e+04   9.911186e+05
  -8.093198e+05   1.160924e+05
  -9.718407e+05  -8.201805e+05
  -2.642046e+05  -1.060436e+06
   7.142935e+05  -5.752974e+05
   1.038887e+06   1.016137e+05
   4.627613e+05   5.107072e+05
  -2.621868e+05   5.569325e+05
  -2.682014e+05   3.470852e+05
   3.529595e+05   6.299660e+04
   6.693704e+05  -1.914128e+04
   1.082938e+05   2.780365e+05
  -8.150286e+05   6.882351e+05
  -1.153441e+06   6.311557e+05
  -6.485820e+05  -7.364310e+04
   9.928652e+04  -8.124057e+05
   4.401144e+05  -8.093372e+05
   2.994870e+05  -8.950197e+04
  -1.053632e+04   5.137312e+05
  -2.510884e+05   3.667994e+05
  -3.444975e+05  -2.457612e+05
  -2.348381e+05  -5.719963e+05
   7.029914e+04  -3.269661e+05
   3.772858e+05   8.786644e+04
   4.407636e+05   2.030489e+05
   2.442023e+05   3.185297e+04
   9.509542e+03  -6.422357e+04
  -9.551522e+04   1.212277e+05
  -1.345996e+05   4.005123e+05
  -2.378559e+05   4.129950e+05
  -3.610684e+05   2.507793e+04
  -3.061724e+05  -4.820320e+05
   2.668215e+04  -6.380815e+05
   4.497125e+05  -2.548263e+05
   5.810387e+05   3.373988e+05
   1.937756e+05   6.019019e+05
  -4.693568e+05   3.476782e+05
  -8.061232e+05  -1.158315e+05
  -4.414352e+05  -3.730975e+05
   2.834398e+05  -3.183930e+05
   5.947127e+05  -1.331211e+05
   1.662605e+05  -8.808474e+03
  -4.447245e+05  -2.534029e+04
  -4.345935e+05  -1.809043e+05
   2.636545e+05  -3.455592e+05
   8.821742e+05  -2.474453e+05
