
 $NMID
 id='ANONYMOUS ', fmtdat='(2E16.6)'
 volume=1.0
 tramp=1.0
 $END
  -5.791655e+07  -6.548256e+05
  -3.408236e+07  -3.664927e+07
   8.536416e+06  -3.911390e+07
   2.855898e+07  -1.419851e+07
   1.648835e+07   7.836128e+06
  -3.743868e+06   9.432024e+06
  -9.897238e+06  -1.684581e+06
  -2.414174e+06  -1.001576e+07
   6.568330e+06  -9.132022e+06
   9.808492e+06  -1.688351e+06
   7.018762e+06   6.356709e+06
   7.778458e+05   8.667599e+06
  -4.057256e+06   2.816328e+06
  -2.621950e+06  -5.352545e+06
   3.886225e+06  -6.404594e+06
   7.948308e+06   1.570299e+06
   4.322627e+06   1.044762e+07
  -4.050023e+06   1.193718e+07
  -1.040128e+07   5.926387e+06
  -1.109976e+07  -2.157295e+06
  -6.843183e+06  -7.777816e+06
  -6.630105e+05  -9.059741e+06
   3.250875e+06  -6.298955e+06
   2.240535e+06  -2.566848e+06
  -9.921136e+05  -1.835870e+06
  -4.062848e+05  -4.023954e+06
   5.250339e+06  -4.508145e+06
   9.674088e+06  -6.503916e+05
   7.179494e+06   4.126550e+06
   4.136588e+05   5.202924e+06
  -3.625850e+06   2.783266e+06
  -2.577963e+06   2.304241e+05
   2.979789e+05  -8.510599e+05
   2.014419e+06  -6.354365e+05
   2.225568e+06   1.186690e+06
   8.991563e+05   3.857953e+06
  -1.780546e+06   3.993494e+06
  -3.468408e+06  -1.563843e+04
  -1.891382e+06  -3.783094e+06
   8.591864e+05  -2.164585e+06
   5.090375e+05   2.329027e+06
  -2.417547e+06   2.247617e+06
  -2.394529e+06  -3.300863e+06
   2.693723e+06  -6.198459e+06
   7.279324e+06  -8.575212e+05
   5.181311e+06   7.245220e+06
  -2.141144e+06   8.735665e+06
  -7.631317e+06   2.390611e+06
  -6.924591e+06  -4.559526e+06
  -1.714280e+06  -6.038860e+06
   3.506325e+06  -2.609831e+06
   5.159389e+06   1.632074e+06
   2.284640e+06   3.522750e+06
  -2.527331e+06   2.142630e+06
  -4.563624e+06  -1.036908e+06
  -1.897568e+06  -2.806398e+06
   1.775987e+06  -1.364279e+06
   1.691791e+06   1.047680e+06
  -1.425121e+06   8.093651e+05
  -2.432351e+06  -1.974670e+06
   8.727241e+05  -3.566273e+06
   4.892968e+06  -1.801503e+06
   5.372605e+06   1.568705e+06
   2.252946e+06   4.119579e+06
  -1.823481e+06   5.321907e+06
  -4.974146e+06   4.903251e+06
  -6.229201e+06   1.809439e+06
  -4.687616e+06  -3.160931e+06
  -9.777761e+05  -6.210820e+06
   1.938986e+06  -4.725037e+06
   1.801725e+06  -1.072316e+06
   4.284195e+04   3.770996e+05
  -2.378193e+05  -9.932967e+05
   1.461142e+06  -1.926575e+06
   2.800607e+06  -4.153575e+05
   2.112884e+06   1.787588e+06
   1.562081e+05   2.091130e+06
  -1.442260e+06   2.687136e+05
  -1.654052e+06  -1.958286e+06
  -5.837679e+04  -2.886581e+06
   2.734286e+06  -1.714206e+06
   4.530270e+06   1.128462e+06
   3.305132e+06   3.801016e+06
  -3.848460e+04   4.338136e+06
  -2.366840e+06   2.782077e+06
  -2.319409e+06   1.113180e+06
  -1.854339e+06   6.195058e+05
  -2.911279e+06   4.286114e+05
  -4.296477e+06  -7.817816e+05
  -3.437959e+06  -2.743928e+06
  -1.293113e+05  -4.069283e+06
   3.136791e+06  -3.863137e+06
   4.091935e+06  -2.156642e+06
   2.655390e+06   3.471056e+05
   3.555049e+05   2.204379e+06
  -1.035394e+06   1.959377e+06
  -5.706869e+05  -1.212795e+04
   1.053598e+06  -1.314439e+06
   1.901774e+06  -4.035346e+05
   9.435497e+05   1.208506e+06
  -4.850884e+05   1.106355e+06
  -3.805136e+05  -3.800573e+05
   1.098899e+06  -6.072720e+05
   1.795403e+06   1.418505e+06
   4.834267e+05   3.506919e+06
  -1.725389e+06   3.253070e+06
  -3.114192e+06   9.126909e+05
  -3.154083e+06  -1.502538e+06
  -2.144298e+06  -2.667796e+06
  -4.333610e+05  -2.509863e+06
   1.197539e+06  -1.445801e+06
   1.546063e+06  -2.491140e+05
   4.865347e+05   4.386945e+04
  -3.529078e+05  -7.441710e+05
   4.297820e+05  -1.341156e+06
   1.922020e+06  -5.680318e+05
   2.021054e+06   9.133338e+05
   3.578268e+05   1.423020e+06
  -1.166129e+06   5.524015e+05
  -8.498419e+05  -4.477557e+05
   8.492815e+05  -4.618322e+05
   2.100556e+06   3.657383e+05
   1.649047e+06   1.323895e+06
  -2.714139e+05   1.888063e+06
  -2.262615e+06   1.597393e+06
  -2.729501e+06   2.618294e+05
  -1.204123e+06  -1.269108e+06
   9.279425e+05  -1.512387e+06
   1.578955e+06  -1.884704e+05
   2.141682e+05   1.092105e+06
  -1.509387e+06   7.357729e+05
  -1.693701e+06  -7.895633e+05
  -3.005568e+05  -1.631915e+06
   1.100699e+06  -9.269322e+05
   1.225086e+06   3.479899e+05
   2.091847e+05   7.808795e+05
  -8.076250e+05   4.348511e+04
  -7.382256e+05  -1.050620e+06
   5.610825e+05  -1.419907e+06
   1.987340e+06  -5.535388e+05
   2.025517e+06   1.032439e+06
   3.813878e+05   2.060232e+06
  -1.438282e+06   1.625436e+06
  -1.711821e+06   1.935858e+05
  -4.810361e+05  -8.648165e+05
   6.582658e+05  -7.842748e+05
   6.076841e+05  -8.183014e+04
  -1.266495e+05   3.180758e+05
  -4.499768e+05   1.759201e+05
  -6.580478e+04  -4.265120e+04
   4.621628e+05   1.322616e+05
   4.858114e+05   7.015290e+05
  -2.351066e+05   1.175052e+06
  -1.376621e+06   8.756332e+05
  -2.059094e+06  -4.143692e+05
  -1.452937e+06  -1.924569e+06
   2.090895e+05  -2.386553e+06
   1.584513e+06  -1.371645e+06
   1.637799e+06   1.384954e+05
   8.121251e+05   8.508295e+05
   3.144136e+05   5.788522e+05
   5.124197e+05   1.847956e+05
   6.558504e+05   3.317803e+05
   9.067795e+04   7.820837e+05
  -8.765901e+05   8.807835e+05
  -1.418202e+06   3.017730e+05
  -1.009272e+06  -6.992633e+05
   2.584389e+05  -1.404443e+06
   1.691377e+06  -1.037232e+06
   2.205995e+06   4.796467e+05
   1.100515e+06   2.076523e+06
  -1.027246e+06   2.334319e+06
  -2.530133e+06   9.938265e+05
  -2.300338e+06  -6.801069e+05
  -8.979474e+05  -1.313487e+06
   2.198543e+05  -8.888414e+05
   3.477435e+05  -4.734116e+05
   2.537224e+04  -7.599896e+05
   8.117677e+04  -1.329055e+06
   6.742685e+05  -1.296701e+06
   1.295999e+06  -3.218563e+05
   1.332811e+06   1.062795e+06
   5.593428e+05   1.869486e+06
  -6.062406e+05   1.422464e+06
  -1.265256e+06  -5.830179e+03
  -7.920534e+05  -1.280342e+06
   4.096013e+05  -1.377197e+06
   1.171246e+06  -3.658483e+05
   7.962354e+05   7.351614e+05
  -1.578265e+05   1.082235e+06
  -5.686232e+05   7.592962e+05
  -9.661665e+04   3.908604e+05
   4.388443e+05   3.229175e+05
   6.624389e+04   3.757635e+05
  -1.147913e+06   2.015248e+05
  -2.057974e+06  -3.366288e+05
  -1.597637e+06  -1.035371e+06
   6.428027e+04  -1.432443e+06
   1.600377e+06  -1.133385e+06
   1.816420e+06  -2.568696e+05
   8.078437e+05   5.197136e+05
  -2.739670e+05   5.765711e+05
  -5.120606e+05   1.808243e+04
  -3.838276e+04  -4.397202e+05
   4.261951e+05  -2.660633e+05
   4.819740e+05   3.360210e+05
   2.828714e+05   7.108389e+05
   1.234775e+05   4.763239e+05
   1.284376e+05  -7.549306e+04
   2.487372e+05  -2.701251e+05
   2.669193e+05   2.307234e+05
  -1.197886e+05   9.682456e+05
  -8.865336e+05   1.062465e+06
  -1.382506e+06   1.921927e+05
  -8.807687e+05  -9.049326e+05
   4.097054e+05  -1.155464e+06
   1.266523e+06  -3.648086e+05
   7.346829e+05   5.536100e+05
  -6.977561e+05   6.359635e+05
  -1.552666e+06  -1.035954e+05
  -9.541164e+05  -8.499024e+05
   5.003750e+05  -9.473402e+05
   1.462071e+06  -4.353264e+05
   1.185532e+06   2.025419e+05
   1.191916e+05   4.967715e+05
  -6.416619e+05   2.521942e+05
  -3.898248e+05  -3.008747e+05
   5.621095e+05  -5.388795e+05
   1.177729e+06   4.667915e+04
   7.063515e+05   1.154395e+06
  -5.336328e+05   1.708033e+06
  -1.444938e+06   9.157371e+05
  -1.252076e+06  -7.239706e+05
  -2.221768e+05  -1.760396e+06
   7.167370e+05  -1.264743e+06
   9.041417e+05   1.891599e+05
   4.094663e+05   1.172497e+06
  -2.383898e+05   9.348767e+05
  -5.615273e+05   7.193409e+04
  -4.401144e+05  -3.597733e+05
  -1.374196e+05  -1.217450e+05
  -5.613104e+04   8.459094e+04
  -3.139081e+05  -3.135266e+05
  -5.242485e+05  -9.596791e+05
  -1.654636e+05  -1.051543e+06
   7.385871e+05  -3.836862e+05
   1.454164e+06   4.442018e+05
   1.238946e+06   8.098617e+05
   1.837822e+05   6.940066e+05
  -8.105191e+05   4.297660e+05
  -9.574283e+05   1.799012e+05
  -3.783412e+05  -6.977259e+04
   1.304512e+05  -2.291711e+05
   6.505761e+04  -1.804977e+05
  -2.285784e+05  -6.458786e+04
  -6.676750e+04  -1.308173e+05
   6.125719e+05  -2.626828e+05
   1.042021e+06  -1.454233e+04
   4.937169e+05   6.930738e+05
  -7.815909e+05   1.206629e+06
  -1.700781e+06   7.995625e+05
  -1.455103e+06  -3.891761e+05
  -3.114025e+05  -1.382623e+06
   7.496460e+05  -1.385630e+06
   1.034807e+06  -5.770181e+05
   6.500301e+05   1.959160e+05
   1.557033e+05   3.556779e+05
  -3.710191e+04   9.550624e+04
   8.935144e+04   1.114565e+04
   2.829588e+05   3.688688e+05
   2.417063e+05   7.942131e+05
  -1.584880e+05   6.856473e+05
  -6.724475e+05  -7.833848e+04
  -7.780629e+05  -9.040527e+05
  -1.796894e+05  -1.029837e+06
   7.210521e+05  -3.034947e+05
   1.057782e+06   6.572356e+05
   3.940549e+05   1.077858e+06
  -6.897564e+05   7.171280e+05
  -1.131509e+06  -4.180584e+04
  -5.589288e+05  -6.270379e+05
   2.781599e+05  -7.148064e+05
   4.033911e+05  -3.767233e+05
  -2.096548e+05   1.526250e+04
  -6.334908e+05   5.960719e+04
  -1.637151e+05  -3.111073e+05
   8.035199e+05  -6.837326e+05
   1.265597e+06  -5.276200e+05
   7.929088e+05   1.949888e+05
  -7.605795e+04   8.788388e+05
  -5.647950e+05   8.711010e+05
  -4.599572e+05   1.924058e+05
  -8.588119e+04  -4.601729e+05
   2.227910e+05  -4.584770e+05
   3.540761e+05   1.032114e+05
   2.702438e+05   5.657792e+05
  -3.709010e+04   4.576536e+05
  -3.918299e+05  -2.019540e+04
  -4.869451e+05  -2.934844e+05
  -2.401881e+05  -1.122124e+05
   5.191434e+04   1.777217e+05
   7.677118e+04   9.839027e+04
  -7.179801e+04  -3.330188e+05
  -2.868996e+04  -5.936034e+05
   2.960992e+05  -2.917325e+05
   5.156054e+05   3.279706e+05
   2.351736e+05   6.399687e+05
  -3.807845e+05   3.416642e+05
  -6.923805e+05  -2.395080e+05
  -2.860143e+05  -5.497695e+05
   5.057391e+05  -3.788552e+05
   9.004230e+05   3.919625e+04
   4.952617e+05   3.629343e+05
  -2.844536e+05   4.316435e+05
  -6.416824e+05   2.747421e+05
  -2.774679e+05   2.708270e+04
   3.042291e+05  -1.109212e+05
   3.943776e+05   9.545990e+03
  -1.230951e+05   2.718991e+05
  -6.752426e+05   2.957644e+05
