
 $NMID
 id='ANONYMOUS ', fmtdat='(2E16.6)'
 volume=1.0
 tramp=1.0
 $END
   4.443544e+07   4.126214e+04
   2.730808e+07   2.632559e+07
  -4.791969e+06   2.975244e+07
  -2.134680e+07   1.289877e+07
  -1.364450e+07  -4.168688e+06
   1.936110e+06  -7.504344e+06
   8.029827e+06   3.628885e+04
   3.066822e+06   7.634311e+06
  -4.400230e+06   8.315554e+06
  -7.782287e+06   2.310195e+06
  -5.837297e+06  -5.073754e+06
  -6.778547e+05  -7.278322e+06
   3.370917e+06  -2.115510e+06
   2.314437e+06   4.964011e+06
  -2.932738e+06   5.926077e+06
  -6.470503e+06  -7.013627e+05
  -3.894428e+06  -8.207942e+06
   2.812454e+06  -9.666201e+06
   8.086413e+06  -4.781354e+06
   8.555482e+06   1.803683e+06
   4.932013e+06   5.967905e+06
   3.309371e+05   6.456634e+06
  -1.887806e+06   4.387788e+06
  -5.721777e+05   2.390357e+06
   1.451232e+06   2.616814e+06
  -8.949535e+04   4.113288e+06
  -5.186123e+06   3.595968e+06
  -8.466592e+06  -3.813231e+04
  -5.747444e+06  -3.734525e+06
   3.241998e+05  -4.152311e+06
   3.630706e+06  -1.736716e+06
   2.039334e+06   6.248835e+05
  -1.257326e+06   1.256644e+06
  -2.767812e+06   2.342131e+05
  -2.002494e+06  -1.905263e+06
  -1.107533e+05  -3.754896e+06
   1.742216e+06  -2.998286e+06
   2.266229e+06   5.015383e+05
   8.962053e+05   2.919911e+06
  -6.438532e+05   9.916439e+05
   5.257772e+04  -2.591892e+06
   2.227171e+06  -2.166937e+06
   2.166352e+06   2.484553e+06
  -1.519223e+06   4.958065e+06
  -5.082518e+06   9.967751e+05
  -4.002298e+06  -5.287260e+06
   1.291263e+06  -6.698883e+06
   5.934085e+06  -1.963012e+06
   6.008627e+06   3.636815e+06
   1.894522e+06   5.169104e+06
  -2.909841e+06   2.581588e+06
  -4.769699e+06  -1.036154e+06
  -2.431150e+06  -2.879333e+06
   1.799295e+06  -1.958334e+06
   3.765025e+06   5.767632e+05
   1.752478e+06   2.128738e+06
  -1.354511e+06   1.152559e+06
  -1.624983e+06  -8.263052e+05
   8.094246e+05  -1.010457e+06
   2.110020e+06   9.265864e+05
   3.403187e+04   2.473546e+06
  -3.265906e+06   1.699117e+06
  -4.269825e+06  -7.071469e+05
  -2.058128e+06  -3.060127e+06
   1.608139e+06  -4.417344e+06
   4.555329e+06  -4.057015e+06
   5.382212e+06  -1.283221e+06
   3.697673e+06   2.867135e+06
   6.586654e+05   5.331006e+06
  -1.429776e+06   4.229872e+06
  -1.345382e+06   1.433223e+06
  -3.809965e+05   2.065324e+05
  -5.577328e+05   9.807650e+05
  -1.910721e+06   1.304295e+06
  -2.651850e+06  -2.656962e+05
  -1.665663e+06  -2.168030e+06
   2.967177e+05  -2.148753e+06
   1.729736e+06  -9.038208e+04
   1.636787e+06   2.153207e+06
  -1.228288e+05   2.777924e+06
  -2.589139e+06   1.316244e+06
  -3.834013e+06  -1.285182e+06
  -2.570287e+06  -3.285032e+06
   1.299216e+05  -3.434563e+06
   1.828032e+06  -2.151635e+06
   1.731676e+06  -9.996232e+05
   1.533043e+06  -7.521180e+05
   2.677470e+06  -5.657891e+05
   4.008782e+06   6.204549e+05
   3.245093e+06   2.530319e+06
   1.278853e+05   3.860563e+06
  -3.068532e+06   3.630081e+06
  -4.006150e+06   1.844001e+06
  -2.441670e+06  -5.845231e+05
  -5.093412e+04  -2.147912e+06
   1.186345e+06  -1.716754e+06
   5.057832e+05   1.007977e+05
  -1.084439e+06   1.188785e+06
  -1.747157e+06   3.404233e+05
  -7.712155e+05  -1.102832e+06
   5.539415e+05  -1.046509e+06
   5.114820e+05   3.547072e+05
  -8.412699e+05   8.312778e+05
  -1.752444e+06  -8.201025e+05
  -9.488050e+05  -3.019315e+06
   1.049633e+06  -3.390348e+06
   2.806707e+06  -1.487164e+06
   3.330715e+06   1.111262e+06
   2.405513e+06   2.678303e+06
   4.912039e+05   2.606682e+06
  -1.234570e+06   1.391394e+06
  -1.527531e+06   1.640423e+05
  -4.663803e+05  -4.699709e+04
   3.386857e+05   7.096470e+05
  -3.549647e+05   1.222256e+06
  -1.721952e+06   5.339275e+05
  -1.880663e+06  -7.722755e+05
  -3.984546e+05  -1.283234e+06
   1.092007e+06  -5.586203e+05
   9.027273e+05   4.309693e+05
  -7.661873e+05   5.964421e+05
  -2.159974e+06  -1.885301e+05
  -1.808088e+06  -1.299657e+06
   1.688323e+05  -1.979622e+06
   2.217810e+06  -1.640729e+06
   2.649349e+06  -2.695302e+05
   1.139059e+06   1.166619e+06
  -8.471031e+05   1.356019e+06
  -1.404095e+06   1.585783e+05
  -1.464383e+05  -9.827081e+05
   1.424934e+06  -6.750509e+05
   1.631641e+06   7.157424e+05
   3.760301e+05   1.562835e+06
  -9.891021e+05   9.884950e+05
  -1.213637e+06  -2.232003e+05
  -2.891335e+05  -7.184109e+05
   7.174706e+05  -6.166561e+04
   6.755690e+05   9.915285e+05
  -5.716817e+05   1.334024e+06
  -1.912234e+06   4.780868e+05
  -1.910341e+06  -1.019531e+06
  -3.511137e+05  -1.958256e+06
   1.349730e+06  -1.549311e+06
   1.628498e+06  -2.157453e+05
   4.985369e+05   8.135576e+05
  -6.156985e+05   7.761387e+05
  -6.384657e+05   6.293473e+04
   8.696243e+04  -4.104772e+05
   5.258022e+05  -2.619416e+05
   2.245564e+05   8.733549e+04
  -3.738784e+05   2.261827e+04
  -5.251976e+05  -5.654687e+05
   1.466732e+05  -1.115337e+06
   1.297337e+06  -8.590663e+05
   1.974000e+06   3.937498e+05
   1.376518e+06   1.848861e+06
  -2.216992e+05   2.313525e+06
  -1.554454e+06   1.382706e+06
  -1.657941e+06  -9.304406e+04
  -8.841783e+05  -9.073374e+05
  -3.164261e+05  -7.375349e+05
  -3.888799e+05  -2.793333e+05
  -5.236426e+05  -2.708948e+05
  -7.470932e+04  -6.791107e+05
   8.147957e+05  -8.665773e+05
   1.395331e+06  -3.399612e+05
   1.047780e+06   7.083083e+05
  -2.135197e+05   1.449616e+06
  -1.652800e+06   1.054673e+06
  -2.161415e+06  -4.610955e+05
  -1.102910e+06  -1.993929e+06
   9.182982e+05  -2.243088e+06
   2.384219e+06  -1.008609e+06
   2.263321e+06   5.816651e+05
   9.855784e+05   1.280246e+06
  -1.596198e+05   9.722318e+05
  -4.270763e+05   5.466608e+05
  -1.706632e+05   7.030671e+05
  -1.485294e+05   1.183055e+06
  -6.272505e+05   1.179328e+06
  -1.202412e+06   2.827515e+05
  -1.251890e+06  -1.041112e+06
  -5.102804e+05  -1.809355e+06
   6.090601e+05  -1.363305e+06
   1.229948e+06  -1.309696e+03
   7.826496e+05   1.199917e+06
  -3.356989e+05   1.323644e+06
  -1.060279e+06   4.338024e+05
  -7.655126e+05  -5.875327e+05
   6.564690e+04  -9.804677e+05
   4.455287e+05  -7.542883e+05
   5.645656e+04  -4.251021e+05
  -3.966366e+05  -3.366572e+05
  -4.609498e+04  -3.710789e+05
   1.070334e+06  -2.037228e+05
   1.927931e+06   3.118770e+05
   1.533395e+06   9.720017e+05
  -3.354395e+02   1.334990e+06
  -1.467906e+06   1.064087e+06
  -1.727871e+06   2.853954e+05
  -8.091686e+05  -4.192082e+05
   2.276125e+05  -5.145755e+05
   4.731250e+05  -5.321584e+04
   1.157595e+04   3.660658e+05
  -4.403316e+05   2.323675e+05
  -4.495779e+05  -3.289400e+05
  -1.953912e+05  -6.990128e+05
  -5.002000e+04  -4.572220e+05
  -1.375834e+05   1.174506e+05
  -3.013511e+05   3.099368e+05
  -2.693627e+05  -2.188439e+05
   1.610466e+05  -9.514555e+05
   8.602515e+05  -1.002578e+06
   1.249510e+06  -1.351486e+05
   7.592613e+05   8.746056e+05
  -3.998010e+05   1.045428e+06
  -1.170666e+06   2.775981e+05
  -6.886787e+05  -5.623478e+05
   6.630966e+05  -6.221705e+05
   1.531798e+06   8.013138e+04
   1.006070e+06   8.219283e+05
  -4.314811e+05   9.747169e+05
  -1.446062e+06   5.010895e+05
  -1.211617e+06  -1.635832e+05
  -1.440369e+05  -5.017342e+05
   6.181136e+05  -2.712367e+05
   3.535926e+05   2.704652e+05
  -5.773884e+05   4.762090e+05
  -1.123537e+06  -1.106101e+05
  -6.009427e+05  -1.142905e+06
   6.094103e+05  -1.606678e+06
   1.438814e+06  -8.128817e+05
   1.193589e+06   7.444513e+05
   1.777131e+05   1.722827e+06
  -7.186192e+05   1.252353e+06
  -8.926898e+05  -1.541736e+05
  -4.276501e+05  -1.142831e+06
   1.902794e+05  -9.445257e+05
   5.316946e+05  -8.930187e+04
   4.634680e+05   3.707777e+05
   1.768414e+05   1.415033e+05
   3.940288e+04  -9.835821e+04
   2.365624e+05   2.672414e+05
   4.712625e+05   9.212655e+05
   2.014950e+05   1.041077e+06
  -6.580074e+05   3.810645e+05
  -1.414306e+06  -4.553167e+05
  -1.245064e+06  -8.111357e+05
  -1.764856e+05  -6.655531e+05
   8.395764e+05  -3.928629e+05
   9.520313e+05  -1.759024e+05
   3.297667e+05   3.969677e+04
  -1.480763e+05   2.125472e+05
  -1.368700e+04   2.095214e+05
   2.758666e+05   1.069332e+05
   3.848924e+04   1.285953e+05
  -6.591494e+05   2.113089e+05
  -9.987624e+05  -2.367005e+04
  -3.775700e+05  -6.586036e+05
   8.325600e+05  -1.107533e+06
   1.615223e+06  -6.996805e+05
   1.320627e+06   4.307162e+05
   2.468145e+05   1.350825e+06
  -7.357429e+05   1.306306e+06
  -1.006200e+06   4.954196e+05
  -6.283277e+05  -2.378794e+05
  -1.173258e+05  -3.428009e+05
   8.433801e+04  -4.957621e+04
  -7.255865e+04   2.998203e+04
  -2.956511e+05  -3.486334e+05
  -2.402177e+05  -7.759894e+05
   1.787870e+05  -6.448460e+05
   6.541377e+05   1.322622e+05
   6.907848e+05   9.255615e+05
   8.642415e+04   9.839823e+05
  -7.307967e+05   2.160836e+05
  -9.804299e+05  -7.090767e+05
  -3.179070e+05  -1.042395e+06
   6.869395e+05  -6.328934e+05
   1.061707e+06   8.017414e+04
   4.979067e+05   5.762017e+05
  -2.749570e+05   6.330226e+05
  -3.508752e+05   3.483936e+05
   2.508687e+05   1.698200e+04
   6.256238e+05  -3.213312e+04
   1.343334e+05   2.921048e+05
  -7.934705e+05   6.482657e+05
  -1.196719e+06   5.238154e+05
  -7.157872e+05  -1.602056e+05
   9.655024e+04  -8.259038e+05
   5.190714e+05  -8.127937e+05
   3.929078e+05  -1.446438e+05
   4.154848e+04   4.638115e+05
  -2.324022e+05   4.081059e+05
  -3.359013e+05  -1.544307e+05
  -2.391381e+05  -5.538728e+05
   5.400089e+04  -3.973546e+05
   3.729744e+05   4.937615e+04
   4.509991e+05   2.614863e+05
   2.325270e+05   8.565111e+04
  -2.736452e+04  -1.337115e+05
  -8.115563e+04  -2.229657e+04
  -7.237768e+03   3.440970e+05
  -7.138089e+04   5.106368e+05
  -3.108533e+05   1.857819e+05
  -4.201988e+05  -3.765198e+05
  -1.272062e+05  -6.198580e+05
   3.969397e+05  -2.934644e+05
   6.266418e+05   2.761716e+05
   2.349145e+05   5.536568e+05
  -4.833756e+05   3.471558e+05
  -8.374655e+05  -7.914336e+04
  -4.541400e+05  -3.628520e+05
   2.813612e+05  -3.739834e+05
   6.081643e+05  -2.066823e+05
   2.309783e+05  -1.622689e+04
  -3.423997e+05   5.410260e+04
  -3.930706e+05  -7.482495e+04
   1.723780e+05  -2.842204e+05
   7.280659e+05  -2.553384e+05
