
 $NMID
 id='ANONYMOUS ', fmtdat='(2E16.6)'
 volume=1.0
 tramp=1.0
 $END
   3.070548e+07  -1.153096e+06
   2.088296e+07   1.516812e+07
  -3.398716e+05   2.020077e+07
  -1.373377e+07   1.217088e+07
  -1.095225e+07   6.360365e+04
  -1.600114e+05  -5.611325e+06
   6.199092e+06  -1.977914e+06
   4.047581e+06   5.152148e+06
  -1.961176e+06   7.776340e+06
  -5.731568e+06   3.224428e+06
  -4.782372e+06  -3.742149e+06
  -6.771512e+05  -5.983763e+06
   2.709141e+06  -1.437439e+06
   2.135741e+06   4.703466e+06
  -1.868814e+06   5.663441e+06
  -5.034598e+06   3.533196e+05
  -3.655007e+06  -5.912057e+06
   1.390444e+06  -7.468859e+06
   5.696692e+06  -3.738740e+06
   5.991847e+06   1.386658e+06
   2.986261e+06   4.081734e+06
   1.590803e+04   3.715094e+06
  -3.529211e+05   2.368180e+06
   1.367886e+06   2.271630e+06
   2.095159e+06   3.604433e+06
  -6.035502e+05   4.402214e+06
  -5.293623e+06   2.773307e+06
  -7.446659e+06  -7.257234e+05
  -4.392113e+06  -3.378984e+06
   1.145301e+06  -3.138133e+06
   3.787663e+06  -6.602333e+05
   1.529668e+06   1.620451e+06
  -2.399726e+06   1.816841e+06
  -3.764759e+06  -1.695531e+05
  -1.865343e+06  -2.799333e+06
   7.519959e+05  -3.810397e+06
   1.748211e+06  -1.996098e+06
   9.856245e+05   1.076039e+06
  -1.882321e+05   2.049119e+06
  -4.236146e+05  -3.196511e+05
   6.636080e+05  -3.018241e+06
   2.071038e+06  -2.196395e+06
   2.022614e+06   1.618243e+06
  -1.622822e+05   3.742049e+06
  -2.735504e+06   1.249364e+06
  -2.862462e+06  -3.197712e+06
   2.839734e+05  -4.631291e+06
   4.195295e+06  -1.618899e+06
   5.248024e+06   2.642751e+06
   2.251953e+06   4.351939e+06
  -2.306742e+06   2.698433e+06
  -4.533921e+06  -3.228229e+05
  -2.741118e+06  -2.224145e+06
   1.009129e+06  -1.853101e+06
   3.008929e+06   2.142314e+04
   1.685325e+06   1.416010e+06
  -9.111783e+05   9.761168e+05
  -1.630005e+06  -5.834267e+05
   1.120425e+05  -1.295956e+06
   1.830300e+06  -2.778764e+05
   1.113697e+06   1.302485e+06
  -1.493440e+06   1.682394e+06
  -3.173388e+06   3.099959e+05
  -1.951340e+06  -1.935020e+06
   1.375894e+06  -3.576313e+06
   4.217935e+06  -3.308019e+06
   4.619027e+06  -7.941168e+05
   2.745735e+06   2.609638e+06
   3.820713e+05   4.536556e+06
  -8.477695e+05   3.853411e+06
  -8.513756e+05   1.925550e+06
  -7.799824e+05   8.984225e+05
  -1.488123e+06   1.025212e+06
  -2.501048e+06   6.747613e+05
  -2.607228e+06  -1.027341e+06
  -1.258846e+06  -2.684936e+06
   8.012964e+05  -2.322535e+06
   2.141771e+06   8.036291e+04
   1.725684e+06   2.449093e+06
  -2.977373e+05   2.778867e+06
  -2.520017e+06   9.493043e+05
  -3.213866e+06  -1.475938e+06
  -1.869098e+06  -2.801468e+06
   2.049445e+05  -2.537326e+06
   1.259267e+06  -1.530515e+06
   1.110734e+06  -9.261754e+05
   1.212318e+06  -9.558370e+05
   2.509812e+06  -7.865519e+05
   3.853144e+06   4.033824e+05
   3.195294e+06   2.345394e+06
   1.874220e+05   3.782781e+06
  -3.069414e+06   3.561046e+06
  -4.056696e+06   1.619622e+06
  -2.313126e+06  -8.518565e+05
   2.680414e+05  -2.179906e+06
   1.392379e+06  -1.531028e+06
   4.579424e+05   2.012512e+05
  -1.150548e+06   1.113294e+06
  -1.641335e+06   3.079447e+05
  -6.216446e+05  -1.020008e+06
   6.438659e+05  -1.035220e+06
   6.936077e+05   3.293578e+05
  -5.606921e+05   1.138454e+06
  -1.782001e+06  -1.317402e+05
  -1.569317e+06  -2.561784e+06
   2.570504e+05  -3.703459e+06
   2.540183e+06  -2.256673e+06
   3.690424e+06   6.535722e+05
   2.852838e+06   2.767640e+06
   6.200246e+05   2.823629e+06
  -1.311278e+06   1.406701e+06
  -1.571722e+06   9.423996e+04
  -4.641924e+05  -4.664188e+04
   3.481379e+05   6.951060e+05
  -2.652639e+05   1.142293e+06
  -1.556839e+06   5.424109e+05
  -1.811149e+06  -6.145888e+05
  -4.830340e+05  -1.171454e+06
   1.044040e+06  -6.088113e+05
   1.011571e+06   4.131820e+05
  -6.887772e+05   7.888978e+05
  -2.320792e+06   4.432904e+04
  -2.090362e+06  -1.296539e+06
   2.471278e+04  -2.172341e+06
   2.235875e+06  -1.795359e+06
   2.667469e+06  -3.290088e+05
   1.129884e+06   1.082863e+06
  -7.718668e+05   1.246188e+06
  -1.261310e+06   1.499658e+05
  -8.880786e+04  -8.978714e+05
   1.379161e+06  -6.555697e+05
   1.641200e+06   6.366684e+05
   5.038116e+05   1.544623e+06
  -8.866597e+05   1.118196e+06
  -1.256363e+06  -6.842231e+04
  -4.070923e+05  -6.721208e+05
   6.410190e+05  -9.752297e+04
   6.467173e+05   9.537206e+05
  -5.876766e+05   1.299465e+06
  -1.899686e+06   4.393631e+05
  -1.873940e+06  -1.020562e+06
  -3.596122e+05  -1.919592e+06
   1.283246e+06  -1.547591e+06
   1.600092e+06  -2.741461e+05
   5.536738e+05   7.828415e+05
  -5.809568e+05   8.110358e+05
  -7.027571e+05   5.524545e+04
   3.455658e+04  -5.363210e+05
   6.297303e+05  -3.835867e+05
   4.209513e+05   1.355924e+05
  -2.830431e+05   2.070600e+05
  -5.984919e+05  -4.225588e+05
   3.455768e+04  -1.093390e+06
   1.247507e+06  -8.942805e+05
   1.964868e+06   3.580351e+05
   1.373322e+06   1.820455e+06
  -2.125485e+05   2.332127e+06
  -1.566325e+06   1.478655e+06
  -1.754345e+06  -1.939489e+04
  -1.020699e+06  -9.994196e+05
  -3.452066e+05  -9.507922e+05
  -2.663722e+05  -3.980392e+05
  -3.940811e+05  -2.054145e+05
  -6.671643e+04  -5.864228e+05
   7.653164e+05  -8.969931e+05
   1.421704e+06  -4.183266e+05
   1.146676e+06   7.330608e+05
  -1.484952e+05   1.566008e+06
  -1.662050e+06   1.143637e+06
  -2.208467e+06  -4.274519e+05
  -1.182415e+06  -1.966425e+06
   7.975741e+05  -2.245688e+06
   2.301363e+06  -1.103666e+06
   2.325840e+06   4.581575e+05
   1.149918e+06   1.280946e+06
  -8.009158e+04   1.113470e+06
  -5.289774e+05   6.635229e+05
  -3.382718e+05   6.717820e+05
  -2.183302e+05   1.067126e+06
  -5.836973e+05   1.102152e+06
  -1.141530e+06   2.660566e+05
  -1.227024e+06  -1.043205e+06
  -5.016550e+05  -1.810583e+06
   6.189431e+05  -1.362789e+06
   1.241985e+06  -2.824471e+04
   8.227246e+05   1.145883e+06
  -2.444386e+05   1.322367e+06
  -9.686107e+05   5.466981e+05
  -7.691597e+05  -4.288282e+05
  -5.277834e+04  -9.031743e+05
   3.089822e+05  -7.859794e+05
   4.851051e+03  -4.842276e+05
  -3.690594e+05  -3.623174e+05
  -2.941562e+04  -3.810523e+05
   1.022425e+06  -2.294577e+05
   1.862624e+06   2.696347e+05
   1.538071e+06   9.175022e+05
   9.381036e+04   1.277363e+06
  -1.360924e+06   1.049152e+06
  -1.694568e+06   3.561931e+05
  -8.509312e+05  -3.070896e+05
   1.763932e+05  -4.667055e+05
   4.464985e+05  -1.030788e+05
  -1.579440e+04   2.956628e+05
  -4.737740e+05   2.092127e+05
  -4.357335e+05  -3.292467e+05
  -1.108660e+05  -7.142021e+05
   2.770972e+04  -4.552556e+05
  -1.518768e+05   1.736365e+05
  -3.703604e+05   3.752975e+05
  -2.860014e+05  -2.097912e+05
   2.028530e+05  -9.751061e+05
   8.519203e+05  -9.875604e+05
   1.145439e+06  -9.061093e+04
   6.617290e+05   8.671952e+05
  -3.915243e+05   9.670547e+05
  -1.105995e+06   2.028463e+05
  -6.729460e+05  -5.877257e+05
   6.423640e+05  -6.422555e+05
   1.574788e+06   3.384904e+04
   1.122459e+06   8.090861e+05
  -3.545556e+05   1.054419e+06
  -1.481584e+06   6.213411e+05
  -1.296675e+06  -1.063122e+05
  -1.871469e+05  -5.268298e+05
   6.128844e+05  -3.145985e+05
   3.301480e+05   2.414478e+05
  -6.140266e+05   4.321829e+05
  -1.111302e+06  -1.743884e+05
  -5.201228e+05  -1.171766e+06
   7.027932e+05  -1.567835e+06
   1.484036e+06  -7.486000e+05
   1.188259e+06   7.843672e+05
   1.580568e+05   1.751883e+06
  -7.337216e+05   1.303039e+06
  -9.197190e+05  -1.065343e+05
  -4.843237e+05  -1.150791e+06
   1.272826e+05  -9.989543e+05
   5.177705e+05  -1.212533e+05
   5.168873e+05   3.922964e+05
   2.335856e+05   1.674471e+05
   1.979095e+04  -1.193075e+05
   1.590579e+05   2.219890e+05
   4.427449e+05   9.100037e+05
   2.683428e+05   1.070690e+06
  -5.861132e+05   4.032422e+05
  -1.436138e+06  -4.677805e+05
  -1.318712e+06  -8.293081e+05
  -1.849317e+05  -6.584335e+05
   9.052254e+05  -3.794337e+05
   9.845684e+05  -1.929862e+05
   2.869284e+05   1.911565e+03
  -1.725092e+05   2.048942e+05
   4.966239e+04   2.522680e+05
   3.457593e+05   1.563449e+05
   8.797282e+03   1.311666e+05
  -7.402593e+05   1.705915e+05
  -9.922267e+05  -5.530606e+04
  -2.665046e+05  -6.429037e+05
   9.139608e+05  -1.052472e+06
   1.576040e+06  -6.352972e+05
   1.226835e+06   4.809797e+05
   2.010813e+05   1.369587e+06
  -7.330935e+05   1.280374e+06
  -1.010012e+06   4.354003e+05
  -6.342433e+05  -2.884210e+05
  -8.223277e+04  -3.412107e+05
   1.435779e+05   3.537718e+02
  -5.475952e+04   8.052690e+04
  -3.283693e+05  -3.352071e+05
  -2.604799e+05  -7.846210e+05
   2.012560e+05  -6.280144e+05
   6.639759e+05   1.918006e+05
   6.325107e+05   9.822759e+05
  -5.626522e+03   9.732393e+05
  -7.724637e+05   1.336888e+05
  -9.435875e+05  -7.877535e+05
  -2.570069e+05  -1.042586e+06
   7.054985e+05  -5.713860e+05
   1.027456e+06   1.141273e+05
   4.554360e+05   5.347724e+05
  -2.748712e+05   5.681515e+05
  -2.992874e+05   3.346661e+05
   3.112436e+05   5.147583e+04
   6.435112e+05  -1.031263e+04
   1.095331e+05   2.809120e+05
  -8.071222e+05   6.464889e+05
  -1.159948e+06   5.590170e+05
  -6.579440e+05  -1.167823e+05
   1.134336e+05  -8.013927e+05
   4.766294e+05  -7.865184e+05
   3.296057e+05  -9.933722e+04
  -1.956745e+03   4.884640e+05
  -2.486187e+05   3.700894e+05
  -3.322657e+05  -2.168812e+05
  -2.209723e+05  -5.609231e+05
   7.136067e+04  -3.446758e+05
   3.682816e+05   8.064310e+04
   4.317247e+05   2.290143e+05
   2.344770e+05   5.475854e+04
  -9.165304e+02  -8.762474e+04
  -8.892922e+04   6.774199e+04
  -9.537402e+04   3.736261e+05
  -1.862399e+05   4.378805e+05
  -3.408613e+05   7.386885e+04
  -3.325162e+05  -4.455371e+05
  -1.437581e+04  -6.231037e+05
   4.297124e+05  -2.556159e+05
   5.811620e+05   3.231650e+05
   1.932449e+05   5.796664e+05
  -4.733804e+05   3.317497e+05
  -8.015891e+05  -1.181729e+05
  -4.309281e+05  -3.724506e+05
   2.853481e+05  -3.265392e+05
   5.933035e+05  -1.440512e+05
   1.862566e+05  -6.739877e+03
  -4.025338e+05  -4.627451e+03
  -4.110148e+05  -1.491642e+05
   2.334934e+05  -3.146522e+05
   8.190100e+05  -2.306909e+05
