
 $NMID
 id='ANONYMOUS ', fmtdat='(2E16.6)'
 volume=1.0
 tramp=1.0
 $END
  -3.224999e+07  -1.124454e+06
  -2.032688e+07  -1.714431e+07
   1.908351e+06  -2.069966e+07
   1.477110e+07  -1.166847e+07
   1.103096e+07   4.056992e+05
  -1.411518e+05   5.652979e+06
  -6.321350e+06   1.786351e+06
  -3.898789e+06  -5.371050e+06
   2.248343e+06  -7.896089e+06
   5.989571e+06  -3.070257e+06
   4.821236e+06   4.177504e+06
   4.428574e+05   6.348631e+06
  -2.982356e+06   1.380221e+06
  -2.148919e+06  -5.055527e+06
   2.101982e+06  -5.840268e+06
   5.191353e+06  -1.147141e+05
   3.470989e+06   6.339361e+06
  -1.876676e+06   7.686328e+06
  -6.217540e+06   3.537315e+06
  -6.243416e+06  -1.913412e+06
  -2.816143e+06  -4.616553e+06
   4.192852e+05  -3.941541e+06
   6.575208e+05  -2.270184e+06
  -1.433944e+06  -2.179130e+06
  -2.306673e+06  -3.801611e+06
   6.907307e+05  -4.742740e+06
   5.787774e+06  -2.853304e+06
   7.975468e+06   1.051534e+06
   4.536697e+06   3.842720e+06
  -1.422450e+06   3.405417e+06
  -4.183189e+06   6.357259e+05
  -1.720067e+06  -1.835431e+06
   2.529374e+06  -2.051034e+06
   4.071154e+06   1.214116e+05
   2.050657e+06   3.043406e+06
  -8.743577e+05   4.153580e+06
  -2.027002e+06   2.074144e+06
  -1.082037e+06  -1.341699e+06
   3.718850e+05  -2.303045e+06
   6.151925e+05   4.007196e+05
  -7.132895e+05   3.285908e+06
  -2.233814e+06   2.278082e+06
  -2.003605e+06  -1.758915e+06
   3.757467e+05  -3.771618e+06
   2.853186e+06  -9.715668e+05
   2.686653e+06   3.563316e+06
  -6.411811e+05   4.745834e+06
  -4.502376e+06   1.408495e+06
  -5.385445e+06  -2.985473e+06
  -2.214551e+06  -4.603517e+06
   2.472926e+06  -2.749482e+06
   4.714441e+06   4.414929e+05
   2.793433e+06   2.359039e+06
  -1.104125e+06   1.844614e+06
  -3.109847e+06  -1.661181e+05
  -1.670616e+06  -1.530202e+06
   1.000701e+06  -9.589551e+05
   1.690086e+06   6.435240e+05
  -9.079061e+04   1.287638e+06
  -1.784653e+06   2.481078e+05
  -1.024665e+06  -1.238400e+06
   1.586969e+06  -1.525365e+06
   3.223411e+06  -1.461289e+05
   1.888421e+06   2.085156e+06
  -1.633798e+06   3.731514e+06
  -4.636301e+06   3.383737e+06
  -4.975751e+06   6.519838e+05
  -2.821154e+06  -2.944864e+06
  -2.153397e+05  -4.851660e+06
   1.008459e+06  -3.997164e+06
   8.643409e+05  -1.975670e+06
   7.605304e+05  -1.007631e+06
   1.611710e+06  -1.188282e+06
   2.765518e+06  -7.397246e+05
   2.853844e+06   1.158409e+06
   1.351902e+06   2.939933e+06
  -8.788405e+05   2.524828e+06
  -2.305279e+06  -7.158580e+04
  -1.831989e+06  -2.627297e+06
   3.686014e+05  -2.971846e+06
   2.743063e+06  -9.486491e+05
   3.404431e+06   1.711809e+06
   1.860357e+06   3.095676e+06
  -3.834727e+05   2.687403e+06
  -1.438137e+06   1.517866e+06
  -1.195783e+06   8.810733e+05
  -1.272836e+06   9.556973e+05
  -2.649621e+06   7.732977e+05
  -4.057313e+06  -5.139684e+05
  -3.329779e+06  -2.553192e+06
  -1.229282e+05  -4.015234e+06
   3.335331e+06  -3.730036e+06
   4.371935e+06  -1.652593e+06
   2.476990e+06   9.683567e+05
  -3.250884e+05   2.355498e+06
  -1.535468e+06   1.626959e+06
  -4.954953e+05  -2.300299e+05
   1.253911e+06  -1.170310e+06
   1.752284e+06  -2.836473e+05
   6.289467e+05   1.113437e+06
  -7.055482e+05   1.100628e+06
  -7.310675e+05  -3.375733e+05
   5.701440e+05  -1.168192e+06
   1.800611e+06   1.553457e+05
   1.573188e+06   2.660082e+06
  -2.825466e+05   3.832448e+06
  -2.632900e+06   2.332520e+06
  -3.857296e+06  -7.037490e+05
  -3.003946e+06  -2.934607e+06
  -6.404126e+05  -2.999451e+06
   1.418238e+06  -1.482788e+06
   1.682581e+06  -7.712104e+04
   4.925801e+05   5.799720e+04
  -3.559017e+05  -7.434935e+05
   3.112622e+05  -1.195998e+06
   1.660256e+06  -5.270720e+05
   1.891879e+06   6.916378e+05
   4.793016e+05   1.240170e+06
  -1.112842e+06   6.228964e+05
  -1.067254e+06  -4.423555e+05
   7.193853e+05  -8.193882e+05
   2.439826e+06  -3.140716e+04
   2.203796e+06   1.377754e+06
  -3.653995e+04   2.293116e+06
  -2.388343e+06   1.874117e+06
  -2.833797e+06   3.060942e+05
  -1.170627e+06  -1.170650e+06
   8.556997e+05  -1.298949e+06
   1.341842e+06  -1.179932e+05
   6.611316e+04   9.619736e+05
  -1.479343e+06   6.658972e+05
  -1.722877e+06  -7.030791e+05
  -5.081292e+05  -1.633357e+06
   9.430086e+05  -1.161552e+06
   1.314238e+06   8.640854e+04
   4.166777e+05   7.048574e+05
  -6.769076e+05   8.244182e+04
  -6.647595e+05  -1.028638e+06
   6.529195e+05  -1.372417e+06
   2.032283e+06  -4.308564e+05
   1.973452e+06   1.123061e+06
   3.432684e+05   2.045112e+06
  -1.390486e+06   1.613526e+06
  -1.697397e+06   2.605174e+05
  -5.716079e+05  -8.338258e+05
   6.265095e+05  -8.476831e+05
   7.499785e+05  -5.472120e+04
  -2.872466e+04   5.646226e+05
  -6.619451e+05   4.124286e+05
  -4.549305e+05  -1.264329e+05
   2.785529e+05  -2.062811e+05
   6.111232e+05   4.476381e+05
  -5.709690e+04   1.146546e+06
  -1.336578e+06   9.225846e+05
  -2.077574e+06  -4.160852e+05
  -1.423838e+06  -1.959576e+06
   2.645607e+05  -2.474569e+06
   1.678611e+06  -1.547508e+06
   1.856542e+06   3.740257e+04
   1.082244e+06   1.063848e+06
   3.792871e+05   1.016802e+06
   2.898942e+05   4.463779e+05
   4.043202e+05   2.416032e+05
   4.804092e+04   6.242025e+05
  -8.246608e+05   9.341238e+05
  -1.509051e+06   4.244542e+05
  -1.211263e+06  -7.870197e+05
   1.689613e+05  -1.655725e+06
   1.775614e+06  -1.189178e+06
   2.336621e+06   4.867314e+05
   1.219832e+06   2.100323e+06
  -8.852399e+05   2.357063e+06
  -2.451873e+06   1.123082e+06
  -2.448968e+06  -5.176691e+05
  -1.202746e+06  -1.360082e+06
   8.456897e+04  -1.174118e+06
   5.602683e+05  -7.117022e+05
   3.786312e+05  -7.300311e+05
   2.676885e+05  -1.137858e+06
   6.495443e+05  -1.154152e+06
   1.219387e+06  -2.541921e+05
   1.285773e+06   1.134083e+06
   5.012331e+05   1.934813e+06
  -6.823393e+05   1.439056e+06
  -1.317375e+06   1.008661e+04
  -8.477539e+05  -1.226420e+06
   2.818530e+05  -1.389193e+06
   1.022669e+06  -5.537051e+05
   7.888997e+05   4.662712e+05
   3.181097e+04   9.438882e+05
  -3.357977e+05   8.123270e+05
  -4.893907e+03   5.087736e+05
   3.889563e+05   3.958736e+05
   2.559857e+04   4.080879e+05
  -1.086784e+06   2.198865e+05
  -1.968652e+06  -3.276828e+05
  -1.611629e+06  -1.001084e+06
  -7.094993e+04  -1.345972e+06
   1.465524e+06  -1.076611e+06
   1.797664e+06  -3.454233e+05
   8.848305e+05   3.339837e+05
  -2.013222e+05   4.853556e+05
  -4.693771e+05   9.897499e+04
   3.187515e+04  -3.165618e+05
   5.110329e+05  -2.182109e+05
   4.572613e+05   3.595578e+05
   1.058748e+05   7.728434e+05
  -3.908227e+04   4.938743e+05
   1.572795e+05  -1.848191e+05
   3.928622e+05  -4.027635e+05
   2.994490e+05   2.258342e+05
  -2.305130e+05   1.039167e+06
  -9.251441e+05   1.033416e+06
  -1.223589e+06   6.125737e+04
  -6.854748e+05  -9.466343e+05
   4.437465e+05  -1.018713e+06
   1.188326e+06  -1.861393e+05
   7.081749e+05   6.392548e+05
  -6.912002e+05   6.690098e+05
  -1.668109e+06  -5.725170e+04
  -1.179273e+06  -8.641781e+05
   3.835724e+05  -1.105768e+06
   1.570561e+06  -6.411694e+05
   1.370391e+06   1.235915e+05
   1.937309e+05   5.580262e+05
  -6.511978e+05   3.236124e+05
  -3.423710e+05  -2.651828e+05
   6.669696e+05  -4.527200e+05
   1.186668e+06   2.078113e+05
   5.346932e+05   1.266236e+06
  -7.816561e+05   1.666198e+06
  -1.600296e+06   7.745878e+05
  -1.254648e+06  -8.562432e+05
  -1.406390e+05  -1.868356e+06
   7.965182e+05  -1.375181e+06
   9.699421e+05   1.251011e+05
   4.965362e+05   1.224517e+06
  -1.446557e+05   1.052185e+06
  -5.480799e+05   1.183763e+05
  -5.463322e+05  -4.194112e+05
  -2.497732e+05  -1.749691e+05
  -1.998975e+04   1.242015e+05
  -1.577711e+05  -2.484562e+05
  -4.525764e+05  -9.788776e+05
  -2.714356e+05  -1.134491e+06
   6.260283e+05  -4.090307e+05
   1.520517e+06   5.199660e+05
   1.390939e+06   8.953785e+05
   1.841454e+05   7.020178e+05
  -9.719698e+05   3.959693e+05
  -1.048370e+06   1.924039e+05
  -2.992164e+05  -1.222463e+04
   1.884349e+05  -2.179194e+05
  -5.516198e+04  -2.612906e+05
  -3.726166e+05  -1.638070e+05
  -6.846607e+03  -1.436499e+05
   7.968402e+05  -1.784530e+05
   1.057989e+06   7.778092e+04
   2.679618e+05   7.028359e+05
  -9.990048e+05   1.112709e+06
  -1.694706e+06   6.411612e+05
  -1.300922e+06  -5.464677e+05
  -1.912968e+05  -1.466033e+06
   8.054628e+05  -1.347416e+06
   1.089598e+06  -4.444917e+05
   6.760433e+05   3.179291e+05
   8.055377e+04   3.688937e+05
  -1.603440e+05   4.189289e+03
   5.255961e+04  -8.309979e+04
   3.418974e+05   3.575616e+05
   2.645054e+05   8.361578e+05
  -2.277152e+05   6.667840e+05
  -7.106155e+05  -2.153517e+05
  -6.616538e+05  -1.064213e+06
   2.618677e+04  -1.046710e+06
   8.353200e+05  -1.326703e+05
   9.991366e+05   8.604104e+05
   2.537894e+05   1.121102e+06
  -7.687000e+05   5.964256e+05
  -1.094262e+06  -1.446853e+05
  -4.684253e+05  -5.816003e+05
   3.110030e+05  -5.980358e+05
   3.250822e+05  -3.433039e+05
  -3.356298e+05  -5.268005e+04
  -6.875455e+05   1.614250e+03
  -1.095623e+05  -3.037256e+05
   8.699515e+05  -6.748072e+05
   1.237679e+06  -5.694227e+05
   6.905921e+05   1.428233e+05
  -1.383351e+05   8.518042e+05
  -5.234320e+05   8.215788e+05
  -3.571917e+05   9.051761e+04
   8.133406e+03  -5.255124e+05
   2.762354e+05  -3.905926e+05
   3.577292e+05   2.379777e+05
   2.256373e+05   6.027873e+05
  -8.932657e+04   3.666125e+05
  -3.942097e+05  -9.339914e+04
  -4.502276e+05  -2.531413e+05
  -2.441914e+05  -6.157754e+04
  -7.214565e+03   9.594878e+04
   8.377608e+04  -7.299783e+04
   1.055135e+05  -4.078436e+05
   2.174300e+05  -4.764206e+05
   3.792053e+05  -7.465910e+04
   3.534185e+05   4.924606e+05
   2.808617e+03   6.778860e+05
  -4.669853e+05   2.679146e+05
  -6.176719e+05  -3.607376e+05
  -1.979771e+05  -6.257025e+05
   5.110281e+05  -3.427094e+05
   8.547206e+05   1.452868e+05
   4.524283e+05   4.068529e+05
  -3.155638e+05   3.418311e+05
  -6.414408e+05   1.396031e+05
  -1.986527e+05  -2.281913e+03
   4.367333e+05   4.955290e+03
   4.445845e+05   1.646755e+05
  -2.507265e+05   3.390834e+05
  -8.795953e+05   2.425587e+05
