
 $NMID
 id='ANONYMOUS ', fmtdat='(2E16.6)'
 volume=1.0
 tramp=1.0
 $END
  -6.010794e+07   2.765578e+06
  -3.770183e+07  -3.631042e+07
   6.633153e+06  -4.137028e+07
   2.914526e+07  -1.630560e+07
   1.776918e+07   7.506842e+06
  -3.460970e+06   1.013508e+07
  -1.052891e+07  -1.364027e+06
  -2.979478e+06  -1.045059e+07
   6.556199e+06  -9.823899e+06
   1.021022e+07  -2.182045e+06
   7.569053e+06   6.220136e+06
   1.207805e+06   8.876805e+06
  -3.997099e+06   3.122325e+06
  -2.854011e+06  -5.343611e+06
   3.823722e+06  -6.763796e+06
   8.375135e+06   1.269696e+06
   5.007787e+06   1.064197e+07
  -3.599664e+06   1.260323e+07
  -1.044660e+07   6.718887e+06
  -1.159583e+07  -1.556814e+06
  -7.592005e+06  -7.587234e+06
  -1.340595e+06  -9.367903e+06
   2.976799e+06  -6.878553e+06
   2.370827e+06  -2.950722e+06
  -8.447760e+05  -1.828196e+06
  -5.262141e+05  -3.956042e+06
   5.059743e+06  -4.764861e+06
   9.768170e+06  -1.132604e+06
   7.558643e+06   3.819700e+06
   7.870787e+05   5.233378e+06
  -3.421405e+06   2.997153e+06
  -2.507467e+06   4.740747e+05
   2.488012e+05  -6.487425e+05
   1.865689e+06  -5.903591e+05
   2.165992e+06   1.036721e+06
   1.086368e+06   3.750270e+06
  -1.550636e+06   4.184050e+06
  -3.551406e+06   3.174984e+05
  -2.246878e+06  -3.704140e+06
   6.418049e+05  -2.371850e+06
   5.742561e+05   2.212145e+06
  -2.405418e+06   2.357430e+06
  -2.651337e+06  -3.338844e+06
   2.512922e+06  -6.657622e+06
   7.604336e+06  -1.379207e+06
   5.849424e+06   7.226151e+06
  -1.728688e+06   9.239478e+06
  -7.773295e+06   2.908083e+06
  -7.344136e+06  -4.412428e+06
  -1.979418e+06  -6.194077e+06
   3.552787e+06  -2.811030e+06
   5.390069e+06   1.547633e+06
   2.471685e+06   3.612833e+06
  -2.560241e+06   2.362919e+06
  -4.799629e+06  -8.695487e+05
  -2.106778e+06  -2.848687e+06
   1.776794e+06  -1.510815e+06
   1.775408e+06   1.038872e+06
  -1.528170e+06   9.320322e+05
  -2.716517e+06  -2.007578e+06
   7.200075e+05  -3.901587e+06
   5.070046e+06  -2.212792e+06
   5.731209e+06   1.382900e+06
   2.562747e+06   4.201031e+06
  -1.604219e+06   5.546786e+06
  -4.826115e+06   5.212867e+06
  -6.256171e+06   2.153677e+06
  -4.955458e+06  -2.959781e+06
  -1.296564e+06  -6.294350e+06
   1.838079e+06  -4.953709e+06
   1.915318e+06  -1.157185e+06
   1.170046e+05   5.065857e+05
  -3.507266e+05  -8.571935e+05
   1.276640e+06  -1.962385e+06
   2.714686e+06  -5.756861e+05
   2.149765e+06   1.642259e+06
   2.382161e+05   2.021540e+06
  -1.387167e+06   2.679522e+05
  -1.674675e+06  -1.920748e+06
  -1.534141e+05  -2.893463e+06
   2.673724e+06  -1.853126e+06
   4.645455e+06   9.123014e+05
   3.582813e+06   3.702545e+06
   2.137955e+05   4.465781e+06
  -2.285647e+06   3.019844e+06
  -2.366617e+06   1.284533e+06
  -1.920067e+06   7.024260e+05
  -2.981447e+06   5.137409e+05
  -4.412961e+06  -6.751990e+05
  -3.582058e+06  -2.695027e+06
  -2.447036e+05  -4.128822e+06
   3.059895e+06  -3.997372e+06
   4.044400e+06  -2.304843e+06
   2.669421e+06   2.354607e+05
   4.450347e+05   2.170988e+06
  -9.483704e+05   1.998509e+06
  -5.684059e+05   2.031634e+04
   1.012754e+06  -1.355895e+06
   1.918768e+06  -4.784743e+05
   1.014062e+06   1.183525e+06
  -4.503352e+05   1.121316e+06
  -3.815449e+05  -4.021163e+05
   1.166209e+06  -6.547548e+05
   1.950427e+06   1.457177e+06
   5.887925e+05   3.668755e+06
  -1.780748e+06   3.421802e+06
  -3.263532e+06   9.704178e+05
  -3.262426e+06  -1.533107e+06
  -2.183929e+06  -2.698477e+06
  -4.610741e+05  -2.525136e+06
   1.168028e+06  -1.481625e+06
   1.543326e+06  -2.934351e+05
   4.938385e+05   3.128159e+04
  -3.782620e+05  -7.458346e+05
   3.954607e+05  -1.388832e+06
   1.945981e+06  -6.495742e+05
   2.098910e+06   8.743851e+05
   4.091023e+05   1.452887e+06
  -1.175888e+06   5.927860e+05
  -8.636565e+05  -4.466361e+05
   8.813959e+05  -4.816824e+05
   2.151908e+06   3.599006e+05
   1.676136e+06   1.336156e+06
  -2.660170e+05   1.919068e+06
  -2.266724e+06   1.658538e+06
  -2.761179e+06   3.293259e+05
  -1.265421e+06  -1.258567e+06
   8.894299e+05  -1.576620e+06
   1.605056e+06  -2.547970e+05
   2.642642e+05   1.098794e+06
  -1.508476e+06   7.934449e+05
  -1.745115e+06  -7.621718e+05
  -3.383926e+05  -1.663161e+06
   1.117082e+06  -9.699435e+05
   1.267131e+06   3.397519e+05
   2.286301e+05   8.055586e+05
  -8.273725e+05   7.350337e+04
  -7.825480e+05  -1.041638e+06
   5.228699e+05  -1.451405e+06
   1.990499e+06  -6.181092e+05
   2.079439e+06   9.848958e+05
   4.455393e+05   2.078752e+06
  -1.417754e+06   1.692571e+06
  -1.738129e+06   2.402065e+05
  -5.095608e+05  -8.730042e+05
   6.528506e+05  -8.130606e+05
   6.053130e+05  -9.113511e+04
  -1.422768e+05   3.199877e+05
  -4.573206e+05   1.630559e+05
  -4.137399e+04  -6.470060e+04
   5.062706e+05   1.267906e+05
   5.230927e+05   7.213449e+05
  -2.146703e+05   1.212855e+06
  -1.379093e+06   9.256495e+05
  -2.099558e+06  -3.667050e+05
  -1.524996e+06  -1.910369e+06
   1.517376e+05  -2.419282e+06
   1.579209e+06  -1.418873e+06
   1.662044e+06   1.176359e+05
   8.179456e+05   8.504157e+05
   2.998986e+05   5.614013e+05
   5.176562e+05   1.445750e+05
   6.936726e+05   3.059408e+05
   1.260236e+05   7.963945e+05
  -8.729112e+05   9.179629e+05
  -1.435223e+06   3.307899e+05
  -1.025808e+06  -6.929032e+05
   2.476890e+05  -1.425453e+06
   1.695279e+06  -1.083626e+06
   2.244187e+06   4.368487e+05
   1.164589e+06   2.085084e+06
  -9.888098e+05   2.405410e+06
  -2.554351e+06   1.075378e+06
  -2.356842e+06  -6.475059e+05
  -9.276125e+05  -1.328356e+06
   2.266117e+05  -9.029488e+05
   3.463321e+05  -4.623071e+05
  -1.491505e+04  -7.483209e+05
   2.354851e+04  -1.347635e+06
   6.406895e+05  -1.343255e+06
   1.305798e+06  -3.703459e+05
   1.378477e+06   1.035864e+06
   6.161419e+05   1.874799e+06
  -5.743415e+05   1.453647e+06
  -1.282651e+06   2.357559e+04
  -8.391299e+05  -1.284816e+06
   3.861790e+05  -1.417141e+06
   1.199819e+06  -4.036340e+05
   8.472266e+05   7.380230e+05
  -1.310774e+05   1.123106e+06
  -5.723754e+05   7.996224e+05
  -1.006174e+05   3.998164e+05
   4.512836e+05   3.088481e+05
   7.689300e+04   3.750690e+05
  -1.164056e+06   2.384698e+05
  -2.102653e+06  -2.808513e+05
  -1.650738e+06  -1.010728e+06
   2.758053e+04  -1.469343e+06
   1.596594e+06  -1.205524e+06
   1.843830e+06  -3.062261e+05
   8.430783e+05   5.206854e+05
  -2.598815e+05   6.022701e+05
  -5.271215e+05   3.089186e+04
  -6.286685e+04  -4.466283e+05
   4.179305e+05  -2.778269e+05
   4.977750e+05   3.253285e+05
   3.106189e+05   6.982710e+05
   1.450803e+05   4.677434e+05
   1.346881e+05  -7.233858e+04
   2.471847e+05  -2.636527e+05
   2.754272e+05   2.296255e+05
  -9.532278e+04   9.741967e+05
  -8.672271e+05   1.100425e+06
  -1.396506e+06   2.497966e+05
  -9.249042e+05  -8.788476e+05
   3.735046e+05  -1.188055e+06
   1.266937e+06  -4.186366e+05
   7.556864e+05   5.360474e+05
  -6.938953e+05   6.628752e+05
  -1.576035e+06  -7.425610e+04
  -9.785287e+05  -8.523745e+05
   4.997837e+05  -9.750366e+05
   1.481306e+06  -4.626686e+05
   1.204746e+06   1.910030e+05
   1.261189e+05   5.031371e+05
  -6.489816e+05   2.688484e+05
  -4.086071e+05  -2.932737e+05
   5.445448e+05  -5.588290e+05
   1.184562e+06   8.286732e+03
   7.485223e+05   1.134813e+06
  -4.803663e+05   1.732306e+06
  -1.424154e+06   9.641726e+05
  -1.280620e+06  -6.948074e+05
  -2.690029e+05  -1.769478e+06
   6.974076e+05  -1.291473e+06
   9.238211e+05   1.757346e+05
   4.387687e+05   1.182472e+06
  -2.299485e+05   9.557524e+05
  -5.718257e+05   8.658480e+04
  -4.466278e+05  -3.577938e+05
  -1.332654e+05  -1.250617e+05
  -5.933238e+04   8.794094e+04
  -3.394606e+05  -3.020213e+05
  -5.600143e+05  -9.538747e+05
  -1.848707e+05  -1.066062e+06
   7.467927e+05  -4.158398e+05
   1.478987e+06   4.127887e+05
   1.265286e+06   7.952268e+05
   2.044305e+05   6.990425e+05
  -8.005677e+05   4.481019e+05
  -9.631393e+05   2.010867e+05
  -3.938982e+05  -5.804493e+04
   1.225373e+05  -2.325925e+05
   7.303377e+04  -1.893758e+05
  -2.193267e+05  -6.457205e+04
  -7.334576e+04  -1.260136e+05
   5.993443e+05  -2.741585e+05
   1.049747e+06  -4.617615e+04
   5.303173e+05   6.737160e+05
  -7.433069e+05   1.234873e+06
  -1.693825e+06   8.653682e+05
  -1.483836e+06  -3.372472e+05
  -3.531412e+05  -1.382162e+06
   7.182518e+05  -1.424201e+06
   1.022585e+06  -6.160301e+05
   6.549195e+05   1.770969e+05
   1.703756e+05   3.507567e+05
  -2.238563e+04   9.380682e+04
   9.949715e+04   1.110812e+04
   2.948147e+05   3.715011e+05
   2.624331e+05   7.989836e+05
  -1.376055e+05   6.961263e+05
  -6.728863e+05  -5.723014e+04
  -8.084072e+05  -8.803145e+05
  -2.191578e+05  -1.024962e+06
   7.058212e+05  -3.278842e+05
   1.079719e+06   6.243182e+05
   4.327567e+05   1.071273e+06
  -6.683407e+05   7.467401e+05
  -1.144040e+06  -4.367672e+03
  -5.917447e+05  -6.172945e+05
   2.532665e+05  -7.363948e+05
   4.008537e+05  -4.003097e+05
  -2.012389e+05   1.559625e+04
  -6.344788e+05   7.650316e+04
  -1.777035e+05  -3.079186e+05
   7.932047e+05  -7.111436e+05
   1.274678e+06  -5.691623e+05
   8.187831e+05   1.721119e+05
  -4.863256e+04   8.909290e+05
  -5.485158e+05   9.045786e+05
  -4.596626e+05   2.199478e+05
  -9.958272e+04  -4.547912e+05
   2.063729e+05  -4.708933e+05
   3.524002e+05   8.874652e+04
   2.890169e+05   5.619522e+05
  -1.634592e+04   4.663640e+05
  -3.929130e+05  -6.481263e+03
  -5.067471e+05  -2.842755e+05
  -2.501394e+05  -1.103150e+05
   6.620270e+04   1.789229e+05
   9.229116e+04   1.069593e+05
  -8.545459e+04  -3.197506e+05
  -6.569963e+04  -5.902218e+05
   2.731909e+05  -3.090986e+05
   5.286341e+05   2.993089e+05
   2.648374e+05   6.248849e+05
  -3.677579e+05   3.545533e+05
  -7.042816e+05  -2.131745e+05
  -3.040310e+05  -5.402378e+05
   5.003138e+05  -3.994412e+05
   9.096678e+05   7.125872e+03
   5.113930e+05   3.498439e+05
  -2.692236e+05   4.480212e+05
  -6.343645e+05   3.028493e+05
  -2.828117e+05   4.194536e+04
   2.908982e+05  -1.172402e+05
   3.870292e+05  -5.173641e+03
  -1.159254e+05   2.668376e+05
  -6.632912e+05   3.064941e+05
