
 $NMID
 id='ANONYMOUS ', fmtdat='(2E16.6)'
 volume=1.0
 tramp=1.0
 $END
  -5.775187e+07  -5.641132e+05
  -3.414627e+07  -3.656432e+07
   8.437055e+06  -3.912220e+07
   2.858738e+07  -1.422418e+07
   1.657240e+07   7.866123e+06
  -3.740493e+06   9.472156e+06
  -9.954204e+06  -1.701793e+06
  -2.418415e+06  -1.006566e+07
   6.629677e+06  -9.149717e+06
   9.844162e+06  -1.673668e+06
   6.988111e+06   6.355313e+06
   7.432024e+05   8.638994e+06
  -4.034012e+06   2.795056e+06
  -2.557635e+06  -5.346581e+06
   3.936327e+06  -6.386207e+06
   7.957819e+06   1.582374e+06
   4.306855e+06   1.044588e+07
  -4.056174e+06   1.192118e+07
  -1.037305e+07   5.913358e+06
  -1.105435e+07  -2.134582e+06
  -6.833880e+06  -7.717472e+06
  -7.119228e+05  -9.017795e+06
   3.201137e+06  -6.329282e+06
   2.266295e+06  -2.642521e+06
  -8.996107e+05  -1.871009e+06
  -3.390756e+05  -3.974186e+06
   5.228157e+06  -4.416009e+06
   9.594549e+06  -5.909674e+05
   7.118850e+06   4.114772e+06
   4.130287e+05   5.136855e+06
  -3.574708e+06   2.720434e+06
  -2.510164e+06   2.342362e+05
   3.332254e+05  -7.703216e+05
   1.980889e+06  -5.492122e+05
   2.146000e+06   1.194815e+06
   8.479534e+05   3.796875e+06
  -1.761296e+06   3.955913e+06
  -3.423592e+06   2.150177e+04
  -1.893042e+06  -3.726754e+06
   8.043258e+05  -2.163592e+06
   4.551569e+05   2.283269e+06
  -2.435688e+06   2.214031e+06
  -2.393164e+06  -3.309893e+06
   2.692527e+06  -6.219859e+06
   7.280445e+06  -9.004888e+05
   5.194377e+06   7.215593e+06
  -2.121904e+06   8.734352e+06
  -7.610134e+06   2.387809e+06
  -6.893659e+06  -4.582619e+06
  -1.675539e+06  -6.054262e+06
   3.530824e+06  -2.587087e+06
   5.155110e+06   1.678401e+06
   2.265739e+06   3.555262e+06
  -2.538647e+06   2.147731e+06
  -4.563891e+06  -1.046356e+06
  -1.895754e+06  -2.815355e+06
   1.775265e+06  -1.362441e+06
   1.684150e+06   1.064908e+06
  -1.448701e+06   8.271694e+05
  -2.468357e+06  -1.985077e+06
   8.490517e+05  -3.607878e+06
   4.899119e+06  -1.836527e+06
   5.391820e+06   1.568534e+06
   2.257041e+06   4.126447e+06
  -1.832031e+06   5.289391e+06
  -4.966610e+06   4.838833e+06
  -6.193877e+06   1.769802e+06
  -4.643836e+06  -3.147517e+06
  -9.436947e+05  -6.178066e+06
   1.969118e+06  -4.712642e+06
   1.838515e+06  -1.070694e+06
   7.744405e+04   4.039172e+05
  -2.269577e+05  -9.343515e+05
   1.435722e+06  -1.865818e+06
   2.744815e+06  -3.852723e+05
   2.050370e+06   1.776546e+06
   1.220471e+05   2.050213e+06
  -1.424698e+06   2.256182e+05
  -1.602080e+06  -1.971673e+06
  -2.292764e+04  -2.861059e+06
   2.719322e+06  -1.677015e+06
   4.483963e+06   1.140967e+06
   3.272833e+06   3.783159e+06
  -3.867368e+04   4.315470e+06
  -2.355616e+06   2.775290e+06
  -2.320656e+06   1.115587e+06
  -1.866487e+06   6.105937e+05
  -2.915162e+06   3.980169e+05
  -4.277194e+06  -8.240307e+05
  -3.395978e+06  -2.770729e+06
  -8.145738e+04  -4.052778e+06
   3.164407e+06  -3.802735e+06
   4.083112e+06  -2.091628e+06
   2.621333e+06   3.691340e+05
   3.259644e+05   2.177407e+06
  -1.041869e+06   1.924645e+06
  -5.617104e+05  -1.545432e+04
   1.059269e+06  -1.290459e+06
   1.895065e+06  -3.841531e+05
   9.292445e+05   1.205184e+06
  -4.948051e+05   1.089009e+06
  -3.738614e+05  -3.935773e+05
   1.120597e+06  -6.047934e+05
   1.808559e+06   1.439614e+06
   4.599352e+05   3.534077e+06
  -1.780870e+06   3.259179e+06
  -3.156687e+06   8.794613e+05
  -3.143265e+06  -1.558817e+06
  -2.090822e+06  -2.706738e+06
  -3.854351e+05  -2.508051e+06
   1.209801e+06  -1.418136e+06
   1.536414e+06  -2.261026e+05
   4.834445e+05   4.962511e+04
  -3.423878e+05  -7.451186e+05
   4.400329e+05  -1.334187e+06
   1.920100e+06  -5.505827e+05
   2.008364e+06   9.304436e+05
   3.442826e+05   1.425314e+06
  -1.169718e+06   5.372019e+05
  -8.396901e+05  -4.624554e+05
   8.625151e+05  -4.516859e+05
   2.097251e+06   4.016084e+05
   1.621557e+06   1.354464e+06
  -3.063047e+05   1.881659e+06
  -2.279584e+06   1.557998e+06
  -2.721402e+06   2.245397e+05
  -1.186747e+06  -1.277300e+06
   9.357211e+05  -1.497692e+06
   1.573090e+06  -1.762983e+05
   2.047879e+05   1.085804e+06
  -1.509420e+06   7.155918e+05
  -1.679149e+06  -8.075926e+05
  -2.787201e+05  -1.634498e+06
   1.114642e+06  -9.133490e+05
   1.222927e+06   3.649077e+05
   2.003118e+05   7.863845e+05
  -8.061364e+05   3.727632e+04
  -7.231097e+05  -1.052637e+06
   5.738916e+05  -1.404108e+06
   1.981192e+06  -5.262313e+05
   2.001514e+06   1.050243e+06
   3.555531e+05   2.054544e+06
  -1.451244e+06   1.602455e+06
  -1.708654e+06   1.723968e+05
  -4.691501e+05  -8.695307e+05
   6.666844e+05  -7.735416e+05
   6.044024e+05  -7.007845e+04
  -1.378400e+05   3.168229e+05
  -4.562279e+05   1.620972e+05
  -6.057486e+04  -5.468410e+04
   4.696962e+05   1.333083e+05
   4.823118e+05   7.093325e+05
  -2.482538e+05   1.172559e+06
  -1.382722e+06   8.561124e+05
  -2.044808e+06  -4.379360e+05
  -1.422351e+06  -1.932501e+06
   2.392960e+05  -2.371390e+06
   1.598875e+06  -1.342895e+06
   1.630987e+06   1.646398e+05
   7.907139e+05   8.640755e+05
   2.925782e+05   5.801248e+05
   5.010249e+05   1.822999e+05
   6.527780e+05   3.310809e+05
   8.574544e+04   7.792131e+05
  -8.852882e+05   8.676598e+05
  -1.418954e+06   2.799329e+05
  -9.927960e+05  -7.141892e+05
   2.823249e+05  -1.396719e+06
   1.700670e+06  -1.008946e+06
   2.189617e+06   5.080799e+05
   1.069318e+06   2.084040e+06
  -1.052127e+06   2.315714e+06
  -2.535093e+06   9.607163e+05
  -2.286167e+06  -7.099703e+05
  -8.753911e+05  -1.327431e+06
   2.387891e+05  -8.850436e+05
   3.581471e+05  -4.596386e+05
   3.192240e+04  -7.457890e+05
   9.019839e+04  -1.317424e+06
   6.826852e+05  -1.284227e+06
   1.292418e+06  -3.074429e+05
   1.312152e+06   1.072378e+06
   5.326408e+05   1.865855e+06
  -6.208122e+05   1.406467e+06
  -1.259776e+06  -2.267277e+04
  -7.744705e+05  -1.286096e+06
   4.252993e+05  -1.369931e+06
   1.176760e+06  -3.537389e+05
   7.919570e+05   7.424852e+05
  -1.668621e+05   1.081852e+06
  -5.778837e+05   7.558180e+05
  -1.048320e+05   3.901897e+05
   4.310520e+05   3.249894e+05
   6.061089e+04   3.735681e+05
  -1.146116e+06   1.885300e+05
  -2.045469e+06  -3.573481e+05
  -1.579016e+06  -1.050615e+06
   7.928220e+04  -1.429719e+06
   1.605820e+06  -1.113350e+06
   1.814178e+06  -2.340308e+05
   8.032175e+05   5.302624e+05
  -2.772976e+05   5.733063e+05
  -5.126410e+05   1.274044e+04
  -3.691653e+04  -4.367298e+05
   4.257362e+05  -2.574624e+05
   4.752326e+05   3.395068e+05
   2.719988e+05   7.055507e+05
   1.174042e+05   4.707580e+05
   1.319594e+05  -7.225317e+04
   2.542381e+05  -2.609647e+05
   2.629125e+05   2.339901e+05
  -1.326382e+05   9.588909e+05
  -8.944154e+05   1.045982e+06
  -1.375476e+06   1.799558e+05
  -8.655544e+05  -9.055215e+05
   4.175890e+05  -1.144987e+06
   1.260325e+06  -3.510588e+05
   7.223219e+05   5.588471e+05
  -7.033607e+05   6.248024e+05
  -1.545439e+06  -1.255157e+05
  -9.382196e+05  -8.643445e+05
   5.148673e+05  -9.399250e+05
   1.466541e+06  -4.115987e+05
   1.179372e+06   2.218386e+05
   1.105051e+05   4.979629e+05
  -6.439336e+05   2.427326e+05
  -3.857304e+05  -3.029614e+05
   5.630571e+05  -5.269366e+05
   1.167060e+06   6.021848e+04
   6.867220e+05   1.152145e+06
  -5.494849e+05   1.686803e+06
  -1.444660e+06   8.902653e+05
  -1.233854e+06  -7.353374e+05
  -1.971191e+05  -1.752370e+06
   7.317596e+05  -1.247626e+06
   8.994773e+05   2.014853e+05
   3.915564e+05   1.174608e+06
  -2.525423e+05   9.301126e+05
  -5.613445e+05   6.501532e+04
  -4.315470e+05  -3.663935e+05
  -1.332335e+05  -1.259699e+05
  -5.823908e+04   8.444821e+04
  -3.113758e+05  -3.115419e+05
  -5.101065e+05  -9.595044e+05
  -1.491124e+05  -1.051660e+06
   7.411936e+05  -3.763346e+05
   1.439808e+06   4.613978e+05
   1.220460e+06   8.253694e+05
   1.743532e+05   6.931332e+05
  -8.103846e+05   4.134233e+05
  -9.553238e+05   1.647848e+05
  -3.779028e+05  -7.192448e+04
   1.320283e+05  -2.249103e+05
   6.989588e+04  -1.821587e+05
  -2.231577e+05  -7.092687e+04
  -6.475752e+04  -1.291887e+05
   6.096827e+05  -2.489912e+05
   1.034736e+06  -1.846631e+03
   4.838912e+05   6.891626e+05
  -7.888846e+05   1.185785e+06
  -1.698178e+06   7.764117e+05
  -1.439963e+06  -3.996852e+05
  -2.913982e+05  -1.376295e+06
   7.616520e+05  -1.368950e+06
   1.032977e+06  -5.609233e+05
   6.410083e+05   2.031254e+05
   1.506506e+05   3.536666e+05
  -3.480769e+04   9.135458e+04
   9.180486e+04   1.150066e+04
   2.773208e+05   3.724583e+05
   2.296944e+05   7.940844e+05
  -1.651677e+05   6.786962e+05
  -6.642383e+05  -8.662114e+04
  -7.594485e+05  -9.052126e+05
  -1.669087e+05  -1.021207e+06
   7.158938e+05  -2.908183e+05
   1.039371e+06   6.644060e+05
   3.786545e+05   1.073453e+06
  -6.913914e+05   7.038190e+05
  -1.123084e+06  -5.369632e+04
  -5.506420e+05  -6.285018e+05
   2.819201e+05  -7.078156e+05
   4.054918e+05  -3.726626e+05
  -2.063293e+05   9.213608e+03
  -6.294335e+05   5.034383e+04
  -1.597017e+05  -3.101248e+05
   8.076357e+05  -6.690732e+05
   1.267721e+06  -5.106715e+05
   7.890651e+05   2.008609e+05
  -8.522351e+04   8.722907e+05
  -5.715023e+05   8.618920e+05
  -4.576637e+05   1.895323e+05
  -7.842464e+04  -4.560734e+05
   2.250701e+05  -4.524701e+05
   3.472266e+05   1.065292e+05
   2.613198e+05   5.650344e+05
  -3.949124e+04   4.540290e+05
  -3.876528e+05  -2.456915e+04
  -4.826195e+05  -2.971362e+05
  -2.392682e+05  -1.149583e+05
   5.224675e+04   1.761593e+05
   8.033038e+04   9.985882e+04
  -6.602937e+04  -3.267770e+05
  -2.601391e+04  -5.844990e+05
   2.914504e+05  -2.853686e+05
   5.051881e+05   3.271511e+05
   2.263289e+05   6.328631e+05
  -3.806304e+05   3.333170e+05
  -6.831418e+05  -2.440237e+05
  -2.762426e+05  -5.478144e+05
   5.069663e+05  -3.710805e+05
   8.929969e+05   4.803973e+04
   4.875719e+05   3.658193e+05
  -2.855716e+05   4.257764e+05
  -6.381150e+05   2.664095e+05
  -2.760486e+05   2.610803e+04
   3.001539e+05  -1.033306e+05
   3.876566e+05   1.505132e+04
  -1.272530e+05   2.650947e+05
  -6.733043e+05   2.804547e+05
