
 $NMID
 id='ANONYMOUS ', fmtdat='(2E16.6)'
 volume=1.0
 tramp=1.0
 $END
   1.299477e+07   1.802752e+06
   7.990855e+06   6.722927e+06
  -6.983166e+05   7.992551e+06
  -6.060156e+06   5.256008e+06
  -4.963249e+06   5.636352e+05
  -2.904951e+05  -2.393067e+06
   2.846801e+06  -1.268213e+06
   2.107519e+06   2.250004e+06
  -7.887954e+05   3.905593e+06
  -2.677644e+06   1.630907e+06
  -2.059018e+06  -2.038887e+06
   4.244743e+04  -3.011569e+06
   1.459407e+06  -3.994331e+05
   8.864086e+05   2.705237e+06
  -1.036611e+06   2.928512e+06
  -2.317533e+06   1.430515e+05
  -1.479712e+06  -2.830462e+06
   9.217040e+05  -3.332069e+06
   2.756450e+06  -1.276594e+06
   2.472715e+06   1.194369e+06
   6.943881e+05   2.045685e+06
  -5.316400e+05   1.266975e+06
  -2.153594e+04   5.441914e+05
   1.259319e+06   1.140434e+06
   1.294869e+06   2.399936e+06
  -7.029936e+05   2.598725e+06
  -3.247339e+06   1.048240e+06
  -3.917894e+06  -1.103111e+06
  -1.851476e+06  -2.149268e+06
   1.161445e+06  -1.471747e+06
   2.325337e+06   1.465762e+05
   7.126195e+05   1.356502e+06
  -1.760382e+06   1.186395e+06
  -2.473253e+06  -3.249274e+05
  -9.508946e+05  -1.973888e+06
   8.874784e+05  -2.213807e+06
   1.184762e+06  -7.243505e+05
   1.508553e+05   9.576403e+05
  -6.335988e+05   9.742862e+05
  -2.740045e+05  -6.365084e+05
   6.839776e+05  -1.864503e+06
   1.232579e+06  -1.131922e+06
   9.367324e+05   7.591336e+05
   3.275739e+04   1.601275e+06
  -8.486242e+05   4.313173e+05
  -9.047986e+05  -1.401853e+06
   2.700399e+05  -1.862029e+06
   1.940347e+06  -4.332128e+05
   2.503488e+06   1.520868e+06
   1.089205e+06   2.287725e+06
  -1.242699e+06   1.390186e+06
  -2.409285e+06  -2.117535e+05
  -1.474736e+06  -1.163636e+06
   4.263916e+05  -8.906752e+05
   1.411865e+06   6.069601e+04
   7.942244e+05   6.686609e+05
  -4.420450e+05   4.089666e+05
  -8.715666e+05  -3.365973e+05
  -1.161661e+05  -7.534386e+05
   8.511615e+05  -4.175750e+05
   7.963728e+05   3.256962e+05
  -3.739276e+05   7.077402e+05
  -1.372595e+06   2.332812e+05
  -8.683917e+05  -8.498345e+05
   9.654299e+05  -1.666945e+06
   2.518437e+06  -1.389022e+06
   2.458665e+06   1.128302e+04
   1.096293e+06   1.623355e+06
  -1.761892e+05   2.361359e+06
  -5.278739e+05   1.964927e+06
  -3.791274e+05   1.156134e+06
  -5.496282e+05   7.236060e+05
  -1.184203e+06   6.035025e+05
  -1.694156e+06   1.091896e+05
  -1.478623e+06  -9.595532e+05
  -4.936212e+05  -1.784348e+06
   7.159345e+05  -1.374119e+06
   1.353460e+06   1.716288e+05
   9.059493e+05   1.559653e+06
  -3.661352e+05   1.573474e+06
  -1.486488e+06   2.858301e+05
  -1.564862e+06  -1.116887e+06
  -6.487217e+05  -1.592676e+06
   3.517043e+05  -1.149151e+06
   6.683750e+05  -5.536853e+05
   4.867972e+05  -3.873626e+05
   6.152295e+05  -5.138040e+05
   1.387652e+06  -3.708299e+05
   2.091055e+06   3.714789e+05
   1.655512e+06   1.437238e+06
  -7.616577e+04   2.120392e+06
  -1.926189e+06   1.836332e+06
  -2.415206e+06   6.425174e+05
  -1.249158e+06  -6.967868e+05
   3.612098e+05  -1.259154e+06
   9.483544e+05  -7.551456e+05
   2.427348e+05   1.735531e+05
  -7.360560e+05   5.531488e+05
  -9.141185e+05   6.996935e+04
  -2.445410e+05  -5.966430e+05
   4.468942e+05  -5.572041e+05
   4.306061e+05   1.975026e+05
  -2.592530e+05   6.866443e+05
  -9.481188e+05   5.372252e+04
  -9.106281e+05  -1.329114e+06
   5.663745e+04  -2.108774e+06
   1.398654e+06  -1.365209e+06
   2.126503e+06   3.815575e+05
   1.621890e+06   1.699541e+06
   2.666905e+05   1.686326e+06
  -8.368850e+05   7.407631e+05
  -9.145143e+05  -4.515895e+04
  -2.595283e+05  -5.022907e+04
   1.629636e+05   4.058204e+05
  -1.878370e+05   5.993855e+05
  -8.560229e+05   2.145636e+05
  -9.569234e+05  -3.974236e+05
  -2.294774e+05  -6.446728e+05
   6.024893e+05  -3.022249e+05
   5.839231e+05   2.703708e+05
  -3.884175e+05   4.648874e+05
  -1.345256e+06  -5.742415e+03
  -1.205319e+06  -8.141576e+05
   6.228612e+04  -1.275747e+06
   1.348917e+06  -9.518304e+05
   1.526626e+06  -6.986449e+04
   5.732350e+05   6.450911e+05
  -4.870446e+05   6.240156e+05
  -6.771314e+05   4.328252e+03
   2.185498e+04  -4.911681e+05
   8.014899e+05  -2.898546e+05
   8.918388e+05   4.186901e+05
   2.444431e+05   8.824541e+05
  -5.149584e+05   6.187169e+05
  -7.066892e+05  -5.055799e+04
  -2.286672e+05  -3.758712e+05
   3.405817e+05  -2.651032e+04
   3.046051e+05   5.638211e+05
  -4.074988e+05   6.960116e+05
  -1.097326e+06   1.379545e+05
  -9.968641e+05  -6.773016e+05
  -1.042399e+05  -1.091798e+06
   7.847100e+05  -8.033466e+05
   9.051363e+05  -8.890093e+04
   2.876015e+05   4.566162e+05
  -3.562908e+05   4.368773e+05
  -4.214461e+05  -1.466149e+03
   1.918784e+04  -3.367316e+05
   3.978583e+05  -2.326474e+05
   2.976805e+05   9.569349e+04
  -1.253648e+05   1.526661e+05
  -3.272376e+05  -2.180140e+05
   4.215396e+04  -5.999315e+05
   7.329141e+05  -4.488247e+05
   1.087554e+06   2.928561e+05
   6.803612e+05   1.091965e+06
  -2.351751e+05   1.313911e+06
  -9.571101e+05   7.878220e+05
  -1.015417e+06  -6.881812e+04
  -5.778308e+05  -6.343205e+05
  -1.752124e+05  -6.202194e+05
  -1.026458e+05  -2.874425e+05
  -1.657881e+05  -1.276186e+05
   3.135495e+03  -3.068444e+05
   4.606116e+05  -4.736150e+05
   8.272217e+05  -1.911826e+05
   6.449619e+05   4.722941e+05
  -1.330407e+05   9.094591e+05
  -9.940067e+05   5.910740e+05
  -1.239759e+06  -3.401194e+05
  -5.909558e+05  -1.157562e+06
   5.282111e+05  -1.219863e+06
   1.324193e+06  -5.290386e+05
   1.301159e+06   3.338619e+05
   6.369166e+05   7.690475e+05
  -6.445032e+04   6.632516e+05
  -3.547781e+05   3.945116e+05
  -2.814868e+05   3.682829e+05
  -2.107816e+05   5.625573e+05
  -3.801098e+05   5.655243e+05
  -6.419933e+05   8.126140e+04
  -6.333050e+05  -6.561718e+05
  -1.885094e+05  -1.051529e+06
   4.232778e+05  -7.402411e+05
   7.056556e+05   3.811119e+04
   4.145727e+05   6.699949e+05
  -1.774797e+05   7.271108e+05
  -5.370335e+05   2.869380e+05
  -4.000171e+05  -2.318056e+05
  -1.383332e+04  -4.787223e+05
   1.692836e+05  -4.265174e+05
   5.936015e+03  -2.876714e+05
  -1.839937e+05  -2.344954e+05
   7.159453e+03  -2.218098e+05
   5.729465e+05  -8.127278e+04
   1.015942e+06   2.406113e+05
   8.199643e+05   5.804610e+05
   1.200117e+04   7.010279e+05
  -7.916493e+05   5.095876e+05
  -9.603017e+05   1.339851e+05
  -4.687433e+05  -1.783211e+05
   1.119629e+05  -2.353671e+05
   2.450476e+05  -4.874787e+04
  -3.904363e+04   1.468326e+05
  -2.913930e+05   8.990564e+04
  -2.253906e+05  -2.099528e+05
  -9.870049e+02  -4.222918e+05
   6.362418e+04  -2.626548e+05
  -9.421060e+04   1.094939e+05
  -2.446151e+05   2.203034e+05
  -1.556190e+05  -1.290124e+05
   1.756735e+05  -5.527557e+05
   5.314758e+05  -5.098506e+05
   6.242608e+05   3.082850e+04
   2.987606e+05   5.312107e+05
  -2.756224e+05   5.018486e+05
  -6.227509e+05   2.878507e+04
  -3.480978e+05  -3.764598e+05
   3.880449e+05  -3.349983e+05
   8.987592e+05   8.130947e+04
   6.292408e+05   5.007094e+05
  -2.231703e+05   5.966342e+05
  -8.705021e+05   3.168248e+05
  -7.499234e+05  -1.008175e+05
  -9.476831e+04  -3.117015e+05
   3.573819e+05  -1.597916e+05
   1.644540e+05   1.465863e+05
  -3.851779e+05   2.026277e+05
  -6.219451e+05  -1.767924e+05
  -2.115407e+05  -7.061964e+05
   5.109108e+05  -8.475378e+05
   8.982212e+05  -3.315381e+05
   6.342254e+05   5.177550e+05
  -3.798029e+03   1.010417e+06
  -4.820855e+05   7.171481e+05
  -5.192061e+05  -8.994851e+04
  -2.337037e+05  -6.734229e+05
   9.845511e+04  -5.702193e+05
   2.919741e+05  -5.088676e+04
   2.911880e+05   2.504094e+05
   1.438083e+05   1.097450e+05
   9.239641e+03  -7.129614e+04
   5.016646e+04   1.265986e+05
   1.939501e+05   5.367165e+05
   1.207138e+05   6.228942e+05
  -3.277278e+05   1.986159e+05
  -7.967633e+05  -3.402072e+05
  -7.286146e+05  -5.358687e+05
  -7.296027e+04  -3.790845e+05
   5.535606e+05  -1.701200e+05
   5.757451e+05  -6.712539e+04
   1.453834e+05   7.781299e+03
  -1.164920e+05   1.069159e+05
   3.899817e+04   1.529770e+05
   2.141468e+05   1.153806e+05
  -1.083232e+04   7.821161e+04
  -4.568727e+05   5.321015e+04
  -5.595190e+05  -9.266049e+04
  -8.155318e+04  -3.826386e+05
   6.017205e+05  -5.388850e+05
   9.179710e+05  -2.550118e+05
   6.447367e+05   3.593348e+05
   3.099378e+04   7.954222e+05
  -4.819608e+05   6.786693e+05
  -6.005500e+05   1.761706e+05
  -3.506311e+05  -2.110647e+05
  -1.788870e+04  -2.000182e+05
   1.044026e+05   1.786219e+04
  -2.492791e+04   5.704446e+04
  -1.777362e+05  -1.993325e+05
  -1.143720e+05  -4.582625e+05
   1.546723e+05  -3.418483e+05
   3.744436e+05   1.603909e+05
   2.944635e+05   6.114163e+05
  -8.295142e+04   5.554628e+05
  -4.645751e+05   1.397099e+04
  -4.892070e+05  -5.222024e+05
  -7.292838e+04  -6.087661e+05
   4.399324e+05  -2.695839e+05
   5.679370e+05   1.309844e+05
   2.132501e+05   3.168069e+05
  -1.905228e+05   2.870680e+05
  -1.715620e+05   1.650681e+05
   1.956017e+05   5.041712e+04
   3.723113e+05   3.234296e+04
   3.879533e+04   1.633136e+05
  -4.943238e+05   3.252041e+05
  -6.703069e+05   2.646767e+05
  -3.442310e+05  -9.138483e+04
   1.127692e+05  -4.415346e+05
   2.990531e+05  -4.085809e+05
   1.758318e+05  -1.935350e+04
  -3.755382e+04   2.880265e+05
  -1.681952e+05   1.862356e+05
  -1.814571e+05  -1.597071e+05
  -9.125938e+04  -3.326173e+05
   6.827446e+04  -1.764215e+05
   2.056489e+05   7.475429e+04
   2.235809e+05   1.432565e+05
   1.276960e+05   3.310530e+04
   1.646893e+04  -3.755417e+04
  -4.806233e+04   6.278984e+04
  -9.813242e+04   2.238419e+05
  -1.705313e+05   2.258232e+05
  -2.162726e+05  -8.106921e+03
  -1.440631e+05  -2.988189e+05
   5.894320e+04  -3.646250e+05
   2.700085e+05  -1.137339e+05
   3.023160e+05   2.315445e+05
   6.894428e+04   3.499022e+05
  -2.831415e+05   1.577555e+05
  -4.398517e+05  -1.234523e+05
  -2.183703e+05  -2.379710e+05
   1.837694e+05  -1.556255e+05
   3.441487e+05  -3.009460e+04
   9.254598e+04   1.276428e+04
  -2.518001e+05  -3.624436e+04
  -2.373442e+05  -1.272068e+05
   1.647053e+05  -1.812197e+05
   5.061291e+05  -8.911332e+04
