
 $NMID
 id='ANONYMOUS ', fmtdat='(2E16.6)'
 volume=1.0
 tramp=1.0
 $END
   5.497187e+07   1.388725e+06
   3.216861e+07   3.466776e+07
  -8.092113e+06   3.687792e+07
  -2.710759e+07   1.375277e+07
  -1.586949e+07  -7.010758e+06
   3.356906e+06  -8.982157e+06
   9.513862e+06   1.286455e+06
   2.580472e+06   9.512500e+06
  -6.127528e+06   9.041152e+06
  -9.420945e+06   1.824589e+06
  -6.732547e+06  -6.216411e+06
  -6.373079e+05  -8.475467e+06
   3.995697e+06  -2.596081e+06
   2.529338e+06   5.438134e+06
  -3.759729e+06   6.392861e+06
  -7.651528e+06  -1.427649e+06
  -4.151364e+06  -1.005226e+07
   3.922959e+06  -1.145116e+07
   1.000809e+07  -5.545312e+06
   1.052038e+07   2.283906e+06
   6.252669e+06   7.501311e+06
   4.086880e+05   8.432442e+06
  -2.971557e+06   5.753961e+06
  -1.738634e+06   2.539071e+06
   1.185668e+06   2.195643e+06
   1.878071e+05   4.212978e+06
  -5.484504e+06   4.264043e+06
  -9.591250e+06   2.782113e+05
  -6.848162e+06  -4.241699e+06
  -7.378467e+04  -5.017348e+06
   3.808743e+06  -2.450480e+06
   2.487174e+06   1.186403e+05
  -6.683216e+05   1.042767e+06
  -2.379508e+06   4.953413e+05
  -2.217726e+06  -1.527517e+06
  -5.877034e+05  -3.981400e+06
   1.896578e+06  -3.743960e+06
   3.154553e+06   2.592061e+05
   1.529349e+06   3.638040e+06
  -8.553291e+05   1.793320e+06
  -2.937354e+05  -2.524448e+06
   2.462994e+06  -2.264121e+06
   2.341494e+06   3.150502e+06
  -2.451773e+06   5.908538e+06
  -6.734005e+06   8.144229e+05
  -4.808373e+06  -6.861612e+06
   2.043695e+06  -8.252587e+06
   7.311310e+06  -2.195254e+06
   6.760553e+06   4.481597e+06
   1.752520e+06   5.951031e+06
  -3.444174e+06   2.639376e+06
  -5.169770e+06  -1.540785e+06
  -2.366168e+06  -3.437685e+06
   2.378200e+06  -2.108897e+06
   4.411339e+06   9.731643e+05
   1.866254e+06   2.682614e+06
  -1.703853e+06   1.306421e+06
  -1.711237e+06  -1.025719e+06
   1.255047e+06  -8.860492e+05
   2.359367e+06   1.692428e+06
  -6.291274e+05   3.264384e+06
  -4.489033e+06   1.741456e+06
  -5.122900e+06  -1.390549e+06
  -2.192724e+06  -3.905720e+06
   1.890310e+06  -5.149825e+06
   5.071648e+06  -4.694548e+06
   6.168481e+06  -1.586795e+06
   4.443364e+06   3.239505e+06
   8.020363e+05   6.123990e+06
  -1.887521e+06   4.678083e+06
  -1.705782e+06   1.214187e+06
  -1.563033e+05  -1.705462e+05
  -6.079349e+04   1.038622e+06
  -1.713062e+06   1.753218e+06
  -2.860866e+06   1.405712e+05
  -2.006061e+06  -2.025778e+06
   3.138654e+04  -2.196339e+06
   1.606570e+06  -1.987375e+05
   1.685250e+06   2.121589e+06
  -4.475485e+04   2.953128e+06
  -2.806005e+06   1.591298e+06
  -4.422148e+06  -1.294889e+06
  -3.094623e+06  -3.798785e+06
   1.427675e+05  -4.159107e+06
   2.296745e+06  -2.609288e+06
   2.200319e+06  -1.072086e+06
   1.807203e+06  -6.621057e+05
   2.931595e+06  -4.542127e+05
   4.330428e+06   8.087379e+05
   3.450876e+06   2.809153e+06
   7.870472e+04   4.138637e+06
  -3.275690e+06   3.873623e+06
  -4.238186e+06   2.064536e+06
  -2.670401e+06  -4.842975e+05
  -2.267386e+05  -2.271342e+06
   1.156988e+06  -1.928856e+06
   5.686251e+05   5.352364e+04
  -1.121027e+06   1.302208e+06
  -1.918701e+06   3.684544e+05
  -8.967885e+05  -1.227187e+06
   5.428697e+05  -1.119113e+06
   4.377991e+05   3.867147e+05
  -1.046567e+06   6.943223e+05
  -1.816317e+06  -1.270352e+06
  -6.212388e+05  -3.450230e+06
   1.575682e+06  -3.387893e+06
   3.114118e+06  -1.113903e+06
   3.306914e+06   1.448683e+06
   2.283808e+06   2.790222e+06
   4.398629e+05   2.639836e+06
  -1.273204e+06   1.462471e+06
  -1.598937e+06   2.064988e+05
  -4.959719e+05  -5.316817e+04
   3.504317e+05   7.625393e+05
  -4.359507e+05   1.338458e+06
  -1.924156e+06   5.485496e+05
  -2.027758e+06  -9.211868e+05
  -3.659494e+05  -1.426073e+06
   1.186975e+06  -5.590028e+05
   8.940640e+05   4.670175e+05
  -8.521055e+05   5.160492e+05
  -2.189789e+06  -3.386235e+05
  -1.749588e+06  -1.380341e+06
   2.654586e+05  -1.984221e+06
   2.346189e+06  -1.641118e+06
   2.800451e+06  -2.382407e+05
   1.205492e+06   1.292779e+06
  -9.526233e+05   1.495634e+06
  -1.573542e+06   1.615743e+05
  -1.814565e+05  -1.094374e+06
   1.542126e+06  -7.193408e+05
   1.720161e+06   8.126533e+05
   3.177278e+05   1.667318e+06
  -1.109385e+06   9.674722e+05
  -1.258481e+06  -3.296091e+05
  -2.358400e+05  -7.870523e+05
   8.029885e+05  -4.051385e+04
   7.271427e+05   1.076057e+06
  -6.040174e+05   1.431518e+06
  -2.038237e+06   5.190204e+05
  -2.041699e+06  -1.091761e+06
  -3.561716e+05  -2.101187e+06
   1.478542e+06  -1.635715e+06
   1.744337e+06  -1.857700e+05
   4.932309e+05   8.826630e+05
  -6.759224e+05   8.005488e+05
  -6.422875e+05   7.078308e+04
   1.186928e+05  -3.613754e+05
   4.947323e+05  -2.096814e+05
   1.271073e+05   5.886225e+04
  -4.416292e+05  -8.697525e+04
  -5.064715e+05  -6.816091e+05
   2.266082e+05  -1.190234e+06
   1.407536e+06  -8.818621e+05
   2.095214e+06   4.488901e+05
   1.450753e+06   1.984620e+06
  -2.526450e+05   2.442122e+06
  -1.647165e+06   1.404171e+06
  -1.701305e+06  -1.470919e+05
  -8.579084e+05  -9.115325e+05
  -3.214008e+05  -6.625303e+05
  -4.838303e+05  -2.349580e+05
  -6.248275e+05  -3.313542e+05
  -7.625448e+04  -7.730121e+05
   8.963691e+05  -8.945716e+05
   1.463307e+06  -3.080985e+05
   1.050497e+06   7.397946e+05
  -2.682221e+05   1.467097e+06
  -1.750108e+06   1.058425e+06
  -2.261566e+06  -5.185314e+05
  -1.113061e+06  -2.133694e+06
   1.054289e+06  -2.368927e+06
   2.578484e+06  -1.000487e+06
   2.358548e+06   6.974836e+05
   9.454467e+05   1.358030e+06
  -2.152579e+05   9.478271e+05
  -3.944893e+05   5.143297e+05
  -9.079764e+04   7.678879e+05
  -1.282440e+05   1.322265e+06
  -6.991324e+05   1.290096e+06
  -1.312146e+06   3.009394e+05
  -1.336493e+06  -1.110784e+06
  -5.364794e+05  -1.921675e+06
   6.478234e+05  -1.443628e+06
   1.297088e+06   1.988130e+04
   7.993705e+05   1.306243e+06
  -4.149892e+05   1.400076e+06
  -1.175306e+06   3.876293e+05
  -8.015593e+05  -7.170183e+05
   1.444658e+05  -1.079517e+06
   5.527600e+05  -7.753827e+05
   8.952075e+04  -4.157390e+05
  -4.348350e+05  -3.458299e+05
  -5.617981e+04  -3.885578e+05
   1.162488e+06  -1.936697e+05
   2.078233e+06   3.676080e+05
   1.616579e+06   1.069943e+06
  -6.237519e+04   1.445402e+06
  -1.623562e+06   1.125678e+06
  -1.851116e+06   2.522992e+05
  -8.290413e+05  -5.110207e+05
   2.747825e+05  -5.698392e+05
   5.154977e+05  -2.467337e+04
   2.291904e+04   4.289009e+05
  -4.506901e+05   2.577676e+05
  -4.827278e+05  -3.520884e+05
  -2.511045e+05  -7.368241e+05
  -9.416082e+04  -4.889679e+05
  -1.367327e+05   9.226785e+04
  -2.799197e+05   2.922210e+05
  -2.740701e+05  -2.378239e+05
   1.520536e+05  -9.955289e+05
   9.227038e+05  -1.066290e+06
   1.385491e+06  -1.581424e+05
   8.549158e+05   9.389799e+05
  -4.370246e+05   1.150303e+06
  -1.282009e+06   3.277044e+05
  -7.368636e+05  -5.867118e+05
   7.180764e+05  -6.441130e+05
   1.598649e+06   1.186344e+05
   9.962690e+05   8.811306e+05
  -5.042026e+05   9.838921e+05
  -1.512781e+06   4.565358e+05
  -1.234363e+06  -2.098761e+05
  -1.264892e+05  -5.174689e+05
   6.586707e+05  -2.598257e+05
   3.859651e+05   3.057471e+05
  -5.956456e+05   5.278753e+05
  -1.199979e+06  -8.792784e+04
  -6.774695e+05  -1.201943e+06
   6.042171e+05  -1.725687e+06
   1.507538e+06  -8.916608e+05
   1.266135e+06   7.743098e+05
   1.905772e+05   1.812802e+06
  -7.592875e+05   1.296215e+06
  -9.291813e+05  -1.945206e+05
  -4.155227e+05  -1.208172e+06
   2.406136e+05  -9.680349e+05
   5.710319e+05  -7.339547e+04
   4.601441e+05   3.818900e+05
   1.558211e+05   1.345397e+05
   5.275693e+04  -9.178961e+04
   2.915596e+05   3.126566e+05
   5.104545e+05   9.871126e+05
   1.713469e+05   1.086734e+06
  -7.398115e+05   3.857774e+05
  -1.485792e+06  -4.832884e+05
  -1.275224e+06  -8.548776e+05
  -1.783439e+05  -7.106136e+05
   8.563581e+05  -4.215178e+05
   9.919454e+05  -1.726009e+05
   3.723560e+05   6.662984e+04
  -1.448702e+05   2.298092e+05
  -5.007154e+04   1.961378e+05
   2.542099e+05   8.480067e+04
   5.691027e+04   1.359100e+05
  -6.559460e+05   2.458666e+05
  -1.063873e+06  -1.307166e+04
  -4.586860e+05  -7.130729e+05
   8.453962e+05  -1.203674e+06
   1.741342e+06  -7.679286e+05
   1.452626e+06   4.391862e+05
   2.803750e+05   1.425115e+06
  -7.900589e+05   1.395760e+06
  -1.069670e+06   5.535894e+05
  -6.633041e+05  -2.271250e+05
  -1.422396e+05  -3.661248e+05
   5.797645e+04  -8.206315e+04
  -8.547240e+04   2.390784e+03
  -2.927918e+05  -3.778557e+05
  -2.394516e+05  -8.188362e+05
   1.810229e+05  -6.932388e+05
   6.894967e+05   1.100280e+05
   7.622057e+05   9.556040e+05
   1.375428e+05   1.053298e+06
  -7.556988e+05   2.727535e+05
  -1.059212e+06  -7.147044e+05
  -3.654793e+05  -1.109342e+06
   7.237821e+05  -7.025113e+05
   1.145942e+06   7.307706e+04
   5.473467e+05   6.384999e+05
  -2.972479e+05   7.062163e+05
  -4.033946e+05   3.736592e+05
   2.332441e+05  -1.752051e+03
   6.543623e+05  -4.331319e+04
   1.543374e+05   3.176752e+05
  -8.377046e+05   6.845762e+05
  -1.291847e+06   5.279040e+05
  -7.894270e+05  -2.002671e+05
   9.840956e+04  -8.898513e+05
   5.798879e+05  -8.725622e+05
   4.545695e+05  -1.745372e+05
   6.662175e+04   4.797689e+05
  -2.409597e+05   4.533747e+05
  -3.594502e+05  -1.307993e+05
  -2.609211e+05  -5.854672e+05
   5.149635e+04  -4.512981e+05
   3.990061e+05   3.707135e+04
   4.866969e+05   2.987754e+05
   2.440600e+05   1.094834e+05
  -4.165321e+04  -1.686931e+05
  -7.868096e+04  -7.441215e+04
   4.083068e+04   3.512282e+05
  -1.648539e+04   5.858221e+05
  -3.175882e+05   2.591008e+05
  -4.950453e+05  -3.658749e+05
  -1.948446e+05  -6.600383e+05
   4.055184e+05  -3.313070e+05
   6.901217e+05   2.715781e+05
   2.702482e+05   5.752923e+05
  -5.207627e+05   3.737793e+05
  -9.092272e+05  -6.792426e+04
  -4.930066e+05  -3.828010e+05
   2.998544e+05  -4.218974e+05
   6.566801e+05  -2.504948e+05
   2.705615e+05  -1.972544e+04
  -3.316606e+05   9.045848e+04
  -4.089202e+05  -3.925940e+04
   1.491208e+05  -2.854519e+05
   7.234738e+05  -2.835446e+05
