
 $NMID
 id='ANONYMOUS ', fmtdat='(2E16.6)'
 volume=1.0
 tramp=1.0
 $END
  -3.882764e+03  -1.093262e+02
  -2.437137e+03  -2.220604e+03
   5.008220e+02  -2.515259e+03
   1.704855e+03  -1.067084e+03
   1.015900e+03   2.682681e+02
  -3.414837e+02   4.184234e+02
  -6.983123e+02  -3.030587e+02
  -6.499922e+01  -8.445427e+02
   6.672465e+02  -7.095482e+02
   8.252384e+02   1.486330e+01
   4.138006e+02   6.986912e+02
  -1.580244e+02   8.462971e+02
  -5.359819e+02   1.477494e+02
  -3.729095e+02  -5.973765e+02
   2.183493e+02  -6.758888e+02
   5.699409e+02  -1.334826e+01
   2.978865e+02   6.196731e+02
  -2.253301e+02   6.383630e+02
  -5.490630e+02   1.866327e+02
  -4.498313e+02  -2.816417e+02
  -9.892935e+01  -4.198550e+02
   1.918255e+02  -2.683681e+02
   1.556526e+02  -5.265842e+01
  -1.519317e+02  -3.204085e+00
  -3.444635e+02  -1.981048e+02
  -1.088084e+02  -4.126014e+02
   5.006327e+02  -2.977540e+02
   7.624651e+02   1.269331e+02
   3.329388e+02   4.713056e+02
  -3.736800e+02   3.647757e+02
  -6.560200e+02  -8.561456e+01
  -2.833536e+02  -4.371056e+02
   2.817531e+02  -4.565548e+02
   5.365975e+02  -1.676442e+02
   3.966954e+02   2.163306e+02
   7.482160e+01   4.165218e+02
  -1.284187e+02   2.436725e+02
  -7.775237e+01  -1.708916e+02
   1.652919e+02  -3.199047e+02
   3.396417e+02   7.768723e+01
   1.315797e+02   6.044559e+02
  -2.908375e+02   5.870052e+02
  -4.676059e+02  -4.318749e-01
  -1.879060e+02  -4.418398e+02
   2.308001e+02  -2.297234e+02
   2.907276e+02   3.014727e+02
  -9.185966e+01   4.786387e+02
  -5.236275e+02   1.054774e+02
  -5.648627e+02  -3.959724e+02
  -1.691982e+02  -5.577153e+02
   3.549733e+02  -3.235101e+02
   5.953031e+02   6.597237e+01
   3.653754e+02   3.241408e+02
  -1.046144e+02   3.036409e+02
  -3.751215e+02   6.901131e+01
  -2.343148e+02  -1.176633e+02
   5.746056e+01  -6.753721e+01
   1.019348e+02   1.070602e+02
  -1.326163e+02   1.346005e+02
  -2.981727e+02  -5.399579e+01
  -1.442246e+02  -2.527542e+02
   1.797669e+02  -2.668381e+02
   3.503809e+02  -1.111949e+02
   2.388541e+02   1.007280e+02
  -3.164761e+01   2.889915e+02
  -2.743669e+02   3.576632e+02
  -3.652046e+02   1.932767e+02
  -2.710817e+02  -1.524680e+02
  -7.331294e+01  -4.081264e+02
   6.881740e+01  -3.699658e+02
   7.640414e+01  -1.619262e+02
   4.446382e+01  -5.642858e+01
   1.040015e+02  -9.806143e+01
   2.264587e+02  -8.352671e+01
   2.589212e+02   9.392727e+01
   1.277267e+02   2.708750e+02
  -7.657128e+01   2.315976e+02
  -2.071467e+02  -9.761879e+00
  -1.739168e+02  -2.417539e+02
   1.795719e+01  -2.768283e+02
   2.529935e+02  -9.462502e+01
   3.455071e+02   1.717909e+02
   1.928442e+02   3.379580e+02
  -7.334185e+01   3.031798e+02
  -2.099097e+02   1.479573e+02
  -1.641108e+02   4.422852e+01
  -1.339567e+02   5.165293e+01
  -2.662603e+02   5.115652e+01
  -4.202196e+02  -8.422705e+01
  -3.386312e+02  -3.069990e+02
   1.749364e+01  -4.585055e+02
   3.870700e+02  -4.156027e+02
   5.004690e+02  -1.906749e+02
   3.210682e+02   9.613345e+01
   4.038115e+01   2.767628e+02
  -1.083583e+02   2.348369e+02
  -4.513052e+01   4.327068e+01
   1.130445e+02  -7.101233e+01
   1.627166e+02   1.972523e+01
   2.947382e+01   1.699626e+02
  -1.394394e+02   1.415795e+02
  -1.468667e+02  -5.626043e+01
   2.230072e+01  -1.647550e+02
   1.825513e+02  -1.677942e+01
   1.634093e+02   2.508912e+02
  -2.750995e+01   3.598589e+02
  -2.494076e+02   2.081936e+02
  -3.589239e+02  -6.634489e+01
  -2.886446e+02  -2.640618e+02
  -7.745151e+01  -2.832562e+02
   1.283188e+02  -1.569098e+02
   1.704108e+02  -1.173402e+01
   4.765967e+01   2.611411e+01
  -6.254120e+01  -5.199292e+01
  -1.209775e+01  -1.256079e+02
   1.297184e+02  -8.720768e+01
   1.686773e+02   2.120209e+01
   4.602369e+01   6.747070e+01
  -8.404440e+01   3.091423e+00
  -4.783784e+01  -8.524389e+01
   1.413684e+02  -8.973258e+01
   3.015422e+02   1.098887e+01
   2.686765e+02   1.594622e+02
   4.648089e+01   2.683640e+02
  -2.000166e+02   2.589415e+02
  -2.837156e+02   1.195708e+02
  -1.608772e+02  -4.678606e+01
   2.298034e+01  -9.514768e+01
   7.439514e+01  -1.562621e+00
  -4.776123e+01   9.199695e+01
  -1.961129e+02   4.458592e+01
  -2.047635e+02  -1.089855e+02
  -6.364858e+01  -2.044530e+02
   9.291612e+01  -1.508599e+02
   1.366682e+02  -2.422361e+01
   6.017944e+01   3.826291e+01
  -3.377560e+01  -1.085043e+01
  -3.040636e+01  -9.886962e+01
   8.804920e+01  -1.171132e+02
   2.096075e+02  -2.013154e+01
   1.903104e+02   1.324432e+02
   1.525845e+01   2.186396e+02
  -1.642221e+02   1.615692e+02
  -1.873535e+02   1.013901e+01
  -6.102681e+01  -1.054669e+02
   6.384341e+01  -1.046483e+02
   7.494438e+01  -2.890201e+01
   7.903382e+00   2.310254e+01
  -2.834301e+01   1.099284e+01
   1.368902e+01  -1.716310e+01
   8.385974e+01   7.164207e+00
   9.717582e+01   9.332123e+01
   9.267084e+00   1.724835e+02
  -1.414215e+02   1.546433e+02
  -2.426496e+02   1.532696e+01
  -2.013489e+02  -1.598718e+02
  -4.026669e+01  -2.387836e+02
   1.072361e+02  -1.693248e+02
   1.349565e+02  -3.131040e+01
   7.454510e+01   4.912877e+01
   3.402679e+01   3.218433e+01
   5.883225e+01  -1.314046e+01
   8.837414e+01  -5.297852e+00
   5.051783e+01   5.681534e+01
  -4.402919e+01   1.003510e+02
  -1.181421e+02   6.269038e+01
  -1.000112e+02  -4.187673e+01
   1.738538e+01  -1.247306e+02
   1.592164e+02  -9.004817e+01
   2.077989e+02   6.109097e+01
   9.399983e+01   2.132459e+02
  -1.195960e+02   2.307795e+02
  -2.739476e+02   9.054483e+01
  -2.574053e+02  -9.042674e+01
  -1.076094e+02  -1.767441e+02
   3.916495e+01  -1.457786e+02
   9.265600e+01  -8.530093e+01
   7.640428e+01  -7.371045e+01
   6.528670e+01  -9.752073e+01
   9.615025e+01  -8.044447e+01
   1.361483e+02   2.119173e+01
   1.231536e+02   1.604428e+02
   2.787216e+01   2.351223e+02
  -1.047531e+02   1.756223e+02
  -1.791414e+02   1.530198e+01
  -1.344998e+02  -1.303900e+02
  -1.315468e+01  -1.633867e+02
   7.389766e+01  -8.803441e+01
   6.238186e+01   8.074185e+00
  -2.189014e-01   4.875266e+01
  -1.860715e+01   3.449005e+01
   3.408387e+01   1.511893e+01
   8.527156e+01   2.249490e+01
   4.885438e+01   4.181914e+01
  -7.068683e+01   3.892111e+01
  -1.703665e+02  -1.189979e+00
  -1.473004e+02  -5.926711e+01
  -7.186243e+00  -9.406885e+01
   1.307891e+02  -7.380757e+01
   1.485745e+02  -9.236951e+00
   4.665038e+01   4.638731e+01
  -6.283094e+01   4.140650e+01
  -8.031056e+01  -1.957544e+01
  -1.432753e+01  -7.475644e+01
   5.283299e+01  -6.577778e+01
   6.908310e+01  -1.082078e+00
   5.326693e+01   5.262488e+01
   4.710972e+01   4.462585e+01
   6.044359e+01   1.716500e+00
   6.862144e+01   2.323624e-01
   4.193735e+01   7.253434e+01
  -3.135995e+01   1.549167e+02
  -1.264684e+02   1.483019e+02
  -1.784740e+02   3.342848e+01
  -1.296002e+02  -9.700382e+01
  -2.607448e+00  -1.338458e+02
   9.252122e+01  -6.673204e+01
   6.236900e+01   1.393362e+01
  -6.076089e+01   2.107219e+01
  -1.392632e+02  -4.391735e+01
  -7.493898e+01  -1.099275e+02
   8.435850e+01  -1.132881e+02
   1.951999e+02  -4.820845e+01
   1.637922e+02   3.930973e+01
   3.411333e+01   8.830999e+01
  -6.555506e+01   6.642409e+01
  -5.067448e+01   1.606719e+00
   4.183185e+01  -3.078017e+01
   9.619657e+01   2.189096e+01
   3.842798e+01   1.221481e+02
  -8.823669e+01   1.617302e+02
  -1.685303e+02   6.978738e+01
  -1.312695e+02  -9.882113e+01
  -1.431538e+01  -2.016513e+02
   8.556905e+01  -1.471017e+02
   1.063630e+02   9.381870e+00
   5.875645e+01   1.225514e+02
  -7.719824e+00   1.070298e+02
  -4.967886e+01   1.706270e+01
  -4.973450e+01  -3.324398e+01
  -2.180636e+01  -8.567568e+00
  -4.834916e+00   1.919533e+01
  -2.579667e+01  -1.909351e+01
  -5.810219e+01  -9.191676e+01
  -3.789824e+01  -1.100198e+02
   5.322294e+01  -4.486595e+01
   1.415793e+02   3.943660e+01
   1.305082e+02   7.238815e+01
   1.847017e+01   5.338538e+01
  -8.690618e+01   2.493229e+01
  -8.999093e+01   6.637523e+00
  -1.431893e+01  -9.937238e+00
   3.761910e+01  -2.226167e+01
   1.726858e+01  -1.545923e+01
  -1.845123e+01   2.959551e+00
   4.930098e+00   7.322869e+00
   7.296869e+01   1.374316e+00
   9.511701e+01   2.374409e+01
   1.534787e+01   8.367371e+01
  -1.165937e+02   1.203500e+02
  -1.929291e+02   6.497104e+01
  -1.525158e+02  -6.467192e+01
  -3.059486e+01  -1.660824e+02
   8.223801e+01  -1.583685e+02
   1.199017e+02  -6.503769e+01
   8.415955e+01   2.083249e+01
   2.705348e+01   3.860723e+01
  -4.384927e-01   1.219042e+01
   1.192880e+01   6.870014e+00
   3.261791e+01   4.876751e+01
   2.157372e+01   9.315169e+01
  -2.939258e+01   7.414785e+01
  -8.248530e+01  -1.663702e+01
  -8.216124e+01  -1.077070e+02
  -1.044701e+01  -1.150301e+02
   8.140949e+01  -2.955496e+01
   1.088333e+02   7.196641e+01
   3.806925e+01   1.069750e+02
  -6.739099e+01   6.281738e+01
  -1.047616e+02  -9.728885e+00
  -4.423999e+01  -5.662853e+01
   3.462901e+01  -5.937724e+01
   3.750586e+01  -2.998306e+01
  -2.999199e+01   3.889233e+00
  -7.013571e+01   9.325653e+00
  -1.741631e+01  -2.607504e+01
   8.015882e+01  -6.773935e+01
   1.212447e+02  -5.810150e+01
   7.005424e+01   1.475564e+01
  -1.443945e+01   8.729658e+01
  -5.784784e+01   8.466958e+01
  -4.397794e+01   9.637333e+00
  -5.643695e+00  -5.689060e+01
   2.578895e+01  -4.873331e+01
   3.901556e+01   1.375400e+01
   2.935985e+01   5.559121e+01
  -1.486433e+00   3.818304e+01
  -3.423148e+01  -6.434333e+00
  -4.205016e+01  -2.394146e+01
  -2.133805e+01  -3.252917e+00
   2.262882e+00   1.753819e+01
   6.796268e+00   2.932185e+00
   1.341462e+00  -3.529119e+01
   9.114927e+00  -5.035281e+01
   3.037131e+01  -1.558230e+01
   3.679574e+01   4.087743e+01
   6.005197e+00   6.189163e+01
  -4.329089e+01   2.377211e+01
  -6.131498e+01  -3.695658e+01
  -1.781491e+01  -6.338009e+01
   5.748769e+01  -3.637644e+01
   9.429467e+01   1.320662e+01
   5.246761e+01   4.483803e+01
  -2.885308e+01   4.530575e+01
  -6.715324e+01   2.662102e+01
  -2.812704e+01   6.461239e+00
   3.319264e+01  -1.139088e+00
   3.678005e+01   1.070494e+01
  -2.718742e+01   2.923503e+01
  -8.684349e+01   2.160396e+01
