
 $NMID
 id='ANONYMOUS ', fmtdat='(2E16.6)'
 volume=1.0
 tramp=1.0
 $END
  -3.734246e+03  -6.879917e+01
  -2.297523e+03  -1.908733e+03
   2.158646e+02  -2.413280e+03
   1.386212e+03  -1.074315e+03
   1.071821e+03  -7.045057e+01
  -1.875310e+02   3.048745e+02
  -6.180050e+02  -1.709628e+02
  -1.035801e+02  -7.504194e+02
   5.881939e+02  -7.005831e+02
   7.892482e+02  -1.347637e+01
   4.160875e+02   6.019432e+02
  -2.361711e+01   7.257295e+02
  -4.194480e+02   1.866001e+02
  -2.798132e+02  -4.630718e+02
   1.277489e+02  -6.699440e+02
   4.784483e+02  -1.052017e+02
   3.563230e+02   5.803091e+02
  -1.557009e+02   6.978613e+02
  -5.578625e+02   2.549425e+02
  -4.593702e+02  -2.741915e+02
  -1.162585e+02  -3.876687e+02
   1.728250e+02  -2.442892e+02
   1.023524e+02  -6.432837e+01
  -1.642361e+02  -6.961263e+01
  -3.121236e+02  -2.516523e+02
  -4.679354e+01  -3.890682e+02
   4.913808e+02  -2.695730e+02
   7.301978e+02   1.362772e+02
   3.256301e+02   4.426804e+02
  -3.525756e+02   3.156368e+02
  -6.025536e+02  -8.279765e+01
  -2.645103e+02  -4.025403e+02
   2.740577e+02  -4.344374e+02
   5.075043e+02  -1.614682e+02
   3.680931e+02   1.911015e+02
   9.193813e+01   3.703245e+02
  -8.254570e+01   2.203389e+02
  -2.310988e+01  -1.344005e+02
   1.917120e+02  -2.482149e+02
   2.970023e+02   1.232217e+02
   9.416912e+01   5.908412e+02
  -2.971040e+02   5.489248e+02
  -4.371349e+02  -1.164880e+00
  -1.715594e+02  -4.085636e+02
   2.063210e+02  -1.999951e+02
   2.405363e+02   2.957815e+02
  -1.078396e+02   4.529811e+02
  -4.968844e+02   8.907117e+01
  -5.382545e+02  -3.889961e+02
  -1.681923e+02  -5.405994e+02
   3.341984e+02  -3.135888e+02
   5.764966e+02   6.048918e+01
   3.737284e+02   2.984329e+02
  -7.813637e+01   2.852794e+02
  -3.541820e+02   8.717873e+01
  -2.401781e+02  -7.841350e+01
   3.359816e+01  -5.504781e+01
   9.061804e+01   8.141649e+01
  -1.199636e+02   1.111891e+02
  -2.848350e+02  -4.551044e+01
  -1.490784e+02  -2.347740e+02
   1.720341e+02  -2.711752e+02
   3.625513e+02  -1.256345e+02
   2.617004e+02   1.090052e+02
  -2.691086e+01   3.183264e+02
  -2.910654e+02   3.760410e+02
  -3.779759e+02   1.902829e+02
  -2.683294e+02  -1.536174e+02
  -7.559026e+01  -3.936054e+02
   4.493034e+01  -3.597010e+02
   4.865003e+01  -1.774518e+02
   4.143096e+01  -8.631888e+01
   1.248547e+02  -1.132124e+02
   2.459099e+02  -7.598976e+01
   2.612702e+02   1.055841e+02
   1.204749e+02   2.698176e+02
  -8.275448e+01   2.205985e+02
  -2.053028e+02  -2.145591e+01
  -1.658263e+02  -2.511607e+02
   3.221611e+01  -2.795930e+02
   2.690224e+02  -8.850680e+01
   3.536436e+02   1.795010e+02
   1.943355e+02   3.382023e+02
  -6.654290e+01   2.991410e+02
  -1.972863e+02   1.586610e+02
  -1.571715e+02   6.592472e+01
  -1.406808e+02   6.983266e+01
  -2.819158e+02   5.271701e+01
  -4.375868e+02  -9.006058e+01
  -3.484515e+02  -3.144633e+02
   1.640696e+01  -4.679995e+02
   3.992712e+02  -4.276649e+02
   5.138463e+02  -1.962004e+02
   3.209802e+02   1.004332e+02
   3.652703e+01   2.784569e+02
  -1.034534e+02   2.322733e+02
  -3.338585e+01   4.430125e+01
   1.170188e+02  -6.022944e+01
   1.528817e+02   2.716328e+01
   2.206832e+01   1.617061e+02
  -1.321054e+02   1.305427e+02
  -1.346494e+02  -5.505547e+01
   2.505924e+01  -1.552574e+02
   1.806738e+02  -9.754341e+00
   1.675134e+02   2.523760e+02
  -2.238852e+01   3.678339e+02
  -2.567350e+02   2.203062e+02
  -3.771349e+02  -6.284772e+01
  -3.001139e+02  -2.722985e+02
  -7.530089e+01  -2.902493e+02
   1.326407e+02  -1.576165e+02
   1.674325e+02  -1.386964e+01
   4.356195e+01   1.778254e+01
  -5.928198e+01  -5.897622e+01
  -4.393879e+00  -1.228607e+02
   1.329261e+02  -7.894928e+01
   1.641383e+02   2.449713e+01
   3.789405e+01   6.258522e+01
  -9.003461e+01  -6.962136e+00
  -4.652651e+01  -9.615350e+01
   1.529900e+02  -9.661026e+01
   3.181612e+02   1.376493e+01
   2.780658e+02   1.704199e+02
   4.207500e+01   2.776867e+02
  -2.102084e+02   2.597108e+02
  -2.872156e+02   1.162611e+02
  -1.565851e+02  -4.613011e+01
   2.648540e+01  -9.075104e+01
   7.238361e+01   4.201861e-01
  -5.184493e+01   9.004007e+01
  -1.986263e+02   4.245675e+01
  -2.060099e+02  -1.093393e+02
  -6.382990e+01  -2.045871e+02
   9.409789e+01  -1.503142e+02
   1.365293e+02  -2.211160e+01
   5.523151e+01   3.895979e+01
  -4.047376e+01  -1.667764e+01
  -3.109666e+01  -1.098568e+02
   9.578239e+01  -1.253228e+02
   2.199021e+02  -2.044500e+01
   1.970598e+02   1.371854e+02
   1.793617e+01   2.235947e+02
  -1.639835e+02   1.657316e+02
  -1.887703e+02   1.359979e+01
  -6.186803e+01  -1.039888e+02
   6.547113e+01  -1.048595e+02
   7.646751e+01  -2.742762e+01
   4.467990e+00   2.690719e+01
  -3.618316e+01   1.179701e+01
   1.045252e+01  -2.360169e+01
   9.083405e+01   2.156756e-01
   1.083085e+02   9.513413e+01
   1.294471e+01   1.829442e+02
  -1.470557e+02   1.633127e+02
  -2.520185e+02   1.519348e+01
  -2.074653e+02  -1.652986e+02
  -4.269805e+01  -2.436060e+02
   1.068221e+02  -1.725433e+02
   1.381584e+02  -3.443620e+01
   7.884710e+01   4.776538e+01
   3.584657e+01   3.165264e+01
   5.965055e+01  -1.411489e+01
   9.174635e+01  -6.726549e+00
   5.605417e+01   5.931202e+01
  -4.382200e+01   1.093527e+02
  -1.267782e+02   7.059032e+01
  -1.096946e+02  -4.485722e+01
   1.741175e+01  -1.347478e+02
   1.695093e+02  -9.741325e+01
   2.173416e+02   6.538788e+01
   9.442482e+01   2.235634e+02
  -1.277044e+02   2.380934e+02
  -2.831552e+02   9.148585e+01
  -2.626142e+02  -9.219914e+01
  -1.083061e+02  -1.792649e+02
   4.048496e+01  -1.482461e+02
   9.318804e+01  -8.718418e+01
   7.402056e+01  -7.610543e+01
   6.228061e+01  -1.013487e+02
   9.675822e+01  -8.493322e+01
   1.406674e+02   1.857292e+01
   1.288617e+02   1.622713e+02
   3.136909e+01   2.398687e+02
  -1.046250e+02   1.795701e+02
  -1.816324e+02   1.584566e+01
  -1.369339e+02  -1.327714e+02
  -1.247969e+01  -1.660584e+02
   7.800400e+01  -8.742350e+01
   6.540535e+01   1.284453e+01
  -2.535444e+00   5.447600e+01
  -2.407721e+01   3.670508e+01
   3.257694e+01   1.304653e+01
   8.959463e+01   2.007388e+01
   5.202070e+01   4.293707e+01
  -7.575087e+01   4.253456e+01
  -1.804957e+02   1.556678e-01
  -1.527873e+02  -6.293992e+01
  -3.921515e+00  -1.008038e+02
   1.379567e+02  -7.928124e+01
   1.534676e+02  -1.007657e+01
   4.867643e+01   4.976509e+01
  -6.249302e+01   4.553170e+01
  -8.248636e+01  -1.863252e+01
  -1.865071e+01  -7.785574e+01
   5.110447e+01  -6.999972e+01
   7.349710e+01  -2.708293e+00
   6.068190e+01   5.417307e+01
   5.087587e+01   4.653029e+01
   5.938138e+01   1.868798e+00
   6.845951e+01   3.161122e-01
   4.594022e+01   7.555785e+01
  -2.813637e+01   1.613055e+02
  -1.299585e+02   1.551152e+02
  -1.880237e+02   3.695913e+01
  -1.379931e+02  -9.879348e+01
  -4.481567e+00  -1.397990e+02
   9.582334e+01  -7.281383e+01
   6.522273e+01   1.124252e+01
  -6.163177e+01   2.176207e+01
  -1.423030e+02  -4.327495e+01
  -7.630993e+01  -1.118295e+02
   8.680504e+01  -1.162681e+02
   1.995418e+02  -4.976339e+01
   1.671248e+02   3.979830e+01
   3.471602e+01   8.963189e+01
  -6.695978e+01   6.709260e+01
  -5.214476e+01   1.073322e+00
   4.189001e+01  -3.294770e+01
   9.918329e+01   1.928230e+01
   4.366431e+01   1.225370e+02
  -8.386630e+01   1.671079e+02
  -1.685403e+02   7.666670e+01
  -1.357242e+02  -9.619205e+01
  -1.880717e+01  -2.043488e+02
   8.510918e+01  -1.499545e+02
   1.086253e+02   1.081668e+01
   5.911867e+01   1.261644e+02
  -1.090378e+01   1.083206e+02
  -5.299674e+01   1.569774e+01
  -4.952291e+01  -3.418852e+01
  -1.985308e+01  -7.996794e+00
  -5.528190e+00   1.896286e+01
  -3.008400e+01  -2.104581e+01
  -6.165474e+01  -9.409612e+01
  -3.734523e+01  -1.112788e+02
   5.689441e+01  -4.628362e+01
   1.449141e+02   3.725401e+01
   1.324076e+02   7.146294e+01
   1.997925e+01   5.561419e+01
  -8.625261e+01   2.861545e+01
  -9.143051e+01   8.192415e+00
  -1.690159e+01  -1.111295e+01
   3.678439e+01  -2.347437e+01
   1.891106e+01  -1.468073e+01
  -1.750178e+01   4.266061e+00
   3.368964e+00   6.562520e+00
   7.203981e+01  -1.719377e+00
   9.882785e+01   2.151008e+01
   2.195323e+01   8.579649e+01
  -1.140765e+02   1.271379e+02
  -1.982243e+02   7.256519e+01
  -1.611393e+02  -6.145987e+01
  -3.586758e+01  -1.693466e+02
   8.211219e+01  -1.650713e+02
   1.215942e+02  -7.026846e+01
   8.546153e+01   1.934959e+01
   2.886793e+01   3.910979e+01
   2.591613e+00   1.287583e+01
   1.439084e+01   7.995649e+00
   3.306681e+01   5.107463e+01
   2.099655e+01   9.609807e+01
  -2.943257e+01   7.658338e+01
  -8.333629e+01  -1.483425e+01
  -8.609185e+01  -1.069986e+02
  -1.581214e+01  -1.165149e+02
   7.974544e+01  -3.369634e+01
   1.128045e+02   6.851213e+01
   4.331621e+01   1.081014e+02
  -6.667280e+01   6.768568e+01
  -1.088818e+02  -6.451716e+00
  -4.806035e+01  -5.850176e+01
   3.487585e+01  -6.346652e+01
   3.989071e+01  -3.097233e+01
  -2.971748e+01   6.320181e+00
  -7.278245e+01   1.081058e+01
  -1.953217e+01  -2.809741e+01
   8.173251e+01  -7.120391e+01
   1.254756e+02  -5.951529e+01
   7.354268e+01   1.602801e+01
  -1.371060e+01   9.016975e+01
  -5.920813e+01   8.805324e+01
  -4.624310e+01   1.258548e+01
  -7.861255e+00  -5.603192e+01
   2.444978e+01  -5.054081e+01
   3.922253e+01   1.129646e+01
   3.092330e+01   5.570598e+01
  -5.044357e-01   4.039715e+01
  -3.532430e+01  -5.014567e+00
  -4.429244e+01  -2.482494e+01
  -2.202040e+01  -3.984145e+00
   3.724469e+00   1.968539e+01
   7.062737e+00   6.633194e+00
  -2.650028e+00  -3.441433e+01
   3.259844e+00  -5.427038e+01
   2.891273e+01  -2.127036e+01
   4.162284e+01   3.787597e+01
   1.178799e+01   6.320634e+01
  -4.271935e+01   2.706986e+01
  -6.566464e+01  -3.485255e+01
  -2.094333e+01  -6.402692e+01
   5.947775e+01  -3.896067e+01
   9.862532e+01   1.106079e+01
   5.452356e+01   4.525460e+01
  -2.991917e+01   4.851254e+01
  -6.912432e+01   3.031353e+01
  -2.969692e+01   7.699227e+00
   3.192566e+01  -3.159583e+00
   3.645407e+01   7.802560e+00
  -2.573888e+01   2.857024e+01
  -8.525250e+01   2.388017e+01
