
 $NMID
 id='ANONYMOUS ', fmtdat='(2E16.6)'
 volume=1.0
 tramp=1.0
 $END
  -3.380112e+03  -4.058832e+01
  -2.274746e+03  -1.816738e+03
   1.321807e+02  -2.132498e+03
   1.308515e+03  -1.136166e+03
   9.692251e+02  -6.740639e+01
  -7.017830e+01   2.381799e+02
  -4.160125e+02  -1.604611e+02
  -7.156954e+01  -6.463021e+02
   4.964900e+02  -6.133660e+02
   7.226240e+02  -8.635500e+01
   4.206816e+02   5.788445e+02
  -9.484340e+01   7.855832e+02
  -3.942570e+02   1.947224e+02
  -2.586903e+02  -5.053872e+02
   1.238986e+02  -6.226807e+02
   4.446510e+02  -8.078234e+01
   3.044695e+02   5.453278e+02
  -1.745319e+02   6.582206e+02
  -4.902052e+02   2.619817e+02
  -4.541837e+02  -2.178294e+02
  -1.347006e+02  -3.735688e+02
   1.457980e+02  -2.671033e+02
   9.082562e+01  -8.907318e+01
  -1.689954e+02  -7.491270e+01
  -3.049959e+02  -2.602827e+02
  -2.313686e+01  -3.774014e+02
   4.556943e+02  -1.966099e+02
   6.640542e+02   1.754774e+02
   2.843551e+02   3.951834e+02
  -3.357306e+02   2.711145e+02
  -5.581617e+02  -1.026825e+02
  -2.309675e+02  -3.940185e+02
   2.681357e+02  -3.955186e+02
   4.876857e+02  -1.529954e+02
   3.380301e+02   1.694943e+02
   8.166079e+01   3.518188e+02
  -5.257620e+01   1.846121e+02
   1.433499e+01  -1.370190e+02
   1.930104e+02  -2.081258e+02
   2.408545e+02   1.326215e+02
   4.547913e+01   5.333117e+02
  -2.651607e+02   4.915048e+02
  -3.677029e+02   9.904006e-01
  -1.457718e+02  -3.552725e+02
   1.666843e+02  -1.650353e+02
   2.047057e+02   2.762675e+02
  -1.119587e+02   4.095479e+02
  -4.699107e+02   6.628540e+01
  -5.167440e+02  -3.827652e+02
  -1.685274e+02  -5.174561e+02
   3.196473e+02  -2.927609e+02
   5.566319e+02   5.566405e+01
   3.661095e+02   2.692368e+02
  -5.404008e+01   2.557108e+02
  -3.183890e+02   9.014457e+01
  -2.309750e+02  -4.736433e+01
   1.192122e+01  -3.481583e+01
   7.008651e+01   6.866551e+01
  -1.137389e+02   8.888819e+01
  -2.639691e+02  -4.866408e+01
  -1.381704e+02  -2.258881e+02
   1.718193e+02  -2.723876e+02
   3.644947e+02  -1.348082e+02
   2.657899e+02   1.080354e+02
  -2.812243e+01   3.215221e+02
  -2.901445e+02   3.674668e+02
  -3.630339e+02   1.767761e+02
  -2.486291e+02  -1.497168e+02
  -7.348738e+01  -3.739909e+02
   2.907951e+01  -3.502348e+02
   3.864474e+01  -1.878708e+02
   4.903724e+01  -9.619603e+01
   1.348075e+02  -1.052786e+02
   2.416359e+02  -6.200099e+01
   2.463560e+02   1.066435e+02
   1.063822e+02   2.567828e+02
  -8.689645e+01   2.054079e+02
  -1.995452e+02  -3.012366e+01
  -1.518009e+02  -2.470276e+02
   4.318165e+01  -2.642185e+02
   2.607922e+02  -7.280958e+01
   3.287706e+02   1.784527e+02
   1.796967e+02   3.164657e+02
  -6.006235e+01   2.806279e+02
  -1.813208e+02   1.590786e+02
  -1.536677e+02   7.875772e+01
  -1.508581e+02   7.345194e+01
  -2.885176e+02   4.413772e+01
  -4.316628e+02  -9.859785e+01
  -3.351461e+02  -3.136464e+02
   2.500311e+01  -4.551224e+02
   3.936928e+02  -4.131840e+02
   4.953033e+02  -1.880786e+02
   3.050442e+02   9.611342e+01
   3.212233e+01   2.614011e+02
  -9.418711e+01   2.155387e+02
  -1.971397e+01   4.397271e+01
   1.175730e+02  -5.084338e+01
   1.436083e+02   3.019438e+01
   2.138362e+01   1.525491e+02
  -1.224203e+02   1.234363e+02
  -1.256262e+02  -4.883015e+01
   2.349809e+01  -1.447189e+02
   1.722326e+02  -6.418926e+00
   1.633439e+02   2.486384e+02
  -2.089896e+01   3.634276e+02
  -2.554324e+02   2.179933e+02
  -3.745849e+02  -6.502407e+01
  -2.921938e+02  -2.710071e+02
  -6.898133e+01  -2.825177e+02
   1.266336e+02  -1.476159e+02
   1.530983e+02  -1.286673e+01
   3.699820e+01   9.515408e+00
  -5.197144e+01  -6.502574e+01
   3.721539e+00  -1.203216e+02
   1.297442e+02  -7.375898e+01
   1.553654e+02   2.442390e+01
   3.520646e+01   5.781734e+01
  -8.585309e+01  -1.033777e+01
  -4.219541e+01  -9.618467e+01
   1.544028e+02  -9.435307e+01
   3.175731e+02   1.817726e+01
   2.741800e+02   1.748465e+02
   3.464868e+01   2.759195e+02
  -2.150140e+02   2.499633e+02
  -2.833736e+02   1.067975e+02
  -1.479300e+02  -4.602525e+01
   3.024559e+01  -8.385739e+01
   6.977856e+01   3.024932e+00
  -5.332142e+01   8.456175e+01
  -1.942838e+02   3.657620e+01
  -2.002500e+02  -1.078136e+02
  -6.190090e+01  -1.975357e+02
   9.239129e+01  -1.450016e+02
   1.339245e+02  -2.130693e+01
   5.288826e+01   3.681193e+01
  -4.166760e+01  -1.950611e+01
  -2.960233e+01  -1.112622e+02
   9.862338e+01  -1.236357e+02
   2.193436e+02  -1.695625e+01
   1.922075e+02   1.377087e+02
   1.404514e+01   2.190350e+02
  -1.619828e+02   1.604893e+02
  -1.833083e+02   1.301727e+01
  -5.882044e+01  -1.002470e+02
   6.425557e+01  -1.011565e+02
   7.372686e+01  -2.651878e+01
   1.752318e+00   2.592728e+01
  -3.825673e+01   9.728472e+00
   9.890699e+00  -2.596857e+01
   9.245765e+01  -3.240597e-01
   1.092238e+02   9.720146e+01
   1.109210e+01   1.836126e+02
  -1.487644e+02   1.596701e+02
  -2.495319e+02   1.109901e+01
  -2.028907e+02  -1.643790e+02
  -4.179152e+01  -2.377478e+02
   1.042272e+02  -1.667208e+02
   1.356526e+02  -3.358749e+01
   7.828610e+01   4.510318e+01
   3.522497e+01   2.966721e+01
   5.640355e+01  -1.580119e+01
   8.976359e+01  -8.304344e+00
   5.908766e+01   5.920775e+01
  -4.133134e+01   1.106383e+02
  -1.279539e+02   7.134232e+01
  -1.113180e+02  -4.621311e+01
   1.837112e+01  -1.357378e+02
   1.709391e+02  -9.497481e+01
   2.154173e+02   6.791898e+01
   8.884756e+01   2.228117e+02
  -1.307149e+02   2.336197e+02
  -2.800161e+02   8.715580e+01
  -2.565867e+02  -9.405588e+01
  -1.042326e+02  -1.775282e+02
   4.143894e+01  -1.451481e+02
   9.233577e+01  -8.382335e+01
   7.226987e+01  -7.372868e+01
   6.017128e+01  -1.012827e+02
   9.491479e+01  -8.575363e+01
   1.397336e+02   1.863779e+01
   1.270640e+02   1.621408e+02
   2.901068e+01   2.370702e+02
  -1.049158e+02   1.741123e+02
  -1.780267e+02   1.136120e+01
  -1.318538e+02  -1.327821e+02
  -9.722551e+00  -1.622495e+02
   7.769987e+01  -8.351026e+01
   6.383764e+01   1.496304e+01
  -4.810017e+00   5.518034e+01
  -2.717979e+01   3.628879e+01
   2.970607e+01   1.152843e+01
   8.834974e+01   1.810944e+01
   5.211013e+01   4.135416e+01
  -7.572337e+01   4.141180e+01
  -1.804515e+02  -1.063791e+00
  -1.514334e+02  -6.395920e+01
  -1.563566e+00  -1.009214e+02
   1.394045e+02  -7.841631e+01
   1.533858e+02  -8.805907e+00
   4.821008e+01   5.160649e+01
  -6.264969e+01   4.766549e+01
  -8.313096e+01  -1.721878e+01
  -2.017832e+01  -7.785631e+01
   4.997616e+01  -7.044254e+01
   7.370433e+01  -2.080972e+00
   6.091045e+01   5.514841e+01
   4.951872e+01   4.672690e+01
   5.719926e+01   1.493694e+00
   6.741269e+01   4.031682e-01
   4.581231e+01   7.581638e+01
  -2.814369e+01   1.601267e+02
  -1.301059e+02   1.526776e+02
  -1.874660e+02   3.555935e+01
  -1.364880e+02  -9.791676e+01
  -3.232787e+00  -1.385140e+02
   9.620486e+01  -7.308803e+01
   6.574158e+01   1.034138e+01
  -5.972969e+01   2.231754e+01
  -1.398087e+02  -4.083361e+01
  -7.540226e+01  -1.088256e+02
   8.498371e+01  -1.140300e+02
   1.959838e+02  -4.758346e+01
   1.637880e+02   4.124084e+01
   3.287067e+01   8.846211e+01
  -6.719077e+01   6.380968e+01
  -5.191705e+01  -1.654895e+00
   4.138991e+01  -3.337194e+01
   9.844045e+01   1.968593e+01
   4.439038e+01   1.211100e+02
  -8.091027e+01   1.642289e+02
  -1.645227e+02   7.539456e+01
  -1.333281e+02  -9.382768e+01
  -1.899795e+01  -1.998079e+02
   8.349940e+01  -1.466883e+02
   1.070206e+02   1.100349e+01
   5.761065e+01   1.241045e+02
  -1.193421e+01   1.064335e+02
  -5.239020e+01   1.541335e+01
  -4.750085e+01  -3.342420e+01
  -1.806657e+01  -7.909541e+00
  -5.536681e+00   1.814095e+01
  -3.053739e+01  -2.132032e+01
  -6.057322e+01  -9.232111e+01
  -3.511057e+01  -1.084870e+02
   5.718552e+01  -4.460794e+01
   1.422243e+02   3.735249e+01
   1.293626e+02   7.133845e+01
   1.943431e+01   5.571786e+01
  -8.461172e+01   2.793564e+01
  -9.040347e+01   6.657604e+00
  -1.775026e+01  -1.179286e+01
   3.609936e+01  -2.220487e+01
   1.990703e+01  -1.296529e+01
  -1.592538e+01   4.658142e+00
   2.972249e+00   6.035785e+00
   6.923392e+01  -1.584326e+00
   9.624133e+01   2.173973e+01
   2.204990e+01   8.414133e+01
  -1.114154e+02   1.241941e+02
  -1.952800e+02   7.120332e+01
  -1.597365e+02  -5.965040e+01
  -3.568712e+01  -1.661507e+02
   8.191448e+01  -1.634288e+02
   1.213147e+02  -7.035832e+01
   8.491817e+01   1.918725e+01
   2.812625e+01   4.012075e+01
   1.955811e+00   1.422162e+01
   1.377620e+01   8.573862e+00
   3.195530e+01   5.021869e+01
   2.013662e+01   9.410094e+01
  -2.913246e+01   7.489321e+01
  -8.163045e+01  -1.463227e+01
  -8.460341e+01  -1.047809e+02
  -1.609359e+01  -1.145842e+02
   7.800183e+01  -3.395544e+01
   1.115992e+02   6.679741e+01
   4.355196e+01   1.073136e+02
  -6.594831e+01   6.847268e+01
  -1.089797e+02  -5.923169e+00
  -4.910511e+01  -5.939342e+01
   3.437166e+01  -6.486698e+01
   4.113696e+01  -3.135266e+01
  -2.745069e+01   6.631516e+00
  -7.154973e+01   1.113485e+01
  -2.008915e+01  -2.773663e+01
   8.029722e+01  -7.011923e+01
   1.248320e+02  -5.825380e+01
   7.404608e+01   1.606080e+01
  -1.343626e+01   8.897176e+01
  -6.004352e+01   8.707537e+01
  -4.697376e+01   1.256128e+01
  -7.780711e+00  -5.593564e+01
   2.510443e+01  -5.120486e+01
   3.972606e+01   1.020757e+01
   3.124644e+01   5.568359e+01
   4.989531e-02   4.143853e+01
  -3.468449e+01  -4.235056e+00
  -4.396946e+01  -2.492105e+01
  -2.182865e+01  -4.186464e+00
   4.116606e+00   2.039492e+01
   6.763940e+00   8.215945e+00
  -4.692332e+00  -3.310109e+01
   2.316952e-01  -5.466195e+01
   2.754117e+01  -2.359296e+01
   4.346802e+01   3.492963e+01
   1.504553e+01   6.149935e+01
  -4.091202e+01   2.785870e+01
  -6.579620e+01  -3.270987e+01
  -2.180425e+01  -6.237932e+01
   5.876315e+01  -3.885805e+01
   9.791973e+01   1.027136e+01
   5.413641e+01   4.480717e+01
  -2.954021e+01   4.870908e+01
  -6.872831e+01   3.045845e+01
  -3.068469e+01   6.974618e+00
   2.965027e+01  -4.725411e+00
   3.549357e+01   5.886783e+00
  -2.341246e+01   2.703837e+01
  -8.119661e+01   2.346752e+01
