
 $NMID
 id='ANONYMOUS ', fmtdat='(2E16.6)'
 volume=1.0
 tramp=1.0
 $END
  -3.424726e+03  -1.263361e+02
  -2.157714e+03  -1.728193e+03
   2.931345e+02  -2.132597e+03
   1.428143e+03  -1.077375e+03
   9.719811e+02   3.055181e+01
  -1.219199e+02   3.383119e+02
  -5.528195e+02  -2.030694e+02
  -6.624875e+01  -6.275593e+02
   5.271048e+02  -6.413165e+02
   6.842004e+02  -9.741526e+01
   4.149236e+02   6.000351e+02
  -1.059956e+02   6.832029e+02
  -4.079595e+02   1.598597e+02
  -2.706817e+02  -5.009486e+02
   1.311347e+02  -5.808469e+02
   4.299733e+02  -1.124401e+02
   3.042528e+02   5.342241e+02
  -1.051329e+02   6.193492e+02
  -4.933474e+02   2.809896e+02
  -4.194081e+02  -1.921804e+02
  -1.147856e+02  -3.718695e+02
   1.362307e+02  -2.558511e+02
   1.085462e+02  -6.536172e+01
  -1.635099e+02  -7.145295e+01
  -2.842032e+02  -2.340268e+02
  -5.710686e+01  -3.426137e+02
   4.613408e+02  -2.355543e+02
   6.529088e+02   1.166650e+02
   2.759173e+02   3.730120e+02
  -3.102247e+02   2.871540e+02
  -5.371554e+02  -7.331949e+01
  -2.479584e+02  -3.629294e+02
   2.348535e+02  -3.964146e+02
   4.692268e+02  -1.657622e+02
   3.508719e+02   1.544777e+02
   8.277306e+01   3.429226e+02
  -7.134248e+01   2.066527e+02
  -1.296495e+01  -1.130952e+02
   1.622743e+02  -2.265691e+02
   2.556561e+02   1.075851e+02
   7.320419e+01   5.236332e+02
  -2.462474e+02   4.876083e+02
  -3.739463e+02   1.131659e+01
  -1.474072e+02  -3.499902e+02
   1.763036e+02  -1.792918e+02
   2.075039e+02   2.626037e+02
  -9.596640e+01   4.064721e+02
  -4.574501e+02   7.697287e+01
  -4.972563e+02  -3.569536e+02
  -1.559693e+02  -5.001036e+02
   3.137064e+02  -2.856762e+02
   5.377857e+02   5.354942e+01
   3.477537e+02   2.690596e+02
  -6.728210e+01   2.566945e+02
  -3.218339e+02   8.600820e+01
  -2.250375e+02  -6.172664e+01
   2.234694e+01  -4.770345e+01
   7.936974e+01   6.809600e+01
  -1.104830e+02   9.408550e+01
  -2.643316e+02  -4.707518e+01
  -1.389511e+02  -2.244534e+02
   1.681924e+02  -2.621395e+02
   3.533101e+02  -1.205153e+02
   2.511717e+02   1.108582e+02
  -3.475883e+01   3.063141e+02
  -2.838490e+02   3.455777e+02
  -3.507592e+02   1.647805e+02
  -2.388796e+02  -1.464567e+02
  -6.628964e+01  -3.622225e+02
   3.751017e+01  -3.382004e+02
   4.749732e+01  -1.769471e+02
   5.249564e+01  -8.355672e+01
   1.281679e+02  -9.299427e+01
   2.258954e+02  -5.588451e+01
   2.310133e+02   1.045941e+02
   1.028812e+02   2.498896e+02
  -7.881433e+01   2.044612e+02
  -1.920133e+02  -2.123332e+01
  -1.567975e+02  -2.340179e+02
   2.465324e+01  -2.594205e+02
   2.422057e+02  -7.789203e+01
   3.213365e+02   1.658379e+02
   1.780439e+02   3.082513e+02
  -5.715481e+01   2.730347e+02
  -1.802363e+02   1.496933e+02
  -1.517481e+02   7.094762e+01
  -1.419492e+02   6.713857e+01
  -2.749442e+02   4.133091e+01
  -4.119340e+02  -9.578356e+01
  -3.209395e+02  -2.968407e+02
   2.190436e+01  -4.358700e+02
   3.732731e+02  -3.950342e+02
   4.728625e+02  -1.815707e+02
   2.948825e+02   8.835813e+01
   3.335840e+01   2.523808e+02
  -9.155656e+01   2.149042e+02
  -2.559986e+01   4.754999e+01
   1.073690e+02  -5.003929e+01
   1.351962e+02   2.507978e+01
   1.762656e+01   1.464603e+02
  -1.204526e+02   1.179841e+02
  -1.212487e+02  -5.155170e+01
   2.321075e+01  -1.420454e+02
   1.664364e+02  -6.776208e+00
   1.563337e+02   2.398674e+02
  -2.053082e+01   3.472511e+02
  -2.416408e+02   2.069208e+02
  -3.566532e+02  -6.250733e+01
  -2.837049e+02  -2.585231e+02
  -7.142336e+01  -2.714377e+02
   1.216739e+02  -1.453733e+02
   1.528511e+02  -1.316923e+01
   4.006659e+01   1.217598e+01
  -5.124521e+01  -5.998948e+01
   3.401943e-01  -1.169314e+02
   1.239678e+02  -7.391554e+01
   1.507559e+02   2.251273e+01
   3.557448e+01   5.772956e+01
  -8.062587e+01  -5.930199e+00
  -4.004159e+01  -8.782667e+01
   1.441547e+02  -8.818761e+01
   2.966367e+02   1.408707e+01
   2.575310e+02   1.593842e+02
   3.619862e+01   2.578687e+02
  -1.978951e+02   2.398107e+02
  -2.663181e+02   1.074013e+02
  -1.430067e+02  -4.026017e+01
   2.505291e+01  -8.009582e+01
   6.467282e+01   1.577340e+00
  -5.117497e+01   8.019283e+01
  -1.853982e+02   3.522711e+01
  -1.907821e+02  -1.022218e+02
  -5.960415e+01  -1.875980e+02
   8.551185e+01  -1.380905e+02
   1.246565e+02  -2.228479e+01
   5.075174e+01   3.200552e+01
  -3.548979e+01  -1.949940e+01
  -2.463900e+01  -1.035677e+02
   9.298510e+01  -1.142792e+02
   2.049634e+02  -1.494880e+01
   1.803264e+02   1.298949e+02
   1.356189e+01   2.065573e+02
  -1.524290e+02   1.520869e+02
  -1.727526e+02   1.313008e+01
  -5.561908e+01  -9.360078e+01
   5.976309e+01  -9.551458e+01
   6.807052e+01  -2.633900e+01
   2.610732e+00   2.255075e+01
  -3.182694e+01   9.516014e+00
   1.354644e+01  -2.023331e+01
   8.689072e+01   4.692256e+00
   9.802762e+01   9.310555e+01
   6.145923e+00   1.715276e+02
  -1.417060e+02   1.495728e+02
  -2.346558e+02   1.001611e+01
  -1.905348e+02  -1.559444e+02
  -3.843166e+01  -2.263918e+02
   9.934441e+01  -1.600312e+02
   1.278612e+02  -3.278810e+01
   7.369821e+01   4.342480e+01
   3.509464e+01   2.923818e+01
   5.716154e+01  -1.311853e+01
   8.682701e+01  -5.458657e+00
   5.328130e+01   5.769560e+01
  -4.194253e+01   1.034785e+02
  -1.203815e+02   6.465673e+01
  -1.037693e+02  -4.446848e+01
   1.832720e+01  -1.274367e+02
   1.615616e+02  -8.909403e+01
   2.040483e+02   6.282497e+01
   8.739517e+01   2.094966e+02
  -1.196810e+02   2.208238e+02
  -2.637448e+02   8.354043e+01
  -2.439022e+02  -8.682913e+01
  -1.006913e+02  -1.673575e+02
   3.796535e+01  -1.372047e+02
   8.791600e+01  -8.057682e+01
   6.998525e+01  -7.113386e+01
   5.899341e+01  -9.589851e+01
   9.105207e+01  -7.990804e+01
   1.324705e+02   1.866424e+01
   1.200478e+02   1.541508e+02
   2.698416e+01   2.254430e+02
  -1.007053e+02   1.666661e+02
  -1.705572e+02   1.201964e+01
  -1.260790e+02  -1.265736e+02
  -9.294538e+00  -1.556318e+02
   7.364078e+01  -8.036212e+01
   6.044832e+01   1.335134e+01
  -3.577281e+00   5.083917e+01
  -2.345570e+01   3.314851e+01
   3.010153e+01   1.187506e+01
   8.388501e+01   1.993348e+01
   4.845522e+01   4.115295e+01
  -7.187600e+01   3.865857e+01
  -1.699340e+02  -2.455078e+00
  -1.429400e+02  -6.042832e+01
  -2.512686e+00  -9.375054e+01
   1.300674e+02  -7.272351e+01
   1.436148e+02  -8.646014e+00
   4.467198e+01   4.708993e+01
  -5.979560e+01   4.333610e+01
  -7.849992e+01  -1.751034e+01
  -1.839455e+01  -7.424214e+01
   4.766845e+01  -6.708290e+01
   6.950185e+01  -2.919035e+00
   5.743550e+01   5.097619e+01
   4.779727e+01   4.372525e+01
   5.613972e+01   1.794825e+00
   6.502071e+01   1.424656e+00
   4.340159e+01   7.270294e+01
  -2.792344e+01   1.522185e+02
  -1.245416e+02   1.446977e+02
  -1.780221e+02   3.291144e+01
  -1.291264e+02  -9.386340e+01
  -2.758647e+00  -1.311765e+02
   9.096752e+01  -6.814171e+01
   6.167759e+01   1.011086e+01
  -5.748465e+01   1.989867e+01
  -1.325440e+02  -4.071154e+01
  -7.054255e+01  -1.040393e+02
   8.175940e+01  -1.073985e+02
   1.866910e+02  -4.452374e+01
   1.554336e+02   3.888369e+01
   3.103741e+01   8.388804e+01
  -6.376748e+01   6.132135e+01
  -4.856975e+01  -7.433722e-01
   4.058747e+01  -3.150801e+01
   9.392733e+01   1.911490e+01
   4.076222e+01   1.163358e+02
  -7.965714e+01   1.572401e+02
  -1.587476e+02   7.125641e+01
  -1.268320e+02  -9.129479e+01
  -1.633987e+01  -1.920106e+02
   8.096231e+01  -1.401546e+02
   1.020404e+02   1.085320e+01
   5.479257e+01   1.187531e+02
  -1.101038e+01   1.017710e+02
  -4.972973e+01   1.495043e+01
  -4.600981e+01  -3.150928e+01
  -1.825398e+01  -7.348528e+00
  -5.063921e+00   1.729021e+01
  -2.785142e+01  -2.061700e+01
  -5.709348e+01  -8.828727e+01
  -3.439284e+01  -1.033996e+02
   5.323866e+01  -4.214949e+01
   1.353550e+02   3.592471e+01
   1.236221e+02   6.783857e+01
   1.835962e+01   5.265429e+01
  -8.120209e+01   2.637550e+01
  -8.613681e+01   6.292722e+00
  -1.614109e+01  -1.149889e+01
   3.461835e+01  -2.164106e+01
   1.798770e+01  -1.260363e+01
  -1.599358e+01   4.514947e+00
   3.398701e+00   5.777395e+00
   6.757236e+01  -1.539286e+00
   9.240129e+01   2.117216e+01
   2.000316e+01   8.125144e+01
  -1.080630e+02   1.189293e+02
  -1.872803e+02   6.689989e+01
  -1.521404e+02  -5.871346e+01
  -3.336790e+01  -1.595486e+02
   7.870024e+01  -1.554602e+02
   1.159764e+02  -6.629674e+01
   8.115627e+01   1.839094e+01
   2.693046e+01   3.776307e+01
   1.626679e+00   1.338242e+01
   1.266951e+01   8.311264e+00
   3.010795e+01   4.785470e+01
   1.903453e+01   8.941613e+01
  -2.800901e+01   7.094105e+01
  -7.820957e+01  -1.460677e+01
  -8.054887e+01  -1.009261e+02
  -1.420495e+01  -1.100823e+02
   7.581495e+01  -3.209793e+01
   1.068448e+02   6.479968e+01
   4.074352e+01   1.030249e+02
  -6.361005e+01   6.466923e+01
  -1.034325e+02  -6.501243e+00
  -4.564057e+01  -5.638654e+01
   3.317889e+01  -6.053363e+01
   3.829273e+01  -2.914276e+01
  -2.710520e+01   5.984958e+00
  -6.796891e+01   9.899957e+00
  -1.843140e+01  -2.645395e+01
   7.667394e+01  -6.645675e+01
   1.184502e+02  -5.551224e+01
   7.017606e+01   1.527548e+01
  -1.252883e+01   8.505166e+01
  -5.687110e+01   8.345910e+01
  -4.505292e+01   1.208910e+01
  -8.014517e+00  -5.386194e+01
   2.391194e+01  -4.947543e+01
   3.840441e+01   9.631710e+00
   3.014775e+01   5.293656e+01
  -1.958239e-02   3.932897e+01
  -3.310220e+01  -4.101065e+00
  -4.142274e+01  -2.340243e+01
  -2.063205e+01  -3.860716e+00
   3.257507e+00   1.862708e+01
   6.229248e+00   6.345797e+00
  -2.900864e+00  -3.259625e+01
   3.008627e+00  -5.140842e+01
   2.755907e+01  -2.053302e+01
   3.964008e+01   3.518561e+01
   1.176747e+01   5.900164e+01
  -3.959578e+01   2.531328e+01
  -6.128357e+01  -3.269427e+01
  -1.942942e+01  -5.993878e+01
   5.594039e+01  -3.628660e+01
   9.289779e+01   1.081529e+01
   5.173280e+01   4.298332e+01
  -2.775814e+01   4.586517e+01
  -6.535322e+01   2.856897e+01
  -2.892333e+01   7.153043e+00
   2.927448e+01  -3.217406e+00
   3.432095e+01   6.857028e+00
  -2.359577e+01   2.609099e+01
  -7.943568e+01   2.152732e+01
