
 $NMID
 id='ANONYMOUS ', fmtdat='(2E16.6)'
 volume=1.0
 tramp=1.0
 $END
   3.492648e+03   1.298241e+02
   2.175539e+03   1.775901e+03
  -2.933292e+02   2.078810e+03
  -1.513280e+03   1.049309e+03
  -9.284995e+02  -1.054055e+02
   1.927503e+02  -3.019457e+02
   4.895341e+02   1.728532e+02
   8.108488e+01   6.281864e+02
  -5.601161e+02   6.653524e+02
  -7.081122e+02   6.374160e+01
  -4.129458e+02  -6.399947e+02
   1.584318e+02  -7.206606e+02
   3.756394e+02  -1.664229e+02
   2.878376e+02   5.484823e+02
  -1.518749e+02   6.084282e+02
  -4.827845e+02   9.323870e+01
  -3.074221e+02  -5.481050e+02
   1.347481e+02  -6.324764e+02
   4.892797e+02  -2.548259e+02
   4.178486e+02   2.175565e+02
   1.206826e+02   3.767746e+02
  -1.504039e+02   2.617599e+02
  -1.264608e+02   6.851704e+01
   1.612442e+02   4.331359e+01
   3.174902e+02   2.060314e+02
   7.376437e+01   3.506997e+02
  -4.709636e+02   2.572690e+02
  -6.679337e+02  -1.249293e+02
  -2.758767e+02  -3.930017e+02
   3.449461e+02  -2.899771e+02
   5.793330e+02   8.988454e+01
   2.548864e+02   3.901208e+02
  -2.488862e+02   4.060406e+02
  -4.805595e+02   1.650498e+02
  -3.532794e+02  -1.704232e+02
  -7.475946e+01  -3.601134e+02
   9.140147e+01  -2.115331e+02
   2.792050e+01   1.235983e+02
  -1.616389e+02   2.495519e+02
  -2.748625e+02  -9.478130e+01
  -8.975737e+01  -5.407316e+02
   2.584274e+02  -5.155742e+02
   3.988604e+02  -8.715451e+00
   1.596030e+02   3.801404e+02
  -1.931161e+02   1.918182e+02
  -2.309973e+02  -2.826243e+02
   1.005490e+02  -4.367341e+02
   4.821529e+02  -8.877321e+01
   5.211644e+02   3.747330e+02
   1.663019e+02   5.273171e+02
  -3.246866e+02   3.025797e+02
  -5.627289e+02  -5.315228e+01
  -3.615790e+02  -2.884551e+02
   7.341757e+01  -2.738930e+02
   3.358317e+02  -8.711989e+01
   2.247569e+02   6.873210e+01
  -3.478878e+01   4.327398e+01
  -8.262063e+01  -8.418995e+01
   1.242592e+02  -1.048953e+02
   2.792891e+02   4.963696e+01
   1.410312e+02   2.286767e+02
  -1.721794e+02   2.605163e+02
  -3.543111e+02   1.229310e+02
  -2.545623e+02  -9.918985e+01
   2.463477e+01  -3.009048e+02
   2.798010e+02  -3.593065e+02
   3.642362e+02  -1.828195e+02
   2.571368e+02   1.478844e+02
   6.789523e+01   3.816946e+02
  -5.046351e+01   3.526809e+02
  -5.364035e+01   1.766909e+02
  -4.488706e+01   8.266933e+01
  -1.234601e+02   1.021985e+02
  -2.358264e+02   6.630688e+01
  -2.456935e+02  -1.048807e+02
  -1.080219e+02  -2.583316e+02
   8.123926e+01  -2.116057e+02
   1.968075e+02   2.032489e+01
   1.610563e+02   2.367543e+02
  -2.263508e+01   2.659222e+02
  -2.447517e+02   8.717935e+01
  -3.306193e+02  -1.633194e+02
  -1.860733e+02  -3.149043e+02
   5.992163e+01  -2.836772e+02
   1.876541e+02  -1.535048e+02
   1.529748e+02  -6.604190e+01
   1.395434e+02  -6.444933e+01
   2.781270e+02  -4.682786e+01
   4.236332e+02   8.882473e+01
   3.320357e+02   3.005987e+02
  -1.890160e+01   4.484685e+02
  -3.784674e+02   4.077793e+02
  -4.805584e+02   1.892832e+02
  -3.013538e+02  -8.859088e+01
  -3.620233e+01  -2.580046e+02
   9.362539e+01  -2.179899e+02
   2.669754e+01  -4.505475e+01
  -1.125818e+02   5.406016e+01
  -1.451953e+02  -2.676206e+01
  -2.110484e+01  -1.547210e+02
   1.270067e+02  -1.239799e+02
   1.281101e+02   5.493566e+01
  -2.435364e+01   1.496580e+02
  -1.727590e+02   9.824936e+00
  -1.607138e+02  -2.431942e+02
   1.920868e+01  -3.525544e+02
   2.415193e+02  -2.101024e+02
   3.576034e+02   6.118579e+01
   2.862842e+02   2.600365e+02
   7.317080e+01   2.754245e+02
  -1.243956e+02   1.472292e+02
  -1.574674e+02   1.038446e+01
  -4.007489e+01  -1.606952e+01
   5.574671e+01   6.057765e+01
   1.789863e+00   1.221345e+02
  -1.284178e+02   7.761076e+01
  -1.578944e+02  -2.442911e+01
  -3.837654e+01  -6.141859e+01
   8.309782e+01   4.674739e+00
   4.333455e+01   8.878223e+01
  -1.440232e+02   8.925293e+01
  -3.006827e+02  -1.324574e+01
  -2.639106e+02  -1.594344e+02
  -4.065194e+01  -2.613688e+02
   1.992775e+02  -2.463763e+02
   2.726053e+02  -1.116138e+02
   1.478965e+02   4.235148e+01
  -2.618350e+01   8.428234e+01
  -6.842143e+01  -2.581094e+00
   5.154085e+01  -8.624303e+01
   1.914792e+02  -3.868252e+01
   1.974322e+02   1.061280e+02
   6.129150e+01   1.951987e+02
  -8.879758e+01   1.425790e+02
  -1.289018e+02   2.155224e+01
  -5.213149e+01  -3.492242e+01
   3.793395e+01   1.835301e+01
   2.832397e+01   1.057307e+02
  -9.279054e+01   1.184519e+02
  -2.099941e+02   1.739605e+01
  -1.862768e+02  -1.321498e+02
  -1.401054e+01  -2.120494e+02
   1.581813e+02  -1.552594e+02
   1.786308e+02  -1.085501e+01
   5.609672e+01   9.879881e+01
  -6.375647e+01   9.845703e+01
  -7.174370e+01   2.571058e+01
  -3.313255e+00  -2.431263e+01
   3.305341e+01  -9.801731e+00
  -1.279752e+01   2.161678e+01
  -8.810904e+01  -3.113377e+00
  -1.014894e+02  -9.376817e+01
  -9.432092e+00  -1.754126e+02
   1.422959e+02  -1.545746e+02
   2.404573e+02  -1.225394e+01
   1.971762e+02   1.585872e+02
   4.017748e+01   2.324658e+02
  -1.026885e+02   1.644858e+02
  -1.317235e+02   3.295314e+01
  -7.466320e+01  -4.487051e+01
  -3.494679e+01  -2.983222e+01
  -5.814411e+01   1.369821e+01
  -8.891704e+01   5.674667e+00
  -5.427550e+01  -5.814283e+01
   4.200008e+01  -1.047423e+02
   1.202379e+02  -6.610191e+01
   1.037981e+02   4.280081e+01
  -1.690514e+01   1.275705e+02
  -1.610354e+02   9.135006e+01
  -2.071314e+02  -6.192748e+01
  -9.159399e+01  -2.123608e+02
   1.194476e+02  -2.270060e+02
   2.689112e+02  -8.794807e+01
   2.507835e+02   8.753162e+01
   1.043166e+02   1.709796e+02
  -3.884218e+01   1.406720e+02
  -9.009831e+01   8.219392e+01
  -7.144883e+01   7.172162e+01
  -5.964293e+01   9.715277e+01
  -9.189996e+01   8.195594e+01
  -1.352127e+02  -1.810403e+01
  -1.236952e+02  -1.567588e+02
  -2.939383e+01  -2.309387e+02
   1.015039e+02  -1.721453e+02
   1.748684e+02  -1.432116e+01
   1.313211e+02   1.281027e+02
   1.222946e+01   1.594748e+02
  -7.403178e+01   8.420407e+01
  -6.247159e+01  -1.114399e+01
   2.178929e+00  -5.070247e+01
   2.299829e+01  -3.432812e+01
  -3.085845e+01  -1.262216e+01
  -8.568418e+01  -1.961721e+01
  -5.024097e+01  -4.101372e+01
   7.199347e+01  -4.000969e+01
   1.726595e+02   4.442277e-01
   1.464392e+02   6.014674e+01
   3.823750e+00   9.577502e+01
  -1.322347e+02   7.492792e+01
  -1.469210e+02   8.913147e+00
  -4.598331e+01  -4.817981e+01
   6.088903e+01  -4.419116e+01
   7.984648e+01   1.733486e+01
   1.814653e+01   7.387236e+01
  -4.836895e+01   6.656784e+01
  -6.889335e+01   2.422362e+00
  -5.597320e+01  -5.099815e+01
  -4.736793e+01  -4.312590e+01
  -5.752374e+01  -6.042845e-01
  -6.714144e+01   2.633670e-01
  -4.462084e+01  -7.223611e+01
   2.744693e+01  -1.545437e+02
   1.248193e+02  -1.487092e+02
   1.794517e+02  -3.551313e+01
   1.313915e+02   9.455780e+01
   3.904445e+00   1.335527e+02
  -9.175280e+01   6.919004e+01
  -6.274110e+01  -1.126822e+01
   5.885328e+01  -2.134988e+01
   1.366425e+02   4.145014e+01
   7.371346e+01   1.072059e+02
  -8.297505e+01   1.115031e+02
  -1.916958e+02   4.734323e+01
  -1.603406e+02  -3.903795e+01
  -3.245047e+01  -8.666547e+01
   6.518617e+01  -6.417444e+01
   5.023327e+01   5.292424e-02
  -4.060569e+01   3.257504e+01
  -9.529800e+01  -1.880097e+01
  -4.148427e+01  -1.184245e+02
   8.091133e+01  -1.604199e+02
   1.617773e+02  -7.280335e+01
   1.302319e+02   9.313890e+01
   1.807876e+01   1.963782e+02
  -8.180975e+01   1.444216e+02
  -1.051541e+02  -9.468640e+00
  -5.804753e+01  -1.206236e+02
   9.382555e+00  -1.047568e+02
   5.032988e+01  -1.639202e+01
   4.769191e+01   3.183513e+01
   1.941676e+01   7.442452e+00
   5.108347e+00  -1.838047e+01
   2.810898e+01   1.997633e+01
   5.874935e+01   8.998042e+01
   3.625657e+01   1.063951e+02
  -5.369589e+01   4.367627e+01
  -1.386658e+02  -3.680237e+01
  -1.272414e+02  -6.924695e+01
  -1.909809e+01  -5.311565e+01
   8.340742e+01  -2.654086e+01
   8.824180e+01  -7.104801e+00
   1.605150e+01   1.062758e+01
  -3.586684e+01   2.182118e+01
  -1.817773e+01   1.359223e+01
   1.675159e+01  -4.106134e+00
  -3.576859e+00  -6.216112e+00
  -6.932408e+01   1.057104e+00
  -9.404975e+01  -2.144942e+01
  -1.955675e+01  -8.230710e+01
   1.103475e+02  -1.209473e+02
   1.897494e+02  -6.855601e+01
   1.537902e+02   5.916691e+01
   3.406164e+01   1.621163e+02
  -7.879299e+01   1.583401e+02
  -1.170814e+02   6.776116e+01
  -8.259150e+01  -1.842985e+01
  -2.753752e+01  -3.806756e+01
  -1.602319e+00  -1.296281e+01
  -1.325717e+01  -7.699887e+00
  -3.197495e+01  -4.846227e+01
  -2.076391e+01  -9.154418e+01
   2.836367e+01  -7.296501e+01
   8.050221e+01   1.463542e+01
   8.247023e+01   1.030013e+02
   1.420257e+01   1.120941e+02
  -7.749232e+01   3.232226e+01
  -1.085398e+02  -6.602855e+01
  -4.125970e+01  -1.040026e+02
   6.420440e+01  -6.480763e+01
   1.043871e+02   6.642434e+00
   4.607959e+01   5.652851e+01
  -3.341473e+01   6.117509e+01
  -3.850097e+01   3.021112e+01
   2.760213e+01  -5.485739e+00
   6.883133e+01  -1.017068e+01
   1.830131e+01   2.641090e+01
  -7.815121e+01   6.793078e+01
  -1.203821e+02   5.769719e+01
  -7.132581e+01  -1.457424e+01
   1.212984e+01  -8.668032e+01
   5.634499e+01  -8.575665e+01
   4.443824e+01  -1.292074e+01
   7.839139e+00   5.435826e+01
  -2.339346e+01   4.962018e+01
  -3.778997e+01  -1.066325e+01
  -3.000382e+01  -5.405927e+01
   6.211262e-02  -3.916213e+01
   3.360723e+01   5.049220e+00
   4.229985e+01   2.393978e+01
   2.130323e+01   3.704369e+00
  -3.269681e+00  -1.862200e+01
  -6.811472e+00  -5.458368e+00
   1.965088e+00   3.366340e+01
  -4.043977e+00   5.160401e+01
  -2.821342e+01   1.939995e+01
  -3.959027e+01  -3.688124e+01
  -1.083615e+01  -6.013042e+01
   4.109778e+01  -2.514668e+01
   6.250358e+01   3.403949e+01
   1.978324e+01   6.151862e+01
  -5.674155e+01   3.719987e+01
  -9.440527e+01  -1.062247e+01
  -5.277580e+01  -4.312629e+01
   2.785441e+01  -4.586092e+01
   6.599463e+01  -2.851217e+01
   2.870410e+01  -7.202814e+00
  -3.063906e+01   2.755865e+00
  -3.527949e+01  -7.793494e+00
   2.460970e+01  -2.730671e+01
   8.204678e+01  -2.215849e+01
