
 $NMID
 id='ANONYMOUS ', fmtdat='(2E16.6)'
 volume=1.0
 tramp=1.0
 $END
  -3.551797e+03  -1.240053e+01
  -2.202791e+03  -1.916365e+03
   3.507125e+02  -2.216387e+03
   1.587848e+03  -9.720087e+02
   9.131276e+02   1.263877e+02
  -2.174226e+02   3.916551e+02
  -5.224900e+02  -1.803822e+02
  -1.120378e+02  -7.931802e+02
   6.321533e+02  -6.569154e+02
   6.861986e+02   7.823393e+00
   3.702187e+02   6.796517e+02
  -1.794216e+02   7.103113e+02
  -4.477634e+02   1.341582e+02
  -3.305584e+02  -5.592612e+02
   2.229009e+02  -6.544148e+02
   5.104528e+02  -6.065519e+01
   2.794048e+02   5.661020e+02
  -1.984799e+02   6.419157e+02
  -5.073778e+02   2.053552e+02
  -3.876807e+02  -2.620959e+02
  -1.154485e+02  -4.023888e+02
   1.693922e+02  -2.656101e+02
   1.266380e+02  -6.075336e+01
  -1.510874e+02  -1.362563e+01
  -3.130633e+02  -2.112365e+02
  -7.912253e+01  -3.683884e+02
   4.705550e+02  -2.640367e+02
   6.984357e+02   1.363602e+02
   3.026125e+02   4.340315e+02
  -3.598228e+02   3.233460e+02
  -6.097746e+02  -8.066656e+01
  -2.633348e+02  -4.072836e+02
   2.671264e+02  -4.248404e+02
   4.955125e+02  -1.756438e+02
   3.574561e+02   1.836648e+02
   7.643672e+01   3.768810e+02
  -9.786381e+01   2.200845e+02
  -3.892273e+01  -1.507770e+02
   1.627809e+02  -2.877447e+02
   2.960092e+02   8.961680e+01
   1.108485e+02   5.676740e+02
  -2.691525e+02   5.448147e+02
  -4.292109e+02  -4.065434e+00
  -1.789513e+02  -4.150368e+02
   2.124359e+02  -2.122787e+02
   2.588516e+02   2.935901e+02
  -9.597638e+01   4.491089e+02
  -4.896746e+02   8.860314e+01
  -5.248720e+02  -3.835877e+02
  -1.540166e+02  -5.335727e+02
   3.353966e+02  -3.037090e+02
   5.678580e+02   6.326498e+01
   3.570860e+02   3.098090e+02
  -9.025619e+01   2.901073e+02
  -3.516768e+02   7.881328e+01
  -2.233946e+02  -9.204180e+01
   4.861038e+01  -5.195453e+01
   8.647252e+01   9.400580e+01
  -1.359559e+02   1.111621e+02
  -2.874142e+02  -5.823534e+01
  -1.337634e+02  -2.354957e+02
   1.803671e+02  -2.525795e+02
   3.477480e+02  -1.147360e+02
   2.431238e+02   9.005828e+01
  -2.298371e+01   2.851229e+02
  -2.692344e+02   3.574763e+02
  -3.610260e+02   1.902367e+02
  -2.604800e+02  -1.518915e+02
  -6.141252e+01  -3.962836e+02
   6.925264e+01  -3.547342e+02
   6.640413e+01  -1.568430e+02
   3.885231e+01  -6.041229e+01
   1.089810e+02  -9.730695e+01
   2.303410e+02  -7.703310e+01
   2.515457e+02   9.404184e+01
   1.137630e+02   2.563404e+02
  -8.332970e+01   2.167202e+02
  -2.021000e+02  -1.268327e+01
  -1.613496e+02  -2.338714e+02
   2.535635e+01  -2.681109e+02
   2.481049e+02  -9.223427e+01
   3.303451e+02   1.642366e+02
   1.793564e+02   3.188506e+02
  -7.007444e+01   2.829956e+02
  -1.944179e+02   1.442033e+02
  -1.482346e+02   5.314105e+01
  -1.290358e+02   6.015525e+01
  -2.670428e+02   5.117870e+01
  -4.181310e+02  -8.523092e+01
  -3.298206e+02  -2.990725e+02
   1.868034e+01  -4.454585e+02
   3.769279e+02  -4.040006e+02
   4.822699e+02  -1.850214e+02
   3.045310e+02   9.510426e+01
   3.442472e+01   2.652663e+02
  -1.041660e+02   2.195922e+02
  -3.559738e+01   3.663829e+01
   1.158049e+02  -6.475600e+01
   1.564414e+02   2.570162e+01
   2.320508e+01   1.635696e+02
  -1.369184e+02   1.315014e+02
  -1.382586e+02  -5.697755e+01
   2.453576e+01  -1.562517e+02
   1.774855e+02  -1.306573e+01
   1.596941e+02   2.426118e+02
  -2.241023e+01   3.501577e+02
  -2.392474e+02   2.066097e+02
  -3.512926e+02  -6.049293e+01
  -2.844027e+02  -2.567722e+02
  -7.537566e+01  -2.738241e+02
   1.248616e+02  -1.473549e+02
   1.617026e+02  -8.276417e+00
   4.048478e+01   2.146926e+01
  -6.203359e+01  -5.781277e+01
  -7.666549e+00  -1.248138e+02
   1.290781e+02  -8.256345e+01
   1.628747e+02   2.239408e+01
   4.213370e+01   6.397272e+01
  -8.192216e+01   2.769497e-01
  -4.436625e+01  -8.361036e+01
   1.396256e+02  -8.574394e+01
   2.935788e+02   1.289604e+01
   2.595155e+02   1.554671e+02
   4.188506e+01   2.575855e+02
  -1.965185e+02   2.453589e+02
  -2.736647e+02   1.113419e+02
  -1.506523e+02  -4.457680e+01
   2.744463e+01  -8.700472e+01
   7.358843e+01   2.852644e+00
  -4.835815e+01   8.945751e+01
  -1.935546e+02   4.093576e+01
  -2.013020e+02  -1.069476e+02
  -6.259225e+01  -1.975531e+02
   9.093345e+01  -1.445611e+02
   1.329618e+02  -2.240564e+01
   5.632429e+01   3.638445e+01
  -3.589260e+01  -1.344340e+01
  -3.022691e+01  -9.972551e+01
   8.827106e+01  -1.156740e+02
   2.064525e+02  -1.852380e+01
   1.852209e+02   1.308880e+02
   1.290925e+01   2.129563e+02
  -1.611930e+02   1.557492e+02
  -1.822819e+02   8.312941e+00
  -5.770332e+01  -1.031575e+02
   6.491128e+01  -1.013475e+02
   7.473441e+01  -2.681826e+01
   6.777039e+00   2.423371e+01
  -3.113822e+01   1.111319e+01
   1.112449e+01  -1.908961e+01
   8.356654e+01   4.428504e+00
   9.884688e+01   9.147588e+01
   1.115542e+01   1.713267e+02
  -1.383098e+02   1.532691e+02
  -2.384135e+02   1.398699e+01
  -1.970970e+02  -1.574879e+02
  -3.930357e+01  -2.328797e+02
   1.042552e+02  -1.634940e+02
   1.321016e+02  -2.945406e+01
   7.323246e+01   4.792042e+01
   3.353398e+01   3.022514e+01
   5.655186e+01  -1.469403e+01
   8.612315e+01  -6.264872e+00
   5.095632e+01   5.615850e+01
  -4.184011e+01   1.006805e+02
  -1.160321e+02   6.290088e+01
  -9.947075e+01  -4.168853e+01
   1.739312e+01  -1.234513e+02
   1.577655e+02  -8.903326e+01
   2.045375e+02   6.071937e+01
   9.133192e+01   2.098779e+02
  -1.182107e+02   2.263170e+02
  -2.674792e+02   8.804551e+01
  -2.494201e+02  -8.787328e+01
  -1.038879e+02  -1.712295e+02
   3.849805e+01  -1.407559e+02
   9.066523e+01  -8.155596e+01
   7.345945e+01  -7.028463e+01
   6.120526e+01  -9.436632e+01
   9.063664e+01  -7.925225e+01
   1.318510e+02   1.866184e+01
   1.215034e+02   1.551454e+02
   2.948400e+01   2.290346e+02
  -1.008708e+02   1.716203e+02
  -1.749032e+02   1.497791e+01
  -1.318446e+02  -1.269427e+02
  -1.288007e+01  -1.587060e+02
   7.273394e+01  -8.457392e+01
   6.107255e+01   9.098084e+00
  -1.727651e+00   4.827010e+01
  -2.069223e+01   3.334159e+01
   3.199456e+01   1.349359e+01
   8.396932e+01   2.052896e+01
   4.850784e+01   4.043277e+01
  -7.041814e+01   3.870633e+01
  -1.689421e+02  -8.169477e-01
  -1.449275e+02  -5.920221e+01
  -5.698422e+00  -9.446435e+01
   1.297665e+02  -7.418117e+01
   1.464412e+02  -8.957724e+00
   4.664877e+01   4.717894e+01
  -6.051626e+01   4.291696e+01
  -7.910919e+01  -1.742458e+01
  -1.671354e+01  -7.218157e+01
   4.922468e+01  -6.414865e+01
   6.731396e+01  -1.319872e+00
   5.274859e+01   5.063873e+01
   4.531175e+01   4.268351e+01
   5.698608e+01   7.315314e-01
   6.627796e+01  -7.132214e-01
   4.258152e+01   7.019982e+01
  -2.851847e+01   1.514901e+02
  -1.227374e+02   1.458571e+02
  -1.754303e+02   3.406429e+01
  -1.283456e+02  -9.387393e+01
  -3.638802e+00  -1.312949e+02
   9.032295e+01  -6.668558e+01
   6.151367e+01   1.219005e+01
  -5.888841e+01   2.065656e+01
  -1.359636e+02  -4.212278e+01
  -7.357985e+01  -1.069245e+02
   8.215660e+01  -1.110129e+02
   1.905875e+02  -4.773923e+01
   1.602430e+02   3.814813e+01
   3.343190e+01   8.634825e+01
  -6.414880e+01   6.507925e+01
  -5.012836e+01   1.489080e+00
   3.967403e+01  -3.092485e+01
   9.354525e+01   1.975374e+01
   3.913258e+01   1.178243e+02
  -8.283383e+01   1.577054e+02
  -1.618308e+02   6.964238e+01
  -1.281905e+02  -9.420498e+01
  -1.595952e+01  -1.950352e+02
   8.183719e+01  -1.427022e+02
   1.034820e+02   9.376017e+00
   5.730272e+01   1.192060e+02
  -8.308810e+00   1.037271e+02
  -4.905079e+01   1.625757e+01
  -4.794336e+01  -3.194685e+01
  -2.032381e+01  -7.703486e+00
  -4.883672e+00   1.867868e+01
  -2.650138e+01  -1.901447e+01
  -5.761495e+01  -8.943054e+01
  -3.680965e+01  -1.063976e+02
   5.232372e+01  -4.348611e+01
   1.376800e+02   3.747191e+01
   1.267332e+02   6.950888e+01
   1.844832e+01   5.227908e+01
  -8.392412e+01   2.544058e+01
  -8.794470e+01   7.038482e+00
  -1.539428e+01  -9.940606e+00
   3.568767e+01  -2.187031e+01
   1.729658e+01  -1.476345e+01
  -1.717343e+01   2.942118e+00
   4.369389e+00   6.532927e+00
   6.988810e+01   2.857943e-01
   9.253858e+01   2.234847e+01
   1.687003e+01   8.140508e+01
  -1.112579e+02   1.181499e+02
  -1.874779e+02   6.538169e+01
  -1.500912e+02  -6.064111e+01
  -3.211440e+01  -1.607764e+02
   7.825894e+01  -1.553282e+02
   1.157625e+02  -6.537525e+01
   8.159116e+01   1.900860e+01
   2.672724e+01   3.743462e+01
   4.923099e-01   1.194434e+01
   1.240515e+01   6.676007e+00
   3.178900e+01   4.723672e+01
   2.076181e+01   9.047584e+01
  -2.835124e+01   7.215182e+01
  -7.962540e+01  -1.548248e+01
  -8.018749e+01  -1.033529e+02
  -1.188252e+01  -1.110074e+02
   7.745222e+01  -2.984098e+01
   1.058370e+02   6.769305e+01
   3.859240e+01   1.028708e+02
  -6.416102e+01   6.189653e+01
  -1.020387e+02  -8.119671e+00
  -4.419678e+01  -5.499912e+01
   3.294042e+01  -5.858564e+01
   3.674443e+01  -2.948006e+01
  -2.837754e+01   4.158061e+00
  -6.799241e+01   8.976435e+00
  -1.732894e+01  -2.594468e+01
   7.754377e+01  -6.634002e+01
   1.180712e+02  -5.647663e+01
   6.883335e+01   1.404408e+01
  -1.312765e+01   8.448319e+01
  -5.552089e+01   8.290703e+01
  -4.271203e+01   1.102254e+01
  -6.235121e+00  -5.409676e+01
   2.415263e+01  -4.769883e+01
   3.749243e+01   1.229132e+01
   2.886100e+01   5.373320e+01
  -9.142492e-01   3.752477e+01
  -3.317010e+01  -5.952802e+00
  -4.101966e+01  -2.309619e+01
  -2.085853e+01  -2.535848e+00
   2.280211e+00   1.819250e+01
   6.185762e+00   3.797405e+00
  -4.945614e-01  -3.442504e+01
   6.603388e+00  -5.017632e+01
   2.886999e+01  -1.669812e+01
   3.711901e+01   3.855435e+01
   7.781267e+00   5.996459e+01
  -4.170812e+01   2.398987e+01
  -6.094386e+01  -3.499809e+01
  -1.854382e+01  -6.135994e+01
   5.588132e+01  -3.612178e+01
   9.220496e+01   1.158076e+01
   5.115382e+01   4.281643e+01
  -2.820430e+01   4.409320e+01
  -6.520735e+01   2.645061e+01
  -2.723018e+01   6.626324e+00
   3.201874e+01  -1.500374e+00
   3.545568e+01   9.656208e+00
  -2.591010e+01   2.795232e+01
  -8.366198e+01   2.125903e+01
