
 $NMID
 id='ANONYMOUS ', fmtdat='(2E16.6)'
 volume=1.0
 tramp=1.0
 $END
   4.255049e+03   4.864397e+01
   2.654264e+03   2.518429e+03
  -7.096225e+02   2.803443e+03
  -1.981082e+03   8.677798e+02
  -1.012350e+03  -6.736306e+02
   5.780619e+02  -5.053855e+02
   9.521520e+02   4.296875e+02
   3.239110e+01   1.062898e+03
  -7.583039e+02   7.354426e+02
  -9.027406e+02  -7.947076e+01
  -4.979735e+02  -7.878227e+02
   2.081986e+02  -9.013253e+02
   6.722862e+02  -8.089544e+01
   3.425776e+02   7.232514e+02
  -2.995667e+02   7.226170e+02
  -6.027990e+02   1.201602e+01
  -2.687173e+02  -6.691379e+02
   2.688452e+02  -6.513102e+02
   5.778433e+02  -1.041793e+02
   3.901369e+02   3.519840e+02
   1.092641e+01   4.520189e+02
  -2.308305e+02   2.640059e+02
  -2.145784e+02  -3.730008e+00
   1.270755e+02  -9.994766e+01
   4.172362e+02   8.933254e+01
   2.208921e+02   4.431703e+02
  -4.605245e+02   4.452980e+02
  -8.540643e+02  -7.564134e+01
  -4.552735e+02  -5.562172e+02
   3.999106e+02  -4.974185e+02
   7.636256e+02   4.632677e+01
   3.600080e+02   4.938613e+02
  -2.828587e+02   5.188100e+02
  -5.676188e+02   1.978586e+02
  -4.201023e+02  -2.246129e+02
  -7.543170e+01  -4.768903e+02
   2.147024e+02  -2.871414e+02
   1.889736e+02   2.157374e+02
  -1.705581e+02   4.653654e+02
  -4.763506e+02   6.827969e+00
  -2.629662e+02  -6.997794e+02
   3.409911e+02  -7.305395e+02
   6.472650e+02  -1.017495e+00
   2.697408e+02   5.917117e+02
  -3.184464e+02   3.532172e+02
  -4.222781e+02  -3.231837e+02
   5.219567e+01  -5.632166e+02
   5.698017e+02  -1.438354e+02
   6.062948e+02   4.177590e+02
   1.520421e+02   6.019541e+02
  -4.135551e+02   3.492273e+02
  -6.494902e+02  -9.094165e+01
  -3.677903e+02  -4.049944e+02
   1.754186e+02  -3.768700e+02
   4.597928e+02  -4.865141e+01
   2.376757e+02   2.151884e+02
  -1.372944e+02   1.170456e+02
  -1.564052e+02  -1.636476e+02
   1.697156e+02  -2.005156e+02
   3.599536e+02   7.557980e+01
   1.429214e+02   3.114552e+02
  -2.157664e+02   2.605340e+02
  -3.378984e+02   5.929536e+01
  -1.862888e+02  -9.519608e+01
   4.011107e+01  -2.148708e+02
   2.222075e+02  -3.088175e+02
   3.271972e+02  -2.119731e+02
   2.836572e+02   1.320669e+02
   7.841382e+01   4.329348e+02
  -1.171104e+02   3.872316e+02
  -1.276893e+02   1.142202e+02
  -2.995476e+01  -1.718452e+01
  -4.077374e+01   7.696633e+01
  -1.892087e+02   1.225348e+02
  -2.765670e+02  -5.573022e+01
  -1.596068e+02  -2.724127e+02
   7.371173e+01  -2.573716e+02
   2.322177e+02  -1.123206e+01
   2.042243e+02   2.390171e+02
  -4.681424e+00   2.945510e+02
  -2.651703e+02   1.181886e+02
  -3.646968e+02  -1.653627e+02
  -1.859042e+02  -3.516356e+02
   1.068892e+02  -3.073553e+02
   2.367839e+02  -1.159272e+02
   1.544504e+02   3.976377e+00
   9.232620e+01  -2.662766e+01
   2.233897e+02  -6.178388e+01
   3.908369e+02   5.638344e+01
   3.289284e+02   2.828276e+02
  -1.570572e+00   4.389021e+02
  -3.588125e+02   4.047893e+02
  -4.866353e+02   1.965171e+02
  -3.357509e+02  -9.443631e+01
  -5.275945e+01  -2.942780e+02
   1.343862e+02  -2.550028e+02
   8.732527e+01  -2.957584e+01
  -1.085841e+02   1.124782e+02
  -2.011507e+02  -1.083293e+00
  -5.467109e+01  -1.986964e+02
   1.651081e+02  -1.798712e+02
   1.857779e+02   5.921776e+01
  -1.520761e+01   2.002583e+02
  -1.978416e+02   3.878631e+01
  -1.653961e+02  -2.486491e+02
   3.486976e+01  -3.511811e+02
   2.325312e+02  -1.893814e+02
   3.218681e+02   6.785289e+01
   2.721537e+02   2.389441e+02
   9.364375e+01   2.621349e+02
  -1.140884e+02   1.615403e+02
  -1.832527e+02   2.140754e+01
  -6.459326e+01  -3.662289e+01
   7.081687e+01   3.268324e+01
   3.487611e+01   1.234733e+02
  -1.223899e+02   1.015505e+02
  -1.816339e+02  -1.351314e+01
  -6.008281e+01  -7.689299e+01
   8.255315e+01  -1.988938e+01
   5.924339e+01   7.241802e+01
  -1.192109e+02   8.647449e+01
  -2.761245e+02   2.329109e-02
  -2.579806e+02  -1.359656e+02
  -5.982294e+01  -2.487879e+02
   1.799410e+02  -2.574982e+02
   2.804948e+02  -1.266625e+02
   1.706921e+02   5.204164e+01
  -2.432445e+01   1.130575e+02
  -9.422065e+01   1.054025e+01
   2.934259e+01  -1.039421e+02
   1.955776e+02  -6.375453e+01
   2.150733e+02   1.009811e+02
   6.953169e+01   2.097982e+02
  -9.576805e+01   1.603281e+02
  -1.452706e+02   2.978996e+01
  -7.220403e+01  -4.229958e+01
   2.507785e+01  -5.481944e+00
   3.608734e+01   7.842324e+01
  -6.842631e+01   1.086154e+02
  -1.925622e+02   2.800713e+01
  -1.885669e+02  -1.212261e+02
  -2.120041e+01  -2.161855e+02
   1.651981e+02  -1.631908e+02
   1.958410e+02  -4.145312e+00
   6.543556e+01   1.177093e+02
  -6.911324e+01   1.133286e+02
  -8.569537e+01   3.032860e+01
  -2.039438e+01  -2.709143e+01
   1.967310e+01  -2.012683e+01
  -9.941478e+00   5.219157e+00
  -6.739416e+01  -1.085533e+01
  -8.292950e+01  -7.997647e+01
  -1.323248e+01  -1.527996e+02
   1.235187e+02  -1.479997e+02
   2.295639e+02  -2.557452e+01
   1.991511e+02   1.477598e+02
   3.953610e+01   2.371279e+02
  -1.114507e+02   1.699263e+02
  -1.364510e+02   2.539131e+01
  -6.871991e+01  -5.869444e+01
  -2.680164e+01  -3.747265e+01
  -5.322837e+01   1.149405e+01
  -7.853250e+01   5.864614e+00
  -3.871767e+01  -4.878919e+01
   4.406150e+01  -8.450514e+01
   9.865861e+01  -5.169137e+01
   8.046732e+01   3.563534e+01
  -1.378302e+01   1.066956e+02
  -1.372837e+02   8.242118e+01
  -1.921763e+02  -5.023072e+01
  -9.932991e+01  -1.977265e+02
   1.040795e+02  -2.249616e+02
   2.639233e+02  -9.435276e+01
   2.549278e+02   8.704536e+01
   1.075776e+02   1.774234e+02
  -4.003682e+01   1.460482e+02
  -9.465445e+01   8.185098e+01
  -7.936972e+01   6.727032e+01
  -6.730008e+01   8.882490e+01
  -9.196038e+01   7.190359e+01
  -1.249896e+02  -2.287935e+01
  -1.138257e+02  -1.515725e+02
  -2.839442e+01  -2.217908e+02
   9.728637e+01  -1.693640e+02
   1.733845e+02  -2.057245e+01
   1.348408e+02   1.203197e+02
   1.849553e+01   1.581740e+02
  -6.704870e+01   9.113798e+01
  -5.930777e+01   4.930785e-01
  -4.488727e+00  -4.130105e+01
   9.882423e+00  -3.280485e+01
  -3.622406e+01  -1.817377e+01
  -7.751191e+01  -2.421212e+01
  -4.299616e+01  -3.861346e+01
   6.202105e+01  -3.491248e+01
   1.528409e+02  -1.164547e+00
   1.391469e+02   4.974188e+01
   1.590718e+01   8.406560e+01
  -1.162096e+02   7.030198e+01
  -1.406150e+02   1.337764e+01
  -4.643014e+01  -3.798809e+01
   5.923438e+01  -3.432049e+01
   7.323255e+01   1.974333e+01
   5.014687e+00   6.671434e+01
  -5.627966e+01   5.565816e+01
  -6.133007e+01  -2.796135e+00
  -4.168173e+01  -4.939333e+01
  -4.225721e+01  -4.162834e+01
  -6.075164e+01  -3.388292e+00
  -6.426621e+01  -1.431426e+00
  -3.244415e+01  -6.615085e+01
   3.413562e+01  -1.414752e+02
   1.143085e+02  -1.364878e+02
   1.596499e+02  -3.061265e+01
   1.193634e+02   9.047206e+01
   5.425315e+00   1.231130e+02
  -8.441447e+01   5.838266e+01
  -5.808409e+01  -1.629091e+01
   5.894583e+01  -1.913648e+01
   1.348793e+02   4.471108e+01
   7.330936e+01   1.065458e+02
  -8.050638e+01   1.098329e+02
  -1.878375e+02   4.978533e+01
  -1.592301e+02  -3.386645e+01
  -3.630617e+01  -8.549127e+01
   5.973537e+01  -6.981257e+01
   4.803960e+01  -8.531217e+00
  -3.775145e+01   2.542071e+01
  -8.795187e+01  -2.250874e+01
  -3.021290e+01  -1.162071e+02
   9.258359e+01  -1.501740e+02
   1.659295e+02  -5.882058e+01
   1.229616e+02   1.011281e+02
   6.573878e+00   1.948595e+02
  -8.654164e+01   1.404796e+02
  -1.025798e+02  -8.500721e+00
  -5.828508e+01  -1.171696e+02
   2.240893e+00  -1.050228e+02
   4.515434e+01  -1.952886e+01
   5.215056e+01   3.151581e+01
   2.704602e+01   9.127310e+00
   3.955879e+00  -2.014750e+01
   1.860695e+01   1.460451e+01
   5.310339e+01   8.720958e+01
   4.112212e+01   1.080401e+02
  -4.546777e+01   4.414462e+01
  -1.355887e+02  -4.020033e+01
  -1.272062e+02  -7.100381e+01
  -1.608743e+01  -4.846066e+01
   8.745038e+01  -2.040018e+01
   8.628648e+01  -6.819301e+00
   8.945128e+00   6.825527e+00
  -3.881652e+01   2.148521e+01
  -1.316768e+01   1.810777e+01
   2.189269e+01  -1.238340e+00
  -5.988594e+00  -9.659351e+00
  -7.369275e+01  -5.616974e+00
  -8.891015e+01  -2.512658e+01
  -5.310605e+00  -7.899757e+01
   1.191613e+02  -1.100866e+02
   1.821224e+02  -5.369626e+01
   1.362853e+02   6.925083e+01
   2.205137e+01   1.592782e+02
  -7.906204e+01   1.445641e+02
  -1.118016e+02   5.436021e+01
  -7.818240e+01  -2.256708e+01
  -2.363219e+01  -3.455010e+01
   3.496208e+00  -7.882555e+00
  -9.515990e+00  -3.725680e+00
  -3.189022e+01  -4.487684e+01
  -2.134118e+01  -8.821057e+01
   2.975455e+01  -6.945683e+01
   7.974860e+01   2.017397e+01
   7.364428e+01   1.084620e+02
   9.847880e-01   1.102495e+02
  -8.278408e+01   2.071298e+01
  -1.000742e+02  -7.712346e+01
  -2.889900e+01  -1.017821e+02
   6.638932e+01  -5.186295e+01
   9.453069e+01   1.369501e+01
   3.598978e+01   4.853694e+01
  -3.321655e+01   4.802207e+01
  -3.005448e+01   2.625839e+01
   3.429263e+01   2.014158e-01
   6.796835e+01  -5.654407e+00
   1.384780e+01   2.413117e+01
  -7.828692e+01   6.318173e+01
  -1.129880e+02   5.600640e+01
  -6.134766e+01  -1.269046e+01
   1.710013e+01  -8.137524e+01
   5.281355e+01  -7.636977e+01
   3.563844e+01  -3.614872e+00
  -2.635633e-01   5.515836e+01
  -2.658082e+01   4.027479e+01
  -3.527191e+01  -2.008050e+01
  -2.421080e+01  -5.316858e+01
   3.999791e+00  -3.082905e+01
   3.201602e+01   9.163915e+00
   3.766367e+01   2.005564e+01
   1.993682e+01   4.401326e-01
   2.519592e-01  -1.328633e+01
  -6.304063e+00   4.323413e+00
  -8.139446e+00   3.628987e+01
  -1.893012e+01   4.244714e+01
  -3.228839e+01   5.036677e+00
  -2.719147e+01  -4.618488e+01
   5.316862e+00  -6.009779e+01
   4.471415e+01  -1.879810e+01
   5.386584e+01   4.040869e+01
   1.259848e+01   6.263668e+01
  -5.362977e+01   3.221231e+01
  -8.556753e+01  -1.701590e+01
  -4.682924e+01  -4.381155e+01
   2.858348e+01  -3.835320e+01
   6.304555e+01  -1.861910e+01
   2.252991e+01  -4.040349e+00
  -3.792763e+01  -3.870106e+00
  -3.704693e+01  -1.772234e+01
   3.193099e+01  -3.119543e+01
   9.137594e+01  -1.771196e+01
