
 $NMID
 id='ANONYMOUS ', fmtdat='(2E16.6)'
 volume=1.0
 tramp=1.0
 $END
   4.151859e+03   2.762170e+01
   2.387179e+03   2.456553e+03
  -6.710727e+02   2.523541e+03
  -2.043713e+03   9.228414e+02
  -9.729618e+02  -7.104972e+02
   6.357797e+02  -5.288366e+02
   8.671239e+02   4.618016e+02
   1.826367e+01   1.030101e+03
  -8.025463e+02   7.893903e+02
  -8.922532e+02  -4.185551e+01
  -4.462555e+02  -7.719787e+02
   2.493206e+02  -8.584541e+02
   6.325438e+02  -1.297069e+02
   3.618004e+02   7.254945e+02
  -2.516939e+02   7.151657e+02
  -5.801119e+02   2.319847e+01
  -2.755642e+02  -6.771690e+02
   2.751676e+02  -6.003320e+02
   5.588308e+02  -9.551630e+01
   3.915213e+02   3.317516e+02
   1.294467e+01   4.304973e+02
  -2.350925e+02   2.802007e+02
  -2.200769e+02   1.438506e+01
   1.091592e+02  -8.928104e+01
   3.863096e+02   9.959115e+01
   2.080519e+02   4.170639e+02
  -4.428620e+02   4.028318e+02
  -8.043560e+02  -5.931809e+01
  -4.074659e+02  -5.311566e+02
   3.728905e+02  -4.618867e+02
   7.152622e+02   2.663520e+01
   3.364923e+02   4.660416e+02
  -2.538491e+02   4.843980e+02
  -5.326244e+02   1.859719e+02
  -3.916582e+02  -2.310411e+02
  -5.138142e+01  -4.504148e+02
   2.167598e+02  -2.667316e+02
   1.722516e+02   2.157057e+02
  -1.575467e+02   4.353296e+02
  -4.483616e+02  -1.213762e+01
  -2.455754e+02  -6.511135e+02
   3.179720e+02  -6.766130e+02
   5.995658e+02  -7.516963e+00
   2.428947e+02   5.463846e+02
  -3.035870e+02   3.212086e+02
  -3.941083e+02  -3.079334e+02
   5.468275e+01  -5.390267e+02
   5.397620e+02  -1.433234e+02
   5.681557e+02   3.845753e+02
   1.460351e+02   5.614428e+02
  -3.838755e+02   3.267808e+02
  -6.035156e+02  -8.329562e+01
  -3.415701e+02  -3.805471e+02
   1.656168e+02  -3.556021e+02
   4.315391e+02  -4.924061e+01
   2.230123e+02   1.963261e+02
  -1.283057e+02   1.042360e+02
  -1.450560e+02  -1.549453e+02
   1.633821e+02  -1.860267e+02
   3.407596e+02   7.183172e+01
   1.345343e+02   2.889632e+02
  -2.007409e+02   2.402477e+02
  -3.127637e+02   5.444744e+01
  -1.745121e+02  -8.979895e+01
   3.052853e+01  -2.056004e+02
   2.018985e+02  -2.959144e+02
   3.100168e+02  -2.015119e+02
   2.732281e+02   1.256000e+02
   7.361860e+01   4.063531e+02
  -1.155343e+02   3.565839e+02
  -1.206118e+02   9.653695e+01
  -2.129938e+01  -2.211788e+01
  -3.114696e+01   7.502722e+01
  -1.727760e+02   1.225943e+02
  -2.543637e+02  -4.359003e+01
  -1.470183e+02  -2.459087e+02
   6.136238e+01  -2.355853e+02
   2.030799e+02  -1.121959e+01
   1.827117e+02   2.168614e+02
   2.260060e-02   2.712260e+02
  -2.392455e+02   1.109049e+02
  -3.380282e+02  -1.528214e+02
  -1.795871e+02  -3.329769e+02
   9.573332e+01  -2.930133e+02
   2.212619e+02  -1.076093e+02
   1.468329e+02   8.819449e+00
   8.770958e+01  -2.529292e+01
   2.119565e+02  -6.488263e+01
   3.708665e+02   4.645248e+01
   3.096036e+02   2.617751e+02
  -3.226928e+00   4.119785e+02
  -3.315474e+02   3.817399e+02
  -4.476264e+02   1.846886e+02
  -3.067887e+02  -8.528153e+01
  -5.089462e+01  -2.733157e+02
   1.208256e+02  -2.368217e+02
   7.811643e+01  -2.839089e+01
  -9.944355e+01   1.032100e+02
  -1.839112e+02  -4.099422e+00
  -4.717203e+01  -1.859063e+02
   1.533559e+02  -1.627058e+02
   1.705726e+02   6.071084e+01
  -1.604962e+01   1.846948e+02
  -1.833467e+02   3.205401e+01
  -1.509614e+02  -2.315458e+02
   3.127248e+01  -3.228531e+02
   2.102618e+02  -1.746878e+02
   2.952729e+02   5.968267e+01
   2.541887e+02   2.177680e+02
   9.063338e+01   2.412934e+02
  -1.034741e+02   1.483391e+02
  -1.675351e+02   1.790263e+01
  -5.602170e+01  -3.398238e+01
   6.901973e+01   3.333622e+01
   3.299424e+01   1.184054e+02
  -1.140155e+02   9.692390e+01
  -1.685680e+02  -9.819124e+00
  -5.649416e+01  -6.851856e+01
   7.367108e+01  -1.830369e+01
   5.261255e+01   6.459554e+01
  -1.088238e+02   7.919189e+01
  -2.520252e+02   3.729908e+00
  -2.383859e+02  -1.203605e+02
  -6.008925e+01  -2.276291e+02
   1.601086e+02  -2.392935e+02
   2.555189e+02  -1.192599e+02
   1.572131e+02   4.613683e+01
  -2.076663e+01   1.014643e+02
  -8.424806e+01   6.213332e+00
   2.904451e+01  -9.708521e+01
   1.804354e+02  -5.671517e+01
   1.974696e+02   9.557447e+01
   6.495981e+01   1.934421e+02
  -8.518757e+01   1.464702e+02
  -1.313408e+02   2.785203e+01
  -6.656252e+01  -3.665632e+01
   2.148501e+01  -3.061527e+00
   3.227272e+01   7.304541e+01
  -6.293718e+01   1.010921e+02
  -1.773339e+02   2.774646e+01
  -1.744809e+02  -1.107644e+02
  -2.075096e+01  -2.001364e+02
   1.509381e+02  -1.518533e+02
   1.792799e+02  -4.502520e+00
   5.980816e+01   1.079895e+02
  -6.251938e+01   1.039225e+02
  -7.702086e+01   2.763223e+01
  -1.736087e+01  -2.405862e+01
   1.729892e+01  -1.696362e+01
  -1.169653e+01   5.713692e+00
  -6.438272e+01  -1.044075e+01
  -7.701779e+01  -7.496510e+01
  -1.185129e+01  -1.421857e+02
   1.137101e+02  -1.381275e+02
   2.108509e+02  -2.536914e+01
   1.841200e+02   1.349305e+02
   3.876634e+01   2.168424e+02
  -9.952688e+01   1.563399e+02
  -1.237070e+02   2.409046e+01
  -6.299337e+01  -5.203679e+01
  -2.610734e+01  -3.386133e+01
  -5.012089e+01   1.052599e+01
  -7.270044e+01   4.842799e+00
  -3.459202e+01  -4.464990e+01
   4.046739e+01  -7.728327e+01
   8.957103e+01  -4.766462e+01
   7.269045e+01   3.082003e+01
  -1.355927e+01   9.692073e+01
  -1.250354e+02   7.654611e+01
  -1.765178e+02  -4.499577e+01
  -9.372659e+01  -1.817734e+02
   9.312090e+01  -2.081590e+02
   2.414199e+02  -8.889039e+01
   2.355079e+02   7.735680e+01
   1.010511e+02   1.609617e+02
  -3.450672e+01   1.338341e+02
  -8.638506e+01   7.718412e+01
  -7.403964e+01   6.384343e+01
  -6.325482e+01   8.231239e+01
  -8.485034e+01   6.547244e+01
  -1.151915e+02  -2.126683e+01
  -1.055140e+02  -1.394686e+02
  -2.764018e+01  -2.054684e+02
   8.840226e+01  -1.587731e+02
   1.601261e+02  -2.124157e+01
   1.263316e+02   1.105252e+02
   1.973773e+01   1.471052e+02
  -6.013731e+01   8.572285e+01
  -5.454145e+01   1.728258e+00
  -5.482791e+00  -3.702363e+01
   7.133344e+00  -2.949922e+01
  -3.511224e+01  -1.629932e+01
  -7.239469e+01  -2.187601e+01
  -3.998675e+01  -3.520431e+01
   5.673013e+01  -3.224926e+01
   1.400178e+02  -1.698647e+00
   1.274327e+02   4.505074e+01
   1.426997e+01   7.679426e+01
  -1.071084e+02   6.446944e+01
  -1.297636e+02   1.216190e+01
  -4.293838e+01  -3.522173e+01
   5.471365e+01  -3.212952e+01
   6.791503e+01   1.761000e+01
   5.605038e+00   6.094288e+01
  -5.070399e+01   5.131667e+01
  -5.556679e+01  -1.994825e+00
  -3.838604e+01  -4.475452e+01
  -3.970981e+01  -3.779912e+01
  -5.684479e+01  -2.339869e+00
  -5.941395e+01  -5.018038e-01
  -2.975709e+01  -6.013067e+01
   3.087869e+01  -1.305350e+02
   1.041610e+02  -1.269922e+02
   1.463163e+02  -2.947874e+01
   1.101897e+02   8.305874e+01
   5.707815e+00   1.137564e+02
  -7.756732e+01   5.401898e+01
  -5.382081e+01  -1.493418e+01
   5.423827e+01  -1.778116e+01
   1.247876e+02   4.072795e+01
   6.842340e+01   9.783363e+01
  -7.363031e+01   1.014212e+02
  -1.733260e+02   4.718066e+01
  -1.477347e+02  -2.999452e+01
  -3.439667e+01  -7.868400e+01
   5.478052e+01  -6.522905e+01
   4.463275e+01  -8.103384e+00
  -3.469472e+01   2.409094e+01
  -8.159426e+01  -2.012337e+01
  -2.889026e+01  -1.079373e+02
   8.454093e+01  -1.402982e+02
   1.534593e+02  -5.576912e+01
   1.151722e+02   9.287781e+01
   8.418908e+00   1.805626e+02
  -7.821074e+01   1.310971e+02
  -9.477600e+01  -6.372135e+00
  -5.526151e+01  -1.070510e+02
   5.171380e-01  -9.664666e+01
   4.110876e+01  -1.830316e+01
   4.848756e+01   2.848945e+01
   2.526609e+01   8.074827e+00
   3.364214e+00  -1.852632e+01
   1.664843e+01   1.374794e+01
   4.915482e+01   8.038622e+01
   3.906104e+01   9.921930e+01
  -4.097278e+01   4.072257e+01
  -1.253937e+02  -3.622151e+01
  -1.188966e+02  -6.424288e+01
  -1.616390e+01  -4.432382e+01
   8.052843e+01  -1.970199e+01
   8.016274e+01  -7.305965e+00
   8.501074e+00   6.187718e+00
  -3.610838e+01   2.022746e+01
  -1.249104e+01   1.660779e+01
   2.014922e+01  -1.823511e+00
  -5.718745e+00  -9.249869e+00
  -6.841925e+01  -4.585691e+00
  -8.236997e+01  -2.249757e+01
  -4.928610e+00  -7.336113e+01
   1.098092e+02  -1.032113e+02
   1.679935e+02  -5.132424e+01
   1.262980e+02   6.308818e+01
   2.203614e+01   1.473372e+02
  -7.125931e+01   1.345257e+02
  -1.026430e+02   5.148963e+01
  -7.290794e+01  -1.992532e+01
  -2.258029e+01  -3.156893e+01
   3.274565e+00  -7.513845e+00
  -8.410967e+00  -3.554140e+00
  -2.984854e+01  -4.099884e+01
  -2.080144e+01  -8.073965e+01
   2.646540e+01  -6.398097e+01
   7.355896e+01   1.773876e+01
   6.893559e+01   9.901763e+01
   2.027463e+00   1.016018e+02
  -7.592511e+01   2.008649e+01
  -9.292667e+01  -6.996209e+01
  -2.757377e+01  -9.367612e+01
   6.067736e+01  -4.859795e+01
   8.755155e+01   1.175522e+01
   3.409808e+01   4.463253e+01
  -2.973239e+01   4.497354e+01
  -2.720115e+01   2.535772e+01
   3.166344e+01   9.425522e-01
   6.208228e+01  -5.357599e+00
   1.212006e+01   2.200214e+01
  -7.209740e+01   5.881496e+01
  -1.034349e+02   5.316658e+01
  -5.644606e+01  -1.025884e+01
   1.426712e+01  -7.491459e+01
   4.667605e+01  -7.172548e+01
   3.243867e+01  -4.693679e+00
   1.327598e+00   5.070718e+01
  -2.283157e+01   3.819479e+01
  -3.270167e+01  -1.732916e+01
  -2.404165e+01  -4.853244e+01
   2.576589e+00  -2.873095e+01
   2.972653e+01   7.959014e+00
   3.520951e+01   1.823475e+01
   1.853280e+01   6.282350e-01
   1.259155e-01  -1.168263e+01
  -5.851946e+00   4.548414e+00
  -7.997806e+00   3.383060e+01
  -1.837190e+01   3.893668e+01
  -3.061374e+01   4.067066e+00
  -2.505272e+01  -4.310959e+01
   5.511250e+00  -5.564941e+01
   4.151088e+01  -1.730592e+01
   4.947977e+01   3.718494e+01
   1.172102e+01   5.756134e+01
  -4.899065e+01   2.965651e+01
  -7.872446e+01  -1.525627e+01
  -4.360896e+01  -3.978879e+01
   2.587230e+01  -3.517228e+01
   5.805825e+01  -1.741956e+01
   2.086678e+01  -4.035751e+00
  -3.520222e+01  -3.558484e+00
  -3.465682e+01  -1.634105e+01
   2.925950e+01  -2.918470e+01
   8.455862e+01  -1.682790e+01
