
 $NMID
 id='ANONYMOUS ', fmtdat='(2E16.6)'
 volume=1.0
 tramp=1.0
 $END
   4.510080e+03   4.849995e+01
   2.624575e+03   2.620465e+03
  -6.531148e+02   2.889518e+03
  -2.069947e+03   8.652783e+02
  -9.416863e+02  -6.947814e+02
   6.674857e+02  -6.486339e+02
   9.270931e+02   3.799187e+02
   3.319633e+01   1.074136e+03
  -8.492645e+02   7.843883e+02
  -9.782508e+02  -6.781554e+01
  -4.436178e+02  -7.814223e+02
   1.765883e+02  -9.002439e+02
   6.392497e+02  -1.134902e+02
   3.822553e+02   7.392574e+02
  -2.638560e+02   7.616735e+02
  -6.164777e+02   2.716512e+01
  -2.979554e+02  -6.936883e+02
   3.293617e+02  -6.683702e+02
   6.196434e+02  -1.095876e+02
   4.001956e+02   3.574183e+02
   2.035102e+01   4.614562e+02
  -2.549183e+02   2.791638e+02
  -2.296042e+02   6.284966e+00
   1.135510e+02  -1.184673e+02
   4.134057e+02   9.161552e+01
   2.186454e+02   4.438930e+02
  -4.493438e+02   4.381399e+02
  -8.599617e+02  -6.719315e+01
  -4.572912e+02  -5.544263e+02
   3.993109e+02  -5.013454e+02
   7.708717e+02   3.274331e+01
   3.675793e+02   4.886720e+02
  -2.807186e+02   5.200852e+02
  -5.671215e+02   2.106710e+02
  -4.074604e+02  -2.260660e+02
  -6.509427e+01  -4.797390e+02
   2.166697e+02  -2.839468e+02
   1.794123e+02   2.281800e+02
  -1.751572e+02   4.637338e+02
  -4.762791e+02  -5.219094e+00
  -2.656317e+02  -6.968185e+02
   3.375045e+02  -7.299699e+02
   6.424493e+02   8.614361e-01
   2.741640e+02   5.869318e+02
  -3.189502e+02   3.497678e+02
  -4.209403e+02  -3.249077e+02
   5.803063e+01  -5.692366e+02
   5.716587e+02  -1.536000e+02
   6.116349e+02   4.060300e+02
   1.633274e+02   5.983332e+02
  -4.043189e+02   3.556041e+02
  -6.489929e+02  -8.265699e+01
  -3.744341e+02  -4.043806e+02
   1.717937e+02  -3.828575e+02
   4.619443e+02  -5.074692e+01
   2.411337e+02   2.127205e+02
  -1.370690e+02   1.119577e+02
  -1.582958e+02  -1.662692e+02
   1.685058e+02  -1.988668e+02
   3.582678e+02   7.497635e+01
   1.436080e+02   3.035422e+02
  -2.068421e+02   2.534524e+02
  -3.260144e+02   6.515827e+01
  -1.879497e+02  -8.019958e+01
   2.152262e+01  -2.084984e+02
   2.071251e+02  -3.193174e+02
   3.339798e+02  -2.250696e+02
   3.016300e+02   1.339060e+02
   8.316208e+01   4.475528e+02
  -1.289484e+02   3.963300e+02
  -1.386050e+02   1.095010e+02
  -2.935998e+01  -2.457337e+01
  -3.692625e+01   7.850267e+01
  -1.904089e+02   1.306099e+02
  -2.784040e+02  -4.879668e+01
  -1.593239e+02  -2.691838e+02
   7.145437e+01  -2.555252e+02
   2.243568e+02  -1.095192e+01
   1.967287e+02   2.362727e+02
  -4.155342e+00   2.915494e+02
  -2.603466e+02   1.194992e+02
  -3.621314e+02  -1.614725e+02
  -1.902357e+02  -3.494939e+02
   1.030328e+02  -3.081560e+02
   2.365224e+02  -1.175188e+02
   1.515904e+02   4.893109e+00
   8.725728e+01  -2.822274e+01
   2.211224e+02  -6.884291e+01
   3.970084e+02   4.909372e+01
   3.366807e+02   2.806859e+02
   3.108300e+00   4.434218e+02
  -3.566923e+02   4.147575e+02
  -4.867023e+02   2.030760e+02
  -3.379608e+02  -9.392570e+01
  -5.586018e+01  -2.981381e+02
   1.335463e+02  -2.575424e+02
   8.832434e+01  -2.790196e+01
  -1.071641e+02   1.162874e+02
  -2.017619e+02   1.114527e+00
  -5.637407e+01  -1.965722e+02
   1.622515e+02  -1.781230e+02
   1.825598e+02   5.821569e+01
  -1.708430e+01   1.952388e+02
  -1.966731e+02   3.552993e+01
  -1.633911e+02  -2.456421e+02
   3.174753e+01  -3.458974e+02
   2.264766e+02  -1.898868e+02
   3.194645e+02   5.931053e+01
   2.761982e+02   2.300710e+02
   9.976235e+01   2.578435e+02
  -1.092100e+02   1.613868e+02
  -1.784806e+02   2.437913e+01
  -5.978240e+01  -3.160768e+01
   7.260558e+01   3.782914e+01
   3.283863e+01   1.261664e+02
  -1.246161e+02   1.018309e+02
  -1.815586e+02  -1.237067e+01
  -5.994367e+01  -7.427242e+01
   8.055377e+01  -1.887911e+01
   5.720729e+01   7.043539e+01
  -1.178508e+02   8.514208e+01
  -2.729000e+02   2.847111e+00
  -2.578513e+02  -1.309031e+02
  -6.400754e+01  -2.461118e+02
   1.749408e+02  -2.584603e+02
   2.778835e+02  -1.285771e+02
   1.701376e+02   5.070857e+01
  -2.494312e+01   1.112798e+02
  -9.540734e+01   7.388843e+00
   2.863528e+01  -1.070185e+02
   1.967539e+02  -6.529788e+01
   2.184872e+02   1.005108e+02
   7.378869e+01   2.096786e+02
  -9.309509e+01   1.610153e+02
  -1.455750e+02   3.198124e+01
  -7.373068e+01  -3.997900e+01
   2.461689e+01  -4.654929e+00
   3.684769e+01   7.815722e+01
  -6.793484e+01   1.093494e+02
  -1.934302e+02   3.027320e+01
  -1.901511e+02  -1.195135e+02
  -2.217663e+01  -2.166768e+02
   1.649651e+02  -1.647080e+02
   1.954715e+02  -5.023960e+00
   6.466497e+01   1.177811e+02
  -6.906689e+01   1.132332e+02
  -8.476510e+01   2.975966e+01
  -1.873697e+01  -2.716981e+01
   2.084989e+01  -1.895235e+01
  -1.039169e+01   7.548326e+00
  -6.917932e+01  -8.800269e+00
  -8.549074e+01  -7.974709e+01
  -1.572962e+01  -1.544739e+02
   1.214381e+02  -1.507417e+02
   2.293394e+02  -2.802560e+01
   2.010296e+02   1.464610e+02
   4.255580e+01   2.360614e+02
  -1.089787e+02   1.689906e+02
  -1.352190e+02   2.501728e+01
  -6.813707e+01  -5.788195e+01
  -2.629605e+01  -3.570460e+01
  -5.188855e+01   1.369027e+01
  -7.780912e+01   7.275430e+00
  -3.927042e+01  -4.826256e+01
   4.258688e+01  -8.461880e+01
   9.743658e+01  -5.205370e+01
   7.981269e+01   3.482665e+01
  -1.383453e+01   1.066024e+02
  -1.363511e+02   8.387592e+01
  -1.925700e+02  -4.853340e+01
  -1.008355e+02  -1.968454e+02
   1.015389e+02  -2.264321e+02
   2.619421e+02  -9.745997e+01
   2.548111e+02   8.313597e+01
   1.095409e+02   1.744936e+02
  -3.722913e+01   1.460206e+02
  -9.325887e+01   8.333076e+01
  -7.892152e+01   6.810849e+01
  -6.630906e+01   8.871253e+01
  -9.007307e+01   7.251482e+01
  -1.244440e+02  -2.047163e+01
  -1.162003e+02  -1.488530e+02
  -3.232102e+01  -2.211815e+02
   9.407930e+01  -1.713423e+02
   1.727654e+02  -2.342706e+01
   1.369974e+02   1.181114e+02
   2.179888e+01   1.572544e+02
  -6.462921e+01   9.165253e+01
  -5.845602e+01   1.946309e+00
  -4.871122e+00  -3.952454e+01
   9.131852e+00  -3.130265e+01
  -3.702734e+01  -1.680886e+01
  -7.809976e+01  -2.274413e+01
  -4.357651e+01  -3.781446e+01
   6.148781e+01  -3.573962e+01
   1.525259e+02  -3.085384e+00
   1.392905e+02   4.850418e+01
   1.642482e+01   8.501791e+01
  -1.161366e+02   7.263789e+01
  -1.413420e+02   1.494209e+01
  -4.780498e+01  -3.853037e+01
   5.826424e+01  -3.652560e+01
   7.314848e+01   1.748123e+01
   6.099905e+00   6.561864e+01
  -5.483713e+01   5.558881e+01
  -5.999217e+01  -2.619558e+00
  -4.068186e+01  -4.927784e+01
  -4.149034e+01  -4.110546e+01
  -6.017074e+01  -1.676708e+00
  -6.406382e+01   9.643557e-01
  -3.305408e+01  -6.413027e+01
   3.233829e+01  -1.411985e+02
   1.116412e+02  -1.380072e+02
   1.579038e+02  -3.260259e+01
   1.195709e+02   8.934224e+01
   7.025538e+00   1.234824e+02
  -8.354073e+01   5.930453e+01
  -5.871019e+01  -1.586737e+01
   5.779314e+01  -2.020887e+01
   1.349832e+02   4.247507e+01
   7.509635e+01   1.047361e+02
  -7.841059e+01   1.103911e+02
  -1.871794e+02   5.283690e+01
  -1.605858e+02  -3.066251e+01
  -3.824590e+01  -8.487642e+01
   5.884469e+01  -7.167966e+01
   4.869541e+01  -1.007221e+01
  -3.681566e+01   2.603194e+01
  -8.842871e+01  -2.045485e+01
  -3.261831e+01  -1.151842e+02
   8.950249e+01  -1.513717e+02
   1.644422e+02  -6.159771e+01
   1.244163e+02   9.848225e+01
   1.036993e+01   1.936089e+02
  -8.302685e+01   1.410132e+02
  -1.016901e+02  -6.526555e+00
  -5.982226e+01  -1.148987e+02
   2.359597e-01  -1.036775e+02
   4.430711e+01  -1.936957e+01
   5.235169e+01   3.082720e+01
   2.697799e+01   8.718827e+00
   3.472853e+00  -2.002421e+01
   1.828837e+01   1.451837e+01
   5.373695e+01   8.655326e+01
   4.228694e+01   1.073136e+02
  -4.488057e+01   4.461189e+01
  -1.359986e+02  -3.818354e+01
  -1.283257e+02  -6.885685e+01
  -1.698524e+01  -4.806280e+01
   8.705661e+01  -2.182378e+01
   8.625897e+01  -8.344031e+00
   9.132344e+00   6.541058e+00
  -3.842203e+01   2.193989e+01
  -1.266604e+01   1.841539e+01
   2.225072e+01  -9.842105e-01
  -5.998858e+00  -8.621425e+00
  -7.409312e+01  -3.774136e+00
  -8.959299e+01  -2.375458e+01
  -6.426783e+00  -7.908262e+01
   1.173786e+02  -1.114929e+02
   1.805111e+02  -5.554974e+01
   1.361839e+02   6.760603e+01
   2.390805e+01   1.585062e+02
  -7.656592e+01   1.449238e+02
  -1.105394e+02   5.575582e+01
  -7.856557e+01  -2.126689e+01
  -2.450582e+01  -3.407098e+01
   3.311499e+00  -8.032705e+00
  -9.281590e+00  -3.507741e+00
  -3.243264e+01  -4.396198e+01
  -2.299410e+01  -8.748144e+01
   2.819328e+01  -7.000066e+01
   7.965584e+01   1.826381e+01
   7.530443e+01   1.065400e+02
   3.110506e+00   1.098994e+02
  -8.173442e+01   2.220967e+01
  -1.006253e+02  -7.496807e+01
  -3.030876e+01  -1.008052e+02
   6.521780e+01  -5.273402e+01
   9.422409e+01   1.216511e+01
   3.675174e+01   4.771894e+01
  -3.179102e+01   4.828958e+01
  -2.870189e+01   2.683230e+01
   3.474683e+01   4.349985e-01
   6.748576e+01  -5.827237e+00
   1.359574e+01   2.428721e+01
  -7.718356e+01   6.408432e+01
  -1.111735e+02   5.734204e+01
  -6.069963e+01  -1.117428e+01
   1.522234e+01  -8.040080e+01
   5.018482e+01  -7.643028e+01
   3.478222e+01  -4.553543e+00
   1.246385e+00   5.415952e+01
  -2.475608e+01   4.018716e+01
  -3.521303e+01  -1.925698e+01
  -2.558240e+01  -5.238047e+01
   3.192239e+00  -3.066884e+01
   3.241376e+01   8.925785e+00
   3.840529e+01   1.970477e+01
   2.011930e+01   2.359137e-01
   1.893525e-01  -1.320964e+01
  -6.057934e+00   4.583263e+00
  -7.759919e+00   3.679229e+01
  -1.893719e+01   4.294644e+01
  -3.288320e+01   5.243318e+00
  -2.768675e+01  -4.620246e+01
   5.215979e+00  -6.014667e+01
   4.510599e+01  -1.895642e+01
   5.438223e+01   3.994895e+01
   1.319804e+01   6.244197e+01
  -5.305345e+01   3.280885e+01
  -8.557166e+01  -1.549112e+01
  -4.757100e+01  -4.246483e+01
   2.773151e+01  -3.834719e+01
   6.266947e+01  -1.959554e+01
   2.271145e+01  -4.564564e+00
  -3.758239e+01  -3.298041e+00
  -3.733044e+01  -1.708658e+01
   3.120171e+01  -3.160020e+01
   9.111968e+01  -1.903226e+01
