
 $NMID
 id='ANONYMOUS ', fmtdat='(2E16.6)'
 volume=1.0
 tramp=1.0
 $END
  -4.462757e+03   1.683091e+01
  -2.608679e+03  -2.688266e+03
   7.909962e+02  -3.010979e+03
   2.105605e+03  -8.806425e+02
   9.679053e+02   7.552333e+02
  -7.204416e+02   6.337109e+02
  -9.876152e+02  -4.275136e+02
  -5.488984e+01  -1.105375e+03
   8.100970e+02  -7.792056e+02
   9.768030e+02   3.007314e+01
   4.651173e+02   7.999679e+02
  -2.137763e+02   9.680433e+02
  -6.816729e+02   1.901101e+02
  -4.352279e+02  -7.408233e+02
   2.631979e+02  -7.837252e+02
   6.304096e+02  -4.613143e+01
   2.927445e+02   7.259086e+02
  -3.132784e+02   6.639519e+02
  -6.311966e+02   9.810562e+01
  -4.023511e+02  -3.662005e+02
  -6.772072e+00  -4.690147e+02
   2.681867e+02  -2.725274e+02
   2.394048e+02   4.490329e+00
  -1.269879e+02   1.210503e+02
  -4.217591e+02  -7.532100e+01
  -2.410784e+02  -4.532419e+02
   4.514161e+02  -4.800038e+02
   8.931188e+02   5.294478e+01
   4.860450e+02   5.860996e+02
  -4.027756e+02   5.383926e+02
  -8.015006e+02  -2.755940e+01
  -3.851324e+02  -5.013764e+02
   2.812643e+02  -5.511973e+02
   5.862086e+02  -2.194201e+02
   4.385193e+02   2.415978e+02
   7.464442e+01   5.012122e+02
  -2.243417e+02   2.974112e+02
  -2.013228e+02  -2.386945e+02
   1.745561e+02  -4.967787e+02
   5.041332e+02  -6.520847e+00
   2.842046e+02   7.369459e+02
  -3.490440e+02   7.698673e+02
  -6.769967e+02  -8.151980e-01
  -2.929724e+02  -6.228810e+02
   3.297001e+02  -3.776721e+02
   4.447411e+02   3.332039e+02
  -4.644669e+01   5.947837e+02
  -5.884809e+02   1.582007e+02
  -6.299489e+02  -4.249981e+02
  -1.672177e+02  -6.194866e+02
   4.187440e+02  -3.623403e+02
   6.711301e+02   8.822598e+01
   3.840857e+02   4.210555e+02
  -1.859978e+02   3.960128e+02
  -4.848926e+02   4.862572e+01
  -2.470536e+02  -2.301218e+02
   1.536055e+02  -1.244345e+02
   1.715281e+02   1.748952e+02
  -1.804176e+02   2.156962e+02
  -3.836530e+02  -7.552984e+01
  -1.544745e+02  -3.235794e+02
   2.179441e+02  -2.707613e+02
   3.404750e+02  -6.587842e+01
   1.901085e+02   8.692113e+01
  -2.787784e+01   2.108602e+02
  -2.118585e+02   3.200128e+02
  -3.351825e+02   2.287240e+02
  -3.023244e+02  -1.339326e+02
  -8.318485e+01  -4.558381e+02
   1.303198e+02  -4.025429e+02
   1.375350e+02  -1.032843e+02
   2.263424e+01   3.461240e+01
   2.957451e+01  -8.118438e+01
   1.932658e+02  -1.454117e+02
   2.932607e+02   3.967939e+01
   1.735465e+02   2.760541e+02
  -7.133470e+01   2.721661e+02
  -2.386303e+02   2.139613e+01
  -2.105212e+02  -2.389138e+02
   3.354391e+00  -3.046971e+02
   2.719102e+02  -1.298734e+02
   3.767632e+02   1.620102e+02
   1.951558e+02   3.619356e+02
  -1.081336e+02   3.190942e+02
  -2.440393e+02   1.169323e+02
  -1.532339e+02  -1.099980e+01
  -8.420967e+01   2.670617e+01
  -2.212204e+02   7.314344e+01
  -4.013018e+02  -4.630990e+01
  -3.442321e+02  -2.827579e+02
  -7.827141e+00  -4.501863e+02
   3.600243e+02  -4.227185e+02
   4.960699e+02  -2.094327e+02
   3.462808e+02   9.265427e+01
   5.741762e+01   3.042770e+02
  -1.376240e+02   2.644238e+02
  -9.320915e+01   2.692642e+01
   1.110869e+02  -1.244343e+02
   2.120408e+02  -4.589325e+00
   6.089084e+01   2.061556e+02
  -1.689430e+02   1.889790e+02
  -1.925905e+02  -5.900933e+01
   1.443894e+01  -2.059367e+02
   2.026027e+02  -4.108857e+01
   1.697201e+02   2.520787e+02
  -3.278919e+01   3.551945e+02
  -2.325613e+02   1.928626e+02
  -3.260065e+02  -6.304855e+01
  -2.818130e+02  -2.359416e+02
  -1.021324e+02  -2.650267e+02
   1.135090e+02  -1.687959e+02
   1.875966e+02  -2.664315e+01
   6.594990e+01   3.562587e+01
  -7.434351e+01  -3.291881e+01
  -3.681847e+01  -1.263661e+02
   1.261417e+02  -1.055665e+02
   1.880352e+02   1.156780e+01
   6.327753e+01   7.771753e+01
  -8.388791e+01   2.177468e+01
  -6.200745e+01  -7.144177e+01
   1.181025e+02  -8.800960e+01
   2.790976e+02  -3.880832e+00
   2.653843e+02   1.332899e+02
   6.741132e+01   2.515968e+02
  -1.784695e+02   2.656552e+02
  -2.863336e+02   1.338136e+02
  -1.772248e+02  -5.121995e+01
   2.428144e+01  -1.161016e+02
   9.920435e+01  -1.066011e+01
  -2.732563e+01   1.087777e+02
  -2.013737e+02   6.872891e+01
  -2.249477e+02  -1.008052e+02
  -7.589328e+01  -2.142512e+02
   9.636769e+01  -1.659252e+02
   1.501766e+02  -3.379483e+01
   7.599566e+01   4.113559e+01
  -2.554261e+01   6.756709e+00
  -3.943400e+01  -7.751534e+01
   6.677923e+01  -1.112415e+02
   1.961821e+02  -3.263658e+01
   1.956423e+02   1.204101e+02
   2.530978e+01   2.216915e+02
  -1.680957e+02   1.699165e+02
  -2.026422e+02   5.453563e+00
  -6.943428e+01  -1.221626e+02
   7.054160e+01  -1.184819e+02
   8.959891e+01  -3.174340e+01
   2.268266e+01   2.857437e+01
  -1.990717e+01   2.175322e+01
   9.379406e+00  -5.189548e+00
   6.823068e+01   9.549462e+00
   8.566423e+01   7.939645e+01
   1.664424e+01   1.552218e+02
  -1.227626e+02   1.538215e+02
  -2.338085e+02   3.039327e+01
  -2.061303e+02  -1.485072e+02
  -4.435140e+01  -2.419312e+02
   1.113277e+02  -1.744606e+02
   1.389422e+02  -2.659102e+01
   7.116343e+01   5.933597e+01
   2.771081e+01   3.723204e+01
   5.309420e+01  -1.305743e+01
   7.853391e+01  -7.142408e+00
   3.842216e+01   4.863660e+01
  -4.335030e+01   8.525807e+01
  -9.756926e+01   5.335656e+01
  -8.072348e+01  -3.442089e+01
   1.196190e+01  -1.084703e+02
   1.368430e+02  -8.660541e+01
   1.961741e+02   4.762813e+01
   1.054929e+02   2.003479e+02
  -1.013958e+02   2.321485e+02
  -2.678428e+02   1.008641e+02
  -2.622887e+02  -8.466729e+01
  -1.131289e+02  -1.789759e+02
   3.809211e+01  -1.493697e+02
   9.558374e+01  -8.550951e+01
   8.075361e+01  -7.008623e+01
   6.790604e+01  -9.078565e+01
   9.195984e+01  -7.362319e+01
   1.271337e+02   2.146217e+01
   1.188369e+02   1.524040e+02
   3.321875e+01   2.260800e+02
  -9.634900e+01   1.754025e+02
  -1.774453e+02   2.457685e+01
  -1.408020e+02  -1.202945e+02
  -2.243265e+01  -1.609207e+02
   6.623960e+01  -9.433613e+01
   6.007519e+01  -2.382503e+00
   5.469653e+00   4.078591e+01
  -8.797238e+00   3.282821e+01
   3.763223e+01   1.788013e+01
   7.910361e+01   2.344976e+01
   4.447510e+01   3.862141e+01
  -6.168583e+01   3.684128e+01
  -1.549789e+02   4.049501e+00
  -1.433945e+02  -4.849338e+01
  -1.901575e+01  -8.618363e+01
   1.170557e+02  -7.445354e+01
   1.444701e+02  -1.649247e+01
   4.935017e+01   3.765081e+01
  -5.937104e+01   3.586863e+01
  -7.466442e+01  -1.860684e+01
  -5.413468e+00  -6.716159e+01
   5.731888e+01  -5.676697e+01
   6.230955e+01   2.653231e+00
   4.207772e+01   5.029962e+01
   4.264258e+01   4.243633e+01
   6.168117e+01   2.512034e+00
   6.515758e+01  -3.279970e-01
   3.325457e+01   6.581837e+01
  -3.309159e+01   1.443348e+02
  -1.136102e+02   1.411036e+02
  -1.611169e+02   3.353653e+01
  -1.225891e+02  -9.087384e+01
  -8.048975e+00  -1.254026e+02
   8.430805e+01  -6.003573e+01
   5.935494e+01   1.614862e+01
  -5.939048e+01   2.002615e+01
  -1.381425e+02  -4.403849e+01
  -7.682656e+01  -1.075338e+02
   8.001514e+01  -1.131711e+02
   1.911416e+02  -5.434668e+01
   1.641334e+02   3.116693e+01
   3.957916e+01   8.677436e+01
  -5.964059e+01   7.358427e+01
  -4.971467e+01   1.093054e+01
   3.723046e+01  -2.569608e+01
   8.962989e+01   2.170474e+01
   3.214541e+01   1.176635e+02
  -9.273319e+01   1.537131e+02
  -1.687298e+02   6.163492e+01
  -1.266320e+02  -1.014779e+02
  -9.202616e+00  -1.980554e+02
   8.592926e+01  -1.440819e+02
   1.042081e+02   7.014222e+00
   6.112546e+01   1.181979e+02
  -3.463174e-02   1.069072e+02
  -4.540148e+01   2.044151e+01
  -5.433151e+01  -3.141498e+01
  -2.867267e+01  -8.764023e+00
  -3.831672e+00   2.104881e+01
  -1.837338e+01  -1.436413e+01
  -5.501787e+01  -8.854771e+01
  -4.411026e+01  -1.100738e+02
   4.490480e+01  -4.576965e+01
   1.388387e+02   3.929260e+01
   1.314244e+02   7.045057e+01
   1.729788e+01   4.880765e+01
  -8.949088e+01   2.201212e+01
  -8.836103e+01   8.639741e+00
  -8.821355e+00  -6.499360e+00
   3.980865e+01  -2.266503e+01
   1.283939e+01  -1.901811e+01
  -2.320058e+01   1.298135e+00
   6.049042e+00   9.600165e+00
   7.607034e+01   4.627503e+00
   9.154978e+01   2.466594e+01
   5.686600e+00   8.104397e+01
  -1.212916e+02   1.139484e+02
  -1.853582e+02   5.633259e+01
  -1.392161e+02  -7.020533e+01
  -2.395052e+01  -1.629179e+02
   7.883060e+01  -1.482403e+02
   1.134201e+02  -5.635300e+01
   8.039959e+01   2.232839e+01
   2.476045e+01   3.478041e+01
  -3.775218e+00   7.811126e+00
   9.422606e+00   3.268979e+00
   3.346230e+01   4.493600e+01
   2.381525e+01   8.954985e+01
  -2.886944e+01   7.142060e+01
  -8.150366e+01  -1.924714e+01
  -7.638955e+01  -1.095343e+02
  -2.037790e+00  -1.120834e+02
   8.431553e+01  -2.144310e+01
   1.024600e+02   7.801264e+01
   2.995070e+01   1.033219e+02
  -6.724569e+01   5.304568e+01
  -9.611512e+01  -1.306209e+01
  -3.690961e+01  -4.850745e+01
   3.288865e+01  -4.860526e+01
   2.916529e+01  -2.707277e+01
  -3.605761e+01  -4.173088e-01
  -6.945804e+01   5.965233e+00
  -1.386561e+01  -2.482762e+01
   7.937106e+01  -6.579078e+01
   1.138923e+02  -5.896160e+01
   6.177782e+01   1.156980e+01
  -1.636661e+01   8.261084e+01
  -5.167820e+01   7.803769e+01
  -3.516941e+01   3.814405e+00
  -3.252296e-01  -5.617071e+01
   2.610535e+01  -4.097150e+01
   3.600907e+01   2.039809e+01
   2.555105e+01   5.387888e+01
  -3.748576e+00   3.110112e+01
  -3.317331e+01  -9.439046e+00
  -3.885315e+01  -2.029975e+01
  -2.012718e+01  -4.613655e-01
   4.741598e-02   1.302962e+01
   6.619187e+00  -5.094559e+00
   8.740809e+00  -3.735753e+01
   2.001023e+01  -4.309194e+01
   3.349884e+01  -4.609463e+00
   2.771520e+01   4.754553e+01
  -5.859118e+00   6.160934e+01
  -4.597084e+01   1.938253e+01
  -5.505827e+01  -4.103466e+01
  -1.315511e+01  -6.409084e+01
   5.426980e+01  -3.345947e+01
   8.733698e+01   1.638296e+01
   4.834965e+01   4.405857e+01
  -2.861019e+01   3.926082e+01
  -6.412602e+01   1.959019e+01
  -2.274767e+01   4.500783e+00
   3.917537e+01   3.804143e+00
   3.839167e+01   1.812000e+01
  -3.252086e+01   3.274531e+01
  -9.404857e+01   1.935323e+01
