
 $NMID
 id='ANONYMOUS ', fmtdat='(2E16.6)'
 volume=1.0
 tramp=1.0
 $END
   4.167060e+03  -7.240582e+01
   2.569906e+03   2.464680e+03
  -5.161598e+02   2.685667e+03
  -1.948157e+03   9.310444e+02
  -1.023815e+03  -5.429069e+02
   4.471104e+02  -5.562093e+02
   8.594047e+02   3.454632e+02
   8.399724e+01   1.017001e+03
  -7.455118e+02   8.163421e+02
  -9.138840e+02  -2.225256e+01
  -5.098813e+02  -7.707031e+02
   2.077407e+02  -8.552319e+02
   6.020481e+02  -1.133743e+02
   3.623072e+02   6.851583e+02
  -2.478035e+02   7.491605e+02
  -6.343776e+02   3.429444e+01
  -3.273367e+02  -6.592736e+02
   2.674274e+02  -6.906735e+02
   5.812856e+02  -1.288874e+02
   3.855702e+02   3.489651e+02
   1.784629e+01   4.493557e+02
  -2.299602e+02   2.738936e+02
  -1.978936e+02   2.140496e+01
   1.442652e+02  -6.277348e+01
   3.957398e+02   1.413663e+02
   1.683593e+02   4.425167e+02
  -4.784801e+02   3.822023e+02
  -8.367311e+02  -9.317125e+01
  -3.983625e+02  -5.529042e+02
   3.952381e+02  -4.396397e+02
   7.304052e+02   7.175330e+01
   3.373380e+02   4.900831e+02
  -2.867845e+02   5.037299e+02
  -5.724879e+02   1.891861e+02
  -4.318444e+02  -2.301080e+02
  -7.625958e+01  -4.529683e+02
   1.867616e+02  -2.770978e+02
   1.504470e+02   2.132865e+02
  -1.867347e+02   4.139191e+02
  -4.494234e+02  -4.540602e+01
  -2.176051e+02  -7.030337e+02
   3.440171e+02  -7.055532e+02
   6.043358e+02   8.166242e+00
   2.394144e+02   5.585524e+02
  -3.101915e+02   3.171322e+02
  -3.849279e+02  -3.371929e+02
   8.143552e+01  -5.532195e+02
   5.742242e+02  -1.345722e+02
   6.013946e+02   4.270003e+02
   1.523382e+02   6.039249e+02
  -4.120154e+02   3.492430e+02
  -6.499494e+02  -8.656382e+01
  -3.736981e+02  -3.939612e+02
   1.586323e+02  -3.676452e+02
   4.414408e+02  -6.334922e+01
   2.398383e+02   1.820485e+02
  -1.121128e+02   9.970973e+01
  -1.362882e+02  -1.508547e+02
   1.675967e+02  -1.851097e+02
   3.532040e+02   7.017283e+01
   1.527473e+02   3.034113e+02
  -2.054458e+02   2.762034e+02
  -3.559071e+02   8.319361e+01
  -2.214836e+02  -1.027253e+02
   3.097042e+01  -2.547226e+02
   2.518445e+02  -3.383634e+02
   3.598023e+02  -2.064598e+02
   2.895289e+02   1.480349e+02
   7.406763e+01   4.316041e+02
  -1.032666e+02   3.816095e+02
  -1.048234e+02   1.332204e+02
  -2.985750e+01   2.111945e+01
  -6.821681e+01   9.987708e+01
  -2.143339e+02   1.134083e+02
  -2.772819e+02  -7.651708e+01
  -1.469610e+02  -2.774182e+02
   7.615848e+01  -2.452339e+02
   2.207941e+02   3.696245e+00
   1.891536e+02   2.462021e+02
  -1.546077e+01   2.915984e+02
  -2.702031e+02   1.100974e+02
  -3.684355e+02  -1.756678e+02
  -1.934106e+02  -3.589109e+02
   9.852835e+01  -3.143563e+02
   2.338152e+02  -1.281946e+02
   1.593336e+02  -1.101176e+01
   1.055829e+02  -4.034994e+01
   2.460007e+02  -6.975578e+01
   4.203774e+02   6.120031e+01
   3.485906e+02   3.026240e+02
  -7.144665e+00   4.665032e+02
  -3.812558e+02   4.270665e+02
  -5.063221e+02   1.959564e+02
  -3.357927e+02  -1.019835e+02
  -4.822941e+01  -2.945776e+02
   1.251865e+02  -2.479677e+02
   6.702160e+01  -3.160598e+01
  -1.185836e+02   9.613061e+01
  -1.930315e+02  -1.561711e+01
  -4.219545e+01  -1.978803e+02
   1.634358e+02  -1.683729e+02
   1.766350e+02   6.293358e+01
  -2.179234e+01   1.929073e+02
  -2.008590e+02   2.916989e+01
  -1.709692e+02  -2.589171e+02
   3.142262e+01  -3.651170e+02
   2.431773e+02  -2.016776e+02
   3.429069e+02   6.864772e+01
   2.853837e+02   2.525534e+02
   8.907575e+01   2.713843e+02
  -1.227729e+02   1.566292e+02
  -1.803965e+02   1.312686e+01
  -5.323608e+01  -3.330817e+01
   7.570743e+01   4.535807e+01
   2.888771e+01   1.320866e+02
  -1.296488e+02   1.006469e+02
  -1.820368e+02  -1.659661e+01
  -5.549345e+01  -7.414888e+01
   8.453810e+01  -1.195232e+01
   5.380572e+01   8.002693e+01
  -1.324892e+02   8.960663e+01
  -2.926601e+02  -3.828574e+00
  -2.683151e+02  -1.467369e+02
  -5.722007e+01  -2.613484e+02
   1.910337e+02  -2.651594e+02
   2.883016e+02  -1.284558e+02
   1.702649e+02   5.092395e+01
  -2.647209e+01   1.089260e+02
  -8.985570e+01   6.222909e+00
   3.891075e+01  -1.033258e+02
   2.031178e+02  -5.814042e+01
   2.168663e+02   1.073165e+02
   6.779339e+01   2.129412e+02
  -9.711212e+01   1.592386e+02
  -1.436031e+02   2.726956e+01
  -6.712969e+01  -4.124589e+01
   2.980759e+01   2.719634e+00
   3.432777e+01   9.049419e+01
  -7.861206e+01   1.158211e+02
  -2.050773e+02   2.544017e+01
  -1.948095e+02  -1.301474e+02
  -1.889593e+01  -2.240609e+02
   1.707965e+02  -1.665589e+02
   1.985017e+02  -4.793393e+00
   6.426022e+01   1.179341e+02
  -7.082808e+01   1.131083e+02
  -8.483452e+01   2.958277e+01
  -1.586835e+01  -2.706592e+01
   2.394126e+01  -1.681665e+01
  -1.260095e+01   1.119361e+01
  -7.790155e+01  -9.292671e+00
  -9.296377e+01  -8.901907e+01
  -1.241231e+01  -1.673715e+02
   1.354136e+02  -1.565705e+02
   2.429032e+02  -2.265461e+01
   2.059170e+02   1.577548e+02
   3.974731e+01   2.440562e+02
  -1.137052e+02   1.740121e+02
  -1.394034e+02   2.804461e+01
  -7.194874e+01  -5.671206e+01
  -3.036683e+01  -3.748506e+01
  -5.686409e+01   1.079821e+01
  -8.406648e+01   5.113506e+00
  -4.274287e+01  -5.224087e+01
   4.581936e+01  -9.166257e+01
   1.090906e+02  -5.758247e+01
   8.949174e+01   3.783169e+01
  -1.589864e+01   1.159949e+02
  -1.491594e+02   8.812793e+01
  -2.033794e+02  -5.553915e+01
  -9.994448e+01  -2.093739e+02
   1.127400e+02  -2.333169e+02
   2.754905e+02  -9.457925e+01
   2.626419e+02   9.067457e+01
   1.105187e+02   1.810056e+02
  -4.136143e+01   1.495820e+02
  -9.684342e+01   8.590365e+01
  -8.047304e+01   7.166899e+01
  -6.756959e+01   9.352574e+01
  -9.492534e+01   7.604364e+01
  -1.324266e+02  -2.246051e+01
  -1.209884e+02  -1.579710e+02
  -2.931010e+01  -2.328339e+02
   1.032431e+02  -1.776292e+02
   1.814923e+02  -2.002859e+01
   1.393097e+02   1.282300e+02
   1.706455e+01   1.665848e+02
  -7.231150e+01   9.390607e+01
  -6.331835e+01  -2.898919e+00
  -3.822711e+00  -4.624797e+01
   1.307008e+01  -3.512679e+01
  -3.628854e+01  -1.780829e+01
  -8.245896e+01  -2.423607e+01
  -4.646199e+01  -4.104241e+01
   6.733317e+01  -3.753381e+01
   1.643616e+02  -8.973925e-02
   1.461862e+02   5.520115e+01
   1.215116e+01   9.034798e+01
  -1.259226e+02   7.340658e+01
  -1.477818e+02   1.198984e+01
  -4.773710e+01  -4.216698e+01
   6.200057e+01  -3.822398e+01
   7.751624e+01   1.932386e+01
   9.101751e+00   7.039751e+01
  -5.532680e+01   6.077203e+01
  -6.526888e+01  -4.987024e-01
  -4.761928e+01  -5.095763e+01
  -4.604220e+01  -4.356028e+01
  -6.256109e+01  -3.185034e+00
  -6.753716e+01  -1.383233e+00
  -3.662878e+01  -7.048436e+01
   3.413446e+01  -1.504736e+02
   1.219266e+02  -1.448401e+02
   1.710054e+02  -3.255801e+01
   1.264644e+02   9.551221e+01
   4.564603e+00   1.305719e+02
  -8.948734e+01   6.291270e+01
  -6.076270e+01  -1.576104e+01
   6.153505e+01  -1.940265e+01
   1.400674e+02   4.668776e+01
   7.530811e+01   1.113828e+02
  -8.503631e+01   1.137873e+02
  -1.965977e+02   5.006553e+01
  -1.660445e+02  -3.694230e+01
  -3.679120e+01  -8.912981e+01
   6.385851e+01  -7.099506e+01
   5.110082e+01  -6.693648e+00
  -3.963603e+01   2.805557e+01
  -9.318360e+01  -2.236258e+01
  -3.459717e+01  -1.210799e+02
   9.288859e+01  -1.584228e+02
   1.712796e+02  -6.450127e+01
   1.296646e+02   1.033145e+02
   9.798947e+00   2.031967e+02
  -8.891662e+01   1.470220e+02
  -1.075653e+02  -9.257573e+00
  -6.064216e+01  -1.229602e+02
   4.325376e+00  -1.091592e+02
   4.842981e+01  -1.921690e+01
   5.316230e+01   3.315006e+01
   2.623012e+01   9.387382e+00
   4.469369e+00  -2.017086e+01
   2.152887e+01   1.692117e+01
   5.622680e+01   9.168539e+01
   4.129829e+01   1.120445e+02
  -4.951304e+01   4.598078e+01
  -1.421221e+02  -4.057514e+01
  -1.332536e+02  -7.295935e+01
  -1.843720e+01  -5.164212e+01
   8.968834e+01  -2.335433e+01
   9.069568e+01  -7.768163e+00
   1.134202e+01   7.880786e+00
  -4.000723e+01   2.270993e+01
  -1.561305e+01   1.803629e+01
   2.125352e+01  -1.812969e+00
  -5.635100e+00  -9.251240e+00
  -7.584831e+01  -4.366937e+00
  -9.428219e+01  -2.550367e+01
  -9.531446e+00  -8.342053e+01
   1.216415e+02  -1.175356e+02
   1.913539e+02  -5.984196e+01
   1.462831e+02   6.920048e+01
   2.631347e+01   1.662353e+02
  -8.180226e+01   1.539714e+02
  -1.175517e+02   6.030179e+01
  -8.279008e+01  -2.219373e+01
  -2.606380e+01  -3.692241e+01
   2.075142e+00  -1.012406e+01
  -1.076036e+01  -5.547860e+00
  -3.277959e+01  -4.785606e+01
  -2.139361e+01  -9.243599e+01
   3.121166e+01  -7.279147e+01
   8.331679e+01   1.976425e+01
   7.859800e+01   1.113797e+02
   4.150541e+00   1.151741e+02
  -8.452270e+01   2.469748e+01
  -1.057590e+02  -7.704141e+01
  -3.307632e+01  -1.061408e+02
   6.805938e+01  -5.708816e+01
   1.004619e+02   1.250008e+01
   4.026614e+01   5.246099e+01
  -3.398605e+01   5.323613e+01
  -3.324065e+01   2.857490e+01
   3.355323e+01  -6.064335e-01
   7.014069e+01  -6.579991e+00
   1.516260e+01   2.558467e+01
  -8.111380e+01   6.642369e+01
  -1.188468e+02   5.846505e+01
  -6.627182e+01  -1.335737e+01
   1.583483e+01  -8.567851e+01
   5.524622e+01  -8.234207e+01
   3.961385e+01  -7.082281e+00
   2.824462e+00   5.682725e+01
  -2.579244e+01   4.492726e+01
  -3.709481e+01  -1.743876e+01
  -2.702608e+01  -5.491138e+01
   2.742152e+00  -3.426019e+01
   3.328385e+01   8.398277e+00
   3.995793e+01   2.202509e+01
   2.078917e+01   1.456969e+00
  -4.316757e-01  -1.496939e+01
  -6.545164e+00   2.015492e+00
  -6.219254e+00   3.679279e+01
  -1.642105e+01   4.573282e+01
  -3.239985e+01   8.105513e+00
  -3.052406e+01  -4.582176e+01
   2.415928e+00  -6.186384e+01
   4.576469e+01  -2.015716e+01
   5.765632e+01   4.092807e+01
   1.447259e+01   6.466761e+01
  -5.662219e+01   3.429027e+01
  -9.125772e+01  -1.627722e+01
  -5.037541e+01  -4.522849e+01
   2.942294e+01  -4.174925e+01
   6.650392e+01  -2.216924e+01
   2.542734e+01  -5.507635e+00
  -3.721870e+01  -2.621470e+00
  -3.796879e+01  -1.582516e+01
   3.162835e+01  -3.100539e+01
   9.304373e+01  -1.913995e+01
