
 $NMID
 id='ANONYMOUS ', fmtdat='(2E16.6)'
 volume=1.0
 tramp=1.0
 $END
   4.334690e+03  -3.321877e+01
   2.532574e+03   2.588158e+03
  -5.421248e+02   2.707610e+03
  -2.001084e+03   8.267550e+02
  -9.494603e+02  -5.037454e+02
   6.211334e+02  -5.179601e+02
   8.131200e+02   4.284957e+02
   5.955271e+01   1.076659e+03
  -8.254274e+02   7.672736e+02
  -8.975481e+02  -6.617196e+01
  -4.373227e+02  -7.766462e+02
   1.723603e+02  -8.661614e+02
   6.580898e+02  -9.180695e+01
   3.374127e+02   7.373086e+02
  -2.705032e+02   7.336061e+02
  -6.255151e+02  -1.048671e+01
  -2.824176e+02  -6.588645e+02
   3.254081e+02  -6.752941e+02
   5.712696e+02  -1.154497e+02
   3.856749e+02   3.215498e+02
   3.446490e+01   4.360137e+02
  -2.517999e+02   2.702384e+02
  -2.274726e+02   2.142530e+01
   1.129288e+02  -1.069559e+02
   3.953626e+02   1.180321e+02
   1.984908e+02   4.360968e+02
  -4.523584e+02   3.824428e+02
  -8.202479e+02  -9.002164e+01
  -4.178726e+02  -5.303649e+02
   4.051775e+02  -4.471726e+02
   7.304248e+02   5.827678e+01
   3.335983e+02   4.755901e+02
  -2.884840e+02   4.942840e+02
  -5.571931e+02   1.812122e+02
  -3.929524e+02  -2.274106e+02
  -6.097996e+01  -4.629904e+02
   1.959807e+02  -2.753999e+02
   1.547258e+02   2.180496e+02
  -1.691222e+02   4.232538e+02
  -4.343844e+02  -2.667649e+01
  -2.269449e+02  -6.697683e+02
   3.172440e+02  -6.910619e+02
   5.878077e+02   3.118962e+00
   2.555216e+02   5.472574e+02
  -2.955532e+02   3.185783e+02
  -3.931978e+02  -3.269155e+02
   7.169838e+01  -5.470834e+02
   5.656037e+02  -1.363183e+02
   6.015695e+02   4.150138e+02
   1.586270e+02   5.884499e+02
  -3.979903e+02   3.405291e+02
  -6.287886e+02  -8.313698e+01
  -3.628652e+02  -3.815412e+02
   1.583930e+02  -3.562869e+02
   4.333458e+02  -4.975968e+01
   2.292554e+02   1.940380e+02
  -1.213439e+02   1.010558e+02
  -1.402750e+02  -1.567052e+02
   1.648656e+02  -1.875243e+02
   3.420566e+02   7.184287e+01
   1.367550e+02   2.943458e+02
  -2.046706e+02   2.530182e+02
  -3.277899e+02   6.901375e+01
  -1.904807e+02  -8.570597e+01
   3.096210e+01  -2.189388e+02
   2.210313e+02  -3.182001e+02
   3.313654e+02  -2.137216e+02
   2.835426e+02   1.340972e+02
   7.679142e+01   4.286851e+02
  -1.099041e+02   3.806873e+02
  -1.148438e+02   1.186370e+02
  -2.676120e+01  -1.651614e+00
  -5.283957e+01   8.711915e+01
  -2.012623e+02   1.187464e+02
  -2.722823e+02  -6.256233e+01
  -1.455458e+02  -2.670117e+02
   7.800702e+01  -2.420075e+02
   2.169862e+02  -8.479168e-01
   1.841195e+02   2.343165e+02
  -1.168945e+01   2.815808e+02
  -2.542061e+02   1.133652e+02
  -3.503480e+02  -1.606121e+02
  -1.877058e+02  -3.414240e+02
   9.233158e+01  -3.040890e+02
   2.232283e+02  -1.206786e+02
   1.477921e+02  -1.293848e+00
   9.511189e+01  -3.211215e+01
   2.274929e+02  -6.900939e+01
   3.959490e+02   5.288740e+01
   3.286434e+02   2.826841e+02
  -6.706777e+00   4.383860e+02
  -3.571834e+02   4.023253e+02
  -4.762885e+02   1.912606e+02
  -3.222762e+02  -9.417892e+01
  -4.974322e+01  -2.835520e+02
   1.246575e+02  -2.433935e+02
   7.471876e+01  -2.915476e+01
  -1.112615e+02   1.020153e+02
  -1.929729e+02  -9.772847e+00
  -4.805872e+01  -1.942921e+02
   1.606049e+02  -1.692078e+02
   1.776263e+02   6.078425e+01
  -1.823372e+01   1.903328e+02
  -1.927305e+02   3.105925e+01
  -1.594714e+02  -2.454244e+02
   3.300742e+01  -3.414637e+02
   2.256969e+02  -1.843512e+02
   3.148948e+02   6.323639e+01
   2.677107e+02   2.293336e+02
   9.214640e+01   2.505539e+02
  -1.077111e+02   1.511369e+02
  -1.691174e+02   1.939896e+01
  -5.281820e+01  -2.914356e+01
   7.103230e+01   4.156352e+01
   2.866411e+01   1.254049e+02
  -1.227416e+02   9.820029e+01
  -1.747604e+02  -1.331871e+01
  -5.628709e+01  -7.142978e+01
   7.724915e+01  -1.500013e+01
   5.139829e+01   7.211840e+01
  -1.203702e+02   8.265024e+01
  -2.702244e+02  -3.518497e+00
  -2.512096e+02  -1.365547e+02
  -5.673787e+01  -2.447814e+02
   1.778686e+02  -2.495953e+02
   2.742694e+02  -1.199994e+02
   1.639437e+02   5.156767e+01
  -2.665904e+01   1.063482e+02
  -9.149337e+01   5.356644e+00
   3.158500e+01  -1.026363e+02
   1.931533e+02  -5.936123e+01
   2.104999e+02   1.014885e+02
   6.803178e+01   2.048933e+02
  -9.290359e+01   1.543476e+02
  -1.408485e+02   2.750782e+01
  -6.867684e+01  -4.007259e+01
   2.606605e+01  -1.248836e+00
   3.377540e+01   8.112681e+01
  -7.172092e+01   1.077255e+02
  -1.925269e+02   2.515568e+01
  -1.840595e+02  -1.222334e+02
  -1.739593e+01  -2.134724e+02
   1.636354e+02  -1.589844e+02
   1.902412e+02  -2.549951e+00
   6.178405e+01   1.157168e+02
  -6.806005e+01   1.097315e+02
  -8.275708e+01   2.810791e+01
  -1.762761e+01  -2.655012e+01
   2.096695e+01  -1.679424e+01
  -1.175244e+01   9.338454e+00
  -7.140399e+01  -9.679066e+00
  -8.628217e+01  -8.356426e+01
  -1.299835e+01  -1.564511e+02
   1.245388e+02  -1.476763e+02
   2.279895e+02  -2.299393e+01
   1.965112e+02   1.475992e+02
   3.997137e+01   2.317108e+02
  -1.071982e+02   1.646444e+02
  -1.330583e+02   2.528703e+01
  -6.839685e+01  -5.530849e+01
  -2.789001e+01  -3.505022e+01
  -5.287474e+01   1.212957e+01
  -7.783231e+01   5.602389e+00
  -3.906809e+01  -4.911333e+01
   4.313566e+01  -8.571014e+01
   9.977968e+01  -5.236156e+01
   8.065263e+01   3.562513e+01
  -1.521382e+01   1.068275e+02
  -1.370613e+02   8.136922e+01
  -1.895347e+02  -5.043606e+01
  -9.546051e+01  -1.943306e+02
   1.041755e+02  -2.201447e+02
   2.595513e+02  -9.139896e+01
   2.489923e+02   8.511799e+01
   1.044586e+02   1.720983e+02
  -3.971911e+01   1.428207e+02
  -9.236342e+01   8.141680e+01
  -7.752207e+01   6.727599e+01
  -6.585590e+01   8.825008e+01
  -9.070215e+01   7.101999e+01
  -1.241301e+02  -2.258295e+01
  -1.133536e+02  -1.500078e+02
  -2.842110e+01  -2.194421e+02
   9.580980e+01  -1.674534e+02
   1.708529e+02  -2.030159e+01
   1.331644e+02   1.183593e+02
   1.880639e+01   1.555988e+02
  -6.573950e+01   8.995331e+01
  -5.813655e+01   5.768506e-01
  -3.549962e+00  -4.083153e+01
   1.100861e+01  -3.218851e+01
  -3.559698e+01  -1.685939e+01
  -7.786511e+01  -2.250965e+01
  -4.346154e+01  -3.759031e+01
   6.223336e+01  -3.471892e+01
   1.526971e+02  -5.756712e-01
   1.373137e+02   5.080908e+01
   1.339926e+01   8.457099e+01
  -1.174386e+02   6.954302e+01
  -1.405290e+02   1.195521e+01
  -4.658083e+01  -3.937903e+01
   5.849642e+01  -3.594509e+01
   7.339567e+01   1.786824e+01
   6.986774e+00   6.533644e+01
  -5.418928e+01   5.544102e+01
  -6.054429e+01  -2.304721e+00
  -4.132701e+01  -4.894707e+01
  -4.101794e+01  -4.103817e+01
  -5.918304e+01  -2.396111e+00
  -6.393432e+01  -4.968388e-02
  -3.317013e+01  -6.479625e+01
   3.300084e+01  -1.402918e+02
   1.130858e+02  -1.356691e+02
   1.583575e+02  -3.045788e+01
   1.178652e+02   8.967556e+01
   4.863882e+00   1.221681e+02
  -8.396481e+01   5.777548e+01
  -5.772703e+01  -1.624337e+01
   5.807864e+01  -1.927783e+01
   1.333390e+02   4.366294e+01
   7.279518e+01   1.049849e+02
  -7.928205e+01   1.085343e+02
  -1.855842e+02   4.924450e+01
  -1.577198e+02  -3.334877e+01
  -3.619613e+01  -8.423450e+01
   5.895424e+01  -6.841035e+01
   4.751386e+01  -7.640707e+00
  -3.742113e+01   2.563353e+01
  -8.765762e+01  -2.203050e+01
  -3.173960e+01  -1.151949e+02
   8.902000e+01  -1.494677e+02
   1.627570e+02  -6.006048e+01
   1.227678e+02   9.771016e+01
   9.454185e+00   1.911870e+02
  -8.326758e+01   1.388913e+02
  -1.010312e+02  -7.028108e+00
  -5.804489e+01  -1.139611e+02
   2.209465e+00  -1.024304e+02
   4.437937e+01  -1.894668e+01
   5.045759e+01   3.042232e+01
   2.524296e+01   8.578439e+00
   3.549778e+00  -1.941376e+01
   1.898990e+01   1.509234e+01
   5.267127e+01   8.600621e+01
   3.990256e+01   1.057312e+02
  -4.553517e+01   4.321013e+01
  -1.337454e+02  -3.906374e+01
  -1.257076e+02  -6.939714e+01
  -1.694437e+01  -4.808429e+01
   8.518145e+01  -2.104981e+01
   8.533171e+01  -7.181069e+00
   9.993995e+00   6.813011e+00
  -3.766936e+01   2.103097e+01
  -1.363567e+01   1.751978e+01
   2.072764e+01  -1.101761e+00
  -5.884147e+00  -8.636822e+00
  -7.226759e+01  -4.536656e+00
  -8.835568e+01  -2.431453e+01
  -7.272198e+00  -7.853421e+01
   1.155839e+02  -1.101399e+02
   1.795869e+02  -5.503970e+01
   1.363685e+02   6.666944e+01
   2.410536e+01   1.570384e+02
  -7.699106e+01   1.439378e+02
  -1.106782e+02   5.522002e+01
  -7.802793e+01  -2.181238e+01
  -2.395739e+01  -3.465035e+01
   3.369451e+00  -8.696415e+00
  -8.969998e+00  -4.143565e+00
  -3.082214e+01  -4.397705e+01
  -2.069895e+01  -8.636414e+01
   2.897392e+01  -6.826377e+01
   7.806162e+01   1.904189e+01
   7.307780e+01   1.054591e+02
   2.629328e+00   1.084581e+02
  -8.006843e+01   2.200245e+01
  -9.866475e+01  -7.407780e+01
  -2.963724e+01  -1.000850e+02
   6.491694e+01  -5.247953e+01
   9.425712e+01   1.279089e+01
   3.711461e+01   4.903999e+01
  -3.199112e+01   4.933483e+01
  -3.025302e+01   2.710951e+01
   3.264909e+01   5.622190e-01
   6.616351e+01  -5.411785e+00
   1.339937e+01   2.405507e+01
  -7.698261e+01   6.243996e+01
  -1.111640e+02   5.524312e+01
  -6.091074e+01  -1.204041e+01
   1.547291e+01  -7.972658e+01
   5.076445e+01  -7.599122e+01
   3.525225e+01  -5.250500e+00
   1.283341e+00   5.346996e+01
  -2.451400e+01   4.056542e+01
  -3.471916e+01  -1.812211e+01
  -2.523488e+01  -5.197432e+01
   2.995990e+00  -3.131037e+01
   3.173410e+01   8.485034e+00
   3.775476e+01   2.027491e+01
   1.960055e+01   6.534757e-01
  -4.611548e-03  -1.394618e+01
  -5.448184e+00   3.130212e+00
  -6.242906e+00   3.592540e+01
  -1.727402e+01   4.342889e+01
  -3.215190e+01   6.651385e+00
  -2.859753e+01  -4.463750e+01
   3.726596e+00  -5.920478e+01
   4.392186e+01  -1.880117e+01
   5.382551e+01   3.937438e+01
   1.280884e+01   6.128530e+01
  -5.316800e+01   3.177706e+01
  -8.514565e+01  -1.626775e+01
  -4.682765e+01  -4.283918e+01
   2.804208e+01  -3.863824e+01
   6.273777e+01  -1.978734e+01
   2.344009e+01  -4.381933e+00
  -3.628488e+01  -2.465915e+00
  -3.659518e+01  -1.571025e+01
   3.029194e+01  -3.034888e+01
   8.910204e+01  -1.851974e+01
