
 $NMID
 id='ANONYMOUS ', fmtdat='(2E16.6)'
 volume=1.0
 tramp=1.0
 $END
   4.503699e+03  -6.370463e+01
   2.767603e+03   2.847237e+03
  -8.599749e+02   2.944052e+03
  -2.200830e+03   1.019395e+03
  -9.869242e+02  -8.168044e+02
   7.519131e+02  -5.474296e+02
   9.168694e+02   5.057431e+02
  -4.730212e+01   1.126951e+03
  -8.608475e+02   8.599857e+02
  -1.007144e+03  -6.941885e+01
  -5.384896e+02  -9.366996e+02
   3.087640e+02  -9.337680e+02
   6.955001e+02  -8.651545e+01
   4.083502e+02   7.745415e+02
  -3.327734e+02   7.829312e+02
  -7.025947e+02  -1.474935e+01
  -2.698136e+02  -7.496082e+02
   3.495042e+02  -6.798315e+02
   6.462493e+02  -4.973297e+01
   3.942693e+02   4.001276e+02
   1.525400e+01   4.935391e+02
  -2.581740e+02   2.881685e+02
  -2.556978e+02   3.744145e+00
   1.105805e+02  -1.167780e+02
   4.533439e+02   8.805801e+01
   2.442026e+02   4.787805e+02
  -5.012120e+02   4.672893e+02
  -9.235474e+02  -6.405829e+01
  -4.605480e+02  -6.170305e+02
   4.322528e+02  -5.333325e+02
   8.164484e+02   5.482269e+01
   3.856493e+02   5.385165e+02
  -3.041349e+02   5.673013e+02
  -6.214017e+02   2.174367e+02
  -4.655570e+02  -2.536867e+02
  -6.440857e+01  -5.229833e+02
   2.533124e+02  -3.173147e+02
   2.138951e+02   2.607327e+02
  -1.723196e+02   5.209281e+02
  -5.130332e+02   2.540546e+01
  -3.054218e+02  -7.430240e+02
   3.338166e+02  -7.935545e+02
   6.868110e+02  -1.695894e+01
   3.059796e+02   6.240317e+02
  -3.345833e+02   3.851700e+02
  -4.681953e+02  -3.441643e+02
   3.681993e+01  -6.102860e+02
   6.080958e+02  -1.721436e+02
   6.632946e+02   4.298564e+02
   1.825943e+02   6.399006e+02
  -4.305332e+02   3.816975e+02
  -6.975707e+02  -8.393462e+01
  -4.004074e+02  -4.313632e+02
   1.879463e+02  -4.054360e+02
   4.982138e+02  -5.443226e+01
   2.619132e+02   2.329434e+02
  -1.453179e+02   1.297360e+02
  -1.724271e+02  -1.746663e+02
   1.759647e+02  -2.195600e+02
   3.846115e+02   7.513093e+01
   1.614516e+02   3.304984e+02
  -2.149722e+02   2.829593e+02
  -3.491947e+02   7.599546e+01
  -2.032346e+02  -8.816389e+01
   2.695419e+01  -2.264263e+02
   2.271682e+02  -3.374370e+02
   3.523783e+02  -2.302027e+02
   3.059039e+02   1.495321e+02
   7.428525e+01   4.710320e+02
  -1.387520e+02   4.047255e+02
  -1.361502e+02   9.876934e+01
  -1.474777e+01  -3.358654e+01
  -2.472278e+01   8.997135e+01
  -1.949919e+02   1.524640e+02
  -2.984830e+02  -4.335583e+01
  -1.758743e+02  -2.866397e+02
   7.254376e+01  -2.795830e+02
   2.443893e+02  -1.696513e+01
   2.173232e+02   2.553505e+02
  -2.445563e+00   3.182905e+02
  -2.775004e+02   1.312651e+02
  -3.875453e+02  -1.728015e+02
  -2.038312e+02  -3.754280e+02
   1.046356e+02  -3.333471e+02
   2.497170e+02  -1.290873e+02
   1.679631e+02   3.726450e+00
   1.020964e+02  -2.533554e+01
   2.358845e+02  -6.867726e+01
   4.119954e+02   4.638088e+01
   3.529060e+02   2.857570e+02
   1.211229e+01   4.638053e+02
  -3.615644e+02   4.433616e+02
  -5.116986e+02   2.217480e+02
  -3.662861e+02  -9.513898e+01
  -6.684274e+01  -3.178213e+02
   1.440990e+02  -2.754826e+02
   1.017863e+02  -2.797001e+01
  -1.117944e+02   1.267008e+02
  -2.186774e+02   4.865256e-01
  -6.218119e+01  -2.167485e+02
   1.766544e+02  -1.956880e+02
   2.042402e+02   6.345635e+01
  -1.122501e+01   2.155629e+02
  -2.073879e+02   4.745836e+01
  -1.775012e+02  -2.543121e+02
   2.846084e+01  -3.652470e+02
   2.347615e+02  -2.040171e+02
   3.342392e+02   6.004174e+01
   2.911712e+02   2.423885e+02
   1.060606e+02   2.746557e+02
  -1.157975e+02   1.732233e+02
  -1.921133e+02   2.365180e+01
  -6.617575e+01  -4.081816e+01
   7.971485e+01   3.332048e+01
   4.241040e+01   1.342862e+02
  -1.271069e+02   1.161560e+02
  -1.959092e+02  -6.142346e+00
  -7.137421e+01  -8.069297e+01
   8.161070e+01  -2.904779e+01
   6.528880e+01   6.769567e+01
  -1.164896e+02   9.185413e+01
  -2.846682e+02   1.100616e+01
  -2.750570e+02  -1.320539e+02
  -7.288309e+01  -2.605644e+02
   1.819248e+02  -2.785468e+02
   2.951120e+02  -1.406737e+02
   1.839057e+02   5.396003e+01
  -2.338579e+01   1.227363e+02
  -1.011216e+02   1.316187e+01
   2.742331e+01  -1.119641e+02
   2.048335e+02  -7.250126e+01
   2.296791e+02   1.021501e+02
   7.906609e+01   2.211136e+02
  -9.697284e+01   1.729033e+02
  -1.543405e+02   3.549846e+01
  -8.006360e+01  -4.475425e+01
   2.558660e+01  -1.023143e+01
   4.298014e+01   7.913043e+01
  -6.553432e+01   1.167565e+02
  -2.010185e+02   3.683327e+01
  -2.029180e+02  -1.218044e+02
  -2.805023e+01  -2.280442e+02
   1.716752e+02  -1.766895e+02
   2.081220e+02  -8.793040e+00
   7.303200e+01   1.236988e+02
  -6.982843e+01   1.230885e+02
  -9.105007e+01   3.631261e+01
  -2.539781e+01  -2.716939e+01
   1.764439e+01  -2.370087e+01
  -9.953442e+00   2.420383e+00
  -6.848727e+01  -1.082556e+01
  -8.773487e+01  -8.013049e+01
  -1.905024e+01  -1.584718e+02
   1.238237e+02  -1.594212e+02
   2.396447e+02  -3.500325e+01
   2.137747e+02   1.496675e+02
   4.772511e+01   2.477131e+02
  -1.137635e+02   1.810344e+02
  -1.434714e+02   2.893085e+01
  -7.335231e+01  -6.145830e+01
  -2.813541e+01  -4.050713e+01
  -5.306485e+01   1.135692e+01
  -7.921108e+01   7.754937e+00
  -3.957742e+01  -4.787432e+01
   4.233864e+01  -8.594454e+01
   9.888499e+01  -5.467081e+01
   8.299532e+01   3.221320e+01
  -1.002046e+01   1.080463e+02
  -1.381976e+02   8.966509e+01
  -2.021143e+02  -4.495608e+01
  -1.120265e+02  -2.038326e+02
   1.003209e+02  -2.408464e+02
   2.748255e+02  -1.083333e+02
   2.722230e+02   8.438043e+01
   1.197620e+02   1.850063e+02
  -3.842639e+01   1.560574e+02
  -9.959726e+01   8.879239e+01
  -8.399062e+01   7.097597e+01
  -6.929313e+01   9.200420e+01
  -9.366284e+01   7.559539e+01
  -1.306868e+02  -2.197768e+01
  -1.220428e+02  -1.572424e+02
  -3.383188e+01  -2.330758e+02
   9.971774e+01  -1.806143e+02
   1.835784e+02  -2.557869e+01
   1.465006e+02   1.236889e+02
   2.486731e+01   1.671532e+02
  -6.790843e+01   1.005025e+02
  -6.409480e+01   4.975930e+00
  -9.333049e+00  -4.302906e+01
   6.994614e+00  -3.735009e+01
  -3.798843e+01  -2.048418e+01
  -7.966538e+01  -2.298669e+01
  -4.523993e+01  -3.782884e+01
   6.274551e+01  -3.835479e+01
   1.587045e+02  -6.817689e+00
   1.475479e+02   4.784311e+01
   2.040729e+01   8.836825e+01
  -1.194800e+02   7.696836e+01
  -1.480029e+02   1.686142e+01
  -5.015310e+01  -3.918083e+01
   6.214304e+01  -3.719259e+01
   7.836154e+01   1.898791e+01
   7.139130e+00   6.868185e+01
  -5.803073e+01   5.889717e+01
  -6.395390e+01  -7.452669e-01
  -4.366630e+01  -4.919922e+01
  -4.486080e+01  -4.172387e+01
  -6.493756e+01  -2.157756e+00
  -6.842254e+01  -1.588008e-02
  -3.491659e+01  -6.798606e+01
   3.317654e+01  -1.481317e+02
   1.150296e+02  -1.453469e+02
   1.633925e+02  -3.618562e+01
   1.254149e+02   9.090337e+01
   9.745603e+00   1.273691e+02
  -8.506907e+01   6.197711e+01
  -6.073462e+01  -1.597573e+01
   6.064706e+01  -2.097363e+01
   1.425770e+02   4.391709e+01
   8.087869e+01   1.100865e+02
  -8.066357e+01   1.175477e+02
  -1.966569e+02   5.782107e+01
  -1.698968e+02  -3.091623e+01
  -4.134116e+01  -8.933164e+01
   6.105050e+01  -7.587074e+01
   5.071817e+01  -1.111392e+01
  -3.868257e+01   2.652854e+01
  -9.178878e+01  -2.271771e+01
  -3.266697e+01  -1.219252e+02
   9.552504e+01  -1.586206e+02
   1.738678e+02  -6.333253e+01
   1.317342e+02   1.050340e+02
   1.142939e+01   2.052410e+02
  -8.802434e+01   1.507301e+02
  -1.093998e+02  -4.648954e+00
  -6.633527e+01  -1.207784e+02
  -2.297585e+00  -1.113471e+02
   4.603404e+01  -2.329050e+01
   5.605193e+01   3.091157e+01
   2.943905e+01   8.588708e+00
   3.672012e+00  -2.235557e+01
   1.918781e+01   1.337604e+01
   5.796954e+01   9.000711e+01
   4.724197e+01   1.135787e+02
  -4.492614e+01   4.834337e+01
  -1.428439e+02  -3.926570e+01
  -1.361694e+02  -7.201724e+01
  -1.858990e+01  -5.009373e+01
   9.191138e+01  -2.259493e+01
   9.122655e+01  -8.981417e+00
   9.459212e+00   6.624668e+00
  -4.090782e+01   2.380714e+01
  -1.348407e+01   2.038265e+01
   2.330782e+01  -1.199091e+00
  -6.773169e+00  -1.081277e+01
  -7.815520e+01  -5.589557e+00
  -9.344924e+01  -2.479781e+01
  -5.565049e+00  -8.188425e+01
   1.238155e+02  -1.166590e+02
   1.892891e+02  -5.915244e+01
   1.430228e+02   7.048885e+01
   2.598654e+01   1.669672e+02
  -7.960207e+01   1.531360e+02
  -1.163349e+02   5.892073e+01
  -8.325526e+01  -2.253946e+01
  -2.563863e+01  -3.555225e+01
   4.355285e+00  -7.593891e+00
  -9.675163e+00  -2.826699e+00
  -3.529048e+01  -4.599097e+01
  -2.530925e+01  -9.232242e+01
   2.966027e+01  -7.388653e+01
   8.433042e+01   1.932610e+01
   7.889934e+01   1.123411e+02
   2.162877e+00   1.154838e+02
  -8.644945e+01   2.274324e+01
  -1.051247e+02  -7.938160e+01
  -3.106626e+01  -1.059818e+02
   6.846761e+01  -5.500453e+01
   9.855472e+01   1.284631e+01
   3.866803e+01   4.985651e+01
  -3.284551e+01   5.087998e+01
  -2.993143e+01   2.908651e+01
   3.608341e+01   9.858467e-01
   7.042029e+01  -6.767701e+00
   1.436676e+01   2.468203e+01
  -8.059488e+01   6.786706e+01
  -1.165229e+02   6.210563e+01
  -6.410837e+01  -1.047209e+01
   1.546971e+01  -8.467910e+01
   5.226652e+01  -8.096714e+01
   3.600065e+01  -4.507658e+00
   3.935780e-01   5.815834e+01
  -2.706015e+01   4.290466e+01
  -3.767453e+01  -2.066439e+01
  -2.708057e+01  -5.575441e+01
   3.270319e+00  -3.242406e+01
   3.379154e+01   9.254415e+00
   3.988012e+01   2.012322e+01
   2.090276e+01  -5.613867e-02
   6.975331e-02  -1.326141e+01
  -7.024729e+00   5.732115e+00
  -9.111902e+00   3.834683e+01
  -2.033698e+01   4.338360e+01
  -3.390730e+01   4.049994e+00
  -2.815372e+01  -4.856667e+01
   5.789698e+00  -6.263686e+01
   4.695820e+01  -1.970530e+01
   5.687634e+01   4.172995e+01
   1.411070e+01   6.545352e+01
  -5.552126e+01   3.470681e+01
  -9.019323e+01  -1.645854e+01
  -5.012849e+01  -4.519801e+01
   2.954444e+01  -4.051577e+01
   6.636204e+01  -2.013834e+01
   2.370840e+01  -4.308499e+00
  -4.041476e+01  -3.571039e+00
  -3.992714e+01  -1.843246e+01
   3.309913e+01  -3.358253e+01
   9.646666e+01  -2.005266e+01
