
 $NMID
 id='ANONYMOUS ', fmtdat='(2E16.6)'
 volume=1.0
 tramp=1.0
 $END
  -4.278226e+03   6.662709e+01
  -2.623900e+03  -2.650237e+03
   7.046543e+02  -2.745330e+03
   1.935195e+03  -1.064836e+03
   9.621644e+02   6.184420e+02
  -5.981083e+02   5.541352e+02
  -8.439825e+02  -4.236604e+02
   2.399544e+01  -1.032249e+03
   7.823449e+02  -8.137963e+02
   9.376032e+02   4.761584e+01
   4.759320e+02   8.351853e+02
  -2.310085e+02   8.845016e+02
  -6.066364e+02   1.270626e+02
  -3.963837e+02  -7.173021e+02
   2.785968e+02  -7.341119e+02
   6.377324e+02  -1.855306e+00
   2.736805e+02   6.858604e+02
  -3.320165e+02   6.586198e+02
  -6.047765e+02   9.541866e+01
  -3.896507e+02  -3.702928e+02
  -1.700895e+01  -4.758018e+02
   2.460890e+02  -2.757934e+02
   2.071307e+02  -2.405239e+01
  -1.262918e+02   8.933585e+01
  -4.176191e+02  -1.304794e+02
  -1.874707e+02  -4.653350e+02
   5.040469e+02  -4.120537e+02
   8.487614e+02   7.614367e+01
   4.109325e+02   5.505534e+02
  -4.117260e+02   4.663002e+02
  -7.460646e+02  -5.679173e+01
  -3.438886e+02  -4.918770e+02
   2.967184e+02  -5.264628e+02
   5.871036e+02  -2.037794e+02
   4.256264e+02   2.344424e+02
   6.126370e+01   4.852817e+02
  -2.074423e+02   2.919636e+02
  -1.546248e+02  -2.151630e+02
   1.687917e+02  -4.289041e+02
   4.404108e+02   2.064481e+01
   2.467340e+02   6.766607e+02
  -3.097368e+02   7.074606e+02
  -5.983566e+02   8.197523e+00
  -2.638653e+02  -5.551894e+02
   2.948248e+02  -3.285387e+02
   4.032389e+02   3.296132e+02
  -5.673950e+01   5.685187e+02
  -5.731137e+02   1.544884e+02
  -6.228030e+02  -4.152729e+02
  -1.728097e+02  -6.125994e+02
   4.021518e+02  -3.581773e+02
   6.522316e+02   7.850926e+01
   3.812402e+02   3.887551e+02
  -1.556020e+02   3.609644e+02
  -4.444509e+02   5.973226e+01
  -2.441847e+02  -1.786688e+02
   1.158790e+02  -9.625928e+01
   1.474424e+02   1.473943e+02
  -1.588547e+02   1.807315e+02
  -3.549911e+02  -6.440666e+01
  -1.644058e+02  -2.888888e+02
   1.897251e+02  -2.692477e+02
   3.433017e+02  -9.505205e+01
   2.191298e+02   7.913504e+01
  -2.310490e+01   2.368735e+02
  -2.427545e+02   3.339890e+02
  -3.570044e+02   2.065257e+02
  -2.870226e+02  -1.551147e+02
  -6.086056e+01  -4.410106e+02
   1.243636e+02  -3.784221e+02
   1.149229e+02  -1.146860e+02
   1.909278e+01  -3.938785e+00
   5.040089e+01  -1.001405e+02
   2.092300e+02  -1.266459e+02
   2.839759e+02   6.781497e+01
   1.504760e+02   2.811129e+02
  -8.267841e+01   2.533035e+02
  -2.295301e+02  -2.415522e+00
  -1.906435e+02  -2.515079e+02
   1.706442e+01  -2.984752e+02
   2.669556e+02  -1.159524e+02
   3.630014e+02   1.685650e+02
   1.946616e+02   3.544266e+02
  -9.032051e+01   3.160870e+02
  -2.272375e+02   1.332206e+02
  -1.588362e+02   1.341142e+01
  -1.091637e+02   3.573025e+01
  -2.415914e+02   6.494961e+01
  -4.123503e+02  -5.555951e+01
  -3.469782e+02  -2.885740e+02
  -1.728686e+00  -4.569116e+02
   3.677916e+02  -4.267723e+02
   5.001390e+02  -2.054177e+02
   3.386445e+02   9.668641e+01
   4.958422e+01   2.967736e+02
  -1.308717e+02   2.520413e+02
  -7.624939e+01   2.867950e+01
   1.142649e+02  -1.056450e+02
   1.960415e+02   8.157953e+00
   5.090174e+01   1.961895e+02
  -1.573188e+02   1.724321e+02
  -1.777170e+02  -5.911245e+01
   1.429128e+01  -1.913149e+02
   1.928486e+02  -3.489777e+01
   1.696754e+02   2.464313e+02
  -2.291978e+01   3.561178e+02
  -2.316798e+02   2.043558e+02
  -3.372202e+02  -5.724843e+01
  -2.884059e+02  -2.430881e+02
  -9.695132e+01  -2.709937e+02
   1.162524e+02  -1.625517e+02
   1.787058e+02  -1.922130e+01
   5.623467e+01   3.172133e+01
  -7.272563e+01  -4.335685e+01
  -2.936927e+01  -1.305717e+02
   1.269017e+02  -1.034854e+02
   1.831544e+02   1.170746e+01
   6.244646e+01   7.433551e+01
  -7.863316e+01   1.968562e+01
  -5.670547e+01  -7.176457e+01
   1.221138e+02  -8.869045e+01
   2.839388e+02  -1.945963e+00
   2.676763e+02   1.411875e+02
   6.229616e+01   2.597835e+02
  -1.868331e+02   2.653443e+02
  -2.880866e+02   1.274225e+02
  -1.722991e+02  -5.304337e+01
   2.588760e+01  -1.108535e+02
   9.302897e+01  -7.403224e+00
  -3.317466e+01   1.041504e+02
  -1.994036e+02   6.181909e+01
  -2.188838e+02  -1.029035e+02
  -7.337375e+01  -2.118400e+02
   9.439689e+01  -1.626927e+02
   1.471851e+02  -3.133507e+01
   7.280674e+01   4.146165e+01
  -2.841346e+01   2.293265e+00
  -3.869295e+01  -8.528922e+01
   7.257688e+01  -1.151674e+02
   2.016612e+02  -2.998100e+01
   1.955945e+02   1.239687e+02
   2.240170e+01   2.207714e+02
  -1.672338e+02   1.677407e+02
  -1.980217e+02   7.955460e+00
  -6.708262e+01  -1.168677e+02
   6.827101e+01  -1.159915e+02
   8.591519e+01  -3.342567e+01
   1.940590e+01   2.638872e+01
  -2.225819e+01   1.967942e+01
   1.035735e+01  -8.267702e+00
   7.417935e+01   7.716840e+00
   9.244016e+01   8.327886e+01
   1.652071e+01   1.625180e+02
  -1.290692e+02   1.568650e+02
  -2.384314e+02   2.759411e+01
  -2.070698e+02  -1.515640e+02
  -4.451202e+01  -2.411599e+02
   1.095763e+02  -1.736641e+02
   1.385392e+02  -2.901562e+01
   7.279644e+01   5.646273e+01
   2.907084e+01   3.675124e+01
   5.275225e+01  -1.309994e+01
   8.024900e+01  -8.038501e+00
   4.374750e+01   5.004251e+01
  -4.061748e+01   9.088215e+01
  -1.031808e+02   5.724499e+01
  -8.769406e+01  -3.603173e+01
   1.276408e+01  -1.135844e+02
   1.445868e+02  -8.897780e+01
   2.025976e+02   5.143351e+01
   1.040760e+02   2.058685e+02
  -1.069268e+02   2.347431e+02
  -2.718356e+02   1.005507e+02
  -2.634712e+02  -8.574103e+01
  -1.134746e+02  -1.798382e+02
   3.871123e+01  -1.509876e+02
   9.657432e+01  -8.632878e+01
   8.072542e+01  -7.004327e+01
   6.686239e+01  -9.167665e+01
   9.224689e+01  -7.586189e+01
   1.299252e+02   2.112751e+01
   1.205030e+02   1.560377e+02
   3.151430e+01   2.306407e+02
  -9.965107e+01   1.762110e+02
  -1.792002e+02   2.115401e+01
  -1.404528e+02  -1.244696e+02
  -2.099394e+01  -1.632230e+02
   6.884313e+01  -9.452511e+01
   6.311091e+01  -3.488425e-01
   6.440674e+00   4.452641e+01
  -1.112508e+01   3.607121e+01
   3.538447e+01   1.819800e+01
   7.992449e+01   2.222849e+01
   4.578878e+01   3.892250e+01
  -6.477198e+01   3.874179e+01
  -1.610953e+02   3.924398e+00
  -1.457083e+02  -5.267486e+01
  -1.471475e+01  -9.097816e+01
   1.234126e+02  -7.535685e+01
   1.475216e+02  -1.274689e+01
   4.877404e+01   4.277476e+01
  -6.163634e+01   3.932656e+01
  -7.809018e+01  -1.805278e+01
  -9.739984e+00  -6.896617e+01
   5.472115e+01  -5.973869e+01
   6.374700e+01   1.158563e-01
   4.554713e+01   4.907417e+01
   4.476313e+01   4.162322e+01
   6.261974e+01   1.780636e+00
   6.780827e+01   1.258269e-01
   3.692649e+01   6.877082e+01
  -3.212642e+01   1.486616e+02
  -1.173217e+02   1.443841e+02
  -1.663748e+02   3.443942e+01
  -1.253639e+02  -9.217456e+01
  -7.396069e+00  -1.281697e+02
   8.685424e+01  -6.274031e+01
   6.118401e+01   1.528345e+01
  -5.949780e+01   2.105108e+01
  -1.398235e+02  -4.309850e+01
  -7.826055e+01  -1.085794e+02
   8.107295e+01  -1.148670e+02
   1.942250e+02  -5.394365e+01
   1.659684e+02   3.347849e+01
   3.803655e+01   8.799958e+01
  -6.211133e+01   7.175786e+01
  -4.977495e+01   7.673985e+00
   3.960032e+01  -2.752068e+01
   9.216464e+01   2.225451e+01
   3.403363e+01   1.201274e+02
  -9.156105e+01   1.571615e+02
  -1.692766e+02   6.458700e+01
  -1.298853e+02  -1.010113e+02
  -1.279329e+01  -2.008145e+02
   8.572070e+01  -1.474507e+02
   1.072164e+02   5.994467e+00
   6.326959e+01   1.196064e+02
  -1.235334e+00   1.082370e+02
  -4.698665e+01   2.068730e+01
  -5.308118e+01  -3.138553e+01
  -2.608729e+01  -8.418395e+00
  -3.821294e+00   2.109050e+01
  -2.108574e+01  -1.507465e+01
  -5.681021e+01  -8.920624e+01
  -4.292440e+01  -1.104545e+02
   4.716391e+01  -4.610326e+01
   1.398869e+02   3.899013e+01
   1.317129e+02   7.125036e+01
   1.813789e+01   5.064708e+01
  -8.881992e+01   2.329533e+01
  -8.954664e+01   8.184602e+00
  -1.136315e+01  -7.684179e+00
   3.865055e+01  -2.305678e+01
   1.415720e+01  -1.883703e+01
  -2.111035e+01   1.063906e+00
   6.773888e+00   8.933796e+00
   7.601960e+01   4.129448e+00
   9.292703e+01   2.489463e+01
   8.735008e+00   8.212576e+01
  -1.195402e+02   1.166113e+02
  -1.877101e+02   6.044726e+01
  -1.444734e+02  -6.732623e+01
  -2.807544e+01  -1.640874e+02
   7.861994e+01  -1.528633e+02
   1.158659e+02  -6.041521e+01
   8.266343e+01   2.154781e+01
   2.575307e+01   3.607544e+01
  -3.263079e+00   8.878373e+00
   1.028737e+01   3.896592e+00
   3.408600e+01   4.625341e+01
   2.372719e+01   9.156085e+01
  -2.949719e+01   7.306130e+01
  -8.277958e+01  -1.829559e+01
  -7.884386e+01  -1.094392e+02
  -4.792087e+00  -1.137825e+02
   8.331512e+01  -2.489474e+01
   1.046019e+02   7.529083e+01
   3.309944e+01   1.042870e+02
  -6.665336e+01   5.678224e+01
  -9.878650e+01  -1.115643e+01
  -3.987031e+01  -5.094329e+01
   3.265349e+01  -5.305028e+01
   3.168898e+01  -2.942239e+01
  -3.374006e+01   1.358597e-01
  -6.920862e+01   7.116936e+00
  -1.468898e+01  -2.489284e+01
   7.975655e+01  -6.669720e+01
   1.169043e+02  -5.963859e+01
   6.548581e+01   1.181027e+01
  -1.479521e+01   8.452511e+01
  -5.335853e+01   8.151468e+01
  -3.842281e+01   6.841572e+00
  -2.585248e+00  -5.645556e+01
   2.575289e+01  -4.422035e+01
   3.721746e+01   1.775393e+01
   2.722346e+01   5.466623e+01
  -2.733130e+00   3.358945e+01
  -3.322594e+01  -8.608943e+00
  -3.983591e+01  -2.163853e+01
  -2.084160e+01  -1.180347e+00
   4.187807e-01   1.478262e+01
   6.796969e+00  -2.491801e+00
   6.678700e+00  -3.685284e+01
   1.661992e+01  -4.542941e+01
   3.227841e+01  -8.114927e+00
   3.049688e+01   4.518712e+01
  -1.646421e+00   6.143044e+01
  -4.469777e+01   2.093366e+01
  -5.742377e+01  -3.905738e+01
  -1.549237e+01  -6.312013e+01
   5.485309e+01  -3.453721e+01
   8.998833e+01   1.455359e+01
   5.023812e+01   4.357882e+01
  -2.879572e+01   4.125305e+01
  -6.560045e+01   2.227158e+01
  -2.476695e+01   5.163444e+00
   3.757345e+01   1.859357e+00
   3.833288e+01   1.563813e+01
  -3.078753e+01   3.191426e+01
  -9.204317e+01   2.046646e+01
