
 $NMID
 id='ANONYMOUS ', fmtdat='(2E16.6)'
 volume=1.0
 tramp=1.0
 $END
  -4.415420e+03  -9.097147e+01
  -2.781779e+03  -2.739592e+03
   8.214125e+02  -2.849749e+03
   2.066348e+03  -9.911873e+02
   9.176892e+02   7.898065e+02
  -7.223289e+02   4.804784e+02
  -9.242015e+02  -4.614306e+02
   8.670933e+01  -1.078181e+03
   8.394789e+02  -8.477309e+02
   9.864601e+02   8.657075e+01
   5.214290e+02   8.907257e+02
  -2.725960e+02   8.794547e+02
  -6.745487e+02   2.701889e+01
  -3.868950e+02  -7.323272e+02
   3.258807e+02  -7.484989e+02
   6.373486e+02   1.077977e+01
   2.554612e+02   7.138138e+02
  -3.120012e+02   6.635383e+02
  -5.960282e+02   8.096961e+01
  -3.874353e+02  -3.935138e+02
  -5.463653e+00  -4.680283e+02
   2.698291e+02  -2.622578e+02
   2.254234e+02   1.594944e+01
  -1.282585e+02   9.597591e+01
  -4.488332e+02  -1.029768e+02
  -2.217517e+02  -4.664667e+02
   4.855605e+02  -4.541009e+02
   8.934088e+02   7.413212e+01
   4.431909e+02   5.820131e+02
  -4.282021e+02   5.077005e+02
  -7.988953e+02  -5.315414e+01
  -3.700738e+02  -5.259999e+02
   3.067665e+02  -5.496542e+02
   6.084595e+02  -2.173294e+02
   4.474838e+02   2.406232e+02
   6.664300e+01   5.106338e+02
  -2.302604e+02   3.077444e+02
  -1.952765e+02  -2.470206e+02
   1.841661e+02  -4.966023e+02
   4.930710e+02  -2.163708e+00
   2.844236e+02   7.446398e+02
  -3.401199e+02   7.691992e+02
  -6.609440e+02   9.059307e+00
  -2.933522e+02  -6.067834e+02
   3.186392e+02  -3.649965e+02
   4.413908e+02   3.347516e+02
  -4.262551e+01   5.874091e+02
  -5.877339e+02   1.595814e+02
  -6.431129e+02  -4.238539e+02
  -1.808100e+02  -6.257609e+02
   4.132960e+02  -3.731805e+02
   6.823893e+02   8.197931e+01
   3.980242e+02   4.168196e+02
  -1.781271e+02   3.928625e+02
  -4.852059e+02   5.472347e+01
  -2.541729e+02  -2.227875e+02
   1.420066e+02  -1.252451e+02
   1.642603e+02   1.689616e+02
  -1.793494e+02   2.133942e+02
  -3.816242e+02  -7.244613e+01
  -1.572563e+02  -3.240519e+02
   2.161040e+02  -2.806579e+02
   3.482279e+02  -7.578730e+01
   2.016911e+02   9.190272e+01
  -2.853246e+01   2.312982e+02
  -2.285602e+02   3.378437e+02
  -3.532133e+02   2.287006e+02
  -3.084040e+02  -1.456780e+02
  -8.159180e+01  -4.625039e+02
   1.280876e+02  -4.006461e+02
   1.283148e+02  -1.052122e+02
   1.474088e+01   2.085851e+01
   3.117011e+01  -9.920311e+01
   2.034048e+02  -1.516140e+02
   3.040321e+02   5.088511e+01
   1.749728e+02   2.925580e+02
  -8.030854e+01   2.781869e+02
  -2.509815e+02   1.296127e+01
  -2.149858e+02  -2.565647e+02
   8.935152e+00  -3.152830e+02
   2.806191e+02  -1.285933e+02
   3.843736e+02   1.708903e+02
   2.009374e+02   3.703298e+02
  -1.041623e+02   3.290829e+02
  -2.447867e+02   1.316781e+02
  -1.641912e+02   1.755973e+00
  -1.026188e+02   2.971870e+01
  -2.370573e+02   6.742152e+01
  -4.121832e+02  -4.780935e+01
  -3.529424e+02  -2.848115e+02
  -1.497923e+01  -4.606368e+02
   3.601549e+02  -4.420441e+02
   5.085647e+02  -2.227441e+02
   3.628629e+02   9.366937e+01
   6.517825e+01   3.147710e+02
  -1.409044e+02   2.718993e+02
  -9.517914e+01   2.897860e+01
   1.124977e+02  -1.204249e+02
   2.119257e+02   3.151605e+00
   5.661834e+01   2.110658e+02
  -1.744546e+02   1.869653e+02
  -1.974852e+02  -6.413927e+01
   1.301087e+01  -2.102554e+02
   2.046655e+02  -4.330784e+01
   1.767083e+02   2.520270e+02
  -2.550546e+01   3.623886e+02
  -2.322463e+02   2.041457e+02
  -3.359596e+02  -5.713194e+01
  -2.943670e+02  -2.411879e+02
  -1.074350e+02  -2.756909e+02
   1.165393e+02  -1.746175e+02
   1.922704e+02  -2.541301e+01
   6.575694e+01   3.867717e+01
  -7.843022e+01  -3.434118e+01
  -3.923131e+01  -1.327897e+02
   1.292894e+02  -1.137359e+02
   1.943717e+02   7.475573e+00
   6.712978e+01   7.994073e+01
  -8.491454e+01   2.627992e+01
  -6.454950e+01  -7.171138e+01
   1.208926e+02  -9.452580e+01
   2.890551e+02  -9.620999e+00
   2.756482e+02   1.360760e+02
   6.959599e+01   2.619951e+02
  -1.850460e+02   2.752826e+02
  -2.944580e+02   1.368562e+02
  -1.806614e+02  -5.380019e+01
   2.506614e+01  -1.201776e+02
   1.004415e+02  -1.308723e+01
  -2.790254e+01   1.091155e+02
  -2.035453e+02   7.085613e+01
  -2.280774e+02  -1.000363e+02
  -7.852961e+01  -2.174721e+02
   9.660163e+01  -1.708527e+02
   1.530082e+02  -3.541738e+01
   7.711183e+01   4.384836e+01
  -2.907371e+01   8.243886e+00
  -4.360710e+01  -8.199362e+01
   6.861779e+01  -1.188192e+02
   2.043366e+02  -3.660953e+01
   2.033916e+02   1.231294e+02
   2.711135e+01   2.287839e+02
  -1.711813e+02   1.769175e+02
  -2.066766e+02   9.404344e+00
  -7.254144e+01  -1.228746e+02
   6.913416e+01  -1.222014e+02
   8.999031e+01  -3.479047e+01
   2.342995e+01   2.902925e+01
  -2.038732e+01   2.372095e+01
   8.362864e+00  -5.692881e+00
   6.985603e+01   7.275651e+00
   9.101466e+01   7.978354e+01
   2.084200e+01   1.613289e+02
  -1.244927e+02   1.615283e+02
  -2.415290e+02   3.480028e+01
  -2.151088e+02  -1.498041e+02
  -4.931050e+01  -2.472325e+02
   1.124657e+02  -1.811047e+02
   1.435407e+02  -3.069727e+01
   7.427215e+01   5.966309e+01
   2.839064e+01   4.052654e+01
   5.271835e+01  -1.136206e+01
   8.020253e+01  -8.794424e+00
   4.229858e+01   4.766699e+01
  -4.160376e+01   8.841693e+01
  -1.024461e+02   5.822006e+01
  -8.772036e+01  -3.283750e+01
   9.486545e+00  -1.119584e+02
   1.422098e+02  -9.274463e+01
   2.052164e+02   4.527318e+01
   1.121126e+02   2.048564e+02
  -1.018704e+02   2.412603e+02
  -2.754223e+02   1.082763e+02
  -2.720460e+02  -8.349796e+01
  -1.195459e+02  -1.835772e+02
   3.814591e+01  -1.551660e+02
   9.866080e+01  -8.853234e+01
   8.217408e+01  -7.175755e+01
   6.714775e+01  -9.369889e+01
   9.261433e+01  -7.799576e+01
   1.310752e+02   2.010209e+01
   1.236253e+02   1.567168e+02
   3.521470e+01   2.333046e+02
  -9.897295e+01   1.804343e+02
  -1.829432e+02   2.494168e+01
  -1.453802e+02  -1.239483e+02
  -2.326801e+01  -1.664909e+02
   6.924860e+01  -9.877567e+01
   6.421073e+01  -2.703022e+00
   7.514901e+00   4.471583e+01
  -9.495903e+00   3.753012e+01
   3.718369e+01   1.932819e+01
   8.133792e+01   2.187788e+01
   4.720417e+01   3.815668e+01
  -6.326281e+01   3.988449e+01
  -1.614653e+02   7.773651e+00
  -1.496198e+02  -4.849355e+01
  -1.982598e+01  -9.036508e+01
   1.212585e+02  -7.885521e+01
   1.489836e+02  -1.738998e+01
   5.061527e+01   4.015057e+01
  -6.133806e+01   3.841512e+01
  -7.782032e+01  -1.866171e+01
  -7.851853e+00  -6.921301e+01
   5.694491e+01  -5.914749e+01
   6.438695e+01   1.079449e+00
   4.511916e+01   4.976718e+01
   4.533459e+01   4.205652e+01
   6.372971e+01   1.982438e+00
   6.774065e+01  -4.325957e-01
   3.645221e+01   6.786638e+01
  -3.077033e+01   1.492654e+02
  -1.147035e+02   1.474953e+02
  -1.657077e+02   3.840647e+01
  -1.282205e+02  -9.017310e+01
  -1.112498e+01  -1.284629e+02
   8.522443e+01  -6.397228e+01
   6.137552e+01   1.507234e+01
  -6.022442e+01   2.180304e+01
  -1.428801e+02  -4.267303e+01
  -8.141823e+01  -1.097760e+02
   8.017807e+01  -1.182661e+02
   1.963179e+02  -5.860113e+01
   1.694321e+02   3.084149e+01
   4.078148e+01   8.931345e+01
  -6.133775e+01   7.561843e+01
  -5.066818e+01   1.037780e+01
   3.873447e+01  -2.797640e+01
   9.221532e+01   2.090711e+01
   3.418300e+01   1.207399e+02
  -9.287206e+01   1.593988e+02
  -1.716855e+02   6.563544e+01
  -1.316592e+02  -1.031283e+02
  -1.296998e+01  -2.047020e+02
   8.696672e+01  -1.506038e+02
   1.096279e+02   5.379685e+00
   6.648668e+01   1.217527e+02
   1.210934e+00   1.115366e+02
  -4.743871e+01   2.279251e+01
  -5.600763e+01  -3.124428e+01
  -2.838760e+01  -8.517740e+00
  -3.787764e+00   2.238544e+01
  -2.093759e+01  -1.359661e+01
  -5.950159e+01  -9.004981e+01
  -4.702022e+01  -1.137511e+02
   4.621545e+01  -4.919349e+01
   1.436232e+02   3.795297e+01
   1.362181e+02   7.137134e+01
   1.907495e+01   5.077663e+01
  -9.108359e+01   2.378502e+01
  -9.110764e+01   9.455539e+00
  -1.026968e+01  -6.771711e+00
   4.036086e+01  -2.358541e+01
   1.398021e+01  -1.958732e+01
  -2.312244e+01   1.729629e+00
   5.501080e+00   1.017379e+01
   7.654967e+01   3.699729e+00
   9.394508e+01   2.283625e+01
   8.655614e+00   8.122611e+01
  -1.208440e+02   1.179949e+02
  -1.888286e+02   6.198693e+01
  -1.447101e+02  -6.781157e+01
  -2.794337e+01  -1.661943e+02
   7.839983e+01  -1.543237e+02
   1.157722e+02  -6.060308e+01
   8.305560e+01   2.151361e+01
   2.597290e+01   3.542284e+01
  -3.576296e+00   7.803205e+00
   1.004373e+01   3.060361e+00
   3.535017e+01   4.609723e+01
   2.585302e+01   9.218765e+01
  -2.855795e+01   7.378477e+01
  -8.391034e+01  -1.864646e+01
  -8.027897e+01  -1.109286e+02
  -4.416168e+00  -1.149004e+02
   8.547840e+01  -2.414377e+01
   1.064105e+02   7.730579e+01
   3.317581e+01   1.053747e+02
  -6.735780e+01   5.656337e+01
  -9.908185e+01  -1.123482e+01
  -3.973190e+01  -4.987606e+01
   3.242448e+01  -5.194228e+01
   3.041279e+01  -2.923595e+01
  -3.541118e+01   4.959898e-02
  -7.050592e+01   7.639426e+00
  -1.517754e+01  -2.483865e+01
   8.014095e+01  -6.861627e+01
   1.171430e+02  -6.271129e+01
   6.542185e+01   1.016069e+01
  -1.470733e+01   8.503899e+01
  -5.249683e+01   8.225357e+01
  -3.677608e+01   6.089773e+00
  -1.093976e+00  -5.742707e+01
   2.663912e+01  -4.345944e+01
   3.754542e+01   1.963435e+01
   2.731678e+01   5.563422e+01
  -2.838794e+00   3.315669e+01
  -3.389608e+01  -8.770639e+00
  -4.057755e+01  -2.055050e+01
  -2.111128e+01  -1.425335e-01
   6.272737e-01   1.401630e+01
   7.433757e+00  -4.464554e+00
   7.796557e+00  -3.775325e+01
   1.793207e+01  -4.429309e+01
   3.271336e+01  -5.997634e+00
   2.947464e+01   4.683226e+01
  -3.397485e+00   6.205618e+01
  -4.592134e+01   2.060739e+01
  -5.771776e+01  -4.020900e+01
  -1.527975e+01  -6.469086e+01
   5.545891e+01  -3.541755e+01
   9.078951e+01   1.491045e+01
   5.068707e+01   4.449563e+01
  -2.896107e+01   4.136104e+01
  -6.586283e+01   2.156171e+01
  -2.382745e+01   4.893655e+00
   3.959791e+01   3.024945e+00
   3.951154e+01   1.759133e+01
  -3.209386e+01   3.360505e+01
  -9.495194e+01   2.110480e+01
