
 $NMID
 id='ANONYMOUS ', fmtdat='(2E16.6)'
 volume=1.0
 tramp=1.0
 $END
  -3.275812e+03   8.950090e+01
  -1.893257e+03  -2.004008e+03
   6.813113e+02  -2.067086e+03
   1.680408e+03  -7.328879e+02
   7.000041e+02   5.603399e+02
  -5.118978e+02   4.508652e+02
  -6.369358e+02  -3.509584e+02
  -4.393067e+01  -8.152862e+02
   6.675289e+02  -6.327611e+02
   6.958963e+02   7.217728e+01
   3.231693e+02   6.732403e+02
  -2.037202e+02   6.872035e+02
  -4.663430e+02   9.026328e+01
  -2.655908e+02  -5.610130e+02
   2.359673e+02  -5.943843e+02
   4.863349e+02  -8.564939e+00
   2.046626e+02   5.434016e+02
  -2.477934e+02   4.706177e+02
  -4.461094e+02   1.751328e+01
  -2.869276e+02  -2.814339e+02
  -1.651748e+01  -3.484596e+02
   1.777277e+02  -1.968964e+02
   1.652828e+02  -9.723516e-01
  -7.765397e+01   7.920932e+01
  -3.015391e+02  -8.278163e+01
  -1.736992e+02  -3.282749e+02
   3.401680e+02  -3.226448e+02
   6.479391e+02   4.798659e+01
   3.207968e+02   4.315495e+02
  -3.107443e+02   3.625961e+02
  -5.710610e+02  -3.512090e+01
  -2.706994e+02  -3.835135e+02
   2.111779e+02  -3.889517e+02
   4.343856e+02  -1.514091e+02
   3.090547e+02   1.703714e+02
   3.964068e+01   3.522500e+02
  -1.676507e+02   2.109381e+02
  -1.352916e+02  -1.703574e+02
   1.330299e+02  -3.432807e+02
   3.618344e+02   5.808446e+00
   1.974932e+02   5.130228e+02
  -2.534825e+02   5.470592e+02
  -4.867498e+02   9.803360e+00
  -2.092170e+02  -4.357725e+02
   2.416314e+02  -2.698549e+02
   3.295583e+02   2.427122e+02
  -2.942778e+01   4.332555e+02
  -4.282585e+02   1.239391e+02
  -4.651203e+02  -3.017396e+02
  -1.251729e+02  -4.471154e+02
   3.076310e+02  -2.619893e+02
   4.920778e+02   6.438509e+01
   2.789372e+02   3.016308e+02
  -1.328776e+02   2.815897e+02
  -3.452381e+02   4.176031e+01
  -1.808144e+02  -1.513925e+02
   9.606249e+01  -8.104907e+01
   1.143785e+02   1.204902e+02
  -1.207028e+02   1.464902e+02
  -2.598965e+02  -5.442034e+01
  -1.069990e+02  -2.270839e+02
   1.513462e+02  -1.949924e+02
   2.479718e+02  -5.361145e+01
   1.534330e+02   6.404969e+01
  -6.981293e+00   1.677892e+02
  -1.582075e+02   2.482464e+02
  -2.591162e+02   1.693172e+02
  -2.274380e+02  -1.023247e+02
  -5.471733e+01  -3.303684e+02
   1.009620e+02  -2.841889e+02
   9.415355e+01  -7.225443e+01
   3.502751e+00   1.449683e+01
   1.669328e+01  -7.402324e+01
   1.463031e+02  -1.095620e+02
   2.189717e+02   3.951889e+01
   1.233237e+02   2.111664e+02
  -5.720831e+01   1.944030e+02
  -1.724168e+02   1.576370e+00
  -1.447377e+02  -1.830488e+02
   9.698420e+00  -2.151923e+02
   1.961431e+02  -8.082123e+01
   2.662737e+02   1.248756e+02
   1.380526e+02   2.598540e+02
  -7.607152e+01   2.307596e+02
  -1.756675e+02   9.017420e+01
  -1.165597e+02  -7.183899e-01
  -7.119587e+01   2.097390e+01
  -1.673772e+02   4.927309e+01
  -2.954565e+02  -3.600521e+01
  -2.515275e+02  -2.038484e+02
  -6.152767e+00  -3.289018e+02
   2.611158e+02  -3.145983e+02
   3.640330e+02  -1.564566e+02
   2.549872e+02   6.888521e+01
   4.490294e+01   2.253681e+02
  -1.003618e+02   1.939427e+02
  -6.635047e+01   1.897116e+01
   8.112833e+01  -8.787765e+01
   1.512482e+02   5.239714e+00
   3.932739e+01   1.554112e+02
  -1.261329e+02   1.337447e+02
  -1.408962e+02  -5.101801e+01
   1.251970e+01  -1.534784e+02
   1.493931e+02  -2.917047e+01
   1.234592e+02   1.846293e+02
  -2.301906e+01   2.585113e+02
  -1.665956e+02   1.411054e+02
  -2.335870e+02  -4.384154e+01
  -2.016347e+02  -1.695510e+02
  -7.262277e+01  -1.904171e+02
   7.980084e+01  -1.183764e+02
   1.300349e+02  -1.460823e+01
   4.192891e+01   2.764745e+01
  -5.647447e+01  -2.668464e+01
  -2.652617e+01  -9.648054e+01
   9.166046e+01  -7.990718e+01
   1.355603e+02   7.675287e+00
   4.535631e+01   5.743914e+01
  -6.018337e+01   1.681066e+01
  -4.468214e+01  -5.204056e+01
   8.507780e+01  -6.595541e+01
   2.026034e+02  -5.339518e+00
   1.938552e+02   9.644056e+01
   4.951454e+01   1.848223e+02
  -1.308755e+02   1.942419e+02
  -2.091034e+02   9.530313e+01
  -1.276166e+02  -4.042932e+01
   1.967646e+01  -8.514404e+01
   7.205928e+01  -5.267469e+00
  -2.154231e+01   8.117751e+01
  -1.465483e+02   4.850564e+01
  -1.608986e+02  -7.728550e+01
  -5.198436e+01  -1.580127e+02
   7.128881e+01  -1.182393e+02
   1.081936e+02  -1.907317e+01
   5.329114e+01   3.380798e+01
  -2.032595e+01   3.763385e+00
  -2.938085e+01  -6.074224e+01
   4.951137e+01  -8.368952e+01
   1.442215e+02  -2.310690e+01
   1.428228e+02   8.944753e+01
   1.783749e+01   1.614593e+02
  -1.219298e+02   1.225562e+02
  -1.455541e+02   4.376355e+00
  -4.884770e+01  -8.693191e+01
   5.126638e+01  -8.478510e+01
   6.401974e+01  -2.291691e+01
   1.519663e+01   2.091398e+01
  -1.578334e+01   1.582795e+01
   6.143760e+00  -4.773293e+00
   5.066641e+01   5.046451e+00
   6.517286e+01   5.735829e+01
   1.407601e+01   1.149672e+02
  -9.004763e+01   1.147342e+02
  -1.720787e+02   2.321562e+01
  -1.506176e+02  -1.091302e+02
  -3.121950e+01  -1.763030e+02
   8.193756e+01  -1.266313e+02
   1.009403e+02  -1.838061e+01
   5.001529e+01   4.417561e+01
   1.917116e+01   2.832036e+01
   3.858086e+01  -9.579983e+00
   5.728250e+01  -5.964944e+00
   2.885342e+01   3.488729e+01
  -3.046094e+01   6.275359e+01
  -7.136163e+01   3.985028e+01
  -5.985060e+01  -2.435146e+01
   8.127394e+00  -7.867946e+01
   9.930106e+01  -6.302109e+01
   1.441174e+02   3.465022e+01
   7.787513e+01   1.456129e+02
  -7.418626e+01   1.687402e+02
  -1.963130e+02   7.350512e+01
  -1.909597e+02  -6.153848e+01
  -8.122705e+01  -1.308147e+02
   2.932725e+01  -1.097547e+02
   7.025749e+01  -6.205144e+01
   5.854624e+01  -4.991628e+01
   4.864917e+01  -6.551618e+01
   6.667882e+01  -5.433997e+01
   9.285263e+01   1.489839e+01
   8.629729e+01   1.109240e+02
   2.378217e+01   1.645393e+02
  -7.018244e+01   1.269463e+02
  -1.287653e+02   1.679859e+01
  -1.022411e+02  -8.870500e+01
  -1.593563e+01  -1.188105e+02
   4.963291e+01  -7.052576e+01
   4.623834e+01  -2.225068e+00
   5.972438e+00   3.144038e+01
  -6.418316e+00   2.641463e+01
   2.621540e+01   1.374610e+01
   5.705151e+01   1.566054e+01
   3.257463e+01   2.674952e+01
  -4.525955e+01   2.707420e+01
  -1.136488e+02   3.483154e+00
  -1.042237e+02  -3.655880e+01
  -1.187692e+01  -6.483046e+01
   8.787132e+01  -5.455932e+01
   1.066363e+02  -9.579468e+00
   3.566352e+01   3.022005e+01
  -4.435787e+01   2.730868e+01
  -5.559366e+01  -1.365438e+01
  -5.352929e+00  -4.857538e+01
   4.040576e+01  -4.093268e+01
   4.497370e+01   1.070933e+00
   3.135927e+01   3.446658e+01
   3.208625e+01   2.906392e+01
   4.544480e+01   1.902215e+00
   4.774183e+01   8.139429e-01
   2.479700e+01   4.861982e+01
  -2.285493e+01   1.050203e+02
  -8.177034e+01   1.033098e+02
  -1.172423e+02   2.586425e+01
  -9.017984e+01  -6.494857e+01
  -6.779237e+00  -9.128338e+01
   6.127877e+01  -4.419271e+01
   4.344992e+01   1.174564e+01
  -4.359493e+01   1.507221e+01
  -1.017371e+02  -3.185971e+01
  -5.684460e+01  -7.928899e+01
   5.863916e+01  -8.360690e+01
   1.403865e+02  -4.002374e+01
   1.202036e+02   2.328724e+01
   2.843251e+01   6.369112e+01
  -4.390455e+01   5.330396e+01
  -3.596619e+01   7.086657e+00
   2.738082e+01  -1.947156e+01
   6.516851e+01   1.552202e+01
   2.384922e+01   8.576516e+01
  -6.606906e+01   1.122365e+02
  -1.216967e+02   4.550224e+01
  -9.288213e+01  -7.334806e+01
  -8.405118e+00  -1.445394e+02
   6.238282e+01  -1.060881e+02
   7.795073e+01   4.085687e+00
   4.678636e+01   8.646836e+01
   2.016375e-01   7.946220e+01
  -3.399278e+01   1.668114e+01
  -3.985806e+01  -2.192047e+01
  -2.056111e+01  -6.396631e+00
  -3.411702e+00   1.508014e+01
  -1.513279e+01  -1.051858e+01
  -4.132195e+01  -6.443746e+01
  -3.188791e+01  -8.062826e+01
   3.336782e+01  -3.429014e+01
   1.010487e+02   2.740502e+01
   9.570465e+01   5.049125e+01
   1.353669e+01   3.553080e+01
  -6.388088e+01   1.664683e+01
  -6.432143e+01   6.737245e+00
  -7.711826e+00  -5.134052e+00
   2.837855e+01  -1.757519e+01
   1.053793e+01  -1.455401e+01
  -1.514808e+01   1.182142e+00
   4.870759e+00   7.721648e+00
   5.467780e+01   3.286466e+00
   6.653150e+01   1.677930e+01
   5.692631e+00   5.800229e+01
  -8.606360e+01   8.355692e+01
  -1.338854e+02   4.319503e+01
  -1.020381e+02  -4.892628e+01
  -1.884979e+01  -1.178662e+02
   5.644607e+01  -1.085156e+02
   8.219118e+01  -4.188998e+01
   5.857344e+01   1.557851e+01
   1.841081e+01   2.491342e+01
  -1.963295e+00   5.718819e+00
   7.621299e+00   3.067345e+00
   2.444452e+01   3.350964e+01
   1.680296e+01   6.546800e+01
  -2.147453e+01   5.190926e+01
  -5.936564e+01  -1.364822e+01
  -5.576945e+01  -7.893976e+01
  -2.275448e+00  -8.166540e+01
   6.040776e+01  -1.709749e+01
   7.461051e+01   5.524402e+01
   2.288832e+01   7.517517e+01
  -4.796938e+01   3.994615e+01
  -7.003877e+01  -8.768555e+00
  -2.764193e+01  -3.596957e+01
   2.346169e+01  -3.637665e+01
   2.137981e+01  -1.996368e+01
  -2.596766e+01  -6.705840e-02
  -5.042459e+01   4.290248e+00
  -1.007287e+01  -1.851907e+01
   5.788821e+01  -4.818060e+01
   8.322441e+01  -4.315269e+01
   4.550109e+01   7.941383e+00
  -1.101843e+01   5.964845e+01
  -3.669313e+01   5.756634e+01
  -2.524508e+01   4.562372e+00
  -1.006980e+00  -3.973584e+01
   1.768354e+01  -3.036242e+01
   2.575021e+01   1.332759e+01
   1.949690e+01   3.857735e+01
  -1.600010e+00   2.328908e+01
  -2.371506e+01  -6.089768e+00
  -2.870175e+01  -1.461931e+01
  -1.506772e+01  -6.255306e-01
   2.951131e-01   9.535953e+00
   5.368438e+00  -3.270744e+00
   6.022376e+00  -2.679938e+01
   1.346649e+01  -3.143300e+01
   2.373793e+01  -3.957582e+00
   2.075673e+01   3.372940e+01
  -3.028435e+00   4.406388e+01
  -3.284667e+01   1.385630e+01
  -4.025772e+01  -2.951734e+01
  -9.805443e+00  -4.607999e+01
   3.991373e+01  -2.423245e+01
   6.434196e+01   1.177009e+01
   3.567430e+01   3.175990e+01
  -2.074550e+01   2.850919e+01
  -4.671701e+01   1.441598e+01
  -1.671245e+01   3.466347e+00
   2.835994e+01   2.764986e+00
   2.800863e+01   1.288426e+01
  -2.309235e+01   2.336699e+01
  -6.760145e+01   1.396618e+01
