
 $NMID
 id='ANONYMOUS ', fmtdat='(2E16.6)'
 volume=1.0
 tramp=1.0
 $END
   3.646701e+03  -8.203592e+01
   2.170700e+03   2.289110e+03
  -6.989683e+02   2.311667e+03
  -1.811875e+03   7.860776e+02
  -7.342754e+02  -7.138177e+02
   6.351406e+02  -4.308824e+02
   7.395656e+02   3.891265e+02
  -2.315370e+01   9.861816e+02
  -7.923022e+02   6.502711e+02
  -7.974204e+02  -1.215222e+02
  -3.800901e+02  -7.212938e+02
   2.089599e+02  -7.138431e+02
   5.259589e+02  -1.154655e+02
   3.364655e+02   6.305273e+02
  -2.887774e+02   6.490508e+02
  -5.322308e+02  -3.269082e+01
  -2.134626e+02  -5.794632e+02
   3.172553e+02  -5.512004e+02
   4.904380e+02  -2.822065e+01
   3.044807e+02   3.176297e+02
   1.778494e+00   3.584168e+02
  -2.338313e+02   2.142475e+02
  -1.834360e+02   1.055818e+01
   8.019512e+01  -9.832279e+01
   3.450794e+02   9.485796e+01
   1.905865e+02   3.783960e+02
  -3.795666e+02   3.578501e+02
  -7.292260e+02  -5.111530e+01
  -3.707219e+02  -4.716948e+02
   3.628854e+02  -3.978972e+02
   6.553525e+02   5.456278e+01
   3.035003e+02   4.301068e+02
  -2.434078e+02   4.446805e+02
  -4.891188e+02   1.635037e+02
  -3.437462e+02  -2.023817e+02
  -4.531659e+01  -4.056796e+02
   1.876711e+02  -2.382723e+02
   1.564026e+02   2.010406e+02
  -1.473394e+02   3.879200e+02
  -4.035794e+02  -1.014259e+01
  -2.297258e+02  -5.750469e+02
   2.834325e+02  -6.113368e+02
   5.351498e+02   1.723133e+00
   2.294395e+02   5.016819e+02
  -2.725554e+02   2.960120e+02
  -3.624641e+02  -2.814909e+02
   4.580573e+01  -4.805152e+02
   4.772372e+02  -1.302114e+02
   5.144504e+02   3.470885e+02
   1.334731e+02   5.011225e+02
  -3.394089e+02   2.882718e+02
  -5.453713e+02  -7.331299e+01
  -3.133477e+02  -3.379341e+02
   1.490880e+02  -3.129529e+02
   3.888664e+02  -4.080557e+01
   1.970915e+02   1.732043e+02
  -1.203113e+02   8.584646e+01
  -1.320253e+02  -1.426096e+02
   1.448459e+02  -1.628663e+02
   3.009296e+02   6.969252e+01
   1.176910e+02   2.562730e+02
  -1.757797e+02   2.083998e+02
  -2.757119e+02   5.227411e+01
  -1.646009e+02  -6.431220e+01
   8.717940e+00  -1.729129e+02
   1.711102e+02  -2.714846e+02
   2.854453e+02  -1.923180e+02
   2.536391e+02   1.145983e+02
   5.810396e+01   3.760144e+02
  -1.199960e+02   3.215361e+02
  -1.107710e+02   7.639688e+01
  -5.911013e+00  -2.221171e+01
  -2.031477e+01   8.119312e+01
  -1.664795e+02   1.233534e+02
  -2.448912e+02  -4.410266e+01
  -1.328014e+02  -2.359298e+02
   7.129386e+01  -2.164881e+02
   1.974343e+02   1.193293e-01
   1.617847e+02   2.079233e+02
  -1.165042e+01   2.469614e+02
  -2.216845e+02   1.010091e+02
  -3.014526e+02  -1.365716e+02
  -1.576094e+02  -2.929282e+02
   8.539149e+01  -2.589942e+02
   1.954807e+02  -9.711215e+01
   1.255185e+02   8.371594e+00
   7.488630e+01  -2.188444e+01
   1.816421e+02  -5.733184e+01
   3.261706e+02   4.000389e+01
   2.764547e+02   2.308765e+02
   2.873769e+00   3.657565e+02
  -2.915204e+02   3.446917e+02
  -4.039797e+02   1.690184e+02
  -2.828514e+02  -8.026861e+01
  -4.714579e+01  -2.518585e+02
   1.155678e+02  -2.158468e+02
   7.796072e+01  -2.079328e+01
  -9.160517e+01   9.827588e+01
  -1.715739e+02  -5.145340e+00
  -4.321421e+01  -1.715690e+02
   1.441117e+02  -1.469985e+02
   1.577547e+02   5.817385e+01
  -1.761829e+01   1.701667e+02
  -1.686835e+02   2.989313e+01
  -1.350836e+02  -2.057766e+02
   2.745749e+01  -2.857335e+02
   1.844379e+02  -1.550542e+02
   2.596357e+02   4.764860e+01
   2.276885e+02   1.874553e+02
   8.563022e+01   2.135430e+02
  -8.794838e+01   1.354675e+02
  -1.490795e+02   1.964619e+01
  -5.072428e+01  -2.980154e+01
   6.156296e+01   2.974424e+01
   2.915878e+01   1.067432e+02
  -1.031319e+02   8.787945e+01
  -1.523642e+02  -9.574827e+00
  -5.132880e+01  -6.423712e+01
   6.622940e+01  -1.886007e+01
   4.896168e+01   5.683849e+01
  -9.463844e+01   7.108829e+01
  -2.240839e+02   3.679744e+00
  -2.143992e+02  -1.080378e+02
  -5.443131e+01  -2.050531e+02
   1.465858e+02  -2.152340e+02
   2.346527e+02  -1.055280e+02
   1.434011e+02   4.535136e+01
  -2.269075e+01   9.538234e+01
  -8.244911e+01   6.692501e+00
   2.283569e+01  -9.006382e+01
   1.642308e+02  -5.468436e+01
   1.812338e+02   8.504757e+01
   5.929552e+01   1.759987e+02
  -7.982955e+01   1.332698e+02
  -1.224694e+02   2.291033e+01
  -6.156511e+01  -3.775447e+01
   2.196565e+01  -6.361951e+00
   3.397133e+01   6.556226e+01
  -5.352048e+01   9.271180e+01
  -1.601071e+02   2.603414e+01
  -1.590727e+02  -9.971791e+01
  -1.897212e+01  -1.803120e+02
   1.374087e+02  -1.361458e+02
   1.630467e+02  -3.288488e+00
   5.376463e+01   9.884660e+01
  -5.849677e+01   9.491066e+01
  -7.268514e+01   2.481268e+01
  -1.784264e+01  -2.444858e+01
   1.695161e+01  -1.876938e+01
  -6.597097e+00   4.777100e+00
  -5.492113e+01  -6.224223e+00
  -7.117907e+01  -6.435072e+01
  -1.498292e+01  -1.275952e+02
   9.960280e+01  -1.261214e+02
   1.908048e+02  -2.407918e+01
   1.675155e+02   1.223940e+02
   3.464176e+01   1.964989e+02
  -9.158541e+01   1.399386e+02
  -1.130865e+02   1.943896e+01
  -5.637517e+01  -5.006457e+01
  -2.080067e+01  -3.152003e+01
  -4.180470e+01   1.057945e+01
  -6.277051e+01   6.779788e+00
  -3.166224e+01  -3.841209e+01
   3.360879e+01  -6.925361e+01
   7.891156e+01  -4.378959e+01
   6.565459e+01   2.710613e+01
  -9.359800e+00   8.707606e+01
  -1.102847e+02   6.997422e+01
  -1.601360e+02  -3.923168e+01
  -8.584511e+01  -1.621010e+02
   8.419550e+01  -1.879948e+02
   2.195113e+02  -8.094507e+01
   2.125465e+02   7.006638e+01
   8.962465e+01   1.461716e+02
  -3.395951e+01   1.220793e+02
  -7.872162e+01   6.831988e+01
  -6.544789e+01   5.505642e+01
  -5.521016e+01   7.228149e+01
  -7.481428e+01   5.905293e+01
  -1.026689e+02  -1.832811e+01
  -9.427075e+01  -1.249304e+02
  -2.461017e+01  -1.832196e+02
   7.922448e+01  -1.400221e+02
   1.435041e+02  -1.749488e+01
   1.135167e+02   9.865825e+01
   1.778997e+01   1.309597e+02
  -5.446357e+01   7.754345e+01
  -5.022963e+01   3.104756e+00
  -5.876134e+00  -3.329066e+01
   7.009832e+00  -2.797368e+01
  -2.965396e+01  -1.501073e+01
  -6.344554e+01  -1.806614e+01
  -3.599846e+01  -3.036222e+01
   5.023311e+01  -3.017193e+01
   1.261894e+02  -3.377951e+00
   1.161658e+02   4.111672e+01
   1.402687e+01   7.234958e+01
  -9.715606e+01   6.074752e+01
  -1.186880e+02   1.091774e+01
  -4.004422e+01  -3.303995e+01
   4.874892e+01  -2.979533e+01
   6.063862e+01   1.498497e+01
   4.333884e+00   5.291912e+01
  -4.574121e+01   4.372285e+01
  -4.894517e+01  -2.890155e+00
  -3.236548e+01  -3.935025e+01
  -3.404486e+01  -3.288215e+01
  -5.012873e+01  -2.300193e+00
  -5.303889e+01  -5.191854e-01
  -2.647118e+01  -5.306132e+01
   2.697483e+01  -1.155600e+02
   9.133207e+01  -1.134086e+02
   1.294423e+02  -2.748452e+01
   9.873219e+01   7.283602e+01
   6.969985e+00   1.010760e+02
  -6.796292e+01   4.810667e+01
  -4.802595e+01  -1.356981e+01
   4.822517e+01  -1.621713e+01
   1.125023e+02   3.634884e+01
   6.278238e+01   8.818003e+01
  -6.533215e+01   9.210079e+01
  -1.558671e+02   4.351860e+01
  -1.333116e+02  -2.614110e+01
  -3.137830e+01  -7.057992e+01
   4.875482e+01  -5.894273e+01
   3.979110e+01  -8.035567e+00
  -3.034674e+01   2.095520e+01
  -7.164044e+01  -1.783136e+01
  -2.523016e+01  -9.502209e+01
   7.454614e+01  -1.234062e+02
   1.351180e+02  -4.910051e+01
   1.018208e+02   8.187232e+01
   7.887097e+00   1.597875e+02
  -6.943198e+01   1.167691e+02
  -8.525468e+01  -4.862594e+00
  -5.042532e+01  -9.548054e+01
   6.959559e-02  -8.735228e+01
   3.691811e+01  -1.760105e+01
   4.337833e+01   2.502093e+01
   2.256383e+01   6.982772e+00
   3.675302e+00  -1.760097e+01
   1.630644e+01   1.095622e+01
   4.538258e+01   7.176106e+01
   3.554465e+01   9.010916e+01
  -3.646681e+01   3.780802e+01
  -1.119135e+02  -3.194884e+01
  -1.060870e+02  -5.744586e+01
  -1.447740e+01  -3.928119e+01
   7.178037e+01  -1.694545e+01
   7.175024e+01  -6.499237e+00
   7.969660e+00   5.027221e+00
  -3.193748e+01   1.813469e+01
  -1.099180e+01   1.589623e+01
   1.806364e+01  -5.056597e-01
  -4.956054e+00  -7.967495e+00
  -6.088279e+01  -4.329760e+00
  -7.334325e+01  -1.962200e+01
  -4.711326e+00  -6.413651e+01
   9.701980e+01  -9.096726e+01
   1.486113e+02  -4.581472e+01
   1.118562e+02   5.545629e+01
   1.964771e+01   1.307707e+02
  -6.310980e+01   1.196952e+02
  -9.121164e+01   4.565274e+01
  -6.479249e+01  -1.797409e+01
  -1.986191e+01  -2.772811e+01
   2.945553e+00  -5.626796e+00
  -8.011114e+00  -2.352357e+00
  -2.731555e+01  -3.670514e+01
  -1.887740e+01  -7.274993e+01
   2.378524e+01  -5.750973e+01
   6.561006e+01   1.583584e+01
   6.093874e+01   8.814230e+01
   1.564869e+00   8.998542e+01
  -6.703901e+01   1.754925e+01
  -8.175637e+01  -6.213190e+01
  -2.433041e+01  -8.292166e+01
   5.346809e+01  -4.311942e+01
   7.739517e+01   1.018717e+01
   3.057308e+01   3.931096e+01
  -2.565969e+01   3.977330e+01
  -2.331678e+01   2.248611e+01
   2.900580e+01   1.196517e+00
   5.600384e+01  -3.836471e+00
   1.102862e+01   2.063048e+01
  -6.464946e+01   5.314458e+01
  -9.265443e+01   4.767821e+01
  -5.027318e+01  -8.638468e+00
   1.278596e+01  -6.576760e+01
   4.073742e+01  -6.301941e+01
   2.713406e+01  -4.317215e+00
  -2.290258e-01   4.400459e+01
  -2.016008e+01   3.263020e+01
  -2.798967e+01  -1.597319e+01
  -2.063360e+01  -4.293545e+01
   2.371197e+00  -2.498855e+01
   2.619467e+01   7.213958e+00
   3.170111e+01   1.608353e+01
   1.682514e+01   3.649455e-01
  -1.645402e-01  -1.021187e+01
  -5.942415e+00   4.319593e+00
  -6.960115e+00   2.978600e+01
  -1.544507e+01   3.432222e+01
  -2.649129e+01   3.740701e+00
  -2.246502e+01  -3.764860e+01
   4.242810e+00  -4.898894e+01
   3.697881e+01  -1.520343e+01
   4.457454e+01   3.325237e+01
   1.035775e+01   5.166745e+01
  -4.453353e+01   2.686371e+01
  -7.100935e+01  -1.343106e+01
  -3.891070e+01  -3.556783e+01
   2.341294e+01  -3.145498e+01
   5.176099e+01  -1.561889e+01
   1.822607e+01  -3.633858e+00
  -3.158381e+01  -3.289646e+00
  -3.071093e+01  -1.455982e+01
   2.638508e+01  -2.589215e+01
   7.560195e+01  -1.497716e+01
