
 $NMID
 id='ANONYMOUS ', fmtdat='(2E16.6)'
 volume=1.0
 tramp=1.0
 $END
  -2.457859e+03   1.401478e+02
  -1.428351e+03  -1.518772e+03
   4.908611e+02  -1.642947e+03
   1.043030e+03  -5.563503e+02
   5.409350e+02   3.987556e+02
  -4.111354e+02   2.917263e+02
  -5.550270e+02  -2.433436e+02
   6.698331e+01  -6.113136e+02
   5.473378e+02  -4.804242e+02
   5.132514e+02   3.545509e+01
   2.619387e+02   4.600645e+02
  -1.060152e+02   4.564278e+02
  -3.708756e+02   9.437221e+01
  -2.204383e+02  -3.898961e+02
   1.604008e+02  -4.079126e+02
   3.235196e+02   7.136452e+00
   1.696906e+02   4.036422e+02
  -1.909174e+02   3.500603e+02
  -3.556616e+02   4.138973e+01
  -2.200181e+02  -2.135178e+02
  -5.474282e+00  -2.429722e+02
   1.385829e+02  -1.107807e+02
   1.219307e+02   1.501543e+01
  -6.883471e+01   3.809583e+01
  -2.314822e+02  -5.105199e+01
  -1.178853e+02  -2.338828e+02
   2.274877e+02  -2.302352e+02
   4.649872e+02   2.557593e+01
   2.375303e+02   2.924652e+02
  -1.880957e+02   2.659949e+02
  -3.933343e+02  -1.801177e+01
  -1.786983e+02  -2.667885e+02
   1.485020e+02  -2.755837e+02
   2.906482e+02  -1.070713e+02
   2.295561e+02   1.297600e+02
   3.530282e+01   2.436845e+02
  -1.042546e+02   1.349695e+02
  -9.687328e+01  -1.386081e+02
   1.056250e+02  -2.441347e+02
   2.610003e+02   1.104302e+01
   1.365414e+02   3.815125e+02
  -1.842712e+02   3.898809e+02
  -3.482298e+02   1.331103e+00
  -1.407617e+02  -3.066103e+02
   1.791023e+02  -1.830460e+02
   2.245925e+02   1.671908e+02
  -3.444111e+01   2.985271e+02
  -3.084951e+02   7.869684e+01
  -3.236980e+02  -2.132831e+02
  -7.890907e+01  -3.129698e+02
   2.169904e+02  -1.792511e+02
   3.395751e+02   4.964604e+01
   1.937036e+02   2.137266e+02
  -9.693283e+01   1.961233e+02
  -2.488461e+02   2.350809e+01
  -1.293596e+02  -1.149070e+02
   7.222786e+01  -6.148572e+01
   8.344061e+01   8.931442e+01
  -9.087769e+01   1.108462e+02
  -1.929934e+02  -3.830558e+01
  -7.886332e+01  -1.703952e+02
   1.090340e+02  -1.476754e+02
   1.731143e+02  -3.696629e+01
   9.888587e+01   5.264861e+01
  -1.250552e+01   1.203510e+02
  -1.076668e+02   1.689101e+02
  -1.721917e+02   1.149209e+02
  -1.586771e+02  -6.751787e+01
  -5.248215e+01  -2.240885e+02
   5.266890e+01  -1.976212e+02
   5.760573e+01  -5.651638e+01
   5.019006e+00   3.744157e+00
   1.555875e+01  -5.487846e+01
   1.027054e+02  -7.907027e+01
   1.546644e+02   2.238004e+01
   9.210585e+01   1.430904e+02
  -3.619001e+01   1.382005e+02
  -1.227220e+02   7.638937e+00
  -1.065987e+02  -1.235596e+02
   4.847974e+00  -1.509326e+02
   1.434809e+02  -5.919994e+01
   1.921085e+02   8.630134e+01
   9.656079e+01   1.836123e+02
  -5.723354e+01   1.614326e+02
  -1.238355e+02   6.325249e+01
  -7.623883e+01   1.688425e+00
  -4.269445e+01   1.771445e+01
  -1.147156e+02   3.727111e+01
  -2.072513e+02  -2.145908e+01
  -1.787028e+02  -1.429032e+02
  -6.395537e+00  -2.298540e+02
   1.840810e+02  -2.202694e+02
   2.561855e+02  -1.076037e+02
   1.798536e+02   4.950320e+01
   2.979846e+01   1.589396e+02
  -7.162402e+01   1.337644e+02
  -4.611248e+01   1.128080e+01
   5.849483e+01  -6.160358e+01
   1.085567e+02   2.162452e+00
   2.795724e+01   1.089349e+02
  -8.942215e+01   9.443591e+01
  -9.937765e+01  -3.318053e+01
   1.036073e+01  -1.064875e+02
   1.069380e+02  -1.886430e+01
   8.846152e+01   1.310455e+02
  -1.636574e+01   1.822803e+02
  -1.180928e+02   1.000609e+02
  -1.653073e+02  -2.943900e+01
  -1.438839e+02  -1.169213e+02
  -5.402636e+01  -1.323925e+02
   5.579328e+01  -8.515571e+01
   9.413684e+01  -1.368638e+01
   3.224014e+01   1.845549e+01
  -4.020075e+01  -1.613873e+01
  -2.116289e+01  -6.451976e+01
   6.292837e+01  -5.537331e+01
   9.531450e+01   3.252323e+00
   3.153619e+01   3.744601e+01
  -4.335299e+01   9.472386e+00
  -3.092249e+01  -3.837378e+01
   6.304342e+01  -4.752290e+01
   1.461032e+02  -3.674452e+00
   1.374572e+02   6.916601e+01
   3.375634e+01   1.314883e+02
  -9.316076e+01   1.374051e+02
  -1.471507e+02   6.687535e+01
  -8.947779e+01  -2.926611e+01
   1.402218e+01  -6.128207e+01
   5.149647e+01  -5.640827e+00
  -1.355042e+01   5.564859e+01
  -1.013188e+02   3.494084e+01
  -1.123327e+02  -5.094427e+01
  -3.697857e+01  -1.077551e+02
   4.874792e+01  -8.254261e+01
   7.431283e+01  -1.555859e+01
   3.625065e+01   2.148219e+01
  -1.440598e+01   2.229776e+00
  -2.019124e+01  -4.229737e+01
   3.500434e+01  -5.928597e+01
   1.014011e+02  -1.728172e+01
   1.009916e+02   6.281224e+01
   1.369133e+01   1.146797e+02
  -8.546104e+01   8.747954e+01
  -1.038491e+02   3.281389e+00
  -3.631296e+01  -6.192777e+01
   3.479656e+01  -6.033343e+01
   4.460291e+01  -1.596048e+01
   1.024206e+01   1.477362e+01
  -1.172708e+01   1.042775e+01
   4.061456e+00  -4.820909e+00
   3.633713e+01   2.145986e+00
   4.671239e+01   3.960961e+01
   1.041383e+01   8.108332e+01
  -6.328112e+01   8.061504e+01
  -1.210843e+02   1.667670e+01
  -1.059703e+02  -7.584150e+01
  -2.225835e+01  -1.232042e+02
   5.777001e+01  -8.933083e+01
   7.084922e+01  -1.385743e+01
   3.487477e+01   2.991382e+01
   1.254491e+01   1.949069e+01
   2.616012e+01  -6.565647e+00
   4.092016e+01  -5.078767e+00
   2.093470e+01   2.355991e+01
  -2.149401e+01   4.350058e+01
  -5.168975e+01   2.829842e+01
  -4.304870e+01  -1.742887e+01
   5.677930e+00  -5.590381e+01
   7.123506e+01  -4.465636e+01
   1.016998e+02   2.416145e+01
   5.366442e+01   1.028937e+02
  -5.297724e+01   1.188650e+02
  -1.381430e+02   5.169936e+01
  -1.344136e+02  -4.313289e+01
  -5.703279e+01  -9.160240e+01
   2.018163e+01  -7.652171e+01
   4.873443e+01  -4.330145e+01
   3.997639e+01  -3.544534e+01
   3.370542e+01  -4.641818e+01
   4.693263e+01  -3.817407e+01
   6.511861e+01   1.016379e+01
   6.042242e+01   7.766567e+01
   1.662022e+01   1.154361e+02
  -4.930444e+01   8.906924e+01
  -9.043673e+01   1.153204e+01
  -7.153361e+01  -6.283518e+01
  -1.052758e+01  -8.347257e+01
   3.574948e+01  -4.831049e+01
   3.271003e+01   4.588696e-01
   3.723821e+00   2.336555e+01
  -5.114492e+00   1.839822e+01
   1.821867e+01   9.141652e+00
   4.023950e+01   1.116433e+01
   2.332773e+01   1.948463e+01
  -3.136991e+01   1.954495e+01
  -7.975895e+01   2.928728e+00
  -7.357123e+01  -2.454465e+01
  -9.057204e+00  -4.445186e+01
   6.102930e+01  -3.857669e+01
   7.448576e+01  -8.437351e+00
   2.510898e+01   1.961310e+01
  -3.045045e+01   1.877776e+01
  -3.777433e+01  -9.207653e+00
  -2.520932e+00  -3.400752e+01
   2.910844e+01  -2.876409e+01
   3.198731e+01   1.343285e+00
   2.263293e+01   2.550762e+01
   2.334949e+01   2.159087e+01
   3.201433e+01   1.514357e+00
   3.272417e+01   5.022476e-01
   1.670449e+01   3.439071e+01
  -1.594716e+01   7.464680e+01
  -5.684860e+01   7.325735e+01
  -8.248659e+01   1.812041e+01
  -6.436526e+01  -4.605872e+01
  -5.625282e+00  -6.466737e+01
   4.312281e+01  -3.165667e+01
   3.127048e+01   8.044095e+00
  -2.970095e+01   1.078995e+01
  -7.078570e+01  -2.177146e+01
  -3.967510e+01  -5.465700e+01
   4.068350e+01  -5.788488e+01
   9.756699e+01  -2.781721e+01
   8.339965e+01   1.619924e+01
   1.959355e+01   4.449628e+01
  -3.079805e+01   3.732893e+01
  -2.547086e+01   4.836145e+00
   1.891523e+01  -1.415183e+01
   4.567772e+01   1.027862e+01
   1.719615e+01   5.976959e+01
  -4.589498e+01   7.889549e+01
  -8.504522e+01   3.212268e+01
  -6.488193e+01  -5.154348e+01
  -5.678126e+00  -1.013385e+02
   4.380125e+01  -7.394501e+01
   5.432002e+01   3.605177e+00
   3.227473e+01   6.098651e+01
  -2.609443e-01   5.535887e+01
  -2.397369e+01   1.097690e+01
  -2.772158e+01  -1.583010e+01
  -1.404793e+01  -4.511656e+00
  -2.221832e+00   1.066870e+01
  -1.076085e+01  -7.394022e+00
  -2.924667e+01  -4.526639e+01
  -2.235115e+01  -5.665419e+01
   2.395632e+01  -2.428424e+01
   7.166213e+01   1.897269e+01
   6.758232e+01   3.559047e+01
   9.558653e+00   2.562433e+01
  -4.504167e+01   1.237579e+01
  -4.531839e+01   4.988888e+00
  -5.208052e+00  -3.744188e+00
   2.034847e+01  -1.212819e+01
   7.330682e+00  -9.431725e+00
  -1.153288e+01   1.539607e+00
   2.256119e+00   5.086635e+00
   3.802658e+01   1.244340e+00
   4.742650e+01   1.103669e+01
   4.842446e+00   4.085966e+01
  -6.023613e+01   5.937885e+01
  -9.428078e+01   3.071727e+01
  -7.178090e+01  -3.429110e+01
  -1.324088e+01  -8.265948e+01
   3.930500e+01  -7.598692e+01
   5.725480e+01  -2.955936e+01
   4.108671e+01   1.056911e+01
   1.329617e+01   1.730811e+01
  -1.174409e+00   4.385629e+00
   4.974667e+00   2.730801e+00
   1.657437e+01   2.371451e+01
   1.154265e+01   4.555055e+01
  -1.498824e+01   3.590210e+01
  -4.165865e+01  -9.879170e+00
  -3.954844e+01  -5.552969e+01
  -1.861994e+00  -5.754946e+01
   4.275578e+01  -1.239476e+01
   5.327514e+01   3.844965e+01
   1.693145e+01   5.294883e+01
  -3.346756e+01   2.860061e+01
  -4.960881e+01  -5.392521e+00
  -2.004680e+01  -2.469225e+01
   1.600539e+01  -2.550379e+01
   1.477786e+01  -1.434775e+01
  -1.825499e+01  -4.715595e-01
  -3.538951e+01   2.784364e+00
  -6.957952e+00  -1.292820e+01
   4.069647e+01  -3.374676e+01
   5.825769e+01  -3.041764e+01
   3.178830e+01   5.267108e+00
  -7.639750e+00   4.173769e+01
  -2.553006e+01   4.028692e+01
  -1.785040e+01   3.352734e+00
  -1.063451e+00  -2.788923e+01
   1.228709e+01  -2.137272e+01
   1.839012e+01   9.004714e+00
   1.410005e+01   2.675217e+01
  -9.358270e-01   1.639144e+01
  -1.693781e+01  -3.803786e+00
  -2.052787e+01  -9.684387e+00
  -1.056705e+01  -2.245936e-01
   2.851982e-01   6.533229e+00
   3.474802e+00  -2.477364e+00
   3.821202e+00  -1.885671e+01
   9.061261e+00  -2.204306e+01
   1.659853e+01  -2.890801e+00
   1.470347e+01   2.345310e+01
  -1.929208e+00   3.081538e+01
  -2.286406e+01   9.922795e+00
  -2.830723e+01  -2.027289e+01
  -7.185109e+00  -3.195954e+01
   2.751802e+01  -1.710053e+01
   4.475132e+01   7.629841e+00
   2.498086e+01   2.173100e+01
  -1.424694e+01   1.997588e+01
  -3.227692e+01   1.050071e+01
  -1.141843e+01   2.790828e+00
   1.995653e+01   1.915590e+00
   1.964980e+01   8.974932e+00
  -1.597193e+01   1.668514e+01
  -4.704144e+01   1.036015e+01
