
 $NMID
 id='ANONYMOUS ', fmtdat='(2E16.6)'
 volume=1.0
 tramp=1.0
 $END
  -4.448890e+03   5.661657e+01
  -2.609287e+03  -2.681415e+03
   7.836377e+02  -2.895010e+03
   2.319419e+03  -8.426778e+02
   8.339657e+02   8.214587e+02
  -7.844802e+02   5.545473e+02
  -9.584829e+02  -5.544517e+02
   9.084335e+01  -1.097954e+03
   8.959798e+02  -7.921951e+02
   9.321395e+02   1.474624e+02
   4.511285e+02   9.077516e+02
  -3.502765e+02   8.756947e+02
  -6.935828e+02   7.561114e+01
  -4.117013e+02  -8.161918e+02
   3.281021e+02  -8.036062e+02
   6.997538e+02   8.016614e+01
   2.220930e+02   7.448530e+02
  -4.241822e+02   6.187537e+02
  -6.059135e+02   1.082294e+00
  -3.498506e+02  -3.954152e+02
   2.526091e+01  -4.547029e+02
   2.722405e+02  -2.471202e+02
   2.642284e+02   5.089263e+00
  -1.050631e+02   1.259614e+02
  -4.437543e+02  -1.054046e+02
  -2.362063e+02  -4.621108e+02
   4.823421e+02  -4.350418e+02
   9.102111e+02   1.016228e+02
   4.331861e+02   6.146749e+02
  -4.309193e+02   5.241869e+02
  -7.951604e+02  -5.160330e+01
  -3.576712e+02  -5.345346e+02
   3.142020e+02  -5.468256e+02
   6.075061e+02  -2.015043e+02
   4.253375e+02   2.461021e+02
   4.598035e+01   4.989194e+02
  -2.300093e+02   2.919463e+02
  -1.843761e+02  -2.458342e+02
   1.798195e+02  -4.738708e+02
   4.824386e+02   1.506428e+01
   2.665544e+02   7.180779e+02
  -3.319410e+02   7.400510e+02
  -6.464879e+02  -3.803057e+00
  -2.773584e+02  -5.987194e+02
   3.176533e+02  -3.468940e+02
   4.276928e+02   3.464057e+02
  -5.877158e+01   5.854825e+02
  -5.805309e+02   1.513403e+02
  -6.223057e+02  -4.239155e+02
  -1.687850e+02  -6.059274e+02
   4.074650e+02  -3.532065e+02
   6.597091e+02   8.935851e+01
   3.764561e+02   4.197452e+02
  -1.838564e+02   3.903240e+02
  -4.756021e+02   5.054668e+01
  -2.469187e+02  -2.212758e+02
   1.330062e+02  -1.173785e+02
   1.491545e+02   1.684983e+02
  -1.761489e+02   1.978684e+02
  -3.542000e+02  -8.598756e+01
  -1.329458e+02  -3.128929e+02
   2.099591e+02  -2.500397e+02
   3.189422e+02  -5.723122e+01
   1.823078e+02   8.112172e+01
  -2.223897e+01   2.071549e+02
  -2.134999e+02   3.235196e+02
  -3.504501e+02   2.250714e+02
  -3.125725e+02  -1.501091e+02
  -7.322328e+01  -4.674774e+02
   1.505201e+02  -3.951863e+02
   1.453777e+02  -8.890446e+01
   1.231623e+01   3.652921e+01
   1.711911e+01  -9.402288e+01
   1.922670e+02  -1.564343e+02
   3.008256e+02   4.378580e+01
   1.765333e+02   2.894205e+02
  -7.620887e+01   2.804430e+02
  -2.458527e+02   1.426665e+01
  -2.100324e+02  -2.549419e+02
   1.360311e+01  -3.083961e+02
   2.762883e+02  -1.187078e+02
   3.669515e+02   1.778470e+02
   1.830528e+02   3.635262e+02
  -1.094360e+02   3.118522e+02
  -2.358186e+02   1.124910e+02
  -1.536088e+02  -7.537044e+00
  -9.694132e+01   2.616199e+01
  -2.287987e+02   6.446050e+01
  -3.933109e+02  -5.509648e+01
  -3.259593e+02  -2.826744e+02
   2.839597e+00  -4.414811e+02
   3.583212e+02  -4.143653e+02
   4.940265e+02  -2.001519e+02
   3.483565e+02   1.002421e+02
   5.484966e+01   3.103304e+02
  -1.496585e+02   2.636137e+02
  -1.005439e+02   2.167923e+01
   1.126551e+02  -1.246412e+02
   2.127474e+02   4.145543e+00
   5.507627e+01   2.119243e+02
  -1.753617e+02   1.832104e+02
  -1.933184e+02  -6.758919e+01
   1.775986e+01  -2.052379e+02
   1.993515e+02  -3.453327e+01
   1.597892e+02   2.530866e+02
  -3.764171e+01   3.481842e+02
  -2.272203e+02   1.856302e+02
  -3.176016e+02  -6.647336e+01
  -2.767948e+02  -2.371312e+02
  -1.003961e+02  -2.643236e+02
   1.130798e+02  -1.634397e+02
   1.857663e+02  -1.984397e+01
   6.388373e+01   3.820783e+01
  -7.392930e+01  -3.585193e+01
  -3.545229e+01  -1.300379e+02
   1.257457e+02  -1.066065e+02
   1.875264e+02   1.202339e+01
   6.648591e+01   7.867043e+01
  -7.726854e+01   2.501602e+01
  -5.851979e+01  -6.556305e+01
   1.153035e+02  -8.269096e+01
   2.742615e+02  -8.416283e-01
   2.621283e+02   1.364073e+02
   6.387595e+01   2.555833e+02
  -1.849934e+02   2.662762e+02
  -2.926631e+02   1.284540e+02
  -1.788632e+02  -5.853515e+01
   2.556398e+01  -1.197286e+02
   9.832045e+01  -1.122736e+01
  -2.922552e+01   1.062670e+02
  -1.985806e+02   6.333182e+01
  -2.164344e+02  -1.051222e+02
  -6.819818e+01  -2.147413e+02
   9.842174e+01  -1.631296e+02
   1.492288e+02  -2.937893e+01
   7.631277e+01   4.657275e+01
  -2.447003e+01   1.127390e+01
  -4.004460e+01  -7.603308e+01
   6.473233e+01  -1.115776e+02
   1.937113e+02  -3.233165e+01
   1.927826e+02   1.219946e+02
   2.231477e+01   2.217396e+02
  -1.690064e+02   1.674547e+02
  -2.009539e+02   3.715997e+00
  -6.909470e+01  -1.213201e+02
   6.806386e+01  -1.172186e+02
   8.851667e+01  -3.306405e+01
   2.529018e+01   2.688333e+01
  -1.695389e+01   2.281553e+01
   7.791471e+00  -1.734417e+00
   6.337148e+01   1.097431e+01
   8.239405e+01   7.728687e+01
   1.626297e+01   1.513801e+02
  -1.215297e+02   1.511355e+02
  -2.314343e+02   2.960667e+01
  -2.021746e+02  -1.486232e+02
  -4.056245e+01  -2.401270e+02
   1.133771e+02  -1.724221e+02
   1.385441e+02  -2.485922e+01
   6.983397e+01   6.036211e+01
   2.760689e+01   3.987460e+01
   5.196977e+01  -9.850959e+00
   7.518767e+01  -5.890878e+00
   3.662815e+01   4.606060e+01
  -4.120720e+01   8.088697e+01
  -9.418964e+01   5.157041e+01
  -7.837745e+01  -3.105011e+01
   1.159249e+01  -1.029674e+02
   1.336750e+02  -8.346282e+01
   1.933959e+02   4.716474e+01
   1.038469e+02   1.981735e+02
  -1.018982e+02   2.292260e+02
  -2.671610e+02   9.819877e+01
  -2.604810e+02  -8.703753e+01
  -1.114408e+02  -1.802736e+02
   4.026631e+01  -1.507027e+02
   9.839015e+01  -8.517706e+01
   8.500249e+01  -6.726683e+01
   7.132129e+01  -8.626650e+01
   9.301667e+01  -6.934660e+01
   1.252605e+02   2.454465e+01
   1.138467e+02   1.539596e+02
   2.786178e+01   2.250336e+02
  -9.918907e+01   1.722081e+02
  -1.763227e+02   2.198027e+01
  -1.380160e+02  -1.205562e+02
  -2.133462e+01  -1.605789e+02
   6.553948e+01  -9.632862e+01
   6.054054e+01  -5.837509e+00
   8.644578e+00   3.999905e+01
  -5.809625e+00   3.626692e+01
   3.695001e+01   2.192544e+01
   7.572111e+01   2.421485e+01
   4.235313e+01   3.660756e+01
  -6.058018e+01   3.534186e+01
  -1.520798e+02   3.827935e+00
  -1.412250e+02  -4.901693e+01
  -1.843879e+01  -8.665227e+01
   1.167405e+02  -7.263266e+01
   1.438731e+02  -1.258071e+01
   4.856758e+01   4.011269e+01
  -5.986168e+01   3.502450e+01
  -7.431317e+01  -2.028555e+01
  -4.608471e+00  -6.599534e+01
   5.691607e+01  -5.376529e+01
   5.997763e+01   4.089848e+00
   3.909364e+01   4.904000e+01
   4.134290e+01   4.045105e+01
   6.234374e+01   2.724604e+00
   6.582526e+01   1.231009e+00
   3.181371e+01   6.588780e+01
  -3.537109e+01   1.413304e+02
  -1.139474e+02   1.368182e+02
  -1.583643e+02   3.096374e+01
  -1.190791e+02  -9.023251e+01
  -6.389683e+00  -1.229560e+02
   8.426397e+01  -5.791757e+01
   5.894108e+01   1.651700e+01
  -5.878425e+01   1.897524e+01
  -1.369679e+02  -4.509795e+01
  -7.571034e+01  -1.076188e+02
   8.049900e+01  -1.116679e+02
   1.909394e+02  -5.152896e+01
   1.629829e+02   3.393669e+01
   3.805399e+01   8.737861e+01
  -5.997329e+01   7.159117e+01
  -4.832361e+01   9.125600e+00
   3.793828e+01  -2.445361e+01
   8.720348e+01   2.511515e+01
   2.789423e+01   1.190102e+02
  -9.572568e+01   1.504171e+02
  -1.685195e+02   5.639883e+01
  -1.241777e+02  -1.040421e+02
  -6.939109e+00  -1.973409e+02
   8.726598e+01  -1.433102e+02
   1.048475e+02   5.832730e+00
   6.152073e+01   1.168492e+02
   1.353963e-01   1.072983e+02
  -4.460714e+01   2.193668e+01
  -5.313927e+01  -3.092980e+01
  -2.767747e+01  -9.428915e+00
  -3.573153e+00   2.094043e+01
  -1.800243e+01  -1.327710e+01
  -5.384100e+01  -8.757616e+01
  -4.315520e+01  -1.100839e+02
   4.417641e+01  -4.551794e+01
   1.366807e+02   4.100588e+01
   1.300227e+02   7.227333e+01
   1.761187e+01   4.871214e+01
  -8.877191e+01   1.997330e+01
  -8.879330e+01   6.893564e+00
  -1.004106e+01  -6.433262e+00
   3.929164e+01  -2.207164e+01
   1.366085e+01  -1.954600e+01
  -2.206532e+01   2.641823e-01
   6.437694e+00   9.997381e+00
   7.527534e+01   6.452364e+00
   8.983618e+01   2.549935e+01
   4.070504e+00   7.888858e+01
  -1.213650e+02   1.097266e+02
  -1.832932e+02   5.305682e+01
  -1.358618e+02  -7.043127e+01
  -2.124546e+01  -1.607019e+02
   7.977666e+01  -1.453010e+02
   1.129157e+02  -5.414095e+01
   7.931270e+01   2.318789e+01
   2.357431e+01   3.458853e+01
  -4.676719e+00   7.195277e+00
   8.891041e+00   2.920393e+00
   3.281186e+01   4.479774e+01
   2.262728e+01   8.905464e+01
  -2.973697e+01   7.039727e+01
  -8.057216e+01  -2.028239e+01
  -7.373183e+01  -1.097931e+02
  -6.523810e-02  -1.115512e+02
   8.332152e+01  -2.037352e+01
   9.935392e+01   7.882234e+01
   2.760751e+01   1.031387e+02
  -6.710522e+01   5.160549e+01
  -9.465171e+01  -1.492392e+01
  -3.603459e+01  -4.939213e+01
   3.262870e+01  -4.830903e+01
   2.901741e+01  -2.710442e+01
  -3.542499e+01  -1.893249e+00
  -6.828751e+01   4.329728e+00
  -1.281415e+01  -2.446476e+01
   7.998861e+01  -6.325145e+01
   1.138547e+02  -5.678959e+01
   6.083952e+01   1.126169e+01
  -1.765201e+01   8.053660e+01
  -5.223482e+01   7.658551e+01
  -3.423315e+01   3.882188e+00
   1.205724e+00  -5.565121e+01
   2.674263e+01  -4.064024e+01
   3.536945e+01   2.071158e+01
   2.461653e+01   5.434746e+01
  -4.069438e+00   3.097464e+01
  -3.273687e+01  -1.028558e+01
  -3.820903e+01  -2.097340e+01
  -1.995929e+01  -5.656563e-01
   6.635213e-02   1.301067e+01
   7.181734e+00  -5.402505e+00
   9.704379e+00  -3.699410e+01
   2.055515e+01  -4.147979e+01
   3.283044e+01  -3.117798e+00
   2.625923e+01   4.738131e+01
  -6.632459e+00   5.973139e+01
  -4.515690e+01   1.781913e+01
  -5.316441e+01  -4.091610e+01
  -1.179467e+01  -6.243638e+01
   5.411038e+01  -3.173303e+01
   8.592062e+01   1.770600e+01
   4.704508e+01   4.452507e+01
  -2.919083e+01   3.864833e+01
  -6.410499e+01   1.832380e+01
  -2.308967e+01   3.799291e+00
   3.838736e+01   4.205301e+00
   3.775082e+01   1.851733e+01
  -3.259269e+01   3.166065e+01
  -9.336030e+01   1.724432e+01
