
 $NMID
 id='ANONYMOUS ', fmtdat='(2E16.6)'
 volume=1.0
 tramp=1.0
 $END
  -4.531886e+03   2.688577e+01
  -2.696638e+03  -2.754204e+03
   1.001269e+03  -2.724590e+03
   2.283550e+03  -8.340799e+02
   8.098263e+02   8.286282e+02
  -8.746201e+02   5.804100e+02
  -9.541257e+02  -5.144379e+02
   8.398080e+01  -1.239080e+03
   8.876466e+02  -8.606777e+02
   9.838151e+02   1.997929e+02
   4.595943e+02   9.487340e+02
  -2.484699e+02   9.388012e+02
  -6.911619e+02   1.012527e+02
  -3.930143e+02  -7.577139e+02
   2.959547e+02  -7.636453e+02
   5.980082e+02   5.298661e+01
   2.336320e+02   7.247262e+02
  -3.999094e+02   6.268387e+02
  -5.752214e+02   3.730784e+01
  -3.621953e+02  -4.031587e+02
   1.917592e+01  -4.566171e+02
   2.773338e+02  -2.743031e+02
   2.219869e+02   2.248658e-02
  -9.466507e+01   1.137591e+02
  -4.291981e+02  -8.336014e+01
  -2.247292e+02  -4.530689e+02
   4.623987e+02  -4.532741e+02
   9.026412e+02   6.798008e+01
   4.627337e+02   5.737764e+02
  -4.307476e+02   5.297302e+02
  -8.056784e+02  -3.905505e+01
  -3.754979e+02  -5.253204e+02
   2.960057e+02  -5.491734e+02
   6.070215e+02  -2.243988e+02
   4.310899e+02   2.301439e+02
   6.896036e+01   5.265557e+02
  -2.251355e+02   3.175262e+02
  -2.081096e+02  -2.332242e+02
   1.585627e+02  -4.874582e+02
   4.798222e+02  -9.675825e+00
   2.915031e+02   7.256192e+02
  -3.295850e+02   7.609812e+02
  -6.593119e+02   4.820534e+00
  -3.019224e+02  -6.126573e+02
   3.116588e+02  -3.586954e+02
   4.380720e+02   3.411222e+02
  -5.420965e+01   5.864742e+02
  -5.838299e+02   1.442293e+02
  -6.300988e+02  -4.312879e+02
  -1.671511e+02  -6.157490e+02
   4.119427e+02  -3.612315e+02
   6.669468e+02   8.368260e+01
   3.895389e+02   4.164582e+02
  -1.742188e+02   3.991865e+02
  -4.767135e+02   5.909642e+01
  -2.505360e+02  -2.202191e+02
   1.385867e+02  -1.189144e+02
   1.573623e+02   1.752557e+02
  -1.830097e+02   2.077185e+02
  -3.758308e+02  -8.780827e+01
  -1.446521e+02  -3.261112e+02
   2.215955e+02  -2.606436e+02
   3.371649e+02  -5.921529e+01
   1.886017e+02   7.759525e+01
  -1.925089e+01   1.973900e+02
  -1.984414e+02   3.221059e+02
  -3.325663e+02   2.451534e+02
  -3.135540e+02  -1.227574e+02
  -9.165298e+01  -4.602564e+02
   1.384516e+02  -4.113981e+02
   1.510559e+02  -1.030091e+02
   2.054344e+01   4.076094e+01
   1.080557e+01  -8.271613e+01
   1.779287e+02  -1.563162e+02
   2.961197e+02   3.060715e+01
   1.859635e+02   2.761763e+02
  -6.604070e+01   2.750524e+02
  -2.422660e+02   1.813562e+01
  -2.128468e+02  -2.490289e+02
   7.148785e+00  -3.085166e+02
   2.758485e+02  -1.255808e+02
   3.715976e+02   1.711816e+02
   1.899551e+02   3.643148e+02
  -1.095491e+02   3.161955e+02
  -2.387680e+02   1.146125e+02
  -1.524345e+02  -1.117536e+01
  -9.334541e+01   2.826336e+01
  -2.292016e+02   7.007331e+01
  -4.015055e+02  -4.836399e+01
  -3.357985e+02  -2.847130e+02
  -2.655575e+00  -4.490865e+02
   3.559654e+02  -4.232108e+02
   4.912785e+02  -2.100279e+02
   3.516806e+02   9.470979e+01
   6.444485e+01   3.092847e+02
  -1.410903e+02   2.700436e+02
  -1.003458e+02   2.803370e+01
   1.084356e+02  -1.284322e+02
   2.154284e+02  -3.166539e+00
   6.446948e+01   2.132489e+02
  -1.743159e+02   1.951940e+02
  -2.010346e+02  -6.077513e+01
   1.302517e+01  -2.127181e+02
   2.053732e+02  -4.335563e+01
   1.707541e+02   2.541155e+02
  -3.400936e+01   3.566322e+02
  -2.313728e+02   1.900026e+02
  -3.230006e+02  -6.495511e+01
  -2.805602e+02  -2.331471e+02
  -1.054491e+02  -2.608637e+02
   1.093448e+02  -1.677877e+02
   1.866791e+02  -2.953643e+01
   6.792320e+01   3.346955e+01
  -7.249336e+01  -3.319019e+01
  -3.744579e+01  -1.271188e+02
   1.246381e+02  -1.086400e+02
   1.889033e+02   8.545020e+00
   6.807149e+01   7.841088e+01
  -7.749246e+01   2.642366e+01
  -5.892403e+01  -6.620252e+01
   1.159481e+02  -8.539825e+01
   2.749283e+02  -3.864212e+00
   2.633248e+02   1.335457e+02
   6.737479e+01   2.542833e+02
  -1.801214e+02   2.686903e+02
  -2.910097e+02   1.334538e+02
  -1.817265e+02  -5.578392e+01
   2.326736e+01  -1.213736e+02
   1.013529e+02  -1.322287e+01
  -2.447800e+01   1.083778e+02
  -1.994416e+02   6.817286e+01
  -2.241210e+02  -1.025045e+02
  -7.594532e+01  -2.163259e+02
   9.700762e+01  -1.668653e+02
   1.533663e+02  -3.278164e+01
   8.057903e+01   4.458391e+01
  -2.352487e+01   1.092962e+01
  -4.227546e+01  -7.540593e+01
   6.192130e+01  -1.116859e+02
   1.931698e+02  -3.399017e+01
   1.952291e+02   1.198934e+02
   2.581803e+01   2.217888e+02
  -1.674276e+02   1.693655e+02
  -2.021321e+02   5.002506e+00
  -7.026997e+01  -1.224550e+02
   6.816742e+01  -1.191686e+02
   8.925183e+01  -3.376709e+01
   2.581336e+01   2.732836e+01
  -1.579196e+01   2.332554e+01
   9.454860e+00  -1.859102e+00
   6.399420e+01   1.119480e+01
   8.271884e+01   7.706972e+01
   1.769415e+01   1.519922e+02
  -1.189482e+02   1.528181e+02
  -2.316920e+02   3.258608e+01
  -2.063690e+02  -1.462187e+02
  -4.572356e+01  -2.411282e+02
   1.112405e+02  -1.743673e+02
   1.393682e+02  -2.656912e+01
   7.027271e+01   5.945229e+01
   2.687087e+01   3.789023e+01
   5.232162e+01  -1.284584e+01
   7.730349e+01  -6.726362e+00
   3.947375e+01   4.819920e+01
  -4.120658e+01   8.397287e+01
  -9.577045e+01   5.295390e+01
  -7.980106e+01  -3.161911e+01
   9.870740e+00  -1.036028e+02
   1.331826e+02  -8.516007e+01
   1.943064e+02   4.476558e+01
   1.067584e+02   1.965932e+02
  -9.952544e+01   2.317138e+02
  -2.675415e+02   1.029413e+02
  -2.641995e+02  -8.408529e+01
  -1.150072e+02  -1.806301e+02
   3.815801e+01  -1.525740e+02
   9.778499e+01  -8.668147e+01
   8.350878e+01  -6.949178e+01
   7.000570e+01  -8.949813e+01
   9.305883e+01  -7.237697e+01
   1.270004e+02   2.318655e+01
   1.170081e+02   1.540660e+02
   3.083205e+01   2.261108e+02
  -9.754565e+01   1.739590e+02
  -1.768110e+02   2.410219e+01
  -1.401451e+02  -1.191670e+02
  -2.381883e+01  -1.607079e+02
   6.370567e+01  -9.741245e+01
   5.977834e+01  -6.800213e+00
   8.530370e+00   3.927154e+01
  -5.491650e+00   3.538438e+01
   3.772913e+01   2.077708e+01
   7.682036e+01   2.325214e+01
   4.316481e+01   3.642387e+01
  -6.080604e+01   3.614292e+01
  -1.540193e+02   5.039355e+00
  -1.441683e+02  -4.835425e+01
  -2.055595e+01  -8.785845e+01
   1.174782e+02  -7.581265e+01
   1.467610e+02  -1.577783e+01
   5.082078e+01   3.923465e+01
  -6.019826e+01   3.621728e+01
  -7.570579e+01  -1.916628e+01
  -4.992465e+00  -6.657875e+01
   5.828446e+01  -5.493893e+01
   6.174507e+01   3.537641e+00
   4.027656e+01   4.917263e+01
   4.227094e+01   4.081971e+01
   6.322502e+01   2.843906e+00
   6.662074e+01   1.671950e+00
   3.225854e+01   6.676238e+01
  -3.478898e+01   1.429492e+02
  -1.135803e+02   1.387386e+02
  -1.591026e+02   3.310213e+01
  -1.208083e+02  -8.935624e+01
  -8.029595e+00  -1.237107e+02
   8.409752e+01  -5.968670e+01
   5.958389e+01   1.604428e+01
  -5.893803e+01   2.063618e+01
  -1.387099e+02  -4.294422e+01
  -7.800039e+01  -1.071023e+02
   7.917838e+01  -1.138499e+02
   1.909131e+02  -5.477515e+01
   1.639132e+02   3.139021e+01
   3.927310e+01   8.640364e+01
  -5.907633e+01   7.196389e+01
  -4.794020e+01   9.566859e+00
   3.838239e+01  -2.487693e+01
   8.890316e+01   2.417504e+01
   3.039221e+01   1.188178e+02
  -9.378113e+01   1.518001e+02
  -1.683994e+02   5.886129e+01
  -1.260304e+02  -1.021494e+02
  -9.047449e+00  -1.970179e+02
   8.616561e+01  -1.442074e+02
   1.053498e+02   4.627527e+00
   6.294667e+01   1.162009e+02
   1.323002e+00   1.075780e+02
  -4.443407e+01   2.279325e+01
  -5.338843e+01  -3.001939e+01
  -2.771106e+01  -8.579143e+00
  -3.367554e+00   2.178204e+01
  -1.870750e+01  -1.254245e+01
  -5.562041e+01  -8.710926e+01
  -4.471622e+01  -1.101639e+02
   4.416146e+01  -4.604338e+01
   1.375976e+02   4.002308e+01
   1.302210e+02   7.132387e+01
   1.676977e+01   4.817879e+01
  -8.913538e+01   2.026875e+01
  -8.807867e+01   7.748040e+00
  -9.178664e+00  -5.936836e+00
   3.914031e+01  -2.229617e+01
   1.262847e+01  -2.000377e+01
  -2.271027e+01   1.346056e-01
   6.424130e+00   9.877468e+00
   7.572760e+01   5.747962e+00
   9.067105e+01   2.466023e+01
   5.178636e+00   7.924946e+01
  -1.207734e+02   1.117097e+02
  -1.840163e+02   5.531548e+01
  -1.377246e+02  -6.967845e+01
  -2.300885e+01  -1.616896e+02
   7.904032e+01  -1.470761e+02
   1.129938e+02  -5.547751e+01
   7.963344e+01   2.248471e+01
   2.381856e+01   3.416665e+01
  -4.223519e+00   6.863009e+00
   9.724350e+00   2.646888e+00
   3.398368e+01   4.476931e+01
   2.365826e+01   8.936594e+01
  -2.918206e+01   7.101706e+01
  -8.087341e+01  -1.961863e+01
  -7.461689e+01  -1.091865e+02
  -7.906900e-01  -1.112369e+02
   8.345594e+01  -2.063291e+01
   1.003883e+02   7.822836e+01
   2.857045e+01   1.030342e+02
  -6.697394e+01   5.260787e+01
  -9.533623e+01  -1.361636e+01
  -3.677404e+01  -4.903339e+01
   3.255654e+01  -4.895716e+01
   2.906771e+01  -2.717913e+01
  -3.619235e+01  -4.434317e-01
  -6.980860e+01   5.808734e+00
  -1.416198e+01  -2.515481e+01
   7.947253e+01  -6.612951e+01
   1.141312e+02  -5.916773e+01
   6.123144e+01   1.116743e+01
  -1.740892e+01   8.152259e+01
  -5.168102e+01   7.671225e+01
  -3.341865e+01   2.675354e+00
   1.736680e+00  -5.635710e+01
   2.689821e+01  -4.021834e+01
   3.563456e+01   2.133179e+01
   2.511641e+01   5.437189e+01
  -3.598390e+00   3.091906e+01
  -3.293343e+01  -9.599622e+00
  -3.905848e+01  -2.020177e+01
  -2.063760e+01  -3.871470e-01
  -9.402641e-02   1.245854e+01
   6.987613e+00  -5.867926e+00
   9.255534e+00  -3.759352e+01
   2.025303e+01  -4.258169e+01
   3.355806e+01  -4.309050e+00
   2.758254e+01   4.713193e+01
  -5.733393e+00   6.097263e+01
  -4.549438e+01   1.937264e+01
  -5.453738e+01  -4.049336e+01
  -1.265691e+01  -6.355058e+01
   5.428933e+01  -3.341189e+01
   8.690863e+01   1.657702e+01
   4.772310e+01   4.441461e+01
  -2.908374e+01   3.933224e+01
  -6.420297e+01   1.911799e+01
  -2.270609e+01   3.805606e+00
   3.922761e+01   3.418386e+00
   3.841026e+01   1.792250e+01
  -3.240661e+01   3.220929e+01
  -9.376026e+01   1.886029e+01
