
 $NMID
 id='ANONYMOUS ', fmtdat='(2E16.6)'
 volume=1.0
 tramp=1.0
 $END
   3.438554e+03  -1.171891e+01
   1.988567e+03   2.124290e+03
  -6.569316e+02   2.040729e+03
  -1.704071e+03   7.460216e+02
  -6.784842e+02  -5.976927e+02
   5.932820e+02  -4.897128e+02
   7.075809e+02   3.682440e+02
  -4.513592e+01   9.226626e+02
  -6.727570e+02   6.378329e+02
  -7.854109e+02  -1.244766e+02
  -3.672885e+02  -7.003274e+02
   1.989753e+02  -7.158597e+02
   4.916303e+02  -1.004028e+02
   3.048682e+02   5.771469e+02
  -1.690985e+02   5.902184e+02
  -4.743053e+02  -8.790761e+00
  -1.854772e+02  -5.504880e+02
   3.069914e+02  -4.836355e+02
   4.965898e+02  -1.247678e+01
   3.030676e+02   2.962724e+02
  -2.101797e+01   3.342225e+02
  -2.029454e+02   1.883991e+02
  -1.589745e+02   9.045162e+00
   7.109886e+01  -8.329664e+01
   3.142240e+02   7.910665e+01
   1.580188e+02   3.431525e+02
  -3.457698e+02   3.289804e+02
  -6.586689e+02  -3.664703e+01
  -3.423731e+02  -4.172903e+02
   2.908803e+02  -3.698406e+02
   5.775923e+02   2.378582e+01
   2.707703e+02   3.762951e+02
  -2.169288e+02   4.007623e+02
  -4.393632e+02   1.592941e+02
  -3.174246e+02  -1.844594e+02
  -3.698964e+01  -3.785608e+02
   1.713446e+02  -2.313166e+02
   1.332683e+02   1.663522e+02
  -1.336176e+02   3.406365e+02
  -3.477606e+02  -7.309522e+00
  -1.946445e+02  -5.150096e+02
   2.490071e+02  -5.358286e+02
   4.673594e+02   6.654954e-01
   2.003916e+02   4.327381e+02
  -2.222559e+02   2.511330e+02
  -3.032329e+02  -2.473740e+02
   3.963442e+01  -4.250013e+02
   4.185914e+02  -1.128495e+02
   4.527476e+02   3.032611e+02
   1.316285e+02   4.401813e+02
  -2.878768e+02   2.613788e+02
  -4.756970e+02  -5.909165e+01
  -2.791494e+02  -2.965210e+02
   1.237583e+02  -2.792585e+02
   3.431625e+02  -3.878545e+01
   1.857135e+02   1.553724e+02
  -9.416847e+01   8.608097e+01
  -1.156255e+02  -1.177689e+02
   1.214119e+02  -1.445878e+02
   2.629920e+02   5.690561e+01
   1.056994e+02   2.279593e+02
  -1.556189e+02   1.912993e+02
  -2.443367e+02   4.895492e+01
  -1.381008e+02  -6.008968e+01
   1.845220e+01  -1.522558e+02
   1.493324e+02  -2.315172e+02
   2.355744e+02  -1.644201e+02
   2.128254e+02   9.564931e+01
   5.846288e+01   3.247162e+02
  -9.545671e+01   2.859348e+02
  -1.031441e+02   7.128926e+01
  -1.802211e+01  -3.032461e+01
  -1.420229e+01   5.220323e+01
  -1.258381e+02   1.042633e+02
  -2.019885e+02  -2.014363e+01
  -1.267824e+02  -1.893286e+02
   4.227148e+01  -1.936986e+02
   1.652531e+02  -1.766703e+01
   1.516658e+02   1.735276e+02
  -2.528095e+00   2.225229e+02
  -1.968506e+02   9.247488e+01
  -2.699990e+02  -1.243105e+02
  -1.375228e+02  -2.664600e+02
   7.946536e+01  -2.315320e+02
   1.751848e+02  -8.158048e+01
   1.141934e+02   1.083964e+01
   6.844834e+01  -1.666963e+01
   1.598442e+02  -4.758552e+01
   2.830269e+02   3.702230e+01
   2.378346e+02   2.055541e+02
  -6.324398e-01   3.217349e+02
  -2.570421e+02   3.020977e+02
  -3.547701e+02   1.488026e+02
  -2.506569e+02  -6.757452e+01
  -4.536647e+01  -2.223923e+02
   1.002625e+02  -1.942245e+02
   7.211170e+01  -2.160751e+01
  -7.430503e+01   9.060296e+01
  -1.513910e+02   5.385446e+00
  -4.694087e+01  -1.465358e+02
   1.173360e+02  -1.349184e+02
   1.372652e+02   4.259936e+01
  -1.092133e+01   1.466124e+02
  -1.452210e+02   2.777956e+01
  -1.193210e+02  -1.808590e+02
   2.686880e+01  -2.540123e+02
   1.682360e+02  -1.364731e+02
   2.321596e+02   4.815839e+01
   1.985274e+02   1.718840e+02
   7.162383e+01   1.915498e+02
  -8.007855e+01   1.213083e+02
  -1.337956e+02   2.032216e+01
  -5.080679e+01  -2.358714e+01
   4.669535e+01   2.358573e+01
   2.304328e+01   8.784192e+01
  -8.828605e+01   7.301875e+01
  -1.316523e+02  -7.741694e+00
  -4.680583e+01  -5.350874e+01
   5.462452e+01  -1.591232e+01
   4.088296e+01   4.772447e+01
  -8.374913e+01   5.940594e+01
  -1.981231e+02   4.440904e-01
  -1.900696e+02  -9.824172e+01
  -4.755083e+01  -1.839477e+02
   1.321653e+02  -1.922239e+02
   2.112806e+02  -9.408596e+01
   1.310822e+02   4.052414e+01
  -1.611937e+01   8.653649e+01
  -7.106775e+01   1.041736e+01
   1.796325e+01  -7.455648e+01
   1.402682e+02  -4.593074e+01
   1.566705e+02   7.370333e+01
   5.240465e+01   1.532079e+02
  -6.897307e+01   1.178906e+02
  -1.086737e+02   2.284373e+01
  -5.718986e+01  -3.183694e+01
   1.659612e+01  -7.302207e+00
   2.928419e+01   5.471831e+01
  -4.607797e+01   8.007329e+01
  -1.397909e+02   2.327639e+01
  -1.398077e+02  -8.708072e+01
  -1.765038e+01  -1.586864e+02
   1.199141e+02  -1.202317e+02
   1.435816e+02  -3.524227e+00
   4.976068e+01   8.554966e+01
  -4.793965e+01   8.270152e+01
  -6.198709e+01   2.342956e+01
  -1.685320e+01  -1.815470e+01
   1.241037e+01  -1.437359e+01
  -6.253179e+00   3.005678e+00
  -4.600049e+01  -7.276110e+00
  -5.970024e+01  -5.550796e+01
  -1.217996e+01  -1.087419e+02
   8.568844e+01  -1.076919e+02
   1.646397e+02  -2.068061e+01
   1.452330e+02   1.061380e+02
   3.085673e+01   1.713981e+02
  -7.896046e+01   1.230630e+02
  -9.829087e+01   1.820525e+01
  -5.003276e+01  -4.183372e+01
  -1.982141e+01  -2.658555e+01
  -3.728959e+01   8.375861e+00
  -5.475258e+01   4.116443e+00
  -2.686197e+01  -3.461265e+01
   2.971927e+01  -5.948822e+01
   6.851060e+01  -3.663238e+01
   5.696301e+01   2.400497e+01
  -8.172744e+00   7.488308e+01
  -9.607648e+01   6.008459e+01
  -1.385385e+02  -3.453208e+01
  -7.404074e+01  -1.421420e+02
   7.383751e+01  -1.645207e+02
   1.923519e+02  -7.116242e+01
   1.878386e+02   6.192517e+01
   8.051137e+01   1.296416e+02
  -2.860722e+01   1.080850e+02
  -6.976356e+01   6.098450e+01
  -5.895639e+01   4.891454e+01
  -4.925651e+01   6.413312e+01
  -6.677826e+01   5.178735e+01
  -9.135833e+01  -1.726190e+01
  -8.280708e+01  -1.108748e+02
  -2.015414e+01  -1.613706e+02
   7.063797e+01  -1.230103e+02
   1.254403e+02  -1.581118e+01
   9.832307e+01   8.521598e+01
   1.595289e+01   1.137189e+02
  -4.559961e+01   6.827363e+01
  -4.223423e+01   4.204121e+00
  -5.606261e+00  -2.796390e+01
   4.372439e+00  -2.503536e+01
  -2.669871e+01  -1.498918e+01
  -5.450158e+01  -1.736423e+01
  -3.008121e+01  -2.661899e+01
   4.433555e+01  -2.517953e+01
   1.101253e+02  -1.904220e+00
   1.017438e+02   3.629708e+01
   1.273740e+01   6.309256e+01
  -8.506776e+01   5.298004e+01
  -1.044757e+02   9.628587e+00
  -3.545101e+01  -2.884858e+01
   4.322137e+01  -2.573841e+01
   5.368761e+01   1.422391e+01
   3.239227e+00   4.801656e+01
  -4.155887e+01   3.955980e+01
  -4.393503e+01  -2.487199e+00
  -2.899960e+01  -3.542444e+01
  -3.061869e+01  -2.938481e+01
  -4.567061e+01  -2.188930e+00
  -4.805682e+01  -1.568807e+00
  -2.333759e+01  -4.864020e+01
   2.544061e+01  -1.028705e+02
   8.265436e+01  -9.921398e+01
   1.147732e+02  -2.274352e+01
   8.625635e+01   6.498659e+01
   4.844964e+00   8.920616e+01
  -6.080752e+01   4.264964e+01
  -4.277308e+01  -1.188088e+01
   4.201153e+01  -1.489626e+01
   9.832904e+01   3.090979e+01
   5.492295e+01   7.683691e+01
  -5.669466e+01   8.063767e+01
  -1.357573e+02   3.784579e+01
  -1.162954e+02  -2.335370e+01
  -2.754403e+01  -6.144640e+01
   4.238933e+01  -5.025230e+01
   3.426005e+01  -5.818577e+00
  -2.790982e+01   1.795818e+01
  -6.433921e+01  -1.762142e+01
  -2.229711e+01  -8.518874e+01
   6.705934e+01  -1.086218e+02
   1.207547e+02  -4.237996e+01
   9.006019e+01   7.243739e+01
   6.045982e+00   1.403280e+02
  -6.167388e+01   1.029328e+02
  -7.464153e+01  -3.231305e+00
  -4.414444e+01  -8.279459e+01
  -6.921269e-01  -7.660105e+01
   3.120512e+01  -1.591732e+01
   3.749903e+01   2.162216e+01
   1.981197e+01   6.056753e+00
   3.102008e+00  -1.559902e+01
   1.379054e+01   9.177106e+00
   3.926073e+01   6.275883e+01
   3.070701e+01   7.896329e+01
  -3.232117e+01   3.265936e+01
  -9.797262e+01  -2.924456e+01
  -9.205766e+01  -5.164320e+01
  -1.149664e+01  -3.459090e+01
   6.343224e+01  -1.407639e+01
   6.247246e+01  -4.841009e+00
   6.562984e+00   4.578260e+00
  -2.776157e+01   1.572405e+01
  -9.143533e+00   1.400714e+01
   1.582848e+01  -3.987157e-02
  -4.810143e+00  -6.899604e+00
  -5.382139e+01  -4.452419e+00
  -6.423310e+01  -1.816448e+01
  -3.445976e+00  -5.660535e+01
   8.622492e+01  -7.906548e+01
   1.313451e+02  -3.872536e+01
   9.837520e+01   4.997690e+01
   1.625990e+01   1.152655e+02
  -5.689562e+01   1.047899e+02
  -8.105814e+01   3.954255e+01
  -5.671261e+01  -1.632947e+01
  -1.670886e+01  -2.464571e+01
   3.088801e+00  -4.810963e+00
  -7.027462e+00  -1.574433e+00
  -2.405155e+01  -3.206097e+01
  -1.635745e+01  -6.434188e+01
   2.133424e+01  -5.089793e+01
   5.783740e+01   1.449414e+01
   5.310005e+01   7.889236e+01
   3.272921e-01   8.011254e+01
  -5.999816e+01   1.481318e+01
  -7.217670e+01  -5.616949e+01
  -2.067828e+01  -7.405327e+01
   4.795792e+01  -3.801835e+01
   6.845180e+01   9.530846e+00
   2.640058e+01   3.511968e+01
  -2.340998e+01   3.525780e+01
  -2.095491e+01   1.974145e+01
   2.550407e+01   5.589907e-01
   4.940537e+01  -4.243527e+00
   9.627461e+00   1.746678e+01
  -5.719418e+01   4.624745e+01
  -8.173979e+01   4.113743e+01
  -4.366014e+01  -8.851090e+00
   1.290643e+01  -5.862453e+01
   3.779203e+01  -5.472623e+01
   2.468723e+01  -1.960599e+00
  -1.001861e+00   4.000576e+01
  -1.932766e+01   2.852321e+01
  -2.546202e+01  -1.531097e+01
  -1.761669e+01  -3.884541e+01
   3.031222e+00  -2.217297e+01
   2.378825e+01   6.747349e+00
   2.814453e+01   1.467474e+01
   1.501579e+01   6.399094e-01
   1.088155e-01  -8.959159e+00
  -5.125748e+00   3.784429e+00
  -6.662543e+00   2.665740e+01
  -1.414206e+01   3.077955e+01
  -2.371519e+01   3.576853e+00
  -1.993918e+01  -3.356359e+01
   3.671911e+00  -4.390214e+01
   3.245509e+01  -1.410071e+01
   3.927901e+01   2.883999e+01
   9.421101e+00   4.528710e+01
  -3.873148e+01   2.365594e+01
  -6.202003e+01  -1.199117e+01
  -3.371931e+01  -3.158855e+01
   2.106098e+01  -2.774831e+01
   4.575340e+01  -1.316408e+01
   1.593314e+01  -2.373788e+00
  -2.787700e+01  -2.356238e+00
  -2.712933e+01  -1.283063e+01
   2.309784e+01  -2.298361e+01
   6.628022e+01  -1.318461e+01
