
 $NMID
 id='ANONYMOUS ', fmtdat='(2E16.6)'
 volume=1.0
 tramp=1.0
 $END
   4.968611e+03   1.216134e+02
   2.655471e+03   2.989100e+03
  -7.757493e+02   3.063033e+03
  -2.522373e+03   8.488301e+02
  -1.003773e+03  -8.711427e+02
   8.028011e+02  -6.745374e+02
   9.907671e+02   5.204888e+02
  -4.507436e+01   1.249224e+03
  -9.656731e+02   8.499206e+02
  -1.088233e+03  -1.441230e+02
  -4.931261e+02  -1.039194e+03
   2.676805e+02  -9.497188e+02
   7.291009e+02  -9.872485e+01
   4.283502e+02   8.187948e+02
  -2.939150e+02   8.127687e+02
  -6.439161e+02   1.887354e+01
  -2.900432e+02  -7.465302e+02
   4.078797e+02  -6.466887e+02
   6.177759e+02  -8.944532e+01
   3.810449e+02   3.805153e+02
  -1.549416e+00   4.378990e+02
  -2.940765e+02   2.790703e+02
  -2.211585e+02   5.436248e+00
   1.143661e+02  -1.123891e+02
   4.388518e+02   8.977057e+01
   2.316156e+02   4.533191e+02
  -4.646945e+02   4.615647e+02
  -9.118386e+02  -5.072548e+01
  -4.855533e+02  -5.802772e+02
   4.006559e+02  -5.359714e+02
   7.904994e+02   1.703038e+01
   3.772704e+02   5.041912e+02
  -2.950812e+02   5.658534e+02
  -6.023653e+02   2.190364e+02
  -4.331517e+02  -2.519018e+02
  -7.208933e+01  -5.199173e+02
   2.140766e+02  -3.151039e+02
   1.970992e+02   2.283651e+02
  -1.700672e+02   4.749794e+02
  -4.858841e+02  -1.011905e+01
  -2.811122e+02  -7.287575e+02
   3.447884e+02  -7.591460e+02
   6.572304e+02  -1.170654e+01
   2.961495e+02   6.007397e+02
  -3.172719e+02   3.436920e+02
  -4.202802e+02  -3.491779e+02
   7.222990e+01  -5.956617e+02
   5.895713e+02  -1.477248e+02
   6.311429e+02   4.219674e+02
   1.834780e+02   6.119644e+02
  -3.911120e+02   3.588085e+02
  -6.563651e+02  -7.865454e+01
  -3.966997e+02  -4.066084e+02
   1.660827e+02  -3.872150e+02
   4.768518e+02  -5.337691e+01
   2.566821e+02   2.193423e+02
  -1.355819e+02   1.136914e+02
  -1.553484e+02  -1.794162e+02
   1.880921e+02  -2.089723e+02
   3.779972e+02   8.874190e+01
   1.394302e+02   3.271608e+02
  -2.285532e+02   2.598198e+02
  -3.373945e+02   5.638671e+01
  -1.819014e+02  -8.302608e+01
   2.805562e+01  -2.069249e+02
   2.070583e+02  -3.347811e+02
   3.407724e+02  -2.550979e+02
   3.225507e+02   1.208579e+02
   1.031015e+02   4.669572e+02
  -1.256911e+02   4.240788e+02
  -1.457274e+02   1.175274e+02
  -2.922268e+01  -3.110487e+01
  -2.781468e+01   8.097972e+01
  -1.892823e+02   1.463014e+02
  -2.953050e+02  -3.978260e+01
  -1.824135e+02  -2.787353e+02
   6.472974e+01  -2.773087e+02
   2.412124e+02  -2.389478e+01
   2.203016e+02   2.442411e+02
   3.713829e+00   3.150274e+02
  -2.758946e+02   1.373444e+02
  -3.837148e+02  -1.642064e+02
  -2.037012e+02  -3.700103e+02
   1.058571e+02  -3.256588e+02
   2.444867e+02  -1.216864e+02
   1.566237e+02   9.682963e+00
   9.381998e+01  -3.030340e+01
   2.317536e+02  -7.163410e+01
   4.090911e+02   5.219752e+01
   3.428753e+02   2.916639e+02
   2.601041e+00   4.558195e+02
  -3.627817e+02   4.296129e+02
  -5.013306e+02   2.168581e+02
  -3.585203e+02  -8.945790e+01
  -7.013230e+01  -3.111340e+02
   1.361703e+02  -2.768063e+02
   1.001268e+02  -3.356059e+01
  -1.084178e+02   1.243386e+02
  -2.144997e+02   9.380074e-01
  -6.041490e+01  -2.124844e+02
   1.758137e+02  -1.895136e+02
   1.975997e+02   6.550563e+01
  -1.868727e+01   2.114165e+02
  -2.084825e+02   3.752223e+01
  -1.681771e+02  -2.591379e+02
   3.728830e+01  -3.581365e+02
   2.323508e+02  -1.907103e+02
   3.240420e+02   6.273847e+01
   2.842942e+02   2.340117e+02
   1.093869e+02   2.653509e+02
  -1.099592e+02   1.727483e+02
  -1.901369e+02   3.137208e+01
  -7.015426e+01  -3.423404e+01
   7.293658e+01   3.261615e+01
   3.635884e+01   1.270861e+02
  -1.277348e+02   1.074414e+02
  -1.895775e+02  -9.195243e+00
  -6.371292e+01  -7.554122e+01
   8.205088e+01  -2.059304e+01
   5.737569e+01   7.063364e+01
  -1.241125e+02   8.611862e+01
  -2.846597e+02   2.211644e+00
  -2.698719e+02  -1.362518e+02
  -6.888570e+01  -2.586125e+02
   1.826047e+02  -2.746621e+02
   2.947470e+02  -1.388638e+02
   1.842298e+02   5.298521e+01
  -2.215563e+01   1.206580e+02
  -9.968099e+01   1.297033e+01
   2.755539e+01  -1.086593e+02
   2.023245e+02  -6.795825e+01
   2.253822e+02   1.031692e+02
   7.662328e+01   2.169658e+02
  -9.510590e+01   1.678188e+02
  -1.506559e+02   3.449199e+01
  -7.870157e+01  -4.208182e+01
   2.380407e+01  -8.191784e+00
   4.085730e+01   7.870787e+01
  -6.543138e+01   1.153951e+02
  -1.986294e+02   3.618610e+01
  -2.002897e+02  -1.216203e+02
  -2.770400e+01  -2.263613e+02
   1.688448e+02  -1.734925e+02
   2.039777e+02  -6.227299e+00
   7.053623e+01   1.221554e+02
  -6.828946e+01   1.178677e+02
  -8.783500e+01   3.222726e+01
  -2.283975e+01  -2.609506e+01
   1.793491e+01  -1.964088e+01
  -1.050249e+01   5.714373e+00
  -6.745086e+01  -1.059003e+01
  -8.617715e+01  -8.000117e+01
  -1.866644e+01  -1.560616e+02
   1.206068e+02  -1.557286e+02
   2.348269e+02  -3.303004e+01
   2.099419e+02   1.478994e+02
   4.884752e+01   2.437327e+02
  -1.093990e+02   1.776623e+02
  -1.403039e+02   2.946997e+01
  -7.343155e+01  -5.728926e+01
  -2.950028e+01  -3.603416e+01
  -5.483772e+01   1.303487e+01
  -7.991745e+01   5.644816e+00
  -4.014196e+01  -4.978712e+01
   4.259036e+01  -8.555069e+01
   9.939537e+01  -5.394299e+01
   8.285364e+01   3.292954e+01
  -1.081288e+01   1.073260e+02
  -1.372248e+02   8.843844e+01
  -1.987938e+02  -4.463948e+01
  -1.092442e+02  -1.987086e+02
   9.961721e+01  -2.353911e+02
   2.690303e+02  -1.056343e+02
   2.664827e+02   8.095625e+01
   1.171979e+02   1.782541e+02
  -3.558486e+01   1.520000e+02
  -9.576807e+01   8.896365e+01
  -8.191063e+01   7.318191e+01
  -6.987578e+01   9.342664e+01
  -9.452367e+01   7.495434e+01
  -1.298360e+02  -2.258538e+01
  -1.203180e+02  -1.562595e+02
  -3.284641e+01  -2.301738e+02
   9.840822e+01  -1.776950e+02
   1.799604e+02  -2.489470e+01
   1.426426e+02   1.209893e+02
   2.377401e+01   1.625554e+02
  -6.497180e+01   9.726887e+01
  -5.938846e+01   5.786376e+00
  -6.641936e+00  -3.906375e+01
   6.128964e+00  -3.382295e+01
  -4.024031e+01  -1.976922e+01
  -8.044716e+01  -2.411661e+01
  -4.498514e+01  -3.835610e+01
   6.216978e+01  -3.762845e+01
   1.571632e+02  -5.986827e+00
   1.468082e+02   4.800132e+01
   2.118409e+01   8.870060e+01
  -1.185204e+02   7.793601e+01
  -1.482944e+02   1.775607e+01
  -5.184175e+01  -3.901431e+01
   6.014899e+01  -3.730707e+01
   7.628400e+01   1.881656e+01
   5.558466e+00   6.786313e+01
  -5.842926e+01   5.657688e+01
  -6.268124e+01  -3.517192e+00
  -4.137285e+01  -5.059845e+01
  -4.259473e+01  -4.150733e+01
  -6.323095e+01  -1.444278e+00
  -6.765774e+01   3.967366e-01
  -3.489622e+01  -6.653490e+01
   3.247354e+01  -1.460868e+02
   1.139366e+02  -1.437780e+02
   1.626529e+02  -3.657873e+01
   1.247738e+02   8.941675e+01
   9.675442e+00   1.263404e+02
  -8.459528e+01   6.201529e+01
  -6.023807e+01  -1.546182e+01
   5.989407e+01  -2.130455e+01
   1.407062e+02   4.268875e+01
   7.951033e+01   1.084461e+02
  -7.971858e+01   1.159551e+02
  -1.932453e+02   5.662677e+01
  -1.662767e+02  -3.121699e+01
  -3.971085e+01  -8.796289e+01
   6.064668e+01  -7.324740e+01
   4.945319e+01  -8.722978e+00
  -3.947264e+01   2.755128e+01
  -9.232768e+01  -2.234766e+01
  -3.369797e+01  -1.205912e+02
   9.307264e+01  -1.569447e+02
   1.704264e+02  -6.363986e+01
   1.291463e+02   1.012653e+02
   1.154191e+01   1.999368e+02
  -8.519009e+01   1.476333e+02
  -1.059049e+02  -3.654301e+00
  -6.397504e+01  -1.174819e+02
  -1.950817e+00  -1.087638e+02
   4.472437e+01  -2.275863e+01
   5.397872e+01   3.046050e+01
   2.781726e+01   8.812325e+00
   3.424318e+00  -2.158159e+01
   1.962343e+01   1.347811e+01
   5.730035e+01   8.878946e+01
   4.544919e+01   1.117052e+02
  -4.576291e+01   4.720249e+01
  -1.411652e+02  -3.925387e+01
  -1.336140e+02  -7.127566e+01
  -1.824097e+01  -4.944513e+01
   8.982572e+01  -2.232146e+01
   8.936903e+01  -9.185397e+00
   9.758584e+00   5.747135e+00
  -3.939042e+01   2.227549e+01
  -1.258025e+01   1.909616e+01
   2.382522e+01  -1.067546e+00
  -5.400617e+00  -9.054432e+00
  -7.636863e+01  -3.219483e+00
  -9.316784e+01  -2.296579e+01
  -7.593715e+00  -8.071899e+01
   1.207421e+02  -1.158606e+02
   1.866828e+02  -5.924904e+01
   1.414355e+02   6.848413e+01
   2.571150e+01   1.638426e+02
  -7.847129e+01   1.509866e+02
  -1.140639e+02   5.860072e+01
  -8.119792e+01  -2.156505e+01
  -2.496397e+01  -3.504918e+01
   4.065452e+00  -7.894702e+00
  -9.527690e+00  -2.932821e+00
  -3.442119e+01  -4.476842e+01
  -2.483059e+01  -9.017859e+01
   2.866845e+01  -7.256399e+01
   8.251399e+01   1.850720e+01
   7.815254e+01   1.098535e+02
   3.452108e+00   1.134991e+02
  -8.410469e+01   2.303891e+01
  -1.036679e+02  -7.739128e+01
  -3.138522e+01  -1.042949e+02
   6.728995e+01  -5.488496e+01
   9.805242e+01   1.250819e+01
   3.907436e+01   4.992326e+01
  -3.233227e+01   5.093128e+01
  -2.987776e+01   2.839181e+01
   3.599784e+01   2.516175e-01
   7.076654e+01  -6.439082e+00
   1.502613e+01   2.560198e+01
  -7.993598e+01   6.782427e+01
  -1.156331e+02   6.111218e+01
  -6.302407e+01  -1.046947e+01
   1.595870e+01  -8.286367e+01
   5.161368e+01  -7.926592e+01
   3.513508e+01  -4.643672e+00
   8.050163e-01   5.677787e+01
  -2.557316e+01   4.242770e+01
  -3.691635e+01  -1.940830e+01
  -2.777366e+01  -5.424379e+01
   2.475055e+00  -3.215676e+01
   3.413694e+01   8.770042e+00
   4.079708e+01   2.023353e+01
   2.095620e+01   3.278236e-01
  -6.946929e-01  -1.314454e+01
  -7.006112e+00   5.205657e+00
  -7.960365e+00   3.824875e+01
  -1.880742e+01   4.447475e+01
  -3.386797e+01   5.823225e+00
  -2.951919e+01  -4.688372e+01
   4.005713e+00  -6.178050e+01
   4.562708e+01  -2.026326e+01
   5.591319e+01   4.022604e+01
   1.365340e+01   6.393376e+01
  -5.515811e+01   3.414817e+01
  -8.878979e+01  -1.604297e+01
  -4.891702e+01  -4.461405e+01
   2.926678e+01  -4.039471e+01
   6.504599e+01  -2.031111e+01
   2.307694e+01  -4.171531e+00
  -3.963804e+01  -2.761249e+00
  -3.909398e+01  -1.735743e+01
   3.216073e+01  -3.285356e+01
   9.409377e+01  -2.040079e+01
