
 $NMID
 id='ANONYMOUS ', fmtdat='(2E16.6)'
 volume=1.0
 tramp=1.0
 $END
  -4.814930e+03  -6.754881e+01
  -2.663017e+03  -3.032484e+03
   9.275149e+02  -3.100364e+03
   2.461559e+03  -8.735977e+02
   1.080130e+03   9.700979e+02
  -8.188430e+02   7.514760e+02
  -1.085047e+03  -5.225336e+02
   6.016778e+01  -1.243867e+03
   9.148370e+02  -9.444401e+02
   1.068507e+03   7.092465e+01
   5.667214e+02   9.783380e+02
  -2.288135e+02   1.048896e+03
  -7.394935e+02   8.375984e+01
  -4.095990e+02  -8.130301e+02
   3.174492e+02  -7.975807e+02
   6.558798e+02  -1.661545e+01
   3.169374e+02   7.539555e+02
  -3.699947e+02   6.410483e+02
  -6.274848e+02   9.776181e+01
  -4.094812e+02  -3.911196e+02
  -5.591473e+00  -4.608906e+02
   2.558547e+02  -2.816305e+02
   2.378271e+02  -1.698619e+01
  -1.137933e+02   9.650819e+01
  -4.236458e+02  -8.163224e+01
  -2.352420e+02  -4.409237e+02
   4.549575e+02  -4.648012e+02
   9.357202e+02   4.397880e+01
   5.021084e+02   5.810488e+02
  -3.922664e+02   5.492046e+02
  -7.953596e+02   1.161017e+01
  -3.963636e+02  -5.007261e+02
   2.816886e+02  -5.590134e+02
   5.994885e+02  -2.291947e+02
   4.415124e+02   2.539234e+02
   8.224835e+01   5.391409e+02
  -2.265901e+02   3.301707e+02
  -2.283077e+02  -2.452039e+02
   1.583331e+02  -5.034251e+02
   5.033470e+02  -9.419596e+00
   2.845698e+02   7.510521e+02
  -3.478216e+02   7.806876e+02
  -6.861254e+02   3.182979e+00
  -2.935699e+02  -6.235328e+02
   3.286825e+02  -3.500035e+02
   4.212137e+02   3.609827e+02
  -8.177853e+01   5.987730e+02
  -5.957685e+02   1.276087e+02
  -6.142339e+02  -4.457256e+02
  -1.565796e+02  -6.191258e+02
   4.047087e+02  -3.511119e+02
   6.552721e+02   9.358940e+01
   3.889886e+02   4.213312e+02
  -1.755073e+02   4.028631e+02
  -4.919259e+02   5.306609e+01
  -2.617248e+02  -2.426980e+02
   1.499680e+02  -1.378368e+02
   1.723457e+02   1.822604e+02
  -1.934146e+02   2.290940e+02
  -3.984665e+02  -8.523707e+01
  -1.430029e+02  -3.496964e+02
   2.514713e+02  -2.773385e+02
   3.576899e+02  -4.334342e+01
   1.720198e+02   1.072059e+02
  -5.423217e+01   2.060501e+02
  -2.129560e+02   3.071017e+02
  -3.189031e+02   2.331289e+02
  -3.014351e+02  -1.177878e+02
  -1.034943e+02  -4.542864e+02
   1.189379e+02  -4.231613e+02
   1.549251e+02  -1.241741e+02
   4.917655e+01   3.679243e+01
   3.415556e+01  -6.118079e+01
   1.737079e+02  -1.315037e+02
   2.760294e+02   3.477976e+01
   1.770724e+02   2.640188e+02
  -5.511960e+01   2.704280e+02
  -2.317951e+02   3.270099e+01
  -2.224035e+02  -2.325590e+02
  -1.292119e+01  -3.137015e+02
   2.716739e+02  -1.438253e+02
   3.861935e+02   1.595898e+02
   2.029710e+02   3.737464e+02
  -1.141382e+02   3.293453e+02
  -2.516563e+02   1.166675e+02
  -1.570262e+02  -1.611714e+01
  -8.848512e+01   2.574829e+01
  -2.320945e+02   7.212847e+01
  -4.112713e+02  -5.551974e+01
  -3.395890e+02  -2.976367e+02
   6.897427e+00  -4.554902e+02
   3.696749e+02  -4.219268e+02
   4.969717e+02  -2.097971e+02
   3.511112e+02   8.532136e+01
   7.215914e+01   3.033759e+02
  -1.303179e+02   2.776065e+02
  -9.768505e+01   3.979262e+01
   1.046266e+02  -1.242528e+02
   2.157155e+02  -6.810464e+00
   6.788531e+01   2.125963e+02
  -1.726663e+02   1.992385e+02
  -2.043369e+02  -5.870241e+01
   1.178717e+01  -2.158573e+02
   2.080333e+02  -4.390687e+01
   1.704867e+02   2.621967e+02
  -4.144643e+01   3.630109e+02
  -2.390214e+02   1.879922e+02
  -3.230348e+02  -7.385230e+01
  -2.748480e+02  -2.402350e+02
  -1.013932e+02  -2.620828e+02
   1.101239e+02  -1.662816e+02
   1.856922e+02  -2.643385e+01
   6.699597e+01   3.652598e+01
  -7.423808e+01  -3.261159e+01
  -3.787119e+01  -1.294375e+02
   1.262138e+02  -1.103206e+02
   1.893714e+02   8.956477e+00
   6.508614e+01   7.756606e+01
  -8.097367e+01   2.192627e+01
  -5.811766e+01  -7.054483e+01
   1.210188e+02  -8.503051e+01
   2.797689e+02  -9.236129e-01
   2.658422e+02   1.342781e+02
   6.937903e+01   2.530746e+02
  -1.779122e+02   2.701765e+02
  -2.908261e+02   1.387232e+02
  -1.844050e+02  -5.049185e+01
   2.005785e+01  -1.186111e+02
   9.901462e+01  -1.185677e+01
  -2.682015e+01   1.089069e+02
  -2.023967e+02   6.619223e+01
  -2.260373e+02  -1.062734e+02
  -7.601645e+01  -2.185094e+02
   9.668743e+01  -1.664312e+02
   1.515861e+02  -3.298055e+01
   7.995959e+01   4.087259e+01
  -2.047252e+01   6.806528e+00
  -3.717350e+01  -7.572246e+01
   6.507139e+01  -1.086284e+02
   1.933529e+02  -3.109653e+01
   1.942318e+02   1.208653e+02
   2.483381e+01   2.217524e+02
  -1.683105e+02   1.694871e+02
  -2.021733e+02   5.032179e+00
  -6.914514e+01  -1.211901e+02
   6.818630e+01  -1.169460e+02
   8.622831e+01  -3.294082e+01
   2.228784e+01   2.336542e+01
  -1.482353e+01   1.753418e+01
   1.476603e+01  -3.069096e+00
   6.818129e+01   1.655849e+01
   8.016048e+01   8.402274e+01
   1.156804e+01   1.534292e+02
  -1.230329e+02   1.487601e+02
  -2.314864e+02   2.767471e+01
  -2.039378e+02  -1.487091e+02
  -4.393116e+01  -2.414792e+02
   1.117117e+02  -1.749771e+02
   1.401569e+02  -2.682719e+01
   7.102322e+01   5.972855e+01
   2.799229e+01   3.806645e+01
   5.434063e+01  -1.156613e+01
   7.881440e+01  -4.370371e+00
   3.670477e+01   4.956349e+01
  -4.597378e+01   8.218492e+01
  -9.859501e+01   4.871100e+01
  -7.744034e+01  -3.539849e+01
   1.474347e+01  -1.041544e+02
   1.359783e+02  -8.194389e+01
   1.932516e+02   4.697360e+01
   1.046743e+02   1.966687e+02
  -1.005093e+02   2.300562e+02
  -2.667527e+02   1.009524e+02
  -2.627786e+02  -8.455314e+01
  -1.133570e+02  -1.801911e+02
   3.823364e+01  -1.508670e+02
   9.653541e+01  -8.640817e+01
   8.194428e+01  -7.167475e+01
   7.086994e+01  -9.280316e+01
   9.637718e+01  -7.349880e+01
   1.300237e+02   2.495802e+01
   1.178883e+02   1.566520e+02
   2.966561e+01   2.280645e+02
  -9.954610e+01   1.751315e+02
  -1.780450e+02   2.389413e+01
  -1.393956e+02  -1.205139e+02
  -2.177222e+01  -1.610054e+02
   6.434172e+01  -9.502124e+01
   5.707750e+01  -4.204957e+00
   4.778976e+00   3.801657e+01
  -6.374517e+00   3.091439e+01
   4.033923e+01   1.856468e+01
   7.954605e+01   2.597957e+01
   4.351534e+01   3.956815e+01
  -6.194419e+01   3.460082e+01
  -1.541593e+02   1.153592e+00
  -1.431316e+02  -4.908390e+01
  -1.973117e+01  -8.451163e+01
   1.171958e+02  -7.287391e+01
   1.458618e+02  -1.623277e+01
   4.974918e+01   3.724589e+01
  -6.129064e+01   3.502848e+01
  -7.629392e+01  -2.049746e+01
  -3.965552e+00  -6.912114e+01
   6.058993e+01  -5.716814e+01
   6.386923e+01   4.074673e+00
   4.136127e+01   5.207640e+01
   4.258001e+01   4.321299e+01
   6.332650e+01   2.853481e+00
   6.660572e+01   1.195364e+00
   3.184857e+01   6.756610e+01
  -3.620727e+01   1.447117e+02
  -1.157403e+02   1.394255e+02
  -1.607051e+02   3.134677e+01
  -1.208867e+02  -9.184573e+01
  -6.381571e+00  -1.247106e+02
   8.534094e+01  -5.885120e+01
   5.948463e+01   1.676212e+01
  -5.989513e+01   1.959605e+01
  -1.387915e+02  -4.504618e+01
  -7.671267e+01  -1.082395e+02
   8.080847e+01  -1.126410e+02
   1.920653e+02  -5.275949e+01
   1.645143e+02   3.298902e+01
   3.884485e+01   8.728691e+01
  -6.095704e+01   7.199289e+01
  -5.007258e+01   8.453866e+00
   3.881733e+01  -2.654391e+01
   9.173079e+01   2.375715e+01
   3.224011e+01   1.209072e+02
  -9.581037e+01   1.549083e+02
  -1.719297e+02   5.981170e+01
  -1.267168e+02  -1.044389e+02
  -6.729510e+00  -1.996060e+02
   8.755321e+01  -1.443924e+02
   1.036806e+02   6.621363e+00
   6.052105e+01   1.175854e+02
   1.119741e+00   1.066553e+02
  -4.333548e+01   2.064250e+01
  -5.314416e+01  -3.109647e+01
  -2.842061e+01  -8.383108e+00
  -3.179146e+00   2.196343e+01
  -1.736427e+01  -1.352279e+01
  -5.484797e+01  -8.875596e+01
  -4.469608e+01  -1.107521e+02
   4.497581e+01  -4.493772e+01
   1.397271e+02   4.208406e+01
   1.317592e+02   7.281130e+01
   1.594687e+01   4.877827e+01
  -9.126713e+01   2.031788e+01
  -8.903905e+01   7.649240e+00
  -8.322053e+00  -6.037399e+00
   4.010422e+01  -2.214849e+01
   1.245051e+01  -1.943486e+01
  -2.341976e+01   9.527840e-01
   6.853054e+00   1.035278e+01
   7.696518e+01   6.281370e+00
   9.101468e+01   2.613613e+01
   3.401416e+00   8.150060e+01
  -1.242218e+02   1.130710e+02
  -1.871947e+02   5.417415e+01
  -1.390369e+02  -7.260672e+01
  -2.224106e+01  -1.643091e+02
   8.085169e+01  -1.480307e+02
   1.146496e+02  -5.521207e+01
   8.039260e+01   2.314034e+01
   2.391526e+01   3.503553e+01
  -4.786168e+00   7.742433e+00
   8.773525e+00   3.164902e+00
   3.287194e+01   4.494634e+01
   2.283376e+01   8.948956e+01
  -2.999607e+01   7.080903e+01
  -8.164999e+01  -2.087718e+01
  -7.512703e+01  -1.117064e+02
  -4.602207e-04  -1.131737e+02
   8.538801e+01  -2.033484e+01
   1.020372e+02   8.030181e+01
   2.854438e+01   1.045792e+02
  -6.850389e+01   5.242804e+01
  -9.662655e+01  -1.456688e+01
  -3.651170e+01  -4.949746e+01
   3.364372e+01  -4.879359e+01
   2.959929e+01  -2.700886e+01
  -3.641771e+01  -3.563240e-01
  -7.029303e+01   6.299696e+00
  -1.415215e+01  -2.454965e+01
   7.992113e+01  -6.579306e+01
   1.142511e+02  -5.901970e+01
   6.072697e+01   1.184310e+01
  -1.844779e+01   8.278914e+01
  -5.326291e+01   7.722291e+01
  -3.526184e+01   1.902615e+00
   5.732622e-01  -5.802877e+01
   2.706303e+01  -4.153445e+01
   3.669540e+01   2.060517e+01
   2.584868e+01   5.399794e+01
  -3.776785e+00   3.100586e+01
  -3.341456e+01  -9.369420e+00
  -3.914948e+01  -1.981577e+01
  -2.063414e+01  -3.507190e-01
  -3.700302e-01   1.193732e+01
   6.531561e+00  -6.567907e+00
   9.624662e+00  -3.835377e+01
   2.134365e+01  -4.303663e+01
   3.421723e+01  -3.946096e+00
   2.706600e+01   4.842014e+01
  -6.879190e+00   6.197190e+01
  -4.600144e+01   1.882643e+01
  -5.413244e+01  -4.226988e+01
  -1.210483e+01  -6.478635e+01
   5.493252e+01  -3.263222e+01
   8.728216e+01   1.852079e+01
   4.741883e+01   4.560750e+01
  -3.029280e+01   3.897888e+01
  -6.555726e+01   1.796463e+01
  -2.295582e+01   2.999045e+00
   4.022541e+01   3.437975e+00
   3.909099e+01   1.843525e+01
  -3.323831e+01   3.248578e+01
  -9.521751e+01   1.836798e+01
