
 $NMID
 id='ANONYMOUS ', fmtdat='(2E16.6)'
 volume=1.0
 tramp=1.0
 $END
  -4.505688e+03  -1.351283e+00
  -2.536259e+03  -2.708440e+03
   8.238856e+02  -2.869671e+03
   2.288366e+03  -9.154030e+02
   9.025725e+02   7.954914e+02
  -7.522738e+02   6.075125e+02
  -9.815779e+02  -3.821598e+02
  -1.810411e+00  -1.087719e+03
   8.845996e+02  -8.252804e+02
   9.747366e+02   6.850675e+01
   4.843902e+02   9.293939e+02
  -3.014390e+02   9.494618e+02
  -7.386247e+02   7.228102e+01
  -3.893884e+02  -7.503694e+02
   3.035700e+02  -7.610787e+02
   6.294605e+02   3.643664e+01
   2.707256e+02   7.087196e+02
  -3.236195e+02   6.003413e+02
  -5.846480e+02   1.016635e+02
  -3.865485e+02  -3.953223e+02
  -2.674808e+01  -4.356341e+02
   2.490414e+02  -2.594280e+02
   2.226529e+02  -6.660346e+00
  -1.301088e+02   1.215559e+02
  -4.286676e+02  -7.907131e+01
  -2.155680e+02  -4.218799e+02
   4.453975e+02  -4.499766e+02
   8.757503e+02   5.090927e+01
   4.692561e+02   5.532809e+02
  -3.795121e+02   5.207315e+02
  -7.676601e+02  -4.408069e+00
  -3.686213e+02  -4.834104e+02
   2.806682e+02  -5.403836e+02
   5.716543e+02  -2.215619e+02
   4.396227e+02   2.336662e+02
   9.326318e+01   4.969000e+02
  -2.075614e+02   3.079554e+02
  -2.123779e+02  -2.231385e+02
   1.532288e+02  -4.691060e+02
   4.788060e+02   4.252876e+00
   2.669309e+02   7.153078e+02
  -3.360835e+02   7.465051e+02
  -6.528696e+02  -2.009933e+00
  -2.841753e+02  -5.994415e+02
   3.209179e+02  -3.366153e+02
   4.093915e+02   3.484838e+02
  -7.550475e+01   5.853511e+02
  -5.806691e+02   1.370551e+02
  -6.075898e+02  -4.289744e+02
  -1.608487e+02  -6.029719e+02
   3.907870e+02  -3.491703e+02
   6.394991e+02   8.558804e+01
   3.789560e+02   4.061862e+02
  -1.692577e+02   3.868971e+02
  -4.726222e+02   5.321006e+01
  -2.525734e+02  -2.270319e+02
   1.366666e+02  -1.284191e+02
   1.592077e+02   1.666484e+02
  -1.784982e+02   2.100292e+02
  -3.708619e+02  -7.527189e+01
  -1.433305e+02  -3.186229e+02
   2.185255e+02  -2.672160e+02
   3.347539e+02  -6.833790e+01
   1.873213e+02   8.346139e+01
  -2.837861e+01   2.125075e+02
  -2.149050e+02   3.221280e+02
  -3.371339e+02   2.230571e+02
  -2.966486e+02  -1.418847e+02
  -7.403378e+01  -4.537744e+02
   1.337512e+02  -3.933902e+02
   1.369874e+02  -1.017981e+02
   2.750098e+01   2.737593e+01
   3.882996e+01  -8.215286e+01
   1.938140e+02  -1.335931e+02
   2.818120e+02   5.101647e+01
   1.619518e+02   2.724824e+02
  -7.021848e+01   2.607626e+02
  -2.288814e+02   1.906730e+01
  -2.062124e+02  -2.334687e+02
  -1.455142e+00  -3.012455e+02
   2.654803e+02  -1.374878e+02
   3.744193e+02   1.509631e+02
   1.995825e+02   3.575392e+02
  -1.039207e+02   3.167686e+02
  -2.373111e+02   1.168791e+02
  -1.466793e+02  -1.201161e+01
  -8.092209e+01   2.869522e+01
  -2.195590e+02   7.813002e+01
  -4.005806e+02  -4.261112e+01
  -3.389299e+02  -2.813741e+02
  -4.535259e+00  -4.437393e+02
   3.576296e+02  -4.141376e+02
   4.891253e+02  -2.044235e+02
   3.423265e+02   8.982125e+01
   5.825928e+01   3.000362e+02
  -1.381826e+02   2.641066e+02
  -9.624229e+01   3.087759e+01
   1.059725e+02  -1.192174e+02
   2.072265e+02  -3.839707e+00
   5.758170e+01   2.011465e+02
  -1.697723e+02   1.824589e+02
  -1.926745e+02  -6.063321e+01
   1.440327e+01  -2.038770e+02
   1.993069e+02  -4.066639e+01
   1.645495e+02   2.471627e+02
  -3.277657e+01   3.472450e+02
  -2.247414e+02   1.890400e+02
  -3.152995e+02  -6.076621e+01
  -2.744223e+02  -2.325410e+02
  -1.012621e+02  -2.613260e+02
   1.113359e+02  -1.634270e+02
   1.835625e+02  -2.019031e+01
   6.136096e+01   3.914543e+01
  -7.750194e+01  -3.495624e+01
  -3.702640e+01  -1.304538e+02
   1.278673e+02  -1.079885e+02
   1.887997e+02   1.072155e+01
   6.343093e+01   7.702604e+01
  -8.147652e+01   2.268050e+01
  -5.913867e+01  -6.702302e+01
   1.175363e+02  -8.260344e+01
   2.741610e+02  -2.524123e+00
   2.607032e+02   1.296857e+02
   6.708061e+01   2.472805e+02
  -1.756247e+02   2.641326e+02
  -2.838221e+02   1.350473e+02
  -1.769478e+02  -4.905698e+01
   2.254052e+01  -1.143709e+02
   9.645073e+01  -1.066216e+01
  -2.910681e+01   1.061596e+02
  -1.995850e+02   6.532619e+01
  -2.207019e+02  -1.014796e+02
  -7.344854e+01  -2.113930e+02
   9.478023e+01  -1.629200e+02
   1.475645e+02  -3.359145e+01
   7.590628e+01   3.991545e+01
  -2.390443e+01   7.379028e+00
  -3.905662e+01  -7.487447e+01
   6.480428e+01  -1.088274e+02
   1.927326e+02  -3.269253e+01
   1.923708e+02   1.180717e+02
   2.421845e+01   2.183756e+02
  -1.655240e+02   1.671759e+02
  -1.978382e+02   5.736066e+00
  -6.748185e+01  -1.183543e+02
   6.723737e+01  -1.139233e+02
   8.460573e+01  -3.067881e+01
   2.043503e+01   2.485728e+01
  -1.833623e+01   1.805193e+01
   1.110860e+01  -5.230709e+00
   6.710261e+01   1.215707e+01
   8.280661e+01   8.034352e+01
   1.503036e+01   1.520092e+02
  -1.203008e+02   1.491233e+02
  -2.291431e+02   2.910165e+01
  -2.023979e+02  -1.450179e+02
  -4.489634e+01  -2.366926e+02
   1.081590e+02  -1.719234e+02
   1.366843e+02  -2.787768e+01
   7.110697e+01   5.578808e+01
   2.918533e+01   3.551527e+01
   5.325210e+01  -1.091236e+01
   7.730634e+01  -4.319443e+00
   3.752127e+01   4.824660e+01
  -4.278412e+01   8.188304e+01
  -9.612781e+01   5.106290e+01
  -7.861474e+01  -3.205728e+01
   1.194347e+01  -1.026587e+02
   1.328305e+02  -8.312117e+01
   1.915920e+02   4.428496e+01
   1.040224e+02   1.933056e+02
  -9.774426e+01   2.278445e+02
  -2.611077e+02   1.012188e+02
  -2.577424e+02  -8.034668e+01
  -1.122301e+02  -1.750556e+02
   3.598388e+01  -1.477601e+02
   9.345141e+01  -8.481075e+01
   7.995522e+01  -6.920108e+01
   6.771386e+01  -8.913747e+01
   9.168298e+01  -7.249544e+01
   1.257575e+02   2.138944e+01
   1.166552e+02   1.510748e+02
   3.194577e+01   2.241222e+02
  -9.606985e+01   1.740029e+02
  -1.756077e+02   2.465743e+01
  -1.391036e+02  -1.184557e+02
  -2.276302e+01  -1.588353e+02
   6.382181e+01  -9.402384e+01
   5.791565e+01  -4.515451e+00
   5.729264e+00   3.818168e+01
  -6.829979e+00   3.193406e+01
   3.868287e+01   1.859693e+01
   7.845320e+01   2.392674e+01
   4.408882e+01   3.801984e+01
  -6.021675e+01   3.635468e+01
  -1.521963e+02   4.950307e+00
  -1.415692e+02  -4.638928e+01
  -2.016450e+01  -8.425491e+01
   1.139279e+02  -7.360787e+01
   1.418698e+02  -1.654866e+01
   4.885415e+01   3.727882e+01
  -5.872222e+01   3.575767e+01
  -7.434229e+01  -1.810067e+01
  -6.353573e+00  -6.569446e+01
   5.523440e+01  -5.556255e+01
   5.990470e+01   1.816433e+00
   3.986598e+01   4.775644e+01
   4.131444e+01   3.964337e+01
   6.139064e+01   1.284347e+00
   6.580731e+01  -7.297837e-01
   3.430523e+01   6.395372e+01
  -3.153014e+01   1.415882e+02
  -1.111970e+02   1.392416e+02
  -1.580981e+02   3.449487e+01
  -1.204400e+02  -8.781103e+01
  -8.056904e+00  -1.226235e+02
   8.249804e+01  -5.901306e+01
   5.756310e+01   1.579797e+01
  -5.908219e+01   1.951742e+01
  -1.364534e+02  -4.370385e+01
  -7.595350e+01  -1.060812e+02
   7.871487e+01  -1.115741e+02
   1.886554e+02  -5.366061e+01
   1.620683e+02   3.096784e+01
   3.868291e+01   8.622301e+01
  -5.967662e+01   7.297351e+01
  -4.962364e+01   1.041462e+01
   3.682025e+01  -2.610799e+01
   8.811781e+01   2.121104e+01
   3.072949e+01   1.166171e+02
  -9.289842e+01   1.517025e+02
  -1.668239e+02   5.970438e+01
  -1.241900e+02  -1.014890e+02
  -8.490697e+00  -1.959510e+02
   8.453522e+01  -1.423496e+02
   1.022803e+02   6.001482e+00
   6.059662e+01   1.154366e+02
   8.412894e-01   1.050630e+02
  -4.375672e+01   2.055682e+01
  -5.271939e+01  -3.077309e+01
  -2.735797e+01  -9.011845e+00
  -2.983560e+00   2.101614e+01
  -1.785752e+01  -1.279594e+01
  -5.466989e+01  -8.609090e+01
  -4.423033e+01  -1.085503e+02
   4.385740e+01  -4.555196e+01
   1.368994e+02   3.909360e+01
   1.297494e+02   7.042780e+01
   1.698645e+01   4.846917e+01
  -8.857374e+01   2.109225e+01
  -8.770919e+01   8.110369e+00
  -9.153534e+00  -5.922706e+00
   3.905324e+01  -2.164495e+01
   1.250472e+01  -1.882833e+01
  -2.337438e+01   8.343018e-01
   5.406553e+00   9.260049e+00
   7.459243e+01   4.472578e+00
   9.018941e+01   2.371537e+01
   5.864229e+00   7.881492e+01
  -1.190086e+02   1.116921e+02
  -1.820234e+02   5.601747e+01
  -1.366040e+02  -6.808230e+01
  -2.358564e+01  -1.597922e+02
   7.707426e+01  -1.459740e+02
   1.110200e+02  -5.555135e+01
   7.876586e+01   2.216305e+01
   2.402775e+01   3.451240e+01
  -4.329890e+00   7.504925e+00
   8.701991e+00   2.475948e+00
   3.287185e+01   4.344139e+01
   2.372023e+01   8.787645e+01
  -2.823313e+01   7.051633e+01
  -8.025514e+01  -1.867144e+01
  -7.542782e+01  -1.077180e+02
  -2.332448e+00  -1.105828e+02
   8.231605e+01  -2.145322e+01
   1.002421e+02   7.637106e+01
   2.932997e+01   1.012943e+02
  -6.580107e+01   5.184454e+01
  -9.422961e+01  -1.326356e+01
  -3.646301e+01  -4.814553e+01
   3.191435e+01  -4.839150e+01
   2.869585e+01  -2.722188e+01
  -3.483176e+01  -7.484233e-01
  -6.773426e+01   6.107052e+00
  -1.370812e+01  -2.402253e+01
   7.744912e+01  -6.486505e+01
   1.116545e+02  -5.908754e+01
   6.093275e+01   1.021162e+01
  -1.556778e+01   8.107102e+01
  -5.036748e+01   7.751091e+01
  -3.450548e+01   4.310723e+00
  -6.646007e-01  -5.570354e+01
   2.516244e+01  -4.101956e+01
   3.530502e+01   1.962919e+01
   2.543960e+01   5.294598e+01
  -3.248346e+00   3.038332e+01
  -3.237224e+01  -9.714856e+00
  -3.845689e+01  -1.986452e+01
  -2.014285e+01   3.324780e-02
   8.804908e-02   1.260669e+01
   6.937897e+00  -5.866219e+00
   9.167018e+00  -3.748066e+01
   1.990740e+01  -4.195716e+01
   3.268609e+01  -3.677149e+00
   2.673509e+01   4.684767e+01
  -5.814636e+00   5.981965e+01
  -4.466000e+01   1.830440e+01
  -5.340817e+01  -4.027225e+01
  -1.250785e+01  -6.219136e+01
   5.321077e+01  -3.228087e+01
   8.539918e+01   1.636824e+01
   4.727092e+01   4.325000e+01
  -2.825794e+01   3.857901e+01
  -6.320348e+01   1.930299e+01
  -2.271061e+01   4.486444e+00
   3.827645e+01   3.737411e+00
   3.775583e+01   1.769284e+01
  -3.227614e+01   3.193413e+01
  -9.307665e+01   1.873745e+01
