
 $NMID
 id='ANONYMOUS ', fmtdat='(2E16.6)'
 volume=1.0
 tramp=1.0
 $END
  -4.390782e+03  -1.853268e+01
  -2.591964e+03  -2.593065e+03
   7.725390e+02  -2.880408e+03
   2.171582e+03  -8.296913e+02
   1.032046e+03   7.542182e+02
  -6.838310e+02   6.907109e+02
  -9.760876e+02  -3.990962e+02
  -6.514585e+01  -1.149487e+03
   8.442613e+02  -7.939576e+02
   9.814957e+02   7.750022e+01
   4.842679e+02   8.689052e+02
  -2.927318e+02   9.632515e+02
  -6.725719e+02   1.416463e+02
  -3.692194e+02  -7.899763e+02
   2.555300e+02  -8.006626e+02
   6.468467e+02   5.251007e+01
   2.993258e+02   7.205759e+02
  -3.250854e+02   6.786710e+02
  -5.962986e+02   5.032435e+01
  -3.912036e+02  -3.714375e+02
  -3.499198e+01  -4.589254e+02
   2.693564e+02  -2.718600e+02
   2.348416e+02  -3.559604e+01
  -1.263647e+02   1.049711e+02
  -4.333974e+02  -9.832941e+01
  -2.247430e+02  -4.259420e+02
   4.571390e+02  -4.187783e+02
   8.792571e+02   7.608183e+01
   4.576834e+02   5.659685e+02
  -3.882051e+02   5.177214e+02
  -7.718143e+02  -1.928518e+01
  -3.586536e+02  -4.925838e+02
   2.898836e+02  -5.386635e+02
   5.712055e+02  -2.088737e+02
   4.363327e+02   2.374480e+02
   8.133116e+01   4.905882e+02
  -2.172445e+02   2.829948e+02
  -2.037902e+02  -2.532248e+02
   1.641876e+02  -4.766493e+02
   4.841282e+02   1.076093e+01
   2.604850e+02   7.109223e+02
  -3.382661e+02   7.402777e+02
  -6.426717e+02  -3.560378e-01
  -2.707842e+02  -5.875755e+02
   3.267500e+02  -3.374709e+02
   4.147892e+02   3.440122e+02
  -7.551671e+01   5.691258e+02
  -5.798124e+02   1.441798e+02
  -6.145570e+02  -4.286385e+02
  -1.670734e+02  -6.112419e+02
   4.025202e+02  -3.617632e+02
   6.545250e+02   8.299711e+01
   3.882835e+02   4.141273e+02
  -1.638161e+02   3.904503e+02
  -4.701799e+02   5.405157e+01
  -2.553769e+02  -2.196680e+02
   1.315150e+02  -1.209207e+02
   1.596353e+02   1.682201e+02
  -1.740859e+02   2.130493e+02
  -3.761482e+02  -7.014998e+01
  -1.579724e+02  -3.280611e+02
   2.165044e+02  -2.937182e+02
   3.552860e+02  -8.394616e+01
   2.096523e+02   9.877250e+01
  -2.546683e+01   2.385072e+02
  -2.223194e+02   3.280053e+02
  -3.351183e+02   2.130119e+02
  -2.881830e+02  -1.421883e+02
  -7.825361e+01  -4.399140e+02
   1.145190e+02  -3.857053e+02
   1.195573e+02  -1.116292e+02
   2.358595e+01   1.086831e+01
   4.446589e+01  -9.237757e+01
   2.016216e+02  -1.380005e+02
   2.887192e+02   4.793667e+01
   1.660249e+02   2.723624e+02
  -6.982311e+01   2.630706e+02
  -2.302525e+02   1.763710e+01
  -2.066119e+02  -2.365978e+02
   2.923201e+00  -2.988066e+02
   2.690458e+02  -1.299283e+02
   3.773319e+02   1.609118e+02
   2.015630e+02   3.584584e+02
  -1.005427e+02   3.220639e+02
  -2.405534e+02   1.250958e+02
  -1.522186e+02  -2.900619e+00
  -8.837055e+01   3.390653e+01
  -2.288926e+02   8.253210e+01
  -4.162954e+02  -3.974109e+01
  -3.547404e+02  -2.852641e+02
  -6.699155e+00  -4.590363e+02
   3.673997e+02  -4.316673e+02
   5.003532e+02  -2.122062e+02
   3.469514e+02   9.052786e+01
   6.084739e+01   3.015877e+02
  -1.298144e+02   2.632558e+02
  -8.575825e+01   3.228028e+01
   1.114443e+02  -1.146659e+02
   2.074415e+02  -3.979627e-01
   5.955939e+01   2.033155e+02
  -1.677317e+02   1.853931e+02
  -1.957187e+02  -5.886932e+01
   1.131549e+01  -2.054712e+02
   2.058539e+02  -4.228414e+01
   1.791204e+02   2.543558e+02
  -2.579124e+01   3.627299e+02
  -2.354405e+02   2.006949e+02
  -3.332718e+02  -6.172566e+01
  -2.833207e+02  -2.406726e+02
  -9.808470e+01  -2.656936e+02
   1.135576e+02  -1.613023e+02
   1.803565e+02  -1.909798e+01
   5.685006e+01   3.568309e+01
  -7.736456e+01  -3.985657e+01
  -3.439125e+01  -1.338759e+02
   1.287256e+02  -1.089302e+02
   1.872324e+02   1.117246e+01
   6.033861e+01   7.743819e+01
  -8.510677e+01   2.020872e+01
  -5.915226e+01  -7.427364e+01
   1.247292e+02  -9.128917e+01
   2.860196e+02  -5.726411e+00
   2.687959e+02   1.343189e+02
   6.654260e+01   2.549466e+02
  -1.807313e+02   2.691168e+02
  -2.866751e+02   1.365736e+02
  -1.754577e+02  -4.873744e+01
   2.524588e+01  -1.138810e+02
   9.732842e+01  -1.008465e+01
  -3.098824e+01   1.068161e+02
  -2.040948e+02   6.576295e+01
  -2.254686e+02  -1.024538e+02
  -7.470726e+01  -2.138081e+02
   9.774414e+01  -1.642729e+02
   1.503468e+02  -3.238984e+01
   7.445579e+01   4.089691e+01
  -2.809708e+01   4.185880e+00
  -4.071476e+01  -8.178375e+01
   6.840849e+01  -1.145065e+02
   1.995780e+02  -3.327415e+01
   1.985625e+02   1.219540e+02
   2.679257e+01   2.236154e+02
  -1.672958e+02   1.712590e+02
  -2.016262e+02   6.925274e+00
  -6.904968e+01  -1.206719e+02
   6.943792e+01  -1.162549e+02
   8.728966e+01  -3.024790e+01
   1.961552e+01   2.839233e+01
  -2.229120e+01   1.861953e+01
   1.030229e+01  -9.382718e+00
   7.258846e+01   8.444114e+00
   9.049363e+01   8.336999e+01
   1.726010e+01   1.603783e+02
  -1.259152e+02   1.561793e+02
  -2.374398e+02   3.053458e+01
  -2.083500e+02  -1.481024e+02
  -4.593334e+01  -2.404150e+02
   1.104437e+02  -1.743732e+02
   1.383973e+02  -2.874865e+01
   7.060094e+01   5.617695e+01
   2.692113e+01   3.556566e+01
   5.253804e+01  -1.318242e+01
   8.006381e+01  -8.215133e+00
   4.201033e+01   4.767201e+01
  -4.188183e+01   8.639088e+01
  -1.008936e+02   5.559612e+01
  -8.406669e+01  -3.310147e+01
   1.220667e+01  -1.088810e+02
   1.390636e+02  -8.734819e+01
   1.986565e+02   4.729901e+01
   1.054661e+02   2.013877e+02
  -1.030425e+02   2.343953e+02
  -2.699194e+02   1.024638e+02
  -2.639557e+02  -8.407770e+01
  -1.150485e+02  -1.796731e+02
   3.802528e+01  -1.514813e+02
   9.553552e+01  -8.644312e+01
   7.995036e+01  -7.079467e+01
   6.614701e+01  -9.315670e+01
   9.251873e+01  -7.697283e+01
   1.305920e+02   2.021908e+01
   1.220175e+02   1.547687e+02
   3.381487e+01   2.299075e+02
  -9.790646e+01   1.770479e+02
  -1.790708e+02   2.321369e+01
  -1.416172e+02  -1.228341e+02
  -2.212263e+01  -1.630102e+02
   6.751974e+01  -9.502118e+01
   6.137231e+01  -1.019175e+00
   5.556251e+00   4.340460e+01
  -9.800832e+00   3.444324e+01
   3.738408e+01   1.678560e+01
   8.023239e+01   2.099360e+01
   4.534872e+01   3.758028e+01
  -6.292347e+01   3.807149e+01
  -1.573142e+02   5.851110e+00
  -1.440996e+02  -4.812341e+01
  -1.767121e+01  -8.727316e+01
   1.190588e+02  -7.551669e+01
   1.457649e+02  -1.607801e+01
   4.950575e+01   3.962181e+01
  -6.073636e+01   3.819446e+01
  -7.755871e+01  -1.765157e+01
  -8.429463e+00  -6.791338e+01
   5.637672e+01  -5.852768e+01
   6.385067e+01   1.090570e+00
   4.418994e+01   4.941479e+01
   4.382067e+01   4.146171e+01
   6.213031e+01   2.039141e+00
   6.649314e+01   7.025510e-02
   3.502875e+01   6.742866e+01
  -3.189120e+01   1.463708e+02
  -1.140569e+02   1.432014e+02
  -1.630818e+02   3.553611e+01
  -1.247201e+02  -8.965897e+01
  -9.243531e+00  -1.261965e+02
   8.475109e+01  -6.199066e+01
   6.007042e+01   1.488119e+01
  -5.989714e+01   2.041849e+01
  -1.402069e+02  -4.320509e+01
  -7.866437e+01  -1.081883e+02
   8.029753e+01  -1.150843e+02
   1.937264e+02  -5.563027e+01
   1.663704e+02   3.175449e+01
   3.928829e+01   8.827551e+01
  -6.169889e+01   7.401064e+01
  -5.130175e+01   9.777117e+00
   3.759863e+01  -2.774075e+01
   9.155352e+01   2.038440e+01
   3.452849e+01   1.183623e+02
  -9.136299e+01   1.562861e+02
  -1.691687e+02   6.419038e+01
  -1.286580e+02  -1.010810e+02
  -1.142388e+01  -2.001073e+02
   8.560816e+01  -1.466848e+02
   1.057410e+02   6.081772e+00
   6.275388e+01   1.192700e+02
   1.406256e-01   1.083183e+02
  -4.603974e+01   2.103754e+01
  -5.409602e+01  -3.178071e+01
  -2.752681e+01  -9.269955e+00
  -3.403095e+00   2.096693e+01
  -1.936668e+01  -1.396862e+01
  -5.641052e+01  -8.820820e+01
  -4.447955e+01  -1.104601e+02
   4.588682e+01  -4.662495e+01
   1.403563e+02   3.880772e+01
   1.326531e+02   7.103941e+01
   1.769180e+01   4.995187e+01
  -9.000848e+01   2.268193e+01
  -8.950241e+01   8.494014e+00
  -9.808884e+00  -6.902281e+00
   3.989728e+01  -2.288165e+01
   1.383954e+01  -1.903906e+01
  -2.245188e+01   1.601972e+00
   5.901540e+00   1.017307e+01
   7.554755e+01   4.658943e+00
   9.198321e+01   2.376859e+01
   7.194044e+00   8.027818e+01
  -1.201137e+02   1.153494e+02
  -1.861144e+02   5.979849e+01
  -1.419012e+02  -6.751407e+01
  -2.685515e+01  -1.637427e+02
   7.754934e+01  -1.517606e+02
   1.139344e+02  -5.929720e+01
   8.178123e+01   2.164463e+01
   2.590794e+01   3.521976e+01
  -3.123676e+00   7.900582e+00
   9.969952e+00   3.333872e+00
   3.382486e+01   4.589461e+01
   2.398714e+01   9.097003e+01
  -2.893330e+01   7.220385e+01
  -8.210599e+01  -1.919048e+01
  -7.776723e+01  -1.096440e+02
  -3.716376e+00  -1.127560e+02
   8.369857e+01  -2.291653e+01
   1.040338e+02   7.643868e+01
   3.253091e+01   1.034825e+02
  -6.611888e+01   5.530316e+01
  -9.774056e+01  -1.085703e+01
  -3.982849e+01  -4.856037e+01
   3.137788e+01  -5.080975e+01
   3.014114e+01  -2.912397e+01
  -3.440447e+01  -5.288682e-01
  -6.926827e+01   7.240283e+00
  -1.518156e+01  -2.424555e+01
   7.833932e+01  -6.705875e+01
   1.148079e+02  -6.137012e+01
   6.399466e+01   1.027424e+01
  -1.461732e+01   8.384139e+01
  -5.176386e+01   8.072531e+01
  -3.648544e+01   5.687796e+00
  -1.883766e+00  -5.652355e+01
   2.483064e+01  -4.265950e+01
   3.565243e+01   1.869622e+01
   2.648859e+01   5.311769e+01
  -2.161894e+00   3.128962e+01
  -3.205534e+01  -8.924951e+00
  -3.911128e+01  -1.955900e+01
  -2.102707e+01   6.469114e-02
  -3.636674e-02   1.297982e+01
   7.131827e+00  -5.111316e+00
   8.192694e+00  -3.714465e+01
   1.805732e+01  -4.322304e+01
   3.201543e+01  -5.604202e+00
   2.851909e+01   4.599163e+01
  -3.621509e+00   6.051995e+01
  -4.472855e+01   1.943511e+01
  -5.579196e+01  -4.038897e+01
  -1.427654e+01  -6.389052e+01
   5.471931e+01  -3.428914e+01
   8.929450e+01   1.546342e+01
   5.023073e+01   4.415468e+01
  -2.807749e+01   4.080592e+01
  -6.496488e+01   2.149435e+01
  -2.401697e+01   5.329537e+00
   3.823859e+01   3.220857e+00
   3.816352e+01   1.704349e+01
  -3.225664e+01   3.220945e+01
  -9.386059e+01   1.962226e+01
