
 $NMID
 id='ANONYMOUS ', fmtdat='(2E16.6)'
 volume=1.0
 tramp=1.0
 $END
   4.515882e+03  -5.195201e+01
   2.679875e+03   2.538564e+03
  -9.117608e+02   2.895150e+03
  -2.212260e+03   8.617023e+02
  -1.089699e+03  -7.174553e+02
   7.303306e+02  -6.512490e+02
   9.040317e+02   4.006184e+02
  -9.730652e+01   1.114217e+03
  -8.823864e+02   7.933024e+02
  -9.588852e+02  -8.059305e+01
  -5.020114e+02  -8.663254e+02
   2.559120e+02  -9.482262e+02
   6.633611e+02  -9.791022e+01
   4.120756e+02   7.534594e+02
  -2.731184e+02   7.778737e+02
  -6.158740e+02   4.420234e+00
  -3.033271e+02  -7.224420e+02
   3.427643e+02  -6.956333e+02
   6.384303e+02  -1.298228e+02
   4.047348e+02   3.766823e+02
  -1.076755e+01   4.611091e+02
  -2.488144e+02   2.725540e+02
  -2.153565e+02   6.399053e+00
   1.162061e+02  -6.678031e+01
   4.107450e+02   1.400114e+02
   1.890689e+02   4.319345e+02
  -4.843981e+02   4.100256e+02
  -8.486396e+02  -7.263684e+01
  -4.326314e+02  -5.596507e+02
   4.017749e+02  -4.904626e+02
   7.468691e+02   1.387855e+01
   3.548627e+02   4.842419e+02
  -2.860158e+02   5.108810e+02
  -5.882060e+02   2.044510e+02
  -4.260765e+02  -2.325985e+02
  -5.023788e+01  -4.798759e+02
   2.263319e+02  -2.904215e+02
   1.714513e+02   2.271192e+02
  -1.854740e+02   4.432628e+02
  -4.684876e+02  -2.982981e+01
  -2.412542e+02  -7.049187e+02
   3.436015e+02  -7.144527e+02
   6.222044e+02  -2.773368e+00
   2.504622e+02   5.632557e+02
  -3.022466e+02   3.182169e+02
  -3.758693e+02  -3.333679e+02
   8.603043e+01  -5.584820e+02
   5.672189e+02  -1.392953e+02
   5.995433e+02   4.129801e+02
   1.637102e+02   5.957928e+02
  -3.893036e+02   3.503220e+02
  -6.360549e+02  -8.128962e+01
  -3.725546e+02  -3.972693e+02
   1.623033e+02  -3.748057e+02
   4.550862e+02  -5.722850e+01
   2.470818e+02   2.026436e+02
  -1.240271e+02   1.131084e+02
  -1.524215e+02  -1.551043e+02
   1.658700e+02  -1.923684e+02
   3.606421e+02   7.292874e+01
   1.511327e+02   3.054892e+02
  -2.136959e+02   2.648546e+02
  -3.516081e+02   6.799571e+01
  -2.051911e+02  -1.017032e+02
   3.544735e+01  -2.381082e+02
   2.367235e+02  -3.290560e+02
   3.474999e+02  -2.159257e+02
   2.968170e+02   1.364442e+02
   8.552472e+01   4.359181e+02
  -1.093601e+02   3.928462e+02
  -1.220702e+02   1.290468e+02
  -3.454821e+01   8.213640e-01
  -5.397263e+01   8.678037e+01
  -1.999624e+02   1.220648e+02
  -2.793306e+02  -5.961301e+01
  -1.611318e+02  -2.741907e+02
   6.564459e+01  -2.576831e+02
   2.234028e+02  -9.487913e+00
   1.992307e+02   2.445437e+02
  -6.843507e+00   2.988356e+02
  -2.703956e+02   1.145828e+02
  -3.707481e+02  -1.789346e+02
  -1.934349e+02  -3.668641e+02
   1.010217e+02  -3.147848e+02
   2.322982e+02  -1.204313e+02
   1.562774e+02  -4.503370e+00
   1.043533e+02  -3.822740e+01
   2.447405e+02  -6.636368e+01
   4.137735e+02   6.139483e+01
   3.355761e+02   2.943179e+02
  -9.751984e+00   4.526468e+02
  -3.691720e+02   4.174167e+02
  -4.939812e+02   2.031286e+02
  -3.361333e+02  -9.232224e+01
  -5.633335e+01  -2.947923e+02
   1.266063e+02  -2.563805e+02
   7.445431e+01  -3.294539e+01
  -1.152402e+02   1.062224e+02
  -1.972804e+02  -9.787715e+00
  -4.560767e+01  -2.023506e+02
   1.674046e+02  -1.747453e+02
   1.815989e+02   6.481613e+01
  -2.173754e+01   1.979483e+02
  -2.013693e+02   3.170758e+01
  -1.661996e+02  -2.559004e+02
   3.585038e+01  -3.581134e+02
   2.383228e+02  -1.957368e+02
   3.333427e+02   6.677925e+01
   2.815260e+02   2.450100e+02
   9.488864e+01   2.677337e+02
  -1.160342e+02   1.614169e+02
  -1.802238e+02   2.074774e+01
  -5.883859e+01  -3.109545e+01
   7.135673e+01   4.201505e+01
   2.968471e+01   1.281151e+02
  -1.260989e+02   1.003771e+02
  -1.809945e+02  -1.350443e+01
  -5.905756e+01  -7.250801e+01
   8.033846e+01  -1.487143e+01
   5.490584e+01   7.525561e+01
  -1.248885e+02   8.852780e+01
  -2.841876e+02   6.672855e-01
  -2.659302e+02  -1.406020e+02
  -6.174265e+01  -2.579275e+02
   1.847688e+02  -2.639085e+02
   2.853932e+02  -1.268960e+02
   1.707586e+02   5.308782e+01
  -2.605025e+01   1.099868e+02
  -9.224671e+01   6.087246e+00
   3.410728e+01  -1.039697e+02
   1.985942e+02  -5.974964e+01
   2.152665e+02   1.042309e+02
   6.959121e+01   2.102451e+02
  -9.431673e+01   1.595158e+02
  -1.434737e+02   2.946208e+01
  -7.063477e+01  -4.128289e+01
   2.600044e+01  -1.472214e+00
   3.465314e+01   8.548269e+01
  -7.346210e+01   1.141970e+02
  -1.986733e+02   2.776016e+01
  -1.916886e+02  -1.263840e+02
  -2.059655e+01  -2.209905e+02
   1.663055e+02  -1.646575e+02
   1.953182e+02  -4.375060e+00
   6.470287e+01   1.169863e+02
  -6.800809e+01   1.129359e+02
  -8.392780e+01   3.062141e+01
  -1.904546e+01  -2.613223e+01
   1.963062e+01  -1.884441e+01
  -1.214406e+01   6.860454e+00
  -7.201932e+01  -1.070159e+01
  -8.739368e+01  -8.395152e+01
  -1.286700e+01  -1.600554e+02
   1.288349e+02  -1.534036e+02
   2.362719e+02  -2.508457e+01
   2.037023e+02   1.524843e+02
   4.120253e+01   2.406025e+02
  -1.109945e+02   1.716366e+02
  -1.379429e+02   2.661098e+01
  -7.081805e+01  -5.701644e+01
  -2.946588e+01  -3.678738e+01
  -5.477988e+01   1.219140e+01
  -8.031172e+01   5.652379e+00
  -4.074099e+01  -5.147636e+01
   4.370417e+01  -8.924868e+01
   1.039822e+02  -5.493461e+01
   8.656381e+01   3.712315e+01
  -1.382318e+01   1.126972e+02
  -1.438553e+02   8.695049e+01
  -1.997510e+02  -5.249252e+01
  -1.018283e+02  -2.044813e+02
   1.076214e+02  -2.303988e+02
   2.696646e+02  -9.598818e+01
   2.596826e+02   8.693755e+01
   1.100543e+02   1.777415e+02
  -3.926341e+01   1.478010e+02
  -9.550049e+01   8.467703e+01
  -8.073587e+01   7.030398e+01
  -6.846305e+01   9.167525e+01
  -9.367346e+01   7.434256e+01
  -1.289450e+02  -2.236878e+01
  -1.183371e+02  -1.551697e+02
  -3.005756e+01  -2.286260e+02
   9.973267e+01  -1.749409e+02
   1.780360e+02  -2.063316e+01
   1.381776e+02   1.250270e+02
   1.852229e+01   1.631433e+02
  -6.965914e+01   9.271981e+01
  -6.172977e+01  -1.220873e+00
  -4.670079e+00  -4.341681e+01
   1.098157e+01  -3.337096e+01
  -3.693040e+01  -1.754305e+01
  -8.072474e+01  -2.396206e+01
  -4.520362e+01  -3.973243e+01
   6.479283e+01  -3.672861e+01
   1.593312e+02  -1.315994e+00
   1.436143e+02   5.252411e+01
   1.433721e+01   8.851854e+01
  -1.219230e+02   7.374182e+01
  -1.457514e+02   1.370902e+01
  -4.832574e+01  -4.038438e+01
   6.021927e+01  -3.723995e+01
   7.541556e+01   1.910035e+01
   7.412331e+00   6.895838e+01
  -5.552336e+01   5.898269e+01
  -6.361087e+01  -1.509991e+00
  -4.579592e+01  -5.080126e+01
  -4.550618e+01  -4.336471e+01
  -6.216629e+01  -3.029334e+00
  -6.570536e+01  -6.628113e-01
  -3.460696e+01  -6.831173e+01
   3.355664e+01  -1.477486e+02
   1.179797e+02  -1.430431e+02
   1.665135e+02  -3.238118e+01
   1.246131e+02   9.426858e+01
   5.820487e+00   1.287251e+02
  -8.789636e+01   6.166745e+01
  -6.107049e+01  -1.604073e+01
   5.926659e+01  -2.021603e+01
   1.375811e+02   4.435604e+01
   7.550809e+01   1.079702e+02
  -8.150532e+01   1.119239e+02
  -1.917731e+02   5.121727e+01
  -1.635231e+02  -3.435958e+01
  -3.744266e+01  -8.734223e+01
   6.181368e+01  -7.083733e+01
   5.016813e+01  -7.157001e+00
  -3.894057e+01   2.788252e+01
  -9.211637e+01  -2.198536e+01
  -3.439405e+01  -1.196871e+02
   9.143109e+01  -1.560870e+02
   1.685487e+02  -6.324653e+01
   1.272724e+02   1.011849e+02
   9.742992e+00   1.985840e+02
  -8.631502e+01   1.438752e+02
  -1.047761e+02  -8.506942e+00
  -6.022525e+01  -1.196235e+02
   2.417985e+00  -1.068932e+02
   4.671638e+01  -1.946289e+01
   5.310028e+01   3.162271e+01
   2.685274e+01   8.297308e+00
   4.368434e+00  -2.068213e+01
   2.054884e+01   1.606556e+01
   5.561886e+01   9.007971e+01
   4.193198e+01   1.104011e+02
  -4.749148e+01   4.522790e+01
  -1.394713e+02  -3.990912e+01
  -1.310916e+02  -7.137791e+01
  -1.786407e+01  -5.010191e+01
   8.846467e+01  -2.262936e+01
   8.883203e+01  -7.990940e+00
   1.048237e+01   7.257901e+00
  -3.931555e+01   2.213403e+01
  -1.432139e+01   1.766214e+01
   2.188086e+01  -1.796803e+00
  -5.532390e+00  -8.970719e+00
  -7.492380e+01  -4.212695e+00
  -9.218805e+01  -2.517038e+01
  -7.861320e+00  -8.207746e+01
   1.204496e+02  -1.150705e+02
   1.875009e+02  -5.778064e+01
   1.425008e+02   6.886834e+01
   2.567367e+01   1.631229e+02
  -7.935202e+01   1.503865e+02
  -1.144628e+02   5.886275e+01
  -8.119533e+01  -2.129978e+01
  -2.549922e+01  -3.551706e+01
   2.768249e+00  -9.289955e+00
  -9.755760e+00  -4.597693e+00
  -3.248763e+01  -4.589559e+01
  -2.215681e+01  -8.974123e+01
   2.973713e+01  -7.102128e+01
   8.154919e+01   1.960088e+01
   7.676244e+01   1.095742e+02
   2.919809e+00   1.130376e+02
  -8.414460e+01   2.373577e+01
  -1.041327e+02  -7.631586e+01
  -3.203272e+01  -1.046774e+02
   6.692913e+01  -5.619034e+01
   9.791264e+01   1.152131e+01
   3.899109e+01   5.010854e+01
  -3.259723e+01   5.128703e+01
  -3.049670e+01   2.823139e+01
   3.479132e+01   2.266845e-01
   6.917202e+01  -6.037816e+00
   1.405309e+01   2.490789e+01
  -7.989757e+01   6.524494e+01
  -1.155741e+02   5.805466e+01
  -6.361637e+01  -1.188863e+01
   1.604146e+01  -8.295740e+01
   5.322963e+01  -7.975152e+01
   3.747927e+01  -6.177496e+00
   1.868910e+00   5.595887e+01
  -2.587386e+01   4.339136e+01
  -3.690057e+01  -1.808912e+01
  -2.690861e+01  -5.428672e+01
   2.846177e+00  -3.317757e+01
   3.326699e+01   8.431002e+00
   3.973143e+01   2.103370e+01
   2.101327e+01   8.200937e-01
  -3.084974e-02  -1.454566e+01
  -6.251171e+00   3.044649e+00
  -6.884262e+00   3.715681e+01
  -1.738204e+01   4.520538e+01
  -3.257739e+01   7.584984e+00
  -2.950064e+01  -4.548959e+01
   3.134359e+00  -6.101721e+01
   4.479428e+01  -2.001804e+01
   5.568497e+01   3.993273e+01
   1.356558e+01   6.342298e+01
  -5.524032e+01   3.384133e+01
  -8.885134e+01  -1.590119e+01
  -4.919043e+01  -4.440825e+01
   2.889022e+01  -4.082930e+01
   6.521059e+01  -2.130159e+01
   2.451201e+01  -4.962499e+00
  -3.755558e+01  -2.754809e+00
  -3.803476e+01  -1.608991e+01
   3.114331e+01  -3.085624e+01
   9.212722e+01  -1.864801e+01
