
 $NMID
 id='ANONYMOUS ', fmtdat='(2E16.6)'
 volume=1.0
 tramp=1.0
 $END
   4.613319e+03   4.158633e+01
   2.744521e+03   2.904715e+03
  -1.065839e+03   2.857528e+03
  -2.424346e+03   9.084381e+02
  -9.190606e+02  -8.652070e+02
   8.883987e+02  -6.006828e+02
   9.483520e+02   5.852400e+02
  -6.735597e+01   1.207647e+03
  -9.054171e+02   8.058517e+02
  -9.855626e+02  -1.453564e+02
  -4.320769e+02  -9.441292e+02
   3.539795e+02  -9.400524e+02
   7.303928e+02  -8.896644e+01
   4.324878e+02   8.127701e+02
  -3.461097e+02   8.204744e+02
  -6.298613e+02  -3.085638e+01
  -2.709526e+02  -7.594396e+02
   3.752384e+02  -6.539415e+02
   6.008926e+02  -5.306262e+01
   3.665436e+02   3.940391e+02
  -3.548326e+01   4.818887e+02
  -2.842576e+02   2.717772e+02
  -2.554668e+02  -2.285746e+00
   1.037213e+02  -1.285964e+02
   4.428832e+02   5.777095e+01
   2.692927e+02   4.604655e+02
  -4.783749e+02   5.091115e+02
  -9.429370e+02  -4.749573e+01
  -4.900993e+02  -6.067306e+02
   4.363239e+02  -5.667512e+02
   8.392082e+02   1.546744e+01
   4.042909e+02   5.476695e+02
  -2.939139e+02   5.607991e+02
  -6.268303e+02   2.361544e+02
  -4.612348e+02  -2.355588e+02
  -7.409780e+01  -5.228015e+02
   2.427334e+02  -3.197725e+02
   2.182639e+02   2.386859e+02
  -1.697968e+02   5.140675e+02
  -5.267416e+02   1.281405e+01
  -3.110134e+02  -7.545443e+02
   3.393856e+02  -7.928959e+02
   6.878606e+02  -1.331110e+01
   3.108133e+02   6.219826e+02
  -3.131295e+02   3.866032e+02
  -4.406095e+02  -3.178180e+02
   4.828968e+01  -5.852808e+02
   5.878162e+02  -1.656855e+02
   6.430703e+02   4.145974e+02
   1.783402e+02   6.299607e+02
  -4.148832e+02   3.910823e+02
  -6.857126e+02  -6.857871e+01
  -4.031622e+02  -4.317356e+02
   1.816461e+02  -4.171793e+02
   4.966146e+02  -5.544211e+01
   2.587869e+02   2.417426e+02
  -1.528003e+02   1.315331e+02
  -1.761939e+02  -1.835948e+02
   1.808749e+02  -2.228570e+02
   3.880541e+02   8.527481e+01
   1.547462e+02   3.369785e+02
  -2.219068e+02   2.691484e+02
  -3.414529e+02   5.681568e+01
  -1.873320e+02  -8.386125e+01
   2.539745e+01  -1.991294e+02
   2.021566e+02  -3.217489e+02
   3.332386e+02  -2.471704e+02
   3.189045e+02   1.229075e+02
   1.039729e+02   4.685939e+02
  -1.287392e+02   4.240705e+02
  -1.530909e+02   1.094315e+02
  -2.907578e+01  -4.345804e+01
  -1.537101e+01   7.981444e+01
  -1.784554e+02   1.612512e+02
  -3.001668e+02  -2.417397e+01
  -1.940775e+02  -2.798810e+02
   6.278258e+01  -2.901031e+02
   2.521118e+02  -2.975405e+01
   2.265929e+02   2.513399e+02
  -3.171576e+00   3.186915e+02
  -2.877517e+02   1.295305e+02
  -3.881129e+02  -1.771952e+02
  -1.951141e+02  -3.758176e+02
   1.156523e+02  -3.258833e+02
   2.500201e+02  -1.199811e+02
   1.608869e+02   5.461618e+00
   9.639670e+01  -2.924151e+01
   2.319594e+02  -6.750848e+01
   4.046992e+02   5.414908e+01
   3.433294e+02   2.875422e+02
   1.011022e+01   4.549749e+02
  -3.570092e+02   4.328165e+02
  -5.028206e+02   2.222440e+02
  -3.663557e+02  -8.783851e+01
  -7.498062e+01  -3.158903e+02
   1.410696e+02  -2.823159e+02
   1.025263e+02  -3.304960e+01
  -1.098947e+02   1.331043e+02
  -2.235997e+02   7.223844e+00
  -6.936728e+01  -2.191666e+02
   1.766463e+02  -2.045815e+02
   2.068819e+02   5.876387e+01
  -1.137475e+01   2.174208e+02
  -2.113820e+02   4.728161e+01
  -1.769333e+02  -2.595422e+02
   3.458284e+01  -3.653672e+02
   2.373548e+02  -1.952454e+02
   3.288888e+02   6.570018e+01
   2.858957e+02   2.364476e+02
   1.091673e+02   2.653799e+02
  -1.099531e+02   1.728984e+02
  -1.921875e+02   3.165789e+01
  -7.269529e+01  -3.597327e+01
   7.441500e+01   2.959387e+01
   4.301954e+01   1.275034e+02
  -1.228148e+02   1.131929e+02
  -1.926410e+02  -4.647294e+00
  -7.080756e+01  -7.820225e+01
   7.972547e+01  -2.695581e+01
   6.226888e+01   6.871026e+01
  -1.185660e+02   9.107779e+01
  -2.839917e+02   8.486228e+00
  -2.729003e+02  -1.344294e+02
  -7.157311e+01  -2.613128e+02
   1.824051e+02  -2.781175e+02
   2.966902e+02  -1.396152e+02
   1.865204e+02   5.607422e+01
  -2.201409e+01   1.258616e+02
  -1.027847e+02   1.630432e+01
   2.379631e+01  -1.101261e+02
   2.017182e+02  -7.226852e+01
   2.276687e+02   1.009801e+02
   7.762227e+01   2.190374e+02
  -9.760582e+01   1.710150e+02
  -1.539494e+02   3.476434e+01
  -7.974552e+01  -4.492406e+01
   2.488815e+01  -1.121474e+01
   4.229230e+01   7.675811e+01
  -6.414208e+01   1.142655e+02
  -1.972279e+02   3.612534e+01
  -1.995003e+02  -1.199804e+02
  -2.783422e+01  -2.248781e+02
   1.689228e+02  -1.743685e+02
   2.059262e+02  -8.446010e+00
   7.277291e+01   1.230776e+02
  -6.880331e+01   1.225776e+02
  -9.192708e+01   3.581332e+01
  -2.800410e+01  -2.851338e+01
   1.591820e+01  -2.575099e+01
  -7.650413e+00   6.233500e-01
  -6.300052e+01  -1.038209e+01
  -8.383550e+01  -7.668375e+01
  -2.001744e+01  -1.538169e+02
   1.193614e+02  -1.564158e+02
   2.358318e+02  -3.454182e+01
   2.115602e+02   1.483238e+02
   4.763145e+01   2.469665e+02
  -1.137986e+02   1.806790e+02
  -1.441692e+02   2.800883e+01
  -7.357504e+01  -6.276665e+01
  -2.868914e+01  -4.241244e+01
  -5.256376e+01   1.153997e+01
  -7.746239e+01   8.434658e+00
  -3.851023e+01  -4.708034e+01
   4.244770e+01  -8.499814e+01
   9.686129e+01  -5.451357e+01
   8.111561e+01   3.227697e+01
  -1.084763e+01   1.075961e+02
  -1.368975e+02   8.798641e+01
  -1.988554e+02  -4.532805e+01
  -1.095429e+02  -2.012434e+02
   1.004377e+02  -2.373674e+02
   2.728057e+02  -1.066987e+02
   2.704407e+02   8.407600e+01
   1.187588e+02   1.834623e+02
  -3.822157e+01   1.551307e+02
  -9.899223e+01   8.837910e+01
  -8.377598e+01   7.195453e+01
  -7.035987e+01   9.301892e+01
  -9.486764e+01   7.493019e+01
  -1.308695e+02  -2.370504e+01
  -1.208522e+02  -1.580072e+02
  -3.233543e+01  -2.311384e+02
   9.953580e+01  -1.772658e+02
   1.807746e+02  -2.397506e+01
   1.429420e+02   1.219007e+02
   2.349997e+01   1.634340e+02
  -6.596376e+01   9.774191e+01
  -6.130190e+01   5.117382e+00
  -8.479227e+00  -4.080058e+01
   5.714489e+00  -3.551190e+01
  -3.848737e+01  -2.061916e+01
  -7.793031e+01  -2.405721e+01
  -4.338187e+01  -3.783147e+01
   6.212442e+01  -3.686161e+01
   1.564300e+02  -5.157556e+00
   1.463518e+02   4.859910e+01
   2.067811e+01   8.871171e+01
  -1.196037e+02   7.748399e+01
  -1.492830e+02   1.724236e+01
  -5.142877e+01  -3.908496e+01
   6.156831e+01  -3.681874e+01
   7.687255e+01   1.961872e+01
   3.740584e+00   6.834830e+01
  -6.108614e+01   5.641146e+01
  -6.423110e+01  -4.014892e+00
  -4.166239e+01  -5.090438e+01
  -4.344620e+01  -4.180959e+01
  -6.452366e+01  -2.365743e+00
  -6.762901e+01  -1.410972e+00
  -3.287255e+01  -6.880253e+01
   3.477549e+01  -1.467337e+02
   1.147353e+02  -1.421989e+02
   1.618536e+02  -3.366094e+01
   1.239846e+02   9.106940e+01
   9.170434e+00   1.260681e+02
  -8.531034e+01   6.095793e+01
  -6.121220e+01  -1.615285e+01
   6.004999e+01  -2.133977e+01
   1.419832e+02   4.296377e+01
   8.047935e+01   1.090308e+02
  -8.027950e+01   1.168898e+02
  -1.946595e+02   5.740723e+01
  -1.673822e+02  -3.118850e+01
  -3.993738e+01  -8.836260e+01
   6.053136e+01  -7.382959e+01
   4.924855e+01  -8.992846e+00
  -3.951240e+01   2.704876e+01
  -9.179911e+01  -2.340511e+01
  -3.269161e+01  -1.214609e+02
   9.438454e+01  -1.565830e+02
   1.716160e+02  -6.182855e+01
   1.292339e+02   1.035746e+02
   1.027371e+01   2.014579e+02
  -8.713652e+01   1.477022e+02
  -1.072161e+02  -4.830108e+00
  -6.459961e+01  -1.193261e+02
  -1.911224e+00  -1.103879e+02
   4.556213e+01  -2.318274e+01
   5.556039e+01   3.097700e+01
   2.935349e+01   9.048973e+00
   3.871101e+00  -2.202453e+01
   1.904208e+01   1.314776e+01
   5.714101e+01   8.965486e+01
   4.622534e+01   1.132325e+02
  -4.521633e+01   4.758722e+01
  -1.417395e+02  -4.038071e+01
  -1.343422e+02  -7.253673e+01
  -1.745929e+01  -4.950424e+01
   9.169841e+01  -2.161177e+01
   9.067062e+01  -8.636366e+00
   9.661914e+00   6.359964e+00
  -3.977393e+01   2.360961e+01
  -1.276115e+01   2.078286e+01
   2.308593e+01  -5.204587e-01
  -7.038590e+00  -1.015295e+01
  -7.750269e+01  -5.048846e+00
  -9.213642e+01  -2.424599e+01
  -4.912187e+00  -8.079411e+01
   1.228240e+02  -1.146318e+02
   1.867855e+02  -5.692546e+01
   1.401032e+02   7.112709e+01
   2.394916e+01   1.650942e+02
  -8.017754e+01   1.500573e+02
  -1.153952e+02   5.666080e+01
  -8.182356e+01  -2.288277e+01
  -2.463428e+01  -3.523782e+01
   4.710842e+00  -7.872596e+00
  -9.304313e+00  -3.403488e+00
  -3.421718e+01  -4.571140e+01
  -2.397123e+01  -9.084955e+01
   3.018690e+01  -7.215788e+01
   8.318426e+01   2.025589e+01
   7.696084e+01   1.121662e+02
   1.014916e+00   1.145644e+02
  -8.604600e+01   2.186300e+01
  -1.039425e+02  -7.951165e+01
  -3.038857e+01  -1.052610e+02
   6.789405e+01  -5.431683e+01
   9.737383e+01   1.280144e+01
   3.779862e+01   4.890595e+01
  -3.273030e+01   4.961467e+01
  -2.887188e+01   2.831755e+01
   3.732843e+01   1.039594e+00
   7.097915e+01  -5.918040e+00
   1.399234e+01   2.529706e+01
  -8.111621e+01   6.746473e+01
  -1.159926e+02   6.086689e+01
  -6.246072e+01  -1.108997e+01
   1.718130e+01  -8.337816e+01
   5.244245e+01  -7.844358e+01
   3.457969e+01  -2.886023e+00
  -1.230850e+00   5.734801e+01
  -2.739091e+01   4.083747e+01
  -3.666971e+01  -2.151333e+01
  -2.582537e+01  -5.456606e+01
   3.619693e+00  -3.098711e+01
   3.346957e+01   9.361686e+00
   3.977887e+01   1.956984e+01
   2.117866e+01   1.997397e-01
   5.551336e-01  -1.217258e+01
  -6.725542e+00   6.709467e+00
  -9.649556e+00   3.848009e+01
  -2.133832e+01   4.312975e+01
  -3.477233e+01   3.906807e+00
  -2.807696e+01  -4.843224e+01
   6.383773e+00  -6.241644e+01
   4.710765e+01  -1.969437e+01
   5.606043e+01   4.165285e+01
   1.308595e+01   6.522022e+01
  -5.557773e+01   3.416632e+01
  -8.900805e+01  -1.699997e+01
  -4.867097e+01  -4.515989e+01
   3.004880e+01  -3.967589e+01
   6.585213e+01  -1.884309e+01
   2.281847e+01  -3.497893e+00
  -4.082114e+01  -3.578685e+00
  -3.989629e+01  -1.872838e+01
   3.301764e+01  -3.326564e+01
   9.579566e+01  -1.909753e+01
