
 $NMID
 id='ANONYMOUS ', fmtdat='(2E16.6)'
 volume=1.0
 tramp=1.0
 $END
  -3.996106e+03   6.946339e+01
  -2.496549e+03  -2.357757e+03
   6.268212e+02  -2.393173e+03
   1.837183e+03  -9.406968e+02
   8.585231e+02   4.379460e+02
  -4.949518e+02   4.121330e+02
  -7.346955e+02  -4.251353e+02
   7.488431e+01  -9.140074e+02
   7.352550e+02  -6.511768e+02
   7.731633e+02   8.302556e+01
   4.183336e+02   7.884087e+02
  -2.398813e+02   7.513538e+02
  -4.930626e+02   1.088756e+02
  -3.380805e+02  -6.350441e+02
   2.996502e+02  -6.748578e+02
   5.627615e+02   9.064410e+00
   2.353253e+02   6.316422e+02
  -2.689334e+02   5.854769e+02
  -5.170994e+02   1.015433e+02
  -3.696945e+02  -3.283903e+02
  -3.941314e+01  -4.010635e+02
   2.379859e+02  -2.617343e+02
   1.920044e+02  -1.804223e+01
  -1.367151e+02   7.808655e+01
  -4.135451e+02  -1.479026e+02
  -1.768628e+02  -4.473135e+02
   4.656929e+02  -3.485212e+02
   8.211113e+02   1.188359e+02
   3.838994e+02   5.358681e+02
  -4.345555e+02   4.105527e+02
  -7.436870e+02  -1.042543e+02
  -3.141121e+02  -4.900883e+02
   3.114965e+02  -4.973466e+02
   5.604428e+02  -1.706302e+02
   3.959926e+02   2.266625e+02
   6.485067e+01   4.466761e+02
  -1.719408e+02   2.572795e+02
  -1.389616e+02  -2.286900e+02
   1.794616e+02  -4.044256e+02
   4.148752e+02   4.419583e+01
   2.079916e+02   6.716052e+02
  -3.267489e+02   6.813005e+02
  -5.828041e+02  -7.148022e+00
  -2.514112e+02  -5.494304e+02
   2.823855e+02  -3.110498e+02
   3.758265e+02   3.130121e+02
  -6.395520e+01   5.284115e+02
  -5.545651e+02   1.247113e+02
  -5.962356e+02  -4.146016e+02
  -1.598659e+02  -5.948524e+02
   3.992562e+02  -3.458647e+02
   6.444326e+02   8.181074e+01
   3.732146e+02   3.873955e+02
  -1.552455e+02   3.538906e+02
  -4.306326e+02   5.471722e+01
  -2.315917e+02  -1.792028e+02
   1.057938e+02  -9.513421e+01
   1.235779e+02   1.406814e+02
  -1.615944e+02   1.663467e+02
  -3.238939e+02  -7.237670e+01
  -1.293592e+02  -2.834701e+02
   1.983394e+02  -2.613174e+02
   3.353916e+02  -9.616701e+01
   2.220049e+02   7.634399e+01
  -8.358219e+00   2.472802e+02
  -2.374838e+02   3.550725e+02
  -3.654109e+02   2.187542e+02
  -2.895331e+02  -1.610097e+02
  -4.879313e+01  -4.511986e+02
   1.328882e+02  -3.750453e+02
   1.033767e+02  -1.005703e+02
  -1.712973e+00   2.684675e+00
   4.410585e+01  -1.083673e+02
   2.237489e+02  -1.367054e+02
   3.014746e+02   7.173427e+01
   1.495544e+02   2.935888e+02
  -1.010147e+02   2.588161e+02
  -2.472341e+02  -1.135989e+01
  -1.898520e+02  -2.632390e+02
   2.871428e+01  -2.986867e+02
   2.741999e+02  -1.082028e+02
   3.581825e+02   1.691345e+02
   1.855453e+02   3.459420e+02
  -9.349833e+01   3.070955e+02
  -2.203542e+02   1.331620e+02
  -1.511186e+02   1.373613e+01
  -1.055860e+02   3.378021e+01
  -2.401206e+02   6.135531e+01
  -4.081340e+02  -5.552483e+01
  -3.398745e+02  -2.838295e+02
   2.995715e+00  -4.493348e+02
   3.697778e+02  -4.241124e+02
   5.009250e+02  -1.998240e+02
   3.369743e+02   1.075697e+02
   4.291786e+01   3.016730e+02
  -1.371616e+02   2.438816e+02
  -7.552636e+01   1.923283e+01
   1.219355e+02  -1.004713e+02
   1.963821e+02   2.237491e+01
   3.853608e+01   2.002311e+02
  -1.698081e+02   1.601692e+02
  -1.775600e+02  -7.073929e+01
   2.437912e+01  -1.922687e+02
   1.967728e+02  -2.738917e+01
   1.622205e+02   2.482483e+02
  -3.085096e+01   3.490580e+02
  -2.307684e+02   1.976079e+02
  -3.308232e+02  -5.783807e+01
  -2.825435e+02  -2.431200e+02
  -9.416245e+01  -2.740748e+02
   1.190948e+02  -1.647234e+02
   1.813109e+02  -1.553448e+01
   5.649159e+01   3.697870e+01
  -7.322324e+01  -4.145989e+01
  -2.731446e+01  -1.308153e+02
   1.304576e+02  -1.003330e+02
   1.828263e+02   1.779893e+01
   5.654132e+01   7.645942e+01
  -8.362527e+01   1.425103e+01
  -5.500270e+01  -7.776064e+01
   1.284692e+02  -8.630695e+01
   2.872703e+02   8.854483e+00
   2.632214e+02   1.510206e+02
   5.245993e+01   2.602189e+02
  -1.955446e+02   2.569819e+02
  -2.911267e+02   1.175683e+02
  -1.693648e+02  -5.793333e+01
   3.079862e+01  -1.102472e+02
   9.582413e+01  -5.324474e+00
  -3.334822e+01   1.035000e+02
  -1.997859e+02   5.833456e+01
  -2.163091e+02  -1.059359e+02
  -6.771714e+01  -2.112976e+02
   9.978221e+01  -1.578082e+02
   1.481627e+02  -2.439477e+01
   6.854200e+01   4.681764e+01
  -3.460724e+01   3.105896e+00
  -4.166602e+01  -8.895318e+01
   7.436162e+01  -1.190203e+02
   2.049591e+02  -2.939416e+01
   1.963874e+02   1.289450e+02
   2.015373e+01   2.246975e+02
  -1.696538e+02   1.664237e+02
  -1.984943e+02   3.291688e+00
  -6.548363e+01  -1.190603e+02
   7.085507e+01  -1.128326e+02
   8.733038e+01  -2.699565e+01
   1.753012e+01   3.087546e+01
  -2.749147e+01   1.929053e+01
   5.029814e+00  -1.315945e+01
   7.304452e+01   3.197438e+00
   9.568917e+01   8.227875e+01
   1.942270e+01   1.639834e+02
  -1.287619e+02   1.572634e+02
  -2.397988e+02   2.612586e+01
  -2.060169e+02  -1.532626e+02
  -4.177430e+01  -2.399131e+02
   1.107245e+02  -1.700630e+02
   1.369313e+02  -2.674916e+01
   7.045807e+01   5.531458e+01
   2.759590e+01   3.411610e+01
   5.300162e+01  -1.403421e+01
   8.132832e+01  -8.536865e+00
   4.553098e+01   4.935141e+01
  -3.920239e+01   9.103541e+01
  -1.043416e+02   5.964583e+01
  -8.968167e+01  -3.476891e+01
   1.096688e+01  -1.138676e+02
   1.439362e+02  -8.919864e+01
   2.020196e+02   5.263730e+01
   1.018827e+02   2.063878e+02
  -1.107865e+02   2.325431e+02
  -2.734983e+02   9.528710e+01
  -2.612786e+02  -9.039224e+01
  -1.085790e+02  -1.813165e+02
   4.248389e+01  -1.490801e+02
   9.716980e+01  -8.377690e+01
   7.953860e+01  -6.829338e+01
   6.647771e+01  -9.039873e+01
   9.251440e+01  -7.460799e+01
   1.287172e+02   2.209200e+01
   1.171300e+02   1.555465e+02
   2.856102e+01   2.276592e+02
  -1.001459e+02   1.722133e+02
  -1.773161e+02   1.865756e+01
  -1.377780e+02  -1.244623e+02
  -1.827084e+01  -1.621745e+02
   7.126833e+01  -9.386944e+01
   6.425471e+01   2.862641e-01
   4.864740e+00   4.623360e+01
  -1.452719e+01   3.795473e+01
   3.286769e+01   1.825866e+01
   8.001295e+01   2.025227e+01
   4.683072e+01   3.728740e+01
  -6.501242e+01   3.892311e+01
  -1.625132e+02   4.124182e+00
  -1.460085e+02  -5.426909e+01
  -1.345565e+01  -9.348687e+01
   1.245386e+02  -7.579376e+01
   1.474042e+02  -1.061026e+01
   4.875283e+01   4.462574e+01
  -6.023534e+01   3.886713e+01
  -7.642210e+01  -1.902305e+01
  -9.908576e+00  -6.741203e+01
   5.300291e+01  -5.681676e+01
   6.249486e+01   1.406943e+00
   4.523273e+01   4.781949e+01
   4.424101e+01   4.071916e+01
   6.079086e+01   3.287747e+00
   6.564943e+01   1.921360e+00
   3.636387e+01   6.774975e+01
  -3.114455e+01   1.456627e+02
  -1.166310e+02   1.425749e+02
  -1.670950e+02   3.536885e+01
  -1.265279e+02  -9.071110e+01
  -8.156567e+00  -1.281174e+02
   8.651927e+01  -6.372716e+01
   6.087888e+01   1.432225e+01
  -5.926300e+01   1.991052e+01
  -1.384526e+02  -4.450647e+01
  -7.600326e+01  -1.094013e+02
   8.253922e+01  -1.137512e+02
   1.933419e+02  -5.133875e+01
   1.633789e+02   3.554851e+01
   3.652637e+01   8.792800e+01
  -6.147515e+01   7.058043e+01
  -4.883184e+01   7.523073e+00
   3.832122e+01  -2.669495e+01
   8.868708e+01   2.200502e+01
   3.169657e+01   1.173318e+02
  -9.035217e+01   1.530136e+02
  -1.653205e+02   6.204153e+01
  -1.260827e+02  -1.003315e+02
  -1.056384e+01  -1.977973e+02
   8.690385e+01  -1.445372e+02
   1.074666e+02   7.415907e+00
   6.170697e+01   1.200954e+02
  -4.048246e+00   1.088557e+02
  -4.852182e+01   2.135203e+01
  -5.197739e+01  -3.131942e+01
  -2.445403e+01  -8.886955e+00
  -4.653365e+00   2.093327e+01
  -2.357754e+01  -1.455552e+01
  -5.760257e+01  -8.878655e+01
  -4.097856e+01  -1.107091e+02
   4.846329e+01  -4.645779e+01
   1.377938e+02   3.939294e+01
   1.282965e+02   7.185244e+01
   1.748278e+01   5.021835e+01
  -8.669628e+01   2.157803e+01
  -8.807586e+01   6.576948e+00
  -1.204247e+01  -7.981098e+00
   3.802914e+01  -2.249153e+01
   1.550012e+01  -1.835436e+01
  -1.995321e+01   1.545692e+00
   5.174164e+00   9.509413e+00
   7.275902e+01   4.172316e+00
   9.173712e+01   2.304233e+01
   1.088440e+01   7.885826e+01
  -1.161874e+02   1.140750e+02
  -1.853117e+02   6.041037e+01
  -1.429331e+02  -6.508253e+01
  -2.687285e+01  -1.612699e+02
   7.870560e+01  -1.506565e+02
   1.140268e+02  -5.910298e+01
   8.033941e+01   2.149919e+01
   2.504358e+01   3.508364e+01
  -2.019384e+00   7.818351e+00
   1.148560e+01   3.896396e+00
   3.359699e+01   4.673391e+01
   2.222668e+01   9.120188e+01
  -2.969620e+01   7.204904e+01
  -8.085108e+01  -1.825698e+01
  -7.666655e+01  -1.072501e+02
  -4.972254e+00  -1.110954e+02
   8.042035e+01  -2.418075e+01
   1.013952e+02   7.391710e+01
   3.188598e+01   1.024913e+02
  -6.570465e+01   5.568200e+01
  -9.783166e+01  -1.209609e+01
  -3.988603e+01  -5.203325e+01
   3.300516e+01  -5.317693e+01
   3.323743e+01  -2.851327e+01
  -3.195760e+01   6.850369e-01
  -6.895325e+01   6.416659e+00
  -1.581123e+01  -2.540425e+01
   7.914413e+01  -6.539563e+01
   1.171688e+02  -5.773724e+01
   6.567226e+01   1.185620e+01
  -1.500229e+01   8.235312e+01
  -5.286410e+01   7.986473e+01
  -3.665587e+01   7.936311e+00
  -1.197953e+00  -5.365572e+01
   2.488244e+01  -4.240614e+01
   3.491624e+01   1.750547e+01
   2.565405e+01   5.376980e+01
  -2.540369e+00   3.336109e+01
  -3.258174e+01  -8.569746e+00
  -3.968084e+01  -2.208286e+01
  -2.037658e+01  -1.763762e+00
   1.856977e+00   1.505191e+01
   7.622253e+00  -8.969740e-01
   5.294798e+00  -3.506364e+01
   1.368423e+01  -4.474900e+01
   3.045903e+01  -9.147234e+00
   3.096548e+01   4.329609e+01
  -1.128249e-01   5.996724e+01
  -4.377448e+01   2.057289e+01
  -5.707890e+01  -3.854833e+01
  -1.512107e+01  -6.239460e+01
   5.494787e+01  -3.398797e+01
   8.899996e+01   1.490509e+01
   4.911104e+01   4.364428e+01
  -2.851630e+01   4.087365e+01
  -6.438174e+01   2.179273e+01
  -2.444094e+01   5.098795e+00
   3.617455e+01   2.026635e+00
   3.695048e+01   1.503767e+01
  -3.006608e+01   3.041420e+01
  -8.976064e+01   1.931467e+01
