
 $NMID
 id='ANONYMOUS ', fmtdat='(2E16.6)'
 volume=1.0
 tramp=1.0
 $END
  -4.620731e+03  -7.620047e+01
  -2.697574e+03  -2.816426e+03
   9.453680e+02  -2.942812e+03
   2.346761e+03  -8.235957e+02
   9.629009e+02   8.008821e+02
  -8.060305e+02   5.858353e+02
  -9.643885e+02  -5.799122e+02
   2.808781e+01  -1.250464e+03
   9.769438e+02  -8.386656e+02
   1.014649e+03   1.509934e+02
   4.652738e+02   9.526150e+02
  -3.010327e+02   9.500916e+02
  -7.459486e+02   1.091088e+02
  -4.067740e+02  -7.384919e+02
   3.415032e+02  -7.908993e+02
   7.103510e+02   2.871649e+01
   2.584357e+02   7.168688e+02
  -3.926557e+02   6.803848e+02
  -6.252902e+02   7.714339e+01
  -4.029518e+02  -3.982406e+02
   2.637623e+01  -4.777970e+02
   2.869245e+02  -2.624822e+02
   2.553479e+02   2.518676e+01
  -1.088589e+02   1.349130e+02
  -4.550473e+02  -9.468953e+01
  -2.371701e+02  -4.790014e+02
   4.912163e+02  -4.874020e+02
   9.238853e+02   7.439971e+01
   4.795574e+02   6.255349e+02
  -4.412070e+02   5.511788e+02
  -8.369787e+02  -2.540847e+01
  -3.848874e+02  -5.346330e+02
   3.131544e+02  -5.620375e+02
   6.179993e+02  -2.214519e+02
   4.416609e+02   2.516991e+02
   5.337281e+01   5.351538e+02
  -2.500225e+02   3.303964e+02
  -2.165838e+02  -2.386051e+02
   1.772956e+02  -5.224963e+02
   5.124528e+02  -1.828154e+01
   3.015930e+02   7.433165e+02
  -3.357008e+02   7.867874e+02
  -6.788349e+02   9.044290e+00
  -3.019718e+02  -6.237243e+02
   3.129443e+02  -3.800850e+02
   4.455280e+02   3.306635e+02
  -5.080813e+01   5.984907e+02
  -5.964415e+02   1.743301e+02
  -6.515707e+02  -4.199831e+02
  -1.888443e+02  -6.329406e+02
   4.101392e+02  -3.929801e+02
   6.795844e+02   6.838311e+01
   3.944230e+02   4.220045e+02
  -1.864155e+02   4.040435e+02
  -4.922825e+02   4.526907e+01
  -2.501359e+02  -2.461627e+02
   1.563284e+02  -1.325063e+02
   1.741837e+02   1.808255e+02
  -1.802416e+02   2.195681e+02
  -3.822965e+02  -8.268481e+01
  -1.501788e+02  -3.277023e+02
   2.193412e+02  -2.627199e+02
   3.345494e+02  -6.197588e+01
   1.834149e+02   7.300430e+01
  -2.511594e+01   1.952645e+02
  -2.023999e+02   3.263858e+02
  -3.335981e+02   2.501685e+02
  -3.143327e+02  -1.249592e+02
  -9.561411e+01  -4.682808e+02
   1.317684e+02  -4.171543e+02
   1.471383e+02  -1.027060e+02
   2.320380e+01   4.325235e+01
   1.801246e+01  -8.269110e+01
   1.838647e+02  -1.594942e+02
   2.992920e+02   3.130829e+01
   1.891345e+02   2.864043e+02
  -6.406640e+01   2.914219e+02
  -2.479870e+02   2.903786e+01
  -2.256272e+02  -2.524405e+02
   1.155703e+00  -3.197493e+02
   2.827627e+02  -1.324032e+02
   3.890005e+02   1.757112e+02
   2.000753e+02   3.755671e+02
  -1.120440e+02   3.275033e+02
  -2.482572e+02   1.211607e+02
  -1.616152e+02  -6.715471e+00
  -9.666349e+01   2.627933e+01
  -2.288305e+02   6.573419e+01
  -3.999634e+02  -5.229131e+01
  -3.373583e+02  -2.839164e+02
  -8.490756e+00  -4.489021e+02
   3.545267e+02  -4.266156e+02
   5.006393e+02  -2.178278e+02
   3.610947e+02   9.264924e+01
   6.687370e+01   3.177009e+02
  -1.479156e+02   2.769562e+02
  -1.061150e+02   2.520361e+01
   1.114865e+02  -1.342746e+02
   2.229038e+02  -4.890329e+00
   6.561553e+01   2.178571e+02
  -1.771367e+02   1.984647e+02
  -2.030841e+02  -6.254753e+01
   1.283891e+01  -2.165633e+02
   2.070793e+02  -4.625132e+01
   1.714290e+02   2.544716e+02
  -3.366243e+01   3.590722e+02
  -2.319045e+02   1.941753e+02
  -3.255573e+02  -6.407420e+01
  -2.855348e+02  -2.374152e+02
  -1.077042e+02  -2.690988e+02
   1.138320e+02  -1.730362e+02
   1.948707e+02  -2.802744e+01
   7.216018e+01   3.930898e+01
  -7.512611e+01  -2.900612e+01
  -4.215772e+01  -1.273008e+02
   1.238110e+02  -1.109914e+02
   1.911082e+02   7.402108e+00
   6.828148e+01   7.895273e+01
  -8.135029e+01   2.617752e+01
  -6.230316e+01  -6.939868e+01
   1.188644e+02  -9.114225e+01
   2.840309e+02  -8.406419e+00
   2.725451e+02   1.347751e+02
   7.091722e+01   2.616388e+02
  -1.825743e+02   2.776853e+02
  -2.951270e+02   1.385691e+02
  -1.840078e+02  -5.598237e+01
   2.312642e+01  -1.238985e+02
   1.015668e+02  -1.425650e+01
  -2.527378e+01   1.106607e+02
  -2.013462e+02   7.225405e+01
  -2.261122e+02  -1.001879e+02
  -7.692970e+01  -2.179488e+02
   9.693399e+01  -1.706148e+02
   1.531851e+02  -3.438066e+01
   7.922297e+01   4.618777e+01
  -2.569283e+01   1.252551e+01
  -4.332076e+01  -7.736859e+01
   6.394485e+01  -1.163129e+02
   1.980942e+02  -3.719139e+01
   2.000202e+02   1.209387e+02
   2.754828e+01   2.260759e+02
  -1.693367e+02   1.739199e+02
  -2.051628e+02   7.381204e+00
  -7.222645e+01  -1.230672e+02
   6.836870e+01  -1.218201e+02
   9.052443e+01  -3.588510e+01
   2.673502e+01   2.747574e+01
  -1.590695e+01   2.499013e+01
   8.291828e+00  -1.220511e+00
   6.385892e+01   9.265738e+00
   8.469197e+01   7.533718e+01
   2.058653e+01   1.531971e+02
  -1.186881e+02   1.570879e+02
  -2.352096e+02   3.585143e+01
  -2.112851e+02  -1.471364e+02
  -4.746811e+01  -2.463832e+02
   1.121051e+02  -1.804297e+02
   1.418612e+02  -2.862664e+01
   7.290362e+01   6.076891e+01
   2.936354e+01   3.996982e+01
   5.424068e+01  -1.188937e+01
   7.835344e+01  -7.309324e+00
   3.806605e+01   4.807830e+01
  -4.278615e+01   8.487834e+01
  -9.658548e+01   5.370472e+01
  -8.117095e+01  -3.295736e+01
   1.052116e+01  -1.070410e+02
   1.363313e+02  -8.841262e+01
   1.988521e+02   4.378469e+01
   1.098977e+02   1.994720e+02
  -9.942397e+01   2.366481e+02
  -2.710032e+02   1.078072e+02
  -2.688034e+02  -8.244757e+01
  -1.180416e+02  -1.823937e+02
   3.766119e+01  -1.550874e+02
   9.754574e+01  -8.842188e+01
   8.324184e+01  -7.047311e+01
   6.957744e+01  -9.143783e+01
   9.376186e+01  -7.505246e+01
   1.293780e+02   2.188872e+01
   1.205069e+02   1.559595e+02
   3.312381e+01   2.304208e+02
  -9.844263e+01   1.778984e+02
  -1.800955e+02   2.485508e+01
  -1.429457e+02  -1.212142e+02
  -2.413773e+01  -1.630246e+02
   6.516964e+01  -9.791867e+01
   6.093802e+01  -5.696159e+00
   8.797910e+00   4.038993e+01
  -5.301463e+00   3.583337e+01
   3.859955e+01   2.109742e+01
   7.798092e+01   2.417079e+01
   4.361398e+01   3.774262e+01
  -6.169570e+01   3.725062e+01
  -1.560326e+02   6.032417e+00
  -1.462745e+02  -4.800521e+01
  -2.126877e+01  -8.869036e+01
   1.183009e+02  -7.749166e+01
   1.478162e+02  -1.730814e+01
   5.083047e+01   3.851292e+01
  -6.072633e+01   3.606235e+01
  -7.578040e+01  -1.984241e+01
  -3.772329e+00  -6.806235e+01
   5.996009e+01  -5.635761e+01
   6.307899e+01   3.362822e+00
   4.110802e+01   5.035255e+01
   4.303799e+01   4.153220e+01
   6.425384e+01   2.141964e+00
   6.793006e+01   1.623200e-01
   3.395277e+01   6.713723e+01
  -3.366859e+01   1.461835e+02
  -1.142786e+02   1.428575e+02
  -1.614883e+02   3.485668e+01
  -1.233101e+02  -9.040638e+01
  -8.854764e+00  -1.257930e+02
   8.476834e+01  -6.049685e+01
   6.029094e+01   1.674506e+01
  -5.990929e+01   2.171518e+01
  -1.412119e+02  -4.282620e+01
  -8.054375e+01  -1.086317e+02
   7.902922e+01  -1.162639e+02
   1.934651e+02  -5.713761e+01
   1.669702e+02   3.083363e+01
   4.020344e+01   8.778487e+01
  -6.026383e+01   7.336793e+01
  -4.917318e+01   9.158123e+00
   3.942472e+01  -2.673847e+01
   9.152120e+01   2.356945e+01
   3.187456e+01   1.212638e+02
  -9.475244e+01   1.562023e+02
  -1.710827e+02   6.147387e+01
  -1.286014e+02  -1.035831e+02
  -1.049041e+01  -2.011734e+02
   8.611265e+01  -1.474253e+02
   1.064554e+02   4.666517e+00
   6.474081e+01   1.183581e+02
   2.585872e+00   1.091606e+02
  -4.487609e+01   2.272807e+01
  -5.512979e+01  -3.053443e+01
  -2.921555e+01  -8.525681e+00
  -3.963570e+00   2.199596e+01
  -1.917966e+01  -1.360936e+01
  -5.691114e+01  -8.960347e+01
  -4.577059e+01  -1.127493e+02
   4.524141e+01  -4.757756e+01
   1.412384e+02   3.973257e+01
   1.338981e+02   7.189934e+01
   1.811655e+01   4.943404e+01
  -9.048380e+01   2.183361e+01
  -8.996849e+01   8.767560e+00
  -9.813161e+00  -6.053226e+00
   3.956685e+01  -2.285962e+01
   1.267873e+01  -1.987044e+01
  -2.343761e+01   6.471389e-01
   6.186054e+00   9.409561e+00
   7.693448e+01   4.096009e+00
   9.252898e+01   2.359082e+01
   5.971302e+00   8.049350e+01
  -1.216868e+02   1.147899e+02
  -1.861491e+02   5.766144e+01
  -1.398845e+02  -6.989890e+01
  -2.425793e+01  -1.641499e+02
   7.911582e+01  -1.496911e+02
   1.141001e+02  -5.687973e+01
   8.089828e+01   2.260596e+01
   2.439095e+01   3.486045e+01
  -4.526897e+00   7.250148e+00
   9.435372e+00   2.552089e+00
   3.447654e+01   4.490067e+01
   2.458154e+01   9.051674e+01
  -2.931273e+01   7.245035e+01
  -8.286729e+01  -1.960790e+01
  -7.728448e+01  -1.114708e+02
  -1.550044e+00  -1.141636e+02
   8.563565e+01  -2.196644e+01
   1.039237e+02   7.903147e+01
   3.055813e+01   1.047018e+02
  -6.780438e+01   5.389899e+01
  -9.733019e+01  -1.293791e+01
  -3.771167e+01  -4.883749e+01
   3.299434e+01  -4.955403e+01
   2.944925e+01  -2.823258e+01
  -3.661923e+01  -1.004394e+00
  -7.061874e+01   6.169928e+00
  -1.429591e+01  -2.486207e+01
   8.054143e+01  -6.698875e+01
   1.157680e+02  -6.076526e+01
   6.287056e+01   1.077526e+01
  -1.639383e+01   8.312698e+01
  -5.191269e+01   7.859498e+01
  -3.460863e+01   3.475308e+00
   8.715420e-01  -5.687527e+01
   2.729591e+01  -4.070134e+01
   3.674743e+01   2.152991e+01
   2.603788e+01   5.485485e+01
  -3.669167e+00   3.115245e+01
  -3.366479e+01  -9.771811e+00
  -3.962105e+01  -2.016171e+01
  -2.069482e+01  -1.283873e-01
   1.099980e-01   1.296096e+01
   7.220630e+00  -5.870976e+00
   9.664595e+00  -3.808260e+01
   2.109372e+01  -4.315286e+01
   3.425073e+01  -3.995531e+00
   2.800703e+01   4.839858e+01
  -6.034987e+00   6.229379e+01
  -4.652214e+01   1.986494e+01
  -5.572732e+01  -4.098439e+01
  -1.319674e+01  -6.434869e+01
   5.507275e+01  -3.390239e+01
   8.836940e+01   1.642316e+01
   4.854620e+01   4.446417e+01
  -2.944951e+01   3.958833e+01
  -6.487030e+01   1.943217e+01
  -2.245517e+01   4.004156e+00
   4.048193e+01   3.630599e+00
   3.941295e+01   1.855793e+01
  -3.270730e+01   3.348330e+01
  -9.504113e+01   1.988405e+01
