
 $NMID
 id='ANONYMOUS ', fmtdat='(2E16.6)'
 volume=1.0
 tramp=1.0
 $END
   4.818317e+03  -8.219556e+01
   2.801526e+03   2.868611e+03
  -9.281001e+02   2.994919e+03
  -2.391956e+03   8.940992e+02
  -9.640932e+02  -8.279234e+02
   8.641317e+02  -6.350124e+02
   1.036788e+03   5.172077e+02
   3.426799e-02   1.197816e+03
  -9.561017e+02   8.377580e+02
  -1.002134e+03  -1.934067e+02
  -4.520893e+02  -9.103232e+02
   3.932537e+02  -9.121937e+02
   7.604132e+02  -1.252404e+02
   3.881119e+02   8.090287e+02
  -3.312081e+02   8.071526e+02
  -6.621882e+02  -4.276447e+01
  -2.800094e+02  -7.602009e+02
   3.623133e+02  -6.593891e+02
   6.155064e+02  -6.892442e+01
   4.012361e+02   3.946874e+02
  -8.521704e+00   4.705307e+02
  -2.847796e+02   2.680765e+02
  -2.692489e+02  -7.056753e+00
   1.038921e+02  -1.499175e+02
   4.641593e+02   1.022136e+02
   2.717024e+02   4.766760e+02
  -4.707462e+02   4.812675e+02
  -9.610485e+02  -7.453005e+01
  -4.946912e+02  -6.242185e+02
   4.516853e+02  -5.595080e+02
   8.650327e+02   4.250452e+01
   3.931127e+02   5.493139e+02
  -3.230041e+02   5.791597e+02
  -6.262532e+02   2.161479e+02
  -4.521921e+02  -2.583136e+02
  -6.186195e+01  -5.353495e+02
   2.465368e+02  -3.097289e+02
   2.303583e+02   2.748107e+02
  -1.729544e+02   5.258986e+02
  -5.308397e+02   3.657767e+00
  -3.131678e+02  -7.547140e+02
   3.580032e+02  -8.021943e+02
   7.154798e+02  -6.183332e+00
   3.137826e+02   6.454396e+02
  -3.397805e+02   3.976192e+02
  -4.661061e+02  -3.274594e+02
   5.023817e+01  -6.063723e+02
   6.135061e+02  -1.732107e+02
   6.609340e+02   4.287579e+02
   1.783270e+02   6.486271e+02
  -4.369336e+02   4.013101e+02
  -7.057231e+02  -7.599463e+01
  -4.111282e+02  -4.486187e+02
   1.877827e+02  -4.270724e+02
   5.078164e+02  -5.272362e+01
   2.610144e+02   2.497881e+02
  -1.579789e+02   1.329002e+02
  -1.800638e+02  -1.911514e+02
   1.815427e+02  -2.323683e+02
   3.904385e+02   8.060617e+01
   1.559968e+02   3.400652e+02
  -2.216904e+02   2.788275e+02
  -3.437408e+02   6.576886e+01
  -1.946480e+02  -8.691727e+01
   1.914554e+01  -2.161577e+02
   2.087205e+02  -3.363787e+02
   3.481961e+02  -2.410649e+02
   3.195646e+02   1.440790e+02
   8.118901e+01   4.785389e+02
  -1.497919e+02   4.085856e+02
  -1.442943e+02   8.803036e+01
  -1.619687e+00  -4.332628e+01
  -6.435521e+00   9.907034e+01
  -1.982347e+02   1.714497e+02
  -3.216934e+02  -3.539093e+01
  -1.911781e+02  -2.940269e+02
   8.029403e+01  -2.881086e+02
   2.585029e+02  -1.723890e+01
   2.202774e+02   2.554049e+02
  -1.013912e+01   3.144803e+02
  -2.871559e+02   1.297308e+02
  -3.884165e+02  -1.715003e+02
  -1.993345e+02  -3.765283e+02
   1.150906e+02  -3.336139e+02
   2.539775e+02  -1.232313e+02
   1.610483e+02   1.390961e+01
   8.787607e+01  -2.180192e+01
   2.236376e+02  -7.465688e+01
   4.124265e+02   4.125079e+01
   3.555482e+02   2.841707e+02
   1.201788e+01   4.628006e+02
  -3.686422e+02   4.425877e+02
  -5.162996e+02   2.188492e+02
  -3.668742e+02  -1.016908e+02
  -6.192196e+01  -3.256431e+02
   1.520392e+02  -2.771939e+02
   1.061552e+02  -2.178884e+01
  -1.167140e+02   1.346425e+02
  -2.285155e+02   4.773132e-01
  -6.695936e+01  -2.244633e+02
   1.832343e+02  -2.009691e+02
   2.119695e+02   6.515817e+01
  -1.235050e+01   2.210163e+02
  -2.146128e+02   4.599108e+01
  -1.775269e+02  -2.607036e+02
   3.465423e+01  -3.665354e+02
   2.388300e+02  -1.976985e+02
   3.321185e+02   6.431418e+01
   2.875296e+02   2.404413e+02
   1.066039e+02   2.718520e+02
  -1.150506e+02   1.743819e+02
  -1.937936e+02   2.607440e+01
  -6.821932e+01  -4.097569e+01
   7.971729e+01   3.149122e+01
   4.233467e+01   1.335907e+02
  -1.291460e+02   1.150626e+02
  -1.974283e+02  -8.414733e+00
  -6.955637e+01  -8.137002e+01
   8.377184e+01  -2.554840e+01
   6.300246e+01   7.160076e+01
  -1.222064e+02   9.014284e+01
  -2.883343e+02   3.682146e+00
  -2.743732e+02  -1.391188e+02
  -6.898810e+01  -2.635290e+02
   1.877187e+02  -2.783357e+02
   3.014275e+02  -1.382690e+02
   1.868748e+02   5.866466e+01
  -2.615753e+01   1.272017e+02
  -1.066400e+02   1.355854e+01
   2.524687e+01  -1.148816e+02
   2.077057e+02  -7.326301e+01
   2.325991e+02   1.057027e+02
   7.705972e+01   2.248353e+02
  -1.026851e+02   1.721885e+02
  -1.588530e+02   3.121930e+01
  -8.058889e+01  -4.839270e+01
   2.810589e+01  -1.132815e+01
   4.577114e+01   7.989194e+01
  -6.500539e+01   1.180612e+02
  -2.032728e+02   3.663761e+01
  -2.060643e+02  -1.250746e+02
  -2.876688e+01  -2.324289e+02
   1.751283e+02  -1.783350e+02
   2.129288e+02  -5.863176e+00
   7.429558e+01   1.280341e+02
  -7.289661e+01   1.236238e+02
  -9.481244e+01   3.229486e+01
  -2.498047e+01  -3.128757e+01
   2.183313e+01  -2.360765e+01
  -5.612142e+00   6.442874e+00
  -6.794307e+01  -6.058465e+00
  -9.129095e+01  -7.817397e+01
  -2.265357e+01  -1.594773e+02
   1.230394e+02  -1.617100e+02
   2.420678e+02  -3.517551e+01
   2.147471e+02   1.519667e+02
   4.605897e+01   2.499032e+02
  -1.162109e+02   1.795603e+02
  -1.434015e+02   2.539598e+01
  -7.092841e+01  -6.220962e+01
  -2.613102e+01  -3.791643e+01
  -5.350026e+01   1.447683e+01
  -8.007731e+01   8.204449e+00
  -3.998312e+01  -4.906739e+01
   4.278073e+01  -8.590977e+01
   9.881373e+01  -5.454858e+01
   8.205018e+01   3.281458e+01
  -1.072347e+01   1.076986e+02
  -1.370311e+02   8.838991e+01
  -2.006780e+02  -4.656250e+01
  -1.096687e+02  -2.043383e+02
   1.044645e+02  -2.399642e+02
   2.782897e+02  -1.057834e+02
   2.731953e+02   8.787696e+01
   1.169595e+02   1.879284e+02
  -4.092800e+01   1.577616e+02
  -1.000999e+02   8.927409e+01
  -8.426765e+01   7.137202e+01
  -7.145750e+01   9.249826e+01
  -9.698280e+01   7.485503e+01
  -1.322103e+02  -2.356912e+01
  -1.210118e+02  -1.584576e+02
  -3.237247e+01  -2.333332e+02
   9.981816e+01  -1.802915e+02
   1.827826e+02  -2.579428e+01
   1.462349e+02   1.226898e+02
   2.552797e+01   1.663521e+02
  -6.703048e+01   1.006322e+02
  -6.349397e+01   5.981473e+00
  -8.855284e+00  -4.201775e+01
   7.355869e+00  -3.709091e+01
  -3.784571e+01  -2.057969e+01
  -7.942243e+01  -2.263460e+01
  -4.503311e+01  -3.704173e+01
   6.262513e+01  -3.777824e+01
   1.583214e+02  -6.093064e+00
   1.470718e+02   4.930353e+01
   1.940988e+01   9.013441e+01
  -1.213114e+02   7.709386e+01
  -1.496772e+02   1.477452e+01
  -5.047015e+01  -4.127076e+01
   6.261716e+01  -3.718989e+01
   7.762731e+01   1.999170e+01
   4.947643e+00   6.793098e+01
  -5.915866e+01   5.589824e+01
  -6.234664e+01  -3.284542e+00
  -4.112983e+01  -4.946606e+01
  -4.415177e+01  -4.125175e+01
  -6.538350e+01  -2.927186e+00
  -6.789153e+01  -1.630568e+00
  -3.299678e+01  -6.807872e+01
   3.460203e+01  -1.468948e+02
   1.152424e+02  -1.440145e+02
   1.636352e+02  -3.569912e+01
   1.262207e+02   9.135090e+01
   1.001262e+01   1.280836e+02
  -8.619416e+01   6.182321e+01
  -6.172216e+01  -1.662829e+01
   6.144091e+01  -2.118971e+01
   1.441942e+02   4.517357e+01
   8.067427e+01   1.118121e+02
  -8.285649e+01   1.181618e+02
  -1.983568e+02   5.678325e+01
  -1.696235e+02  -3.242165e+01
  -4.025690e+01  -8.993227e+01
   6.108138e+01  -7.583372e+01
   4.991765e+01  -1.124422e+01
  -3.878028e+01   2.567077e+01
  -9.073158e+01  -2.377158e+01
  -3.100188e+01  -1.216754e+02
   9.685692e+01  -1.570077e+02
   1.741606e+02  -6.136388e+01
   1.306217e+02   1.058753e+02
   9.601909e+00   2.050096e+02
  -8.966523e+01   1.502429e+02
  -1.098869e+02  -4.835758e+00
  -6.561267e+01  -1.210217e+02
  -1.314395e+00  -1.120180e+02
   4.632521e+01  -2.373556e+01
   5.545425e+01   3.128313e+01
   2.892248e+01   9.357578e+00
   3.981371e+00  -2.206099e+01
   1.986098e+01   1.327774e+01
   5.762778e+01   9.033910e+01
   4.588146e+01   1.142321e+02
  -4.605015e+01   4.805366e+01
  -1.425061e+02  -4.071150e+01
  -1.347699e+02  -7.304874e+01
  -1.774155e+01  -4.962390e+01
   9.172453e+01  -2.126685e+01
   9.090296e+01  -8.346505e+00
   9.554283e+00   6.453765e+00
  -4.072014e+01   2.375596e+01
  -1.369527e+01   2.106843e+01
   2.300582e+01  -3.699916e-01
  -6.786406e+00  -1.045210e+01
  -7.821274e+01  -5.401595e+00
  -9.412363e+01  -2.453627e+01
  -6.224291e+00  -8.161627e+01
   1.237644e+02  -1.162180e+02
   1.893339e+02  -5.835749e+01
   1.419858e+02   7.116044e+01
   2.408699e+01   1.666333e+02
  -8.082134e+01   1.515956e+02
  -1.156357e+02   5.723394e+01
  -8.180916e+01  -2.283496e+01
  -2.510601e+01  -3.476713e+01
   3.600955e+00  -6.741056e+00
  -1.051813e+01  -2.881591e+00
  -3.522762e+01  -4.683959e+01
  -2.442787e+01  -9.309155e+01
   3.047966e+01  -7.392122e+01
   8.417808e+01   1.994092e+01
   7.810784e+01   1.130860e+02
   1.508501e+00   1.155853e+02
  -8.615903e+01   2.195886e+01
  -1.042661e+02  -8.053815e+01
  -3.024707e+01  -1.063639e+02
   6.885272e+01  -5.439788e+01
   9.867432e+01   1.379986e+01
   3.851892e+01   5.015987e+01
  -3.322215e+01   5.030240e+01
  -2.978289e+01   2.845230e+01
   3.733833e+01   1.333150e+00
   7.200611e+01  -5.241711e+00
   1.437911e+01   2.600322e+01
  -8.246482e+01   6.776016e+01
  -1.180350e+02   6.098237e+01
  -6.333461e+01  -1.105613e+01
   1.746737e+01  -8.368422e+01
   5.258948e+01  -7.944773e+01
   3.418929e+01  -4.297433e+00
  -1.007247e+00   5.660067e+01
  -2.597633e+01   4.096248e+01
  -3.527471e+01  -2.100175e+01
  -2.574352e+01  -5.446537e+01
   3.154154e+00  -3.086970e+01
   3.344652e+01   1.015750e+01
   4.015409e+01   2.077964e+01
   2.127117e+01   6.101071e-01
  -3.873935e-01  -1.267447e+01
  -7.809430e+00   6.029179e+00
  -1.014451e+01   3.853758e+01
  -2.134746e+01   4.360093e+01
  -3.457865e+01   3.723736e+00
  -2.803797e+01  -4.952489e+01
   6.667127e+00  -6.328111e+01
   4.753092e+01  -1.934961e+01
   5.627632e+01   4.286517e+01
   1.299063e+01   6.584932e+01
  -5.616391e+01   3.368416e+01
  -8.949495e+01  -1.770055e+01
  -4.887955e+01  -4.526062e+01
   3.016807e+01  -3.926889e+01
   6.584389e+01  -1.874606e+01
   2.240851e+01  -3.847895e+00
  -4.143632e+01  -4.152969e+00
  -3.981055e+01  -1.918738e+01
   3.399843e+01  -3.388582e+01
   9.702146e+01  -1.963205e+01
