
 $NMID
 id='ANONYMOUS ', fmtdat='(2E16.6)'
 volume=1.0
 tramp=1.0
 $END
  -4.669740e+03  -7.848944e+01
  -2.640315e+03  -2.855348e+03
   9.142921e+02  -2.835008e+03
   2.245086e+03  -8.393521e+02
   8.704492e+02   7.262375e+02
  -8.518067e+02   5.680744e+02
  -9.751903e+02  -6.087921e+02
   2.139327e+01  -1.188353e+03
   8.852628e+02  -8.232861e+02
   9.969523e+02   1.873053e+02
   4.045308e+02   9.134486e+02
  -3.413782e+02   8.456118e+02
  -6.756900e+02   3.919511e+01
  -4.117592e+02  -7.704332e+02
   3.468050e+02  -8.062314e+02
   5.904429e+02   1.499627e+01
   2.747072e+02   7.461371e+02
  -3.529100e+02   6.361530e+02
  -5.847831e+02   4.644704e+01
  -3.623607e+02  -3.869163e+02
   3.312750e+01  -4.605630e+02
   2.742023e+02  -2.609014e+02
   2.394070e+02   3.472165e+00
  -1.180240e+02   1.375034e+02
  -4.614041e+02  -9.644409e+01
  -2.504309e+02  -4.731802e+02
   5.015622e+02  -4.797127e+02
   9.530618e+02   7.201047e+01
   4.740885e+02   6.167913e+02
  -4.531763e+02   5.492405e+02
  -8.479383e+02  -3.961239e+01
  -3.821753e+02  -5.462316e+02
   3.277613e+02  -5.630456e+02
   6.212943e+02  -2.147369e+02
   4.498599e+02   2.508460e+02
   5.813525e+01   5.146887e+02
  -2.320526e+02   2.968326e+02
  -1.963052e+02  -2.568826e+02
   1.834911e+02  -4.998172e+02
   5.134432e+02   1.375926e+01
   2.904376e+02   7.523976e+02
  -3.481054e+02   7.812496e+02
  -6.843405e+02   1.098546e+00
  -2.989159e+02  -6.226609e+02
   3.233674e+02  -3.805912e+02
   4.421665e+02   3.203411e+02
  -5.122649e+01   5.772956e+02
  -5.907529e+02   1.577029e+02
  -6.428724e+02  -4.124483e+02
  -1.711951e+02  -6.286066e+02
   4.236960e+02  -3.904774e+02
   6.927625e+02   7.201187e+01
   4.018205e+02   4.330342e+02
  -1.845244e+02   4.116719e+02
  -4.903676e+02   4.988443e+01
  -2.495208e+02  -2.363766e+02
   1.487031e+02  -1.234609e+02
   1.632349e+02   1.804254e+02
  -1.812286e+02   2.124384e+02
  -3.705486e+02  -8.684203e+01
  -1.415596e+02  -3.297028e+02
   2.165444e+02  -2.701204e+02
   3.343745e+02  -6.935272e+01
   1.991874e+02   8.010898e+01
  -5.955953e+00   2.165265e+02
  -2.023333e+02   3.418979e+02
  -3.515145e+02   2.457786e+02
  -3.255660e+02  -1.399694e+02
  -8.642438e+01  -4.741777e+02
   1.462985e+02  -4.080791e+02
   1.462696e+02  -9.209600e+01
   8.315675e+00   4.197774e+01
   9.688884e+00  -9.391793e+01
   1.944175e+02  -1.659146e+02
   3.159879e+02   3.559335e+01
   1.906242e+02   2.934219e+02
  -7.929372e+01   2.905488e+02
  -2.611757e+02   1.959691e+01
  -2.183576e+02  -2.601409e+02
   1.506662e+01  -3.162822e+02
   2.906903e+02  -1.205688e+02
   3.817410e+02   1.806768e+02
   1.913644e+02   3.717068e+02
  -1.110843e+02   3.222776e+02
  -2.436982e+02   1.221327e+02
  -1.597804e+02  -1.821708e+00
  -9.709719e+01   3.086995e+01
  -2.290868e+02   7.123819e+01
  -4.065847e+02  -4.685665e+01
  -3.488316e+02  -2.827452e+02
  -1.405639e+01  -4.581045e+02
   3.605178e+02  -4.394047e+02
   5.114736e+02  -2.191449e+02
   3.669341e+02   9.936139e+01
   6.376403e+01   3.221164e+02
  -1.509502e+02   2.744309e+02
  -1.031892e+02   2.280221e+01
   1.171891e+02  -1.287760e+02
   2.244426e+02   3.030797e+00
   6.132792e+01   2.211899e+02
  -1.829592e+02   1.940626e+02
  -2.053180e+02  -6.784400e+01
   1.615057e+01  -2.161284e+02
   2.117898e+02  -4.152267e+01
   1.732329e+02   2.601528e+02
  -3.525562e+01   3.631670e+02
  -2.359802e+02   1.973414e+02
  -3.301252e+02  -6.186675e+01
  -2.892609e+02  -2.387475e+02
  -1.102164e+02  -2.726210e+02
   1.114083e+02  -1.768059e+02
   1.925131e+02  -2.960031e+01
   7.137659e+01   3.804721e+01
  -7.403495e+01  -3.202789e+01
  -3.843905e+01  -1.300514e+02
   1.282956e+02  -1.109491e+02
   1.935749e+02   1.000821e+01
   6.663527e+01   8.018046e+01
  -8.483979e+01   2.366045e+01
  -6.342540e+01  -7.292243e+01
   1.222153e+02  -9.135845e+01
   2.895678e+02  -4.376949e+00
   2.756899e+02   1.397653e+02
   6.872570e+01   2.641706e+02
  -1.888188e+02   2.771178e+02
  -3.010248e+02   1.363627e+02
  -1.857780e+02  -5.807328e+01
   2.530532e+01  -1.247872e+02
   1.040068e+02  -1.353030e+01
  -2.589990e+01   1.111954e+02
  -2.047096e+02   7.020304e+01
  -2.292082e+02  -1.044989e+02
  -7.658492e+01  -2.214130e+02
   1.006586e+02  -1.704882e+02
   1.564839e+02  -3.167693e+01
   7.896684e+01   4.800888e+01
  -2.895239e+01   1.130530e+01
  -4.579515e+01  -8.074740e+01
   6.479478e+01  -1.195036e+02
   2.016089e+02  -3.816616e+01
   2.038594e+02   1.224861e+02
   2.918134e+01   2.286707e+02
  -1.706617e+02   1.756790e+02
  -2.081475e+02   6.757210e+00
  -7.245781e+01  -1.250542e+02
   7.214193e+01  -1.224697e+02
   9.462406e+01  -3.291721e+01
   2.609447e+01   3.215161e+01
  -2.158899e+01   2.647305e+01
   4.036748e+00  -4.648875e+00
   6.610601e+01   5.041620e+00
   9.091281e+01   7.612941e+01
   2.323474e+01   1.584208e+02
  -1.220485e+02   1.611890e+02
  -2.399226e+02   3.478874e+01
  -2.125445e+02  -1.508816e+02
  -4.501544e+01  -2.471588e+02
   1.154306e+02  -1.776008e+02
   1.420085e+02  -2.502161e+01
   7.006050e+01   6.233353e+01
   2.595236e+01   3.877311e+01
   5.275638e+01  -1.412418e+01
   7.973018e+01  -9.767682e+00
   4.075035e+01   4.779142e+01
  -4.168483e+01   8.649709e+01
  -9.821669e+01   5.562162e+01
  -8.273267e+01  -3.270803e+01
   1.106679e+01  -1.087634e+02
   1.390761e+02  -8.840306e+01
   2.019938e+02   4.723277e+01
   1.091201e+02   2.047818e+02
  -1.046126e+02   2.397250e+02
  -2.770008e+02   1.058632e+02
  -2.712105e+02  -8.675739e+01
  -1.170425e+02  -1.859529e+02
   3.945231e+01  -1.559733e+02
   9.920042e+01  -8.763593e+01
   8.324760e+01  -7.087411e+01
   7.025130e+01  -9.244353e+01
   9.541511e+01  -7.560315e+01
   1.309128e+02   2.310743e+01
   1.200644e+02   1.583737e+02
   3.127787e+01   2.320522e+02
  -1.000534e+02   1.775984e+02
  -1.811133e+02   2.342530e+01
  -1.435111e+02  -1.231392e+02
  -2.351310e+01  -1.652600e+02
   6.778350e+01  -9.963701e+01
   6.378419e+01  -5.316135e+00
   9.556017e+00   4.321785e+01
  -6.942776e+00   3.861530e+01
   3.721261e+01   2.131256e+01
   7.840900e+01   2.230942e+01
   4.468299e+01   3.683623e+01
  -6.243564e+01   3.818113e+01
  -1.584895e+02   6.583207e+00
  -1.476352e+02  -4.989673e+01
  -1.956357e+01  -9.170899e+01
   1.220549e+02  -7.856611e+01
   1.510889e+02  -1.527015e+01
   5.204155e+01   4.163115e+01
  -6.141039e+01   3.764227e+01
  -7.707674e+01  -1.978289e+01
  -4.914468e+00  -6.774379e+01
   5.954573e+01  -5.524408e+01
   6.340842e+01   4.228788e+00
   4.160458e+01   4.995598e+01
   4.360304e+01   4.125135e+01
   6.452667e+01   2.643913e+00
   6.796208e+01   1.715595e+00
   3.354362e+01   6.836406e+01
  -3.452640e+01   1.464941e+02
  -1.155210e+02   1.432674e+02
  -1.631605e+02   3.546848e+01
  -1.250175e+02  -9.043685e+01
  -9.635560e+00  -1.273677e+02
   8.545280e+01  -6.234581e+01
   6.121243e+01   1.582349e+01
  -6.063883e+01   2.135762e+01
  -1.426681e+02  -4.375647e+01
  -8.044908e+01  -1.104899e+02
   8.136537e+01  -1.176281e+02
   1.963396e+02  -5.664521e+01
   1.682316e+02   3.241748e+01
   3.975603e+01   8.894529e+01
  -6.095671e+01   7.369834e+01
  -4.938573e+01   9.262378e+00
   3.927393e+01  -2.638860e+01
   9.094560e+01   2.365672e+01
   3.173079e+01   1.209993e+02
  -9.447137e+01   1.561513e+02
  -1.711894e+02   6.207564e+01
  -1.290818e+02  -1.032758e+02
  -1.050554e+01  -2.020733e+02
   8.741247e+01  -1.488853e+02
   1.078330e+02   4.554199e+00
   6.449556e+01   1.203510e+02
   8.705606e-01   1.117738e+02
  -4.626214e+01   2.343246e+01
  -5.489815e+01  -3.201406e+01
  -2.840666e+01  -1.015061e+01
  -4.281477e+00   2.194642e+01
  -2.037104e+01  -1.266923e+01
  -5.754978e+01  -8.949609e+01
  -4.515167e+01  -1.138984e+02
   4.618691e+01  -4.841350e+01
   1.415532e+02   4.042377e+01
   1.337606e+02   7.326582e+01
   1.789020e+01   4.990850e+01
  -9.085757e+01   2.115406e+01
  -9.053298e+01   7.982992e+00
  -1.024294e+01  -6.262292e+00
   3.982173e+01  -2.305558e+01
   1.352041e+01  -2.052016e+01
  -2.275480e+01   5.001756e-01
   6.261813e+00   1.041686e+01
   7.680436e+01   5.208789e+00
   9.287281e+01   2.353578e+01
   6.625645e+00   7.955363e+01
  -1.216661e+02   1.147004e+02
  -1.871137e+02   5.888764e+01
  -1.412986e+02  -6.888392e+01
  -2.479217e+01  -1.647842e+02
   7.992990e+01  -1.514056e+02
   1.153368e+02  -5.781750e+01
   8.167303e+01   2.266051e+01
   2.468390e+01   3.483331e+01
  -3.949339e+00   6.823934e+00
   1.043989e+01   2.777869e+00
   3.506504e+01   4.651427e+01
   2.437780e+01   9.222672e+01
  -2.977485e+01   7.294661e+01
  -8.270011e+01  -2.002747e+01
  -7.691472e+01  -1.116321e+02
  -1.964862e+00  -1.137817e+02
   8.463777e+01  -2.163417e+01
   1.033768e+02   7.924942e+01
   3.083365e+01   1.052597e+02
  -6.767434e+01   5.478451e+01
  -9.835387e+01  -1.272341e+01
  -3.920320e+01  -4.972604e+01
   3.231318e+01  -5.089563e+01
   2.984075e+01  -2.922064e+01
  -3.630775e+01  -1.564651e+00
  -7.093758e+01   5.697607e+00
  -1.426682e+01  -2.537120e+01
   8.167153e+01  -6.732977e+01
   1.173733e+02  -6.101062e+01
   6.364959e+01   1.053763e+01
  -1.659190e+01   8.318482e+01
  -5.213549e+01   7.932677e+01
  -3.410725e+01   4.560091e+00
   1.209535e+00  -5.616961e+01
   2.646835e+01  -4.075952e+01
   3.564324e+01   2.116868e+01
   2.562865e+01   5.469319e+01
  -3.170308e+00   3.128757e+01
  -3.329937e+01  -9.708098e+00
  -4.017459e+01  -2.042326e+01
  -2.134084e+01  -7.173894e-01
   4.055948e-01   1.253655e+01
   7.941983e+00  -5.434297e+00
   9.346425e+00  -3.722063e+01
   1.945939e+01  -4.275158e+01
   3.326379e+01  -4.762402e+00
   2.830939e+01   4.712289e+01
  -5.114641e+00   6.160996e+01
  -4.642240e+01   1.975547e+01
  -5.651760e+01  -4.098457e+01
  -1.363388e+01  -6.479650e+01
   5.576522e+01  -3.437062e+01
   8.954681e+01   1.634135e+01
   4.917711e+01   4.483308e+01
  -2.948692e+01   4.004736e+01
  -6.524465e+01   1.976337e+01
  -2.296319e+01   4.406059e+00
   3.976259e+01   3.945301e+00
   3.872840e+01   1.843508e+01
  -3.295221e+01   3.276645e+01
  -9.492645e+01   1.900412e+01
