
 $NMID
 id='ANONYMOUS ', fmtdat='(2E16.6)'
 volume=1.0
 tramp=1.0
 $END
   4.667246e+03  -9.424459e+01
   2.765167e+03   2.918487e+03
  -8.615214e+02   2.764935e+03
  -2.382728e+03   8.445685e+02
  -8.891836e+02  -8.022879e+02
   7.958072e+02  -6.718104e+02
   9.451906e+02   5.082796e+02
  -2.492967e+01   1.196612e+03
  -9.262697e+02   8.213697e+02
  -9.696019e+02  -1.809635e+02
  -4.995934e+02  -9.247749e+02
   2.817148e+02  -9.312887e+02
   7.040342e+02  -1.174284e+02
   4.343148e+02   8.093342e+02
  -3.165676e+02   7.594301e+02
  -6.677516e+02  -3.356071e+01
  -3.044399e+02  -7.411904e+02
   4.051880e+02  -6.256489e+02
   6.084479e+02  -2.115822e+01
   3.668553e+02   3.657103e+02
  -1.928221e+01   4.608640e+02
  -2.790646e+02   2.751960e+02
  -2.540989e+02  -1.416200e+00
   1.221469e+02  -1.473826e+02
   4.640454e+02   8.272825e+01
   2.437565e+02   4.671205e+02
  -4.575127e+02   4.557570e+02
  -9.280284e+02  -8.870974e+01
  -4.764717e+02  -6.191470e+02
   4.344525e+02  -5.427839e+02
   8.353503e+02   4.268844e+01
   3.851544e+02   5.417971e+02
  -3.031183e+02   5.588945e+02
  -6.068906e+02   2.150682e+02
  -4.438849e+02  -2.498167e+02
  -7.006381e+01  -5.190112e+02
   2.277233e+02  -2.991980e+02
   2.159005e+02   2.646868e+02
  -1.673056e+02   5.079193e+02
  -4.925605e+02  -3.023646e+00
  -2.889094e+02  -7.405701e+02
   3.337405e+02  -7.720708e+02
   6.775819e+02   2.611947e+00
   3.045757e+02   6.212300e+02
  -3.163539e+02   3.750066e+02
  -4.471392e+02  -3.297792e+02
   4.951993e+01  -5.840788e+02
   5.896711e+02  -1.532933e+02
   6.438719e+02   4.177389e+02
   1.795558e+02   6.227268e+02
  -4.202372e+02   3.848713e+02
  -6.840647e+02  -6.611335e+01
  -3.975715e+02  -4.229809e+02
   1.811338e+02  -4.098642e+02
   4.873955e+02  -5.427166e+01
   2.484274e+02   2.374120e+02
  -1.508555e+02   1.255393e+02
  -1.636426e+02  -1.854924e+02
   1.874469e+02  -2.217392e+02
   3.793664e+02   8.414291e+01
   1.418085e+02   3.340915e+02
  -2.231235e+02   2.707667e+02
  -3.323610e+02   6.376955e+01
  -1.832997e+02  -8.105563e+01
   2.067460e+01  -2.068457e+02
   2.017085e+02  -3.310440e+02
   3.423641e+02  -2.446174e+02
   3.228255e+02   1.356763e+02
   9.231490e+01   4.759579e+02
  -1.424151e+02   4.175296e+02
  -1.490380e+02   9.996039e+01
  -1.172876e+01  -4.215170e+01
  -6.328961e+00   8.834491e+01
  -1.849122e+02   1.645395e+02
  -3.091548e+02  -2.698196e+01
  -1.934644e+02  -2.787091e+02
   6.709322e+01  -2.829343e+02
   2.506955e+02  -2.612172e+01
   2.226766e+02   2.445807e+02
  -2.842027e+00   3.142014e+02
  -2.825649e+02   1.349870e+02
  -3.821414e+02  -1.671728e+02
  -1.934836e+02  -3.691082e+02
   1.140026e+02  -3.250357e+02
   2.459678e+02  -1.160399e+02
   1.518411e+02   1.374855e+01
   8.572485e+01  -2.599903e+01
   2.263629e+02  -7.537119e+01
   4.066982e+02   4.382326e+01
   3.423638e+02   2.832628e+02
   4.986733e+00   4.499837e+02
  -3.599916e+02   4.287582e+02
  -5.006612e+02   2.150760e+02
  -3.606387e+02  -9.529639e+01
  -6.886289e+01  -3.192423e+02
   1.452579e+02  -2.783284e+02
   1.084629e+02  -2.866639e+01
  -1.054702e+02   1.304900e+02
  -2.193382e+02   3.711215e+00
  -6.626092e+01  -2.158628e+02
   1.776437e+02  -1.944267e+02
   2.068239e+02   6.456940e+01
  -1.135070e+01   2.160471e+02
  -2.088359e+02   4.348644e+01
  -1.733572e+02  -2.554161e+02
   3.325365e+01  -3.565587e+02
   2.313326e+02  -1.918164e+02
   3.220522e+02   6.296514e+01
   2.808504e+02   2.333229e+02
   1.067863e+02   2.639832e+02
  -1.084285e+02   1.691657e+02
  -1.867372e+02   2.664499e+01
  -6.797741e+01  -3.723399e+01
   7.443266e+01   3.340924e+01
   3.917224e+01   1.311467e+02
  -1.257839e+02   1.116439e+02
  -1.916663e+02  -8.478266e+00
  -6.864365e+01  -7.873226e+01
   7.994474e+01  -2.554088e+01
   6.094509e+01   6.704616e+01
  -1.183717e+02   8.505484e+01
  -2.813546e+02   3.206515e+00
  -2.697092e+02  -1.343937e+02
  -6.917295e+01  -2.573828e+02
   1.844317e+02  -2.747884e+02
   2.980938e+02  -1.388912e+02
   1.865504e+02   5.498826e+01
  -2.303455e+01   1.244617e+02
  -1.033567e+02   1.556949e+01
   2.427101e+01  -1.091555e+02
   2.022891e+02  -6.970449e+01
   2.278270e+02   1.032152e+02
   7.735845e+01   2.190283e+02
  -9.855148e+01   1.695723e+02
  -1.559300e+02   3.401353e+01
  -8.174423e+01  -4.489539e+01
   2.473320e+01  -1.232821e+01
   4.417894e+01   7.472218e+01
  -6.226916e+01   1.140298e+02
  -1.971722e+02   3.816117e+01
  -2.006870e+02  -1.186591e+02
  -2.848271e+01  -2.256798e+02
   1.694818e+02  -1.755906e+02
   2.061317e+02  -7.942649e+00
   7.214047e+01   1.233817e+02
  -6.894176e+01   1.212745e+02
  -9.001864e+01   3.469309e+01
  -2.467040e+01  -2.739160e+01
   1.812244e+01  -2.251648e+01
  -8.579636e+00   3.513022e+00
  -6.602376e+01  -9.557560e+00
  -8.581836e+01  -7.765389e+01
  -1.949435e+01  -1.545957e+02
   1.198651e+02  -1.563907e+02
   2.348543e+02  -3.485303e+01
   2.095783e+02   1.469506e+02
   4.706286e+01   2.434016e+02
  -1.112804e+02   1.767990e+02
  -1.400420e+02   2.744265e+01
  -7.130084e+01  -5.861315e+01
  -2.831137e+01  -3.754861e+01
  -5.331656e+01   1.166022e+01
  -7.763940e+01   5.782962e+00
  -3.809384e+01  -4.745722e+01
   4.211862e+01  -8.183385e+01
   9.583953e+01  -5.227557e+01
   7.991278e+01   3.074302e+01
  -9.988851e+00   1.028976e+02
  -1.333689e+02   8.641819e+01
  -1.964437e+02  -4.250452e+01
  -1.089406e+02  -1.976353e+02
   9.868452e+01  -2.356205e+02
   2.697268e+02  -1.066969e+02
   2.674107e+02   8.330661e+01
   1.175322e+02   1.825037e+02
  -3.729675e+01   1.547647e+02
  -9.838362e+01   8.819773e+01
  -8.445676e+01   7.011379e+01
  -7.044436e+01   9.015555e+01
  -9.326437e+01   7.257381e+01
  -1.281861e+02  -2.340060e+01
  -1.191188e+02  -1.549237e+02
  -3.252944e+01  -2.280288e+02
   9.828096e+01  -1.767672e+02
   1.800912e+02  -2.627150e+01
   1.437895e+02   1.189282e+02
   2.559640e+01   1.626001e+02
  -6.420148e+01   1.002420e+02
  -6.086519e+01   8.756916e+00
  -9.116130e+00  -3.908750e+01
   5.122514e+00  -3.645793e+01
  -3.847526e+01  -2.163411e+01
  -7.759855e+01  -2.332892e+01
  -4.382676e+01  -3.635006e+01
   6.059735e+01  -3.706945e+01
   1.543394e+02  -7.230681e+00
   1.453436e+02   4.616179e+01
   2.210335e+01   8.734201e+01
  -1.162755e+02   7.691653e+01
  -1.463656e+02   1.693775e+01
  -5.104324e+01  -3.900610e+01
   5.993083e+01  -3.653607e+01
   7.575724e+01   1.918696e+01
   5.116243e+00   6.670708e+01
  -5.808949e+01   5.489898e+01
  -6.147745e+01  -3.967588e+00
  -4.021659e+01  -4.925515e+01
  -4.242593e+01  -4.030215e+01
  -6.346306e+01  -2.123005e+00
  -6.681866e+01  -1.201182e+00
  -3.287352e+01  -6.680668e+01
   3.365212e+01  -1.435658e+02
   1.126098e+02  -1.406165e+02
   1.594595e+02  -3.534354e+01
   1.226693e+02   8.780924e+01
   9.911540e+00   1.238277e+02
  -8.320326e+01   6.075648e+01
  -5.942802e+01  -1.500012e+01
   5.945565e+01  -2.028691e+01
   1.398785e+02   4.277068e+01
   7.905901e+01   1.076977e+02
  -7.933436e+01   1.153754e+02
  -1.924625e+02   5.687575e+01
  -1.659188e+02  -3.045197e+01
  -4.052338e+01  -8.758012e+01
   5.890567e+01  -7.413715e+01
   4.857633e+01  -1.080636e+01
  -3.837580e+01   2.523369e+01
  -8.964491e+01  -2.384969e+01
  -3.079250e+01  -1.202164e+02
   9.513023e+01  -1.547116e+02
   1.711540e+02  -6.079311e+01
   1.285926e+02   1.032369e+02
   1.039436e+01   2.006754e+02
  -8.651315e+01   1.481671e+02
  -1.069690e+02  -2.745721e+00
  -6.517808e+01  -1.169459e+02
  -3.111391e+00  -1.094221e+02
   4.403404e+01  -2.383747e+01
   5.409890e+01   3.019168e+01
   2.804155e+01   9.076283e+00
   2.741769e+00  -2.196871e+01
   1.809680e+01   1.195344e+01
   5.655055e+01   8.717074e+01
   4.642954e+01   1.109955e+02
  -4.381575e+01   4.692411e+01
  -1.397004e+02  -3.976763e+01
  -1.330071e+02  -7.159702e+01
  -1.774458e+01  -4.868639e+01
   9.042919e+01  -2.110819e+01
   8.962842e+01  -8.638421e+00
   9.418933e+00   5.628521e+00
  -3.982175e+01   2.279700e+01
  -1.280656e+01   2.060775e+01
   2.324533e+01  -1.997441e-01
  -6.532003e+00  -1.034259e+01
  -7.677134e+01  -5.854941e+00
  -9.160405e+01  -2.431274e+01
  -4.848805e+00  -7.946139e+01
   1.219590e+02  -1.129586e+02
   1.851884e+02  -5.671615e+01
   1.386535e+02   6.947848e+01
   2.381949e+01   1.631833e+02
  -7.876481e+01   1.492009e+02
  -1.136377e+02   5.690295e+01
  -8.073015e+01  -2.224953e+01
  -2.451648e+01  -3.462065e+01
   4.259676e+00  -6.882179e+00
  -9.924422e+00  -2.198032e+00
  -3.500715e+01  -4.477448e+01
  -2.502262e+01  -9.044848e+01
   2.900517e+01  -7.256736e+01
   8.205253e+01   1.893239e+01
   7.637935e+01   1.100274e+02
   1.716507e+00   1.126620e+02
  -8.403819e+01   2.121420e+01
  -1.019252e+02  -7.874964e+01
  -2.984566e+01  -1.038878e+02
   6.706690e+01  -5.310084e+01
   9.657371e+01   1.321379e+01
   3.802580e+01   4.876188e+01
  -3.212695e+01   4.929989e+01
  -2.926046e+01   2.803738e+01
   3.615062e+01   1.121681e+00
   7.019174e+01  -6.029207e+00
   1.454503e+01   2.472050e+01
  -7.980315e+01   6.671068e+01
  -1.148513e+02   6.098493e+01
  -6.192604e+01  -9.971457e+00
   1.679716e+01  -8.221189e+01
   5.141266e+01  -7.806098e+01
   3.343915e+01  -3.308731e+00
  -1.627293e+00   5.699303e+01
  -2.675985e+01   4.085616e+01
  -3.587398e+01  -2.133944e+01
  -2.581111e+01  -5.470359e+01
   3.136123e+00  -3.103614e+01
   3.298964e+01   9.758673e+00
   3.942408e+01   2.011694e+01
   2.077802e+01   2.088376e-01
  -4.395208e-01  -1.257634e+01
  -7.738683e+00   5.962926e+00
  -9.801638e+00   3.745241e+01
  -2.033599e+01   4.219979e+01
  -3.344345e+01   3.641587e+00
  -2.743513e+01  -4.776778e+01
   6.008517e+00  -6.141099e+01
   4.605359e+01  -1.941880e+01
   5.507585e+01   4.097337e+01
   1.307602e+01   6.411161e+01
  -5.445318e+01   3.354764e+01
  -8.754773e+01  -1.673639e+01
  -4.827106e+01  -4.450067e+01
   2.916668e+01  -3.917679e+01
   6.463707e+01  -1.891176e+01
   2.262755e+01  -4.002177e+00
  -4.001900e+01  -3.885353e+00
  -3.895528e+01  -1.845619e+01
   3.282888e+01  -3.294065e+01
   9.479961e+01  -1.952039e+01
