
 $NMID
 id='ANONYMOUS ', fmtdat='(2E16.6)'
 volume=1.0
 tramp=1.0
 $END
  -4.463273e+03   1.198856e+02
  -2.669316e+03  -2.703009e+03
   6.405152e+02  -2.705379e+03
   2.193432e+03  -8.581757e+02
   9.654061e+02   6.268761e+02
  -6.582519e+02   5.633637e+02
  -8.300238e+02  -3.828840e+02
   2.449361e+01  -1.007759e+03
   7.862758e+02  -8.135476e+02
   9.280218e+02   8.736058e+01
   4.863964e+02   8.592346e+02
  -2.741943e+02   8.599799e+02
  -6.310136e+02   1.120422e+02
  -4.008826e+02  -7.594064e+02
   3.045611e+02  -7.671790e+02
   6.274948e+02   5.161176e+00
   2.781262e+02   6.893883e+02
  -3.271721e+02   6.470006e+02
  -5.707434e+02   1.227397e+02
  -3.752687e+02  -3.188195e+02
   5.834740e+00  -4.452569e+02
   2.330371e+02  -2.576518e+02
   2.210064e+02  -1.669153e+01
  -1.378642e+02   9.289904e+01
  -4.044581e+02  -1.326390e+02
  -1.956580e+02  -4.340803e+02
   4.672684e+02  -3.979480e+02
   8.535503e+02   1.124203e+02
   4.235647e+02   5.686095e+02
  -3.891891e+02   4.863003e+02
  -7.633459e+02  -4.520163e+01
  -3.425961e+02  -5.048607e+02
   2.996542e+02  -5.294426e+02
   5.790464e+02  -2.160668e+02
   4.373878e+02   2.212409e+02
   7.444091e+01   4.753708e+02
  -1.852462e+02   2.815370e+02
  -1.502796e+02  -2.139722e+02
   1.673129e+02  -4.324240e+02
   4.347848e+02   2.550225e+01
   2.328437e+02   6.742978e+02
  -2.976613e+02   7.055661e+02
  -5.988023e+02   1.164383e+01
  -2.698029e+02  -5.434699e+02
   2.714944e+02  -3.318058e+02
   3.859822e+02   2.993657e+02
  -5.300239e+01   5.336499e+02
  -5.542791e+02   1.406531e+02
  -6.116850e+02  -4.034500e+02
  -1.765617e+02  -5.945346e+02
   3.926606e+02  -3.650620e+02
   6.555330e+02   5.643887e+01
   3.982236e+02   3.816408e+02
  -1.417601e+02   3.725711e+02
  -4.437017e+02   6.914525e+01
  -2.489580e+02  -1.871504e+02
   1.111076e+02  -1.072074e+02
   1.405360e+02   1.500356e+02
  -1.657110e+02   1.841645e+02
  -3.483458e+02  -7.782453e+01
  -1.399112e+02  -3.071576e+02
   2.118937e+02  -2.669439e+02
   3.413454e+02  -7.637057e+01
   2.016487e+02   8.727962e+01
  -2.688962e+01   2.292233e+02
  -2.255708e+02   3.364127e+02
  -3.457988e+02   2.300610e+02
  -3.034460e+02  -1.370211e+02
  -8.847007e+01  -4.553609e+02
   1.172974e+02  -4.082749e+02
   1.311464e+02  -1.209219e+02
   2.926526e+01   2.081294e+01
   3.734183e+01  -7.872076e+01
   1.924557e+02  -1.359489e+02
   2.908588e+02   4.114114e+01
   1.744927e+02   2.712793e+02
  -7.076709e+01   2.717022e+02
  -2.420775e+02   2.162620e+01
  -2.081836e+02  -2.430301e+02
   1.301586e+01  -3.018073e+02
   2.755157e+02  -1.169138e+02
   3.653351e+02   1.745728e+02
   1.862298e+02   3.590660e+02
  -1.009635e+02   3.132395e+02
  -2.305948e+02   1.259734e+02
  -1.593047e+02   1.133549e+01
  -1.100286e+02   3.429110e+01
  -2.417566e+02   6.069893e+01
  -4.027347e+02  -6.356469e+01
  -3.312231e+02  -2.873316e+02
   2.135322e+00  -4.459996e+02
   3.624480e+02  -4.210700e+02
   4.962421e+02  -2.102382e+02
   3.497693e+02   8.981187e+01
   6.327284e+01   3.044142e+02
  -1.321474e+02   2.658273e+02
  -8.771380e+01   3.549946e+01
   1.080257e+02  -1.104038e+02
   2.016432e+02   1.385045e+00
   5.537682e+01   2.001800e+02
  -1.643520e+02   1.799681e+02
  -1.866320e+02  -5.750667e+01
   1.275630e+01  -1.953235e+02
   1.959130e+02  -3.361514e+01
   1.651944e+02   2.541527e+02
  -3.387945e+01   3.559049e+02
  -2.378114e+02   1.948896e+02
  -3.342170e+02  -6.743203e+01
  -2.847488e+02  -2.450476e+02
  -9.947152e+01  -2.706670e+02
   1.136958e+02  -1.680679e+02
   1.836176e+02  -2.733708e+01
   6.696865e+01   3.002407e+01
  -6.442336e+01  -3.696199e+01
  -2.860370e+01  -1.231900e+02
   1.238979e+02  -1.009426e+02
   1.812726e+02   9.899116e+00
   6.202002e+01   7.121661e+01
  -7.815285e+01   1.717553e+01
  -5.403582e+01  -7.160144e+01
   1.276705e+02  -8.416925e+01
   2.893128e+02   4.998947e+00
   2.686927e+02   1.465347e+02
   5.778335e+01   2.624523e+02
  -1.939895e+02   2.677824e+02
  -2.949891e+02   1.305617e+02
  -1.776839e+02  -5.218242e+01
   2.272717e+01  -1.148599e+02
   9.258792e+01  -1.403894e+01
  -3.189017e+01   9.949814e+01
  -1.982963e+02   6.082301e+01
  -2.183371e+02  -1.019715e+02
  -7.251011e+01  -2.113803e+02
   9.565892e+01  -1.637388e+02
   1.479345e+02  -3.314362e+01
   7.329434e+01   4.058918e+01
  -2.743408e+01   3.596228e+00
  -3.727566e+01  -8.249100e+01
   7.304036e+01  -1.137026e+02
   2.011957e+02  -3.103152e+01
   1.960551e+02   1.226549e+02
   2.429858e+01   2.218613e+02
  -1.659967e+02   1.712961e+02
  -1.995138e+02   1.145013e+01
  -7.032327e+01  -1.153123e+02
   6.577961e+01  -1.166225e+02
   8.556006e+01  -3.505082e+01
   2.041689e+01   2.547616e+01
  -2.148206e+01   2.040779e+01
   8.742194e+00  -6.523059e+00
   7.079738e+01   7.903980e+00
   8.938430e+01   8.067341e+01
   1.677501e+01   1.583197e+02
  -1.257984e+02   1.552074e+02
  -2.357412e+02   2.823328e+01
  -2.055120e+02  -1.510141e+02
  -4.421933e+01  -2.421966e+02
   1.111620e+02  -1.751621e+02
   1.406690e+02  -2.823477e+01
   7.454430e+01   5.711239e+01
   3.070748e+01   3.768406e+01
   5.368132e+01  -1.166415e+01
   8.040473e+01  -6.548054e+00
   4.238139e+01   5.085803e+01
  -4.270064e+01   8.902266e+01
  -1.034942e+02   5.543407e+01
  -8.658361e+01  -3.563805e+01
   1.375475e+01  -1.104747e+02
   1.429298e+02  -8.589382e+01
   2.001704e+02   4.984950e+01
   1.030735e+02   2.029275e+02
  -1.060614e+02   2.330582e+02
  -2.714312e+02   1.015985e+02
  -2.650924e+02  -8.400206e+01
  -1.156010e+02  -1.798141e+02
   3.749623e+01  -1.522984e+02
   9.663357e+01  -8.819030e+01
   8.221865e+01  -7.214662e+01
   6.897687e+01  -9.279789e+01
   9.421766e+01  -7.489128e+01
   1.305754e+02   2.339776e+01
   1.191586e+02   1.573852e+02
   2.937427e+01   2.296650e+02
  -1.005597e+02   1.748197e+02
  -1.778173e+02   2.195659e+01
  -1.383542e+02  -1.217704e+02
  -2.085724e+01  -1.612295e+02
   6.595692e+01  -9.497502e+01
   5.957920e+01  -2.475109e+00
   5.293150e+00   4.289460e+01
  -9.756207e+00   3.609579e+01
   3.646607e+01   1.941823e+01
   7.934328e+01   2.286510e+01
   4.496894e+01   3.802461e+01
  -6.424260e+01   3.690410e+01
  -1.599029e+02   2.969896e+00
  -1.458369e+02  -5.197527e+01
  -1.604610e+01  -9.007884e+01
   1.229177e+02  -7.531616e+01
   1.485064e+02  -1.340381e+01
   4.984163e+01   4.224950e+01
  -6.141526e+01   3.837854e+01
  -7.756246e+01  -1.981559e+01
  -7.481315e+00  -7.009665e+01
   5.757033e+01  -5.853543e+01
   6.468335e+01   3.369057e+00
   4.447448e+01   5.164588e+01
   4.405041e+01   4.218873e+01
   6.304550e+01   1.996479e+00
   6.802075e+01   1.557491e+00
   3.552846e+01   7.000672e+01
  -3.426341e+01   1.480018e+02
  -1.187475e+02   1.424147e+02
  -1.665160e+02   3.337274e+01
  -1.249499e+02  -9.135238e+01
  -6.682775e+00  -1.271562e+02
   8.728651e+01  -6.278437e+01
   6.113609e+01   1.433705e+01
  -6.003167e+01   2.081406e+01
  -1.401515e+02  -4.280821e+01
  -7.820263e+01  -1.083568e+02
   8.057007e+01  -1.147827e+02
   1.929439e+02  -5.393892e+01
   1.646485e+02   3.367064e+01
   3.843536e+01   8.715697e+01
  -6.011741e+01   6.983989e+01
  -4.764204e+01   6.439560e+00
   4.072462e+01  -2.650773e+01
   9.184115e+01   2.522168e+01
   3.258888e+01   1.225921e+02
  -9.337115e+01   1.574662e+02
  -1.700504e+02   6.340587e+01
  -1.289611e+02  -1.017943e+02
  -1.181137e+01  -2.003475e+02
   8.515024e+01  -1.471896e+02
   1.054193e+02   5.008287e+00
   6.226923e+01   1.180760e+02
  -4.773014e-01   1.077705e+02
  -4.543892e+01   2.120624e+01
  -5.202229e+01  -3.088094e+01
  -2.563668e+01  -8.393074e+00
  -3.633132e+00   2.086006e+01
  -2.107300e+01  -1.521268e+01
  -5.688821e+01  -8.932246e+01
  -4.275993e+01  -1.102584e+02
   4.760658e+01  -4.510985e+01
   1.400064e+02   4.048861e+01
   1.311545e+02   7.214712e+01
   1.728081e+01   5.025999e+01
  -8.929310e+01   2.213357e+01
  -8.959089e+01   7.349760e+00
  -1.120012e+01  -7.848475e+00
   3.878565e+01  -2.271574e+01
   1.434048e+01  -1.823673e+01
  -2.153392e+01   1.599932e+00
   5.807599e+00   8.931942e+00
   7.533530e+01   3.421048e+00
   9.316586e+01   2.388067e+01
   9.190566e+00   8.149457e+01
  -1.198245e+02   1.160548e+02
  -1.882056e+02   5.954237e+01
  -1.438950e+02  -6.817200e+01
  -2.601647e+01  -1.640120e+02
   8.050706e+01  -1.515197e+02
   1.160129e+02  -5.884114e+01
   8.153131e+01   2.222829e+01
   2.455439e+01   3.601454e+01
  -3.776386e+00   8.747535e+00
   9.875408e+00   3.815006e+00
   3.357218e+01   4.594003e+01
   2.336738e+01   9.087103e+01
  -2.928317e+01   7.252128e+01
  -8.203062e+01  -1.855819e+01
  -7.806324e+01  -1.094842e+02
  -4.359710e+00  -1.135973e+02
   8.347765e+01  -2.406421e+01
   1.043134e+02   7.675664e+01
   3.218402e+01   1.055035e+02
  -6.801795e+01   5.673292e+01
  -9.999811e+01  -1.237751e+01
  -4.014118e+01  -5.214135e+01
   3.349359e+01  -5.311876e+01
   3.243679e+01  -2.853634e+01
  -3.422687e+01   9.228768e-01
  -7.080242e+01   7.020299e+00
  -1.586629e+01  -2.573889e+01
   8.014927e+01  -6.734385e+01
   1.174554e+02  -5.960232e+01
   6.481679e+01   1.200774e+01
  -1.653629e+01   8.392610e+01
  -5.430688e+01   7.970086e+01
  -3.742971e+01   4.977128e+00
  -6.181811e-01  -5.714591e+01
   2.717497e+01  -4.358594e+01
   3.759686e+01   1.878121e+01
   2.712518e+01   5.521213e+01
  -2.948160e+00   3.401678e+01
  -3.375771e+01  -8.294184e+00
  -4.051865e+01  -2.124042e+01
  -2.105645e+01  -1.359886e+00
   8.315094e-01   1.427384e+01
   6.956753e+00  -2.875140e+00
   6.343576e+00  -3.709608e+01
   1.621985e+01  -4.571254e+01
   3.278541e+01  -8.319551e+00
   3.162917e+01   4.536555e+01
  -9.635485e-01   6.211061e+01
  -4.495381e+01   2.156818e+01
  -5.779532e+01  -3.906093e+01
  -1.537942e+01  -6.353422e+01
   5.539861e+01  -3.434295e+01
   8.987563e+01   1.575257e+01
   4.911754e+01   4.491347e+01
  -2.987002e+01   4.144468e+01
  -6.613807e+01   2.134998e+01
  -2.473002e+01   4.163137e+00
   3.758318e+01   1.365925e+00
   3.833308e+01   1.530923e+01
  -3.049740e+01   3.166976e+01
  -9.154268e+01   2.040329e+01
