
 $NMID
 id='ANONYMOUS ', fmtdat='(2E16.6)'
 volume=1.0
 tramp=1.0
 $END
   4.332401e+03  -3.001224e+01
   2.602664e+03   2.595990e+03
  -5.820698e+02   2.684007e+03
  -2.162690e+03   9.059515e+02
  -9.479062e+02  -5.074049e+02
   5.570456e+02  -4.876450e+02
   8.132805e+02   4.075160e+02
  -3.653019e+01   1.008874e+03
  -7.619389e+02   7.880270e+02
  -8.630861e+02  -3.986893e+01
  -4.537428e+02  -7.971770e+02
   2.421106e+02  -8.739098e+02
   6.156702e+02  -1.356105e+02
   3.851517e+02   6.988780e+02
  -2.640859e+02   7.781794e+02
  -6.014156e+02  -1.132198e+01
  -2.929822e+02  -7.044386e+02
   3.504453e+02  -6.523041e+02
   5.907350e+02  -1.369466e+02
   4.077884e+02   3.112275e+02
   3.574282e+00   4.412139e+02
  -2.153268e+02   2.652509e+02
  -1.981949e+02   2.627121e+01
   1.464150e+02  -5.600286e+01
   4.121487e+02   1.432696e+02
   1.629492e+02   4.339959e+02
  -4.958804e+02   3.867179e+02
  -8.546919e+02  -1.184108e+02
  -3.966791e+02  -5.612234e+02
   4.034605e+02  -4.683658e+02
   7.414392e+02   5.950942e+01
   3.363997e+02   4.971886e+02
  -2.936553e+02   5.071076e+02
  -5.777767e+02   1.972946e+02
  -4.205531e+02  -2.182732e+02
  -6.696263e+01  -4.567369e+02
   1.720273e+02  -2.737542e+02
   1.258358e+02   1.970714e+02
  -1.872848e+02   4.034809e+02
  -4.147661e+02  -4.344986e+01
  -1.998295e+02  -6.740058e+02
   3.140618e+02  -6.738788e+02
   5.730078e+02  -1.417945e+00
   2.384911e+02   5.290825e+02
  -2.704423e+02   3.036955e+02
  -3.596785e+02  -3.100441e+02
   7.634324e+01  -5.276957e+02
   5.531176e+02  -1.248573e+02
   5.993943e+02   4.083839e+02
   1.649975e+02   5.840675e+02
  -3.910193e+02   3.501069e+02
  -6.387046e+02  -6.935427e+01
  -3.780314e+02  -3.771560e+02
   1.455941e+02  -3.568324e+02
   4.302171e+02  -6.013939e+01
   2.383869e+02   1.786375e+02
  -1.030728e+02   9.390520e+01
  -1.253873e+02  -1.478769e+02
   1.657148e+02  -1.693614e+02
   3.331619e+02   8.382297e+01
   1.293838e+02   2.973079e+02
  -2.083664e+02   2.546006e+02
  -3.339149e+02   7.215679e+01
  -1.989932e+02  -8.815737e+01
   2.931133e+01  -2.323551e+02
   2.326621e+02  -3.366686e+02
   3.512696e+02  -2.237219e+02
   3.019145e+02   1.419306e+02
   8.654998e+01   4.510631e+02
  -1.118562e+02   4.016648e+02
  -1.246652e+02   1.240190e+02
  -3.374561e+01  -8.923373e+00
  -5.037096e+01   8.577485e+01
  -1.987268e+02   1.305380e+02
  -2.825924e+02  -5.355721e+01
  -1.615648e+02  -2.798591e+02
   7.566361e+01  -2.692893e+02
   2.374251e+02  -1.163081e+01
   2.018824e+02   2.532713e+02
  -1.682623e+01   3.019359e+02
  -2.757467e+02   1.078364e+02
  -3.592891e+02  -1.818110e+02
  -1.811082e+02  -3.555598e+02
   9.992337e+01  -3.040928e+02
   2.227816e+02  -1.234427e+02
   1.556470e+02  -2.045004e+01
   1.144003e+02  -4.391582e+01
   2.499421e+02  -5.748903e+01
   4.047921e+02   7.372969e+01
   3.257606e+02   2.970711e+02
  -1.003849e+01   4.458020e+02
  -3.675197e+02   4.116865e+02
  -4.950795e+02   1.981754e+02
  -3.419438e+02  -9.477101e+01
  -5.506236e+01  -2.973502e+02
   1.320781e+02  -2.572176e+02
   8.009920e+01  -3.394808e+01
  -1.121994e+02   1.051259e+02
  -1.954344e+02  -6.554318e+00
  -4.750297e+01  -1.960523e+02
   1.612268e+02  -1.713483e+02
   1.740720e+02   5.966768e+01
  -2.156588e+01   1.891991e+02
  -1.936697e+02   2.526300e+01
  -1.570140e+02  -2.571257e+02
   4.178990e+01  -3.548371e+02
   2.407915e+02  -1.907219e+02
   3.326730e+02   7.301978e+01
   2.788927e+02   2.498716e+02
   9.285495e+01   2.710735e+02
  -1.162874e+02   1.632655e+02
  -1.811053e+02   2.282604e+01
  -6.452161e+01  -2.973837e+01
   6.234844e+01   4.013710e+01
   2.484380e+01   1.228030e+02
  -1.240085e+02   9.565598e+01
  -1.765184e+02  -1.454238e+01
  -5.704829e+01  -7.026940e+01
   7.917218e+01  -1.192938e+01
   5.119482e+01   7.657406e+01
  -1.316545e+02   8.571675e+01
  -2.917204e+02  -7.503399e+00
  -2.678397e+02  -1.514539e+02
  -5.423056e+01  -2.657975e+02
   1.971582e+02  -2.658560e+02
   2.942548e+02  -1.250120e+02
   1.738622e+02   5.520053e+01
  -2.429615e+01   1.125407e+02
  -8.892627e+01   1.063451e+01
   3.648807e+01  -9.835802e+01
   1.972398e+02  -5.592837e+01
   2.117413e+02   1.051878e+02
   6.710484e+01   2.103088e+02
  -9.502162e+01   1.600681e+02
  -1.430574e+02   3.003396e+01
  -6.935881e+01  -4.112909e+01
   2.734457e+01  -7.004342e-01
   3.399537e+01   8.692925e+01
  -7.695381e+01   1.149665e+02
  -2.023524e+02   2.679706e+01
  -1.926678e+02  -1.277233e+02
  -1.921049e+01  -2.212020e+02
   1.677744e+02  -1.651210e+02
   1.962162e+02  -6.818250e+00
   6.582349e+01   1.142486e+02
  -6.707120e+01   1.127040e+02
  -8.420025e+01   3.297025e+01
  -1.895466e+01  -2.497724e+01
   2.180364e+01  -1.977080e+01
  -8.897639e+00   5.959958e+00
  -7.072796e+01  -9.323008e+00
  -8.802587e+01  -8.201372e+01
  -1.322865e+01  -1.588088e+02
   1.297608e+02  -1.522526e+02
   2.364800e+02  -2.318220e+01
   2.017813e+02   1.548927e+02
   3.957868e+01   2.419936e+02
  -1.129073e+02   1.729091e+02
  -1.398282e+02   2.769948e+01
  -7.372063e+01  -5.670493e+01
  -3.129291e+01  -3.813894e+01
  -5.514688e+01   1.020522e+01
  -8.134420e+01   5.030269e+00
  -4.316411e+01  -5.123260e+01
   4.297812e+01  -8.937018e+01
   1.052602e+02  -5.607210e+01
   8.817883e+01   3.651106e+01
  -1.481592e+01   1.119241e+02
  -1.463926e+02   8.544419e+01
  -2.001099e+02  -5.364853e+01
  -9.902268e+01  -2.055476e+02
   1.108674e+02  -2.304592e+02
   2.717224e+02  -9.542809e+01
   2.610546e+02   8.871798e+01
   1.105963e+02   1.797563e+02
  -3.968833e+01   1.494910e+02
  -9.706577e+01   8.554338e+01
  -8.256831e+01   7.117567e+01
  -6.992940e+01   9.215707e+01
  -9.556270e+01   7.381235e+01
  -1.307213e+02  -2.487241e+01
  -1.174455e+02  -1.588917e+02
  -2.629845e+01  -2.305995e+02
   1.032253e+02  -1.736708e+02
   1.778451e+02  -1.855351e+01
   1.352944e+02   1.253700e+02
   1.661049e+01   1.621164e+02
  -6.899098e+01   9.248948e+01
  -6.018379e+01  -8.762689e-01
  -4.158732e+00  -4.462899e+01
   1.104588e+01  -3.638932e+01
  -3.593690e+01  -2.000114e+01
  -7.929075e+01  -2.446543e+01
  -4.414214e+01  -3.948958e+01
   6.619368e+01  -3.676320e+01
   1.618943e+02  -6.701097e-01
   1.460352e+02   5.487389e+01
   1.422592e+01   9.153740e+01
  -1.249340e+02   7.456680e+01
  -1.491616e+02   1.168872e+01
  -4.937670e+01  -4.322987e+01
   6.159340e+01  -3.821275e+01
   7.700668e+01   2.001873e+01
   7.194491e+00   6.990771e+01
  -5.715208e+01   5.825356e+01
  -6.446354e+01  -3.349525e+00
  -4.457240e+01  -5.199713e+01
  -4.399202e+01  -4.296810e+01
  -6.267910e+01  -2.585763e+00
  -6.805817e+01  -1.736892e+00
  -3.571968e+01  -7.029236e+01
   3.533254e+01  -1.486937e+02
   1.214575e+02  -1.422559e+02
   1.685258e+02  -3.134705e+01
   1.242268e+02   9.437324e+01
   4.179394e+00   1.285744e+02
  -8.901803e+01   6.219657e+01
  -6.118933e+01  -1.543128e+01
   6.000741e+01  -2.009956e+01
   1.388515e+02   4.488528e+01
   7.561717e+01   1.095498e+02
  -8.306794e+01   1.129166e+02
  -1.941390e+02   4.957732e+01
  -1.640201e+02  -3.751782e+01
  -3.596909e+01  -8.831845e+01
   6.302791e+01  -6.840663e+01
   4.904496e+01  -4.291841e+00
  -4.102685e+01   2.751329e+01
  -9.257686e+01  -2.525502e+01
  -3.270821e+01  -1.223072e+02
   9.349789e+01  -1.560470e+02
   1.693525e+02  -6.154760e+01
   1.269462e+02   1.025686e+02
   8.901086e+00   1.992184e+02
  -8.729305e+01   1.446328e+02
  -1.053053e+02  -7.566873e+00
  -5.978405e+01  -1.195435e+02
   3.228474e+00  -1.075674e+02
   4.622229e+01  -2.004593e+01
   5.094821e+01   3.201581e+01
   2.486212e+01   9.076115e+00
   4.287949e+00  -2.034603e+01
   2.143044e+01   1.588063e+01
   5.512715e+01   9.016901e+01
   3.975415e+01   1.106665e+02
  -4.939001e+01   4.443701e+01
  -1.396313e+02  -4.236126e+01
  -1.301379e+02  -7.433369e+01
  -1.725865e+01  -5.137090e+01
   8.890820e+01  -2.165895e+01
   8.997294e+01  -6.256547e+00
   1.205353e+01   7.916186e+00
  -3.874132e+01   2.175821e+01
  -1.510060e+01   1.750092e+01
   2.101741e+01  -1.544132e+00
  -5.298832e+00  -8.727218e+00
  -7.446460e+01  -4.038603e+00
  -9.268737e+01  -2.466360e+01
  -8.865090e+00  -8.117538e+01
   1.203644e+02  -1.143629e+02
   1.887511e+02  -5.779996e+01
   1.434586e+02   6.889226e+01
   2.423724e+01   1.638597e+02
  -8.258993e+01   1.511921e+02
  -1.171614e+02   5.842458e+01
  -8.135134e+01  -2.294364e+01
  -2.420078e+01  -3.716919e+01
   3.716097e+00  -9.937202e+00
  -9.953240e+00  -4.852803e+00
  -3.261546e+01  -4.662742e+01
  -2.137656e+01  -9.099498e+01
   3.092757e+01  -7.178958e+01
   8.222197e+01   1.978625e+01
   7.707879e+01   1.106248e+02
   3.414420e+00   1.142485e+02
  -8.361985e+01   2.415678e+01
  -1.041376e+02  -7.705978e+01
  -3.199265e+01  -1.058896e+02
   6.801937e+01  -5.679096e+01
   1.001390e+02   1.281488e+01
   4.024245e+01   5.277460e+01
  -3.377196e+01   5.356083e+01
  -3.296160e+01   2.894773e+01
   3.366484e+01  -6.634569e-02
   7.023570e+01  -6.009326e+00
   1.501014e+01   2.581614e+01
  -8.138941e+01   6.609428e+01
  -1.187479e+02   5.798351e+01
  -6.548853e+01  -1.300869e+01
   1.679395e+01  -8.408467e+01
   5.509850e+01  -8.018797e+01
   3.811479e+01  -5.727746e+00
   9.350754e-01   5.669167e+01
  -2.718084e+01   4.375624e+01
  -3.742239e+01  -1.856895e+01
  -2.693614e+01  -5.565150e+01
   2.989136e+00  -3.446102e+01
   3.396087e+01   8.477757e+00
   4.058972e+01   2.206507e+01
   2.107170e+01   1.663605e+00
  -1.040069e+00  -1.496714e+01
  -7.053701e+00   1.868923e+00
  -5.956584e+00   3.632111e+01
  -1.525815e+01   4.560742e+01
  -3.192255e+01   8.923357e+00
  -3.144022e+01  -4.416630e+01
   6.782741e-01  -6.087785e+01
   4.436712e+01  -2.095764e+01
   5.701230e+01   3.893033e+01
   1.444532e+01   6.301384e+01
  -5.612591e+01   3.386117e+01
  -9.012169e+01  -1.623446e+01
  -4.922887e+01  -4.548779e+01
   2.973964e+01  -4.188203e+01
   6.617656e+01  -2.165731e+01
   2.561734e+01  -4.549985e+00
  -3.609574e+01  -1.722972e+00
  -3.748223e+01  -1.511864e+01
   3.005706e+01  -3.040993e+01
   9.036937e+01  -1.890120e+01
