
 $NMID
 id='ANONYMOUS ', fmtdat='(2E16.6)'
 volume=1.0
 tramp=1.0
 $END
  -5.061403e+03  -1.630026e+01
  -2.811969e+03  -2.944767e+03
   8.962620e+02  -2.936317e+03
   2.434303e+03  -7.801114e+02
   9.390612e+02   7.816797e+02
  -8.833168e+02   6.142645e+02
  -1.053484e+03  -5.595786e+02
   4.260021e+01  -1.226022e+03
   9.924629e+02  -8.507210e+02
   1.003071e+03   2.250028e+02
   4.113789e+02   9.511250e+02
  -3.166587e+02   9.558708e+02
  -7.608777e+02   9.900579e+01
  -4.664205e+02  -8.160016e+02
   3.139434e+02  -8.230046e+02
   6.695126e+02   1.817715e+01
   2.747214e+02   7.448122e+02
  -3.771965e+02   6.130992e+02
  -6.421391e+02   3.131397e+01
  -4.028045e+02  -3.622839e+02
   8.168386e+00  -4.466618e+02
   2.997096e+02  -2.836094e+02
   2.662999e+02  -3.578009e+00
  -8.111370e+01   1.481729e+02
  -4.664056e+02  -8.242947e+01
  -2.703959e+02  -4.625751e+02
   4.693319e+02  -4.648104e+02
   9.509742e+02   7.104827e+01
   5.042424e+02   6.374387e+02
  -4.472153e+02   5.591818e+02
  -8.729272e+02  -4.631827e+01
  -4.003754e+02  -5.437293e+02
   3.207270e+02  -5.808357e+02
   6.158339e+02  -2.150375e+02
   4.555235e+02   2.579911e+02
   6.852291e+01   5.219374e+02
  -2.476427e+02   3.161055e+02
  -2.294975e+02  -2.554599e+02
   1.675883e+02  -5.157171e+02
   5.152872e+02  -7.324134e+00
   3.123265e+02   7.512837e+02
  -3.621549e+02   8.043804e+02
  -7.129182e+02   1.027327e+01
  -3.170974e+02  -6.486849e+02
   3.347615e+02  -4.001691e+02
   4.668283e+02   3.422188e+02
  -4.374152e+01   6.120683e+02
  -6.056282e+02   1.642991e+02
  -6.511142e+02  -4.304564e+02
  -1.734612e+02  -6.324756e+02
   4.291866e+02  -3.830032e+02
   6.966652e+02   8.254281e+01
   4.034425e+02   4.465494e+02
  -1.936697e+02   4.296882e+02
  -5.109673e+02   5.440705e+01
  -2.610142e+02  -2.526933e+02
   1.578180e+02  -1.386365e+02
   1.757603e+02   1.853744e+02
  -1.851993e+02   2.259189e+02
  -3.818165e+02  -8.389259e+01
  -1.384865e+02  -3.300213e+02
   2.275487e+02  -2.562785e+02
   3.296428e+02  -5.148633e+01
   1.791151e+02   7.801092e+01
  -1.798749e+01   1.989154e+02
  -2.005807e+02   3.363089e+02
  -3.538768e+02   2.565566e+02
  -3.360102e+02  -1.385804e+02
  -8.497086e+01  -4.931765e+02
   1.670263e+02  -4.246814e+02
   1.644659e+02  -8.580500e+01
   6.087933e+00   5.995734e+01
  -2.844371e+00  -8.580064e+01
   1.879481e+02  -1.701383e+02
   3.157411e+02   2.930415e+01
   1.907407e+02   2.905212e+02
  -7.712087e+01   2.901804e+02
  -2.568644e+02   2.344897e+01
  -2.239440e+02  -2.532263e+02
   1.083216e+00  -3.215878e+02
   2.804570e+02  -1.408790e+02
   3.880355e+02   1.642978e+02
   1.993478e+02   3.762946e+02
  -1.158326e+02   3.347672e+02
  -2.548383e+02   1.183573e+02
  -1.595734e+02  -2.254998e+01
  -8.586297e+01   1.686885e+01
  -2.196490e+02   6.874894e+01
  -4.038513e+02  -4.679875e+01
  -3.430562e+02  -2.854613e+02
  -3.762446e+00  -4.533984e+02
   3.646988e+02  -4.288389e+02
   5.095746e+02  -2.125401e+02
   3.629513e+02   1.005337e+02
   6.131954e+01   3.236743e+02
  -1.540958e+02   2.769163e+02
  -1.117319e+02   2.075019e+01
   1.132810e+02  -1.344041e+02
   2.259781e+02   3.125108e-01
   6.003993e+01   2.233985e+02
  -1.883124e+02   1.944279e+02
  -2.075965e+02  -7.366683e+01
   2.163281e+01  -2.215818e+02
   2.152040e+02  -3.892608e+01
   1.657251e+02   2.622478e+02
  -4.454322e+01   3.574855e+02
  -2.342219e+02   1.856802e+02
  -3.188494e+02  -6.763588e+01
  -2.799041e+02  -2.355245e+02
  -1.073372e+02  -2.680346e+02
   1.124515e+02  -1.752902e+02
   1.944211e+02  -2.757701e+01
   7.064436e+01   4.196784e+01
  -7.796780e+01  -2.934100e+01
  -4.108354e+01  -1.316451e+02
   1.295950e+02  -1.136619e+02
   1.959903e+02   8.932099e+00
   6.851272e+01   8.044551e+01
  -8.149340e+01   2.530045e+01
  -5.974334e+01  -6.770934e+01
   1.199041e+02  -8.300915e+01
   2.798346e+02   6.673677e-01
   2.669527e+02   1.366300e+02
   6.856144e+01   2.571322e+02
  -1.839107e+02   2.733974e+02
  -2.995779e+02   1.368658e+02
  -1.886154e+02  -5.777132e+01
   2.378704e+01  -1.257603e+02
   1.055999e+02  -1.319423e+01
  -2.488192e+01   1.128650e+02
  -2.054432e+02   6.937442e+01
  -2.286482e+02  -1.083719e+02
  -7.403498e+01  -2.237987e+02
   1.023072e+02  -1.692873e+02
   1.567518e+02  -3.033600e+01
   8.077721e+01   4.756144e+01
  -2.441393e+01   1.232458e+01
  -4.235440e+01  -7.554317e+01
   6.424024e+01  -1.135104e+02
   1.986637e+02  -3.557781e+01
   2.007366e+02   1.228171e+02
   2.590100e+01   2.294510e+02
  -1.739308e+02   1.759922e+02
  -2.091257e+02   5.098954e+00
  -7.161996e+01  -1.259486e+02
   7.145243e+01  -1.206522e+02
   9.064428e+01  -3.222038e+01
   2.352120e+01   2.813539e+01
  -1.841745e+01   2.138700e+01
   9.716695e+00  -3.641004e+00
   6.599329e+01   1.187186e+01
   8.399507e+01   7.979496e+01
   1.662468e+01   1.549028e+02
  -1.219187e+02   1.553567e+02
  -2.359493e+02   3.246345e+01
  -2.097603e+02  -1.506439e+02
  -4.453761e+01  -2.470418e+02
   1.149979e+02  -1.776216e+02
   1.417731e+02  -2.460339e+01
   7.034277e+01   6.212503e+01
   2.617894e+01   3.815399e+01
   5.381971e+01  -1.207614e+01
   7.934158e+01  -5.652527e+00
   3.677002e+01   4.853656e+01
  -4.511611e+01   8.197220e+01
  -9.694788e+01   5.009906e+01
  -7.788447e+01  -3.292205e+01
   1.212854e+01  -1.032952e+02
   1.335069e+02  -8.470737e+01
   1.955676e+02   4.652843e+01
   1.079869e+02   1.992456e+02
  -1.011796e+02   2.335951e+02
  -2.723131e+02   1.021820e+02
  -2.671548e+02  -8.732950e+01
  -1.144913e+02  -1.842034e+02
   4.010892e+01  -1.537683e+02
   9.934538e+01  -8.758169e+01
   8.581131e+01  -7.072722e+01
   7.370889e+01  -8.999142e+01
   9.648950e+01  -7.131395e+01
   1.283712e+02   2.497367e+01
   1.167509e+02   1.561251e+02
   3.041556e+01   2.293778e+02
  -9.878836e+01   1.779524e+02
  -1.800253e+02   2.616428e+01
  -1.438316e+02  -1.205163e+02
  -2.493109e+01  -1.640071e+02
   6.516030e+01  -1.001169e+02
   6.089990e+01  -8.491320e+00
   8.366792e+00   3.792013e+01
  -5.211565e+00   3.471855e+01
   3.966950e+01   2.161081e+01
   7.895812e+01   2.516740e+01
   4.419238e+01   3.748540e+01
  -6.050929e+01   3.563002e+01
  -1.539978e+02   4.251430e+00
  -1.444713e+02  -4.854659e+01
  -2.060244e+01  -8.748163e+01
   1.180756e+02  -7.480936e+01
   1.473825e+02  -1.426430e+01
   5.038563e+01   4.008563e+01
  -6.081722e+01   3.550034e+01
  -7.478645e+01  -2.047211e+01
  -2.624892e+00  -6.661509e+01
   5.921379e+01  -5.329638e+01
   5.987779e+01   5.661009e+00
   3.767020e+01   5.046328e+01
   4.159494e+01   4.130828e+01
   6.388078e+01   2.626267e+00
   6.666112e+01   8.589241e-01
   3.183514e+01   6.599567e+01
  -3.502544e+01   1.432293e+02
  -1.141721e+02   1.400967e+02
  -1.609667e+02   3.336412e+01
  -1.229020e+02  -9.099288e+01
  -8.080711e+00  -1.253661e+02
   8.588299e+01  -5.908229e+01
   6.021987e+01   1.733910e+01
  -6.120521e+01   1.988380e+01
  -1.415275e+02  -4.622293e+01
  -7.832757e+01  -1.106864e+02
   8.204831e+01  -1.154993e+02
   1.948606e+02  -5.512925e+01
   1.667742e+02   3.196769e+01
   4.079324e+01   8.835601e+01
  -5.859614e+01   7.490343e+01
  -4.804638e+01   1.193689e+01
   3.853823e+01  -2.406269e+01
   8.896081e+01   2.489102e+01
   2.879717e+01   1.213686e+02
  -9.801320e+01   1.552154e+02
  -1.733919e+02   5.962525e+01
  -1.285976e+02  -1.057126e+02
  -8.201156e+00  -2.027336e+02
   8.860160e+01  -1.480278e+02
   1.071034e+02   4.752263e+00
   6.363406e+01   1.186741e+02
   1.566345e+00   1.093664e+02
  -4.478365e+01   2.260396e+01
  -5.445083e+01  -3.105280e+01
  -2.879924e+01  -8.726930e+00
  -3.640646e+00   2.237114e+01
  -1.838894e+01  -1.307295e+01
  -5.591902e+01  -8.966870e+01
  -4.540617e+01  -1.129586e+02
   4.466535e+01  -4.671944e+01
   1.400266e+02   4.148664e+01
   1.328979e+02   7.288981e+01
   1.738813e+01   4.868083e+01
  -9.075334e+01   2.039855e+01
  -8.972066e+01   8.171565e+00
  -9.316713e+00  -5.836410e+00
   3.984742e+01  -2.298115e+01
   1.252251e+01  -2.076308e+01
  -2.371295e+01   2.883300e-01
   6.415276e+00   1.028625e+01
   7.733796e+01   5.702798e+00
   9.225024e+01   2.483968e+01
   4.327355e+00   8.051986e+01
  -1.239879e+02   1.131772e+02
  -1.872779e+02   5.478622e+01
  -1.389215e+02  -7.275763e+01
  -2.192037e+01  -1.651099e+02
   8.107994e+01  -1.486179e+02
   1.148264e+02  -5.524090e+01
   8.073868e+01   2.304225e+01
   2.435281e+01   3.420156e+01
  -4.156291e+00   6.529654e+00
   9.993620e+00   2.506371e+00
   3.461317e+01   4.529233e+01
   2.419973e+01   9.095589e+01
  -2.986398e+01   7.278044e+01
  -8.260733e+01  -1.958649e+01
  -7.607735e+01  -1.117735e+02
  -3.560561e-01  -1.141483e+02
   8.541678e+01  -2.084942e+01
   1.018771e+02   8.066210e+01
   2.800411e+01   1.049820e+02
  -6.906566e+01   5.180061e+01
  -9.660747e+01  -1.576580e+01
  -3.600483e+01  -4.985950e+01
   3.423332e+01  -4.833408e+01
   2.948049e+01  -2.695504e+01
  -3.761073e+01  -1.663778e+00
  -7.132273e+01   4.209268e+00
  -1.367082e+01  -2.591778e+01
   8.191504e+01  -6.607289e+01
   1.163420e+02  -5.920933e+01
   6.165121e+01   1.108140e+01
  -1.776748e+01   8.201419e+01
  -5.180605e+01   7.729029e+01
  -3.324796e+01   3.209801e+00
   1.753135e+00  -5.630501e+01
   2.653205e+01  -4.009947e+01
   3.560705e+01   2.186093e+01
   2.529016e+01   5.488649e+01
  -4.060651e+00   3.097753e+01
  -3.389660e+01  -1.019677e+01
  -3.981360e+01  -2.107051e+01
  -2.062014e+01  -9.881618e-01
   2.631583e-01   1.225184e+01
   7.437543e+00  -6.412767e+00
   1.028278e+01  -3.861152e+01
   2.220941e+01  -4.295817e+01
   3.526191e+01  -2.850759e+00
   2.735610e+01   5.006265e+01
  -8.078374e+00   6.305734e+01
  -4.792994e+01   1.846194e+01
  -5.515997e+01  -4.350126e+01
  -1.160845e+01  -6.558740e+01
   5.599992e+01  -3.266588e+01
   8.788768e+01   1.873983e+01
   4.754803e+01   4.538585e+01
  -3.018381e+01   3.841645e+01
  -6.513023e+01   1.770409e+01
  -2.209491e+01   3.478811e+00
   4.108522e+01   4.588415e+00
   3.956824e+01   1.957337e+01
  -3.367380e+01   3.350348e+01
  -9.655450e+01   1.902221e+01
