
 $NMID
 id='ANONYMOUS ', fmtdat='(2E16.6)'
 volume=1.0
 tramp=1.0
 $END
  -4.591240e+03  -5.830911e+01
  -2.681779e+03  -2.805195e+03
   8.076616e+02  -2.835045e+03
   2.276504e+03  -8.006546e+02
   9.201996e+02   7.894581e+02
  -8.019814e+02   5.821986e+02
  -9.280700e+02  -4.651363e+02
   4.748148e+01  -1.144751e+03
   8.841957e+02  -7.584260e+02
   9.134201e+02   1.709799e+02
   4.090744e+02   8.845065e+02
  -3.217881e+02   8.073242e+02
  -6.610035e+02   2.082035e+01
  -3.859751e+02  -7.477658e+02
   3.075089e+02  -7.916323e+02
   6.442232e+02   1.831381e+01
   2.460509e+02   7.069062e+02
  -3.657218e+02   6.363663e+02
  -6.164552e+02   2.910380e+01
  -3.640531e+02  -3.715143e+02
   2.014719e+01  -4.291604e+02
   2.620998e+02  -2.680066e+02
   2.280230e+02  -8.329552e+00
  -9.963530e+01   1.184529e+02
  -4.304293e+02  -1.085060e+02
  -2.420401e+02  -4.491207e+02
   4.744148e+02  -4.404781e+02
   8.994564e+02   6.110486e+01
   4.690832e+02   5.883837e+02
  -4.108799e+02   5.174319e+02
  -8.127529e+02  -2.468655e+01
  -3.736224e+02  -5.077479e+02
   2.909723e+02  -5.428340e+02
   5.801308e+02  -2.211203e+02
   4.297259e+02   2.337897e+02
   6.472756e+01   4.879832e+02
  -2.226373e+02   2.902119e+02
  -1.823884e+02  -2.391369e+02
   1.723129e+02  -4.735709e+02
   4.802889e+02   9.936045e+00
   2.779458e+02   7.075882e+02
  -3.387349e+02   7.465375e+02
  -6.562080e+02   1.275767e+01
  -2.919794e+02  -5.979645e+02
   3.023633e+02  -3.710606e+02
   4.279676e+02   3.100460e+02
  -3.672117e+01   5.602801e+02
  -5.605367e+02   1.604483e+02
  -6.184954e+02  -4.007519e+02
  -1.765332e+02  -6.014474e+02
   4.023108e+02  -3.733881e+02
   6.669258e+02   6.639240e+01
   3.901815e+02   4.098463e+02
  -1.736940e+02   3.967919e+02
  -4.729216e+02   5.706431e+01
  -2.451218e+02  -2.265760e+02
   1.434841e+02  -1.270721e+02
   1.632101e+02   1.694309e+02
  -1.733893e+02   2.115356e+02
  -3.674818e+02  -7.455447e+01
  -1.475527e+02  -3.161379e+02
   2.085803e+02  -2.637590e+02
   3.270365e+02  -6.846984e+01
   1.871548e+02   7.660732e+01
  -2.016466e+01   2.032640e+02
  -2.040744e+02   3.181862e+02
  -3.334757e+02   2.267845e+02
  -3.019934e+02  -1.373528e+02
  -7.689014e+01  -4.550345e+02
   1.408884e+02  -3.952482e+02
   1.423040e+02  -9.431057e+01
   1.492753e+01   4.123948e+01
   1.351408e+01  -7.869648e+01
   1.787695e+02  -1.491125e+02
   2.886791e+02   2.890082e+01
   1.774056e+02   2.625976e+02
  -6.571826e+01   2.648055e+02
  -2.383681e+02   2.323650e+01
  -2.118624e+02  -2.366548e+02
   6.142527e+00  -3.035730e+02
   2.748819e+02  -1.331543e+02
   3.728743e+02   1.588110e+02
   1.876162e+02   3.572114e+02
  -1.076013e+02   3.180281e+02
  -2.344558e+02   1.194311e+02
  -1.494384e+02  -9.120092e+00
  -8.897392e+01   2.506318e+01
  -2.207548e+02   6.750490e+01
  -3.936533e+02  -4.754979e+01
  -3.323965e+02  -2.739291e+02
  -5.496540e+00  -4.376734e+02
   3.478878e+02  -4.162553e+02
   4.876996e+02  -2.105753e+02
   3.479877e+02   8.923209e+01
   6.414879e+01   3.072741e+02
  -1.394359e+02   2.678404e+02
  -1.003917e+02   2.856440e+01
   1.049523e+02  -1.237102e+02
   2.114644e+02  -3.788258e+00
   6.265380e+01   2.066831e+02
  -1.693490e+02   1.883450e+02
  -1.974180e+02  -6.031682e+01
   9.742087e+00  -2.056166e+02
   1.997422e+02  -4.328749e+01
   1.679962e+02   2.445662e+02
  -3.022227e+01   3.479041e+02
  -2.258554e+02   1.900198e+02
  -3.181626e+02  -6.143516e+01
  -2.751833e+02  -2.327751e+02
  -1.000157e+02  -2.627377e+02
   1.107197e+02  -1.667405e+02
   1.849797e+02  -2.488583e+01
   6.777133e+01   3.773027e+01
  -6.933009e+01  -3.031000e+01
  -3.508851e+01  -1.236402e+02
   1.224308e+02  -1.048502e+02
   1.835504e+02   9.956549e+00
   6.353333e+01   7.644324e+01
  -7.940630e+01   2.375324e+01
  -5.998646e+01  -6.705518e+01
   1.151486e+02  -8.512765e+01
   2.748040e+02  -4.407472e+00
   2.638994e+02   1.313523e+02
   6.830751e+01   2.508292e+02
  -1.782297e+02   2.658903e+02
  -2.879389e+02   1.339390e+02
  -1.796709e+02  -5.158852e+01
   2.213382e+01  -1.172614e+02
   9.824135e+01  -1.343044e+01
  -2.567547e+01   1.045048e+02
  -1.970212e+02   6.536586e+01
  -2.203100e+02  -1.010212e+02
  -7.343105e+01  -2.121388e+02
   9.711219e+01  -1.637785e+02
   1.512423e+02  -3.197901e+01
   7.726081e+01   4.416113e+01
  -2.628949e+01   1.121228e+01
  -4.295410e+01  -7.408776e+01
   6.246240e+01  -1.110842e+02
   1.930067e+02  -3.650046e+01
   1.947411e+02   1.147035e+02
   2.720797e+01   2.175109e+02
  -1.635325e+02   1.698624e+02
  -1.982024e+02   9.777692e+00
  -6.871133e+01  -1.171314e+02
   6.762167e+01  -1.162930e+02
   8.700426e+01  -3.298016e+01
   2.274375e+01   2.769243e+01
  -1.949606e+01   2.305208e+01
   6.965318e+00  -3.816549e+00
   6.451773e+01   8.483404e+00
   8.489514e+01   7.548649e+01
   1.891603e+01   1.507750e+02
  -1.177526e+02   1.520502e+02
  -2.284849e+02   3.243777e+01
  -2.034292e+02  -1.438909e+02
  -4.477249e+01  -2.366534e+02
   1.087725e+02  -1.721473e+02
   1.369500e+02  -2.615658e+01
   7.044324e+01   5.887990e+01
   2.724650e+01   3.884708e+01
   5.047176e+01  -1.061504e+01
   7.480867e+01  -7.230005e+00
   3.667074e+01   4.556609e+01
  -4.128434e+01   8.167936e+01
  -9.385334e+01   5.182311e+01
  -7.783841e+01  -3.117398e+01
   1.135167e+01  -1.027602e+02
   1.319376e+02  -8.433440e+01
   1.917862e+02   4.503764e+01
   1.050041e+02   1.948810e+02
  -9.853756e+01   2.289707e+02
  -2.639304e+02   1.026697e+02
  -2.598123e+02  -8.129600e+01
  -1.137166e+02  -1.775379e+02
   3.685071e+01  -1.504761e+02
   9.450075e+01  -8.563376e+01
   8.065514e+01  -6.791834e+01
   6.767010e+01  -8.791772e+01
   9.100563e+01  -7.223086e+01
   1.249043e+02   2.164265e+01
   1.151881e+02   1.507717e+02
   3.075998e+01   2.218445e+02
  -9.534501e+01   1.707851e+02
  -1.734696e+02   2.373362e+01
  -1.378563e+02  -1.162573e+02
  -2.378145e+01  -1.565810e+02
   6.239188e+01  -9.479040e+01
   5.858381e+01  -6.676231e+00
   8.173263e+00   3.812959e+01
  -5.871545e+00   3.448672e+01
   3.684154e+01   2.037975e+01
   7.558513e+01   2.292415e+01
   4.274315e+01   3.614523e+01
  -5.965778e+01   3.619589e+01
  -1.514193e+02   5.609185e+00
  -1.413697e+02  -4.752351e+01
  -1.958148e+01  -8.680888e+01
   1.154952e+02  -7.459357e+01
   1.434274e+02  -1.466497e+01
   4.918222e+01   3.969490e+01
  -5.909393e+01   3.624140e+01
  -7.420415e+01  -1.903199e+01
  -5.420017e+00  -6.596926e+01
   5.607263e+01  -5.467388e+01
   6.015537e+01   3.117394e+00
   3.988446e+01   4.808758e+01
   4.175495e+01   3.946863e+01
   6.184939e+01   2.080749e+00
   6.542847e+01   1.139789e+00
   3.315665e+01   6.561255e+01
  -3.233429e+01   1.405299e+02
  -1.111379e+02   1.370517e+02
  -1.574317e+02   3.383045e+01
  -1.204711e+02  -8.657632e+01
  -9.014071e+00  -1.216704e+02
   8.236581e+01  -5.983700e+01
   5.878153e+01   1.438025e+01
  -5.798795e+01   1.983011e+01
  -1.363259e+02  -4.196657e+01
  -7.696342e+01  -1.054867e+02
   7.772316e+01  -1.123616e+02
   1.879768e+02  -5.448881e+01
   1.616067e+02   3.090080e+01
   3.890048e+01   8.543543e+01
  -5.822323e+01   7.124173e+01
  -4.785483e+01   9.587556e+00
   3.724262e+01  -2.489206e+01
   8.732019e+01   2.279213e+01
   3.023651e+01   1.161639e+02
  -9.171900e+01   1.499400e+02
  -1.653371e+02   5.944869e+01
  -1.243188e+02  -9.952462e+01
  -9.905669e+00  -1.944598e+02
   8.382394e+01  -1.434834e+02
   1.033872e+02   3.586756e+00
   6.243206e+01   1.144125e+02
   1.954737e+00   1.063266e+02
  -4.350085e+01   2.264141e+01
  -5.264169e+01  -2.966666e+01
  -2.742027e+01  -8.849163e+00
  -3.554617e+00   2.096608e+01
  -1.885889e+01  -1.252526e+01
  -5.527272e+01  -8.565335e+01
  -4.417048e+01  -1.085049e+02
   4.372286e+01  -4.611180e+01
   1.358897e+02   3.831710e+01
   1.286397e+02   6.964590e+01
   1.704535e+01   4.788851e+01
  -8.735667e+01   2.060566e+01
  -8.674420e+01   7.767111e+00
  -9.573392e+00  -6.308111e+00
   3.812072e+01  -2.237877e+01
   1.267105e+01  -1.979297e+01
  -2.188483e+01   7.471117e-02
   6.568936e+00   9.395823e+00
   7.447264e+01   4.984781e+00
   8.958141e+01   2.345487e+01
   6.261964e+00   7.753324e+01
  -1.173542e+02   1.105097e+02
  -1.804249e+02   5.586209e+01
  -1.359900e+02  -6.723903e+01
  -2.357808e+01  -1.586922e+02
   7.713667e+01  -1.451142e+02
   1.109793e+02  -5.518262e+01
   7.834861e+01   2.185109e+01
   2.355597e+01   3.342251e+01
  -3.910173e+00   6.273614e+00
   1.002544e+01   2.192450e+00
   3.407994e+01   4.418484e+01
   2.414168e+01   8.872307e+01
  -2.807196e+01   7.092051e+01
  -7.979893e+01  -1.836396e+01
  -7.473732e+01  -1.070567e+02
  -2.373601e+00  -1.096265e+02
   8.152636e+01  -2.104912e+01
   9.953716e+01   7.612900e+01
   2.941957e+01   1.009482e+02
  -6.525429e+01   5.211566e+01
  -9.406118e+01  -1.266333e+01
  -3.678339e+01  -4.767899e+01
   3.169901e+01  -4.808856e+01
   2.867341e+01  -2.689646e+01
  -3.531052e+01  -3.707174e-01
  -6.863971e+01   6.054829e+00
  -1.440576e+01  -2.463325e+01
   7.765513e+01  -6.530023e+01
   1.123002e+02  -5.875781e+01
   6.079676e+01   1.078166e+01
  -1.650428e+01   8.064136e+01
  -5.072486e+01   7.602353e+01
  -3.340519e+01   3.315602e+00
   1.065776e+00  -5.498972e+01
   2.569825e+01  -3.959616e+01
   3.444456e+01   2.044672e+01
   2.452201e+01   5.288931e+01
  -3.405831e+00   3.027864e+01
  -3.206005e+01  -9.369384e+00
  -3.843471e+01  -2.005645e+01
  -2.043352e+01  -8.428996e-01
   3.332484e-01   1.242520e+01
   7.412645e+00  -5.142008e+00
   8.700882e+00  -3.630417e+01
   1.881844e+01  -4.189796e+01
   3.219883e+01  -4.649319e+00
   2.761598e+01   4.610581e+01
  -4.718413e+00   6.002306e+01
  -4.478049e+01   1.908623e+01
  -5.464882e+01  -3.981604e+01
  -1.348845e+01  -6.237600e+01
   5.329711e+01  -3.275358e+01
   8.578795e+01   1.622982e+01
   4.690321e+01   4.333022e+01
  -2.880499e+01   3.857050e+01
  -6.323586e+01   1.875031e+01
  -2.229050e+01   3.560925e+00
   3.842858e+01   3.052844e+00
   3.755260e+01   1.752528e+01
  -3.172416e+01   3.222645e+01
  -9.178541e+01   1.911612e+01
