
 $NMID
 id='ANONYMOUS ', fmtdat='(2E16.6)'
 volume=1.0
 tramp=1.0
 $END
   4.653769e+03   7.056787e+01
   2.635273e+03   2.921145e+03
  -1.012081e+03   2.896630e+03
  -2.385800e+03   6.888357e+02
  -8.902145e+02  -8.374769e+02
   8.543895e+02  -5.421322e+02
   9.904951e+02   5.961442e+02
  -4.372543e+01   1.195404e+03
  -8.245752e+02   8.347888e+02
  -9.377412e+02  -1.445009e+02
  -4.076337e+02  -9.614143e+02
   3.636246e+02  -8.400757e+02
   6.768496e+02  -2.406309e+01
   4.017493e+02   7.877100e+02
  -3.080066e+02   8.169525e+02
  -6.517570e+02  -1.266716e+01
  -2.713391e+02  -7.031406e+02
   3.704617e+02  -6.398076e+02
   6.032597e+02  -3.961499e+01
   3.382899e+02   3.705287e+02
  -4.026723e+01   4.431049e+02
  -2.656307e+02   2.732465e+02
  -2.248008e+02   4.007421e+00
   1.009529e+02  -1.088986e+02
   4.251469e+02   7.887507e+01
   2.438529e+02   4.530384e+02
  -4.864974e+02   4.752440e+02
  -9.153339e+02  -5.978733e+01
  -4.807760e+02  -6.169118e+02
   4.274346e+02  -5.482303e+02
   8.244872e+02   1.622845e+01
   3.912841e+02   5.107010e+02
  -2.953049e+02   5.498685e+02
  -5.971958e+02   2.228144e+02
  -4.300978e+02  -2.271195e+02
  -6.337786e+01  -4.967298e+02
   2.351969e+02  -3.020432e+02
   1.841010e+02   2.391755e+02
  -1.787954e+02   4.935414e+02
  -4.993243e+02  -1.433386e+00
  -2.848337e+02  -7.407167e+02
   3.414543e+02  -7.662556e+02
   6.661670e+02  -7.046258e+00
   2.967074e+02   6.152594e+02
  -3.073144e+02   3.723897e+02
  -4.287573e+02  -3.191840e+02
   4.814467e+01  -5.664871e+02
   5.681927e+02  -1.487459e+02
   6.224910e+02   4.143944e+02
   1.741499e+02   6.074197e+02
  -4.083297e+02   3.731772e+02
  -6.731019e+02  -6.635607e+01
  -3.922073e+02  -4.122978e+02
   1.788809e+02  -3.981916e+02
   4.782275e+02  -5.578511e+01
   2.460972e+02   2.262722e+02
  -1.429684e+02   1.220361e+02
  -1.567565e+02  -1.742167e+02
   1.830905e+02  -2.040954e+02
   3.685549e+02   9.185299e+01
   1.375366e+02   3.247241e+02
  -2.176954e+02   2.548856e+02
  -3.256830e+02   5.793991e+01
  -1.806368e+02  -7.122931e+01
   2.121560e+01  -1.902457e+02
   1.996158e+02  -3.188751e+02
   3.326603e+02  -2.415507e+02
   3.084743e+02   1.307513e+02
   8.351885e+01   4.675146e+02
  -1.430341e+02   4.105229e+02
  -1.519886e+02   9.369907e+01
  -2.253033e+01  -5.307635e+01
  -1.372294e+01   7.381318e+01
  -1.774812e+02   1.537853e+02
  -2.918578e+02  -2.934675e+01
  -1.824585e+02  -2.756867e+02
   6.720106e+01  -2.818433e+02
   2.485877e+02  -2.820419e+01
   2.221486e+02   2.454949e+02
  -4.730982e+00   3.135497e+02
  -2.816514e+02   1.328947e+02
  -3.782306e+02  -1.681715e+02
  -1.876563e+02  -3.642043e+02
   1.112415e+02  -3.169177e+02
   2.385224e+02  -1.156017e+02
   1.521528e+02   8.552556e+00
   9.139523e+01  -2.750433e+01
   2.230937e+02  -6.546403e+01
   3.900790e+02   5.142401e+01
   3.295937e+02   2.772091e+02
   7.063653e+00   4.394630e+02
  -3.464995e+02   4.165775e+02
  -4.905665e+02   2.118341e+02
  -3.549376e+02  -8.959951e+01
  -6.888082e+01  -3.096320e+02
   1.405306e+02  -2.729542e+02
   1.033906e+02  -2.958138e+01
  -1.061857e+02   1.268674e+02
  -2.143969e+02   3.772131e+00
  -6.278250e+01  -2.112017e+02
   1.731145e+02  -1.931124e+02
   1.990488e+02   6.288308e+01
  -1.223853e+01   2.116060e+02
  -2.023250e+02   4.360443e+01
  -1.669228e+02  -2.519694e+02
   3.549593e+01  -3.532887e+02
   2.289199e+02  -1.872999e+02
   3.180923e+02   6.823199e+01
   2.762266e+02   2.367423e+02
   1.033539e+02   2.634028e+02
  -1.101545e+02   1.677359e+02
  -1.894048e+02   2.700519e+01
  -7.243036e+01  -3.768633e+01
   6.940511e+01   2.910837e+01
   3.780213e+01   1.245211e+02
  -1.224837e+02   1.073359e+02
  -1.870498e+02  -9.366981e+00
  -6.560782e+01  -7.919042e+01
   8.087147e+01  -2.651385e+01
   6.151769e+01   6.713367e+01
  -1.166082e+02   8.686877e+01
  -2.782738e+02   5.173102e+00
  -2.662223e+02  -1.328879e+02
  -6.804414e+01  -2.542568e+02
   1.809868e+02  -2.702220e+02
   2.920174e+02  -1.369468e+02
   1.830188e+02   5.221230e+01
  -2.134769e+01   1.209283e+02
  -9.948085e+01   1.652306e+01
   2.507194e+01  -1.047461e+02
   1.985076e+02  -6.752981e+01
   2.224501e+02   1.006048e+02
   7.460549e+01   2.146664e+02
  -9.710843e+01   1.673707e+02
  -1.521947e+02   3.403634e+01
  -7.928445e+01  -4.412135e+01
   2.400504e+01  -1.191078e+01
   4.188980e+01   7.395602e+01
  -6.197259e+01   1.114311e+02
  -1.925312e+02   3.627109e+01
  -1.951755e+02  -1.159205e+02
  -2.720700e+01  -2.186933e+02
   1.652871e+02  -1.698038e+02
   2.004829e+02  -8.030228e+00
   6.958480e+01   1.198099e+02
  -6.892933e+01   1.189980e+02
  -9.014952e+01   3.462197e+01
  -2.620660e+01  -2.812316e+01
   1.777874e+01  -2.589736e+01
  -5.619376e+00   4.508923e-01
  -6.107013e+01  -9.380431e+00
  -8.237206e+01  -7.336635e+01
  -1.947330e+01  -1.487715e+02
   1.167754e+02  -1.519259e+02
   2.293415e+02  -3.283276e+01
   2.050100e+02   1.449790e+02
   4.465350e+01   2.397085e+02
  -1.110155e+02   1.741797e+02
  -1.393770e+02   2.609065e+01
  -7.128832e+01  -6.083108e+01
  -2.761815e+01  -4.004579e+01
  -5.116900e+01   1.028794e+01
  -7.492925e+01   6.832356e+00
  -3.657404e+01  -4.578443e+01
   4.160049e+01  -8.168391e+01
   9.365820e+01  -5.148868e+01
   7.831852e+01   3.079800e+01
  -1.066965e+01   1.025791e+02
  -1.328670e+02   8.466486e+01
  -1.933689e+02  -4.399882e+01
  -1.068955e+02  -1.952796e+02
   9.822925e+01  -2.312403e+02
   2.657648e+02  -1.044712e+02
   2.628745e+02   8.135227e+01
   1.155948e+02   1.789645e+02
  -3.678790e+01   1.519122e+02
  -9.607358e+01   8.602148e+01
  -8.248890e+01   6.876413e+01
  -6.893482e+01   8.915613e+01
  -9.164870e+01   7.245000e+01
  -1.256055e+02  -2.335265e+01
  -1.159207e+02  -1.536603e+02
  -3.072492e+01  -2.239774e+02
   9.650991e+01  -1.717076e+02
   1.751906e+02  -2.411974e+01
   1.389245e+02   1.164370e+02
   2.411885e+01   1.577067e+02
  -6.208380e+01   9.638595e+01
  -5.836411e+01   7.529934e+00
  -8.553004e+00  -3.862650e+01
   4.877811e+00  -3.577934e+01
  -3.740695e+01  -2.167330e+01
  -7.517209e+01  -2.370957e+01
  -4.184408e+01  -3.639117e+01
   6.044350e+01  -3.586823e+01
   1.524056e+02  -5.040694e+00
   1.431069e+02   4.798752e+01
   2.081017e+01   8.724324e+01
  -1.162540e+02   7.525055e+01
  -1.455273e+02   1.563549e+01
  -5.033607e+01  -3.890534e+01
   5.977192e+01  -3.562698e+01
   7.487079e+01   1.952837e+01
   4.325521e+00   6.612518e+01
  -5.815653e+01   5.402755e+01
  -6.086733e+01  -4.078413e+00
  -3.892946e+01  -4.856838e+01
  -4.124512e+01  -3.920946e+01
  -6.307908e+01  -1.527551e+00
  -6.721069e+01  -1.222431e+00
  -3.328850e+01  -6.655125e+01
   3.382521e+01  -1.417033e+02
   1.122297e+02  -1.377782e+02
   1.572882e+02  -3.394634e+01
   1.197042e+02   8.678209e+01
   8.538701e+00   1.217897e+02
  -8.228655e+01   5.948916e+01
  -5.829708e+01  -1.531089e+01
   5.906844e+01  -2.064994e+01
   1.377784e+02   4.221938e+01
   7.763283e+01   1.069118e+02
  -7.854820e+01   1.138256e+02
  -1.896299e+02   5.474731e+01
  -1.627421e+02  -3.166075e+01
  -3.877814e+01  -8.633237e+01
   5.896275e+01  -7.121558e+01
   4.776621e+01  -8.997974e+00
  -3.826621e+01   2.477421e+01
  -8.837448e+01  -2.407461e+01
  -2.988062e+01  -1.177814e+02
   9.344416e+01  -1.504300e+02
   1.669940e+02  -5.847466e+01
   1.243079e+02   1.010155e+02
   8.511175e+00   1.954468e+02
  -8.509026e+01   1.436888e+02
  -1.036986e+02  -4.017180e+00
  -6.233175e+01  -1.152892e+02
  -2.173671e+00  -1.073232e+02
   4.314847e+01  -2.285840e+01
   5.281417e+01   3.016622e+01
   2.784382e+01   8.992639e+00
   3.658403e+00  -2.177069e+01
   1.838398e+01   1.170907e+01
   5.490655e+01   8.613711e+01
   4.422958e+01   1.097248e+02
  -4.385149e+01   4.619594e+01
  -1.368068e+02  -3.990776e+01
  -1.295319e+02  -7.151764e+01
  -1.688002e+01  -4.840590e+01
   8.859742e+01  -2.028175e+01
   8.776030e+01  -7.685710e+00
   9.610742e+00   5.836840e+00
  -3.848192e+01   2.207239e+01
  -1.244064e+01   1.996712e+01
   2.245813e+01  -1.808090e-01
  -6.544141e+00  -1.017377e+01
  -7.487219e+01  -6.076671e+00
  -8.910978e+01  -2.418468e+01
  -4.364015e+00  -7.770974e+01
   1.198045e+02  -1.101322e+02
   1.816972e+02  -5.500874e+01
   1.358980e+02   6.863948e+01
   2.292131e+01   1.602136e+02
  -7.796348e+01   1.458965e+02
  -1.117955e+02   5.483749e+01
  -7.868070e+01  -2.281038e+01
  -2.309619e+01  -3.398290e+01
   4.860364e+00  -6.046578e+00
  -9.532753e+00  -1.649600e+00
  -3.409375e+01  -4.421122e+01
  -2.390373e+01  -8.923576e+01
   2.907203e+01  -7.083507e+01
   8.068279e+01   1.976305e+01
   7.438786e+01   1.090342e+02
   9.062888e-01   1.105324e+02
  -8.273197e+01   2.014709e+01
  -9.958223e+01  -7.774045e+01
  -2.852378e+01  -1.017566e+02
   6.622494e+01  -5.173953e+01
   9.459991e+01   1.327743e+01
   3.683298e+01   4.796051e+01
  -3.184958e+01   4.845261e+01
  -2.869163e+01   2.777617e+01
   3.550176e+01   1.188243e+00
   6.889362e+01  -6.027762e+00
   1.420674e+01   2.415854e+01
  -7.852214e+01   6.527664e+01
  -1.131959e+02   5.922672e+01
  -6.103126e+01  -1.050651e+01
   1.706591e+01  -8.096443e+01
   5.150691e+01  -7.609884e+01
   3.321085e+01  -2.422805e+00
  -2.438870e+00   5.579264e+01
  -2.729283e+01   3.911655e+01
  -3.501791e+01  -2.205213e+01
  -2.403221e+01  -5.384309e+01
   3.941612e+00  -2.993861e+01
   3.234463e+01   9.890588e+00
   3.852671e+01   1.967486e+01
   2.092315e+01   1.293161e-01
   2.491794e-01  -1.209577e+01
  -7.607571e+00   6.126592e+00
  -9.991258e+00   3.667454e+01
  -1.989037e+01   4.123008e+01
  -3.214701e+01   3.690261e+00
  -2.663664e+01  -4.637226e+01
   5.559466e+00  -5.994381e+01
   4.496869e+01  -1.914541e+01
   5.423990e+01   3.993806e+01
   1.289502e+01   6.292392e+01
  -5.402223e+01   3.300386e+01
  -8.638263e+01  -1.682969e+01
  -4.701377e+01  -4.465439e+01
   2.954711e+01  -3.896653e+01
   6.419008e+01  -1.824972e+01
   2.265070e+01  -3.186010e+00
  -3.890232e+01  -3.582724e+00
  -3.786987e+01  -1.827643e+01
   3.231248e+01  -3.190881e+01
   9.284099e+01  -1.798302e+01
