
 $NMID
 id='ANONYMOUS ', fmtdat='(2E16.6)'
 volume=1.0
 tramp=1.0
 $END
  -4.768943e+03   3.210763e+01
  -2.692636e+03  -2.858796e+03
   8.257120e+02  -2.854968e+03
   2.211961e+03  -7.805731e+02
   1.063347e+03   8.676242e+02
  -6.805823e+02   6.224515e+02
  -1.032824e+03  -4.937611e+02
  -1.775522e+01  -1.187514e+03
   9.446948e+02  -8.544066e+02
   1.018469e+03   7.860281e+01
   5.123613e+02   9.765541e+02
  -2.555703e+02   9.487305e+02
  -7.274847e+02   1.215349e+02
  -3.958893e+02  -8.171603e+02
   2.672556e+02  -7.900462e+02
   6.726812e+02  -4.112677e+01
   2.917489e+02   7.637965e+02
  -3.857166e+02   6.639231e+02
  -6.549844e+02   9.598303e+01
  -4.075161e+02  -3.973268e+02
   8.550056e+00  -4.505895e+02
   2.879954e+02  -2.890574e+02
   2.380852e+02  -3.087047e+01
  -1.069890e+02   1.077878e+02
  -4.333744e+02  -9.072997e+01
  -2.458166e+02  -4.440665e+02
   4.614804e+02  -4.645059e+02
   9.125584e+02   4.515463e+01
   4.868739e+02   5.874822e+02
  -4.186569e+02   5.292869e+02
  -7.906258e+02  -2.089932e+01
  -3.837162e+02  -5.087636e+02
   2.824496e+02  -5.510403e+02
   5.865969e+02  -2.165660e+02
   4.231944e+02   2.496851e+02
   7.253485e+01   5.130418e+02
  -2.217705e+02   3.130789e+02
  -2.055604e+02  -2.270707e+02
   1.654122e+02  -4.833870e+02
   4.966863e+02  -5.934279e-02
   2.863005e+02   7.150536e+02
  -3.453549e+02   7.643569e+02
  -6.628897e+02   1.136936e+01
  -2.855705e+02  -6.043332e+02
   3.305838e+02  -3.547244e+02
   4.367528e+02   3.428845e+02
  -6.097091e+01   5.993635e+02
  -5.902468e+02   1.581775e+02
  -6.259883e+02  -4.155523e+02
  -1.770550e+02  -6.088770e+02
   4.024622e+02  -3.579835e+02
   6.577796e+02   8.427039e+01
   3.898520e+02   4.115789e+02
  -1.715637e+02   3.914013e+02
  -4.751928e+02   5.787369e+01
  -2.502503e+02  -2.157790e+02
   1.413017e+02  -1.100623e+02
   1.576434e+02   1.827288e+02
  -1.885077e+02   2.122580e+02
  -3.804342e+02  -8.613547e+01
  -1.409877e+02  -3.271840e+02
   2.298533e+02  -2.594879e+02
   3.388917e+02  -5.048453e+01
   1.792799e+02   9.116523e+01
  -3.164109e+01   2.061231e+02
  -2.019017e+02   3.223756e+02
  -3.264384e+02   2.464768e+02
  -3.119444e+02  -1.118872e+02
  -1.058450e+02  -4.479322e+02
   1.173744e+02  -4.140778e+02
   1.436714e+02  -1.196938e+02
   3.235245e+01   3.039172e+01
   2.555475e+01  -7.476796e+01
   1.785045e+02  -1.436266e+02
   2.865026e+02   3.196827e+01
   1.835021e+02   2.676218e+02
  -5.544744e+01   2.730391e+02
  -2.310384e+02   2.769371e+01
  -2.176211e+02  -2.352992e+02
  -5.785394e+00  -3.066990e+02
   2.691053e+02  -1.300191e+02
   3.771864e+02   1.653474e+02
   1.968979e+02   3.665462e+02
  -1.090404e+02   3.210065e+02
  -2.426196e+02   1.199561e+02
  -1.542553e+02  -6.946352e+00
  -9.257357e+01   3.220650e+01
  -2.322722e+02   7.238055e+01
  -4.106409e+02  -5.440175e+01
  -3.431456e+02  -2.917701e+02
  -1.745927e+00  -4.526674e+02
   3.622771e+02  -4.229847e+02
   4.991530e+02  -2.125479e+02
   3.545363e+02   8.905088e+01
   6.985600e+01   3.062851e+02
  -1.352102e+02   2.752994e+02
  -9.981256e+01   3.613938e+01
   1.057680e+02  -1.221434e+02
   2.153054e+02  -1.547138e+00
   6.578558e+01   2.118750e+02
  -1.716615e+02   1.933841e+02
  -2.004776e+02  -6.094523e+01
   1.245289e+01  -2.105161e+02
   2.076255e+02  -4.099174e+01
   1.719524e+02   2.569354e+02
  -3.516314e+01   3.584620e+02
  -2.346358e+02   1.908012e+02
  -3.228542e+02  -6.376941e+01
  -2.761446e+02  -2.305720e+02
  -1.024387e+02  -2.568417e+02
   1.057280e+02  -1.645256e+02
   1.777784e+02  -2.829927e+01
   6.062508e+01   3.238950e+01
  -7.478484e+01  -3.492768e+01
  -3.559668e+01  -1.292869e+02
   1.267531e+02  -1.100597e+02
   1.881348e+02   6.963247e+00
   6.472905e+01   7.548095e+01
  -8.007366e+01   2.223748e+01
  -5.788306e+01  -6.964026e+01
   1.206485e+02  -8.644248e+01
   2.803954e+02  -3.099830e+00
   2.671402e+02   1.347607e+02
   6.938479e+01   2.557043e+02
  -1.788313e+02   2.712428e+02
  -2.901098e+02   1.372194e+02
  -1.825444e+02  -5.197068e+01
   2.008237e+01  -1.183067e+02
   9.696421e+01  -1.114739e+01
  -2.778014e+01   1.087915e+02
  -2.002623e+02   6.620138e+01
  -2.231150e+02  -1.057276e+02
  -7.511709e+01  -2.179175e+02
   9.627127e+01  -1.661400e+02
   1.514269e+02  -3.186603e+01
   7.933860e+01   4.334314e+01
  -2.265658e+01   8.501647e+00
  -3.940739e+01  -7.699274e+01
   6.532718e+01  -1.119275e+02
   1.960866e+02  -3.385461e+01
   1.972456e+02   1.205878e+02
   2.714830e+01   2.233971e+02
  -1.669911e+02   1.719325e+02
  -2.014960e+02   7.619435e+00
  -6.959607e+01  -1.187799e+02
   6.740524e+01  -1.154629e+02
   8.576863e+01  -3.237115e+01
   2.125280e+01   2.406570e+01
  -1.728635e+01   1.839129e+01
   1.232185e+01  -3.942189e+00
   6.793390e+01   1.316370e+01
   8.366753e+01   8.081407e+01
   1.584875e+01   1.536727e+02
  -1.207002e+02   1.527043e+02
  -2.319788e+02   3.182079e+01
  -2.067013e+02  -1.466846e+02
  -4.690334e+01  -2.413971e+02
   1.086257e+02  -1.751588e+02
   1.386764e+02  -2.770167e+01
   7.151217e+01   5.838332e+01
   2.852540e+01   3.656592e+01
   5.413402e+01  -1.290646e+01
   7.885729e+01  -5.162468e+00
   3.802050e+01   4.978447e+01
  -4.396121e+01   8.435638e+01
  -9.814044e+01   5.194568e+01
  -8.031058e+01  -3.359456e+01
   1.250553e+01  -1.059024e+02
   1.352046e+02  -8.584212e+01
   1.950318e+02   4.568041e+01
   1.058329e+02   1.968616e+02
  -1.000120e+02   2.311527e+02
  -2.664284e+02   1.023009e+02
  -2.625443e+02  -8.262668e+01
  -1.140550e+02  -1.780252e+02
   3.664514e+01  -1.502494e+02
   9.515423e+01  -8.745102e+01
   8.145434e+01  -7.193953e+01
   6.942598e+01  -9.263658e+01
   9.421834e+01  -7.401495e+01
   1.290476e+02   2.287736e+01
   1.193281e+02   1.548348e+02
   3.253782e+01   2.273146e+02
  -9.726605e+01   1.752529e+02
  -1.774351e+02   2.437602e+01
  -1.403737e+02  -1.194329e+02
  -2.307921e+01  -1.601979e+02
   6.408773e+01  -9.546152e+01
   5.836172e+01  -5.303177e+00
   6.516018e+00   3.830115e+01
  -5.866403e+00   3.286633e+01
   3.982429e+01   1.925901e+01
   7.917119e+01   2.393208e+01
   4.382678e+01   3.754176e+01
  -6.146077e+01   3.624861e+01
  -1.542947e+02   5.226057e+00
  -1.437441e+02  -4.694370e+01
  -2.035914e+01  -8.642911e+01
   1.168418e+02  -7.615469e+01
   1.459483e+02  -1.742418e+01
   5.051188e+01   3.856022e+01
  -6.033513e+01   3.713808e+01
  -7.623981e+01  -1.875360e+01
  -5.360593e+00  -6.817923e+01
   5.885876e+01  -5.690629e+01
   6.309811e+01   3.728725e+00
   4.143687e+01   5.126440e+01
   4.172069e+01   4.207161e+01
   6.153813e+01   1.781465e+00
   6.560350e+01  -1.807356e-01
   3.343523e+01   6.602039e+01
  -3.263227e+01   1.437990e+02
  -1.127911e+02   1.401776e+02
  -1.603312e+02   3.408934e+01
  -1.225604e+02  -8.906170e+01
  -8.574014e+00  -1.242522e+02
   8.450533e+01  -6.055476e+01
   5.997681e+01   1.523661e+01
  -5.928070e+01   2.042842e+01
  -1.390755e+02  -4.251965e+01
  -7.828611e+01  -1.068372e+02
   7.901534e+01  -1.140969e+02
   1.909800e+02  -5.569635e+01
   1.646255e+02   3.075082e+01
   3.995612e+01   8.695325e+01
  -5.949220e+01   7.278362e+01
  -4.926517e+01   9.256165e+00
   3.827713e+01  -2.663719e+01
   9.082616e+01   2.268023e+01
   3.304986e+01   1.198301e+02
  -9.289496e+01   1.552777e+02
  -1.701038e+02   6.207412e+01
  -1.285582e+02  -1.016177e+02
  -1.068408e+01  -1.989402e+02
   8.568208e+01  -1.459629e+02
   1.052983e+02   4.368014e+00
   6.281545e+01   1.165524e+02
   1.390648e+00   1.073297e+02
  -4.438048e+01   2.207658e+01
  -5.343902e+01  -3.033015e+01
  -2.758019e+01  -8.773304e+00
  -3.145132e+00   2.118234e+01
  -1.867782e+01  -1.340880e+01
  -5.623332e+01  -8.752755e+01
  -4.526766e+01  -1.100041e+02
   4.462571e+01  -4.639177e+01
   1.394418e+02   3.865075e+01
   1.323453e+02   7.018780e+01
   1.797648e+01   4.876284e+01
  -8.925120e+01   2.222693e+01
  -8.865042e+01   9.184128e+00
  -9.378176e+00  -5.997017e+00
   3.942572e+01  -2.266198e+01
   1.290060e+01  -1.930109e+01
  -2.292252e+01   1.311560e+00
   6.045549e+00   9.935641e+00
   7.561064e+01   4.459462e+00
   9.111342e+01   2.380247e+01
   6.037064e+00   8.028730e+01
  -1.203213e+02   1.141809e+02
  -1.849148e+02   5.724661e+01
  -1.398698e+02  -6.953949e+01
  -2.499219e+01  -1.632553e+02
   7.856507e+01  -1.492926e+02
   1.140073e+02  -5.720036e+01
   8.106985e+01   2.212554e+01
   2.488978e+01   3.515573e+01
  -3.821401e+00   8.180834e+00
   9.887806e+00   3.217980e+00
   3.401356e+01   4.470152e+01
   2.399384e+01   8.974240e+01
  -2.891035e+01   7.233706e+01
  -8.154019e+01  -1.794521e+01
  -7.685073e+01  -1.086808e+02
  -3.141381e+00  -1.122583e+02
   8.309284e+01  -2.241336e+01
   1.023901e+02   7.724539e+01
   3.080249e+01   1.032671e+02
  -6.686833e+01   5.376307e+01
  -9.701146e+01  -1.263545e+01
  -3.809803e+01  -4.885209e+01
   3.263779e+01  -4.935382e+01
   2.973459e+01  -2.744434e+01
  -3.593963e+01  -2.467764e-01
  -7.016248e+01   6.145879e+00
  -1.465538e+01  -2.516081e+01
   7.927902e+01  -6.650910e+01
   1.142697e+02  -5.954866e+01
   6.178889e+01   1.122994e+01
  -1.652800e+01   8.238138e+01
  -5.154900e+01   7.784970e+01
  -3.466315e+01   3.778557e+00
  -4.511379e-02  -5.628108e+01
   2.596198e+01  -4.118052e+01
   3.622994e+01   1.992809e+01
   2.621456e+01   5.360078e+01
  -3.307522e+00   3.129794e+01
  -3.310432e+01  -9.063679e+00
  -3.900061e+01  -2.004473e+01
  -2.009064e+01  -2.676364e-01
   1.871249e-01   1.307125e+01
   6.214718e+00  -5.099667e+00
   8.071673e+00  -3.775465e+01
   1.965709e+01  -4.386359e+01
   3.409362e+01  -5.645204e+00
   2.874837e+01   4.704587e+01
  -4.830114e+00   6.173227e+01
  -4.538424e+01   1.991122e+01
  -5.492450e+01  -4.074066e+01
  -1.304589e+01  -6.401975e+01
   5.484140e+01  -3.356380e+01
   8.807593e+01   1.673870e+01
   4.863770e+01   4.470147e+01
  -2.917568e+01   3.992333e+01
  -6.503859e+01   1.986790e+01
  -2.326643e+01   4.140547e+00
   3.945105e+01   3.023448e+00
   3.906737e+01   1.729493e+01
  -3.196058e+01   3.237573e+01
  -9.380214e+01   1.975159e+01
