
 $NMID
 id='ANONYMOUS ', fmtdat='(2E16.6)'
 volume=1.0
 tramp=1.0
 $END
   4.679007e+03   4.530046e+01
   2.624446e+03   2.966053e+03
  -9.179520e+02   2.997136e+03
  -2.470382e+03   8.114903e+02
  -1.031718e+03  -9.155369e+02
   8.295085e+02  -7.329491e+02
   1.108667e+03   5.094561e+02
   4.430700e+00   1.326654e+03
  -9.971434e+02   8.871133e+02
  -1.069741e+03  -1.557256e+02
  -4.735713e+02  -1.003037e+03
   3.290016e+02  -9.745699e+02
   7.712484e+02  -8.918400e+01
   4.406146e+02   8.442865e+02
  -3.337166e+02   8.447721e+02
  -7.330682e+02  -9.181920e+01
  -2.699942e+02  -7.643740e+02
   4.200902e+02  -6.679916e+02
   6.583093e+02  -6.443295e+01
   3.984759e+02   4.387880e+02
   5.455339e+00   4.860874e+02
  -3.046384e+02   2.669142e+02
  -2.547433e+02  -4.316366e-02
   1.361511e+02  -1.272316e+02
   4.509096e+02   8.008319e+01
   2.269446e+02   4.787175e+02
  -4.932796e+02   4.934687e+02
  -9.448637e+02  -5.298681e+01
  -4.927945e+02  -6.164585e+02
   4.367339e+02  -5.666105e+02
   8.262828e+02   2.019800e+01
   3.981719e+02   5.305517e+02
  -2.970416e+02   5.919144e+02
  -6.176311e+02   2.327828e+02
  -4.573758e+02  -2.530559e+02
  -8.234188e+01  -5.382770e+02
   2.325029e+02  -3.305069e+02
   2.220309e+02   2.437030e+02
  -1.698866e+02   5.171605e+02
  -5.031354e+02   2.359703e+01
  -2.975065e+02  -7.374263e+02
   3.257242e+02  -7.841410e+02
   6.645820e+02  -1.681069e+01
   3.013816e+02   6.040821e+02
  -3.229426e+02   3.561576e+02
  -4.422543e+02  -3.400176e+02
   5.350364e+01  -5.961774e+02
   5.957020e+02  -1.576924e+02
   6.467277e+02   4.356975e+02
   1.806653e+02   6.233960e+02
  -4.156599e+02   3.704801e+02
  -6.818652e+02  -8.127643e+01
  -3.997422e+02  -4.215566e+02
   1.818354e+02  -4.010709e+02
   4.956976e+02  -5.122952e+01
   2.620407e+02   2.362640e+02
  -1.455479e+02   1.295312e+02
  -1.686866e+02  -1.795539e+02
   1.854758e+02  -2.216851e+02
   3.902823e+02   8.285800e+01
   1.545223e+02   3.394772e+02
  -2.254195e+02   2.764069e+02
  -3.436281e+02   5.912423e+01
  -1.814587e+02  -8.958275e+01
   3.988291e+01  -2.047679e+02
   2.159241e+02  -3.194971e+02
   3.373907e+02  -2.392199e+02
   3.164320e+02   1.303796e+02
   1.025771e+02   4.746989e+02
  -1.304884e+02   4.314120e+02
  -1.626524e+02   1.165757e+02
  -4.487616e+01  -4.321094e+01
  -2.513650e+01   6.957075e+01
  -1.740825e+02   1.476537e+02
  -2.891166e+02  -3.179374e+01
  -1.892631e+02  -2.810448e+02
   5.866687e+01  -2.908929e+02
   2.465912e+02  -3.236760e+01
   2.289574e+02   2.512790e+02
   2.234969e+00   3.233596e+02
  -2.811535e+02   1.367294e+02
  -3.887933e+02  -1.770092e+02
  -2.019277e+02  -3.821604e+02
   1.112052e+02  -3.299230e+02
   2.520007e+02  -1.235437e+02
   1.645521e+02   5.081187e+00
   1.018988e+02  -2.993162e+01
   2.367726e+02  -6.710780e+01
   4.072995e+02   6.037966e+01
   3.415501e+02   2.954759e+02
   3.897145e+00   4.529664e+02
  -3.626743e+02   4.266404e+02
  -5.046042e+02   2.194898e+02
  -3.625721e+02  -8.578453e+01
  -7.179314e+01  -3.128844e+02
   1.386893e+02  -2.852936e+02
   1.052047e+02  -3.839655e+01
  -1.050011e+02   1.304709e+02
  -2.178231e+02   1.166752e+01
  -7.000797e+01  -2.119991e+02
   1.690717e+02  -2.019975e+02
   2.013299e+02   5.468502e+01
  -9.448205e+00   2.135981e+02
  -2.047830e+02   4.484721e+01
  -1.722493e+02  -2.604624e+02
   3.548900e+01  -3.674605e+02
   2.381975e+02  -1.965740e+02
   3.306623e+02   6.908894e+01
   2.863062e+02   2.448923e+02
   1.074264e+02   2.704698e+02
  -1.124215e+02   1.704569e+02
  -1.926484e+02   2.675005e+01
  -7.142194e+01  -3.647010e+01
   7.429237e+01   3.367753e+01
   4.118099e+01   1.309963e+02
  -1.253971e+02   1.130261e+02
  -1.947058e+02  -6.251219e+00
  -7.197257e+01  -7.856537e+01
   7.948591e+01  -2.717444e+01
   6.219794e+01   6.696429e+01
  -1.195141e+02   8.852706e+01
  -2.863180e+02   7.467259e+00
  -2.753982e+02  -1.338435e+02
  -7.273225e+01  -2.617590e+02
   1.828495e+02  -2.818300e+02
   2.974851e+02  -1.456612e+02
   1.874014e+02   5.093629e+01
  -1.968146e+01   1.238905e+02
  -9.835278e+01   1.691172e+01
   2.872904e+01  -1.089324e+02
   2.047861e+02  -7.149076e+01
   2.288404e+02   1.020654e+02
   7.835325e+01   2.212881e+02
  -9.707948e+01   1.740954e+02
  -1.547623e+02   3.792126e+01
  -8.230655e+01  -4.286956e+01
   2.199813e+01  -1.154890e+01
   4.051200e+01   7.453471e+01
  -6.491264e+01   1.120403e+02
  -1.977314e+02   3.473572e+01
  -1.993275e+02  -1.215503e+02
  -2.631666e+01  -2.269644e+02
   1.718509e+02  -1.757973e+02
   2.084122e+02  -8.396349e+00
   7.435536e+01   1.238475e+02
  -6.786532e+01   1.229525e+02
  -9.039512e+01   3.763443e+01
  -2.659423e+01  -2.402224e+01
   1.507906e+01  -2.235858e+01
  -1.180654e+01  -4.772612e-01
  -6.635557e+01  -1.557031e+01
  -8.259137e+01  -8.145370e+01
  -1.528423e+01  -1.538968e+02
   1.233751e+02  -1.533320e+02
   2.366861e+02  -3.246738e+01
   2.110539e+02   1.489651e+02
   4.790849e+01   2.478025e+02
  -1.125833e+02   1.824491e+02
  -1.441289e+02   3.083056e+01
  -7.580637e+01  -6.122622e+01
  -3.040151e+01  -4.132014e+01
  -5.469166e+01   1.057220e+01
  -7.935196e+01   6.774426e+00
  -3.882571e+01  -4.807967e+01
   4.385696e+01  -8.504853e+01
   9.914034e+01  -5.393852e+01
   8.122464e+01   3.320746e+01
  -1.236293e+01   1.067621e+02
  -1.383712e+02   8.681184e+01
  -1.996444e+02  -4.548284e+01
  -1.095555e+02  -2.008487e+02
   9.988445e+01  -2.380734e+02
   2.721791e+02  -1.077899e+02
   2.714420e+02   8.261608e+01
   1.203229e+02   1.833623e+02
  -3.708394e+01   1.562081e+02
  -9.884257e+01   8.963619e+01
  -8.535342e+01   7.244394e+01
  -7.107515e+01   9.355798e+01
  -9.535408e+01   7.576419e+01
  -1.317488e+02  -2.369795e+01
  -1.219468e+02  -1.601572e+02
  -3.179967e+01  -2.349304e+02
   1.022219e+02  -1.801777e+02
   1.834767e+02  -2.419606e+01
   1.434720e+02   1.233630e+02
   2.284966e+01   1.646606e+02
  -6.530085e+01   9.809406e+01
  -5.886046e+01   5.523383e+00
  -6.956989e+00  -3.974799e+01
   4.522057e+00  -3.486573e+01
  -4.120011e+01  -2.140253e+01
  -7.958887e+01  -2.597854e+01
  -4.331610e+01  -3.914560e+01
   6.290002e+01  -3.684383e+01
   1.571590e+02  -4.956476e+00
   1.474478e+02   4.771141e+01
   2.231122e+01   8.742590e+01
  -1.183626e+02   7.716596e+01
  -1.491867e+02   1.782718e+01
  -5.180959e+01  -3.872192e+01
   6.222087e+01  -3.679720e+01
   7.832575e+01   2.034033e+01
   4.496004e+00   7.038195e+01
  -6.201075e+01   5.843338e+01
  -6.527979e+01  -4.112829e+00
  -4.109252e+01  -5.297738e+01
  -4.188662e+01  -4.305792e+01
  -6.446680e+01  -1.542239e+00
  -6.965476e+01   5.223447e-01
  -3.465659e+01  -6.811641e+01
   3.573610e+01  -1.482073e+02
   1.174228e+02  -1.435590e+02
   1.634722e+02  -3.356272e+01
   1.231637e+02   9.211256e+01
   7.334766e+00   1.266144e+02
  -8.591173e+01   6.046372e+01
  -6.048531e+01  -1.664469e+01
   6.073602e+01  -2.078922e+01
   1.424075e+02   4.412341e+01
   8.066128e+01   1.098466e+02
  -8.081684e+01   1.168770e+02
  -1.964911e+02   5.652107e+01
  -1.694496e+02  -3.250712e+01
  -4.031171e+01  -8.972208e+01
   6.255094e+01  -7.409019e+01
   5.089239e+01  -8.564905e+00
  -4.037935e+01   2.722669e+01
  -9.388990e+01  -2.467506e+01
  -3.248821e+01  -1.241420e+02
   9.794850e+01  -1.588567e+02
   1.755916e+02  -6.173217e+01
   1.304545e+02   1.061889e+02
   9.067238e+00   2.046936e+02
  -8.810173e+01   1.493567e+02
  -1.069053e+02  -4.982236e+00
  -6.410046e+01  -1.199019e+02
  -2.462623e+00  -1.100914e+02
   4.466663e+01  -2.216100e+01
   5.534742e+01   3.170781e+01
   2.935723e+01   9.016670e+00
   2.931706e+00  -2.220931e+01
   1.771077e+01   1.352277e+01
   5.682461e+01   9.030973e+01
   4.687786e+01   1.136975e+02
  -4.545528e+01   4.733564e+01
  -1.438946e+02  -4.160356e+01
  -1.366932e+02  -7.423386e+01
  -1.763110e+01  -5.077741e+01
   9.362097e+01  -2.185781e+01
   9.214857e+01  -8.225305e+00
   9.374523e+00   6.419361e+00
  -4.076947e+01   2.288476e+01
  -1.271313e+01   1.988681e+01
   2.391437e+01  -9.880014e-01
  -7.141034e+00  -1.037444e+01
  -7.864136e+01  -5.817115e+00
  -9.275323e+01  -2.553613e+01
  -3.375950e+00  -8.220421e+01
   1.261161e+02  -1.155337e+02
   1.900068e+02  -5.669654e+01
   1.416482e+02   7.272732e+01
   2.366778e+01   1.677018e+02
  -8.167772e+01   1.524130e+02
  -1.173030e+02   5.759416e+01
  -8.297840e+01  -2.371175e+01
  -2.452463e+01  -3.655224e+01
   5.554343e+00  -8.100669e+00
  -8.909379e+00  -2.569344e+00
  -3.501489e+01  -4.556636e+01
  -2.512016e+01  -9.229962e+01
   3.015292e+01  -7.403933e+01
   8.464419e+01   2.016037e+01
   7.845574e+01   1.139343e+02
   1.086192e+00   1.163452e+02
  -8.709678e+01   2.140529e+01
  -1.046412e+02  -8.181445e+01
  -2.979523e+01  -1.069736e+02
   6.950118e+01  -5.386041e+01
   9.865516e+01   1.449106e+01
   3.786267e+01   5.049457e+01
  -3.363038e+01   5.040046e+01
  -2.992272e+01   2.827088e+01
   3.691793e+01   2.511124e-01
   7.140335e+01  -7.241997e+00
   1.467882e+01   2.463466e+01
  -8.114498e+01   6.831715e+01
  -1.170196e+02   6.200083e+01
  -6.342873e+01  -1.156617e+01
   1.740071e+01  -8.570988e+01
   5.425375e+01  -8.040736e+01
   3.670888e+01  -2.161615e+00
  -4.183065e-01   6.001026e+01
  -2.840272e+01   4.267317e+01
  -3.838000e+01  -2.204439e+01
  -2.672794e+01  -5.639129e+01
   4.079927e+00  -3.183668e+01
   3.440375e+01   1.000661e+01
   4.021034e+01   2.021738e+01
   2.115475e+01  -3.724741e-01
   5.221728e-01  -1.290408e+01
  -6.573668e+00   6.745100e+00
  -9.737961e+00   3.945502e+01
  -2.160910e+01   4.382213e+01
  -3.475330e+01   3.708224e+00
  -2.804004e+01  -4.891709e+01
   6.361515e+00  -6.252786e+01
   4.676988e+01  -1.946530e+01
   5.593204e+01   4.181645e+01
   1.325848e+01   6.526752e+01
  -5.580963e+01   3.425023e+01
  -9.002491e+01  -1.718206e+01
  -5.004109e+01  -4.622317e+01
   2.981042e+01  -4.125582e+01
   6.704111e+01  -1.996428e+01
   2.430385e+01  -3.557300e+00
  -4.045965e+01  -3.376399e+00
  -4.017883e+01  -1.916724e+01
   3.341989e+01  -3.436344e+01
   9.737068e+01  -1.974293e+01
