
 $NMID
 id='ANONYMOUS ', fmtdat='(2E16.6)'
 volume=1.0
 tramp=1.0
 $END
   4.796137e+03  -1.776093e+01
   2.627932e+03   2.979687e+03
  -9.170176e+02   2.983740e+03
  -2.378191e+03   8.768686e+02
  -1.104087e+03  -8.836297e+02
   8.021504e+02  -7.253211e+02
   1.059647e+03   4.830082e+02
  -1.754392e+01   1.251601e+03
  -9.807616e+02   8.516013e+02
  -1.090242e+03  -1.198256e+02
  -4.673557e+02  -9.963284e+02
   3.183233e+02  -1.025946e+03
   7.727875e+02  -9.366697e+01
   4.505009e+02   8.409706e+02
  -3.318609e+02   7.914369e+02
  -7.145292e+02  -2.718811e+01
  -2.824402e+02  -7.341964e+02
   4.029133e+02  -6.412596e+02
   6.616101e+02  -4.817819e+01
   3.981982e+02   4.090908e+02
  -5.020764e+00   4.551377e+02
  -2.934545e+02   2.791273e+02
  -2.589131e+02   2.553768e+01
   9.928857e+01  -1.309929e+02
   4.501634e+02   1.051449e+02
   2.378235e+02   4.669330e+02
  -4.740994e+02   4.516088e+02
  -9.401250e+02  -5.676847e+01
  -4.799187e+02  -5.994490e+02
   4.245618e+02  -5.356692e+02
   8.095338e+02   3.859001e+01
   3.760586e+02   5.247355e+02
  -2.992459e+02   5.770162e+02
  -6.088957e+02   2.086783e+02
  -4.474116e+02  -2.575416e+02
  -7.976651e+01  -5.246817e+02
   2.200413e+02  -3.059651e+02
   2.169876e+02   2.581441e+02
  -1.622296e+02   4.957328e+02
  -4.937149e+02  -8.559145e+00
  -2.905263e+02  -7.219846e+02
   3.329339e+02  -7.593877e+02
   6.551243e+02  -1.769472e+00
   2.823990e+02   6.044973e+02
  -3.283473e+02   3.501689e+02
  -4.367391e+02  -3.502663e+02
   5.909659e+01  -5.965484e+02
   5.920863e+02  -1.593872e+02
   6.341636e+02   4.224502e+02
   1.764881e+02   6.149064e+02
  -4.061550e+02   3.632923e+02
  -6.634030e+02  -7.897699e+01
  -3.880847e+02  -4.084735e+02
   1.723492e+02  -3.900764e+02
   4.751111e+02  -5.127000e+01
   2.507741e+02   2.245599e+02
  -1.438455e+02   1.173314e+02
  -1.665761e+02  -1.846779e+02
   1.791350e+02  -2.234040e+02
   3.814436e+02   7.581093e+01
   1.539679e+02   3.272247e+02
  -2.171977e+02   2.686653e+02
  -3.357190e+02   5.838134e+01
  -1.800626e+02  -9.059774e+01
   3.745856e+01  -2.066936e+02
   2.133568e+02  -3.143466e+02
   3.309128e+02  -2.283135e+02
   3.015212e+02   1.294962e+02
   8.852986e+01   4.541302e+02
  -1.272540e+02   4.096857e+02
  -1.431609e+02   1.149657e+02
  -3.033787e+01  -3.066200e+01
  -2.758294e+01   7.371581e+01
  -1.804868e+02   1.383053e+02
  -2.826812e+02  -3.518977e+01
  -1.787877e+02  -2.657787e+02
   5.485476e+01  -2.698858e+02
   2.304944e+02  -3.045029e+01
   2.204730e+02   2.324316e+02
   1.153029e+01   3.104890e+02
  -2.677834e+02   1.418024e+02
  -3.835793e+02  -1.616432e+02
  -2.034506e+02  -3.723768e+02
   1.069803e+02  -3.284399e+02
   2.456097e+02  -1.200755e+02
   1.572092e+02   1.220260e+01
   9.326769e+01  -2.749958e+01
   2.295574e+02  -7.288122e+01
   4.087672e+02   5.258256e+01
   3.410662e+02   2.915076e+02
  -1.098273e+00   4.508809e+02
  -3.636519e+02   4.225886e+02
  -4.985923e+02   2.108499e+02
  -3.526700e+02  -8.811833e+01
  -6.635490e+01  -3.051740e+02
   1.355165e+02  -2.735110e+02
   9.952920e+01  -3.620263e+01
  -1.070272e+02   1.217200e+02
  -2.130964e+02   4.071891e+00
  -6.485762e+01  -2.077762e+02
   1.700279e+02  -1.907712e+02
   2.002649e+02   5.903400e+01
  -1.064856e+01   2.093698e+02
  -2.060455e+02   4.307725e+01
  -1.738221e+02  -2.541818e+02
   3.119626e+01  -3.595341e+02
   2.343709e+02  -1.947072e+02
   3.274796e+02   6.426316e+01
   2.805350e+02   2.372210e+02
   1.008591e+02   2.636912e+02
  -1.110867e+02   1.652679e+02
  -1.824375e+02   2.477314e+01
  -6.297586e+01  -3.437687e+01
   7.325403e+01   3.636389e+01
   3.496020e+01   1.301436e+02
  -1.254577e+02   1.086641e+02
  -1.870143e+02  -8.727077e+00
  -6.622095e+01  -7.580440e+01
   7.708903e+01  -2.254530e+01
   5.696949e+01   6.778690e+01
  -1.187130e+02   8.472572e+01
  -2.782779e+02   3.612992e+00
  -2.670132e+02  -1.327711e+02
  -7.046972e+01  -2.548928e+02
   1.782031e+02  -2.727718e+02
   2.905237e+02  -1.400060e+02
   1.836139e+02   4.992038e+01
  -1.870081e+01   1.190616e+02
  -9.592357e+01   1.438101e+01
   2.785761e+01  -1.058398e+02
   1.996687e+02  -6.626216e+01
   2.229850e+02   1.028636e+02
   7.562780e+01   2.159647e+02
  -9.604111e+01   1.674536e+02
  -1.522020e+02   3.477670e+01
  -8.040273e+01  -4.218031e+01
   2.242985e+01  -1.000590e+01
   4.014566e+01   7.443355e+01
  -6.452072e+01   1.103368e+02
  -1.956093e+02   3.342938e+01
  -1.966640e+02  -1.202807e+02
  -2.582730e+01  -2.229603e+02
   1.685609e+02  -1.717194e+02
   2.029803e+02  -7.760176e+00
   7.092824e+01   1.195372e+02
  -6.678957e+01   1.170460e+02
  -8.588250e+01   3.430144e+01
  -2.244697e+01  -2.311958e+01
   1.617399e+01  -1.853097e+01
  -1.279828e+01   3.150264e+00
  -6.771867e+01  -1.403567e+01
  -8.266919e+01  -8.183248e+01
  -1.383986e+01  -1.534410e+02
   1.226095e+02  -1.508308e+02
   2.321460e+02  -3.014340e+01
   2.052639e+02   1.477377e+02
   4.545678e+01   2.409663e+02
  -1.098414e+02   1.752843e+02
  -1.384064e+02   2.840657e+01
  -7.128179e+01  -5.782383e+01
  -2.789258e+01  -3.739220e+01
  -5.350386e+01   1.151493e+01
  -7.805789e+01   6.355684e+00
  -3.882705e+01  -4.722574e+01
   4.250071e+01  -8.224509e+01
   9.777594e+01  -5.208356e+01
   8.031417e+01   3.232970e+01
  -1.235310e+01   1.045817e+02
  -1.349701e+02   8.558303e+01
  -1.954397e+02  -4.578069e+01
  -1.062693e+02  -1.977924e+02
   9.988070e+01  -2.321962e+02
   2.678703e+02  -1.031169e+02
   2.646507e+02   8.258037e+01
   1.159414e+02   1.791224e+02
  -3.711292e+01   1.518695e+02
  -9.628961e+01   8.798857e+01
  -8.214428e+01   7.145920e+01
  -6.919367e+01   9.137983e+01
  -9.377929e+01   7.335592e+01
  -1.293063e+02  -2.336166e+01
  -1.194502e+02  -1.553715e+02
  -3.121138e+01  -2.285371e+02
   9.946221e+01  -1.764774e+02
   1.792204e+02  -2.432052e+01
   1.409849e+02   1.207672e+02
   2.312836e+01   1.615182e+02
  -6.408685e+01   9.590475e+01
  -5.849691e+01   5.342342e+00
  -7.306497e+00  -3.816921e+01
   4.909911e+00  -3.295339e+01
  -4.000472e+01  -2.020656e+01
  -7.822368e+01  -2.521719e+01
  -4.289620e+01  -3.805819e+01
   6.141816e+01  -3.555297e+01
   1.533607e+02  -4.580556e+00
   1.430108e+02   4.638353e+01
   2.059574e+01   8.476434e+01
  -1.156579e+02   7.489736e+01
  -1.448221e+02   1.734331e+01
  -4.997046e+01  -3.792678e+01
   6.048613e+01  -3.674809e+01
   7.653525e+01   1.875585e+01
   5.741603e+00   6.851506e+01
  -5.876614e+01   5.800561e+01
  -6.359312e+01  -2.615914e+00
  -4.165523e+01  -5.085185e+01
  -4.214330e+01  -4.219970e+01
  -6.268727e+01  -1.874336e+00
  -6.721614e+01   1.029131e-01
  -3.398515e+01  -6.677555e+01
   3.398975e+01  -1.447741e+02
   1.143726e+02  -1.402947e+02
   1.602464e+02  -3.296622e+01
   1.210342e+02   8.982339e+01
   7.658204e+00   1.239415e+02
  -8.408666e+01   5.948420e+01
  -5.942615e+01  -1.546331e+01
   5.869819e+01  -1.987049e+01
   1.383359e+02   4.259724e+01
   7.828248e+01   1.062714e+02
  -7.854921e+01   1.135267e+02
  -1.911802e+02   5.549048e+01
  -1.651832e+02  -3.093539e+01
  -3.995707e+01  -8.742641e+01
   6.005930e+01  -7.320441e+01
   4.921826e+01  -9.514302e+00
  -3.901243e+01   2.605239e+01
  -9.100393e+01  -2.399440e+01
  -3.132644e+01  -1.212120e+02
   9.588960e+01  -1.556583e+02
   1.721315e+02  -6.099041e+01
   1.282861e+02   1.036605e+02
   9.340762e+00   2.007417e+02
  -8.630024e+01   1.469520e+02
  -1.049348e+02  -4.288015e+00
  -6.275190e+01  -1.169438e+02
  -2.240586e+00  -1.075735e+02
   4.351959e+01  -2.188096e+01
   5.359827e+01   3.069842e+01
   2.822135e+01   8.921148e+00
   2.777722e+00  -2.131115e+01
   1.737649e+01   1.326052e+01
   5.551613e+01   8.755894e+01
   4.582559e+01   1.100501e+02
  -4.402566e+01   4.616183e+01
  -1.400068e+02  -3.957947e+01
  -1.333430e+02  -7.138276e+01
  -1.768546e+01  -4.964686e+01
   9.076651e+01  -2.222777e+01
   8.965134e+01  -8.579897e+00
   9.234503e+00   6.347830e+00
  -3.960356e+01   2.266382e+01
  -1.235454e+01   1.962109e+01
   2.328209e+01  -8.384213e-01
  -7.087375e+00  -1.010202e+01
  -7.703093e+01  -5.883903e+00
  -9.102389e+01  -2.550688e+01
  -3.895020e+00  -8.077734e+01
   1.227925e+02  -1.132631e+02
   1.858790e+02  -5.594808e+01
   1.394724e+02   7.025353e+01
   2.451136e+01   1.635513e+02
  -7.864616e+01   1.496032e+02
  -1.143571e+02   5.756743e+01
  -8.158914e+01  -2.220166e+01
  -2.508146e+01  -3.543883e+01
   4.397294e+00  -8.024541e+00
  -9.091366e+00  -2.736085e+00
  -3.388811e+01  -4.460451e+01
  -2.418686e+01  -9.031955e+01
   2.939349e+01  -7.276245e+01
   8.242422e+01   1.898232e+01
   7.688348e+01   1.107868e+02
   1.815950e+00   1.137269e+02
  -8.451573e+01   2.175485e+01
  -1.025840e+02  -7.896686e+01
  -2.988801e+01  -1.043122e+02
   6.758081e+01  -5.331039e+01
   9.685095e+01   1.336231e+01
   3.795256e+01   4.900293e+01
  -3.246830e+01   4.935544e+01
  -2.959834e+01   2.802155e+01
   3.552608e+01   9.302146e-01
   6.953379e+01  -6.494695e+00
   1.442705e+01   2.405817e+01
  -7.894116e+01   6.589845e+01
  -1.142015e+02   5.993755e+01
  -6.199391e+01  -1.111921e+01
   1.675379e+01  -8.320672e+01
   5.283309e+01  -7.873383e+01
   3.617756e+01  -3.066722e+00
   4.309465e-01   5.817765e+01
  -2.690062e+01   4.242747e+01
  -3.714870e+01  -2.023563e+01
  -2.636358e+01  -5.449609e+01
   3.814319e+00  -3.146609e+01
   3.319838e+01   9.417517e+00
   3.873485e+01   2.007376e+01
   2.013487e+01   8.545760e-02
   3.569034e-01  -1.297985e+01
  -6.167862e+00   5.704576e+00
  -8.769857e+00   3.784345e+01
  -2.037791e+01   4.293041e+01
  -3.350413e+01   4.318288e+00
  -2.722336e+01  -4.729234e+01
   6.031786e+00  -6.081353e+01
   4.555203e+01  -1.863877e+01
   5.465357e+01   4.143556e+01
   1.301853e+01   6.409685e+01
  -5.450654e+01   3.346494e+01
  -8.815006e+01  -1.686933e+01
  -4.914331e+01  -4.475350e+01
   2.892618e+01  -3.965971e+01
   6.519770e+01  -1.938342e+01
   2.350825e+01  -3.975557e+00
  -3.948559e+01  -3.498072e+00
  -3.907017e+01  -1.806388e+01
   3.254700e+01  -3.268101e+01
   9.465246e+01  -1.913080e+01
