
 $NMID
 id='ANONYMOUS ', fmtdat='(2E16.6)'
 volume=1.0
 tramp=1.0
 $END
  -4.844535e+03  -9.775968e+01
  -2.721832e+03  -3.022596e+03
   9.416543e+02  -2.972061e+03
   2.343659e+03  -8.579434e+02
   8.977186e+02   8.714832e+02
  -8.529853e+02   6.664236e+02
  -9.948968e+02  -5.657708e+02
   3.875502e+01  -1.317652e+03
   9.654702e+02  -8.718395e+02
   1.052488e+03   1.063425e+02
   4.814092e+02   9.861966e+02
  -3.253592e+02   9.927230e+02
  -7.267367e+02   3.842200e+01
  -3.810038e+02  -8.719884e+02
   3.020201e+02  -8.238123e+02
   6.772967e+02   1.086243e+01
   2.697110e+02   7.881879e+02
  -3.860716e+02   6.438024e+02
  -6.402123e+02   5.274986e+01
  -3.792026e+02  -4.246022e+02
   2.617606e+01  -4.524853e+02
   2.943066e+02  -2.648625e+02
   2.127703e+02   4.184586e+00
  -1.318927e+02   1.139630e+02
  -4.479981e+02  -8.538898e+01
  -2.498445e+02  -4.723958e+02
   4.636507e+02  -4.798930e+02
   9.281709e+02   5.583444e+01
   5.011122e+02   5.968501e+02
  -4.072879e+02   5.637443e+02
  -8.026653e+02  -9.081914e+00
  -3.926772e+02  -5.350618e+02
   2.892582e+02  -5.710020e+02
   5.981435e+02  -2.255731e+02
   4.371663e+02   2.511476e+02
   7.750037e+01   5.222349e+02
  -2.216958e+02   2.959842e+02
  -2.032546e+02  -2.594876e+02
   1.668458e+02  -5.017791e+02
   5.029786e+02  -7.138904e+00
   2.956281e+02   7.365046e+02
  -3.460145e+02   7.704380e+02
  -6.776088e+02   1.610036e+01
  -3.067338e+02  -6.065349e+02
   3.211746e+02  -3.645782e+02
   4.410018e+02   3.210871e+02
  -4.867992e+01   5.814266e+02
  -5.878546e+02   1.553521e+02
  -6.347089e+02  -4.076995e+02
  -1.851576e+02  -6.079339e+02
   4.040597e+02  -3.689389e+02
   6.709808e+02   7.235282e+01
   3.977460e+02   4.105069e+02
  -1.724939e+02   3.956100e+02
  -4.829318e+02   5.365660e+01
  -2.539737e+02  -2.271859e+02
   1.444863e+02  -1.170222e+02
   1.583360e+02   1.874294e+02
  -1.934107e+02   2.190267e+02
  -3.810584e+02  -9.142560e+01
  -1.308345e+02  -3.413698e+02
   2.396220e+02  -2.676077e+02
   3.330277e+02  -4.914528e+01
   1.642187e+02   8.985957e+01
  -3.398585e+01   1.971933e+02
  -1.873397e+02   3.169622e+02
  -3.153126e+02   2.494747e+02
  -3.159775e+02  -1.142251e+02
  -1.109040e+02  -4.639295e+02
   1.270250e+02  -4.260970e+02
   1.585752e+02  -1.087639e+02
   3.257017e+01   5.269156e+01
   1.146202e+01  -6.818097e+01
   1.707003e+02  -1.575006e+02
   2.949328e+02   1.758596e+01
   1.946033e+02   2.693268e+02
  -5.625327e+01   2.844497e+02
  -2.433555e+02   3.718811e+01
  -2.254497e+02  -2.354085e+02
  -2.691948e+00  -3.115616e+02
   2.764204e+02  -1.352441e+02
   3.803972e+02   1.635620e+02
   1.943847e+02   3.680705e+02
  -1.127722e+02   3.227506e+02
  -2.457948e+02   1.194099e+02
  -1.562988e+02  -1.060291e+01
  -9.239071e+01   2.805115e+01
  -2.264094e+02   6.983997e+01
  -3.985390e+02  -4.872383e+01
  -3.379778e+02  -2.811430e+02
  -9.809353e+00  -4.451663e+02
   3.476723e+02  -4.268861e+02
   4.918725e+02  -2.231399e+02
   3.637153e+02   8.330963e+01
   8.056306e+01   3.118541e+02
  -1.364956e+02   2.831300e+02
  -1.071912e+02   3.591600e+01
   1.028494e+02  -1.297306e+02
   2.188568e+02  -6.418778e+00
   6.769454e+01   2.169282e+02
  -1.781526e+02   2.011447e+02
  -2.092755e+02  -6.141977e+01
   9.493526e+00  -2.181688e+02
   2.072910e+02  -4.692059e+01
   1.717422e+02   2.557120e+02
  -3.581725e+01   3.582892e+02
  -2.312671e+02   1.896539e+02
  -3.195668e+02  -6.313080e+01
  -2.801650e+02  -2.289883e+02
  -1.122638e+02  -2.598954e+02
   1.019720e+02  -1.742132e+02
   1.856013e+02  -3.671283e+01
   7.228827e+01   3.243840e+01
  -7.042532e+01  -2.923633e+01
  -3.887122e+01  -1.259912e+02
   1.240740e+02  -1.122482e+02
   1.908015e+02   4.056690e+00
   6.857633e+01   7.600872e+01
  -8.041933e+01   2.537519e+01
  -6.142816e+01  -6.738945e+01
   1.186942e+02  -8.737397e+01
   2.825799e+02  -6.479687e+00
   2.717728e+02   1.311798e+02
   7.313263e+01   2.548789e+02
  -1.780370e+02   2.748393e+02
  -2.924065e+02   1.428813e+02
  -1.856614e+02  -4.880948e+01
   1.898634e+01  -1.202839e+02
   9.890089e+01  -1.570516e+01
  -2.483721e+01   1.067185e+02
  -1.993996e+02   6.882812e+01
  -2.257934e+02  -1.008304e+02
  -7.905380e+01  -2.156544e+02
   9.400111e+01  -1.691230e+02
   1.524240e+02  -3.723237e+01
   8.213762e+01   4.092828e+01
  -2.119756e+01   1.132804e+01
  -4.144564e+01  -7.247600e+01
   6.080366e+01  -1.118648e+02
   1.930452e+02  -3.940177e+01
   1.985770e+02   1.140522e+02
   3.137266e+01   2.216190e+02
  -1.638023e+02   1.750712e+02
  -2.021831e+02   1.092476e+01
  -7.216342e+01  -1.196689e+02
   6.716274e+01  -1.193343e+02
   8.891976e+01  -3.469422e+01
   2.497545e+01   2.605897e+01
  -1.743976e+01   2.280952e+01
   7.882309e+00  -1.475878e+00
   6.304593e+01   1.197292e+01
   8.307552e+01   7.646126e+01
   1.983505e+01   1.496894e+02
  -1.165338e+02   1.519177e+02
  -2.307223e+02   3.457494e+01
  -2.084625e+02  -1.431794e+02
  -4.880620e+01  -2.404178e+02
   1.094651e+02  -1.763086e+02
   1.400913e+02  -2.835170e+01
   7.144374e+01   5.883286e+01
   2.761770e+01   3.702526e+01
   5.254655e+01  -1.378922e+01
   7.790012e+01  -7.388717e+00
   3.895716e+01   4.782289e+01
  -4.175866e+01   8.300465e+01
  -9.529904e+01   5.182033e+01
  -7.875682e+01  -3.098025e+01
   1.044582e+01  -1.021562e+02
   1.325673e+02  -8.468521e+01
   1.940202e+02   4.240463e+01
   1.087017e+02   1.939627e+02
  -9.631564e+01   2.333035e+02
  -2.659185e+02   1.079209e+02
  -2.655021e+02  -7.892045e+01
  -1.173642e+02  -1.788797e+02
   3.537416e+01  -1.524394e+02
   9.514267e+01  -8.798121e+01
   8.144049e+01  -7.158460e+01
   6.937666e+01  -9.291585e+01
   9.432494e+01  -7.444616e+01
   1.288450e+02   2.352854e+01
   1.186105e+02   1.551628e+02
   3.246758e+01   2.262870e+02
  -9.620446e+01   1.742143e+02
  -1.762522e+02   2.570798e+01
  -1.405707e+02  -1.165024e+02
  -2.484440e+01  -1.587564e+02
   6.218062e+01  -9.716254e+01
   5.765154e+01  -7.684928e+00
   7.364386e+00   3.808420e+01
  -4.715750e+00   3.455183e+01
   3.967910e+01   2.042149e+01
   7.764143e+01   2.309830e+01
   4.314845e+01   3.614291e+01
  -5.986744e+01   3.636035e+01
  -1.521546e+02   7.212319e+00
  -1.440299e+02  -4.486607e+01
  -2.315819e+01  -8.589833e+01
   1.145010e+02  -7.715162e+01
   1.459740e+02  -1.857282e+01
   5.185400e+01   3.782010e+01
  -5.955128e+01   3.655227e+01
  -7.605232e+01  -1.900361e+01
  -4.806173e+00  -6.737510e+01
   5.933200e+01  -5.558718e+01
   6.274840e+01   3.983891e+00
   4.047610e+01   5.023398e+01
   4.176806e+01   4.113474e+01
   6.282143e+01   2.009252e+00
   6.621109e+01   3.776020e-01
   3.276010e+01   6.556056e+01
  -3.296623e+01   1.425445e+02
  -1.106949e+02   1.399296e+02
  -1.570990e+02   3.573098e+01
  -1.211489e+02  -8.635330e+01
  -1.019623e+01  -1.221743e+02
   8.191002e+01  -5.998852e+01
   5.890532e+01   1.505626e+01
  -5.896881e+01   2.068709e+01
  -1.392775e+02  -4.146716e+01
  -7.982598e+01  -1.061464e+02
   7.719566e+01  -1.147859e+02
   1.898805e+02  -5.742038e+01
   1.644843e+02   2.928216e+01
   4.046576e+01   8.603896e+01
  -5.833527e+01   7.234798e+01
  -4.795928e+01   9.167583e+00
   3.898226e+01  -2.609872e+01
   9.053115e+01   2.372173e+01
   3.238630e+01   1.204783e+02
  -9.284605e+01   1.550578e+02
  -1.692473e+02   6.188560e+01
  -1.280463e+02  -1.008003e+02
  -1.179260e+01  -1.976387e+02
   8.344907e+01  -1.462618e+02
   1.038572e+02   2.186334e+00
   6.377203e+01   1.147308e+02
   3.876607e+00   1.076468e+02
  -4.266677e+01   2.353138e+01
  -5.352053e+01  -2.978525e+01
  -2.843940e+01  -9.189045e+00
  -3.121174e+00   2.151194e+01
  -1.796716e+01  -1.176421e+01
  -5.617272e+01  -8.597511e+01
  -4.645602e+01  -1.098036e+02
   4.327081e+01  -4.678774e+01
   1.388201e+02   3.878654e+01
   1.321958e+02   7.035629e+01
   1.761746e+01   4.793079e+01
  -8.955951e+01   2.099118e+01
  -8.821554e+01   9.039781e+00
  -8.666414e+00  -4.820166e+00
   3.938057e+01  -2.179558e+01
   1.206163e+01  -1.968079e+01
  -2.360257e+01   7.802266e-01
   6.121708e+00   1.034381e+01
   7.548818e+01   5.052792e+00
   9.024742e+01   2.305570e+01
   5.096684e+00   7.819607e+01
  -1.199619e+02   1.126365e+02
  -1.827976e+02   5.757632e+01
  -1.375612e+02  -6.782324e+01
  -2.452497e+01  -1.616160e+02
   7.707742e+01  -1.483793e+02
   1.120871e+02  -5.670087e+01
   7.980079e+01   2.217358e+01
   2.409781e+01   3.451525e+01
  -4.786938e+00   6.944177e+00
   8.936715e+00   1.903929e+00
   3.425005e+01   4.346256e+01
   2.543115e+01   8.836518e+01
  -2.730578e+01   7.095545e+01
  -8.042279e+01  -1.873749e+01
  -7.579819e+01  -1.081983e+02
  -2.110461e+00  -1.106947e+02
   8.352565e+01  -2.070705e+01
   1.017347e+02   7.796203e+01
   2.981797e+01   1.030494e+02
  -6.700877e+01   5.333545e+01
  -9.645597e+01  -1.243824e+01
  -3.804272e+01  -4.835056e+01
   3.178207e+01  -4.938623e+01
   2.892007e+01  -2.794293e+01
  -3.603839e+01  -4.156509e-01
  -7.000161e+01   6.840932e+00
  -1.485116e+01  -2.464826e+01
   7.863627e+01  -6.723549e+01
   1.135678e+02  -6.128602e+01
   6.141384e+01   9.890769e+00
  -1.668183e+01   8.207560e+01
  -5.115808e+01   7.758847e+01
  -3.371491e+01   2.750745e+00
   9.420133e-01  -5.737872e+01
   2.659590e+01  -4.117452e+01
   3.661768e+01   2.094953e+01
   2.672961e+01   5.421993e+01
  -2.798640e+00   3.113629e+01
  -3.349515e+01  -8.865293e+00
  -4.008647e+01  -1.922168e+01
  -2.075638e+01  -8.276842e-02
   6.858176e-01   1.201991e+01
   7.670999e+00  -6.305324e+00
   9.095398e+00  -3.730267e+01
   1.952200e+01  -4.190452e+01
   3.302971e+01  -4.251678e+00
   2.774391e+01   4.666301e+01
  -5.100187e+00   6.058593e+01
  -4.511598e+01   1.975807e+01
  -5.467728e+01  -3.971718e+01
  -1.335214e+01  -6.327903e+01
   5.389108e+01  -3.364813e+01
   8.709890e+01   1.617780e+01
   4.805493e+01   4.433948e+01
  -2.898568e+01   3.962827e+01
  -6.439321e+01   1.915131e+01
  -2.264750e+01   3.595758e+00
   3.936555e+01   3.192419e+00
   3.851789e+01   1.791647e+01
  -3.220866e+01   3.267600e+01
  -9.340535e+01   1.957720e+01
