
 $NMID
 id='ANONYMOUS ', fmtdat='(2E16.6)'
 volume=1.0
 tramp=1.0
 $END
   4.638241e+03   7.882477e+01
   2.598050e+03   2.870707e+03
  -7.988850e+02   2.919326e+03
  -2.226677e+03   1.008653e+03
  -1.033458e+03  -9.124575e+02
   7.298113e+02  -7.817671e+02
   1.020825e+03   5.334301e+02
   2.107730e+00   1.172565e+03
  -9.218285e+02   9.145204e+02
  -1.050772e+03  -6.365061e+01
  -5.291280e+02  -9.735770e+02
   3.648745e+02  -9.740751e+02
   7.310054e+02  -1.167077e+02
   4.611020e+02   8.148585e+02
  -3.217020e+02   7.892303e+02
  -6.817429e+02  -9.828362e+00
  -2.892819e+02  -7.498100e+02
   3.724443e+02  -6.617522e+02
   6.657609e+02  -6.370998e+01
   3.609951e+02   4.064950e+02
  -3.437939e-01   4.648679e+02
  -2.604372e+02   2.886547e+02
  -2.395119e+02   6.147729e+00
   9.127712e+01  -1.213432e+02
   4.521393e+02   9.033702e+01
   2.542156e+02   4.479504e+02
  -4.673684e+02   4.783667e+02
  -9.228703e+02  -4.355406e+01
  -4.863630e+02  -5.886748e+02
   4.124016e+02  -5.575602e+02
   8.103482e+02   2.552532e+00
   4.009364e+02   5.243727e+02
  -2.722530e+02   5.754788e+02
  -5.959472e+02   2.397350e+02
  -4.503509e+02  -2.334317e+02
  -8.110645e+01  -5.264630e+02
   2.287027e+02  -3.182130e+02
   2.179160e+02   2.433104e+02
  -1.625263e+02   5.145057e+02
  -4.956290e+02   1.291444e+01
  -2.991216e+02  -7.259908e+02
   3.392466e+02  -7.688613e+02
   6.705104e+02  -8.169323e+00
   2.851228e+02   6.074485e+02
  -3.449250e+02   3.483350e+02
  -4.380669e+02  -3.547837e+02
   6.185070e+01  -5.932320e+02
   5.976777e+02  -1.489290e+02
   6.348496e+02   4.210688e+02
   1.776421e+02   6.078954e+02
  -4.066813e+02   3.625665e+02
  -6.750924e+02  -7.161906e+01
  -4.029284e+02  -4.131854e+02
   1.708389e+02  -4.037005e+02
   4.888336e+02  -6.650655e+01
   2.624743e+02   2.202713e+02
  -1.423779e+02   1.195909e+02
  -1.679474e+02  -1.837929e+02
   1.857312e+02  -2.218023e+02
   3.915885e+02   8.341350e+01
   1.573958e+02   3.378322e+02
  -2.219093e+02   2.740717e+02
  -3.437217e+02   5.637896e+01
  -1.876813e+02  -9.598380e+01
   3.157930e+01  -2.134754e+02
   2.119579e+02  -3.217584e+02
   3.364342e+02  -2.333136e+02
   3.123315e+02   1.311895e+02
   9.774932e+01   4.608653e+02
  -1.262527e+02   4.149031e+02
  -1.504999e+02   1.155007e+02
  -3.915187e+01  -3.191978e+01
  -3.198943e+01   7.557249e+01
  -1.807285e+02   1.423662e+02
  -2.851704e+02  -3.477093e+01
  -1.831700e+02  -2.708717e+02
   5.193636e+01  -2.791190e+02
   2.359541e+02  -3.399773e+01
   2.290540e+02   2.381802e+02
   1.368758e+01   3.196005e+02
  -2.774611e+02   1.437547e+02
  -3.958636e+02  -1.666020e+02
  -2.056126e+02  -3.793070e+02
   1.109633e+02  -3.314729e+02
   2.510894e+02  -1.232270e+02
   1.602304e+02   6.308658e+00
   9.553049e+01  -3.255684e+01
   2.372521e+02  -7.080533e+01
   4.172386e+02   5.612800e+01
   3.457850e+02   2.937529e+02
   2.628561e+00   4.561561e+02
  -3.624557e+02   4.300042e+02
  -5.005522e+02   2.221428e+02
  -3.617000e+02  -8.164295e+01
  -7.731075e+01  -3.090944e+02
   1.325506e+02  -2.830991e+02
   1.007732e+02  -4.123124e+01
  -1.038015e+02   1.248624e+02
  -2.140874e+02   8.367738e+00
  -6.777191e+01  -2.100604e+02
   1.697178e+02  -1.971232e+02
   1.998908e+02   5.681500e+01
  -1.123286e+01   2.109456e+02
  -2.073009e+02   4.339555e+01
  -1.744582e+02  -2.579536e+02
   3.211982e+01  -3.666730e+02
   2.356232e+02  -2.003324e+02
   3.306946e+02   6.261593e+01
   2.868311e+02   2.386379e+02
   1.082333e+02   2.648101e+02
  -1.068460e+02   1.677280e+02
  -1.826061e+02   2.835868e+01
  -6.431740e+01  -3.061496e+01
   7.342061e+01   3.865448e+01
   3.539564e+01   1.316876e+02
  -1.272929e+02   1.111911e+02
  -1.909652e+02  -6.272162e+00
  -6.893056e+01  -7.573497e+01
   7.752822e+01  -2.529647e+01
   5.925051e+01   6.575385e+01
  -1.174875e+02   8.682287e+01
  -2.807707e+02   8.813350e+00
  -2.728903e+02  -1.295127e+02
  -7.685106e+01  -2.572909e+02
   1.753059e+02  -2.791292e+02
   2.921658e+02  -1.453850e+02
   1.871148e+02   4.817533e+01
  -1.679976e+01   1.190288e+02
  -9.624998e+01   1.337352e+01
   2.758633e+01  -1.081328e+02
   2.014905e+02  -6.785945e+01
   2.266753e+02   1.036230e+02
   7.904124e+01   2.187901e+02
  -9.485351e+01   1.706318e+02
  -1.533577e+02   3.655071e+01
  -8.234775e+01  -4.216095e+01
   2.154604e+01  -1.039120e+01
   4.056870e+01   7.540598e+01
  -6.420138e+01   1.129838e+02
  -1.970058e+02   3.612429e+01
  -1.998119e+02  -1.198349e+02
  -2.834546e+01  -2.251543e+02
   1.679596e+02  -1.748731e+02
   2.040336e+02  -9.460911e+00
   7.157066e+01   1.197396e+02
  -6.697953e+01   1.179975e+02
  -8.638163e+01   3.436980e+01
  -2.325766e+01  -2.402564e+01
   1.589123e+01  -1.975653e+01
  -1.256337e+01   2.154502e+00
  -6.719909e+01  -1.500013e+01
  -8.227055e+01  -8.226575e+01
  -1.416908e+01  -1.547407e+02
   1.224867e+02  -1.532281e+02
   2.341731e+02  -3.178229e+01
   2.093400e+02   1.475491e+02
   4.887507e+01   2.436750e+02
  -1.098350e+02   1.786937e+02
  -1.411475e+02   3.001613e+01
  -7.320577e+01  -5.826435e+01
  -2.885436e+01  -3.861983e+01
  -5.336901e+01   1.118382e+01
  -7.822241e+01   5.783148e+00
  -3.874524e+01  -4.828457e+01
   4.331406e+01  -8.314542e+01
   9.841360e+01  -5.188655e+01
   8.174923e+01   3.321422e+01
  -1.124281e+01   1.058002e+02
  -1.362293e+02   8.783661e+01
  -1.983143e+02  -4.388643e+01
  -1.106426e+02  -1.987186e+02
   9.717974e+01  -2.357567e+02
   2.684463e+02  -1.063529e+02
   2.678593e+02   8.117667e+01
   1.192811e+02   1.802361e+02
  -3.597444e+01   1.531586e+02
  -9.759107e+01   8.902683e+01
  -8.332893e+01   7.266704e+01
  -6.914379e+01   9.346327e+01
  -9.345275e+01   7.571823e+01
  -1.312093e+02  -2.194682e+01
  -1.228874e+02  -1.561422e+02
  -3.421300e+01  -2.311556e+02
   9.939735e+01  -1.790543e+02
   1.815053e+02  -2.530618e+01
   1.431388e+02   1.219124e+02
   2.340563e+01   1.634148e+02
  -6.516929e+01   9.685627e+01
  -5.960676e+01   4.680627e+00
  -7.574686e+00  -3.932632e+01
   5.005258e+00  -3.326433e+01
  -4.006033e+01  -1.963548e+01
  -7.890803e+01  -2.484878e+01
  -4.366555e+01  -3.864241e+01
   6.161344e+01  -3.713837e+01
   1.555608e+02  -6.095717e+00
   1.463029e+02   4.634271e+01
   2.268234e+01   8.667967e+01
  -1.164277e+02   7.766000e+01
  -1.471929e+02   1.908717e+01
  -5.140666e+01  -3.819903e+01
   6.122321e+01  -3.795473e+01
   7.821833e+01   1.846709e+01
   6.707905e+00   6.919666e+01
  -5.880558e+01   5.904088e+01
  -6.408821e+01  -2.277467e+00
  -4.215954e+01  -5.090874e+01
  -4.251111e+01  -4.193059e+01
  -6.311664e+01  -9.839307e-01
  -6.760975e+01   1.010154e+00
  -3.483438e+01  -6.691004e+01
   3.298050e+01  -1.463953e+02
   1.138437e+02  -1.429306e+02
   1.612556e+02  -3.498018e+01
   1.233985e+02   8.990915e+01
   9.287796e+00   1.253570e+02
  -8.424616e+01   6.088497e+01
  -6.046413e+01  -1.536999e+01
   5.884211e+01  -2.080667e+01
   1.402402e+02   4.226419e+01
   8.040037e+01   1.071774e+02
  -7.840180e+01   1.154118e+02
  -1.934595e+02   5.746411e+01
  -1.680818e+02  -3.037057e+01
  -4.097545e+01  -8.838041e+01
   6.126508e+01  -7.489315e+01
   5.091872e+01  -1.014245e+01
  -3.883849e+01   2.719089e+01
  -9.251703e+01  -2.263840e+01
  -3.319341e+01  -1.215591e+02
   9.530998e+01  -1.577551e+02
   1.730616e+02  -6.264366e+01
   1.299535e+02   1.040321e+02
   1.036138e+01   2.026535e+02
  -8.646793e+01   1.485979e+02
  -1.061044e+02  -4.339152e+00
  -6.415600e+01  -1.183407e+02
  -2.804184e+00  -1.089299e+02
   4.410589e+01  -2.230131e+01
   5.454269e+01   3.100061e+01
   2.850931e+01   9.085132e+00
   2.566794e+00  -2.182687e+01
   1.785671e+01   1.280969e+01
   5.731719e+01   8.802632e+01
   4.747564e+01   1.115291e+02
  -4.450835e+01   4.757661e+01
  -1.426020e+02  -3.895922e+01
  -1.359819e+02  -7.149301e+01
  -1.822006e+01  -5.009575e+01
   9.206720e+01  -2.289180e+01
   9.094905e+01  -9.305921e+00
   9.261656e+00   6.307278e+00
  -4.030833e+01   2.312170e+01
  -1.276285e+01   1.984394e+01
   2.338857e+01  -1.131679e+00
  -7.180640e+00  -1.020015e+01
  -7.782257e+01  -5.093829e+00
  -9.216932e+01  -2.468654e+01
  -4.516843e+00  -8.164644e+01
   1.233774e+02  -1.157754e+02
   1.874840e+02  -5.831145e+01
   1.412698e+02   7.009960e+01
   2.549897e+01   1.657121e+02
  -7.912268e+01   1.523445e+02
  -1.156494e+02   5.915252e+01
  -8.281292e+01  -2.217569e+01
  -2.541295e+01  -3.628998e+01
   4.599855e+00  -8.758092e+00
  -9.319873e+00  -2.889935e+00
  -3.506138e+01  -4.478946e+01
  -2.566853e+01  -9.104817e+01
   2.881916e+01  -7.368465e+01
   8.350835e+01   1.850737e+01
   7.887091e+01   1.110885e+02
   3.022416e+00   1.145143e+02
  -8.524732e+01   2.255018e+01
  -1.045397e+02  -7.886696e+01
  -3.154160e+01  -1.050715e+02
   6.726246e+01  -5.463243e+01
   9.753690e+01   1.245319e+01
   3.861962e+01   4.891929e+01
  -3.182894e+01   4.999502e+01
  -2.897181e+01   2.817936e+01
   3.623974e+01   1.054403e-01
   7.019261e+01  -7.226460e+00
   1.469370e+01   2.470289e+01
  -7.933434e+01   6.800466e+01
  -1.148936e+02   6.195760e+01
  -6.299022e+01  -1.068840e+01
   1.600070e+01  -8.436586e+01
   5.271258e+01  -8.020894e+01
   3.657950e+01  -3.587420e+00
   7.606340e-01   5.873738e+01
  -2.708682e+01   4.330119e+01
  -3.811427e+01  -2.006670e+01
  -2.743476e+01  -5.498835e+01
   3.194308e+00  -3.190588e+01
   3.358968e+01   9.006976e+00
   3.958252e+01   1.947429e+01
   2.077091e+01  -5.430575e-01
   3.283840e-01  -1.287796e+01
  -6.658281e+00   6.364038e+00
  -9.123622e+00   3.867111e+01
  -2.061960e+01   4.314513e+01
  -3.381616e+01   4.025050e+00
  -2.756102e+01  -4.775963e+01
   5.769089e+00  -6.135019e+01
   4.574197e+01  -1.915823e+01
   5.507335e+01   4.108464e+01
   1.341830e+01   6.433950e+01
  -5.477149e+01   3.424974e+01
  -8.900959e+01  -1.619910e+01
  -4.994122e+01  -4.475848e+01
   2.875599e+01  -4.038530e+01
   6.566987e+01  -2.011472e+01
   2.374914e+01  -4.200780e+00
  -4.009674e+01  -3.546042e+00
  -3.996769e+01  -1.832045e+01
   3.252782e+01  -3.311140e+01
   9.567676e+01  -1.952292e+01
