
 $NMID
 id='ANONYMOUS ', fmtdat='(2E16.6)'
 volume=1.0
 tramp=1.0
 $END
   4.595812e+03   5.423900e+01
   2.570988e+03   2.737748e+03
  -6.917556e+02   2.994219e+03
  -2.241395e+03   9.873800e+02
  -1.058034e+03  -8.300612e+02
   7.579331e+02  -6.673813e+02
   1.051970e+03   4.548389e+02
   1.076221e+02   1.224769e+03
  -9.636523e+02   8.375229e+02
  -1.087844e+03  -1.074539e+02
  -4.676332e+02  -9.824251e+02
   2.482540e+02  -1.003141e+03
   7.173076e+02  -1.227719e+02
   4.243581e+02   7.980848e+02
  -2.797971e+02   8.270795e+02
  -6.750958e+02  -2.466597e+01
  -2.943313e+02  -7.495356e+02
   3.510208e+02  -6.595640e+02
   6.289287e+02  -6.087884e+01
   4.221994e+02   4.111458e+02
  -7.253103e+00   4.705169e+02
  -2.731932e+02   2.858314e+02
  -2.286222e+02   1.263962e+01
   1.262988e+02  -8.468223e+01
   4.203573e+02   8.250687e+01
   2.315088e+02   4.546032e+02
  -4.792427e+02   4.616827e+02
  -9.031693e+02  -4.248707e+01
  -4.922508e+02  -5.863518e+02
   3.785950e+02  -5.459066e+02
   7.983364e+02   1.670471e+01
   3.795811e+02   5.179506e+02
  -2.891444e+02   5.588213e+02
  -5.851222e+02   2.206815e+02
  -4.536996e+02  -2.540332e+02
  -7.992662e+01  -5.015257e+02
   2.250325e+02  -2.960665e+02
   1.973801e+02   2.313459e+02
  -1.672820e+02   4.654206e+02
  -4.988701e+02  -1.479449e+01
  -2.774192e+02  -7.314842e+02
   3.572830e+02  -7.525912e+02
   6.754841e+02  -1.009500e+00
   2.800137e+02   6.119138e+02
  -3.421395e+02   3.569557e+02
  -4.418183e+02  -3.471352e+02
   6.936181e+01  -6.033565e+02
   6.033820e+02  -1.561540e+02
   6.325744e+02   4.322206e+02
   1.668234e+02   6.173007e+02
  -4.074691e+02   3.573832e+02
  -6.596319e+02  -8.985699e+01
  -3.871517e+02  -4.150691e+02
   1.747506e+02  -3.906547e+02
   4.820885e+02  -5.021545e+01
   2.616626e+02   2.254585e+02
  -1.368324e+02   1.211357e+02
  -1.696193e+02  -1.748878e+02
   1.708291e+02  -2.153046e+02
   3.779092e+02   7.547257e+01
   1.567068e+02   3.239398e+02
  -2.155980e+02   2.733008e+02
  -3.417365e+02   6.832672e+01
  -1.906803e+02  -8.898792e+01
   3.045115e+01  -2.164012e+02
   2.140532e+02  -3.211937e+02
   3.350625e+02  -2.230570e+02
   3.018687e+02   1.381021e+02
   8.381223e+01   4.531754e+02
  -1.306719e+02   4.007347e+02
  -1.411640e+02   1.095737e+02
  -2.854642e+01  -2.710678e+01
  -3.251059e+01   7.845668e+01
  -1.876211e+02   1.358717e+02
  -2.826349e+02  -4.202564e+01
  -1.705163e+02  -2.660207e+02
   6.223301e+01  -2.622228e+02
   2.267368e+02  -2.399467e+01
   2.087687e+02   2.308070e+02
   1.774550e+00   3.021697e+02
  -2.685633e+02   1.368604e+02
  -3.794508e+02  -1.583484e+02
  -1.997654e+02  -3.667024e+02
   1.099162e+02  -3.264342e+02
   2.450201e+02  -1.187067e+02
   1.531683e+02   1.323197e+01
   8.515446e+01  -2.843742e+01
   2.280171e+02  -7.516282e+01
   4.090513e+02   4.758911e+01
   3.462350e+02   2.893702e+02
   3.290693e-01   4.555797e+02
  -3.652609e+02   4.219703e+02
  -4.972285e+02   2.064877e+02
  -3.462091e+02  -9.171140e+01
  -5.992239e+01  -3.037334e+02
   1.358302e+02  -2.645924e+02
   9.374313e+01  -2.909978e+01
  -1.070185e+02   1.209086e+02
  -2.097821e+02   3.337893e+00
  -6.076346e+01  -2.066237e+02
   1.679430e+02  -1.879529e+02
   1.924499e+02   6.161038e+01
  -1.562197e+01   2.059984e+02
  -2.038386e+02   3.879241e+01
  -1.703025e+02  -2.554786e+02
   3.396983e+01  -3.581409e+02
   2.349770e+02  -1.948537e+02
   3.300119e+02   6.238012e+01
   2.846504e+02   2.375006e+02
   1.028228e+02   2.677461e+02
  -1.137500e+02   1.694392e+02
  -1.852474e+02   2.525278e+01
  -6.143839e+01  -3.591986e+01
   7.669421e+01   3.652414e+01
   3.525442e+01   1.311742e+02
  -1.289009e+02   1.077605e+02
  -1.881768e+02  -1.139424e+01
  -6.174666e+01  -7.651004e+01
   8.341503e+01  -1.915076e+01
   5.873111e+01   7.249043e+01
  -1.219129e+02   8.703577e+01
  -2.816660e+02   3.564813e+00
  -2.673199e+02  -1.322404e+02
  -6.937938e+01  -2.521701e+02
   1.771781e+02  -2.694957e+02
   2.862477e+02  -1.388503e+02
   1.783799e+02   4.792695e+01
  -2.188655e+01   1.145665e+02
  -9.542280e+01   9.940011e+00
   3.112473e+01  -1.079679e+02
   2.028766e+02  -6.581230e+01
   2.240531e+02   1.040986e+02
   7.550331e+01   2.160357e+02
  -9.479634e+01   1.665476e+02
  -1.490004e+02   3.492412e+01
  -7.779110e+01  -3.946097e+01
   2.202525e+01  -5.925356e+00
   3.761621e+01   7.753369e+01
  -6.602872e+01   1.112086e+02
  -1.953126e+02   3.330222e+01
  -1.962298e+02  -1.195756e+02
  -2.680461e+01  -2.211886e+02
   1.668123e+02  -1.696671e+02
   2.013152e+02  -6.726975e+00
   6.861615e+01   1.196432e+02
  -7.002123e+01   1.160294e+02
  -8.779419e+01   3.192239e+01
  -2.046430e+01  -2.571347e+01
   2.013866e+01  -1.871860e+01
  -1.089387e+01   5.726585e+00
  -7.019081e+01  -1.177489e+01
  -8.613527e+01  -8.197029e+01
  -1.536728e+01  -1.564190e+02
   1.244755e+02  -1.525807e+02
   2.338249e+02  -2.831413e+01
   2.051762e+02   1.493146e+02
   4.336370e+01   2.404489e+02
  -1.114404e+02   1.725546e+02
  -1.374044e+02   2.556024e+01
  -6.868950e+01  -5.744806e+01
  -2.641907e+01  -3.505944e+01
  -5.341932e+01   1.349401e+01
  -8.050938e+01   6.442629e+00
  -3.925544e+01  -4.890233e+01
   4.489206e+01  -8.394008e+01
   9.964037e+01  -5.071261e+01
   8.024598e+01   3.527222e+01
  -1.484596e+01   1.076074e+02
  -1.393443e+02   8.541804e+01
  -1.969230e+02  -4.800354e+01
  -1.055687e+02  -2.000901e+02
   1.015668e+02  -2.321491e+02
   2.683935e+02  -1.017153e+02
   2.638310e+02   8.367982e+01
   1.144360e+02   1.786363e+02
  -3.744476e+01   1.504653e+02
  -9.546594e+01   8.724836e+01
  -8.107255e+01   7.192091e+01
  -6.848068e+01   9.230594e+01
  -9.398887e+01   7.472225e+01
  -1.300036e+02  -2.143274e+01
  -1.205853e+02  -1.537473e+02
  -3.303331e+01  -2.280944e+02
   9.760826e+01  -1.774088e+02
   1.781189e+02  -2.549357e+01
   1.408756e+02   1.204520e+02
   2.289759e+01   1.617374e+02
  -6.493442e+01   9.523883e+01
  -5.896846e+01   3.831731e+00
  -5.825260e+00  -3.884779e+01
   7.224790e+00  -3.172753e+01
  -3.944948e+01  -1.860126e+01
  -7.975031e+01  -2.516227e+01
  -4.383084e+01  -3.934311e+01
   6.240277e+01  -3.587934e+01
   1.545418e+02  -2.675208e+00
   1.421963e+02   4.863204e+01
   1.843879e+01   8.483077e+01
  -1.165562e+02   7.295544e+01
  -1.436832e+02   1.580075e+01
  -4.886036e+01  -3.752052e+01
   5.985126e+01  -3.559539e+01
   7.520438e+01   1.884791e+01
   6.007947e+00   6.748386e+01
  -5.693302e+01   5.733233e+01
  -6.219176e+01  -1.886018e+00
  -4.204636e+01  -4.967871e+01
  -4.323937e+01  -4.149612e+01
  -6.310818e+01  -1.970924e+00
  -6.719325e+01   8.398490e-02
  -3.452864e+01  -6.677422e+01
   3.330320e+01  -1.455894e+02
   1.149828e+02  -1.419210e+02
   1.620292e+02  -3.389712e+01
   1.223794e+02   9.093951e+01
   7.339797e+00   1.254689e+02
  -8.460778e+01   6.021202e+01
  -5.899560e+01  -1.602875e+01
   6.002142e+01  -1.975057e+01
   1.382501e+02   4.444923e+01
   7.671642e+01   1.079165e+02
  -8.012700e+01   1.131851e+02
  -1.915417e+02   5.416105e+01
  -1.645744e+02  -3.157165e+01
  -3.962299e+01  -8.668899e+01
   5.979351e+01  -7.278558e+01
   4.943965e+01  -9.641409e+00
  -3.874538e+01   2.650300e+01
  -9.158086e+01  -2.255184e+01
  -3.307418e+01  -1.202210e+02
   9.376908e+01  -1.565365e+02
   1.708443e+02  -6.304694e+01
   1.284628e+02   1.021997e+02
   1.032205e+01   2.000740e+02
  -8.541914e+01   1.461870e+02
  -1.040549e+02  -5.653031e+00
  -6.167012e+01  -1.178011e+02
  -9.653010e-01  -1.070511e+02
   4.441222e+01  -2.067073e+01
   5.373370e+01   3.148883e+01
   2.827914e+01   9.202031e+00
   3.393115e+00  -2.063242e+01
   1.806608e+01   1.430957e+01
   5.519409e+01   8.819658e+01
   4.450391e+01   1.100036e+02
  -4.525525e+01   4.598033e+01
  -1.401272e+02  -3.929562e+01
  -1.328500e+02  -7.099336e+01
  -1.763169e+01  -4.955824e+01
   9.027713e+01  -2.253495e+01
   8.947582e+01  -8.915379e+00
   9.562152e+00   6.253202e+00
  -3.959336e+01   2.252237e+01
  -1.277194e+01   1.942168e+01
   2.324921e+01  -5.443666e-01
  -6.278982e+00  -9.107926e+00
  -7.664006e+01  -4.668952e+00
  -9.214696e+01  -2.499142e+01
  -5.810279e+00  -8.149106e+01
   1.219624e+02  -1.146648e+02
   1.865252e+02  -5.717924e+01
   1.403327e+02   6.986025e+01
   2.475231e+01   1.636650e+02
  -7.847180e+01   1.497999e+02
  -1.133711e+02   5.775864e+01
  -8.075840e+01  -2.161683e+01
  -2.544978e+01  -3.485519e+01
   3.264220e+00  -8.071427e+00
  -9.457230e+00  -3.410317e+00
  -3.319751e+01  -4.496334e+01
  -2.359503e+01  -8.969969e+01
   2.889030e+01  -7.158539e+01
   8.179543e+01   1.942079e+01
   7.698925e+01   1.102787e+02
   2.074130e+00   1.132528e+02
  -8.523498e+01   2.209269e+01
  -1.037399e+02  -7.840824e+01
  -3.030015e+01  -1.044453e+02
   6.806465e+01  -5.395465e+01
   9.721087e+01   1.305647e+01
   3.715600e+01   4.912548e+01
  -3.305886e+01   4.933751e+01
  -2.919612e+01   2.757765e+01
   3.650153e+01   7.113761e-01
   6.971456e+01  -5.878772e+00
   1.362953e+01   2.488903e+01
  -7.982073e+01   6.593439e+01
  -1.144009e+02   5.942607e+01
  -6.203831e+01  -1.148537e+01
   1.640392e+01  -8.328799e+01
   5.226969e+01  -7.889945e+01
   3.624449e+01  -3.988409e+00
   1.291305e+00   5.715626e+01
  -2.596480e+01   4.236071e+01
  -3.691614e+01  -1.975799e+01
  -2.670469e+01  -5.415352e+01
   3.235033e+00  -3.176132e+01
   3.351448e+01   9.127605e+00
   3.943342e+01   2.045594e+01
   2.055429e+01   5.874329e-01
   5.956246e-02  -1.312689e+01
  -6.421352e+00   5.012367e+00
  -8.717285e+00   3.776023e+01
  -2.014113e+01   4.367011e+01
  -3.375109e+01   4.720804e+00
  -2.777645e+01  -4.794554e+01
   6.204643e+00  -6.180913e+01
   4.642202e+01  -1.884918e+01
   5.527472e+01   4.183654e+01
   1.295327e+01   6.438866e+01
  -5.481079e+01   3.328987e+01
  -8.806862e+01  -1.660319e+01
  -4.895463e+01  -4.404947e+01
   2.852290e+01  -3.947595e+01
   6.463905e+01  -2.013741e+01
   2.354539e+01  -4.756407e+00
  -3.882704e+01  -3.378471e+00
  -3.857475e+01  -1.754671e+01
   3.236988e+01  -3.264729e+01
   9.417217e+01  -1.970049e+01
