
 $NMID
 id='ANONYMOUS ', fmtdat='(2E16.6)'
 volume=1.0
 tramp=1.0
 $END
  -4.483574e+03   4.988798e+01
  -2.489287e+03  -2.730459e+03
   7.322840e+02  -2.952856e+03
   2.158269e+03  -8.636705e+02
   1.046948e+03   7.634067e+02
  -6.451779e+02   6.380206e+02
  -1.023138e+03  -4.685074e+02
  -1.247979e+01  -1.152148e+03
   9.253526e+02  -8.673181e+02
   1.027647e+03   1.147743e+02
   4.792636e+02   9.091195e+02
  -2.608422e+02   9.586555e+02
  -7.277306e+02   1.117337e+02
  -3.882895e+02  -7.621651e+02
   2.787299e+02  -7.662008e+02
   6.646140e+02   2.010392e+01
   2.898118e+02   7.180333e+02
  -3.527349e+02   6.595024e+02
  -6.288608e+02   5.627080e+01
  -4.163064e+02  -4.192523e+02
  -2.556126e+01  -4.654496e+02
   2.543760e+02  -2.686064e+02
   2.230007e+02  -1.534618e+01
  -1.010456e+02   1.059065e+02
  -4.068076e+02  -1.020542e+02
  -2.086700e+02  -4.480908e+02
   4.540280e+02  -4.496085e+02
   8.931925e+02   7.460830e+01
   4.727515e+02   5.782571e+02
  -4.197337e+02   5.114344e+02
  -7.907312e+02  -3.928882e+01
  -3.658612e+02  -5.146844e+02
   2.998168e+02  -5.462253e+02
   5.999307e+02  -2.030815e+02
   4.201130e+02   2.658904e+02
   7.016908e+01   5.193580e+02
  -2.155347e+02   3.045370e+02
  -1.984033e+02  -2.303490e+02
   1.798164e+02  -4.764207e+02
   4.860628e+02   1.484588e+01
   2.652814e+02   7.279484e+02
  -3.565655e+02   7.463070e+02
  -6.626562e+02  -1.187804e+01
  -2.757247e+02  -6.050007e+02
   3.342808e+02  -3.298511e+02
   4.308081e+02   3.712869e+02
  -7.125974e+01   5.942298e+02
  -6.006768e+02   1.348101e+02
  -6.304640e+02  -4.478854e+02
  -1.617103e+02  -6.186030e+02
   4.177568e+02  -3.460467e+02
   6.629015e+02   9.886096e+01
   3.829006e+02   4.143373e+02
  -1.757710e+02   3.875722e+02
  -4.771325e+02   5.552515e+01
  -2.555293e+02  -2.148736e+02
   1.331940e+02  -1.165729e+02
   1.586255e+02   1.708742e+02
  -1.803879e+02   2.071788e+02
  -3.816600e+02  -8.429322e+01
  -1.539964e+02  -3.324457e+02
   2.258760e+02  -2.753786e+02
   3.553570e+02  -5.943443e+01
   1.960560e+02   1.006157e+02
  -3.760410e+01   2.190710e+02
  -2.218233e+02   3.173249e+02
  -3.328251e+02   2.253544e+02
  -2.989989e+02  -1.267669e+02
  -9.346396e+01  -4.447882e+02
   1.159145e+02  -4.052608e+02
   1.393595e+02  -1.230990e+02
   4.047917e+01   1.702962e+01
   4.305282e+01  -7.942185e+01
   1.889179e+02  -1.289151e+02
   2.809083e+02   5.348707e+01
   1.681287e+02   2.781916e+02
  -6.794050e+01   2.658061e+02
  -2.335575e+02   1.319421e+01
  -2.109590e+02  -2.468742e+02
   2.904108e+00  -3.075022e+02
   2.742765e+02  -1.263210e+02
   3.801678e+02   1.731151e+02
   1.974498e+02   3.714959e+02
  -1.111596e+02   3.245866e+02
  -2.497112e+02   1.212342e+02
  -1.634576e+02  -8.007649e+00
  -1.004987e+02   2.794817e+01
  -2.367199e+02   6.701018e+01
  -4.123215e+02  -6.168630e+01
  -3.404394e+02  -3.027508e+02
   7.777174e+00  -4.609860e+02
   3.770848e+02  -4.227492e+02
   5.036410e+02  -2.041736e+02
   3.453788e+02   9.577255e+01
   5.840766e+01   3.031948e+02
  -1.337040e+02   2.659113e+02
  -8.883303e+01   3.345215e+01
   1.115448e+02  -1.180728e+02
   2.113603e+02  -8.729665e-02
   6.198158e+01   2.060609e+02
  -1.680418e+02   1.881697e+02
  -1.941157e+02  -5.905755e+01
   1.419096e+01  -2.076717e+02
   2.075386e+02  -3.932009e+01
   1.744063e+02   2.611878e+02
  -3.632474e+01   3.679298e+02
  -2.441287e+02   1.961373e+02
  -3.347241e+02  -7.296176e+01
  -2.791516e+02  -2.483692e+02
  -9.420955e+01  -2.665902e+02
   1.150978e+02  -1.603068e+02
   1.814438e+02  -2.068570e+01
   6.027635e+01   3.241418e+01
  -7.306585e+01  -4.061694e+01
  -3.138838e+01  -1.308372e+02
   1.298111e+02  -1.047565e+02
   1.876514e+02   1.414776e+01
   6.095051e+01   7.906521e+01
  -8.509925e+01   2.061740e+01
  -6.022842e+01  -7.470833e+01
   1.238343e+02  -9.071004e+01
   2.864348e+02  -2.218146e+00
   2.693445e+02   1.402506e+02
   6.511368e+01   2.597652e+02
  -1.844647e+02   2.694176e+02
  -2.909209e+02   1.325580e+02
  -1.786139e+02  -5.327742e+01
   2.330910e+01  -1.150926e+02
   9.609375e+01  -7.558973e+00
  -3.169645e+01   1.093084e+02
  -2.042913e+02   6.399750e+01
  -2.249459e+02  -1.089002e+02
  -7.338254e+01  -2.207031e+02
   1.001859e+02  -1.669153e+02
   1.536936e+02  -2.993683e+01
   7.754188e+01   4.504975e+01
  -2.571326e+01   6.402955e+00
  -3.847243e+01  -8.129035e+01
   7.063936e+01  -1.128148e+02
   2.004832e+02  -2.851832e+01
   1.964875e+02   1.274186e+02
   2.238892e+01   2.260445e+02
  -1.715994e+02   1.695379e+02
  -2.037790e+02   4.009144e+00
  -6.936844e+01  -1.215584e+02
   6.981274e+01  -1.162298e+02
   8.847848e+01  -3.131462e+01
   2.175604e+01   2.645386e+01
  -1.954757e+01   1.918039e+01
   1.075436e+01  -5.786070e+00
   6.943516e+01   1.189412e+01
   8.574819e+01   8.396121e+01
   1.396443e+01   1.586687e+02
  -1.268467e+02   1.534265e+02
  -2.374122e+02   2.674644e+01
  -2.065065e+02  -1.534242e+02
  -4.245732e+01  -2.448693e+02
   1.134942e+02  -1.748382e+02
   1.402752e+02  -2.588708e+01
   7.047257e+01   5.962861e+01
   2.698987e+01   3.726722e+01
   5.453714e+01  -1.319718e+01
   8.160424e+01  -5.768875e+00
   4.083495e+01   5.023826e+01
  -4.522468e+01   8.651850e+01
  -1.029845e+02   5.310704e+01
  -8.362554e+01  -3.739918e+01
   1.521199e+01  -1.108906e+02
   1.428854e+02  -8.582862e+01
   1.996177e+02   5.199071e+01
   1.030625e+02   2.050083e+02
  -1.073879e+02   2.337094e+02
  -2.728979e+02   9.820509e+01
  -2.644192e+02  -8.939625e+01
  -1.129063e+02  -1.828351e+02
   4.014553e+01  -1.513380e+02
   9.769446e+01  -8.596269e+01
   8.252809e+01  -7.130408e+01
   6.987959e+01  -9.356137e+01
   9.545629e+01  -7.533156e+01
   1.312559e+02   2.375576e+01
   1.200789e+02   1.584269e+02
   2.973449e+01   2.318121e+02
  -1.022873e+02   1.768448e+02
  -1.811169e+02   2.136677e+01
  -1.400564e+02  -1.252856e+02
  -1.947003e+01  -1.644791e+02
   6.808982e+01  -9.503938e+01
   6.005292e+01  -1.285924e+00
   4.975319e+00   4.182438e+01
  -8.474921e+00   3.321305e+01
   3.891725e+01   1.848574e+01
   8.060090e+01   2.478202e+01
   4.445036e+01   3.988150e+01
  -6.410338e+01   3.665202e+01
  -1.586084e+02   1.922824e+00
  -1.454240e+02  -5.163819e+01
  -1.748782e+01  -8.854219e+01
   1.212002e+02  -7.460462e+01
   1.480935e+02  -1.439015e+01
   4.980167e+01   4.028969e+01
  -6.201562e+01   3.672321e+01
  -7.737703e+01  -2.014275e+01
  -5.563449e+00  -6.951203e+01
   5.953081e+01  -5.776035e+01
   6.440355e+01   3.534983e+00
   4.252777e+01   5.204354e+01
   4.246576e+01   4.331806e+01
   6.260260e+01   3.108145e+00
   6.725494e+01   1.058110e+00
   3.376122e+01   6.846284e+01
  -3.583448e+01   1.468129e+02
  -1.185365e+02   1.415513e+02
  -1.649261e+02   3.183356e+01
  -1.231260e+02  -9.348223e+01
  -5.947379e+00  -1.275453e+02
   8.695371e+01  -6.065730e+01
   6.013402e+01   1.669407e+01
  -6.047259e+01   2.017185e+01
  -1.401404e+02  -4.541313e+01
  -7.735496e+01  -1.102386e+02
   8.247956e+01  -1.150205e+02
   1.953828e+02  -5.322575e+01
   1.669583e+02   3.480852e+01
   3.889137e+01   8.959478e+01
  -6.240442e+01   7.326057e+01
  -5.102728e+01   8.588984e+00
   3.887334e+01  -2.695531e+01
   9.218649e+01   2.327548e+01
   3.231881e+01   1.208669e+02
  -9.602798e+01   1.560545e+02
  -1.728023e+02   6.116118e+01
  -1.279346e+02  -1.046970e+02
  -6.990417e+00  -2.020512e+02
   8.957198e+01  -1.463388e+02
   1.062233e+02   7.680930e+00
   6.080371e+01   1.207758e+02
  -1.274956e+00   1.089675e+02
  -4.575980e+01   2.064907e+01
  -5.359660e+01  -3.234218e+01
  -2.790612e+01  -9.258872e+00
  -4.037454e+00   2.141602e+01
  -1.927364e+01  -1.454426e+01
  -5.560062e+01  -9.038124e+01
  -4.346313e+01  -1.126141e+02
   4.697383e+01  -4.650487e+01
   1.414874e+02   4.152849e+01
   1.331301e+02   7.388814e+01
   1.718219e+01   5.045145e+01
  -9.104124e+01   2.109835e+01
  -8.999850e+01   7.205520e+00
  -9.469344e+00  -6.659758e+00
   4.034852e+01  -2.210649e+01
   1.381978e+01  -1.910972e+01
  -2.251233e+01   9.389994e-01
   6.516518e+00   1.022565e+01
   7.658422e+01   6.339818e+00
   9.186431e+01   2.625952e+01
   4.711179e+00   8.161989e+01
  -1.242214e+02   1.137665e+02
  -1.892339e+02   5.556938e+01
  -1.412487e+02  -7.208432e+01
  -2.254168e+01  -1.659584e+02
   8.267347e+01  -1.508021e+02
   1.166733e+02  -5.666301e+01
   8.138952e+01   2.388092e+01
   2.424527e+01   3.627362e+01
  -3.930853e+00   8.269420e+00
   1.014997e+01   3.672079e+00
   3.382429e+01   4.654346e+01
   2.267397e+01   9.193590e+01
  -3.087953e+01   7.254334e+01
  -8.296369e+01  -2.055356e+01
  -7.660112e+01  -1.121874e+02
  -1.283398e+00  -1.140842e+02
   8.527404e+01  -2.127078e+01
   1.032002e+02   8.004274e+01
   2.994325e+01   1.055539e+02
  -6.863558e+01   5.407730e+01
  -9.821520e+01  -1.382345e+01
  -3.824399e+01  -5.030561e+01
   3.331850e+01  -5.032674e+01
   3.053007e+01  -2.802376e+01
  -3.571138e+01  -5.683197e-01
  -7.062629e+01   6.127377e+00
  -1.454027e+01  -2.509545e+01
   8.114184e+01  -6.648495e+01
   1.170673e+02  -5.913173e+01
   6.324402e+01   1.280530e+01
  -1.798742e+01   8.456144e+01
  -5.446605e+01   7.924734e+01
  -3.641165e+01   3.135179e+00
   4.282847e-01  -5.797757e+01
   2.726648e+01  -4.193580e+01
   3.642213e+01   2.095099e+01
   2.562189e+01   5.526569e+01
  -3.775875e+00   3.187746e+01
  -3.346308e+01  -9.686365e+00
  -3.969448e+01  -2.107959e+01
  -2.094150e+01  -8.529820e-01
   4.806315e-02   1.315404e+01
   6.953052e+00  -4.763505e+00
   8.654657e+00  -3.767784e+01
   1.966820e+01  -4.403994e+01
   3.358122e+01  -5.705389e+00
   2.842731e+01   4.708258e+01
  -5.146849e+00   6.177567e+01
  -4.588763e+01   1.960830e+01
  -5.541999e+01  -4.144957e+01
  -1.276002e+01  -6.489537e+01
   5.589441e+01  -3.368236e+01
   8.932379e+01   1.745032e+01
   4.918012e+01   4.587660e+01
  -2.965518e+01   4.060539e+01
  -6.607133e+01   1.979289e+01
  -2.419699e+01   3.955221e+00
   3.906950e+01   3.490548e+00
   3.883726e+01   1.800069e+01
  -3.271117e+01   3.216698e+01
  -9.491662e+01   1.817450e+01
