
 $NMID
 id='ANONYMOUS ', fmtdat='(2E16.6)'
 volume=1.0
 tramp=1.0
 $END
   3.805312e+03  -8.407893e+01
   2.103236e+03   2.266617e+03
  -6.584106e+02   2.406252e+03
  -1.912082e+03   6.282170e+02
  -8.861009e+02  -6.937667e+02
   5.954720e+02  -6.376243e+02
   8.678384e+02   4.110408e+02
   2.984362e+01   9.518675e+02
  -7.512470e+02   6.962534e+02
  -8.556620e+02  -6.984160e+01
  -3.774061e+02  -7.673312e+02
   2.685066e+02  -8.213105e+02
   6.027024e+02  -6.742495e+01
   3.402887e+02   6.688589e+02
  -2.485550e+02   6.899509e+02
  -5.451692e+02  -3.181513e+01
  -2.190301e+02  -6.198822e+02
   3.367707e+02  -5.785529e+02
   5.169987e+02  -3.902694e+01
   3.124021e+02   3.381356e+02
   3.029397e-01   3.667074e+02
  -2.034356e+02   2.073212e+02
  -1.840936e+02   8.018013e+00
   9.939083e+01  -8.345775e+01
   3.487078e+02   1.084409e+02
   1.894659e+02   3.638520e+02
  -3.943656e+02   3.744491e+02
  -7.418263e+02  -4.926273e+01
  -3.852565e+02  -4.807204e+02
   3.362577e+02  -4.332910e+02
   6.443545e+02   3.065660e+01
   3.090041e+02   4.204098e+02
  -2.407635e+02   4.563664e+02
  -5.015035e+02   1.803979e+02
  -3.644251e+02  -2.070917e+02
  -5.317120e+01  -4.201352e+02
   1.875615e+02  -2.574611e+02
   1.561277e+02   1.884955e+02
  -1.513114e+02   4.003743e+02
  -4.105057e+02  -1.491305e+01
  -2.236574e+02  -5.871577e+02
   2.823131e+02  -6.126342e+02
   5.358113e+02   3.556821e+00
   2.210878e+02   4.923951e+02
  -2.765230e+02   2.700694e+02
  -3.496087e+02  -3.033513e+02
   6.823675e+01  -4.833708e+02
   4.950384e+02  -1.057198e+02
   5.165833e+02   3.695107e+02
   1.296472e+02   5.042589e+02
  -3.452149e+02   2.829016e+02
  -5.476374e+02  -7.996952e+01
  -3.141863e+02  -3.385947e+02
   1.467263e+02  -3.174141e+02
   3.945194e+02  -4.477034e+01
   2.105368e+02   1.783716e+02
  -1.119310e+02   9.568822e+01
  -1.311259e+02  -1.450300e+02
   1.531768e+02  -1.749603e+02
   3.228893e+02   7.165801e+01
   1.353588e+02   2.835826e+02
  -1.828821e+02   2.373604e+02
  -2.968074e+02   5.294723e+01
  -1.675147e+02  -8.651316e+01
   3.188556e+01  -1.851041e+02
   1.918377e+02  -2.591604e+02
   2.833457e+02  -1.764131e+02
   2.485930e+02   1.129021e+02
   7.478352e+01   3.687097e+02
  -9.647501e+01   3.345531e+02
  -1.157565e+02   1.065078e+02
  -3.801113e+01  -7.078947e+00
  -4.190493e+01   6.768111e+01
  -1.588058e+02   1.047457e+02
  -2.311437e+02  -4.401931e+01
  -1.399070e+02  -2.275812e+02
   5.058714e+01  -2.208523e+02
   1.896719e+02  -1.668680e+01
   1.750227e+02   2.002423e+02
  -4.324401e-01   2.534657e+02
  -2.263071e+02   1.045269e+02
  -3.136136e+02  -1.456176e+02
  -1.628927e+02  -3.066958e+02
   8.872154e+01  -2.655080e+02
   1.999414e+02  -9.980775e+01
   1.309836e+02  -4.314697e-01
   8.366109e+01  -3.269868e+01
   2.008821e+02  -6.121498e+01
   3.460297e+02   5.273040e+01
   2.821128e+02   2.511279e+02
  -6.388367e+00   3.810357e+02
  -3.084946e+02   3.467761e+02
  -4.127202e+02   1.685611e+02
  -2.847216e+02  -7.315751e+01
  -5.035367e+01  -2.450488e+02
   1.054206e+02  -2.209498e+02
   7.012104e+01  -3.378288e+01
  -9.088351e+01   9.244956e+01
  -1.703605e+02  -1.881007e-01
  -4.801661e+01  -1.689933e+02
   1.377026e+02  -1.541277e+02
   1.582047e+02   4.977026e+01
  -1.191177e+01   1.698556e+02
  -1.709167e+02   3.082260e+01
  -1.426987e+02  -2.171125e+02
   2.905304e+01  -3.034578e+02
   1.991805e+02  -1.616936e+02
   2.746910e+02   5.933735e+01
   2.297415e+02   2.025747e+02
   7.802564e+01   2.164373e+02
  -9.326229e+01   1.280638e+02
  -1.461537e+02   1.408178e+01
  -4.532949e+01  -2.728112e+01
   6.323285e+01   3.548971e+01
   2.686951e+01   1.104774e+02
  -1.069497e+02   8.888266e+01
  -1.548828e+02  -8.863923e+00
  -5.179899e+01  -6.230205e+01
   6.703042e+01  -1.652837e+01
   4.710722e+01   5.859874e+01
  -1.021521e+02   7.144139e+01
  -2.347459e+02   2.012480e+00
  -2.216139e+02  -1.126709e+02
  -5.474378e+01  -2.123357e+02
   1.507729e+02  -2.233988e+02
   2.389005e+02  -1.117537e+02
   1.463728e+02   4.258105e+01
  -1.953154e+01   9.472188e+01
  -7.811246e+01   6.640734e+00
   2.758555e+01  -8.963532e+01
   1.680169e+02  -5.287849e+01
   1.835061e+02   8.817935e+01
   6.043996e+01   1.794753e+02
  -7.928106e+01   1.365751e+02
  -1.229965e+02   2.688624e+01
  -6.356384e+01  -3.376272e+01
   1.857388e+01  -3.954499e+00
   3.001138e+01   6.568333e+01
  -5.706562e+01   9.110164e+01
  -1.629020e+02   2.353335e+01
  -1.606951e+02  -1.031343e+02
  -1.814520e+01  -1.842084e+02
   1.411232e+02  -1.387710e+02
   1.673285e+02  -3.402426e+00
   5.622974e+01   1.000498e+02
  -5.761655e+01   9.630724e+01
  -7.237333e+01   2.725642e+01
  -1.822229e+01  -2.065603e+01
   1.399421e+01  -1.627480e+01
  -1.190956e+01   2.467007e+00
  -5.864259e+01  -1.284659e+01
  -6.887621e+01  -7.128735e+01
  -7.954264e+00  -1.306566e+02
   1.069035e+02  -1.253084e+02
   1.949141e+02  -2.059374e+01
   1.685675e+02   1.261604e+02
   3.424448e+01   2.000096e+02
  -9.348488e+01   1.432502e+02
  -1.152624e+02   2.256248e+01
  -5.867759e+01  -4.813063e+01
  -2.336181e+01  -3.193810e+01
  -4.514235e+01   7.821141e+00
  -6.592910e+01   2.760386e+00
  -3.082271e+01  -4.121977e+01
   3.929274e+01  -6.937053e+01
   8.467215e+01  -4.125871e+01
   6.685697e+01   3.122415e+01
  -1.526035e+01   9.046845e+01
  -1.170379e+02   6.995275e+01
  -1.624711e+02  -4.248473e+01
  -8.425045e+01  -1.678374e+02
   8.668178e+01  -1.914854e+02
   2.222899e+02  -8.078883e+01
   2.169497e+02   7.222162e+01
   9.425184e+01   1.483764e+02
  -3.171293e+01   1.241788e+02
  -8.071733e+01   7.142132e+01
  -6.915603e+01   5.904026e+01
  -5.777511e+01   7.609798e+01
  -7.784802e+01   6.110901e+01
  -1.074760e+02  -1.956720e+01
  -9.901311e+01  -1.299436e+02
  -2.463481e+01  -1.911191e+02
   8.471215e+01  -1.463579e+02
   1.496456e+02  -1.754753e+01
   1.151260e+02   1.040672e+02
   1.541461e+01   1.359438e+02
  -5.628077e+01   7.772427e+01
  -4.921884e+01   4.201555e-01
  -4.430091e+00  -3.415880e+01
   5.914121e+00  -2.698545e+01
  -3.261805e+01  -1.582644e+01
  -6.554408e+01  -2.172485e+01
  -3.553212e+01  -3.319303e+01
   5.279011e+01  -2.904381e+01
   1.293097e+02  -6.042244e-01
   1.184461e+02   4.191422e+01
   1.422240e+01   7.127331e+01
  -9.926238e+01   6.072252e+01
  -1.218292e+02   1.256600e+01
  -4.150850e+01  -3.240308e+01
   5.060499e+01  -3.085375e+01
   6.372762e+01   1.522969e+01
   4.986905e+00   5.642592e+01
  -4.852737e+01   4.783710e+01
  -5.273802e+01  -2.389511e+00
  -3.471226e+01  -4.276252e+01
  -3.488952e+01  -3.557897e+01
  -5.183267e+01  -1.963943e+00
  -5.581540e+01  -2.564674e-01
  -2.768770e+01  -5.636045e+01
   2.999693e+01  -1.211453e+02
   9.770822e+01  -1.163819e+02
   1.351663e+02  -2.534773e+01
   1.002347e+02   7.762457e+01
   4.113002e+00   1.045625e+02
  -7.137960e+01   4.887152e+01
  -4.904958e+01  -1.392567e+01
   5.003710e+01  -1.601743e+01
   1.148607e+02   3.803017e+01
   6.312489e+01   9.038495e+01
  -6.781504e+01   9.349247e+01
  -1.605931e+02   4.300271e+01
  -1.373201e+02  -2.842113e+01
  -3.182483e+01  -7.337185e+01
   5.212491e+01  -6.016255e+01
   4.282010e+01  -6.886024e+00
  -3.196788e+01   2.234361e+01
  -7.637232e+01  -1.941512e+01
  -2.682590e+01  -1.003575e+02
   7.973778e+01  -1.290079e+02
   1.432947e+02  -4.973492e+01
   1.057527e+02   8.732280e+01
   5.674634e+00   1.670456e+02
  -7.348716e+01   1.203078e+02
  -8.698956e+01  -6.724936e+00
  -4.985822e+01  -9.942149e+01
   7.596680e-01  -8.907618e+01
   3.744024e+01  -1.615545e+01
   4.445307e+01   2.743043e+01
   2.340191e+01   8.189542e+00
   2.863997e+00  -1.743520e+01
   1.457411e+01   1.198153e+01
   4.475962e+01   7.429382e+01
   3.575183e+01   9.232090e+01
  -3.832634e+01   3.758991e+01
  -1.165013e+02  -3.482860e+01
  -1.099485e+02  -6.115551e+01
  -1.376466e+01  -4.168429e+01
   7.623502e+01  -1.751187e+01
   7.501879e+01  -5.805269e+00
   7.511711e+00   6.048910e+00
  -3.391295e+01   1.860009e+01
  -1.139287e+01   1.567947e+01
   1.893077e+01  -9.920269e-01
  -5.633443e+00  -8.283054e+00
  -6.395099e+01  -4.972150e+00
  -7.600187e+01  -2.195777e+01
  -3.176842e+00  -6.832203e+01
   1.032396e+02  -9.451174e+01
   1.560801e+02  -4.550809e+01
   1.163129e+02   6.027110e+01
   1.884013e+01   1.374030e+02
  -6.799447e+01   1.244275e+02
  -9.683466e+01   4.661341e+01
  -6.818038e+01  -1.993691e+01
  -2.029267e+01  -3.056346e+01
   4.120091e+00  -7.699157e+00
  -7.190434e+00  -3.557438e+00
  -2.735481e+01  -3.817141e+01
  -1.858627e+01  -7.511789e+01
   2.574470e+01  -5.920499e+01
   6.895323e+01   1.728953e+01
   6.347049e+01   9.292296e+01
   8.383643e-01   9.472266e+01
  -7.105598e+01   1.816189e+01
  -8.579322e+01  -6.581343e+01
  -2.504680e+01  -8.731988e+01
   5.639955e+01  -4.494571e+01
   8.094197e+01   1.118810e+01
   3.167427e+01   4.143852e+01
  -2.700798e+01   4.155278e+01
  -2.452936e+01   2.350649e+01
   2.947942e+01   9.986440e-01
   5.721347e+01  -4.803183e+00
   1.094360e+01   2.042870e+01
  -6.669684e+01   5.441353e+01
  -9.558403e+01   4.892993e+01
  -5.181440e+01  -1.002433e+01
   1.417403e+01  -6.959773e+01
   4.449898e+01  -6.587054e+01
   3.069093e+01  -2.908673e+00
   4.623262e-01   4.844456e+01
  -2.273977e+01   3.583190e+01
  -3.109313e+01  -1.638901e+01
  -2.182089e+01  -4.528845e+01
   3.188383e+00  -2.649219e+01
   2.727101e+01   7.615190e+00
   3.172927e+01   1.661999e+01
   1.675574e+01  -1.394347e-01
   7.699021e-01  -1.090793e+01
  -4.723761e+00   4.623613e+00
  -7.207879e+00   3.154191e+01
  -1.706863e+01   3.593977e+01
  -2.816016e+01   3.648729e+00
  -2.272162e+01  -3.936454e+01
   5.217167e+00  -5.057089e+01
   3.790166e+01  -1.529663e+01
   4.504942e+01   3.469486e+01
   1.006875e+01   5.339203e+01
  -4.582624e+01   2.734633e+01
  -7.322467e+01  -1.484014e+01
  -4.052486e+01  -3.785440e+01
   2.422563e+01  -3.327299e+01
   5.448430e+01  -1.625645e+01
   2.018664e+01  -3.526397e+00
  -3.205068e+01  -3.150475e+00
  -3.215735e+01  -1.498963e+01
   2.706469e+01  -2.634589e+01
   7.866512e+01  -1.461588e+01
