
 $NMID
 id='ANONYMOUS ', fmtdat='(2E16.6)'
 volume=1.0
 tramp=1.0
 $END
  -3.656691e+03   6.696695e+01
  -2.089526e+03  -2.221446e+03
   6.079340e+02  -2.302164e+03
   1.855656e+03  -7.271000e+02
   7.171859e+02   6.997570e+02
  -5.548050e+02   5.608030e+02
  -7.789174e+02  -3.215013e+02
  -3.875519e+01  -9.261181e+02
   7.425182e+02  -6.746015e+02
   8.525279e+02   9.243940e+01
   3.467931e+02   6.995415e+02
  -2.285461e+02   7.952723e+02
  -5.725898e+02   9.034304e+01
  -3.304288e+02  -6.625473e+02
   2.185536e+02  -6.343814e+02
   5.069998e+02   7.977936e+00
   2.328195e+02   5.988069e+02
  -2.814489e+02   5.469057e+02
  -4.894594e+02   3.861853e+01
  -2.944080e+02  -3.067263e+02
  -1.715788e+00  -3.688894e+02
   2.383484e+02  -2.269466e+02
   1.937274e+02  -2.097910e+01
  -7.734634e+01   1.130270e+02
  -3.428612e+02  -7.314212e+01
  -1.923348e+02  -3.380182e+02
   3.765218e+02  -3.577502e+02
   7.319603e+02   4.791891e+01
   3.677796e+02   4.595011e+02
  -3.408083e+02   4.057907e+02
  -6.316676e+02  -3.216932e+01
  -3.021439e+02  -3.984999e+02
   2.369370e+02  -4.485233e+02
   4.920981e+02  -1.743495e+02
   3.508202e+02   1.952404e+02
   6.366830e+01   4.049343e+02
  -1.715902e+02   2.539171e+02
  -1.590727e+02  -1.780860e+02
   1.324277e+02  -3.836828e+02
   3.940241e+02   1.847218e+01
   2.190726e+02   5.818846e+02
  -2.812297e+02   6.091819e+02
  -5.224235e+02  -9.698101e+00
  -2.215476e+02  -4.935498e+02
   2.724696e+02  -2.721517e+02
   3.461802e+02   3.070353e+02
  -6.797409e+01   4.887452e+02
  -4.952297e+02   1.083315e+02
  -5.140128e+02  -3.670209e+02
  -1.300083e+02  -5.059684e+02
   3.378214e+02  -2.809933e+02
   5.343256e+02   7.843100e+01
   3.076808e+02   3.343858e+02
  -1.434821e+02   3.162881e+02
  -3.870397e+02   4.862726e+01
  -2.036402e+02  -1.720636e+02
   1.143338e+02  -9.502094e+01
   1.301191e+02   1.394991e+02
  -1.530313e+02   1.727453e+02
  -3.180383e+02  -6.399679e+01
  -1.285456e+02  -2.689966e+02
   1.837286e+02  -2.235910e+02
   2.898303e+02  -4.598525e+01
   1.593877e+02   8.582190e+01
  -3.511751e+01   1.802463e+02
  -1.906738e+02   2.548442e+02
  -2.806544e+02   1.749434e+02
  -2.450605e+02  -1.109859e+02
  -7.237419e+01  -3.633055e+02
   9.457717e+01  -3.280572e+02
   1.093212e+02  -1.042753e+02
   3.253401e+01   2.563732e+00
   4.161710e+01  -7.271718e+01
   1.605727e+02  -1.033910e+02
   2.284864e+02   4.717941e+01
   1.336502e+02   2.240600e+02
  -5.280874e+01   2.105840e+02
  -1.833328e+02   9.971636e+00
  -1.681168e+02  -1.950133e+02
  -2.049848e+00  -2.474105e+02
   2.189017e+02  -1.066940e+02
   3.112709e+02   1.347228e+02
   1.671768e+02   2.988920e+02
  -8.311660e+01   2.650498e+02
  -1.997153e+02   9.996802e+01
  -1.293816e+02  -5.445881e+00
  -7.968681e+01   2.666625e+01
  -1.929639e+02   5.930841e+01
  -3.408067e+02  -4.914710e+01
  -2.795445e+02  -2.463535e+02
   6.723430e+00  -3.774006e+02
   3.057439e+02  -3.461084e+02
   4.074408e+02  -1.676259e+02
   2.811168e+02   7.309022e+01
   5.197023e+01   2.425814e+02
  -1.018453e+02   2.181521e+02
  -6.969657e+01   3.274061e+01
   8.974846e+01  -9.075006e+01
   1.671389e+02   2.002782e+00
   4.514575e+01   1.659818e+02
  -1.376546e+02   1.500770e+02
  -1.561909e+02  -4.837084e+01
   1.187096e+01  -1.648684e+02
   1.667240e+02  -3.045057e+01
   1.391523e+02   2.090682e+02
  -2.696946e+01   2.941366e+02
  -1.937617e+02   1.588777e+02
  -2.715837e+02  -5.348105e+01
  -2.318377e+02  -1.964708e+02
  -8.155750e+01  -2.161446e+02
   9.140767e+01  -1.329317e+02
   1.461949e+02  -1.946223e+01
   4.692684e+01   2.389020e+01
  -6.047540e+01  -3.624184e+01
  -2.373113e+01  -1.089092e+02
   1.075610e+02  -8.593167e+01
   1.528209e+02   1.069760e+01
   5.005104e+01   6.180241e+01
  -6.589459e+01   1.512809e+01
  -4.481037e+01  -5.832542e+01
   1.011532e+02  -6.908950e+01
   2.295048e+02  -2.874372e-02
   2.161640e+02   1.112842e+02
   5.343416e+01   2.075992e+02
  -1.477591e+02   2.180561e+02
  -2.353453e+02   1.094674e+02
  -1.455179e+02  -4.092163e+01
   1.805325e+01  -9.213727e+01
   7.715557e+01  -6.600154e+00
  -2.643170e+01   8.645700e+01
  -1.656721e+02   4.951160e+01
  -1.818245e+02  -8.853825e+01
  -5.983889e+01  -1.769275e+02
   7.927281e+01  -1.340040e+02
   1.226919e+02  -2.631381e+01
   6.347242e+01   3.274641e+01
  -1.776167e+01   3.367163e+00
  -2.851677e+01  -6.458446e+01
   5.757230e+01  -8.933219e+01
   1.611507e+02  -2.254220e+01
   1.579138e+02   1.025390e+02
   1.766838e+01   1.824448e+02
  -1.385936e+02   1.374642e+02
  -1.642118e+02   3.409742e+00
  -5.540534e+01  -9.806472e+01
   5.611601e+01  -9.365187e+01
   7.007104e+01  -2.565443e+01
   1.729969e+01   1.979850e+01
  -1.363818e+01   1.351313e+01
   1.279896e+01  -4.474605e+00
   5.857172e+01   1.320221e+01
   6.816223e+01   7.277057e+01
   7.330976e+00   1.307696e+02
  -1.058969e+02   1.234471e+02
  -1.926563e+02   1.916300e+01
  -1.662501e+02  -1.256461e+02
  -3.434380e+01  -1.978551e+02
   9.116503e+01  -1.416680e+02
   1.131168e+02  -2.257188e+01
   5.815250e+01   4.694000e+01
   2.370608e+01   3.015000e+01
   4.606907e+01  -8.939337e+00
   6.613675e+01  -2.480864e+00
   3.093497e+01   4.156289e+01
  -3.889131e+01   6.923927e+01
  -8.424978e+01   4.119301e+01
  -6.679515e+01  -3.068453e+01
   1.450885e+01  -8.943793e+01
   1.155711e+02  -6.906409e+01
   1.609485e+02   4.210316e+01
   8.325452e+01   1.649707e+02
  -8.576712e+01   1.885274e+02
  -2.196135e+02   7.920788e+01
  -2.136247e+02  -7.162223e+01
  -9.227065e+01  -1.465181e+02
   3.146147e+01  -1.218714e+02
   7.965946e+01  -7.007847e+01
   6.834522e+01  -5.826216e+01
   5.819890e+01  -7.510099e+01
   7.780488e+01  -5.977761e+01
   1.061435e+02   1.997216e+01
   9.733765e+01   1.285525e+02
   2.441285e+01   1.887893e+02
  -8.300234e+01   1.448264e+02
  -1.477323e+02   1.795359e+01
  -1.145640e+02  -1.022219e+02
  -1.575950e+01  -1.341810e+02
   5.590947e+01  -7.695428e+01
   4.884705e+01  -5.978807e-01
   3.750142e+00   3.343198e+01
  -6.683055e+00   2.578548e+01
   3.225594e+01   1.468622e+01
   6.569425e+01   2.130318e+01
   3.603158e+01   3.345349e+01
  -5.201494e+01   2.922113e+01
  -1.280843e+02   4.385093e-01
  -1.171826e+02  -4.165872e+01
  -1.418607e+01  -7.040746e+01
   9.766737e+01  -5.985676e+01
   1.197257e+02  -1.249334e+01
   4.095465e+01   3.195854e+01
  -4.938832e+01   3.059386e+01
  -6.256748e+01  -1.502362e+01
  -5.006958e+00  -5.630839e+01
   4.783666e+01  -4.781191e+01
   5.233947e+01   2.675343e+00
   3.474135e+01   4.309803e+01
   3.444783e+01   3.594905e+01
   5.055349e+01   2.237258e+00
   5.418763e+01   3.237951e-01
   2.684402e+01   5.601810e+01
  -2.985754e+01   1.198422e+02
  -9.703855e+01   1.144430e+02
  -1.344401e+02   2.392200e+01
  -9.981068e+01  -7.742816e+01
  -4.239421e+00  -1.036641e+02
   7.121773e+01  -4.841712e+01
   4.930040e+01   1.345944e+01
  -4.876969e+01   1.547630e+01
  -1.133068e+02  -3.736145e+01
  -6.232934e+01  -8.875825e+01
   6.688129e+01  -9.228763e+01
   1.581945e+02  -4.305476e+01
   1.352717e+02   2.747749e+01
   3.161568e+01   7.248775e+01
  -5.057504e+01   5.985727e+01
  -4.112774e+01   7.246172e+00
   3.208100e+01  -2.200032e+01
   7.503547e+01   1.913788e+01
   2.567494e+01   9.928861e+01
  -7.920981e+01   1.278043e+02
  -1.416611e+02   4.964174e+01
  -1.044905e+02  -8.607097e+01
  -5.675589e+00  -1.652188e+02
   7.266537e+01  -1.191809e+02
   8.603216e+01   6.287960e+00
   4.930252e+01   9.793607e+01
  -8.917191e-01   8.791977e+01
  -3.718980e+01   1.620398e+01
  -4.400502e+01  -2.643629e+01
  -2.307984e+01  -7.522676e+00
  -2.820149e+00   1.707036e+01
  -1.448673e+01  -1.255247e+01
  -4.425348e+01  -7.392339e+01
  -3.525397e+01  -9.118363e+01
   3.783650e+01  -3.698761e+01
   1.152344e+02   3.418618e+01
   1.089368e+02   6.015278e+01
   1.418452e+01   4.150424e+01
  -7.468332e+01   1.811849e+01
  -7.405753e+01   6.274353e+00
  -7.834672e+00  -6.027773e+00
   3.299922e+01  -1.855112e+01
   1.110592e+01  -1.523413e+01
  -1.870475e+01   1.114813e+00
   5.372677e+00   7.976261e+00
   6.312991e+01   4.723165e+00
   7.540298e+01   2.217165e+01
   3.517400e+00   6.826686e+01
  -1.021321e+02   9.364907e+01
  -1.551256e+02   4.461364e+01
  -1.159032e+02  -5.994950e+01
  -1.904989e+01  -1.359206e+02
   6.718620e+01  -1.232329e+02
   9.589463e+01  -4.663884e+01
   6.768943e+01   1.906995e+01
   2.058850e+01   3.002003e+01
  -3.654468e+00   7.696501e+00
   7.203527e+00   3.305087e+00
   2.696811e+01   3.727557e+01
   1.870098e+01   7.389715e+01
  -2.461950e+01   5.880504e+01
  -6.735699e+01  -1.651861e+01
  -6.248810e+01  -9.136844e+01
  -1.003941e+00  -9.320604e+01
   6.994995e+01  -1.755392e+01
   8.454868e+01   6.521902e+01
   2.443951e+01   8.602060e+01
  -5.597556e+01   4.375725e+01
  -7.989989e+01  -1.156238e+01
  -3.088035e+01  -4.077707e+01
   2.721496e+01  -4.039909e+01
   2.459005e+01  -2.265399e+01
  -2.917125e+01  -1.089595e+00
  -5.702995e+01   4.079739e+00
  -1.119838e+01  -2.057035e+01
   6.602103e+01  -5.355106e+01
   9.483141e+01  -4.779056e+01
   5.140274e+01   1.000203e+01
  -1.407146e+01   6.849457e+01
  -4.413565e+01   6.495101e+01
  -3.037259e+01   3.167017e+00
  -5.673920e-01  -4.763468e+01
   2.214661e+01  -3.556465e+01
   3.059217e+01   1.597285e+01
   2.154126e+01   4.500042e+01
  -3.244889e+00   2.644765e+01
  -2.715222e+01  -7.856859e+00
  -3.153534e+01  -1.759795e+01
  -1.630979e+01  -6.692776e-01
  -4.621887e-01   1.112913e+01
   4.843834e+00  -3.866545e+00
   7.143615e+00  -3.124372e+01
   1.709404e+01  -3.618056e+01
   2.827879e+01  -3.996976e+00
   2.272165e+01   3.944329e+01
  -5.143191e+00   5.077081e+01
  -3.773352e+01   1.537080e+01
  -4.477957e+01  -3.471865e+01
  -1.005634e+01  -5.313342e+01
   4.534673e+01  -2.705423e+01
   7.265939e+01   1.456921e+01
   4.039950e+01   3.715387e+01
  -2.378703e+01   3.271908e+01
  -5.389210e+01   1.624293e+01
  -1.979787e+01   3.683885e+00
   3.197752e+01   3.040877e+00
   3.207121e+01   1.464828e+01
  -2.665279e+01   2.630824e+01
  -7.791236e+01   1.502172e+01
