
 $NMID
 id='ANONYMOUS ', fmtdat='(2E16.6)'
 volume=1.0
 tramp=1.0
 $END
  -3.334874e+03  -3.060736e+01
  -1.970930e+03  -2.139424e+03
   5.533107e+02  -2.352696e+03
   1.614969e+03  -6.264519e+02
   6.860568e+02   6.263434e+02
  -6.069246e+02   4.928102e+02
  -7.514956e+02  -2.865213e+02
  -1.346122e+01  -9.394329e+02
   7.084109e+02  -5.738037e+02
   7.320876e+02   4.876394e+01
   3.682092e+02   6.382738e+02
  -1.826389e+02   6.978118e+02
  -5.620058e+02   7.574205e+01
  -3.314415e+02  -5.998797e+02
   2.205552e+02  -6.029025e+02
   4.929662e+02   2.187450e+01
   2.011478e+02   5.861357e+02
  -2.784484e+02   4.980833e+02
  -4.701808e+02   5.418578e+01
  -3.170331e+02  -3.081209e+02
  -6.483886e+00  -3.362709e+02
   2.070362e+02  -1.955401e+02
   1.557497e+02   3.731216e+00
  -1.127971e+02   8.698467e+01
  -3.225860e+02  -5.967860e+01
  -1.671209e+02  -3.456021e+02
   3.551164e+02  -3.548163e+02
   6.662430e+02   3.305932e+01
   3.459957e+02   4.343227e+02
  -2.884354e+02   3.998065e+02
  -5.920452e+02  -2.530883e+01
  -2.798921e+02  -3.936671e+02
   2.150337e+02  -4.206914e+02
   4.440888e+02  -1.638208e+02
   3.469810e+02   1.863901e+02
   6.470698e+01   3.820197e+02
  -1.569244e+02   2.265076e+02
  -1.448805e+02  -1.761852e+02
   1.264946e+02  -3.533626e+02
   3.752819e+02   1.649929e+01
   2.096947e+02   5.632586e+02
  -2.634096e+02   5.771296e+02
  -4.979063e+02  -1.410818e+00
  -2.164667e+02  -4.673205e+02
   2.510420e+02  -2.660582e+02
   3.320550e+02   2.716290e+02
  -5.425205e+01   4.610239e+02
  -4.597982e+02   1.162304e+02
  -4.791709e+02  -3.326391e+02
  -1.236177e+02  -4.720935e+02
   3.113664e+02  -2.673807e+02
   4.987321e+02   7.355149e+01
   2.896138e+02   3.142926e+02
  -1.341213e+02   2.916452e+02
  -3.608921e+02   3.769122e+01
  -1.866397e+02  -1.678367e+02
   1.116882e+02  -8.967069e+01
   1.212572e+02   1.309624e+02
  -1.439662e+02   1.598716e+02
  -2.901698e+02  -5.906682e+01
  -1.061557e+02  -2.439086e+02
   1.780608e+02  -2.018497e+02
   2.613295e+02  -4.692373e+01
   1.374345e+02   6.673382e+01
  -2.831467e+01   1.618167e+02
  -1.632108e+02   2.497742e+02
  -2.570645e+02   1.827936e+02
  -2.363533e+02  -9.865798e+01
  -7.011153e+01  -3.522614e+02
   9.763485e+01  -3.154602e+02
   1.075892e+02  -8.525444e+01
   1.982290e+01   2.263970e+01
   2.257614e+01  -6.303503e+01
   1.455778e+02  -1.103444e+02
   2.223233e+02   3.073743e+01
   1.327022e+02   2.070068e+02
  -5.161328e+01   2.017132e+02
  -1.768198e+02   1.513423e+01
  -1.575088e+02  -1.801231e+02
   1.219013e+00  -2.325780e+02
   2.046084e+02  -1.049309e+02
   2.878934e+02   1.181474e+02
   1.555987e+02   2.767550e+02
  -7.664942e+01   2.478759e+02
  -1.810684e+02   9.418845e+01
  -1.158295e+02  -5.118878e+00
  -6.954592e+01   2.572463e+01
  -1.765705e+02   5.900327e+01
  -3.104396e+02  -3.761365e+01
  -2.609920e+02  -2.211911e+02
  -2.280159e+00  -3.451308e+02
   2.729730e+02  -3.196245e+02
   3.749638e+02  -1.576415e+02
   2.657865e+02   6.652459e+01
   4.901963e+01   2.289891e+02
  -1.018837e+02   2.028587e+02
  -7.095259e+01   2.644718e+01
   8.238130e+01  -8.745934e+01
   1.579007e+02   2.175440e+00
   4.100976e+01   1.603795e+02
  -1.337133e+02   1.415312e+02
  -1.488951e+02  -5.036985e+01
   1.200781e+01  -1.598285e+02
   1.539500e+02  -3.053935e+01
   1.274453e+02   1.941206e+02
  -2.449162e+01   2.716700e+02
  -1.741382e+02   1.476017e+02
  -2.482787e+02  -4.558908e+01
  -2.193484e+02  -1.788148e+02
  -8.353838e+01  -2.041344e+02
   8.479973e+01  -1.308802e+02
   1.438335e+02  -2.036503e+01
   4.967602e+01   2.748998e+01
  -5.825027e+01  -2.736264e+01
  -2.752648e+01  -1.003272e+02
   9.893420e+01  -8.322654e+01
   1.452473e+02   8.171253e+00
   4.833806e+01   5.924220e+01
  -6.335239e+01   1.672390e+01
  -4.505785e+01  -5.350850e+01
   9.296101e+01  -6.566923e+01
   2.148011e+02  -2.360893e+00
   2.032469e+02   1.015920e+02
   5.111560e+01   1.928205e+02
  -1.376032e+02   2.048508e+02
  -2.200687e+02   1.044663e+02
  -1.355459e+02  -3.726711e+01
   1.885480e+01  -8.743648e+01
   7.454780e+01  -8.004723e+00
  -2.355777e+01   8.159082e+01
  -1.557293e+02   5.084459e+01
  -1.721093e+02  -7.707849e+01
  -5.830036e+01  -1.627967e+02
   7.202142e+01  -1.274317e+02
   1.134351e+02  -2.855325e+01
   5.897263e+01   2.936397e+01
  -1.729044e+01   5.497720e+00
  -2.882878e+01  -5.828178e+01
   5.069931e+01  -8.504217e+01
   1.489833e+02  -2.582267e+01
   1.487461e+02   9.164552e+01
   1.923111e+01   1.695919e+02
  -1.279114e+02   1.297361e+02
  -1.537902e+02   4.393647e+00
  -5.243701e+01  -9.216858e+01
   5.360308e+01  -8.946910e+01
   6.801953e+01  -2.495632e+01
   1.669828e+01   1.995163e+01
  -1.536996e+01   1.594891e+01
   7.539947e+00  -2.750917e+00
   5.279661e+01   9.474288e+00
   6.600035e+01   6.205717e+01
   1.227639e+01   1.188260e+02
  -9.500658e+01   1.167358e+02
  -1.794156e+02   2.200270e+01
  -1.575960e+02  -1.138891e+02
  -3.410349e+01  -1.837906e+02
   8.467760e+01  -1.325515e+02
   1.054257e+02  -2.080363e+01
   5.390114e+01   4.298326e+01
   2.184668e+01   2.678259e+01
   4.188438e+01  -9.633645e+00
   6.139420e+01  -4.166353e+00
   2.980547e+01   3.794153e+01
  -3.373865e+01   6.447656e+01
  -7.583675e+01   3.970580e+01
  -6.145691e+01  -2.565627e+01
   1.051450e+01  -8.142529e+01
   1.053925e+02  -6.521955e+01
   1.500508e+02   3.554303e+01
   8.059141e+01   1.509921e+02
  -7.710102e+01   1.770309e+02
  -2.038364e+02   7.824245e+01
  -2.005292e+02  -6.286210e+01
  -8.718674e+01  -1.351486e+02
   2.836990e+01  -1.140576e+02
   7.281818e+01  -6.637417e+01
   6.215667e+01  -5.475715e+01
   5.270124e+01  -7.002722e+01
   7.147259e+01  -5.639778e+01
   9.798024e+01   1.693390e+01
   9.098641e+01   1.177581e+02
   2.500678e+01   1.742880e+02
  -7.427299e+01   1.350440e+02
  -1.359481e+02   1.917233e+01
  -1.077102e+02  -9.173781e+01
  -1.749911e+01  -1.230636e+02
   4.954289e+01  -7.291576e+01
   4.463760e+01  -3.143759e+00
   3.858654e+00   3.015557e+01
  -5.713900e+00   2.493172e+01
   3.028818e+01   1.417894e+01
   6.147033e+01   1.842600e+01
   3.457649e+01   2.973525e+01
  -4.678517e+01   2.824132e+01
  -1.185137e+02   3.446221e+00
  -1.103957e+02  -3.635707e+01
  -1.570222e+01  -6.506160e+01
   8.911203e+01  -5.634611e+01
   1.108053e+02  -1.250702e+01
   3.821542e+01   2.852443e+01
  -4.548904e+01   2.727296e+01
  -5.751411e+01  -1.397743e+01
  -4.620729e+00  -5.057086e+01
   4.320370e+01  -4.270310e+01
   4.675729e+01   1.949663e+00
   3.132176e+01   3.798043e+01
   3.246720e+01   3.200818e+01
   4.763876e+01   1.869556e+00
   5.068570e+01  -3.740922e-01
   2.579338e+01   5.001504e+01
  -2.541463e+01   1.103833e+02
  -8.742591e+01   1.081162e+02
  -1.235810e+02   2.606100e+01
  -9.333716e+01  -6.922679e+01
  -5.270465e+00  -9.559786e+01
   6.504168e+01  -4.562077e+01
   4.508975e+01   1.262533e+01
  -4.613125e+01   1.528918e+01
  -1.059606e+02  -3.374079e+01
  -5.868008e+01  -8.201628e+01
   6.109784e+01  -8.595840e+01
   1.460737e+02  -4.120017e+01
   1.252841e+02   2.411188e+01
   2.999873e+01   6.627297e+01
  -4.588459e+01   5.552119e+01
  -3.796331e+01   7.162489e+00
   2.931947e+01  -2.067595e+01
   6.966660e+01   1.680881e+01
   2.550642e+01   9.153682e+01
  -7.079335e+01   1.193637e+02
  -1.295523e+02   4.821590e+01
  -9.765454e+01  -7.738273e+01
  -8.040782e+00  -1.517598e+02
   6.465761e+01  -1.109343e+02
   7.904433e+01   4.206411e+00
   4.690121e+01   8.946905e+01
   7.252709e-01   8.143954e+01
  -3.373933e+01   1.577757e+01
  -4.071472e+01  -2.410239e+01
  -2.135476e+01  -6.974029e+00
  -2.480080e+00   1.613589e+01
  -1.361748e+01  -1.041387e+01
  -4.190447e+01  -6.704469e+01
  -3.385313e+01  -8.394949e+01
   3.416903e+01  -3.495474e+01
   1.064568e+02   3.040001e+01
   1.011270e+02   5.446572e+01
   1.370222e+01   3.780163e+01
  -6.857642e+01   1.684067e+01
  -6.823547e+01   6.599599e+00
  -7.262660e+00  -4.711783e+00
   3.048967e+01  -1.684168e+01
   1.006008e+01  -1.427635e+01
  -1.784540e+01   1.032662e+00
   4.140335e+00   7.358339e+00
   5.781815e+01   3.482163e+00
   7.005837e+01   1.869395e+01
   4.552366e+00   6.185429e+01
  -9.281675e+01   8.720100e+01
  -1.421219e+02   4.357898e+01
  -1.068999e+02  -5.306730e+01
  -1.877056e+01  -1.244683e+02
   5.977454e+01  -1.139931e+02
   8.638997e+01  -4.399222e+01
   6.159884e+01   1.648609e+01
   1.911054e+01   2.670040e+01
  -3.260297e+00   6.180923e+00
   6.493074e+00   2.225752e+00
   2.533764e+01   3.344833e+01
   1.883932e+01   6.742855e+01
  -2.108816e+01   5.408510e+01
  -6.174223e+01  -1.451821e+01
  -5.834687e+01  -8.326390e+01
  -1.579584e+00  -8.542171e+01
   6.454790e+01  -1.640343e+01
   7.850934e+01   5.955761e+01
   2.285826e+01   7.911472e+01
  -5.166147e+01   4.088598e+01
  -7.384528e+01  -9.745334e+00
  -2.869390e+01  -3.729902e+01
   2.490671e+01  -3.793892e+01
   2.253549e+01  -2.166446e+01
  -2.704745e+01  -7.047420e-01
  -5.295195e+01   5.057939e+00
  -1.100067e+01  -1.825313e+01
   6.012728e+01  -5.026049e+01
   8.706709e+01  -4.609077e+01
   4.748821e+01   7.891942e+00
  -1.232462e+01   6.320772e+01
  -3.968864e+01   6.036633e+01
  -2.727622e+01   3.079570e+00
  -5.236965e-01  -4.400530e+01
   2.007381e+01  -3.262970e+01
   2.846439e+01   1.534181e+01
   2.078366e+01   4.199440e+01
  -2.273335e+00   2.460948e+01
  -2.589486e+01  -6.962083e+00
  -3.071556e+01  -1.569103e+01
  -1.582649e+01  -2.618929e-01
   3.623801e-01   1.006873e+01
   5.285032e+00  -3.907657e+00
   6.350569e+00  -2.872880e+01
   1.474823e+01  -3.304374e+01
   2.553364e+01  -3.646286e+00
   2.135485e+01   3.604866e+01
  -4.225647e+00   4.668423e+01
  -3.499902e+01   1.454811e+01
  -4.202028e+01  -3.132881e+01
  -9.958200e+00  -4.857068e+01
   4.148318e+01  -2.522003e+01
   6.667925e+01   1.258876e+01
   3.686330e+01   3.349692e+01
  -2.192245e+01   2.997920e+01
  -4.910454e+01   1.510012e+01
  -1.769053e+01   3.491756e+00
   2.957524e+01   2.707588e+00
   2.913505e+01   1.352721e+01
  -2.478954e+01   2.488794e+01
  -7.177862e+01   1.486598e+01
