
 $NMID
 id='ANONYMOUS ', fmtdat='(2E16.6)'
 volume=1.0
 tramp=1.0
 $END
   3.991611e+03  -6.598769e+00
   2.319101e+03   2.337055e+03
  -6.878583e+02   2.721700e+03
  -1.918702e+03   8.577131e+02
  -7.924541e+02  -6.617508e+02
   6.342662e+02  -5.202232e+02
   8.071376e+02   4.165202e+02
  -9.132757e+00   9.742301e+02
  -8.077852e+02   6.409857e+02
  -8.291924e+02  -1.243860e+02
  -4.173791e+02  -7.008647e+02
   1.983989e+02  -7.940512e+02
   5.506964e+02  -1.376223e+02
   3.780384e+02   6.511727e+02
  -2.439752e+02   6.932563e+02
  -5.370402e+02  -1.499492e+01
  -2.210656e+02  -6.315965e+02
   2.710198e+02  -5.360086e+02
   5.330796e+02  -2.887985e+01
   3.222181e+02   2.988326e+02
  -7.518171e-01   3.750081e+02
  -2.273952e+02   2.267337e+02
  -1.805370e+02   4.931778e+00
   8.659619e+01  -9.431313e+01
   3.541658e+02   7.395919e+01
   1.829412e+02   3.699238e+02
  -4.171447e+02   3.871001e+02
  -7.671807e+02  -4.323966e+01
  -3.863999e+02  -4.888553e+02
   3.325584e+02  -4.432465e+02
   6.662877e+02   2.468549e+01
   3.142974e+02   4.321170e+02
  -2.413752e+02   4.521642e+02
  -4.992392e+02   1.666075e+02
  -3.777844e+02  -2.081127e+02
  -5.632770e+01  -4.266820e+02
   1.964033e+02  -2.616815e+02
   1.741698e+02   1.973689e+02
  -1.455280e+02   4.049700e+02
  -4.263462e+02  -8.780411e+00
  -2.342119e+02  -6.185047e+02
   3.072723e+02  -6.415474e+02
   5.686702e+02   2.013506e+00
   2.365948e+02   5.222983e+02
  -2.880417e+02   3.043658e+02
  -3.609041e+02  -3.107075e+02
   6.285790e+01  -5.133427e+02
   5.084311e+02  -1.257285e+02
   5.275598e+02   3.680601e+02
   1.384729e+02   5.222581e+02
  -3.381226e+02   2.953067e+02
  -5.492822e+02  -8.089792e+01
  -3.224743e+02  -3.524688e+02
   1.465307e+02  -3.255556e+02
   4.038970e+02  -4.133955e+01
   2.136732e+02   1.837424e+02
  -1.176037e+02   9.556564e+01
  -1.353894e+02  -1.439101e+02
   1.517694e+02  -1.714595e+02
   3.146144e+02   6.723107e+01
   1.218544e+02   2.650375e+02
  -1.855381e+02   2.182929e+02
  -2.859151e+02   5.182930e+01
  -1.624727e+02  -7.410006e+01
   2.161086e+01  -1.832357e+02
   1.835677e+02  -2.769356e+02
   2.910511e+02  -1.928422e+02
   2.565544e+02   1.171570e+02
   6.481781e+01   3.809611e+02
  -1.117153e+02   3.304677e+02
  -1.094182e+02   8.995041e+01
  -1.442948e+01  -9.852747e+00
  -3.300821e+01   8.430180e+01
  -1.765280e+02   1.171318e+02
  -2.527189e+02  -5.124300e+01
  -1.417223e+02  -2.415585e+02
   6.179901e+01  -2.238962e+02
   1.959949e+02  -9.907479e+00
   1.726833e+02   2.026413e+02
  -8.473477e-01   2.519825e+02
  -2.249869e+02   1.078379e+02
  -3.186391e+02  -1.343862e+02
  -1.680084e+02  -3.047320e+02
   8.653600e+01  -2.744334e+02
   2.033439e+02  -1.049740e+02
   1.297819e+02   5.760815e+00
   7.726514e+01  -2.440402e+01
   1.938572e+02  -5.954603e+01
   3.457044e+02   4.152752e+01
   2.906072e+02   2.422943e+02
   2.164684e+00   3.854947e+02
  -3.072900e+02   3.621087e+02
  -4.218843e+02   1.778968e+02
  -2.957868e+02  -7.757959e+01
  -5.094639e+01  -2.580352e+02
   1.162945e+02  -2.228242e+02
   7.635722e+01  -2.386292e+01
  -9.713180e+01   9.919637e+01
  -1.775505e+02  -3.622757e+00
  -4.495398e+01  -1.757805e+02
   1.478831e+02  -1.513920e+02
   1.617827e+02   5.920495e+01
  -1.895400e+01   1.748864e+02
  -1.762529e+02   2.996474e+01
  -1.436671e+02  -2.160918e+02
   2.809943e+01  -2.997467e+02
   1.949439e+02  -1.627425e+02
   2.747291e+02   5.041794e+01
   2.392808e+02   1.970201e+02
   8.704271e+01   2.228640e+02
  -9.448253e+01   1.420396e+02
  -1.552180e+02   2.199484e+01
  -5.228785e+01  -2.844621e+01
   6.243635e+01   3.161281e+01
   2.689745e+01   1.087455e+02
  -1.094448e+02   8.790784e+01
  -1.574567e+02  -1.141184e+01
  -5.071221e+01  -6.494954e+01
   7.067817e+01  -1.689272e+01
   5.022318e+01   6.031886e+01
  -1.005490e+02   7.351235e+01
  -2.347907e+02   3.645250e+00
  -2.240214e+02  -1.111211e+02
  -5.829352e+01  -2.116538e+02
   1.491414e+02  -2.236861e+02
   2.406116e+02  -1.117635e+02
   1.482993e+02   4.352609e+01
  -2.140697e+01   9.548926e+01
  -8.278502e+01   5.425042e+00
   2.482473e+01  -9.205969e+01
   1.695998e+02  -5.426510e+01
   1.870100e+02   8.874102e+01
   6.178314e+01   1.809386e+02
  -8.111372e+01   1.373439e+02
  -1.254256e+02   2.590042e+01
  -6.365670e+01  -3.578426e+01
   2.136888e+01  -4.920378e+00
   3.320979e+01   6.764581e+01
  -5.683801e+01   9.612215e+01
  -1.664532e+02   2.812348e+01
  -1.651953e+02  -1.025606e+02
  -2.054097e+01  -1.871918e+02
   1.410865e+02  -1.415324e+02
   1.675223e+02  -3.416872e+00
   5.505928e+01   1.014477e+02
  -5.985868e+01   9.644512e+01
  -7.298237e+01   2.457917e+01
  -1.673709e+01  -2.375360e+01
   1.719862e+01  -1.624420e+01
  -9.171476e+00   6.130828e+00
  -5.941848e+01  -8.132199e+00
  -7.411616e+01  -6.909440e+01
  -1.375471e+01  -1.341919e+02
   1.056395e+02  -1.315004e+02
   1.989604e+02  -2.440515e+01
   1.734009e+02   1.275444e+02
   3.597698e+01   2.041291e+02
  -9.427761e+01   1.455795e+02
  -1.153192e+02   2.082741e+01
  -5.752799e+01  -4.944179e+01
  -2.310697e+01  -3.004168e+01
  -4.618068e+01   1.148860e+01
  -6.730740e+01   5.338531e+00
  -3.296971e+01  -4.238715e+01
   3.630565e+01  -7.264379e+01
   8.379179e+01  -4.488164e+01
   6.996355e+01   2.913440e+01
  -9.309632e+00   9.179340e+01
  -1.158534e+02   7.333528e+01
  -1.668969e+02  -4.053769e+01
  -8.971429e+01  -1.691269e+02
   8.659476e+01  -1.954804e+02
   2.274037e+02  -8.372744e+01
   2.206957e+02   7.212627e+01
   9.420001e+01   1.508873e+02
  -3.323621e+01   1.253775e+02
  -8.123417e+01   7.162181e+01
  -6.815307e+01   5.881600e+01
  -5.734718e+01   7.611349e+01
  -7.787370e+01   6.192325e+01
  -1.076962e+02  -1.822865e+01
  -9.958389e+01  -1.290727e+02
  -2.656656e+01  -1.913685e+02
   8.273663e+01  -1.475014e+02
   1.501543e+02  -1.869931e+01
   1.182717e+02   1.038342e+02
   1.774444e+01   1.372707e+02
  -5.755775e+01   7.999923e+01
  -5.234034e+01   2.067878e+00
  -5.808027e+00  -3.430103e+01
   7.187002e+00  -2.767941e+01
  -3.161923e+01  -1.534877e+01
  -6.705455e+01  -2.040243e+01
  -3.816870e+01  -3.310876e+01
   5.212933e+01  -3.105929e+01
   1.315730e+02  -2.584125e+00
   1.211413e+02   4.229422e+01
   1.483813e+01   7.351439e+01
  -1.002313e+02   6.225025e+01
  -1.223784e+02   1.244564e+01
  -4.134060e+01  -3.284303e+01
   5.019994e+01  -3.044634e+01
   6.296935e+01   1.573899e+01
   5.122113e+00   5.614412e+01
  -4.717148e+01   4.757774e+01
  -5.204953e+01  -1.887731e+00
  -3.590648e+01  -4.165061e+01
  -3.688170e+01  -3.540855e+01
  -5.248638e+01  -2.439234e+00
  -5.495483e+01  -1.844520e-01
  -2.823929e+01  -5.581990e+01
   2.773256e+01  -1.218021e+02
   9.598430e+01  -1.192825e+02
   1.363144e+02  -2.847364e+01
   1.033947e+02   7.690999e+01
   6.545589e+00   1.059747e+02
  -7.164580e+01   5.019800e+01
  -5.035446e+01  -1.430375e+01
   5.011535e+01  -1.710056e+01
   1.167042e+02   3.759312e+01
   6.499399e+01   9.109617e+01
  -6.737666e+01   9.494674e+01
  -1.614783e+02   4.500101e+01
  -1.386337e+02  -2.696645e+01
  -3.307213e+01  -7.315000e+01
   5.073549e+01  -6.140288e+01
   4.177031e+01  -8.320295e+00
  -3.213049e+01   2.252536e+01
  -7.622764e+01  -1.831263e+01
  -2.743543e+01  -1.002875e+02
   7.805747e+01  -1.310158e+02
   1.424236e+02  -5.276338e+01
   1.072567e+02   8.580400e+01
   8.408440e+00   1.678506e+02
  -7.212069e+01   1.222829e+02
  -8.811183e+01  -5.588830e+00
  -5.181525e+01  -9.985394e+01
   1.560508e-01  -9.044959e+01
   3.833484e+01  -1.733587e+01
   4.533020e+01   2.668535e+01
   2.355434e+01   7.449643e+00
   3.442285e+00  -1.792084e+01
   1.650307e+01   1.213586e+01
   4.730865e+01   7.532116e+01
   3.727196e+01   9.420238e+01
  -3.855807e+01   3.960760e+01
  -1.180508e+02  -3.289260e+01
  -1.117163e+02  -5.969330e+01
  -1.534943e+01  -4.129315e+01
   7.508063e+01  -1.837661e+01
   7.476706e+01  -6.888309e+00
   7.872292e+00   5.588932e+00
  -3.353917e+01   1.906409e+01
  -1.124268e+01   1.599218e+01
   1.916295e+01  -9.048028e-01
  -5.263315e+00  -7.621422e+00
  -6.423614e+01  -3.090077e+00
  -7.789229e+01  -1.995226e+01
  -6.098376e+00  -6.795365e+01
   1.010981e+02  -9.661031e+01
   1.558330e+02  -4.877231e+01
   1.178534e+02   5.769263e+01
   2.117918e+01   1.368732e+02
  -6.571732e+01   1.259550e+02
  -9.558232e+01   4.913161e+01
  -6.847929e+01  -1.770501e+01
  -2.165576e+01  -2.926757e+01
   2.771797e+00  -7.168855e+00
  -7.970307e+00  -3.077854e+00
  -2.814697e+01  -3.772726e+01
  -2.025352e+01  -7.514064e+01
   2.387165e+01  -6.003861e+01
   6.826280e+01   1.605068e+01
   6.442076e+01   9.193495e+01
   2.201172e+00   9.438228e+01
  -7.052447e+01   1.855308e+01
  -8.652029e+01  -6.507276e+01
  -2.603208e+01  -8.679895e+01
   5.604199e+01  -4.505802e+01
   8.107736e+01   1.050587e+01
   3.172344e+01   4.055300e+01
  -2.714363e+01   4.108833e+01
  -2.437639e+01   2.340392e+01
   3.043157e+01   1.378244e+00
   5.850254e+01  -4.169343e+00
   1.153048e+01   2.116350e+01
  -6.718756e+01   5.497421e+01
  -9.643650e+01   4.959273e+01
  -5.257980e+01  -9.095968e+00
   1.303542e+01  -6.895022e+01
   4.302812e+01  -6.636568e+01
   2.972498e+01  -4.795885e+00
   1.143017e+00   4.652756e+01
  -2.096148e+01   3.517141e+01
  -3.024180e+01  -1.615017e+01
  -2.223096e+01  -4.519977e+01
   2.607118e+00  -2.673910e+01
   2.818304e+01   7.591793e+00
   3.345592e+01   1.736414e+01
   1.757802e+01   7.261140e-01
  -2.317092e-02  -1.074755e+01
  -6.064553e+00   4.338685e+00
  -7.567323e+00   3.154356e+01
  -1.677831e+01   3.612192e+01
  -2.805510e+01   3.733910e+00
  -2.327804e+01  -3.995156e+01
   4.748907e+00  -5.157804e+01
   3.850362e+01  -1.604163e+01
   4.642215e+01   3.468770e+01
   1.124297e+01   5.371834e+01
  -4.580243e+01   2.787906e+01
  -7.394285e+01  -1.384980e+01
  -4.126379e+01  -3.674578e+01
   2.377001e+01  -3.286550e+01
   5.401147e+01  -1.691005e+01
   1.950204e+01  -4.423915e+00
  -3.257139e+01  -3.485527e+00
  -3.217852e+01  -1.501928e+01
   2.726228e+01  -2.710058e+01
   7.902457e+01  -1.611497e+01
