
 $NMID
 id='ANONYMOUS ', fmtdat='(2E16.6)'
 volume=1.0
 tramp=1.0
 $END
   4.528334e+03   4.334064e+00
   2.701671e+03   2.735967e+03
  -7.809964e+02   2.892398e+03
  -2.225178e+03   9.656646e+02
  -9.636984e+02  -7.698235e+02
   8.151041e+02  -5.565823e+02
   8.979809e+02   5.325134e+02
  -5.834764e+01   1.143410e+03
  -8.708905e+02   7.057479e+02
  -9.651852e+02  -9.949789e+01
  -4.723986e+02  -8.606547e+02
   2.384823e+02  -9.762964e+02
   6.603061e+02  -8.779492e+01
   4.018165e+02   7.810393e+02
  -2.613254e+02   7.949445e+02
  -5.749989e+02   7.338101e+00
  -2.414522e+02  -7.131095e+02
   3.285633e+02  -6.349722e+02
   5.832631e+02  -6.300118e+01
   3.741057e+02   3.616756e+02
   1.922119e+01   4.602626e+02
  -2.619590e+02   2.519917e+02
  -2.061174e+02  -4.551556e-01
   1.299840e+02  -1.073310e+02
   4.282908e+02   8.804654e+01
   2.244718e+02   4.645756e+02
  -4.751334e+02   4.803780e+02
  -9.034798e+02  -5.774685e+01
  -4.867462e+02  -5.954433e+02
   4.061554e+02  -5.326122e+02
   8.013110e+02   3.368534e+01
   3.707853e+02   5.149620e+02
  -3.038621e+02   5.453134e+02
  -5.985707e+02   2.119044e+02
  -4.386722e+02  -2.450418e+02
  -6.926252e+01  -5.164896e+02
   2.424121e+02  -3.111056e+02
   2.038030e+02   2.441352e+02
  -1.870141e+02   5.011385e+02
  -5.155725e+02   7.683343e-02
  -2.810523e+02  -7.570561e+02
   3.600832e+02  -7.834233e+02
   6.826151e+02   4.952394e+00
   2.932844e+02   6.278900e+02
  -3.302122e+02   3.656843e+02
  -4.316736e+02  -3.589854e+02
   6.792059e+01  -6.029715e+02
   5.932866e+02  -1.451161e+02
   6.221647e+02   4.409233e+02
   1.591698e+02   6.259741e+02
  -4.165263e+02   3.546388e+02
  -6.680779e+02  -1.021750e+02
  -3.839442e+02  -4.274298e+02
   1.855191e+02  -3.924331e+02
   4.889311e+02  -4.222639e+01
   2.549258e+02   2.345783e+02
  -1.442166e+02   1.257045e+02
  -1.611647e+02  -1.715048e+02
   1.851047e+02  -2.075809e+02
   3.760541e+02   8.532358e+01
   1.408816e+02   3.284977e+02
  -2.257320e+02   2.704766e+02
  -3.408212e+02   6.588265e+01
  -1.902504e+02  -8.529321e+01
   2.764592e+01  -2.123541e+02
   2.160425e+02  -3.246458e+02
   3.399019e+02  -2.288464e+02
   2.967502e+02   1.402134e+02
   6.818601e+01   4.579420e+02
  -1.393794e+02   3.938647e+02
  -1.310065e+02   9.395577e+01
  -1.061231e+01  -3.171753e+01
  -2.781599e+01   9.176506e+01
  -2.016671e+02   1.485385e+02
  -2.979403e+02  -4.838567e+01
  -1.670469e+02  -2.839284e+02
   7.970837e+01  -2.675587e+02
   2.383263e+02  -9.882518e+00
   2.026268e+02   2.488942e+02
  -1.036305e+01   3.069820e+02
  -2.747896e+02   1.277600e+02
  -3.773723e+02  -1.670722e+02
  -1.972183e+02  -3.668681e+02
   1.070978e+02  -3.242757e+02
   2.468605e+02  -1.193134e+02
   1.561921e+02   1.197166e+01
   8.830940e+01  -2.492370e+01
   2.207516e+02  -7.180619e+01
   3.985759e+02   4.428793e+01
   3.427324e+02   2.817288e+02
   9.554960e+00   4.515493e+02
  -3.585377e+02   4.251185e+02
  -5.004559e+02   2.090932e+02
  -3.522767e+02  -9.718135e+01
  -5.838668e+01  -3.091484e+02
   1.443408e+02  -2.634233e+02
   9.679874e+01  -2.253122e+01
  -1.149746e+02   1.241057e+02
  -2.166946e+02  -3.235386e+00
  -5.819916e+01  -2.136539e+02
   1.779244e+02  -1.885118e+02
   1.980676e+02   6.782960e+01
  -1.864108e+01   2.135234e+02
  -2.086966e+02   4.193898e+01
  -1.708729e+02  -2.554972e+02
   3.412442e+01  -3.577001e+02
   2.304522e+02  -1.930777e+02
   3.208014e+02   6.337460e+01
   2.788875e+02   2.369746e+02
   1.019398e+02   2.648219e+02
  -1.141942e+02   1.644682e+02
  -1.891214e+02   1.874919e+01
  -6.435879e+01  -4.224858e+01
   7.988056e+01   3.305803e+01
   4.127201e+01   1.319788e+02
  -1.263644e+02   1.104580e+02
  -1.903628e+02  -1.164644e+01
  -6.368832e+01  -8.140890e+01
   8.553458e+01  -2.472402e+01
   6.406091e+01   7.194796e+01
  -1.172383e+02   9.143132e+01
  -2.798665e+02   7.314113e+00
  -2.677219e+02  -1.327248e+02
  -6.898423e+01  -2.539767e+02
   1.802918e+02  -2.678864e+02
   2.900633e+02  -1.331444e+02
   1.776634e+02   5.431976e+01
  -2.846281e+01   1.179688e+02
  -1.027343e+02   9.155930e+00
   2.877377e+01  -1.115470e+02
   2.053946e+02  -6.939040e+01
   2.263016e+02   1.030603e+02
   7.377802e+01   2.172791e+02
  -9.885553e+01   1.669088e+02
  -1.512165e+02   3.180092e+01
  -7.593179e+01  -4.454246e+01
   2.669598e+01  -8.939512e+00
   4.143832e+01   7.850891e+01
  -6.575851e+01   1.139512e+02
  -1.970267e+02   3.396948e+01
  -1.963078e+02  -1.218768e+02
  -2.352302e+01  -2.238915e+02
   1.709203e+02  -1.698524e+02
   2.033600e+02  -2.975006e+00
   6.746110e+01   1.248295e+02
  -7.314878e+01   1.193183e+02
  -9.125374e+01   3.067871e+01
  -2.266152e+01  -3.087192e+01
   2.170169e+01  -2.393206e+01
  -6.696839e+00   4.460780e+00
  -6.668570e+01  -8.532591e+00
  -8.747020e+01  -7.801136e+01
  -1.956643e+01  -1.554642e+02
   1.225037e+02  -1.552547e+02
   2.366786e+02  -3.119939e+01
   2.088242e+02   1.489085e+02
   4.404221e+01   2.425711e+02
  -1.132112e+02   1.741109e+02
  -1.398395e+02   2.568653e+01
  -7.014907e+01  -5.939093e+01
  -2.689928e+01  -3.694567e+01
  -5.255264e+01   1.287345e+01
  -7.787775e+01   7.029896e+00
  -3.869902e+01  -4.802503e+01
   4.234492e+01  -8.527548e+01
   9.657057e+01  -5.397373e+01
   8.075831e+01   3.291511e+01
  -1.074920e+01   1.073682e+02
  -1.359338e+02   8.711314e+01
  -1.968388e+02  -4.620353e+01
  -1.064861e+02  -2.000184e+02
   1.014274e+02  -2.337032e+02
   2.694870e+02  -1.016934e+02
   2.634019e+02   8.561520e+01
   1.126958e+02   1.807724e+02
  -4.009077e+01   1.507128e+02
  -9.757669e+01   8.522191e+01
  -8.132422e+01   6.902234e+01
  -6.752736e+01   9.025175e+01
  -9.179311e+01   7.381079e+01
  -1.269926e+02  -2.205467e+01
  -1.180045e+02  -1.537499e+02
  -3.195345e+01  -2.271657e+02
   9.775243e+01  -1.750119e+02
   1.785956e+02  -2.302757e+01
   1.413167e+02   1.218379e+02
   2.205175e+01   1.624370e+02
  -6.741401e+01   9.587875e+01
  -6.138058e+01   3.084330e+00
  -6.481638e+00  -4.180472e+01
   8.415595e+00  -3.466920e+01
  -3.755368e+01  -1.877384e+01
  -7.912381e+01  -2.287968e+01
  -4.469805e+01  -3.801201e+01
   6.192405e+01  -3.733540e+01
   1.558555e+02  -4.807238e+00
   1.441160e+02   4.879789e+01
   1.888852e+01   8.718183e+01
  -1.179916e+02   7.452033e+01
  -1.451332e+02   1.527075e+01
  -4.898232e+01  -3.880006e+01
   6.055446e+01  -3.581696e+01
   7.574108e+01   1.928890e+01
   6.134310e+00   6.698250e+01
  -5.652416e+01   5.613771e+01
  -6.163645e+01  -2.096275e+00
  -4.167380e+01  -4.867908e+01
  -4.303920e+01  -4.116846e+01
  -6.261930e+01  -2.391960e+00
  -6.607662e+01   3.231134e-01
  -3.363414e+01  -6.525228e+01
   3.264422e+01  -1.437984e+02
   1.128014e+02  -1.418254e+02
   1.601805e+02  -3.502149e+01
   1.221007e+02   8.969942e+01
   8.436161e+00   1.252394e+02
  -8.374154e+01   6.026762e+01
  -5.883936e+01  -1.639024e+01
   5.991598e+01  -2.032940e+01
   1.387852e+02   4.462976e+01
   7.720431e+01   1.088218e+02
  -8.081303e+01   1.140715e+02
  -1.929555e+02   5.412082e+01
  -1.655472e+02  -3.229176e+01
  -3.933254e+01  -8.789606e+01
   6.088933e+01  -7.393724e+01
   5.042389e+01  -1.053865e+01
  -3.721804e+01   2.618576e+01
  -8.957651e+01  -2.158434e+01
  -3.180168e+01  -1.177466e+02
   9.316722e+01  -1.533635e+02
   1.687312e+02  -6.054573e+01
   1.262515e+02   1.027643e+02
   8.680027e+00   1.989756e+02
  -8.676428e+01   1.445591e+02
  -1.054788e+02  -6.811284e+00
  -6.222775e+01  -1.186926e+02
  -3.436091e-01  -1.078759e+02
   4.530568e+01  -2.109465e+01
   5.414297e+01   3.160467e+01
   2.844906e+01   8.933579e+00
   4.059817e+00  -2.193488e+01
   1.929960e+01   1.324135e+01
   5.585053e+01   8.892868e+01
   4.421182e+01   1.121640e+02
  -4.539309e+01   4.724421e+01
  -1.394049e+02  -3.976816e+01
  -1.317735e+02  -7.164272e+01
  -1.749783e+01  -4.869199e+01
   8.939797e+01  -2.067373e+01
   8.833321e+01  -7.913309e+00
   8.668288e+00   5.991338e+00
  -4.023733e+01   2.223377e+01
  -1.324863e+01   1.956917e+01
   2.317235e+01  -8.692678e-01
  -5.786170e+00  -1.024275e+01
  -7.580977e+01  -5.364431e+00
  -9.148998e+01  -2.398170e+01
  -5.870027e+00  -7.944459e+01
   1.208892e+02  -1.130418e+02
   1.845689e+02  -5.670818e+01
   1.382750e+02   6.921942e+01
   2.340817e+01   1.622400e+02
  -7.862284e+01   1.477423e+02
  -1.126210e+02   5.573785e+01
  -7.957627e+01  -2.244678e+01
  -2.401807e+01  -3.405823e+01
   4.212713e+00  -6.566624e+00
  -9.592611e+00  -2.523559e+00
  -3.397977e+01  -4.509150e+01
  -2.390509e+01  -8.996769e+01
   2.936341e+01  -7.125644e+01
   8.169001e+01   1.997781e+01
   7.578233e+01   1.101601e+02
   1.225252e+00   1.121331e+02
  -8.412176e+01   2.104691e+01
  -1.016564e+02  -7.818365e+01
  -2.954678e+01  -1.029931e+02
   6.679772e+01  -5.278519e+01
   9.562853e+01   1.303288e+01
   3.698264e+01   4.823479e+01
  -3.247585e+01   4.884403e+01
  -2.908144e+01   2.784241e+01
   3.591037e+01   1.026118e+00
   6.951770e+01  -6.192376e+00
   1.415938e+01   2.412187e+01
  -7.924884e+01   6.564309e+01
  -1.140707e+02   5.986540e+01
  -6.177157e+01  -1.017144e+01
   1.634080e+01  -8.188007e+01
   5.118504e+01  -7.825218e+01
   3.427425e+01  -4.336419e+00
  -1.126171e-01   5.580695e+01
  -2.569203e+01   4.081883e+01
  -3.558123e+01  -2.057273e+01
  -2.582848e+01  -5.395455e+01
   3.157738e+00  -3.088930e+01
   3.322123e+01   9.680850e+00
   3.969992e+01   2.013637e+01
   2.088978e+01   1.900248e-01
  -2.116406e-01  -1.274450e+01
  -7.525899e+00   5.764411e+00
  -9.502191e+00   3.761510e+01
  -2.001875e+01   4.233041e+01
  -3.289040e+01   3.726322e+00
  -2.700783e+01  -4.761379e+01
   5.986142e+00  -6.075386e+01
   4.562540e+01  -1.853362e+01
   5.485261e+01   4.107667e+01
   1.326180e+01   6.340302e+01
  -5.413664e+01   3.280975e+01
  -8.722169e+01  -1.672494e+01
  -4.807048e+01  -4.367250e+01
   2.898963e+01  -3.846764e+01
   6.399595e+01  -1.884568e+01
   2.219284e+01  -4.513203e+00
  -3.967817e+01  -4.773456e+00
  -3.833064e+01  -1.918456e+01
   3.310203e+01  -3.298626e+01
   9.461022e+01  -1.882576e+01
