
 $NMID
 id='ANONYMOUS ', fmtdat='(2E16.6)'
 volume=1.0
 tramp=1.0
 $END
   4.564762e+03  -1.398508e+01
   2.738032e+03   2.756525e+03
  -8.019824e+02   3.044247e+03
  -2.198554e+03   8.781989e+02
  -9.662295e+02  -7.575687e+02
   6.950208e+02  -6.695895e+02
   9.638499e+02   4.422296e+02
   3.424249e+01   1.132127e+03
  -8.586694e+02   7.606586e+02
  -1.034961e+03  -1.036016e+02
  -4.778423e+02  -9.072824e+02
   2.999701e+02  -9.690174e+02
   6.815395e+02  -6.813316e+01
   3.969358e+02   7.554322e+02
  -2.928176e+02   7.634621e+02
  -6.079541e+02  -2.715499e+01
  -2.368363e+02  -7.013225e+02
   3.248595e+02  -6.429190e+02
   6.045560e+02  -5.983707e+01
   3.702295e+02   3.936603e+02
   1.569421e+01   4.677859e+02
  -2.400958e+02   2.654295e+02
  -2.334075e+02   1.937140e+01
   7.338703e+01  -1.320722e+02
   4.421750e+02   7.782238e+01
   2.440476e+02   4.531530e+02
  -4.689548e+02   4.640944e+02
  -8.943775e+02  -5.117435e+01
  -4.637169e+02  -5.819167e+02
   4.237940e+02  -5.281209e+02
   7.876936e+02   3.199097e+01
   3.742605e+02   4.939617e+02
  -2.832468e+02   5.497981e+02
  -5.963211e+02   2.217751e+02
  -4.291773e+02  -2.372183e+02
  -6.953553e+01  -5.219123e+02
   2.393581e+02  -3.307216e+02
   2.259728e+02   2.343948e+02
  -1.595300e+02   5.134227e+02
  -4.994212e+02   3.045968e+01
  -3.148049e+02  -7.182053e+02
   3.267961e+02  -7.676692e+02
   6.718150e+02  -6.516616e+00
   2.933564e+02   6.073118e+02
  -3.316733e+02   3.529285e+02
  -4.404439e+02  -3.515160e+02
   5.153540e+01  -5.849146e+02
   5.825185e+02  -1.484733e+02
   6.229954e+02   4.239176e+02
   1.678887e+02   6.127155e+02
  -4.050820e+02   3.625215e+02
  -6.616294e+02  -7.841703e+01
  -3.905377e+02  -4.107920e+02
   1.684835e+02  -3.950691e+02
   4.780686e+02  -5.651415e+01
   2.561464e+02   2.243906e+02
  -1.453223e+02   1.256599e+02
  -1.758800e+02  -1.716120e+02
   1.729170e+02  -2.164034e+02
   3.875550e+02   7.262772e+01
   1.686956e+02   3.234319e+02
  -2.080721e+02   2.741366e+02
  -3.418206e+02   6.943092e+01
  -1.959804e+02  -8.455288e+01
   2.555730e+01  -2.072412e+02
   2.101510e+02  -3.132619e+02
   3.288674e+02  -2.228036e+02
   2.945786e+02   1.309954e+02
   8.064101e+01   4.424779e+02
  -1.289167e+02   3.882364e+02
  -1.368451e+02   9.771285e+01
  -2.151385e+01  -3.306501e+01
  -2.331334e+01   8.274274e+01
  -1.827782e+02   1.446161e+02
  -2.851598e+02  -4.154751e+01
  -1.711760e+02  -2.774172e+02
   6.918190e+01  -2.704743e+02
   2.367263e+02  -1.659998e+01
   2.108681e+02   2.460725e+02
  -7.108139e-01   3.050153e+02
  -2.674066e+02   1.259896e+02
  -3.754983e+02  -1.651523e+02
  -1.993184e+02  -3.597465e+02
   1.009257e+02  -3.182698e+02
   2.423100e+02  -1.243110e+02
   1.607963e+02   1.346280e+00
   9.575286e+01  -2.805005e+01
   2.225868e+02  -6.869118e+01
   4.004556e+02   4.467028e+01
   3.436771e+02   2.784740e+02
   1.216315e+01   4.476245e+02
  -3.501928e+02   4.247562e+02
  -4.907582e+02   2.150313e+02
  -3.496447e+02  -8.637093e+01
  -6.620180e+01  -3.000280e+02
   1.319215e+02  -2.676153e+02
   9.534179e+01  -3.355979e+01
  -1.065090e+02   1.229001e+02
  -2.114238e+02   6.455029e+00
  -6.629136e+01  -2.039096e+02
   1.643604e+02  -1.920826e+02
   1.960619e+02   5.373207e+01
  -7.813926e+00   2.059181e+02
  -2.002750e+02   4.617685e+01
  -1.735883e+02  -2.460229e+02
   2.658091e+01  -3.546980e+02
   2.279195e+02  -1.954591e+02
   3.227003e+02   6.037752e+01
   2.793993e+02   2.319006e+02
   1.034027e+02   2.586274e+02
  -1.070973e+02   1.648034e+02
  -1.821356e+02   2.773643e+01
  -6.540104e+01  -3.372428e+01
   7.261437e+01   3.179045e+01
   3.874409e+01   1.250070e+02
  -1.205843e+02   1.090195e+02
  -1.851412e+02  -5.511072e+00
  -6.640191e+01  -7.642736e+01
   7.938386e+01  -2.765273e+01
   6.332527e+01   6.536363e+01
  -1.108583e+02   8.963437e+01
  -2.720678e+02   1.286814e+01
  -2.641037e+02  -1.241408e+02
  -7.237181e+01  -2.481349e+02
   1.713454e+02  -2.672743e+02
   2.816978e+02  -1.365075e+02
   1.771702e+02   5.078104e+01
  -2.135723e+01   1.180672e+02
  -9.769489e+01   1.299023e+01
   2.435299e+01  -1.084614e+02
   1.959098e+02  -7.110593e+01
   2.223006e+02   9.763204e+01
   7.840033e+01   2.134245e+02
  -9.282737e+01   1.679098e+02
  -1.505173e+02   3.548619e+01
  -7.982575e+01  -4.297175e+01
   2.351645e+01  -1.134396e+01
   4.230281e+01   7.438883e+01
  -6.140599e+01   1.121749e+02
  -1.924874e+02   3.693425e+01
  -1.956602e+02  -1.158334e+02
  -2.851739e+01  -2.194725e+02
   1.633629e+02  -1.706874e+02
   1.991995e+02  -8.560668e+00
   7.016450e+01   1.193813e+02
  -6.635253e+01   1.179127e+02
  -8.639968e+01   3.361523e+01
  -2.365626e+01  -2.657424e+01
   1.655740e+01  -2.188622e+01
  -1.061797e+01   3.588622e+00
  -6.603826e+01  -9.718027e+00
  -8.412050e+01  -7.698645e+01
  -1.789006e+01  -1.519315e+02
   1.179577e+02  -1.524966e+02
   2.288888e+02  -3.369715e+01
   2.049010e+02   1.423590e+02
   4.708608e+01   2.366992e+02
  -1.072109e+02   1.732860e+02
  -1.364940e+02   2.893533e+01
  -7.048565e+01  -5.762073e+01
  -2.773268e+01  -3.733340e+01
  -5.263863e+01   1.238882e+01
  -7.661294e+01   6.917078e+00
  -3.792007e+01  -4.728753e+01
   4.124985e+01  -8.382597e+01
   9.470893e+01  -5.318509e+01
   7.906262e+01   3.239423e+01
  -1.030432e+01   1.049447e+02
  -1.326824e+02   8.685545e+01
  -1.936261e+02  -4.369938e+01
  -1.070638e+02  -1.960411e+02
   9.618411e+01  -2.316655e+02
   2.630652e+02  -1.042712e+02
   2.612500e+02   8.062759e+01
   1.158469e+02   1.776636e+02
  -3.592616e+01   1.502373e+02
  -9.502284e+01   8.534711e+01
  -8.000719e+01   6.869342e+01
  -6.586015e+01   8.985658e+01
  -8.976849e+01   7.420150e+01
  -1.262741e+02  -2.020078e+01
  -1.187753e+02  -1.507529e+02
  -3.373738e+01  -2.242217e+02
   9.511932e+01  -1.740759e+02
   1.758597e+02  -2.474948e+01
   1.401878e+02   1.187050e+02
   2.370095e+01   1.597235e+02
  -6.442729e+01   9.462075e+01
  -6.006470e+01   3.126131e+00
  -7.977920e+00  -4.102138e+01
   6.434919e+00  -3.408441e+01
  -3.727875e+01  -1.826206e+01
  -7.672821e+01  -2.231600e+01
  -4.304291e+01  -3.719620e+01
   6.052212e+01  -3.704972e+01
   1.521885e+02  -6.279963e+00
   1.417701e+02   4.583604e+01
   2.001890e+01   8.504762e+01
  -1.145558e+02   7.514632e+01
  -1.428451e+02   1.796405e+01
  -4.943884e+01  -3.698987e+01
   5.883814e+01  -3.655943e+01
   7.484729e+01   1.740183e+01
   6.148302e+00   6.644714e+01
  -5.671910e+01   5.703061e+01
  -6.224806e+01  -1.719976e+00
  -4.194984e+01  -4.933299e+01
  -4.265612e+01  -4.149024e+01
  -6.169460e+01  -2.109782e+00
  -6.495940e+01   4.826212e-01
  -3.280500e+01  -6.525984e+01
   3.252875e+01  -1.426323e+02
   1.106346e+02  -1.393336e+02
   1.568543e+02  -3.392165e+01
   1.200938e+02   8.790174e+01
   9.129121e+00   1.224490e+02
  -8.218630e+01   5.915170e+01
  -5.849510e+01  -1.569401e+01
   5.835900e+01  -2.080120e+01
   1.374222e+02   4.135831e+01
   7.827579e+01   1.052319e+02
  -7.697336e+01   1.133561e+02
  -1.885699e+02   5.661906e+01
  -1.630846e+02  -2.873841e+01
  -3.982029e+01  -8.568788e+01
   5.884366e+01  -7.339330e+01
   4.895405e+01  -1.075754e+01
  -3.708890e+01   2.627193e+01
  -8.882282e+01  -2.057326e+01
  -3.222176e+01  -1.163275e+02
   9.103597e+01  -1.528743e+02
   1.666381e+02  -6.200072e+01
   1.266010e+02   1.000749e+02
   1.147843e+01   1.970247e+02
  -8.365729e+01   1.447335e+02
  -1.043291e+02  -4.638625e+00
  -6.356131e+01  -1.158936e+02
  -2.446278e+00  -1.062458e+02
   4.435492e+01  -2.148673e+01
   5.434779e+01   3.014280e+01
   2.848003e+01   8.455951e+00
   3.049041e+00  -2.122744e+01
   1.781830e+01   1.325097e+01
   5.543175e+01   8.674697e+01
   4.540554e+01   1.091763e+02
  -4.353882e+01   4.653458e+01
  -1.380526e+02  -3.756153e+01
  -1.313219e+02  -6.925056e+01
  -1.770605e+01  -4.838957e+01
   8.864740e+01  -2.199913e+01
   8.761970e+01  -8.639346e+00
   8.575695e+00   6.651628e+00
  -3.959756e+01   2.292489e+01
  -1.301332e+01   1.933427e+01
   2.230992e+01  -1.516063e+00
  -6.772376e+00  -1.032480e+01
  -7.534172e+01  -5.006435e+00
  -8.996060e+01  -2.369405e+01
  -5.437105e+00  -7.935958e+01
   1.188711e+02  -1.132798e+02
   1.820756e+02  -5.751075e+01
   1.380750e+02   6.798498e+01
   2.576907e+01   1.614229e+02
  -7.639959e+01   1.480191e+02
  -1.125583e+02   5.669794e+01
  -8.083699e+01  -2.210343e+01
  -2.470016e+01  -3.471467e+01
   4.740760e+00  -7.419142e+00
  -8.912424e+00  -2.386062e+00
  -3.414148e+01  -4.396025e+01
  -2.493880e+01  -8.876121e+01
   2.811948e+01  -7.136734e+01
   8.122779e+01   1.833533e+01
   7.633648e+01   1.079448e+02
   2.564357e+00   1.109475e+02
  -8.294586e+01   2.178221e+01
  -1.014164e+02  -7.618687e+01
  -3.036346e+01  -1.014796e+02
   6.547017e+01  -5.260231e+01
   9.463707e+01   1.209430e+01
   3.702407e+01   4.733627e+01
  -3.168674e+01   4.855479e+01
  -2.873878e+01   2.770825e+01
   3.488073e+01   4.823387e-01
   6.793271e+01  -6.986910e+00
   1.377549e+01   2.364700e+01
  -7.743401e+01   6.557014e+01
  -1.117937e+02   5.965936e+01
  -6.116681e+01  -1.072886e+01
   1.523465e+01  -8.201544e+01
   5.044072e+01  -7.780283e+01
   3.480964e+01  -3.697194e+00
   5.086729e-01   5.612184e+01
  -2.595959e+01   4.079303e+01
  -3.611239e+01  -2.028079e+01
  -2.568371e+01  -5.341247e+01
   3.661160e+00  -3.063181e+01
   3.275148e+01   9.032500e+00
   3.833822e+01   1.927648e+01
   2.011963e+01   1.267549e-01
   2.601576e-01  -1.218437e+01
  -6.643390e+00   5.949506e+00
  -8.950171e+00   3.699379e+01
  -1.991883e+01   4.177298e+01
  -3.277716e+01   4.036732e+00
  -2.700655e+01  -4.655843e+01
   5.605071e+00  -6.010292e+01
   4.487790e+01  -1.902230e+01
   5.445624e+01   4.000581e+01
   1.357776e+01   6.293959e+01
  -5.321499e+01   3.354930e+01
  -8.682812e+01  -1.546559e+01
  -4.850154e+01  -4.326850e+01
   2.815165e+01  -3.925808e+01
   6.381566e+01  -1.992459e+01
   2.275660e+01  -4.270715e+00
  -3.922395e+01  -3.177041e+00
  -3.870369e+01  -1.763687e+01
   3.166643e+01  -3.279114e+01
   9.298327e+01  -1.998491e+01
