
 $NMID
 id='ANONYMOUS ', fmtdat='(2E16.6)'
 volume=1.0
 tramp=1.0
 $END
  -3.368201e+03  -2.012035e+01
  -2.042536e+03  -2.051243e+03
   6.123238e+02  -2.059919e+03
   1.576073e+03  -7.803935e+02
   6.877808e+02   5.899348e+02
  -5.497806e+02   4.761720e+02
  -6.523065e+02  -3.701956e+02
  -7.512577e+01  -8.969767e+02
   6.657724e+02  -5.789875e+02
   7.689196e+02   7.588611e+01
   3.656873e+02   6.521196e+02
  -1.107741e+02   7.168273e+02
  -4.823712e+02   4.363979e+01
  -3.067352e+02  -5.749193e+02
   2.042235e+02  -6.187401e+02
   4.765407e+02  -2.472774e+01
   2.153129e+02   5.001244e+02
  -2.313314e+02   4.528269e+02
  -4.356646e+02   4.074429e+01
  -2.937015e+02  -2.680974e+02
   1.363299e+01  -3.258767e+02
   2.119462e+02  -2.051098e+02
   1.748679e+02  -9.305521e+00
  -8.520338e+01   7.267175e+01
  -3.202951e+02  -4.551519e+01
  -1.543460e+02  -3.265410e+02
   3.260495e+02  -3.009164e+02
   6.417094e+02   6.496408e+01
   3.259393e+02   4.340299e+02
  -2.836379e+02   3.743586e+02
  -5.510817e+02  -4.269310e+01
  -2.545689e+02  -3.741878e+02
   2.146147e+02  -3.839713e+02
   4.323986e+02  -1.342162e+02
   3.272390e+02   1.848037e+02
   5.361193e+01   3.632819e+02
  -1.693058e+02   2.120011e+02
  -1.666923e+02  -1.827859e+02
   1.176291e+02  -3.452855e+02
   3.595844e+02  -1.364798e+00
   2.091983e+02   5.320068e+02
  -2.553943e+02   5.524109e+02
  -4.939329e+02   2.098276e+00
  -2.082617e+02  -4.566070e+02
   2.461802e+02  -2.680263e+02
   3.205918e+02   2.616368e+02
  -5.168144e+01   4.460920e+02
  -4.392858e+02   1.143882e+02
  -4.567127e+02  -3.204319e+02
  -1.159749e+02  -4.563184e+02
   2.963642e+02  -2.582629e+02
   4.729498e+02   7.446701e+01
   2.730423e+02   3.063786e+02
  -1.256730e+02   2.824131e+02
  -3.401528e+02   3.011724e+01
  -1.805921e+02  -1.687178e+02
   9.890161e+01  -9.018882e+01
   1.160752e+02   1.250654e+02
  -1.256811e+02   1.570007e+02
  -2.638460e+02  -4.860973e+01
  -9.911159e+01  -2.246410e+02
   1.630449e+02  -1.892229e+02
   2.446094e+02  -4.754993e+01
   1.339082e+02   6.013591e+01
  -2.154960e+01   1.538225e+02
  -1.526786e+02   2.391198e+02
  -2.436816e+02   1.748869e+02
  -2.235910e+02  -8.997088e+01
  -6.727658e+01  -3.272347e+02
   8.812046e+01  -2.953877e+02
   9.618328e+01  -8.701061e+01
   1.714711e+01   9.443397e+00
   2.538969e+01  -6.766440e+01
   1.427909e+02  -1.039409e+02
   2.115232e+02   3.362125e+01
   1.260649e+02   2.005427e+02
  -4.494048e+01   1.932498e+02
  -1.628131e+02   1.615197e+01
  -1.485727e+02  -1.686555e+02
  -2.872829e+00  -2.163037e+02
   1.879840e+02  -9.543040e+01
   2.677755e+02   1.149879e+02
   1.408467e+02   2.627372e+02
  -7.858937e+01   2.344780e+02
  -1.750917e+02   8.425777e+01
  -1.081329e+02  -1.261205e+01
  -5.956301e+01   1.756551e+01
  -1.621120e+02   5.662720e+01
  -2.941153e+02  -2.556434e+01
  -2.509901e+02  -2.034916e+02
  -3.371785e+00  -3.261769e+02
   2.609860e+02  -3.085051e+02
   3.583702e+02  -1.506527e+02
   2.517629e+02   6.739505e+01
   4.387614e+01   2.190220e+02
  -9.823160e+01   1.887024e+02
  -6.575811e+01   1.784100e+01
   8.371471e+01  -8.782352e+01
   1.554398e+02   3.708663e+00
   4.096565e+01   1.564821e+02
  -1.297142e+02   1.369021e+02
  -1.454797e+02  -4.817570e+01
   1.235826e+01  -1.543693e+02
   1.499388e+02  -2.926850e+01
   1.239023e+02   1.841032e+02
  -2.322756e+01   2.557363e+02
  -1.643516e+02   1.373284e+02
  -2.320721e+02  -4.333584e+01
  -2.039417e+02  -1.643489e+02
  -7.739453e+01  -1.869445e+02
   7.878307e+01  -1.216432e+02
   1.340945e+02  -2.033219e+01
   4.566784e+01   2.586466e+01
  -5.706919e+01  -2.443227e+01
  -2.905023e+01  -9.498893e+01
   9.130861e+01  -8.112933e+01
   1.369618e+02   5.691483e+00
   4.677082e+01   5.611010e+01
  -5.871755e+01   1.611063e+01
  -4.180752e+01  -5.169098e+01
   8.697130e+01  -6.358461e+01
   1.999258e+02  -2.788868e+00
   1.887915e+02   9.568393e+01
   4.819566e+01   1.807589e+02
  -1.265970e+02   1.908414e+02
  -2.041401e+02   9.533617e+01
  -1.265445e+02  -3.822764e+01
   1.829479e+01  -8.374566e+01
   7.238209e+01  -5.727943e+00
  -1.922734e+01   8.068521e+01
  -1.451275e+02   5.032869e+01
  -1.619963e+02  -7.292951e+01
  -5.476267e+01  -1.541649e+02
   6.853128e+01  -1.184990e+02
   1.067794e+02  -2.339962e+01
   5.368822e+01   3.023064e+01
  -1.896737e+01   4.946433e+00
  -2.904887e+01  -5.685232e+01
   4.743672e+01  -8.194617e+01
   1.413614e+02  -2.468778e+01
   1.412714e+02   8.707220e+01
   1.828229e+01   1.603055e+02
  -1.208952e+02   1.213082e+02
  -1.450400e+02   2.323964e+00
  -4.918450e+01  -8.780100e+01
   5.013165e+01  -8.337063e+01
   6.310448e+01  -2.200330e+01
   1.567374e+01   1.889605e+01
  -1.302392e+01   1.293250e+01
   8.372818e+00  -4.942655e+00
   4.988308e+01   7.603688e+00
   6.242370e+01   5.825232e+01
   1.300571e+01   1.130105e+02
  -8.750427e+01   1.115789e+02
  -1.687012e+02   2.379089e+01
  -1.491118e+02  -1.056883e+02
  -3.244494e+01  -1.732623e+02
   8.003390e+01  -1.255017e+02
   9.881856e+01  -1.958788e+01
   4.902003e+01   4.157867e+01
   1.884542e+01   2.545108e+01
   3.891249e+01  -1.051160e+01
   5.766741e+01  -5.925390e+00
   2.851139e+01   3.460281e+01
  -3.073846e+01   6.062782e+01
  -7.069594e+01   3.840488e+01
  -5.806659e+01  -2.349685e+01
   7.229350e+00  -7.638351e+01
   9.694833e+01  -6.266447e+01
   1.409943e+02   3.203759e+01
   7.748399e+01   1.421346e+02
  -7.187778e+01   1.668225e+02
  -1.926727e+02   7.341401e+01
  -1.886612e+02  -6.005729e+01
  -8.120837e+01  -1.283055e+02
   2.742181e+01  -1.072520e+02
   6.813888e+01  -6.146277e+01
   5.747775e+01  -5.111089e+01
   4.890707e+01  -6.637212e+01
   6.698712e+01  -5.364846e+01
   9.206867e+01   1.590332e+01
   8.567683e+01   1.104390e+02
   2.385328e+01   1.628284e+02
  -6.960017e+01   1.259618e+02
  -1.284009e+02   1.745440e+01
  -1.025617e+02  -8.684545e+01
  -1.675930e+01  -1.168153e+02
   4.823024e+01  -6.978103e+01
   4.464785e+01  -3.646628e+00
   5.304489e+00   2.848034e+01
  -5.623503e+00   2.391774e+01
   2.740916e+01   1.336172e+01
   5.719266e+01   1.675609e+01
   3.263142e+01   2.739374e+01
  -4.355552e+01   2.665279e+01
  -1.107293e+02   3.966033e+00
  -1.029531e+02  -3.367784e+01
  -1.425191e+01  -6.124406e+01
   8.330715e+01  -5.335281e+01
   1.032331e+02  -1.201468e+01
   3.531667e+01   2.664753e+01
  -4.234738e+01   2.553002e+01
  -5.299814e+01  -1.293881e+01
  -3.381865e+00  -4.706269e+01
   4.089407e+01  -3.975009e+01
   4.394049e+01   1.818350e+00
   2.975288e+01   3.559003e+01
   3.121062e+01   3.034659e+01
   4.504306e+01   2.464664e+00
   4.674786e+01   2.382342e-01
   2.312295e+01   4.711814e+01
  -2.378790e+01   1.032912e+02
  -8.064531e+01   1.014795e+02
  -1.144925e+02   2.500272e+01
  -8.759442e+01  -6.425033e+01
  -6.191320e+00  -8.917479e+01
   6.026979e+01  -4.280035e+01
   4.225022e+01   1.191564e+01
  -4.319337e+01   1.460314e+01
  -1.001060e+02  -3.103309e+01
  -5.599184e+01  -7.687007e+01
   5.690295e+01  -8.167131e+01
   1.370317e+02  -4.018334e+01
   1.176688e+02   2.146305e+01
   2.851674e+01   6.228226e+01
  -4.222621e+01   5.291776e+01
  -3.496525e+01   7.261526e+00
   2.706742e+01  -1.939912e+01
   6.426177e+01   1.544637e+01
   2.361628e+01   8.546992e+01
  -6.549114e+01   1.115043e+02
  -1.204204e+02   4.484267e+01
  -9.154130e+01  -7.286739e+01
  -8.026011e+00  -1.424277e+02
   6.101662e+01  -1.039923e+02
   7.565427e+01   4.185136e+00
   4.543057e+01   8.445407e+01
   8.184119e-01   7.729069e+01
  -3.257664e+01   1.586228e+01
  -3.908349e+01  -2.172229e+01
  -2.017120e+01  -6.209027e+00
  -2.318095e+00   1.497985e+01
  -1.334408e+01  -1.016727e+01
  -4.024063e+01  -6.306222e+01
  -3.258289e+01  -7.860185e+01
   3.182743e+01  -3.288047e+01
   1.000210e+02   2.751605e+01
   9.526921e+01   4.957903e+01
   1.333397e+01   3.458802e+01
  -6.374827e+01   1.638963e+01
  -6.345853e+01   7.266981e+00
  -6.721809e+00  -4.014099e+00
   2.818221e+01  -1.644272e+01
   9.011858e+00  -1.405896e+01
  -1.657707e+01   9.038956e-01
   4.755554e+00   7.008191e+00
   5.511217e+01   3.091890e+00
   6.604485e+01   1.733647e+01
   4.296020e+00   5.815849e+01
  -8.666836e+01   8.238800e+01
  -1.325316e+02   4.138731e+01
  -9.977186e+01  -4.931756e+01
  -1.814577e+01  -1.160494e+02
   5.497349e+01  -1.063370e+02
   8.021371e+01  -4.137281e+01
   5.751759e+01   1.472895e+01
   1.822591e+01   2.421122e+01
  -2.294639e+00   5.563136e+00
   6.863914e+00   2.347312e+00
   2.406419e+01   3.168853e+01
   1.721885e+01   6.359518e+01
  -2.037935e+01   5.093558e+01
  -5.796590e+01  -1.350376e+01
  -5.430719e+01  -7.808881e+01
  -1.290497e+00  -8.023257e+01
   6.033274e+01  -1.543637e+01
   7.346176e+01   5.581367e+01
   2.155775e+01   7.414796e+01
  -4.816834e+01   3.836916e+01
  -6.922443e+01  -8.986076e+00
  -2.686086e+01  -3.449282e+01
   2.324591e+01  -3.480463e+01
   2.077703e+01  -1.976396e+01
  -2.602132e+01  -8.043572e-01
  -4.987626e+01   4.120646e+00
  -1.000099e+01  -1.764321e+01
   5.660570e+01  -4.707626e+01
   8.118466e+01  -4.280096e+01
   4.403471e+01   7.309300e+00
  -1.118188e+01   5.859937e+01
  -3.611285e+01   5.630602e+01
  -2.498615e+01   3.519892e+00
  -1.153978e+00  -4.016695e+01
   1.760028e+01  -3.003637e+01
   2.592148e+01   1.360779e+01
   1.918893e+01   3.832650e+01
  -2.013275e+00   2.259828e+01
  -2.380270e+01  -6.284779e+00
  -2.815506e+01  -1.428215e+01
  -1.479759e+01  -3.347571e-01
  -3.642929e-01   9.017326e+00
   4.517395e+00  -4.113823e+00
   6.404122e+00  -2.716053e+01
   1.479053e+01  -3.086095e+01
   2.420380e+01  -2.964337e+00
   1.948894e+01   3.433390e+01
  -4.623174e+00   4.402533e+01
  -3.292802e+01   1.336981e+01
  -3.924833e+01  -2.985626e+01
  -9.424067e+00  -4.585413e+01
   3.872883e+01  -2.370405e+01
   6.264440e+01   1.182968e+01
   3.493331e+01   3.112684e+01
  -2.041387e+01   2.776341e+01
  -4.596447e+01   1.409904e+01
  -1.619543e+01   3.628760e+00
   2.832528e+01   2.824360e+00
   2.739281e+01   1.267778e+01
  -2.387986e+01   2.331975e+01
  -6.797101e+01   1.424649e+01
