
 $NMID
 id='ANONYMOUS ', fmtdat='(2E16.6)'
 volume=1.0
 tramp=1.0
 $END
  -2.737059e+03   4.024292e+01
  -1.534011e+03  -1.641871e+03
   3.300857e+02  -1.799843e+03
   1.348729e+03  -5.967666e+02
   5.759986e+02   3.570491e+02
  -3.928284e+02   3.493401e+02
  -5.655056e+02  -2.722083e+02
   4.026510e+01  -6.767258e+02
   5.630915e+02  -4.432285e+02
   5.741637e+02   4.673587e+01
   2.948725e+02   5.526206e+02
  -1.036740e+02   5.754385e+02
  -3.690001e+02   1.136932e+02
  -2.268102e+02  -4.628145e+02
   1.738675e+02  -4.836244e+02
   4.020226e+02  -2.611268e+00
   1.626475e+02   4.057466e+02
  -2.141228e+02   3.731416e+02
  -3.580050e+02   6.128285e+01
  -2.604922e+02  -1.833486e+02
  -2.604056e+01  -2.681784e+02
   1.302493e+02  -1.374753e+02
   1.321202e+02  -2.031647e+01
  -6.757758e+01   3.490129e+01
  -2.345613e+02  -5.780526e+01
  -1.166028e+02  -2.626763e+02
   2.464951e+02  -2.503315e+02
   5.010164e+02   3.322348e+01
   2.734653e+02   3.359353e+02
  -1.943249e+02   3.118465e+02
  -4.199964e+02  -1.482819e+01
  -2.022192e+02  -2.951557e+02
   1.639862e+02  -3.076488e+02
   3.318570e+02  -1.118825e+02
   2.476722e+02   1.453868e+02
   3.140284e+01   2.772951e+02
  -1.261510e+02   1.585504e+02
  -1.047300e+02  -1.467875e+02
   1.158961e+02  -2.607896e+02
   2.814419e+02   4.005384e+00
   1.443225e+02   4.101725e+02
  -1.953167e+02   4.239905e+02
  -3.719125e+02   3.981994e+00
  -1.494062e+02  -3.224589e+02
   1.840100e+02  -1.877765e+02
   2.374242e+02   2.028484e+02
  -4.586488e+01   3.328726e+02
  -3.331837e+02   7.878129e+01
  -3.467785e+02  -2.471701e+02
  -8.958252e+01  -3.421268e+02
   2.297142e+02  -1.880899e+02
   3.665224e+02   6.086558e+01
   2.110908e+02   2.361313e+02
  -1.060306e+02   2.120647e+02
  -2.759483e+02   1.808592e+01
  -1.468067e+02  -1.343465e+02
   7.696849e+01  -7.133171e+01
   9.060055e+01   9.814273e+01
  -9.993110e+01   1.213494e+02
  -2.078861e+02  -4.376531e+01
  -7.884364e+01  -1.855330e+02
   1.249679e+02  -1.546140e+02
   1.868904e+02  -3.356653e+01
   9.906400e+01   5.705565e+01
  -2.246203e+01   1.247278e+02
  -1.217093e+02   1.792513e+02
  -1.873665e+02   1.241995e+02
  -1.692987e+02  -7.526853e+01
  -5.099732e+01  -2.488402e+02
   6.474294e+01  -2.193001e+02
   6.946825e+01  -6.115771e+01
   1.021528e+01   8.314507e+00
   1.862102e+01  -5.331326e+01
   1.093698e+02  -8.083700e+01
   1.612276e+02   2.633127e+01
   9.464318e+01   1.536194e+02
  -3.560496e+01   1.475554e+02
  -1.227587e+02   8.646094e+00
  -1.095918e+02  -1.312082e+02
   2.578023e+00  -1.618600e+02
   1.451215e+02  -6.403382e+01
   2.029516e+02   9.661065e+01
   1.070970e+02   2.038160e+02
  -6.107892e+01   1.788643e+02
  -1.383850e+02   6.417259e+01
  -8.884879e+01  -4.506500e+00
  -5.083575e+01   1.477673e+01
  -1.250724e+02   4.113667e+01
  -2.223929e+02  -2.367237e+01
  -1.904977e+02  -1.570919e+02
  -3.695667e+00  -2.501257e+02
   2.004687e+02  -2.371489e+02
   2.777729e+02  -1.151149e+02
   1.949874e+02   5.524002e+01
   3.095078e+01   1.730827e+02
  -8.083153e+01   1.464078e+02
  -5.375960e+01   1.156791e+01
   6.250931e+01  -6.966921e+01
   1.180025e+02   1.095907e+00
   3.086596e+01   1.183657e+02
  -9.745034e+01   1.030835e+02
  -1.086608e+02  -3.729053e+01
   1.112119e+01  -1.167617e+02
   1.133665e+02  -2.040899e+01
   9.223430e+01   1.428790e+02
  -2.005428e+01   1.965213e+02
  -1.268133e+02   1.050015e+02
  -1.752089e+02  -3.613539e+01
  -1.525629e+02  -1.290395e+02
  -5.588662e+01  -1.433304e+02
   6.193628e+01  -8.825456e+01
   1.025506e+02  -9.384119e+00
   3.338681e+01   2.382117e+01
  -4.625112e+01  -1.760498e+01
  -2.559411e+01  -7.298123e+01
   6.731930e+01  -6.272881e+01
   1.046490e+02   3.238540e+00
   3.638389e+01   4.209554e+01
  -4.547829e+01   1.205060e+01
  -3.329735e+01  -4.014698e+01
   6.757175e+01  -5.023535e+01
   1.568985e+02  -3.229479e+00
   1.478210e+02   7.477482e+01
   3.681367e+01   1.421500e+02
  -9.901382e+01   1.495173e+02
  -1.571533e+02   7.414019e+01
  -9.611587e+01  -2.988470e+01
   1.425437e+01  -6.462145e+01
   5.369102e+01  -3.958724e+00
  -1.705594e+01   6.261940e+01
  -1.118926e+02   3.877008e+01
  -1.226005e+02  -5.645217e+01
  -3.981461e+01  -1.188162e+02
   5.318150e+01  -9.051789e+01
   8.026270e+01  -1.700701e+01
   3.916425e+01   2.338737e+01
  -1.468006e+01   3.061699e+00
  -2.048096e+01  -4.395119e+01
   3.790408e+01  -6.204333e+01
   1.078801e+02  -1.793120e+01
   1.066766e+02   6.714422e+01
   1.298656e+01   1.232010e+02
  -9.294693e+01   9.433200e+01
  -1.116659e+02   2.625345e+00
  -3.875933e+01  -6.888892e+01
   3.776122e+01  -6.668455e+01
   4.865156e+01  -1.792015e+01
   1.240344e+01   1.614319e+01
  -9.990937e+00   1.150399e+01
   6.820275e+00  -3.601668e+00
   3.937683e+01   5.192894e+00
   4.828379e+01   4.535898e+01
   9.099805e+00   8.781521e+01
  -6.874037e+01   8.592124e+01
  -1.300011e+02   1.775116e+01
  -1.142883e+02  -8.100369e+01
  -2.470067e+01  -1.323348e+02
   6.160578e+01  -9.615923e+01
   7.628312e+01  -1.568648e+01
   3.829357e+01   3.169423e+01
   1.468798e+01   2.067398e+01
   2.927975e+01  -6.404462e+00
   4.383782e+01  -3.620845e+00
   2.126360e+01   2.664939e+01
  -2.443146e+01   4.632194e+01
  -5.532823e+01   2.885824e+01
  -4.424936e+01  -1.882747e+01
   7.340416e+00  -5.862204e+01
   7.595551e+01  -4.657280e+01
   1.078053e+02   2.582709e+01
   5.707020e+01   1.097049e+02
  -5.607250e+01   1.270871e+02
  -1.475892e+02   5.512583e+01
  -1.438258e+02  -4.716961e+01
  -6.159776e+01  -9.877202e+01
   2.153562e+01  -8.260013e+01
   5.300843e+01  -4.724578e+01
   4.508482e+01  -3.879115e+01
   3.806203e+01  -5.049266e+01
   5.098727e+01  -4.062143e+01
   6.970552e+01   1.246253e+01
   6.472260e+01   8.497025e+01
   1.756418e+01   1.248743e+02
  -5.345760e+01   9.614038e+01
  -9.752138e+01   1.265929e+01
  -7.669689e+01  -6.695868e+01
  -1.102704e+01  -8.919420e+01
   3.742833e+01  -5.226769e+01
   3.299077e+01  -7.545858e-01
   2.363350e+00   2.383040e+01
  -4.970271e+00   1.919806e+01
   2.131693e+01   1.002773e+01
   4.411014e+01   1.221090e+01
   2.453906e+01   2.037897e+01
  -3.420499e+01   1.977046e+01
  -8.494266e+01   2.183665e+00
  -7.774078e+01  -2.610457e+01
  -8.961188e+00  -4.625356e+01
   6.523719e+01  -3.955298e+01
   7.941222e+01  -7.936774e+00
   2.632694e+01   2.134344e+01
  -3.362613e+01   2.007534e+01
  -4.172678e+01  -9.978517e+00
  -3.484032e+00  -3.672265e+01
   3.100309e+01  -3.144611e+01
   3.399355e+01   1.005797e+00
   2.345273e+01   2.748094e+01
   2.430111e+01   2.346502e+01
   3.448926e+01   1.588822e+00
   3.563364e+01  -1.940589e-01
   1.752875e+01   3.599585e+01
  -1.818552e+01   7.947729e+01
  -6.166326e+01   7.821462e+01
  -8.768935e+01   1.889705e+01
  -6.732256e+01  -4.979614e+01
  -4.945247e+00  -6.893886e+01
   4.603045e+01  -3.280326e+01
   3.254882e+01   9.288845e+00
  -3.270332e+01   1.101858e+01
  -7.627833e+01  -2.453233e+01
  -4.253005e+01  -5.950029e+01
   4.399658e+01  -6.226581e+01
   1.055343e+02  -2.957243e+01
   9.060998e+01   1.760799e+01
   2.164421e+01   4.808093e+01
  -3.337759e+01   4.033100e+01
  -2.794592e+01   5.278520e+00
   2.050653e+01  -1.505006e+01
   4.999809e+01   1.161382e+01
   1.884046e+01   6.551588e+01
  -5.046694e+01   8.564985e+01
  -9.316773e+01   3.445053e+01
  -7.051199e+01  -5.627205e+01
  -5.593067e+00  -1.097516e+02
   4.755039e+01  -7.974261e+01
   5.799647e+01   3.788050e+00
   3.425574e+01   6.531176e+01
   1.629163e-01   5.928593e+01
  -2.497688e+01   1.176588e+01
  -2.971058e+01  -1.695190e+01
  -1.566246e+01  -4.800803e+00
  -2.370407e+00   1.146151e+01
  -1.067532e+01  -7.960653e+00
  -3.067477e+01  -4.864841e+01
  -2.427248e+01  -6.063381e+01
   2.500894e+01  -2.535886e+01
   7.672721e+01   2.127618e+01
   7.270488e+01   3.845839e+01
   9.950201e+00   2.680752e+01
  -4.898420e+01   1.242497e+01
  -4.865845e+01   5.187310e+00
  -4.966163e+00  -3.327677e+00
   2.206969e+01  -1.251425e+01
   7.299338e+00  -1.039150e+01
  -1.287204e+01   1.181480e+00
   2.981317e+00   5.758167e+00
   4.178877e+01   2.468149e+00
   5.066709e+01   1.319346e+01
   3.246024e+00   4.437159e+01
  -6.703388e+01   6.301506e+01
  -1.022749e+02   3.153437e+01
  -7.642729e+01  -3.821625e+01
  -1.297173e+01  -8.934752e+01
   4.300847e+01  -8.141068e+01
   6.164845e+01  -3.100261e+01
   4.365698e+01   1.191814e+01
   1.349255e+01   1.874768e+01
  -2.097137e+00   4.383914e+00
   4.779591e+00   2.207381e+00
   1.772053e+01   2.481543e+01
   1.244026e+01   4.865880e+01
  -1.626372e+01   3.827963e+01
  -4.490137e+01  -1.146415e+01
  -4.181426e+01  -6.098020e+01
  -5.545740e-01  -6.234770e+01
   4.722667e+01  -1.231071e+01
   5.728084e+01   4.309336e+01
   1.700037e+01   5.781831e+01
  -3.712549e+01   3.020996e+01
  -5.353527e+01  -6.876877e+00
  -2.081606e+01  -2.710746e+01
   1.791781e+01  -2.729387e+01
   1.602088e+01  -1.525705e+01
  -1.998876e+01  -3.990067e-01
  -3.826129e+01   3.265525e+00
  -7.414194e+00  -1.334541e+01
   4.378724e+01  -3.589104e+01
   6.243951e+01  -3.268414e+01
   3.356206e+01   5.438511e+00
  -8.980787e+00   4.480249e+01
  -2.812162e+01   4.340950e+01
  -1.950692e+01   3.093205e+00
  -1.076022e+00  -3.075089e+01
   1.340499e+01  -2.343123e+01
   2.002602e+01   1.002453e+01
   1.498978e+01   2.924888e+01
  -1.387834e+00   1.740744e+01
  -1.845804e+01  -4.983066e+00
  -2.178480e+01  -1.091431e+01
  -1.108606e+01   2.914253e-03
   1.791577e-01   7.313085e+00
   3.639004e+00  -2.986118e+00
   4.488825e+00  -2.083105e+01
   1.071320e+01  -2.374796e+01
   1.839300e+01  -2.339015e+00
   1.523687e+01   2.620155e+01
  -3.218280e+00   3.343938e+01
  -2.534484e+01   1.008029e+01
  -3.027212e+01  -2.269205e+01
  -7.000424e+00  -3.484165e+01
   3.023219e+01  -1.790758e+01
   4.829143e+01   9.284370e+00
   2.643811e+01   2.421736e+01
  -1.612749e+01   2.161771e+01
  -3.554105e+01   1.083670e+01
  -1.251175e+01   2.630294e+00
   2.162516e+01   2.123421e+00
   2.117097e+01   9.948083e+00
  -1.780386e+01   1.810803e+01
  -5.172079e+01   1.087741e+01
