
 $NMID
 id='ANONYMOUS ', fmtdat='(2E16.6)'
 volume=1.0
 tramp=1.0
 $END
  -4.559331e+03   1.336150e+02
  -2.772143e+03  -2.628425e+03
   7.200860e+02  -2.866683e+03
   2.134711e+03  -1.099622e+03
   9.401902e+02   5.923150e+02
  -5.759184e+02   6.321118e+02
  -9.053179e+02  -3.941832e+02
  -3.692369e+00  -1.044924e+03
   7.348522e+02  -8.210975e+02
   9.564981e+02   8.152391e+01
   5.439692e+02   8.713294e+02
  -2.527070e+02   8.946004e+02
  -6.201268e+02   1.076524e+02
  -3.963755e+02  -6.988574e+02
   2.818508e+02  -8.181897e+02
   6.521387e+02  -3.267999e+00
   2.597265e+02   7.007067e+02
  -3.435147e+02   7.097304e+02
  -6.053201e+02   1.313809e+02
  -4.105897e+02  -3.540108e+02
  -1.448902e+01  -4.793130e+02
   2.563507e+02  -3.047857e+02
   2.289282e+02  -2.576400e+00
  -1.155261e+02   1.046215e+02
  -4.562254e+02  -1.484034e+02
  -2.038953e+02  -4.811115e+02
   5.126113e+02  -4.206544e+02
   8.955966e+02   1.221320e+02
   4.105286e+02   5.917507e+02
  -4.418181e+02   4.949429e+02
  -7.678594e+02  -6.784167e+01
  -3.456707e+02  -5.129579e+02
   3.147293e+02  -5.285576e+02
   6.085321e+02  -1.892156e+02
   4.319840e+02   2.387984e+02
   5.236566e+01   5.012706e+02
  -2.214274e+02   3.019246e+02
  -1.817519e+02  -2.259665e+02
   1.757541e+02  -4.562513e+02
   4.639899e+02   2.617654e+01
   2.521646e+02   7.212166e+02
  -3.416023e+02   7.320608e+02
  -6.282990e+02  -7.622200e+00
  -2.546991e+02  -5.977777e+02
   3.149594e+02  -3.260863e+02
   3.946689e+02   3.666603e+02
  -8.560337e+01   5.867153e+02
  -5.912927e+02   1.348812e+02
  -6.217767e+02  -4.521161e+02
  -1.680611e+02  -6.256480e+02
   4.053153e+02  -3.582433e+02
   6.611648e+02   9.063346e+01
   3.870654e+02   4.115061e+02
  -1.684115e+02   3.798590e+02
  -4.686738e+02   5.267761e+01
  -2.545494e+02  -2.088810e+02
   1.234254e+02  -1.169701e+02
   1.543368e+02   1.539447e+02
  -1.636201e+02   1.912837e+02
  -3.581178e+02  -7.378463e+01
  -1.528823e+02  -3.066229e+02
   2.075773e+02  -2.704025e+02
   3.510324e+02  -8.060554e+01
   2.161710e+02   9.126438e+01
  -2.717510e+01   2.424265e+02
  -2.478823e+02   3.417706e+02
  -3.700748e+02   2.129579e+02
  -3.026227e+02  -1.644646e+02
  -6.363837e+01  -4.663089e+02
   1.378613e+02  -3.969538e+02
   1.301437e+02  -1.102154e+02
   2.310678e+01   1.142647e+01
   4.766642e+01  -9.719903e+01
   2.142720e+02  -1.373254e+02
   3.009042e+02   6.528211e+01
   1.646682e+02   2.997454e+02
  -8.687295e+01   2.782656e+02
  -2.516686e+02   3.841726e+00
  -2.099277e+02  -2.717791e+02
   2.032584e+01  -3.196296e+02
   2.884090e+02  -1.170907e+02
   3.805994e+02   1.879179e+02
   1.917836e+02   3.732292e+02
  -1.073010e+02   3.187845e+02
  -2.386668e+02   1.217120e+02
  -1.608260e+02   1.898604e+00
  -1.073888e+02   3.448105e+01
  -2.462667e+02   6.466394e+01
  -4.216110e+02  -6.203954e+01
  -3.466084e+02  -3.031889e+02
   9.009949e+00  -4.709192e+02
   3.882757e+02  -4.346473e+02
   5.187825e+02  -2.018053e+02
   3.497643e+02   1.095167e+02
   4.590951e+01   3.120008e+02
  -1.434749e+02   2.618122e+02
  -8.228652e+01   2.763750e+01
   1.212558e+02  -1.113330e+02
   2.022523e+02   9.328238e+00
   4.508955e+01   2.029511e+02
  -1.705911e+02   1.727347e+02
  -1.812029e+02  -6.698032e+01
   2.382082e+01  -1.978753e+02
   2.022701e+02  -2.802669e+01
   1.668753e+02   2.608060e+02
  -3.435454e+01   3.641528e+02
  -2.406047e+02   2.001830e+02
  -3.435984e+02  -6.777602e+01
  -2.935990e+02  -2.532368e+02
  -9.921713e+01  -2.792179e+02
   1.213368e+02  -1.683839e+02
   1.882606e+02  -2.059786e+01
   6.115511e+01   3.264504e+01
  -7.303170e+01  -4.492779e+01
  -2.837229e+01  -1.344506e+02
   1.338056e+02  -1.042603e+02
   1.905409e+02   1.602060e+01
   6.311862e+01   7.826385e+01
  -8.258420e+01   1.863346e+01
  -5.724516e+01  -7.446234e+01
   1.285966e+02  -8.736384e+01
   2.931235e+02   4.070041e+00
   2.726396e+02   1.492718e+02
   5.901848e+01   2.683828e+02
  -1.973106e+02   2.722006e+02
  -3.004052e+02   1.285094e+02
  -1.792021e+02  -5.879969e+01
   2.695434e+01  -1.178746e+02
   9.733976e+01  -9.190483e+00
  -3.292354e+01   1.067015e+02
  -2.042718e+02   6.203028e+01
  -2.230725e+02  -1.081923e+02
  -7.161209e+01  -2.193372e+02
   1.010908e+02  -1.669157e+02
   1.535971e+02  -3.027970e+01
   7.532527e+01   4.568103e+01
  -2.939508e+01   5.242467e+00
  -3.908177e+01  -8.641041e+01
   7.635658e+01  -1.181471e+02
   2.083776e+02  -2.888028e+01
   1.996766e+02   1.321072e+02
   1.955972e+01   2.307558e+02
  -1.750756e+02   1.712900e+02
  -2.043442e+02   3.828519e+00
  -6.871862e+01  -1.228341e+02
   6.978073e+01  -1.181252e+02
   8.815332e+01  -3.195096e+01
   2.182345e+01   2.825758e+01
  -2.018603e+01   2.083823e+01
   1.023714e+01  -7.702343e+00
   7.227854e+01   8.645976e+00
   9.056377e+01   8.439499e+01
   1.412715e+01   1.650553e+02
  -1.333257e+02   1.600067e+02
  -2.446308e+02   2.702232e+01
  -2.096541e+02  -1.586589e+02
  -4.127746e+01  -2.509761e+02
   1.166537e+02  -1.788613e+02
   1.431971e+02  -2.765794e+01
   7.368292e+01   6.090305e+01
   2.958264e+01   4.023581e+01
   5.494712e+01  -1.087140e+01
   8.075052e+01  -6.464917e+00
   4.189398e+01   5.094719e+01
  -4.363254e+01   8.975370e+01
  -1.052682e+02   5.624552e+01
  -8.837553e+01  -3.760581e+01
   1.396987e+01  -1.152666e+02
   1.480337e+02  -8.928939e+01
   2.062859e+02   5.547158e+01
   1.049024e+02   2.133095e+02
  -1.132804e+02   2.396272e+02
  -2.808869e+02   9.810933e+01
  -2.697951e+02  -9.382562e+01
  -1.146319e+02  -1.882642e+02
   4.174833e+01  -1.550481e+02
   1.006615e+02  -8.688304e+01
   8.601181e+01  -7.031189e+01
   7.211907e+01  -9.219074e+01
   9.663619e+01  -7.526977e+01
   1.320925e+02   2.430855e+01
   1.195667e+02   1.615244e+02
   2.753180e+01   2.360744e+02
  -1.056210e+02   1.786618e+02
  -1.842225e+02   1.914360e+01
  -1.416037e+02  -1.297786e+02
  -1.824795e+01  -1.687052e+02
   7.249383e+01  -9.738178e+01
   6.513256e+01  -5.695826e-01
   6.824721e+00   4.571315e+01
  -1.085373e+01   3.784840e+01
   3.612821e+01   2.060096e+01
   8.082685e+01   2.463645e+01
   4.579413e+01   4.032645e+01
  -6.645502e+01   3.856535e+01
  -1.646122e+02   2.211539e+00
  -1.493718e+02  -5.542543e+01
  -1.577607e+01  -9.366354e+01
   1.259797e+02  -7.657526e+01
   1.511549e+02  -1.235639e+01
   5.036797e+01   4.322692e+01
  -6.217211e+01   3.819018e+01
  -7.812432e+01  -2.013820e+01
  -7.909789e+00  -6.994292e+01
   5.683152e+01  -5.903732e+01
   6.446804e+01   1.705037e+00
   4.535075e+01   5.087060e+01
   4.557501e+01   4.336500e+01
   6.440562e+01   4.044297e+00
   6.861829e+01   2.278390e+00
   3.520970e+01   7.079320e+01
  -3.637028e+01   1.505983e+02
  -1.228422e+02   1.452457e+02
  -1.711060e+02   3.275916e+01
  -1.271982e+02  -9.640098e+01
  -5.778802e+00  -1.317617e+02
   8.992776e+01  -6.305419e+01
   6.214532e+01   1.652916e+01
  -6.157921e+01   2.022700e+01
  -1.426386e+02  -4.721384e+01
  -7.789318e+01  -1.129843e+02
   8.540057e+01  -1.163169e+02
   1.997951e+02  -5.193090e+01
   1.691607e+02   3.707828e+01
   3.769946e+01   9.080856e+01
  -6.426839e+01   7.284383e+01
  -5.071799e+01   7.939185e+00
   4.061199e+01  -2.680626e+01
   9.293112e+01   2.471220e+01
   3.164207e+01   1.233300e+02
  -9.727625e+01   1.585250e+02
  -1.745105e+02   6.227925e+01
  -1.303462e+02  -1.062295e+02
  -8.446327e+00  -2.057055e+02
   9.118957e+01  -1.490383e+02
   1.098832e+02   8.628128e+00
   6.244597e+01   1.244082e+02
  -3.703922e+00   1.119918e+02
  -4.931906e+01   2.102392e+01
  -5.470024e+01  -3.327827e+01
  -2.715694e+01  -9.615622e+00
  -4.503239e+00   2.146479e+01
  -2.151124e+01  -1.553250e+01
  -5.701086e+01  -9.274218e+01
  -4.237436e+01  -1.148291e+02
   4.919675e+01  -4.688822e+01
   1.429318e+02   4.309987e+01
   1.337311e+02   7.616946e+01
   1.730423e+01   5.228236e+01
  -9.185121e+01   2.151482e+01
  -9.213420e+01   6.234248e+00
  -1.142769e+01  -8.096407e+00
   4.017692e+01  -2.299700e+01
   1.495601e+01  -1.925709e+01
  -2.187466e+01   5.603955e-01
   6.647799e+00   9.224548e+00
   7.795888e+01   5.638035e+00
   9.520063e+01   2.687881e+01
   7.484211e+00   8.381646e+01
  -1.250791e+02   1.166291e+02
  -1.934297e+02   5.780464e+01
  -1.456012e+02  -7.179641e+01
  -2.407517e+01  -1.682722e+02
   8.417717e+01  -1.544115e+02
   1.194743e+02  -5.897040e+01
   8.378354e+01   2.386818e+01
   2.565518e+01   3.743248e+01
  -3.297881e+00   9.042515e+00
   1.038563e+01   4.215959e+00
   3.386387e+01   4.808240e+01
   2.270982e+01   9.421447e+01
  -3.125163e+01   7.418923e+01
  -8.412653e+01  -2.057430e+01
  -7.832604e+01  -1.136487e+02
  -2.425447e+00  -1.160464e+02
   8.586677e+01  -2.281234e+01
   1.051632e+02   7.995742e+01
   3.096995e+01   1.073803e+02
  -6.974617e+01   5.607787e+01
  -1.007643e+02  -1.401799e+01
  -3.970402e+01  -5.293292e+01
   3.434619e+01  -5.326993e+01
   3.280483e+01  -2.940434e+01
  -3.447905e+01  -7.832909e-01
  -7.076763e+01   5.600512e+00
  -1.425383e+01  -2.595787e+01
   8.341333e+01  -6.681940e+01
   1.209150e+02  -5.881901e+01
   6.646394e+01   1.344123e+01
  -1.711841e+01   8.612296e+01
  -5.586639e+01   8.207753e+01
  -3.827337e+01   5.799653e+00
  -4.121367e-01  -5.777576e+01
   2.766676e+01  -4.374433e+01
   3.727456e+01   2.023915e+01
   2.606154e+01   5.706068e+01
  -4.023561e+00   3.393771e+01
  -3.440619e+01  -9.804962e+00
  -4.063175e+01  -2.278260e+01
  -2.132027e+01  -1.561456e+00
   6.356814e-01   1.441582e+01
   7.713301e+00  -3.202589e+00
   8.066462e+00  -3.744890e+01
   1.788136e+01  -4.503548e+01
   3.272405e+01  -6.622569e+00
   2.970245e+01   4.707978e+01
  -3.465226e+00   6.246181e+01
  -4.630634e+01   2.025587e+01
  -5.747637e+01  -4.136934e+01
  -1.409253e+01  -6.545068e+01
   5.677929e+01  -3.454115e+01
   9.133146e+01   1.713228e+01
   5.028873e+01   4.640019e+01
  -3.002068e+01   4.181271e+01
  -6.719128e+01   2.097022e+01
  -2.533469e+01   4.435287e+00
   3.827004e+01   2.944320e+00
   3.867443e+01   1.711181e+01
  -3.242839e+01   3.183985e+01
  -9.495662e+01   1.853767e+01
