
 $NMID
 id='ANONYMOUS ', fmtdat='(2E16.6)'
 volume=1.0
 tramp=1.0
 $END
  -4.245854e+03   1.425857e+02
  -2.594500e+03  -2.421996e+03
   6.753222e+02  -2.831729e+03
   2.020603e+03  -1.065820e+03
   9.761445e+02   3.700812e+02
  -4.533887e+02   4.527712e+02
  -7.536768e+02  -3.369038e+02
   6.513436e+01  -9.222805e+02
   7.361625e+02  -7.461077e+02
   8.649286e+02   4.550057e+01
   4.548658e+02   8.094542e+02
  -1.413829e+02   8.306035e+02
  -5.923413e+02   1.555739e+02
  -3.326977e+02  -6.432160e+02
   3.052637e+02  -7.209267e+02
   5.774739e+02  -3.040531e+01
   2.799167e+02   6.354459e+02
  -3.046553e+02   6.495041e+02
  -5.719561e+02   1.729308e+02
  -4.259402e+02  -2.925198e+02
  -5.805818e+01  -4.450053e+02
   2.201730e+02  -2.602109e+02
   1.877387e+02  -2.535638e+01
  -1.415821e+02   3.314330e+01
  -3.791312e+02  -1.803802e+02
  -1.353024e+02  -4.541140e+02
   4.912803e+02  -3.827913e+02
   8.167459e+02   1.306744e+02
   3.837334e+02   5.549635e+02
  -4.075238e+02   4.172100e+02
  -7.023027e+02  -8.573335e+01
  -2.856632e+02  -4.679043e+02
   3.184076e+02  -4.784193e+02
   5.656318e+02  -1.675691e+02
   3.957213e+02   2.258090e+02
   6.825818e+01   4.443500e+02
  -1.661501e+02   2.765981e+02
  -1.123208e+02  -1.700839e+02
   1.897036e+02  -3.773059e+02
   4.025166e+02   5.808461e+01
   1.759123e+02   6.757676e+02
  -3.241044e+02   6.661167e+02
  -5.552241e+02  -8.184436e+00
  -2.297907e+02  -5.238355e+02
   2.628024e+02  -2.828440e+02
   3.386595e+02   3.366250e+02
  -8.582891e+01   5.378563e+02
  -5.455353e+02   1.131396e+02
  -5.896170e+02  -4.297580e+02
  -1.659066e+02  -5.990811e+02
   3.805015e+02  -3.404202e+02
   6.270984e+02   8.382183e+01
   3.792294e+02   3.694984e+02
  -1.367071e+02   3.375573e+02
  -4.191621e+02   5.417380e+01
  -2.410771e+02  -1.667188e+02
   8.784013e+01  -9.174718e+01
   1.213645e+02   1.265255e+02
  -1.471242e+02   1.517929e+02
  -3.164856e+02  -7.125215e+01
  -1.411207e+02  -2.744822e+02
   1.858603e+02  -2.596023e+02
   3.403952e+02  -9.773764e+01
   2.319791e+02   8.618694e+01
  -1.873596e+01   2.637813e+02
  -2.651371e+02   3.576298e+02
  -3.832170e+02   2.044801e+02
  -2.883553e+02  -1.699886e+02
  -4.996056e+01  -4.420153e+02
   1.140328e+02  -3.654012e+02
   8.430225e+01  -1.120166e+02
   2.919849e+00  -2.173962e+01
   6.590464e+01  -1.197322e+02
   2.346163e+02  -1.262802e+02
   2.903054e+02   8.582220e+01
   1.351618e+02   2.954884e+02
  -1.030915e+02   2.478752e+02
  -2.332897e+02  -2.455522e+01
  -1.731646e+02  -2.711035e+02
   4.014537e+01  -2.950888e+02
   2.792891e+02  -9.421979e+01
   3.558291e+02   1.848696e+02
   1.840837e+02   3.511865e+02
  -9.055682e+01   3.049987e+02
  -2.180945e+02   1.344180e+02
  -1.543024e+02   2.760836e+01
  -1.155001e+02   4.361930e+01
  -2.522083e+02   5.699834e+01
  -4.145338e+02  -6.970608e+01
  -3.410461e+02  -2.970232e+02
   6.562633e+00  -4.583294e+02
   3.846846e+02  -4.236357e+02
   5.136989e+02  -1.934258e+02
   3.343992e+02   1.133499e+02
   3.374220e+01   3.008381e+02
  -1.365792e+02   2.395841e+02
  -6.524463e+01   2.074740e+01
   1.250479e+02  -9.462777e+01
   1.881611e+02   2.328962e+01
   3.353318e+01   1.927154e+02
  -1.603170e+02   1.556876e+02
  -1.629247e+02  -6.580488e+01
   2.529366e+01  -1.821132e+02
   1.914141e+02  -2.235987e+01
   1.623676e+02   2.522147e+02
  -3.134459e+01   3.568240e+02
  -2.411653e+02   2.036777e+02
  -3.458030e+02  -6.416761e+01
  -2.877510e+02  -2.569877e+02
  -8.551920e+01  -2.807412e+02
   1.283981e+02  -1.595070e+02
   1.807493e+02  -1.064582e+01
   5.240269e+01   3.389456e+01
  -7.238998e+01  -4.718476e+01
  -2.387465e+01  -1.296482e+02
   1.300998e+02  -9.417561e+01
   1.784636e+02   2.051082e+01
   5.289008e+01   7.344889e+01
  -8.500889e+01   8.055867e+00
  -5.289253e+01  -8.481359e+01
   1.362321e+02  -9.082021e+01
   2.982217e+02   1.175013e+01
   2.685129e+02   1.613058e+02
   4.694915e+01   2.698969e+02
  -2.048753e+02   2.589057e+02
  -2.936126e+02   1.145992e+02
  -1.651269e+02  -5.839329e+01
   3.263556e+01  -1.073223e+02
   9.040573e+01  -3.747984e+00
  -4.086325e+01   1.017939e+02
  -2.025427e+02   5.505592e+01
  -2.134295e+02  -1.087790e+02
  -6.333306e+01  -2.129587e+02
   1.016457e+02  -1.571508e+02
   1.455346e+02  -2.178195e+01
   6.304470e+01   4.648227e+01
  -3.723987e+01  -3.563434e+00
  -3.670746e+01  -9.679196e+01
   8.479007e+01  -1.198851e+02
   2.124814e+02  -2.233737e+01
   1.954882e+02   1.363810e+02
   1.423916e+01   2.269792e+02
  -1.740679e+02   1.657122e+02
  -1.986381e+02   3.629091e+00
  -6.371837e+01  -1.180704e+02
   7.082903e+01  -1.128887e+02
   8.472939e+01  -2.760851e+01
   1.349273e+01   3.086417e+01
  -2.962609e+01   1.799734e+01
   7.751591e+00  -1.584030e+01
   7.918680e+01   1.683385e+00
   9.901115e+01   8.588986e+01
   1.630492e+01   1.711677e+02
  -1.374526e+02   1.613201e+02
  -2.472610e+02   2.225312e+01
  -2.072135e+02  -1.611022e+02
  -3.811943e+01  -2.468664e+02
   1.154432e+02  -1.737629e+02
   1.411687e+02  -2.718485e+01
   7.364930e+01   5.730304e+01
   2.989136e+01   3.732088e+01
   5.586201e+01  -1.222702e+01
   8.502945e+01  -6.767603e+00
   4.722220e+01   5.328153e+01
  -4.351900e+01   9.709359e+01
  -1.113923e+02   6.213452e+01
  -9.499056e+01  -3.980918e+01
   1.536576e+01  -1.219095e+02
   1.544657e+02  -9.037661e+01
   2.075525e+02   5.976906e+01
   9.780878e+01   2.156762e+02
  -1.188828e+02   2.356105e+02
  -2.794626e+02   9.224740e+01
  -2.630175e+02  -9.477162e+01
  -1.079680e+02  -1.839310e+02
   4.318520e+01  -1.507229e+02
   9.832019e+01  -8.508838e+01
   8.063387e+01  -7.049160e+01
   6.732005e+01  -9.287487e+01
   9.486164e+01  -7.641625e+01
   1.324629e+02   2.223484e+01
   1.208013e+02   1.592640e+02
   2.857590e+01   2.337053e+02
  -1.038096e+02   1.767347e+02
  -1.814223e+02   1.860188e+01
  -1.391212e+02  -1.283768e+02
  -1.645936e+01  -1.655997e+02
   7.428185e+01  -9.323961e+01
   6.522721e+01   4.180143e+00
   2.704142e+00   4.975727e+01
  -1.747069e+01   3.864180e+01
   3.292728e+01   1.795934e+01
   8.327400e+01   2.167335e+01
   4.801163e+01   4.024016e+01
  -6.998587e+01   3.966565e+01
  -1.699916e+02   7.738010e-01
  -1.486106e+02  -5.946641e+01
  -8.728673e+00  -9.672333e+01
   1.314371e+02  -7.580413e+01
   1.507094e+02  -8.748884e+00
   4.794836e+01   4.680294e+01
  -6.229270e+01   4.013651e+01
  -7.799403e+01  -2.001196e+01
  -1.060704e+01  -7.121146e+01
   5.413904e+01  -6.031268e+01
   6.560175e+01   1.425283e+00
   4.848530e+01   5.104661e+01
   4.562581e+01   4.315900e+01
   6.119563e+01   2.804110e+00
   6.779955e+01   1.515233e+00
   3.912057e+01   7.106429e+01
  -3.235548e+01   1.518821e+02
  -1.237576e+02   1.467807e+02
  -1.755333e+02   3.381533e+01
  -1.300173e+02  -9.605080e+01
  -5.061377e+00  -1.331180e+02
   9.133021e+01  -6.578068e+01
   6.248636e+01   1.478099e+01
  -6.129214e+01   2.040200e+01
  -1.407701e+02  -4.658842e+01
  -7.524621e+01  -1.128037e+02
   8.672180e+01  -1.151273e+02
   1.985023e+02  -4.912609e+01
   1.663295e+02   3.931729e+01
   3.578862e+01   9.018499e+01
  -6.441626e+01   7.015748e+01
  -5.058601e+01   5.962432e+00
   3.987426e+01  -2.770753e+01
   9.249376e+01   2.272171e+01
   3.391883e+01   1.204528e+02
  -9.176443e+01   1.577458e+02
  -1.694234e+02   6.498040e+01
  -1.292522e+02  -1.021068e+02
  -1.062597e+01  -2.023700e+02
   8.904097e+01  -1.468583e+02
   1.090795e+02   9.893915e+00
   6.087164e+01   1.242027e+02
  -6.645497e+00   1.100200e+02
  -5.075181e+01   1.943292e+01
  -5.260698e+01  -3.297601e+01
  -2.440897e+01  -8.960992e+00
  -5.319201e+00   2.018695e+01
  -2.490570e+01  -1.784023e+01
  -5.769189e+01  -9.298465e+01
  -3.876326e+01  -1.128720e+02
   5.242089e+01  -4.615153e+01
   1.417456e+02   4.102012e+01
   1.309011e+02   7.409093e+01
   1.785292e+01   5.293607e+01
  -8.823841e+01   2.362929e+01
  -9.027825e+01   6.684489e+00
  -1.310036e+01  -9.184103e+00
   3.872005e+01  -2.279667e+01
   1.643056e+01  -1.720235e+01
  -2.024022e+01   2.116106e+00
   4.517586e+00   8.381834e+00
   7.422501e+01   2.860477e+00
   9.549556e+01   2.425083e+01
   1.327763e+01   8.279653e+01
  -1.190766e+02   1.181669e+02
  -1.923122e+02   6.174559e+01
  -1.486547e+02  -6.724510e+01
  -2.706048e+01  -1.658320e+02
   8.285957e+01  -1.550377e+02
   1.183205e+02  -6.126745e+01
   8.261783e+01   2.219409e+01
   2.619936e+01   3.725296e+01
  -8.014281e-01   1.002683e+01
   1.223795e+01   5.782910e+00
   3.304344e+01   4.925069e+01
   2.080975e+01   9.440051e+01
  -3.157234e+01   7.438035e+01
  -8.343049e+01  -1.859816e+01
  -7.981316e+01  -1.106305e+02
  -6.439234e+00  -1.154304e+02
   8.273961e+01  -2.655685e+01
   1.059214e+02   7.521064e+01
   3.429002e+01   1.064257e+02
  -6.799724e+01   5.904179e+01
  -1.020216e+02  -1.201291e+01
  -4.162666e+01  -5.462715e+01
   3.454895e+01  -5.578322e+01
   3.488703e+01  -2.905318e+01
  -3.268713e+01   1.525628e+00
  -7.090260e+01   6.399525e+00
  -1.595184e+01  -2.704143e+01
   8.240798e+01  -6.713119e+01
   1.217038e+02  -5.766413e+01
   6.833117e+01   1.410033e+01
  -1.554324e+01   8.588586e+01
  -5.578510e+01   8.300181e+01
  -3.979026e+01   9.019461e+00
  -2.910626e+00  -5.494549e+01
   2.510437e+01  -4.469172e+01
   3.602766e+01   1.694008e+01
   2.664707e+01   5.566384e+01
  -2.582646e+00   3.548136e+01
  -3.408628e+01  -8.835886e+00
  -4.145470e+01  -2.392427e+01
  -2.122310e+01  -2.332930e+00
   1.726142e+00   1.691158e+01
   7.067879e+00   7.194750e-01
   3.727650e+00  -3.663270e+01
   1.256071e+01  -4.883729e+01
   3.177432e+01  -1.183543e+01
   3.417080e+01   4.394362e+01
   1.682295e+00   6.254974e+01
  -4.540637e+01   2.222153e+01
  -6.015842e+01  -3.909356e+01
  -1.595739e+01  -6.396177e+01
   5.743880e+01  -3.512233e+01
   9.242637e+01   1.481963e+01
   5.024387e+01   4.476841e+01
  -3.006010e+01   4.273520e+01
  -6.650034e+01   2.355533e+01
  -2.561313e+01   5.738260e+00
   3.619467e+01   1.213341e+00
   3.745570e+01   1.413388e+01
  -2.990808e+01   3.064643e+01
  -9.056517e+01   2.022657e+01
