
 $NMID
 id='ANONYMOUS ', fmtdat='(2E16.6)'
 volume=1.0
 tramp=1.0
 $END
  -4.665323e+03   5.084469e+01
  -2.654508e+03  -2.590636e+03
   7.438979e+02  -2.813136e+03
   2.259495e+03  -1.141230e+03
   1.004659e+03   4.669025e+02
  -6.251160e+02   5.209929e+02
  -8.315021e+02  -4.428663e+02
  -1.107265e+01  -1.033435e+03
   7.720495e+02  -7.742263e+02
   9.172465e+02   3.177936e+01
   4.937794e+02   8.448184e+02
  -1.777781e+02   9.522512e+02
  -6.237395e+02   1.764418e+02
  -3.963131e+02  -6.942694e+02
   2.701783e+02  -7.756626e+02
   6.282535e+02  -1.550222e+00
   2.782881e+02   7.044586e+02
  -2.903598e+02   6.854621e+02
  -6.040586e+02   1.454122e+02
  -4.499526e+02  -3.292806e+02
  -5.049200e+01  -4.537033e+02
   2.387393e+02  -2.898452e+02
   2.121427e+02  -2.381808e+01
  -1.269645e+02   6.399487e+01
  -4.205535e+02  -1.476390e+02
  -1.559929e+02  -4.502760e+02
   5.120029e+02  -3.986647e+02
   8.777735e+02   1.201211e+02
   3.934325e+02   5.668435e+02
  -4.373212e+02   4.605132e+02
  -7.591314e+02  -7.338401e+01
  -3.236812e+02  -4.965543e+02
   3.151132e+02  -5.070332e+02
   5.904448e+02  -1.804952e+02
   4.282708e+02   2.455095e+02
   7.190919e+01   4.956664e+02
  -1.963352e+02   2.991201e+02
  -1.634412e+02  -1.980991e+02
   1.787407e+02  -4.195215e+02
   4.390340e+02   4.164537e+01
   2.208563e+02   7.103496e+02
  -3.442543e+02   7.096837e+02
  -6.146472e+02  -6.251343e+00
  -2.503804e+02  -5.712034e+02
   2.960274e+02  -3.172837e+02
   3.754804e+02   3.537163e+02
  -8.809418e+01   5.763497e+02
  -5.874553e+02   1.338470e+02
  -6.203536e+02  -4.472994e+02
  -1.727042e+02  -6.304981e+02
   3.971216e+02  -3.618751e+02
   6.558593e+02   8.762603e+01
   3.957397e+02   4.008317e+02
  -1.469193e+02   3.709399e+02
  -4.516207e+02   5.904305e+01
  -2.608806e+02  -1.870118e+02
   1.010116e+02  -1.003177e+02
   1.402095e+02   1.467835e+02
  -1.596809e+02   1.745936e+02
  -3.499994e+02  -7.837625e+01
  -1.520057e+02  -3.009213e+02
   2.083900e+02  -2.708399e+02
   3.617864e+02  -8.804030e+01
   2.291886e+02   9.164430e+01
  -2.525303e+01   2.561743e+02
  -2.552886e+02   3.590179e+02
  -3.751894e+02   2.267323e+02
  -3.047043e+02  -1.522674e+02
  -7.334706e+01  -4.569541e+02
   1.177138e+02  -3.991948e+02
   1.122257e+02  -1.260082e+02
   1.848919e+01  -6.549588e+00
   5.400950e+01  -1.052235e+02
   2.206870e+02  -1.359382e+02
   3.020805e+02   6.767937e+01
   1.652971e+02   2.984155e+02
  -8.286842e+01   2.721168e+02
  -2.412436e+02  -2.402923e+00
  -1.976676e+02  -2.693097e+02
   2.557652e+01  -3.092937e+02
   2.840080e+02  -1.063193e+02
   3.726992e+02   1.884087e+02
   1.908847e+02   3.684881e+02
  -9.796174e+01   3.195817e+02
  -2.285730e+02   1.330057e+02
  -1.602484e+02   1.600756e+01
  -1.173494e+02   3.993348e+01
  -2.592290e+02   6.181987e+01
  -4.288545e+02  -6.752860e+01
  -3.501430e+02  -3.082855e+02
   8.472920e+00  -4.748591e+02
   3.945161e+02  -4.395972e+02
   5.262735e+02  -2.040122e+02
   3.508982e+02   1.091932e+02
   4.367713e+01   3.108982e+02
  -1.414702e+02   2.572399e+02
  -7.509886e+01   2.745063e+01
   1.266967e+02  -1.050358e+02
   2.041609e+02   1.484991e+01
   4.524391e+01   2.034271e+02
  -1.692985e+02   1.719064e+02
  -1.791475e+02  -6.534308e+01
   2.476311e+01  -1.961870e+02
   2.050304e+02  -2.689076e+01
   1.710708e+02   2.649014e+02
  -3.666291e+01   3.722291e+02
  -2.520768e+02   2.075257e+02
  -3.556367e+02  -6.897230e+01
  -2.969828e+02  -2.620573e+02
  -9.352728e+01  -2.880916e+02
   1.278966e+02  -1.720492e+02
   1.897161e+02  -2.060682e+01
   6.080125e+01   3.277084e+01
  -7.149526e+01  -4.407209e+01
  -2.546460e+01  -1.317164e+02
   1.346121e+02  -1.002878e+02
   1.876217e+02   1.810385e+01
   5.795445e+01   7.605694e+01
  -8.673129e+01   1.086832e+01
  -5.563172e+01  -8.496525e+01
   1.381560e+02  -9.264613e+01
   3.053001e+02   9.755018e+00
   2.782785e+02   1.614187e+02
   5.454923e+01   2.757485e+02
  -2.051606e+02   2.699824e+02
  -3.031925e+02   1.232815e+02
  -1.766058e+02  -5.884115e+01
   2.893514e+01  -1.131960e+02
   9.512604e+01  -5.837788e+00
  -3.700426e+01   1.055492e+02
  -2.068352e+02   5.805296e+01
  -2.230822e+02  -1.123410e+02
  -6.984743e+01  -2.211513e+02
   1.029150e+02  -1.646696e+02
   1.527702e+02  -2.538145e+01
   7.041568e+01   4.704349e+01
  -3.470352e+01  -1.251283e+00
  -3.920925e+01  -9.692399e+01
   8.268539e+01  -1.239104e+02
   2.165847e+02  -2.642103e+01
   2.042111e+02   1.379106e+02
   1.952745e+01   2.340463e+02
  -1.768111e+02   1.717585e+02
  -2.052423e+02   4.201986e+00
  -6.777455e+01  -1.210611e+02
   7.140136e+01  -1.156602e+02
   8.727658e+01  -2.926458e+01
   1.647933e+01   2.921785e+01
  -2.647435e+01   1.720490e+01
   9.455151e+00  -1.462277e+01
   7.867464e+01   4.327164e+00
   9.826913e+01   8.804614e+01
   1.649772e+01   1.734475e+02
  -1.376147e+02   1.645348e+02
  -2.514712e+02   2.425881e+01
  -2.133668e+02  -1.646614e+02
  -4.178583e+01  -2.545746e+02
   1.175710e+02  -1.800158e+02
   1.449233e+02  -2.800831e+01
   7.553958e+01   5.888991e+01
   3.136320e+01   3.721646e+01
   5.859722e+01  -1.411307e+01
   8.796283e+01  -6.853757e+00
   4.840201e+01   5.603510e+01
  -4.432138e+01   9.887836e+01
  -1.130347e+02   6.224674e+01
  -9.629812e+01  -4.017260e+01
   1.378088e+01  -1.222293e+02
   1.555480e+02  -9.212858e+01
   2.124194e+02   5.942061e+01
   1.032699e+02   2.196220e+02
  -1.204299e+02   2.429437e+02
  -2.886618e+02   9.754769e+01
  -2.732641e+02  -9.660670e+01
  -1.133610e+02  -1.909774e+02
   4.369027e+01  -1.564840e+02
   1.005425e+02  -8.822557e+01
   8.338533e+01  -7.296472e+01
   7.104594e+01  -9.671519e+01
   9.963810e+01  -7.938274e+01
   1.372833e+02   2.371090e+01
   1.236090e+02   1.650036e+02
   2.847108e+01   2.410583e+02
  -1.070094e+02   1.820525e+02
  -1.864210e+02   1.912159e+01
  -1.435297e+02  -1.322836e+02
  -1.829775e+01  -1.712382e+02
   7.461858e+01  -9.756415e+01
   6.682551e+01   1.881601e+00
   5.044220e+00   4.844246e+01
  -1.456490e+01   3.820653e+01
   3.553661e+01   1.881756e+01
   8.471076e+01   2.351387e+01
   4.887287e+01   4.166867e+01
  -6.951466e+01   4.053449e+01
  -1.716609e+02   1.518158e+00
  -1.533048e+02  -5.942998e+01
  -1.286176e+01  -9.813667e+01
   1.322473e+02  -7.827095e+01
   1.553360e+02  -1.065608e+01
   5.058871e+01   4.616526e+01
  -6.408893e+01   3.945934e+01
  -7.993628e+01  -2.189538e+01
  -8.407214e+00  -7.355561e+01
   5.835727e+01  -6.129190e+01
   6.782753e+01   2.552970e+00
   4.873960e+01   5.348211e+01
   4.736399e+01   4.518932e+01
   6.504444e+01   3.863242e+00
   7.013011e+01   2.428511e+00
   3.791596e+01   7.340791e+01
  -3.582541e+01   1.559397e+02
  -1.272780e+02   1.501765e+02
  -1.783341e+02   3.421133e+01
  -1.318737e+02  -9.904653e+01
  -4.798288e+00  -1.362006e+02
   9.386306e+01  -6.595655e+01
   6.417998e+01   1.678159e+01
  -6.359345e+01   2.183610e+01
  -1.462883e+02  -4.745603e+01
  -7.913931e+01  -1.157391e+02
   8.785295e+01  -1.187510e+02
   2.036226e+02  -5.178762e+01
   1.713021e+02   3.893503e+01
   3.746869e+01   9.175690e+01
  -6.529764e+01   7.189683e+01
  -5.101353e+01   6.001386e+00
   4.191284e+01  -2.810114e+01
   9.548973e+01   2.494323e+01
   3.434015e+01   1.256730e+02
  -9.602203e+01   1.627201e+02
  -1.759053e+02   6.601619e+01
  -1.335580e+02  -1.059540e+02
  -1.055987e+01  -2.087274e+02
   9.182514e+01  -1.519452e+02
   1.120482e+02   8.845105e+00
   6.304597e+01   1.268810e+02
  -5.411949e+00   1.136186e+02
  -5.093761e+01   2.090259e+01
  -5.421542e+01  -3.367563e+01
  -2.579386e+01  -9.274874e+00
  -5.104390e+00   2.139998e+01
  -2.459280e+01  -1.729526e+01
  -5.945226e+01  -9.537123e+01
  -4.162224e+01  -1.167423e+02
   5.245815e+01  -4.771108e+01
   1.462192e+02   4.273343e+01
   1.358167e+02   7.650594e+01
   1.836909e+01   5.363896e+01
  -9.174285e+01   2.336452e+01
  -9.314991e+01   7.028936e+00
  -1.268502e+01  -8.673011e+00
   4.026449e+01  -2.351835e+01
   1.629080e+01  -1.864238e+01
  -2.136701e+01   1.696021e+00
   5.292062e+00   9.358297e+00
   7.724827e+01   4.185196e+00
   9.765386e+01   2.556369e+01
   1.165455e+01   8.493726e+01
  -1.241542e+02   1.206999e+02
  -1.980975e+02   6.224159e+01
  -1.524675e+02  -7.059873e+01
  -2.768031e+01  -1.715490e+02
   8.525481e+01  -1.596701e+02
   1.223106e+02  -6.283161e+01
   8.586948e+01   2.288523e+01
   2.719538e+01   3.799282e+01
  -1.450809e+00   9.688317e+00
   1.193531e+01   5.281061e+00
   3.422415e+01   5.008860e+01
   2.220985e+01   9.665123e+01
  -3.175699e+01   7.609342e+01
  -8.532237e+01  -1.969661e+01
  -8.104181e+01  -1.141977e+02
  -5.133844e+00  -1.181679e+02
   8.593072e+01  -2.568508e+01
   1.085005e+02   7.870790e+01
   3.397178e+01   1.093911e+02
  -7.068346e+01   5.962762e+01
  -1.046143e+02  -1.268921e+01
  -4.210263e+01  -5.509681e+01
   3.561394e+01  -5.631176e+01
   3.535744e+01  -2.995555e+01
  -3.440373e+01   7.315122e-01
  -7.328883e+01   6.167998e+00
  -1.623939e+01  -2.766954e+01
   8.474720e+01  -6.891413e+01
   1.246384e+02  -5.929272e+01
   6.952452e+01   1.472264e+01
  -1.666672e+01   8.810898e+01
  -5.734955e+01   8.397567e+01
  -4.007305e+01   7.235828e+00
  -1.694309e+00  -5.754049e+01
   2.707633e+01  -4.491929e+01
   3.764925e+01   1.916165e+01
   2.710959e+01   5.773501e+01
  -3.335970e+00   3.596206e+01
  -3.532357e+01  -9.066821e+00
  -4.243211e+01  -2.402828e+01
  -2.207497e+01  -2.394247e+00
   1.189659e+00   1.607252e+01
   7.405267e+00  -7.814959e-01
   5.397091e+00  -3.802839e+01
   1.505163e+01  -4.900640e+01
   3.327927e+01  -1.054136e+01
   3.379593e+01   4.652726e+01
   1.406011e-01   6.484675e+01
  -4.691373e+01   2.247737e+01
  -6.108246e+01  -4.117948e+01
  -1.609453e+01  -6.668662e+01
   5.864740e+01  -3.621151e+01
   9.478330e+01   1.602988e+01
   5.200006e+01   4.653476e+01
  -3.054199e+01   4.364338e+01
  -6.838667e+01   2.350121e+01
  -2.604243e+01   5.452022e+00
   3.795666e+01   1.479795e+00
   3.882493e+01   1.517258e+01
  -3.175769e+01   3.198345e+01
  -9.450238e+01   2.061775e+01
