
 $NMID
 id='ANONYMOUS ', fmtdat='(2E16.6)'
 volume=1.0
 tramp=1.0
 $END
   3.256126e+03   1.342662e+01
   2.086160e+03   1.942703e+03
  -1.152052e+02   2.133899e+03
  -1.541374e+03   1.029599e+03
  -8.793774e+02   1.657417e+01
   1.290576e+02  -2.881028e+02
   5.324639e+02   2.049611e+02
  -2.546125e+01   6.922397e+02
  -5.025445e+02   5.754657e+02
  -6.387625e+02   2.064550e+00
  -3.957659e+02  -6.452099e+02
   7.678554e+01  -6.914808e+02
   3.738084e+02  -1.934470e+02
   2.412015e+02   4.440672e+02
  -2.049460e+02   5.578354e+02
  -4.364717e+02   5.092195e+00
  -2.670553e+02  -4.996949e+02
   1.994723e+02  -6.113188e+02
   4.637748e+02  -2.120296e+02
   4.026714e+02   1.877555e+02
   1.163864e+02   3.430100e+02
  -1.205040e+02   2.529176e+02
  -9.666064e+01   8.655957e+01
   1.718465e+02   6.910750e+01
   2.956072e+02   2.416132e+02
   5.615385e+00   3.650053e+02
  -4.487446e+02   1.828795e+02
  -6.247319e+02  -1.873326e+02
  -2.434513e+02  -3.892223e+02
   3.338069e+02  -2.457257e+02
   5.233505e+02   1.076420e+02
   2.005778e+02   3.799385e+02
  -2.647950e+02   3.769303e+02
  -4.626221e+02   1.403180e+02
  -3.215143e+02  -1.642497e+02
  -8.206699e+01  -3.262440e+02
   4.526913e+01  -1.834476e+02
  -1.228142e+01   1.242888e+02
  -1.773487e+02   1.869811e+02
  -2.160182e+02  -1.252985e+02
  -3.477427e+01  -4.986108e+02
   2.400644e+02  -4.551622e+02
   3.406434e+02  -4.908871e+00
   1.381951e+02   3.226859e+02
  -1.509327e+02   1.506842e+02
  -1.851755e+02  -2.604413e+02
   1.057515e+02  -3.698952e+02
   4.298039e+02  -5.386960e+01
   4.778534e+02   3.594130e+02
   1.545108e+02   4.843195e+02
  -2.907455e+02   2.766313e+02
  -5.123348e+02  -4.775739e+01
  -3.405031e+02  -2.546254e+02
   5.276988e+01  -2.397954e+02
   2.965927e+02  -8.013207e+01
   2.142231e+02   5.086884e+01
  -5.146156e+00   3.683120e+01
  -5.624727e+01  -5.675958e+01
   1.018999e+02  -6.904922e+01
   2.266936e+02   5.095126e+01
   1.168981e+02   1.972777e+02
  -1.492021e+02   2.368751e+02
  -3.227060e+02   1.279326e+02
  -2.496614e+02  -8.597674e+01
   1.253043e+01  -2.987693e+02
   2.725060e+02  -3.576903e+02
   3.589870e+02  -1.682907e+02
   2.424266e+02   1.593413e+02
   5.254804e+01   3.652118e+02
  -4.854543e+01   3.149237e+02
  -3.417017e+01   1.495604e+02
  -2.459779e+01   8.155264e+01
  -1.133209e+02   1.142478e+02
  -2.353904e+02   7.450756e+01
  -2.461557e+02  -1.043216e+02
  -1.014970e+02  -2.603242e+02
   9.650769e+01  -2.079049e+02
   2.038630e+02   3.116071e+01
   1.449113e+02   2.469366e+02
  -4.858027e+01   2.558947e+02
  -2.521792e+02   6.700772e+01
  -3.063819e+02  -1.717739e+02
  -1.606390e+02  -2.928250e+02
   5.675231e+01  -2.576153e+02
   1.623907e+02  -1.479540e+02
   1.380773e+02  -7.676550e+01
   1.391044e+02  -6.743953e+01
   2.684461e+02  -3.913878e+01
   3.967561e+02   8.885116e+01
   3.083992e+02   2.851466e+02
  -2.103930e+01   4.188348e+02
  -3.640661e+02   3.844090e+02
  -4.635202e+02   1.719419e+02
  -2.864953e+02  -9.992318e+01
  -2.499855e+01  -2.533734e+02
   9.864303e+01  -1.986644e+02
   2.421773e+01  -3.189239e+01
  -1.120412e+02   4.885562e+01
  -1.345637e+02  -3.618412e+01
  -1.187895e+01  -1.472142e+02
   1.209926e+02  -1.088390e+02
   1.160133e+02   5.354102e+01
  -2.631172e+01   1.347711e+02
  -1.574786e+02   1.881578e+00
  -1.444348e+02  -2.288886e+02
   2.038119e+01  -3.288483e+02
   2.282168e+02  -1.976739e+02
   3.383369e+02   5.940625e+01
   2.687290e+02   2.510726e+02
   6.268898e+01   2.639916e+02
  -1.227954e+02   1.347282e+02
  -1.487061e+02   2.935162e+00
  -3.527200e+01  -1.847495e+01
   5.291566e+01   5.709043e+01
   1.305247e+00   1.125821e+02
  -1.187352e+02   6.901641e+01
  -1.450421e+02  -2.356320e+01
  -3.446581e+01  -5.471248e+01
   7.782006e+01   8.516243e+00
   3.921857e+01   8.697323e+01
  -1.404787e+02   8.456487e+01
  -2.916421e+02  -1.925003e+01
  -2.529255e+02  -1.638801e+02
  -3.032178e+01  -2.573547e+02
   2.039876e+02  -2.312948e+02
   2.679822e+02  -9.503341e+01
   1.383325e+02   4.857448e+01
  -3.142264e+01   8.205891e+01
  -6.831889e+01  -1.595497e+00
   4.820724e+01  -7.924531e+01
   1.795007e+02  -3.558669e+01
   1.831777e+02   9.831408e+01
   5.453691e+01   1.821907e+02
  -8.663455e+01   1.336572e+02
  -1.231299e+02   1.762943e+01
  -4.693572e+01  -3.797013e+01
   4.149035e+01   1.507413e+01
   3.050899e+01   1.036384e+02
  -8.998797e+01   1.171110e+02
  -2.042778e+02   1.656048e+01
  -1.795830e+02  -1.297877e+02
  -1.241241e+01  -2.053968e+02
   1.528901e+02  -1.490876e+02
   1.734964e+02  -1.095545e+01
   5.709374e+01   9.440406e+01
  -5.951584e+01   9.554398e+01
  -7.108917e+01   2.636040e+01
  -4.575146e+00  -2.434404e+01
   3.621255e+01  -1.154924e+01
  -5.126272e+00   2.237673e+01
  -8.346226e+01   2.767597e+00
  -1.035112e+02  -8.523744e+01
  -1.464811e+01  -1.679954e+02
   1.360406e+02  -1.499377e+02
   2.320047e+02  -1.374342e+01
   1.877562e+02   1.509318e+02
   3.638560e+01   2.209227e+02
  -9.879827e+01   1.552449e+02
  -1.261995e+02   2.991461e+01
  -7.148531e+01  -4.404862e+01
  -3.161174e+01  -3.021157e+01
  -5.123502e+01   1.305823e+01
  -8.220710e+01   8.071244e+00
  -5.431326e+01  -5.224597e+01
   3.683938e+01  -1.005931e+02
   1.173768e+02  -6.695185e+01
   1.034504e+02   3.993425e+01
  -1.470187e+01   1.235323e+02
  -1.565134e+02   8.878048e+01
  -1.996046e+02  -6.008043e+01
  -8.396810e+01  -2.049445e+02
   1.197152e+02  -2.167023e+02
   2.593827e+02  -8.136161e+01
   2.378265e+02   8.748859e+01
   9.695136e+01   1.655203e+02
  -3.927908e+01   1.356278e+02
  -8.733555e+01   7.702601e+01
  -6.884421e+01   6.607951e+01
  -5.618631e+01   8.999891e+01
  -8.605548e+01   7.658871e+01
  -1.266579e+02  -1.759049e+01
  -1.153014e+02  -1.491246e+02
  -2.551402e+01  -2.181817e+02
   9.769489e+01  -1.603820e+02
   1.647980e+02  -1.063647e+01
   1.219435e+02   1.224273e+02
   9.017208e+00   1.508007e+02
  -7.247846e+01   7.951287e+01
  -6.102408e+01  -1.188750e+01
   1.854787e+00  -5.249861e+01
   2.418969e+01  -3.804916e+01
  -2.598413e+01  -1.398585e+01
  -7.969015e+01  -1.620307e+01
  -4.760907e+01  -3.628751e+01
   6.961012e+01  -3.860300e+01
   1.668318e+02  -1.187761e+00
   1.404755e+02   5.872726e+01
   1.808220e+00   9.531564e+01
  -1.288406e+02   7.356733e+01
  -1.417140e+02   6.550177e+00
  -4.455696e+01  -4.930672e+01
   5.743939e+01  -4.368611e+01
   7.610561e+01   1.679969e+01
   1.904842e+01   7.084142e+01
  -4.446966e+01   6.307215e+01
  -6.618152e+01   2.022279e+00
  -5.517504e+01  -4.845484e+01
  -4.606407e+01  -4.087901e+01
  -5.351022e+01  -1.238860e+00
  -6.299630e+01  -1.024303e+00
  -4.295788e+01  -6.979406e+01
   2.517125e+01  -1.470790e+02
   1.194168e+02  -1.412680e+02
   1.730152e+02  -3.439262e+01
   1.269031e+02   8.910869e+01
   4.289941e+00   1.278724e+02
  -8.795063e+01   6.818529e+01
  -6.056021e+01  -9.249756e+00
   5.485197e+01  -2.074302e+01
   1.291207e+02   3.798299e+01
   6.979205e+01   1.014792e+02
  -7.869363e+01   1.060608e+02
  -1.814444e+02   4.388269e+01
  -1.511746e+02  -3.904210e+01
  -2.995652e+01  -8.260839e+01
   6.197488e+01  -5.924019e+01
   4.737621e+01   1.445861e+00
  -3.774031e+01   3.026785e+01
  -8.848707e+01  -1.867592e+01
  -3.857184e+01  -1.110872e+02
   7.504010e+01  -1.493082e+02
   1.504213e+02  -6.736188e+01
   1.219515e+02   8.730738e+01
   1.737679e+01   1.840097e+02
  -7.788873e+01   1.356920e+02
  -1.010292e+02  -9.091193e+00
  -5.521553e+01  -1.144771e+02
   1.086824e+01  -9.993857e+01
   4.923693e+01  -1.638946e+01
   4.400601e+01   2.986789e+01
   1.630221e+01   7.366986e+00
   5.387391e+00  -1.696186e+01
   2.925663e+01   1.874463e+01
   5.659732e+01   8.460649e+01
   3.245745e+01   1.004993e+02
  -5.248007e+01   4.183882e+01
  -1.301772e+02  -3.432168e+01
  -1.185498e+02  -6.588035e+01
  -1.838377e+01  -5.114550e+01
   7.727859e+01  -2.533052e+01
   8.353591e+01  -6.056741e+00
   1.719845e+01   1.089930e+01
  -3.304254e+01   2.110846e+01
  -1.894075e+01   1.320525e+01
   1.398825e+01  -3.503211e+00
  -2.958542e+00  -5.967204e+00
  -6.404967e+01   6.364093e-01
  -8.938881e+01  -1.997623e+01
  -2.121588e+01  -7.686021e+01
   1.021109e+02  -1.140048e+02
   1.795247e+02  -6.612668e+01
   1.466447e+02   5.385204e+01
   3.267972e+01   1.520312e+02
  -7.504328e+01   1.497282e+02
  -1.109591e+02   6.428953e+01
  -7.757350e+01  -1.766841e+01
  -2.572086e+01  -3.630391e+01
  -2.072719e+00  -1.228932e+01
  -1.316643e+01  -7.679496e+00
  -2.979532e+01  -4.696136e+01
  -1.824212e+01  -8.768308e+01
   2.757314e+01  -6.951587e+01
   7.567643e+01   1.364894e+01
   7.777048e+01   9.687051e+01
   1.474822e+01   1.058089e+02
  -7.114588e+01   3.154665e+01
  -1.016729e+02  -6.119799e+01
  -3.971152e+01  -9.860230e+01
   6.032681e+01  -6.276023e+01
   9.990478e+01   5.913152e+00
   4.521950e+01   5.533106e+01
  -3.165424e+01   6.016938e+01
  -3.811897e+01   2.899476e+01
   2.495992e+01  -5.874245e+00
   6.568883e+01  -9.642248e+00
   1.810794e+01   2.570171e+01
  -7.468608e+01   6.406374e+01
  -1.155593e+02   5.313266e+01
  -6.814680e+01  -1.462338e+01
   1.234009e+01  -8.139057e+01
   5.457666e+01  -8.043807e+01
   4.243581e+01  -1.279301e+01
   7.171638e+00   5.029666e+01
  -2.204417e+01   4.679065e+01
  -3.565168e+01  -9.396018e+00
  -2.844965e+01  -5.136296e+01
  -1.583041e-02  -3.807570e+01
   3.213242e+01   4.789230e+00
   4.053097e+01   2.377945e+01
   1.953224e+01   3.779581e+00
  -4.620738e+00  -1.952870e+01
  -6.764911e+00  -8.183696e+00
   4.586723e+00   3.023085e+01
   4.189166e-01   4.992423e+01
  -2.473566e+01   2.092694e+01
  -3.949430e+01  -3.237629e+01
  -1.343922e+01  -5.618634e+01
   3.788564e+01  -2.512128e+01
   6.051618e+01   3.004898e+01
   2.004787e+01   5.686784e+01
  -5.371556e+01   3.554827e+01
  -8.953778e+01  -9.127833e+00
  -4.949485e+01  -4.070656e+01
   2.677937e+01  -4.437808e+01
   6.246404e+01  -2.783675e+01
   2.780883e+01  -6.684572e+00
  -2.737651e+01   3.741823e+00
  -3.249839e+01  -5.955533e+00
   2.183501e+01  -2.495691e+01
   7.504461e+01  -2.121136e+01
