
 $NMID
 id='ANONYMOUS ', fmtdat='(2E16.6)'
 volume=1.0
 tramp=1.0
 $END
   3.153527e+03  -2.263952e+01
   1.937833e+03   1.700297e+03
  -7.404620e+01   1.976641e+03
  -1.355050e+03   1.240194e+03
  -8.777586e+02   1.099862e+02
   1.038743e+01  -3.045090e+02
   3.751180e+02   8.928308e+01
   1.008668e+02   5.051627e+02
  -4.340279e+02   6.171407e+02
  -6.688365e+02   8.063215e+01
  -3.860812e+02  -4.943489e+02
   2.780492e+01  -6.304775e+02
   3.100939e+02  -2.210564e+02
   2.957323e+02   3.854273e+02
  -1.183860e+02   5.645625e+02
  -3.930370e+02   5.841481e+01
  -3.067071e+02  -4.772546e+02
   1.252171e+02  -5.813584e+02
   4.539022e+02  -2.582303e+02
   4.164397e+02   1.812199e+02
   1.156848e+02   3.237341e+02
  -1.221438e+02   2.400086e+02
  -9.120428e+01   6.687139e+01
   1.598676e+02   9.057643e+01
   2.639336e+02   2.655592e+02
   5.857827e+00   3.257156e+02
  -4.343972e+02   1.596222e+02
  -5.780569e+02  -1.660470e+02
  -1.905908e+02  -3.466587e+02
   3.105804e+02  -2.143308e+02
   4.730783e+02   1.060965e+02
   1.959055e+02   3.325187e+02
  -2.297100e+02   3.488464e+02
  -4.351246e+02   1.234596e+02
  -3.196413e+02  -1.437827e+02
  -7.633855e+01  -2.928733e+02
   3.934140e+01  -1.819681e+02
  -1.141615e+01   8.282709e+01
  -1.506647e+02   1.541713e+02
  -1.928841e+02  -1.401425e+02
  -2.608738e+01  -4.607387e+02
   2.148742e+02  -4.113379e+02
   3.018083e+02  -1.264358e+01
   1.203994e+02   2.869102e+02
  -1.278769e+02   1.320470e+02
  -1.513391e+02  -2.350856e+02
   1.023646e+02  -3.540310e+02
   4.011249e+02  -7.033462e+01
   4.561776e+02   3.191183e+02
   1.639627e+02   4.534072e+02
  -2.549643e+02   2.732894e+02
  -4.776378e+02  -2.833202e+01
  -3.289259e+02  -2.281422e+02
   3.482962e+01  -2.248434e+02
   2.698198e+02  -8.818989e+01
   2.069930e+02   2.665650e+01
   1.046667e+01   2.693505e+01
  -4.819461e+01  -4.136004e+01
   8.519951e+01  -5.559711e+01
   2.048507e+02   3.896977e+01
   1.184869e+02   1.718008e+02
  -1.267405e+02   2.247229e+02
  -3.067399e+02   1.316797e+02
  -2.520043e+02  -8.324010e+01
   3.857736e+00  -3.016584e+02
   2.679394e+02  -3.568585e+02
   3.556166e+02  -1.650091e+02
   2.405974e+02   1.515540e+02
   6.029446e+01   3.479161e+02
  -3.339572e+01   3.083614e+02
  -2.873325e+01   1.618378e+02
  -3.570686e+01   9.367056e+01
  -1.251483e+02   1.072434e+02
  -2.294769e+02   5.725898e+01
  -2.285723e+02  -1.071157e+02
  -9.456277e+01  -2.448372e+02
   8.387205e+01  -1.925577e+02
   1.857461e+02   3.068166e+01
   1.368504e+02   2.329681e+02
  -4.105225e+01   2.401286e+02
  -2.351597e+02   5.881727e+01
  -2.906537e+02  -1.649410e+02
  -1.580366e+02  -2.792986e+02
   4.521546e+01  -2.428518e+02
   1.484574e+02  -1.432238e+02
   1.342244e+02  -7.946729e+01
   1.401483e+02  -6.994874e+01
   2.633870e+02  -3.616896e+01
   3.844092e+02   8.810013e+01
   2.981782e+02   2.712362e+02
  -1.736857e+01   4.039984e+02
  -3.473977e+02   3.758830e+02
  -4.441528e+02   1.724669e+02
  -2.749397e+02  -8.686676e+01
  -2.703421e+01  -2.366177e+02
   8.315287e+01  -1.923232e+02
   1.307806e+01  -3.966166e+01
  -1.084880e+02   3.853971e+01
  -1.198671e+02  -3.268189e+01
  -6.960482e+00  -1.314270e+02
   1.073415e+02  -9.714135e+01
   9.945099e+01   4.681043e+01
  -2.685529e+01   1.179460e+02
  -1.494546e+02  -1.809970e+00
  -1.413322e+02  -2.162499e+02
   1.384960e+01  -3.152728e+02
   2.199716e+02  -1.972968e+02
   3.359357e+02   4.864381e+01
   2.702667e+02   2.391871e+02
   6.610761e+01   2.585451e+02
  -1.185899e+02   1.384821e+02
  -1.452388e+02   1.240384e+01
  -3.787430e+01  -1.105407e+01
   4.520627e+01   5.514334e+01
  -2.588330e+00   1.025345e+02
  -1.127695e+02   6.115702e+01
  -1.346569e+02  -2.220661e+01
  -3.018442e+01  -4.782701e+01
   7.351815e+01   1.230186e+01
   3.383683e+01   8.519686e+01
  -1.382380e+02   8.209808e+01
  -2.810834e+02  -1.733375e+01
  -2.421731e+02  -1.567275e+02
  -2.926111e+01  -2.472113e+02
   1.923902e+02  -2.224458e+02
   2.518884e+02  -9.271515e+01
   1.304542e+02   4.290419e+01
  -2.634846e+01   7.463416e+01
  -5.929669e+01  -2.446371e+00
   4.862505e+01  -7.324612e+01
   1.692384e+02  -3.141539e+01
   1.727594e+02   9.366244e+01
   5.373013e+01   1.718707e+02
  -7.827329e+01   1.263140e+02
  -1.135624e+02   1.824434e+01
  -4.310658e+01  -3.190945e+01
   3.856461e+01   2.032614e+01
   2.544824e+01   1.036277e+02
  -9.047711e+01   1.130475e+02
  -1.978968e+02   1.463612e+01
  -1.723893e+02  -1.241529e+02
  -1.398066e+01  -1.947815e+02
   1.408765e+02  -1.426591e+02
   1.605347e+02  -1.488522e+01
   5.403431e+01   8.396479e+01
  -5.239186e+01   8.789217e+01
  -6.260137e+01   2.513155e+01
  -2.198145e+00  -2.138926e+01
   3.313313e+01  -8.540881e+00
  -7.843682e+00   2.438130e+01
  -8.240621e+01   4.154494e+00
  -9.986274e+01  -8.346322e+01
  -1.308326e+01  -1.651137e+02
   1.315681e+02  -1.470433e+02
   2.228153e+02  -1.308362e+01
   1.811662e+02   1.462770e+02
   3.835691e+01   2.127731e+02
  -9.092853e+01   1.510431e+02
  -1.196348e+02   3.266202e+01
  -7.087559e+01  -3.944490e+01
  -3.327647e+01  -2.829337e+01
  -5.223678e+01   1.223819e+01
  -8.098236e+01   8.014804e+00
  -5.358408e+01  -5.177746e+01
   3.512430e+01  -1.000281e+02
   1.152145e+02  -6.725623e+01
   1.037801e+02   3.947615e+01
  -1.381754e+01   1.237873e+02
  -1.535718e+02   8.899310e+01
  -1.955666e+02  -5.829327e+01
  -8.334547e+01  -1.997299e+02
   1.140641e+02  -2.094739e+02
   2.491356e+02  -7.900825e+01
   2.301415e+02   8.103220e+01
   9.567651e+01   1.554734e+02
  -3.455915e+01   1.289135e+02
  -8.154727e+01   7.636746e+01
  -6.482945e+01   6.748122e+01
  -5.340229e+01   8.945820e+01
  -8.344241e+01   7.533389e+01
  -1.242784e+02  -1.561276e+01
  -1.142913e+02  -1.427280e+02
  -2.724447e+01  -2.106859e+02
   9.274288e+01  -1.565946e+02
   1.589134e+02  -1.249882e+01
   1.187869e+02   1.171451e+02
   9.824919e+00   1.456409e+02
  -6.961428e+01   7.659520e+01
  -5.935105e+01  -1.232731e+01
   1.758450e+00  -5.094621e+01
   2.391669e+01  -3.538985e+01
  -2.513195e+01  -1.168146e+01
  -7.828061e+01  -1.564289e+01
  -4.706275e+01  -3.695470e+01
   6.792344e+01  -3.881882e+01
   1.628350e+02  -8.432253e-01
   1.360889e+02   5.810272e+01
   2.739611e-01   9.284072e+01
  -1.256411e+02   7.119931e+01
  -1.365230e+02   6.393864e+00
  -4.245687e+01  -4.763564e+01
   5.492020e+01  -4.282370e+01
   7.316959e+01   1.528294e+01
   1.956567e+01   6.868766e+01
  -4.124868e+01   6.264981e+01
  -6.433657e+01   3.784759e+00
  -5.568218e+01  -4.623257e+01
  -4.609486e+01  -3.960276e+01
  -5.168150e+01  -9.737306e-01
  -6.099731e+01  -7.862713e-01
  -4.357494e+01  -6.806672e+01
   2.229863e+01  -1.441106e+02
   1.158949e+02  -1.387319e+02
   1.697231e+02  -3.425277e+01
   1.246246e+02   8.651222e+01
   4.214015e+00   1.243088e+02
  -8.569824e+01   6.628091e+01
  -5.871288e+01  -8.651024e+00
   5.362443e+01  -2.009290e+01
   1.252209e+02   3.645987e+01
   6.734316e+01   9.785230e+01
  -7.590928e+01   1.024111e+02
  -1.746817e+02   4.308634e+01
  -1.453016e+02  -3.593409e+01
  -2.894039e+01  -7.822368e+01
   5.875052e+01  -5.651856e+01
   4.392010e+01   1.544900e+00
  -3.846342e+01   3.003570e+01
  -8.738379e+01  -1.688095e+01
  -3.960597e+01  -1.080790e+02
   7.017478e+01  -1.484730e+02
   1.451500e+02  -7.056915e+01
   1.206542e+02   8.142236e+01
   2.087385e+01   1.786535e+02
  -7.256165e+01   1.330014e+02
  -9.719353e+01  -8.143467e+00
  -5.373409e+01  -1.105898e+02
   1.083186e+01  -9.580075e+01
   4.826839e+01  -1.472379e+01
   4.227312e+01   2.875799e+01
   1.498261e+01   6.217136e+00
   5.346619e+00  -1.622331e+01
   2.963585e+01   1.968205e+01
   5.580304e+01   8.266461e+01
   3.112230e+01   9.656878e+01
  -5.174118e+01   4.027697e+01
  -1.263948e+02  -3.162996e+01
  -1.148152e+02  -6.187662e+01
  -1.845427e+01  -4.963081e+01
   7.351140e+01  -2.645010e+01
   8.025172e+01  -7.083319e+00
   1.722592e+01   1.113634e+01
  -3.105302e+01   2.103469e+01
  -1.803988e+01   1.203549e+01
   1.337974e+01  -4.251473e+00
  -2.695329e+00  -4.653007e+00
  -6.205675e+01   3.422637e+00
  -8.822571e+01  -1.763287e+01
  -2.367023e+01  -7.572497e+01
   9.655212e+01  -1.140636e+02
   1.745940e+02  -6.774254e+01
   1.453086e+02   5.016815e+01
   3.507195e+01   1.478778e+02
  -7.095712e+01   1.475200e+02
  -1.074784e+02   6.516375e+01
  -7.623251e+01  -1.521565e+01
  -2.663498e+01  -3.487364e+01
  -3.584706e+00  -1.273990e+01
  -1.353427e+01  -8.367361e+00
  -2.918424e+01  -4.561337e+01
  -1.872237e+01  -8.475297e+01
   2.522090e+01  -6.812332e+01
   7.350017e+01   1.083686e+01
   7.815400e+01   9.141917e+01
   1.755236e+01   1.025819e+02
  -6.839668e+01   3.351145e+01
  -1.011479e+02  -5.619316e+01
  -4.137104e+01  -9.526522e+01
   5.788938e+01  -6.315129e+01
   9.811428e+01   3.701986e+00
   4.502400e+01   5.373607e+01
  -3.059895e+01   5.922424e+01
  -3.733664e+01   2.802642e+01
   2.384595e+01  -6.716576e+00
   6.357505e+01  -9.804721e+00
   1.803994e+01   2.583918e+01
  -7.148503e+01   6.326286e+01
  -1.120294e+02   5.203167e+01
  -6.783101e+01  -1.440724e+01
   9.573898e+00  -7.977900e+01
   5.206441e+01  -7.969674e+01
   4.258337e+01  -1.441721e+01
   9.252974e+00   4.811593e+01
  -2.027449e+01   4.661027e+01
  -3.489167e+01  -7.473688e+00
  -2.860256e+01  -4.950474e+01
  -3.940946e-01  -3.820153e+01
   3.177047e+01   3.672544e+00
   4.007238e+01   2.369514e+01
   1.923102e+01   4.926690e+00
  -4.904196e+00  -1.871058e+01
  -6.705166e+00  -8.887791e+00
   5.125806e+00   2.912941e+01
   1.336842e+00   4.972179e+01
  -2.439225e+01   2.217491e+01
  -4.030362e+01  -3.062913e+01
  -1.506392e+01  -5.520693e+01
   3.637715e+01  -2.573815e+01
   5.988095e+01   2.802740e+01
   2.048366e+01   5.505985e+01
  -5.223015e+01   3.551732e+01
  -8.794162e+01  -7.087721e+00
  -4.931805e+01  -3.854623e+01
   2.485171e+01  -4.413642e+01
   6.004919e+01  -2.947600e+01
   2.750363e+01  -7.949454e+00
  -2.527912e+01   4.471596e+00
  -3.116174e+01  -3.987627e+00
   1.988476e+01  -2.376364e+01
   7.097121e+01  -2.200187e+01
