
 $NMID
 id='ANONYMOUS ', fmtdat='(2E16.6)'
 volume=1.0
 tramp=1.0
 $END
   3.091187e+03   3.774227e+01
   1.870556e+03   1.455144e+03
   1.461417e+02   1.896150e+03
  -1.239575e+03   1.113221e+03
  -9.055629e+02   1.380712e+02
  -1.727897e+01  -1.664981e+02
   3.321497e+02   1.451522e+02
   9.143185e+01   4.778167e+02
  -4.778285e+02   5.429647e+02
  -6.695483e+02   4.977391e+01
  -4.203042e+02  -4.931788e+02
   3.730549e+01  -5.853178e+02
   2.736333e+02  -1.766801e+02
   2.938956e+02   3.872337e+02
  -1.107616e+02   4.979917e+02
  -3.968220e+02   8.931115e+01
  -2.855429e+02  -4.732183e+02
   1.478403e+02  -5.732140e+02
   4.582816e+02  -2.684314e+02
   4.371257e+02   2.002776e+02
   1.228871e+02   3.382186e+02
  -1.432149e+02   2.292141e+02
  -7.669902e+01   6.734699e+01
   1.848088e+02   7.467785e+01
   2.868773e+02   2.456166e+02
   3.102282e-01   3.237829e+02
  -4.645445e+02   1.463662e+02
  -5.847192e+02  -1.760803e+02
  -2.022702e+02  -3.564581e+02
   3.186287e+02  -2.089824e+02
   4.992189e+02   1.084278e+02
   1.799410e+02   3.468573e+02
  -2.529901e+02   3.351045e+02
  -4.283414e+02   1.270632e+02
  -3.048094e+02  -1.523602e+02
  -7.318071e+01  -2.916501e+02
   4.032472e+01  -1.790365e+02
  -3.172943e+01   9.680845e+01
  -1.675919e+02   1.591194e+02
  -2.023687e+02  -1.336137e+02
  -1.654759e+01  -4.772582e+02
   2.473577e+02  -4.344810e+02
   3.235506e+02  -3.607975e+00
   1.261215e+02   3.126515e+02
  -1.430554e+02   1.444731e+02
  -1.712464e+02  -2.449260e+02
   1.041945e+02  -3.762290e+02
   4.172238e+02  -7.263830e+01
   4.633058e+02   3.310204e+02
   1.631495e+02   4.690194e+02
  -2.672090e+02   2.706329e+02
  -4.888547e+02  -4.242137e+01
  -3.268928e+02  -2.415399e+02
   4.531123e+01  -2.258788e+02
   2.771144e+02  -7.662109e+01
   2.025974e+02   4.149444e+01
   3.773164e+00   2.938266e+01
  -4.381714e+01  -4.924438e+01
   9.524356e+01  -5.908201e+01
   2.030170e+02   4.309130e+01
   1.048392e+02   1.714870e+02
  -1.318962e+02   2.180821e+02
  -2.952721e+02   1.339100e+02
  -2.409382e+02  -6.756271e+01
   1.522552e+00  -2.906911e+02
   2.619599e+02  -3.622673e+02
   3.562735e+02  -1.720089e+02
   2.372468e+02   1.595147e+02
   4.270146e+01   3.590248e+02
  -4.983310e+01   3.008256e+02
  -2.172259e+01   1.408906e+02
  -1.238575e+01   8.556683e+01
  -1.146668e+02   1.198934e+02
  -2.410181e+02   7.063815e+01
  -2.407339e+02  -1.083993e+02
  -8.955726e+01  -2.495844e+02
   9.416555e+01  -1.864606e+02
   1.842447e+02   4.042180e+01
   1.252997e+02   2.307415e+02
  -4.731569e+01   2.333176e+02
  -2.309346e+02   5.809094e+01
  -2.857572e+02  -1.567444e+02
  -1.573946e+02  -2.741232e+02
   4.914217e+01  -2.437272e+02
   1.536326e+02  -1.422229e+02
   1.319694e+02  -7.186280e+01
   1.314093e+02  -6.246120e+01
   2.512725e+02  -3.657927e+01
   3.765770e+02   8.194022e+01
   2.977370e+02   2.659955e+02
  -1.582268e+01   4.006382e+02
  -3.466276e+02   3.719574e+02
  -4.470309e+02   1.685715e+02
  -2.743367e+02  -9.458182e+01
  -1.809268e+01  -2.445490e+02
   9.791532e+01  -1.868062e+02
   1.785760e+01  -2.477360e+01
  -1.144016e+02   4.634791e+01
  -1.283744e+02  -3.903842e+01
  -3.019653e+00  -1.412020e+02
   1.185527e+02  -9.646769e+01
   1.042968e+02   5.867356e+01
  -3.299884e+01   1.270882e+02
  -1.536174e+02  -7.199678e-01
  -1.389240e+02  -2.177032e+02
   1.651560e+01  -3.148671e+02
   2.176934e+02  -1.958772e+02
   3.299864e+02   4.877015e+01
   2.653287e+02   2.415238e+02
   6.187390e+01   2.621506e+02
  -1.247162e+02   1.354184e+02
  -1.482309e+02   1.331953e+00
  -3.287632e+01  -2.074865e+01
   5.425072e+01   5.500990e+01
   2.585451e-01   1.093464e+02
  -1.178311e+02   6.469578e+01
  -1.396690e+02  -2.579529e+01
  -2.870437e+01  -5.289211e+01
   7.877790e+01   1.109482e+01
   3.755604e+01   8.717957e+01
  -1.376745e+02   8.395918e+01
  -2.820709e+02  -1.676466e+01
  -2.434310e+02  -1.573439e+02
  -2.931890e+01  -2.480041e+02
   1.945927e+02  -2.217318e+02
   2.544500e+02  -8.966185e+01
   1.292077e+02   4.640810e+01
  -3.211606e+01   7.476592e+01
  -6.368127e+01  -6.904087e+00
   5.070373e+01  -7.818205e+01
   1.755640e+02  -3.195831e+01
   1.760898e+02   9.751278e+01
   5.105084e+01   1.754822e+02
  -8.344772e+01   1.259303e+02
  -1.162657e+02   1.417019e+01
  -4.161276e+01  -3.638817e+01
   4.289763e+01   1.809410e+01
   2.970491e+01   1.041620e+02
  -8.895857e+01   1.147187e+02
  -1.990032e+02   1.507816e+01
  -1.725748e+02  -1.257762e+02
  -1.011108e+01  -1.963513e+02
   1.469758e+02  -1.407825e+02
   1.634605e+02  -9.000815e+00
   5.130243e+01   8.959442e+01
  -5.813480e+01   8.905809e+01
  -6.650918e+01   2.221190e+01
  -1.455907e+00  -2.419595e+01
   3.678274e+01  -9.027175e+00
  -4.745161e+00   2.528623e+01
  -8.185466e+01   4.997876e+00
  -1.027088e+02  -8.325455e+01
  -1.635099e+01  -1.654475e+02
   1.311417e+02  -1.473755e+02
   2.253483e+02  -1.296571e+01
   1.833763e+02   1.467079e+02
   3.694729e+01   2.132204e+02
  -9.376771e+01   1.500417e+02
  -1.202468e+02   2.996452e+01
  -6.910056e+01  -3.985024e+01
  -3.189522e+01  -2.670497e+01
  -5.147931e+01   1.429501e+01
  -8.190064e+01   9.251938e+00
  -5.455828e+01  -5.084089e+01
   3.344869e+01  -1.001428e+02
   1.130229e+02  -6.803590e+01
   1.021686e+02   3.699692e+01
  -1.240594e+01   1.219395e+02
  -1.516593e+02   8.849852e+01
  -1.951057e+02  -5.821481e+01
  -8.288120e+01  -1.989725e+02
   1.152752e+02  -2.094044e+02
   2.500916e+02  -7.873713e+01
   2.293741e+02   8.222035e+01
   9.249931e+01   1.562210e+02
  -3.721008e+01   1.286415e+02
  -8.241204e+01   7.558956e+01
  -6.408435e+01   6.532991e+01
  -5.274901e+01   8.783932e+01
  -8.247141e+01   7.520731e+01
  -1.230431e+02  -1.486768e+01
  -1.137682e+02  -1.421896e+02
  -2.791402e+01  -2.111081e+02
   9.245109e+01  -1.570966e+02
   1.601067e+02  -1.225661e+01
   1.204869e+02   1.175154e+02
   1.033218e+01   1.457367e+02
  -7.038065e+01   7.708825e+01
  -5.990203e+01  -1.088249e+01
   2.200225e+00  -4.956225e+01
   2.480380e+01  -3.523709e+01
  -2.517420e+01  -1.227170e+01
  -7.952487e+01  -1.549513e+01
  -4.861657e+01  -3.670452e+01
   6.741510e+01  -3.948597e+01
   1.638861e+02  -1.703622e+00
   1.374955e+02   5.857378e+01
   8.985349e-01   9.424752e+01
  -1.260057e+02   7.143968e+01
  -1.367833e+02   5.191228e+00
  -4.196363e+01  -4.818372e+01
   5.539380e+01  -4.159828e+01
   7.272223e+01   1.671981e+01
   1.875278e+01   6.809352e+01
  -4.067693e+01   6.082026e+01
  -6.227354e+01   3.003988e+00
  -5.340972e+01  -4.504374e+01
  -4.501927e+01  -3.807098e+01
  -5.191475e+01   3.500426e-01
  -6.148425e+01   8.772353e-01
  -4.432627e+01  -6.600194e+01
   2.075769e+01  -1.433641e+02
   1.140719e+02  -1.398335e+02
   1.689245e+02  -3.583085e+01
   1.250960e+02   8.610935e+01
   5.100581e+00   1.250798e+02
  -8.556957e+01   6.696122e+01
  -5.920450e+01  -8.813339e+00
   5.342326e+01  -2.047094e+01
   1.256580e+02   3.664295e+01
   6.785909e+01   9.863124e+01
  -7.647706e+01   1.034929e+02
  -1.762619e+02   4.384031e+01
  -1.466994e+02  -3.664750e+01
  -2.916095e+01  -7.982037e+01
   5.929480e+01  -5.799825e+01
   4.489587e+01   9.477819e-01
  -3.730152e+01   3.004943e+01
  -8.624058e+01  -1.659988e+01
  -3.855572e+01  -1.071563e+02
   7.043966e+01  -1.463844e+02
   1.442927e+02  -6.852525e+01
   1.192309e+02   8.219802e+01
   1.953536e+01   1.781517e+02
  -7.360612e+01   1.323991e+02
  -9.798758e+01  -8.410946e+00
  -5.409114e+01  -1.111966e+02
   1.105640e+01  -9.692953e+01
   4.865853e+01  -1.523719e+01
   4.267732e+01   2.942403e+01
   1.508501e+01   6.890896e+00
   5.251427e+00  -1.682484e+01
   2.972106e+01   1.852325e+01
   5.615416e+01   8.280983e+01
   3.136779e+01   9.799357e+01
  -5.173482e+01   4.113802e+01
  -1.266843e+02  -3.215458e+01
  -1.152225e+02  -6.264464e+01
  -1.879264e+01  -4.921946e+01
   7.343920e+01  -2.534501e+01
   8.033204e+01  -6.926966e+00
   1.716829e+01   1.002778e+01
  -3.140023e+01   2.009864e+01
  -1.846716e+01   1.205717e+01
   1.366955e+01  -3.864116e+00
  -1.681103e+00  -4.855615e+00
  -6.090366e+01   3.052957e+00
  -8.746491e+01  -1.703559e+01
  -2.373717e+01  -7.394168e+01
   9.571518e+01  -1.123888e+02
   1.727926e+02  -6.730583e+01
   1.433447e+02   4.912814e+01
   3.405854e+01   1.460112e+02
  -7.038875e+01   1.458006e+02
  -1.058280e+02   6.419592e+01
  -7.468337e+01  -1.525649e+01
  -2.567686e+01  -3.421352e+01
  -3.268888e+00  -1.188944e+01
  -1.359465e+01  -7.637150e+00
  -2.934259e+01  -4.528645e+01
  -1.857126e+01  -8.466117e+01
   2.555996e+01  -6.790117e+01
   7.326181e+01   1.132299e+01
   7.731794e+01   9.155963e+01
   1.705165e+01   1.018401e+02
  -6.723454e+01   3.236070e+01
  -9.891170e+01  -5.642350e+01
  -3.998449e+01  -9.389926e+01
   5.719408e+01  -6.124355e+01
   9.645186e+01   4.705787e+00
   4.419617e+01   5.331471e+01
  -3.030525e+01   5.848494e+01
  -3.686850e+01   2.820157e+01
   2.410364e+01  -6.000561e+00
   6.357874e+01  -9.376774e+00
   1.792643e+01   2.542101e+01
  -7.178702e+01   6.279285e+01
  -1.118314e+02   5.231103e+01
  -6.700179e+01  -1.315598e+01
   1.006243e+01  -7.827249e+01
   5.079279e+01  -7.879623e+01
   4.036765e+01  -1.464587e+01
   8.003218e+00   4.683834e+01
  -1.961256e+01   4.518956e+01
  -3.363803e+01  -8.377161e+00
  -2.818145e+01  -4.952963e+01
  -9.069037e-01  -3.749142e+01
   3.133175e+01   4.182612e+00
   4.052406e+01   2.342950e+01
   1.988642e+01   4.128580e+00
  -4.762179e+00  -1.930859e+01
  -6.842402e+00  -8.581885e+00
   4.803773e+00   2.959125e+01
   1.239532e+00   4.971180e+01
  -2.408078e+01   2.155638e+01
  -3.952641e+01  -3.119978e+01
  -1.440480e+01  -5.512180e+01
   3.665724e+01  -2.510301e+01
   5.975783e+01   2.860748e+01
   2.037431e+01   5.508906e+01
  -5.188593e+01   3.512472e+01
  -8.710692e+01  -7.437896e+00
  -4.855085e+01  -3.817139e+01
   2.503622e+01  -4.282609e+01
   5.943226e+01  -2.809852e+01
   2.643091e+01  -7.529800e+00
  -2.610787e+01   3.666564e+00
  -3.098958e+01  -5.233534e+00
   2.073822e+01  -2.423843e+01
   7.179645e+01  -2.162673e+01
