
 $NMID
 id='ANONYMOUS ', fmtdat='(2E16.6)'
 volume=1.0
 tramp=1.0
 $END
   3.315855e+03   1.067852e+02
   2.039897e+03   1.738944e+03
  -2.608058e+02   2.043030e+03
  -1.560576e+03   1.002643e+03
  -9.143408e+02   6.986459e+00
   2.337779e+02  -2.795407e+02
   5.336262e+02   1.851458e+02
  -2.214413e+01   6.428204e+02
  -5.394336e+02   5.763345e+02
  -6.855300e+02  -5.654589e+00
  -3.914046e+02  -6.234543e+02
   6.790951e+01  -7.080484e+02
   3.948869e+02  -1.737850e+02
   2.788482e+02   4.468608e+02
  -1.122715e+02   5.619540e+02
  -4.513458e+02   4.343872e+01
  -2.541678e+02  -5.233195e+02
   1.688562e+02  -5.647657e+02
   4.712382e+02  -1.783537e+02
   4.144234e+02   2.159547e+02
   8.153065e+01   3.346115e+02
  -1.483499e+02   2.309118e+02
  -1.051066e+02   5.920168e+01
   1.384973e+02   4.632079e+01
   2.998523e+02   2.118844e+02
   5.969540e+01   3.467679e+02
  -4.410759e+02   2.078237e+02
  -6.313444e+02  -1.374483e+02
  -2.565402e+02  -3.755955e+02
   3.255895e+02  -2.739629e+02
   5.350424e+02   6.974469e+01
   2.293991e+02   3.568791e+02
  -2.355084e+02   3.682612e+02
  -4.496581e+02   1.401599e+02
  -3.191248e+02  -1.670705e+02
  -6.548266e+01  -3.428176e+02
   8.713982e+01  -2.107700e+02
   3.609773e+01   1.221181e+02
  -1.400879e+02   2.310281e+02
  -2.500739e+02  -7.668730e+01
  -9.084499e+01  -4.922689e+02
   2.419466e+02  -4.773559e+02
   3.771185e+02  -1.760323e+01
   1.561723e+02   3.471769e+02
  -1.589743e+02   1.834105e+02
  -2.100713e+02  -2.511697e+02
   8.220617e+01  -3.967659e+02
   4.241336e+02  -8.927015e+01
   4.715299e+02   3.298485e+02
   1.673063e+02   4.708226e+02
  -2.693226e+02   2.803248e+02
  -4.917173e+02  -4.251095e+01
  -3.275426e+02  -2.572911e+02
   6.036175e+01  -2.478686e+02
   2.993104e+02  -7.379252e+01
   2.031280e+02   6.977806e+01
  -2.776609e+01   4.342358e+01
  -7.196862e+01  -7.431577e+01
   1.052118e+02  -9.088526e+01
   2.353413e+02   4.586267e+01
   1.164152e+02   1.963202e+02
  -1.455632e+02   2.207495e+02
  -2.970091e+02   1.099820e+02
  -2.187859e+02  -7.448348e+01
   9.755616e+00  -2.589315e+02
   2.299128e+02  -3.270394e+02
   3.157884e+02  -1.729965e+02
   2.310566e+02   1.337557e+02
   6.019675e+01   3.459649e+02
  -5.149969e+01   3.040770e+02
  -4.788618e+01   1.306681e+02
  -2.364151e+01   5.196414e+01
  -8.664189e+01   9.292682e+01
  -2.011392e+02   7.839747e+01
  -2.299820e+02  -7.852491e+01
  -1.109594e+02  -2.334580e+02
   7.481340e+01  -1.991176e+02
   1.895222e+02   1.528596e+01
   1.507573e+02   2.201048e+02
  -3.053503e+01   2.425580e+02
  -2.321937e+02   7.234496e+01
  -2.966365e+02  -1.548118e+02
  -1.578756e+02  -2.830682e+02
   5.926840e+01  -2.505149e+02
   1.647600e+02  -1.306443e+02
   1.356817e+02  -5.260644e+01
   1.226976e+02  -5.270255e+01
   2.352239e+02  -4.024957e+01
   3.613505e+02   7.072252e+01
   2.917141e+02   2.553016e+02
  -7.287084e+00   3.918467e+02
  -3.273583e+02   3.683665e+02
  -4.337707e+02   1.746377e+02
  -2.820169e+02  -8.549168e+01
  -3.492776e+01  -2.452490e+02
   9.785497e+01  -2.022491e+02
   3.835860e+01  -3.319092e+01
  -9.974274e+01   6.119564e+01
  -1.382634e+02  -1.918578e+01
  -2.450768e+01  -1.406243e+02
   1.145007e+02  -1.138187e+02
   1.191661e+02   4.767343e+01
  -2.051243e+01   1.330758e+02
  -1.535048e+02   9.926666e+00
  -1.418732e+02  -2.113941e+02
   1.796884e+01  -3.081475e+02
   2.135534e+02  -1.856344e+02
   3.164165e+02   5.168344e+01
   2.552657e+02   2.291906e+02
   6.643800e+01   2.497636e+02
  -1.129655e+02   1.395062e+02
  -1.477586e+02   1.379712e+01
  -4.409493e+01  -1.845268e+01
   4.692272e+01   4.472563e+01
   5.536581e+00   1.014499e+02
  -1.096294e+02   6.753816e+01
  -1.399032e+02  -1.975183e+01
  -3.605136e+01  -5.462042e+01
   7.460581e+01   1.299557e+00
   4.293310e+01   7.730308e+01
  -1.239196e+02   8.178018e+01
  -2.669324e+02  -8.046920e+00
  -2.371019e+02  -1.417887e+02
  -3.776929e+01  -2.366931e+02
   1.787039e+02  -2.228092e+02
   2.466371e+02  -9.827125e+01
   1.359678e+02   4.290420e+01
  -2.165826e+01   8.108577e+01
  -6.391991e+01   1.552486e+00
   3.952976e+01  -7.679707e+01
   1.653494e+02  -3.785755e+01
   1.752202e+02   9.055932e+01
   5.704353e+01   1.729798e+02
  -7.852323e+01   1.289271e+02
  -1.182298e+02   1.961663e+01
  -4.987855e+01  -3.497843e+01
   3.542782e+01   1.062663e+01
   3.160277e+01   9.184765e+01
  -7.698242e+01   1.083102e+02
  -1.866460e+02   2.046596e+01
  -1.700665e+02  -1.143496e+02
  -1.730384e+01  -1.889739e+02
   1.386963e+02  -1.408388e+02
   1.608890e+02  -1.248849e+01
   5.460288e+01   8.708444e+01
  -5.368102e+01   8.952742e+01
  -6.582061e+01   2.556163e+01
  -7.393013e+00  -2.177521e+01
   2.877252e+01  -1.158783e+01
  -5.038783e+00   1.791893e+01
  -7.147366e+01   1.537810e+00
  -9.105154e+01  -7.508883e+01
  -1.611873e+01  -1.509089e+02
   1.189271e+02  -1.398375e+02
   2.113382e+02  -1.833425e+01
   1.774401e+02   1.366517e+02
   3.871785e+01   2.075330e+02
  -8.971137e+01   1.478771e+02
  -1.168640e+02   2.802106e+01
  -6.602536e+01  -4.296077e+01
  -2.952066e+01  -2.816021e+01
  -4.884670e+01   1.390738e+01
  -7.564798e+01   8.617076e+00
  -4.761869e+01  -4.822725e+01
   3.390026e+01  -9.190716e+01
   1.040022e+02  -6.054159e+01
   9.280933e+01   3.495603e+01
  -1.044967e+01   1.125056e+02
  -1.393039e+02   8.373558e+01
  -1.842029e+02  -5.199642e+01
  -8.456322e+01  -1.873937e+02
   1.044300e+02  -2.026662e+02
   2.399086e+02  -8.096678e+01
   2.246246e+02   7.649261e+01
   9.362920e+01   1.524327e+02
  -3.397041e+01   1.267209e+02
  -7.943513e+01   7.416643e+01
  -6.357946e+01   6.332954e+01
  -5.314664e+01   8.474077e+01
  -8.142681e+01   7.162525e+01
  -1.182386e+02  -1.569556e+01
  -1.082116e+02  -1.374077e+02
  -2.647664e+01  -2.025259e+02
   8.781787e+01  -1.511048e+02
   1.530346e+02  -1.353396e+01
   1.167509e+02   1.110310e+02
   1.307152e+01   1.400680e+02
  -6.405325e+01   7.651928e+01
  -5.658342e+01  -6.989993e+00
  -1.295026e+00  -4.495036e+01
   1.842823e+01  -3.338005e+01
  -2.609765e+01  -1.308576e+01
  -7.333594e+01  -1.606155e+01
  -4.381922e+01  -3.437676e+01
   6.224037e+01  -3.651687e+01
   1.518670e+02  -2.408788e+00
   1.308395e+02   5.266776e+01
   5.401078e+00   8.717038e+01
  -1.164347e+02   6.882723e+01
  -1.310749e+02   8.351560e+00
  -4.190195e+01  -4.281465e+01
   5.314505e+01  -3.826398e+01
   6.972418e+01   1.641957e+01
   1.505042e+01   6.547545e+01
  -4.334763e+01   5.823842e+01
  -6.098686e+01   2.259508e+00
  -5.008014e+01  -4.456766e+01
  -4.333093e+01  -3.782903e+01
  -5.191985e+01  -1.125383e+00
  -5.918014e+01  -5.857046e-01
  -3.912869e+01  -6.397680e+01
   2.314941e+01  -1.361050e+02
   1.084892e+02  -1.317353e+02
   1.578468e+02  -3.306103e+01
   1.172698e+02   8.173733e+01
   5.484501e+00   1.177236e+02
  -8.026484e+01   6.212836e+01
  -5.590488e+01  -9.481498e+00
   5.151849e+01  -1.979637e+01
   1.213689e+02   3.496771e+01
   6.664283e+01   9.448246e+01
  -7.183689e+01   1.000903e+02
  -1.682914e+02   4.396389e+01
  -1.413184e+02  -3.301618e+01
  -2.928161e+01  -7.570450e+01
   5.583624e+01  -5.633746e+01
   4.251306e+01  -3.561381e-01
  -3.612934e+01   2.752629e+01
  -8.254495e+01  -1.715624e+01
  -3.518406e+01  -1.035259e+02
   7.087557e+01  -1.397774e+02
   1.409019e+02  -6.376907e+01
   1.141774e+02   8.074147e+01
   1.705717e+01   1.719261e+02
  -7.107739e+01   1.278947e+02
  -9.342381e+01  -6.715802e+00
  -5.293065e+01  -1.056686e+02
   7.506465e+00  -9.348801e+01
   4.500126e+01  -1.610242e+01
   4.257839e+01   2.748637e+01
   1.699740e+01   6.651700e+00
   4.842273e+00  -1.656615e+01
   2.630466e+01   1.663900e+01
   5.340932e+01   7.899472e+01
   3.258073e+01   9.485633e+01
  -4.742861e+01   4.018999e+01
  -1.221416e+02  -3.137573e+01
  -1.118727e+02  -6.071711e+01
  -1.708387e+01  -4.663354e+01
   7.263125e+01  -2.318814e+01
   7.729756e+01  -6.484568e+00
   1.475036e+01   9.124599e+00
  -3.080962e+01   1.984103e+01
  -1.599409e+01   1.307037e+01
   1.429443e+01  -3.160200e+00
  -3.302706e+00  -5.790151e+00
  -6.071591e+01   1.288462e+00
  -8.287016e+01  -1.705423e+01
  -1.866293e+01  -7.066194e+01
   9.473153e+01  -1.066396e+02
   1.650992e+02  -6.234367e+01
   1.350035e+02   5.002971e+01
   3.100912e+01   1.418674e+02
  -6.809393e+01   1.393208e+02
  -1.024930e+02   5.945200e+01
  -7.262632e+01  -1.629138e+01
  -2.407990e+01  -3.285733e+01
  -1.241084e+00  -1.014373e+01
  -1.215828e+01  -5.763387e+00
  -2.950042e+01  -4.270658e+01
  -1.966419e+01  -8.163685e+01
   2.416163e+01  -6.566690e+01
   7.082550e+01   1.171410e+01
   7.315942e+01   8.989710e+01
   1.341687e+01   9.816000e+01
  -6.708231e+01   2.835046e+01
  -9.481667e+01  -5.768193e+01
  -3.654239e+01  -9.128946e+01
   5.588176e+01  -5.744364e+01
   9.174371e+01   5.143988e+00
   4.115508e+01   4.945279e+01
  -2.867859e+01   5.414334e+01
  -3.355868e+01   2.691277e+01
   2.467851e+01  -5.109991e+00
   6.123471e+01  -9.525445e+00
   1.659495e+01   2.357522e+01
  -6.889428e+01   6.074550e+01
  -1.061271e+02   5.154637e+01
  -6.253217e+01  -1.259885e+01
   1.097311e+01  -7.587003e+01
   4.898377e+01  -7.458117e+01
   3.750088e+01  -1.068849e+01
   5.423108e+00   4.724351e+01
  -2.078899e+01   4.197770e+01
  -3.262155e+01  -1.084506e+01
  -2.591369e+01  -4.800373e+01
   3.281472e-01  -3.421948e+01
   3.021330e+01   4.614511e+00
   3.813063e+01   2.111336e+01
   1.912959e+01   3.559224e+00
  -3.668377e+00  -1.610188e+01
  -7.024946e+00  -4.894397e+00
   1.723167e+00   2.907445e+01
  -2.553376e+00   4.519368e+01
  -2.419791e+01   1.756360e+01
  -3.548815e+01  -3.170770e+01
  -1.056496e+01  -5.300753e+01
   3.578320e+01  -2.316223e+01
   5.548229e+01   2.876718e+01
   1.790143e+01   5.401712e+01
  -4.973210e+01   3.361834e+01
  -8.273237e+01  -8.536814e+00
  -4.614389e+01  -3.778426e+01
   2.418901e+01  -4.072213e+01
   5.699314e+01  -2.527584e+01
   2.451622e+01  -6.151939e+00
  -2.672186e+01   2.695674e+00
  -3.056461e+01  -6.955651e+00
   2.135395e+01  -2.439372e+01
   7.125467e+01  -2.018861e+01
