
 $NMID
 id='ANONYMOUS ', fmtdat='(2E16.6)'
 volume=1.0
 tramp=1.0
 $END
  -2.817509e+03  -9.837952e+01
  -1.737793e+03  -1.617102e+03
   8.330803e+01  -1.678636e+03
   1.150912e+03  -8.828208e+02
   7.976916e+02  -1.252952e+01
  -1.820811e+02   1.682941e+02
  -3.768153e+02  -2.062974e+02
  -2.543801e+01  -4.771716e+02
   4.579069e+02  -4.982857e+02
   5.894685e+02   1.351924e+00
   3.570612e+02   5.385263e+02
  -4.896098e+01   5.525998e+02
  -2.961880e+02   1.322953e+02
  -1.861948e+02  -3.640044e+02
   1.358085e+02  -4.812519e+02
   3.491080e+02  -7.003856e+01
   2.153448e+02   3.974830e+02
  -1.295207e+02   4.825586e+02
  -3.886469e+02   1.884603e+02
  -3.162800e+02  -1.955078e+02
  -7.107396e+01  -2.864477e+02
   9.522413e+01  -1.974883e+02
   7.714107e+01  -4.967279e+01
  -1.099457e+02  -5.119851e+01
  -2.352328e+02  -1.988025e+02
  -3.221197e+01  -2.896933e+02
   3.581382e+02  -1.583813e+02
   5.154843e+02   1.317407e+02
   2.122295e+02   3.098627e+02
  -2.731933e+02   2.080001e+02
  -4.422059e+02  -7.394289e+01
  -1.822911e+02  -2.789109e+02
   2.077705e+02  -3.143688e+02
   3.750487e+02  -1.246430e+02
   2.662344e+02   1.246908e+02
   7.046015e+01   2.770343e+02
  -5.070094e+01   1.760856e+02
  -1.140273e+01  -8.667506e+01
   1.266801e+02  -1.675932e+02
   1.914738e+02   8.562692e+01
   5.454683e+01   4.103191e+02
  -1.893881e+02   3.817425e+02
  -2.898602e+02   1.115911e+01
  -1.204730e+02  -2.714806e+02
   1.186715e+02  -1.272012e+02
   1.466497e+02   2.079003e+02
  -7.532156e+01   3.111700e+02
  -3.443812e+02   5.338107e+01
  -3.862815e+02  -2.843242e+02
  -1.340430e+02  -3.930467e+02
   2.284555e+02  -2.359810e+02
   4.178242e+02   2.393623e+01
   2.864743e+02   2.004641e+02
  -3.447948e+01   2.045743e+02
  -2.404105e+02   7.860483e+01
  -1.763820e+02  -4.011281e+01
   6.271061e+00  -3.641128e+01
   5.098338e+01   4.661947e+01
  -8.592767e+01   6.502713e+01
  -1.960063e+02  -3.766112e+01
  -1.027310e+02  -1.640832e+02
   1.232883e+02  -1.931094e+02
   2.639329e+02  -9.732152e+01
   1.951393e+02   7.269505e+01
  -1.982111e+01   2.332508e+02
  -2.217124e+02   2.789606e+02
  -2.856120e+02   1.378687e+02
  -1.962071e+02  -1.185182e+02
  -4.915712e+01  -2.939961e+02
   3.611271e+01  -2.678273e+02
   3.464984e+01  -1.325186e+02
   2.946719e+01  -6.125360e+01
   9.252205e+01  -7.771160e+01
   1.812336e+02  -5.266412e+01
   1.913027e+02   7.822098e+01
   8.553525e+01   2.006936e+02
  -6.740608e+01   1.663954e+02
  -1.592762e+02  -1.874845e+01
  -1.228383e+02  -1.962927e+02
   3.113311e+01  -2.143090e+02
   2.030381e+02  -6.285037e+01
   2.566890e+02   1.375116e+02
   1.383449e+02   2.463273e+02
  -4.367971e+01   2.121790e+02
  -1.333354e+02   1.155248e+02
  -1.143295e+02   5.693357e+01
  -1.126003e+02   5.611617e+01
  -2.163852e+02   3.418420e+01
  -3.225864e+02  -7.337753e+01
  -2.500865e+02  -2.336745e+02
   1.812964e+01  -3.403227e+02
   2.943068e+02  -3.094511e+02
   3.745055e+02  -1.416809e+02
   2.335783e+02   7.292289e+01
   2.519833e+01   2.008571e+02
  -7.435223e+01   1.680725e+02
  -2.284786e+01   3.592287e+01
   8.479386e+01  -3.841557e+01
   1.078265e+02   2.033250e+01
   1.583266e+01   1.115937e+02
  -9.151885e+01   9.071192e+01
  -9.388178e+01  -3.687866e+01
   1.742098e+01  -1.070613e+02
   1.271342e+02  -5.278703e+00
   1.203376e+02   1.834809e+02
  -1.571826e+01   2.698195e+02
  -1.887168e+02   1.643233e+02
  -2.804157e+02  -4.759398e+01
  -2.226210e+02  -2.057830e+02
  -5.509474e+01  -2.179769e+02
   9.761795e+01  -1.168794e+02
   1.228520e+02  -1.114057e+01
   3.517717e+01   9.362596e+00
  -3.655741e+01  -4.584005e+01
   1.519967e+00  -8.756759e+01
   9.637544e+01  -5.308679e+01
   1.174679e+02   1.984065e+01
   2.785338e+01   4.396640e+01
  -6.388700e+01  -7.307390e+00
  -3.257211e+01  -7.071712e+01
   1.146675e+02  -6.891239e+01
   2.380328e+02   1.457037e+01
   2.064323e+02   1.317221e+02
   2.624748e+01   2.092139e+02
  -1.629746e+02   1.914521e+02
  -2.164124e+02   8.279888e+01
  -1.153299e+02  -3.568475e+01
   1.996031e+01  -6.680117e+01
   5.193767e+01  -8.274521e-01
  -3.922336e+01   6.317987e+01
  -1.455878e+02   2.897717e+01
  -1.510006e+02  -8.039125e+01
  -4.720653e+01  -1.500453e+02
   6.972144e+01  -1.114706e+02
   1.022690e+02  -1.725226e+01
   4.164245e+01   2.883776e+01
  -3.045742e+01  -1.213327e+01
  -2.291980e+01  -8.184220e+01
   7.272931e+01  -9.261345e+01
   1.643074e+02  -1.311021e+01
   1.453487e+02   1.035809e+02
   1.208735e+01   1.653926e+02
  -1.213512e+02   1.219822e+02
  -1.395496e+02   1.150907e+01
  -4.762611e+01  -7.445623e+01
   4.575811e+01  -7.768852e+01
   5.575385e+01  -2.335300e+01
   4.502148e+00   1.749985e+01
  -2.576932e+01   9.441857e+00
   6.773417e+00  -1.568600e+01
   6.629189e+01   4.029655e-01
   7.998077e+01   6.923544e+01
   8.931052e+00   1.343254e+02
  -1.100930e+02   1.201975e+02
  -1.868827e+02   1.082178e+01
  -1.529639e+02  -1.227975e+02
  -3.162818e+01  -1.808762e+02
   7.866862e+01  -1.284439e+02
   1.024614e+02  -2.696084e+01
   6.012446e+01   3.420129e+01
   2.798850e+01   2.335144e+01
   4.425038e+01  -9.666955e+00
   6.780855e+01  -4.457400e+00
   4.308697e+01   4.435404e+01
  -3.113551e+01   8.174154e+01
  -9.488552e+01   5.273325e+01
  -8.287627e+01  -3.362067e+01
   1.279582e+01  -1.006733e+02
   1.274657e+02  -7.162141e+01
   1.624205e+02   4.961197e+01
   6.984784e+01   1.674411e+02
  -9.586799e+01   1.770000e+02
  -2.105190e+02   6.815664e+01
  -1.954988e+02  -6.830855e+01
  -8.175107e+01  -1.338990e+02
   2.903819e+01  -1.110336e+02
   6.925009e+01  -6.517682e+01
   5.570944e+01  -5.627558e+01
   4.660470e+01  -7.486267e+01
   7.169092e+01  -6.267745e+01
   1.045267e+02   1.446810e+01
   9.479238e+01   1.214639e+02
   2.096443e+01   1.775627e+02
  -7.988045e+01   1.314406e+02
  -1.344968e+02   1.064228e+01
  -9.934720e+01  -9.800191e+01
  -7.792896e+00  -1.222112e+02
   5.757659e+01  -6.508965e+01
   4.812794e+01   8.781128e+00
  -1.876044e+00   4.121263e+01
  -1.856941e+01   2.960106e+01
   2.241271e+01   1.158134e+01
   6.530202e+01   1.507831e+01
   3.842732e+01   3.149727e+01
  -5.683816e+01   3.179283e+01
  -1.358864e+02  -5.753985e-02
  -1.151968e+02  -4.844120e+01
  -2.902404e+00  -7.715074e+01
   1.038531e+02  -5.957780e+01
   1.152578e+02  -6.004665e+00
   3.661573e+01   3.895882e+01
  -4.662425e+01   3.467554e+01
  -6.199787e+01  -1.449712e+01
  -1.507211e+01  -5.886313e+01
   3.716276e+01  -5.235006e+01
   5.475478e+01  -1.668538e+00
   4.529511e+01   4.024340e+01
   3.742586e+01   3.398873e+01
   4.398067e+01   1.171114e+00
   5.184615e+01   1.140806e+00
   3.538426e+01   5.741387e+01
  -2.152737e+01   1.202901e+02
  -9.902532e+01   1.145020e+02
  -1.418277e+02   2.707993e+01
  -1.028873e+02  -7.301713e+01
  -2.450460e+00  -1.038343e+02
   7.198105e+01  -5.535994e+01
   4.876178e+01   6.897735e+00
  -4.542544e+01   1.587902e+01
  -1.051403e+02  -3.139281e+01
  -5.620634e+01  -8.262687e+01
   6.470663e+01  -8.651791e+01
   1.481479e+02  -3.627893e+01
   1.236162e+02   3.096313e+01
   2.515712e+01   6.694935e+01
  -4.981448e+01   4.846107e+01
  -3.778807e+01  -5.476876e-01
   3.211787e+01  -2.394749e+01
   7.351471e+01   1.625856e+01
   3.124202e+01   9.219988e+01
  -6.350648e+01   1.235615e+02
  -1.254186e+02   5.581299e+01
  -1.005927e+02  -7.200135e+01
  -1.370435e+01  -1.519289e+02
   6.381473e+01  -1.119325e+02
   8.169807e+01   7.300806e+00
   4.465438e+01   9.346878e+01
  -8.030131e+00   8.102621e+01
  -3.942922e+01   1.272029e+01
  -3.618095e+01  -2.451497e+01
  -1.392746e+01  -5.535719e+00
  -4.193132e+00   1.410008e+01
  -2.307034e+01  -1.575196e+01
  -4.571680e+01  -6.976869e+01
  -2.650978e+01  -8.234198e+01
   4.310620e+01  -3.380385e+01
   1.070366e+02   2.873043e+01
   9.708913e+01   5.445188e+01
   1.437263e+01   4.218979e+01
  -6.368473e+01   2.090686e+01
  -6.782153e+01   5.184077e+00
  -1.338976e+01  -8.540870e+00
   2.655923e+01  -1.672040e+01
   1.407260e+01  -1.032266e+01
  -1.266005e+01   2.891183e+00
   2.182692e+00   4.374271e+00
   5.280611e+01  -1.017705e+00
   7.340434e+01   1.647675e+01
   1.703093e+01   6.343208e+01
  -8.442295e+01   9.368056e+01
  -1.481653e+02   5.367237e+01
  -1.209993e+02  -4.534708e+01
  -2.669222e+01  -1.259431e+02
   6.239153e+01  -1.234035e+02
   9.187289e+01  -5.261219e+01
   6.384645e+01   1.494112e+01
   2.071611e+01   2.978444e+01
   1.350635e+00   9.534073e+00
   1.103349e+01   5.456383e+00
   2.526181e+01   3.791412e+01
   1.614441e+01   7.217621e+01
  -2.195178e+01   5.776964e+01
  -6.237892e+01  -1.050844e+01
  -6.453350e+01  -7.933249e+01
  -1.232356e+01  -8.684483e+01
   5.893873e+01  -2.561716e+01
   8.394523e+01   5.049329e+01
   3.231551e+01   8.061728e+01
  -5.000902e+01   5.078835e+01
  -8.189030e+01  -5.256377e+00
  -3.625531e+01  -4.504560e+01
   2.681942e+01  -4.858545e+01
   3.160140e+01  -2.317120e+01
  -2.065997e+01   5.458762e+00
  -5.438333e+01   8.468248e+00
  -1.552435e+01  -2.127586e+01
   6.086061e+01  -5.340270e+01
   9.511114e+01  -4.417800e+01
   5.658482e+01   1.258092e+01
  -1.006122e+01   6.788905e+01
  -4.542145e+01   6.615094e+01
  -3.515304e+01   9.302103e+00
  -5.008363e+00  -4.248207e+01
   1.959351e+01  -3.814255e+01
   2.981678e+01   9.122946e+00
   2.267027e+01   4.320069e+01
  -8.998900e-01   3.141809e+01
  -2.668041e+01  -4.042976e+00
  -3.319563e+01  -1.976808e+01
  -1.624869e+01  -3.568713e+00
   3.575401e+00   1.543943e+01
   5.659473e+00   6.398072e+00
  -3.034999e+00  -2.500677e+01
   3.589677e-01  -4.104838e+01
   2.059381e+01  -1.738828e+01
   3.238253e+01   2.671115e+01
   1.128638e+01   4.651102e+01
  -3.066168e+01   2.096551e+01
  -4.954930e+01  -2.465978e+01
  -1.656140e+01  -4.688082e+01
   4.413797e+01  -2.916170e+01
   7.390210e+01   7.886452e+00
   4.103116e+01   3.399645e+01
  -2.217483e+01   3.696423e+01
  -5.196671e+01   2.320765e+01
  -2.335614e+01   5.535290e+00
   2.243059e+01  -3.343731e+00
   2.689910e+01   4.618881e+00
  -1.780080e+01   2.048099e+01
  -6.172427e+01   1.773681e+01
