
 $NMID
 id='ANONYMOUS ', fmtdat='(2E16.6)'
 volume=1.0
 tramp=1.0
 $END
  -2.817398e+03   5.496047e+01
  -1.801982e+03  -1.718674e+03
   1.174158e+02  -1.665674e+03
   1.231196e+03  -8.520103e+02
   7.430217e+02  -2.722292e+01
  -4.197600e+01   2.480398e+02
  -3.831592e+02  -1.558493e+02
  -4.407468e+01  -5.646176e+02
   4.551391e+02  -4.872333e+02
   5.850617e+02   2.822152e+01
   3.809320e+02   5.694982e+02
  -4.687327e+01   6.000318e+02
  -3.203277e+02   1.467024e+02
  -2.638725e+02  -4.127360e+02
   1.461194e+02  -5.210242e+02
   4.165535e+02  -2.340619e+01
   2.471208e+02   4.321487e+02
  -1.737827e+02   4.916347e+02
  -4.142901e+02   1.938859e+02
  -3.678342e+02  -1.813309e+02
  -8.515242e+01  -2.947694e+02
   8.421875e+01  -2.119868e+02
   7.563193e+01  -7.068619e+01
  -1.503288e+02  -6.952439e+01
  -2.370623e+02  -2.065808e+02
  -6.998896e+00  -2.963687e+02
   3.805216e+02  -1.445765e+02
   5.108477e+02   1.356721e+02
   1.978272e+02   3.088922e+02
  -2.677436e+02   2.027333e+02
  -4.469352e+02  -7.337944e+01
  -1.860083e+02  -3.017846e+02
   2.057396e+02  -3.202970e+02
   3.869658e+02  -1.349911e+02
   2.885516e+02   1.496331e+02
   6.834176e+01   2.892703e+02
  -4.726576e+01   1.684479e+02
  -9.665533e-01  -1.026718e+02
   1.349468e+02  -1.685556e+02
   1.820922e+02   9.686987e+01
   3.642248e+01   4.160522e+02
  -1.881044e+02   3.838828e+02
  -2.865857e+02   1.310987e+01
  -1.225242e+02  -2.649962e+02
   1.113061e+02  -1.240871e+02
   1.501439e+02   2.096971e+02
  -8.092544e+01   3.228524e+02
  -3.608482e+02   6.288608e+01
  -4.077970e+02  -2.930366e+02
  -1.416942e+02  -4.098970e+02
   2.362473e+02  -2.440620e+02
   4.323808e+02   2.988401e+01
   2.934691e+02   2.130589e+02
  -3.812097e+01   2.098997e+02
  -2.511362e+02   7.564974e+01
  -1.862901e+02  -4.371188e+01
   2.197625e+00  -3.780864e+01
   4.998824e+01   4.543044e+01
  -8.868535e+01   6.438301e+01
  -2.014197e+02  -3.880479e+01
  -1.038561e+02  -1.723387e+02
   1.331999e+02  -2.084575e+02
   2.801683e+02  -1.085381e+02
   2.044082e+02   7.529123e+01
  -2.290897e+01   2.451763e+02
  -2.284395e+02   2.874521e+02
  -2.863165e+02   1.376824e+02
  -1.936239e+02  -1.235397e+02
  -5.070799e+01  -3.002349e+02
   3.124191e+01  -2.764887e+02
   3.333065e+01  -1.438224e+02
   3.530329e+01  -7.056248e+01
   1.018868e+02  -8.023056e+01
   1.892984e+02  -5.019478e+01
   1.948974e+02   8.105851e+01
   8.393479e+01   2.006894e+02
  -6.888037e+01   1.639309e+02
  -1.570643e+02  -2.095179e+01
  -1.172254e+02  -1.938689e+02
   3.314851e+01  -2.077307e+02
   1.998742e+02  -5.989445e+01
   2.543265e+02   1.369776e+02
   1.418291e+02   2.484446e+02
  -4.481389e+01   2.234775e+02
  -1.423712e+02   1.260319e+02
  -1.261281e+02   6.067262e+01
  -1.201458e+02   5.250684e+01
  -2.250413e+02   3.208470e+01
  -3.332630e+02  -7.741760e+01
  -2.587961e+02  -2.436517e+02
   2.199152e+01  -3.534806e+02
   3.066867e+02  -3.184689e+02
   3.841942e+02  -1.430941e+02
   2.343540e+02   7.533727e+01
   2.346577e+01   2.048152e+02
  -7.340909e+01   1.687197e+02
  -1.635160e+01   3.430095e+01
   8.934267e+01  -4.098286e+01
   1.121330e+02   2.072499e+01
   1.722643e+01   1.184164e+02
  -9.328034e+01   9.680007e+01
  -9.763708e+01  -3.708120e+01
   1.698113e+01  -1.119029e+02
   1.320777e+02  -5.959864e+00
   1.258272e+02   1.919057e+02
  -1.695769e+01   2.805523e+02
  -1.972692e+02   1.685024e+02
  -2.884711e+02  -5.306123e+01
  -2.241677e+02  -2.142701e+02
  -5.106840e+01  -2.221391e+02
   1.019640e+02  -1.136347e+02
   1.229601e+02  -5.647163e+00
   3.170195e+01   1.168178e+01
  -3.985516e+01  -4.869389e+01
   1.272131e+00  -9.272178e+01
   9.877806e+01  -5.647734e+01
   1.202702e+02   1.938913e+01
   2.842206e+01   4.436109e+01
  -6.484465e+01  -8.828443e+00
  -3.136200e+01  -7.382014e+01
   1.206240e+02  -7.012000e+01
   2.466668e+02   1.773442e+01
   2.123806e+02   1.383393e+02
   2.566125e+01   2.159388e+02
  -1.690108e+02   1.955156e+02
  -2.224968e+02   8.399496e+01
  -1.175354e+02  -3.533145e+01
   2.064716e+01  -6.501109e+01
   5.119789e+01   2.385208e+00
  -4.366232e+01   6.472776e+01
  -1.514466e+02   2.627069e+01
  -1.544631e+02  -8.596154e+01
  -4.713140e+01  -1.541387e+02
   7.126410e+01  -1.113720e+02
   1.028428e+02  -1.521676e+01
   4.028444e+01   2.851628e+01
  -3.270705e+01  -1.621512e+01
  -2.335959e+01  -8.701682e+01
   7.651702e+01  -9.522406e+01
   1.706581e+02  -1.151784e+01
   1.492660e+02   1.081802e+02
   9.933394e+00   1.699135e+02
  -1.273051e+02   1.236187e+02
  -1.435108e+02   9.975424e+00
  -4.685885e+01  -7.688879e+01
   4.841255e+01  -7.804954e+01
   5.628660e+01  -2.225328e+01
   1.887203e+00   1.684713e+01
  -2.768038e+01   5.407372e+00
   8.899209e+00  -1.920799e+01
   7.196293e+01   1.882780e+00
   8.380779e+01   7.634178e+01
   8.054317e+00   1.418618e+02
  -1.154181e+02   1.227012e+02
  -1.927570e+02   7.978575e+00
  -1.562583e+02  -1.277195e+02
  -3.150480e+01  -1.845898e+02
   8.061485e+01  -1.299448e+02
   1.041643e+02  -2.587503e+01
   6.094446e+01   3.470549e+01
   2.953218e+01   2.286260e+01
   4.626472e+01  -1.173347e+01
   7.137540e+01  -5.273622e+00
   4.472313e+01   4.675651e+01
  -3.266127e+01   8.540450e+01
  -9.900349e+01   5.441582e+01
  -8.562421e+01  -3.499319e+01
   1.433736e+01  -1.034580e+02
   1.324389e+02  -7.252657e+01
   1.671899e+02   5.162067e+01
   7.021927e+01   1.723278e+02
  -1.002194e+02   1.814733e+02
  -2.173031e+02   6.923838e+01
  -2.006644e+02  -7.176007e+01
  -8.263452e+01  -1.377017e+02
   3.139459e+01  -1.134247e+02
   7.193256e+01  -6.644005e+01
   5.770250e+01  -5.868145e+01
   4.837816e+01  -7.863002e+01
   7.444296e+01  -6.547386e+01
   1.088513e+02   1.605621e+01
   9.844260e+01   1.276508e+02
   2.131362e+01   1.855318e+02
  -8.330457e+01   1.363733e+02
  -1.399022e+02   9.864948e+00
  -1.035627e+02  -1.025000e+02
  -8.745517e+00  -1.266072e+02
   5.890284e+01  -6.685648e+01
   4.892103e+01   9.016648e+00
  -2.946542e+00   4.140864e+01
  -1.982214e+01   2.883216e+01
   2.365893e+01   1.076144e+01
   6.863762e+01   1.552963e+01
   4.025180e+01   3.270292e+01
  -5.946624e+01   3.208576e+01
  -1.413170e+02  -1.537120e+00
  -1.185902e+02  -5.082071e+01
  -1.254024e+00  -7.900329e+01
   1.087115e+02  -6.015273e+01
   1.190206e+02  -5.186766e+00
   3.649383e+01   4.061774e+01
  -4.962624e+01   3.582631e+01
  -6.462687e+01  -1.513010e+01
  -1.519026e+01  -6.118324e+01
   3.880847e+01  -5.453136e+01
   5.637545e+01  -1.734932e+00
   4.608504e+01   4.163914e+01
   3.854415e+01   3.454817e+01
   4.642890e+01   4.160938e-01
   5.529651e+01   9.506362e-01
   3.746898e+01   6.027684e+01
  -2.244250e+01   1.258399e+02
  -1.036316e+02   1.192401e+02
  -1.477504e+02   2.732306e+01
  -1.064480e+02  -7.699668e+01
  -1.221630e+00  -1.082635e+02
   7.589304e+01  -5.681520e+01
   5.113220e+01   8.481370e+00
  -4.732046e+01   1.758859e+01
  -1.096640e+02  -3.228500e+01
  -5.876609e+01  -8.606562e+01
   6.679256e+01  -8.987685e+01
   1.534634e+02  -3.723064e+01
   1.277560e+02   3.302038e+01
   2.520290e+01   6.967674e+01
  -5.242790e+01   4.927396e+01
  -3.967577e+01  -2.449114e+00
   3.347483e+01  -2.627873e+01
   7.695093e+01   1.649901e+01
   3.350437e+01   9.586331e+01
  -6.471902e+01   1.282313e+02
  -1.295394e+02   5.792980e+01
  -1.043067e+02  -7.441260e+01
  -1.417700e+01  -1.570214e+02
   6.638309e+01  -1.157691e+02
   8.478252e+01   7.470424e+00
   4.585479e+01   9.668148e+01
  -8.909927e+00   8.380672e+01
  -4.068791e+01   1.298386e+01
  -3.666251e+01  -2.562281e+01
  -1.367073e+01  -6.078559e+00
  -3.981929e+00   1.434406e+01
  -2.364577e+01  -1.640859e+01
  -4.728833e+01  -7.204039e+01
  -2.756255e+01  -8.490536e+01
   4.456348e+01  -3.471434e+01
   1.111372e+02   2.993297e+01
   1.010795e+02   5.659916e+01
   1.495508e+01   4.378225e+01
  -6.649973e+01   2.132331e+01
  -7.097667e+01   4.622561e+00
  -1.394629e+01  -9.423445e+00
   2.800891e+01  -1.728451e+01
   1.528380e+01  -1.025870e+01
  -1.242787e+01   3.248497e+00
   2.806709e+00   4.570175e+00
   5.469030e+01  -9.131963e-01
   7.541874e+01   1.747823e+01
   1.697301e+01   6.604687e+01
  -8.756439e+01   9.709860e+01
  -1.531951e+02   5.564019e+01
  -1.253433e+02  -4.670371e+01
  -2.814438e+01  -1.302487e+02
   6.418825e+01  -1.281396e+02
   9.517369e+01  -5.522742e+01
   6.646284e+01   1.496419e+01
   2.173705e+01   3.117682e+01
   1.377565e+00   1.070419e+01
   1.100711e+01   6.344866e+00
   2.530243e+01   3.929303e+01
   1.573454e+01   7.413377e+01
  -2.316383e+01   5.898689e+01
  -6.436174e+01  -1.164709e+01
  -6.641374e+01  -8.272478e+01
  -1.238321e+01  -9.042813e+01
   6.131402e+01  -2.672138e+01
   8.720368e+01   5.271295e+01
   3.360804e+01   8.437418e+01
  -5.200314e+01   5.313296e+01
  -8.533713e+01  -5.621569e+00
  -3.814763e+01  -4.732383e+01
   2.731516e+01  -5.105310e+01
   3.260288e+01  -2.461804e+01
  -2.091488e+01   5.035789e+00
  -5.533343e+01   8.574557e+00
  -1.533475e+01  -2.160135e+01
   6.297853e+01  -5.453750e+01
   9.804781e+01  -4.534428e+01
   5.836475e+01   1.300364e+01
  -1.037615e+01   7.018886e+01
  -4.706589e+01   6.854934e+01
  -3.692832e+01   9.900874e+00
  -5.907811e+00  -4.404054e+01
   1.981455e+01  -3.991430e+01
   3.090071e+01   8.754003e+00
   2.393092e+01   4.424605e+01
  -2.987265e-01   3.237336e+01
  -2.714853e+01  -3.976125e+00
  -3.437129e+01  -2.000493e+01
  -1.736127e+01  -3.448991e+00
   2.920514e+00   1.588388e+01
   5.260851e+00   5.907814e+00
  -2.923486e+00  -2.663536e+01
   1.294794e+00  -4.306532e+01
   2.225109e+01  -1.803580e+01
   3.392219e+01   2.814300e+01
   1.124974e+01   4.874088e+01
  -3.260088e+01   2.175601e+01
  -5.162213e+01  -2.622860e+01
  -1.683818e+01  -4.923991e+01
   4.607554e+01  -3.037464e+01
   7.659974e+01   8.297437e+00
   4.235682e+01   3.508876e+01
  -2.287579e+01   3.787960e+01
  -5.356600e+01   2.359882e+01
  -2.394161e+01   5.365212e+00
   2.332365e+01  -3.700487e+00
   2.785909e+01   4.735944e+00
  -1.836499e+01   2.136089e+01
  -6.376005e+01   1.852886e+01
