
 $NMID
 id='ANONYMOUS ', fmtdat='(2E16.6)'
 volume=1.0
 tramp=1.0
 $END
  -3.023462e+03  -5.401882e+01
  -1.992955e+03  -1.729539e+03
   2.395511e+02  -1.921907e+03
   1.316898e+03  -9.472062e+02
   7.743096e+02   1.063676e+02
  -2.408054e+02   2.056209e+02
  -5.475560e+02  -1.717075e+02
   1.163475e+01  -5.954822e+02
   4.599144e+02  -5.465891e+02
   6.185532e+02  -4.509457e+00
   3.532754e+02   5.299533e+02
  -8.299549e+01   5.899536e+02
  -3.429508e+02   1.229980e+02
  -2.329352e+02  -3.986709e+02
   1.311407e+02  -5.120295e+02
   3.511294e+02  -3.124335e+01
   2.472884e+02   4.579962e+02
  -1.198756e+02   4.998425e+02
  -4.022123e+02   1.846602e+02
  -3.623557e+02  -1.938593e+02
  -7.381980e+01  -3.020202e+02
   1.239409e+02  -2.211285e+02
   1.057346e+02  -3.819293e+01
  -1.211597e+02  -3.209745e+01
  -2.641208e+02  -1.746565e+02
  -7.764426e+01  -3.041309e+02
   3.827146e+02  -2.196722e+02
   5.646637e+02   8.306990e+01
   2.574896e+02   3.227067e+02
  -2.677534e+02   2.668403e+02
  -4.856437e+02  -3.604101e+01
  -2.261825e+02  -3.105637e+02
   1.915038e+02  -3.353661e+02
   3.928189e+02  -1.430500e+02
   2.973998e+02   1.380586e+02
   6.384981e+01   3.101529e+02
  -9.090545e+01   1.993410e+02
  -4.787379e+01  -1.088366e+02
   1.226729e+02  -2.235650e+02
   2.409841e+02   6.434883e+01
   9.223584e+01   4.452751e+02
  -2.165926e+02   4.283180e+02
  -3.498962e+02   1.546139e+01
  -1.442702e+02  -3.199983e+02
   1.516747e+02  -1.731092e+02
   1.976845e+02   2.111294e+02
  -6.541436e+01   3.444182e+02
  -3.710734e+02   7.626176e+01
  -4.112468e+02  -2.822443e+02
  -1.280086e+02  -4.041315e+02
   2.505291e+02  -2.415191e+02
   4.358099e+02   4.110600e+01
   2.808373e+02   2.380406e+02
  -6.582440e+01   2.329594e+02
  -2.771139e+02   6.672909e+01
  -1.863618e+02  -7.722442e+01
   2.784680e+01  -5.359015e+01
   7.011215e+01   6.817659e+01
  -9.375674e+01   8.908020e+01
  -2.142591e+02  -4.695853e+01
  -1.009256e+02  -1.915435e+02
   1.412490e+02  -1.986385e+02
   2.700976e+02  -7.806438e+01
   1.844672e+02   8.363166e+01
  -2.309206e+01   2.224060e+02
  -2.083068e+02   2.677806e+02
  -2.763887e+02   1.403218e+02
  -2.049189e+02  -1.188432e+02
  -5.505788e+01  -3.101764e+02
   5.588111e+01  -2.828587e+02
   6.669358e+01  -1.252608e+02
   4.356386e+01  -3.887406e+01
   8.209628e+01  -6.454146e+01
   1.674998e+02  -5.708880e+01
   1.909442e+02   6.764028e+01
   9.531888e+01   1.963176e+02
  -5.634413e+01   1.708275e+02
  -1.546210e+02  -6.477453e+00
  -1.286671e+02  -1.825738e+02
   1.781530e+01  -2.089279e+02
   1.970449e+02  -7.021905e+01
   2.624002e+02   1.309172e+02
   1.433062e+02   2.550316e+02
  -5.486746e+01   2.287262e+02
  -1.534103e+02   1.149855e+02
  -1.255263e+02   3.748567e+01
  -1.073422e+02   3.883083e+01
  -2.066882e+02   3.165820e+01
  -3.153370e+02  -6.815141e+01
  -2.476495e+02  -2.291845e+02
   1.733495e+01  -3.413741e+02
   2.886242e+02  -3.107115e+02
   3.698557e+02  -1.455941e+02
   2.374509e+02   6.903707e+01
   3.216008e+01   2.052519e+02
  -7.747576e+01   1.758723e+02
  -2.969602e+01   3.506969e+01
   8.427827e+01  -4.979298e+01
   1.181509e+02   1.533656e+01
   2.194586e+01   1.246325e+02
  -1.001789e+02   1.048107e+02
  -1.062797e+02  -4.053962e+01
   1.533940e+01  -1.210542e+02
   1.325853e+02  -1.255359e+01
   1.199428e+02   1.862067e+02
  -2.002801e+01   2.696605e+02
  -1.849523e+02   1.573447e+02
  -2.693669e+02  -5.097036e+01
  -2.174796e+02  -2.012201e+02
  -5.890642e+01  -2.151306e+02
   9.573679e+01  -1.198695e+02
   1.285629e+02  -1.189878e+01
   4.016891e+01   1.653635e+01
  -4.010824e+01  -3.903222e+01
  -4.914475e+00  -8.966343e+01
   9.580305e+01  -6.055424e+01
   1.225991e+02   1.637523e+01
   3.332275e+01   4.707697e+01
  -6.045350e+01  -1.020078e+00
  -3.310386e+01  -6.412112e+01
   1.069533e+02  -6.481038e+01
   2.261268e+02   1.165629e+01
   2.017077e+02   1.218427e+02
   3.480761e+01   2.009869e+02
  -1.506938e+02   1.920038e+02
  -2.137419e+02   8.825404e+01
  -1.219267e+02  -3.380609e+01
   1.529668e+01  -6.913439e+01
   5.417422e+01  -1.328469e+00
  -3.537799e+01   6.568508e+01
  -1.449188e+02   2.955863e+01
  -1.522677e+02  -8.362246e+01
  -4.836496e+01  -1.535186e+02
   6.908778e+01  -1.127483e+02
   1.039648e+02  -1.767425e+01
   4.781084e+01   2.877659e+01
  -2.374665e+01  -8.662321e+00
  -2.295485e+01  -7.475338e+01
   6.541290e+01  -8.736990e+01
   1.570004e+02  -1.390378e+01
   1.432190e+02   9.939721e+01
   1.260780e+01   1.625405e+02
  -1.217248e+02   1.203596e+02
  -1.400088e+02   9.368841e+00
  -4.645675e+01  -7.637030e+01
   4.692849e+01  -7.753896e+01
   5.616431e+01  -2.262875e+01
   6.899325e+00   1.675411e+01
  -2.083583e+01   9.230727e+00
   8.345692e+00  -1.164484e+01
   6.013528e+01   5.634385e+00
   7.059053e+01   6.860892e+01
   6.320812e+00   1.273427e+02
  -1.045174e+02   1.141843e+02
  -1.799014e+02   1.001139e+01
  -1.502369e+02  -1.204879e+02
  -3.084212e+01  -1.795186e+02
   8.022147e+01  -1.272721e+02
   1.031170e+02  -2.348083e+01
   5.775380e+01   3.763903e+01
   2.578213e+01   2.523319e+01
   4.270294e+01  -9.362708e+00
   6.582727e+01  -4.218982e+00
   4.003175e+01   4.312506e+01
  -3.107370e+01   7.683954e+01
  -8.939639e+01   4.776449e+01
  -7.688016e+01  -3.169045e+01
   1.292223e+01  -9.344961e+01
   1.210213e+02  -6.653227e+01
   1.563925e+02   4.767362e+01
   7.019527e+01   1.613959e+02
  -9.145498e+01   1.728312e+02
  -2.066040e+02   6.775880e+01
  -1.936162e+02  -6.757485e+01
  -8.126735e+01  -1.328284e+02
   2.900956e+01  -1.099159e+02
   7.027983e+01  -6.424176e+01
   5.850762e+01  -5.537578e+01
   4.962803e+01  -7.259032e+01
   7.171605e+01  -5.948776e+01
   1.009759e+02   1.634708e+01
   9.081673e+01   1.201492e+02
   1.992361e+01   1.750590e+02
  -7.823942e+01   1.300703e+02
  -1.330981e+02   1.076636e+01
  -9.955400e+01  -9.744297e+01
  -9.702845e+00  -1.218802e+02
   5.489790e+01  -6.591676e+01
   4.631770e+01   5.605808e+00
  -2.182050e-01   3.629451e+01
  -1.405739e+01   2.608289e+01
   2.523723e+01   1.175752e+01
   6.370263e+01   1.714257e+01
   3.630895e+01   3.158761e+01
  -5.406850e+01   2.930665e+01
  -1.292766e+02  -1.513535e+00
  -1.114018e+02  -4.614844e+01
  -5.026948e+00  -7.255790e+01
   9.943183e+01  -5.631370e+01
   1.126765e+02  -6.137667e+00
   3.555243e+01   3.631451e+01
  -4.730796e+01   3.176122e+01
  -6.095510e+01  -1.532911e+01
  -1.164846e+01  -5.686590e+01
   3.916536e+01  -4.959383e+01
   5.212170e+01  -7.807388e-01
   4.067687e+01   3.914650e+01
   3.604796e+01   3.273638e+01
   4.555649e+01   1.049416e+00
   5.167787e+01   1.168799e+00
   3.189853e+01   5.595057e+01
  -2.348883e+01   1.171166e+02
  -9.595924e+01   1.110233e+02
  -1.357188e+02   2.445043e+01
  -9.875885e+01  -7.349414e+01
  -2.084959e+00  -1.011330e+02
   7.066455e+01  -5.097178e+01
   4.815268e+01   9.818012e+00
  -4.525526e+01   1.594020e+01
  -1.048121e+02  -3.265648e+01
  -5.616216e+01  -8.264449e+01
   6.420389e+01  -8.536020e+01
   1.472249e+02  -3.586124e+01
   1.226502e+02   3.049199e+01
   2.459606e+01   6.672937e+01
  -4.951029e+01   4.919036e+01
  -3.719385e+01   2.050715e-01
   3.218594e+01  -2.329764e+01
   7.219022e+01   1.694135e+01
   2.832488e+01   9.196227e+01
  -6.622230e+01   1.208546e+02
  -1.260475e+02   5.188453e+01
  -9.822803e+01  -7.400863e+01
  -1.056030e+01  -1.505876e+02
   6.465050e+01  -1.100824e+02
   8.042959e+01   7.083419e+00
   4.402555e+01   9.206050e+01
  -6.638786e+00   8.054869e+01
  -3.805205e+01   1.291456e+01
  -3.696971e+01  -2.500784e+01
  -1.557057e+01  -6.288080e+00
  -3.455736e+00   1.479906e+01
  -1.992258e+01  -1.413509e+01
  -4.390688e+01  -6.915300e+01
  -2.801290e+01  -8.290565e+01
   4.046061e+01  -3.358840e+01
   1.059154e+02   3.032419e+01
   9.698489e+01   5.530438e+01
   1.329242e+01   4.050073e+01
  -6.523747e+01   1.831294e+01
  -6.759112e+01   4.183740e+00
  -1.124010e+01  -7.895266e+00
   2.773048e+01  -1.668632e+01
   1.305228e+01  -1.159540e+01
  -1.352087e+01   1.915702e+00
   3.625362e+00   5.064679e+00
   5.450978e+01   9.685843e-01
   7.160106e+01   1.810356e+01
   1.232797e+01   6.294078e+01
  -8.705048e+01   9.020217e+01
  -1.454763e+02   4.877096e+01
  -1.155711e+02  -4.842688e+01
  -2.338461e+01  -1.246162e+02
   6.215152e+01  -1.190797e+02
   9.044670e+01  -4.890047e+01
   6.298543e+01   1.573219e+01
   1.977013e+01   2.890362e+01
  -5.696654e-01   8.715619e+00
   9.081002e+00   4.770670e+00
   2.438258e+01   3.664517e+01
   1.590470e+01   7.018373e+01
  -2.205023e+01   5.550137e+01
  -6.147507e+01  -1.280954e+01
  -6.143452e+01  -8.090695e+01
  -8.230108e+00  -8.607275e+01
   6.051261e+01  -2.226364e+01
   8.152957e+01   5.356460e+01
   2.874391e+01   8.006213e+01
  -5.053840e+01   4.731652e+01
  -7.897323e+01  -7.301700e+00
  -3.361004e+01  -4.318119e+01
   2.616280e+01  -4.534110e+01
   2.865548e+01  -2.271258e+01
  -2.225103e+01   3.180727e+00
  -5.287094e+01   6.762824e+00
  -1.313349e+01  -2.032233e+01
   6.089681e+01  -5.122025e+01
   9.225913e+01  -4.317107e+01
   5.337052e+01   1.190666e+01
  -1.122994e+01   6.613490e+01
  -4.445656e+01   6.360704e+01
  -3.339480e+01   7.092523e+00
  -3.614326e+00  -4.280724e+01
   2.018408e+01  -3.640561e+01
   2.938255e+01   1.080991e+01
   2.150108e+01   4.243403e+01
  -1.754897e+00   2.899647e+01
  -2.606232e+01  -5.018812e+00
  -3.180683e+01  -1.844590e+01
  -1.626452e+01  -2.744307e+00
   1.887362e+00   1.337723e+01
   5.415703e+00   2.707693e+00
   7.696276e-01  -2.634689e+01
   5.883481e+00  -3.833945e+01
   2.226573e+01  -1.267218e+01
   2.830923e+01   2.978801e+01
   5.771637e+00   4.642172e+01
  -3.186172e+01   1.854624e+01
  -4.636789e+01  -2.698927e+01
  -1.370229e+01  -4.739037e+01
   4.332132e+01  -2.759141e+01
   7.109904e+01   9.872660e+00
   3.918810e+01   3.407203e+01
  -2.215320e+01   3.450608e+01
  -5.094717e+01   2.013364e+01
  -2.156616e+01   4.506364e+00
   2.447904e+01  -1.334327e+00
   2.754938e+01   7.516512e+00
  -1.973364e+01   2.140178e+01
  -6.430229e+01   1.587380e+01
