
 $NMID
 id='ANONYMOUS ', fmtdat='(2E16.6)'
 volume=1.0
 tramp=1.0
 $END
  -2.520513e+03  -7.241727e+01
  -1.859584e+03  -1.479702e+03
   1.973823e+02  -1.637311e+03
   1.131478e+03  -7.485740e+02
   6.723679e+02   4.096859e+01
  -1.378204e+02   1.581797e+02
  -3.923307e+02  -2.491048e+02
   7.548650e+00  -4.468696e+02
   3.902237e+02  -4.084846e+02
   4.936002e+02  -1.957207e+01
   3.064680e+02   5.065514e+02
  -6.235311e+01   5.093890e+02
  -2.753070e+02   1.062360e+02
  -1.855767e+02  -3.721160e+02
   1.133407e+02  -4.453489e+02
   3.033530e+02  -1.917518e+01
   1.925300e+02   3.737207e+02
  -1.324188e+02   4.552663e+02
  -3.534630e+02   1.467189e+02
  -3.015949e+02  -1.808160e+02
  -7.555059e+01  -2.632470e+02
   1.082695e+02  -1.817437e+02
   6.800907e+01  -7.591039e+01
  -1.170422e+02  -4.733955e+01
  -2.314919e+02  -1.809400e+02
  -3.201402e+01  -2.649585e+02
   3.410668e+02  -1.460672e+02
   4.917263e+02   1.126318e+02
   2.159971e+02   2.940799e+02
  -2.494719e+02   2.052845e+02
  -4.359951e+02  -5.281371e+01
  -1.780889e+02  -2.736920e+02
   1.980954e+02  -2.975131e+02
   3.451606e+02  -1.295133e+02
   2.529088e+02   1.243346e+02
   6.996988e+01   2.623141e+02
  -3.995185e+01   1.548427e+02
   5.738527e+00  -9.747315e+01
   1.298465e+02  -1.659600e+02
   1.785184e+02   8.944074e+01
   4.317183e+01   3.881970e+02
  -1.881100e+02   3.672741e+02
  -2.732600e+02   2.457787e+00
  -1.147475e+02  -2.608902e+02
   1.146192e+02  -1.261890e+02
   1.469722e+02   1.918623e+02
  -6.893347e+01   2.863858e+02
  -3.237351e+02   5.232993e+01
  -3.686093e+02  -2.627638e+02
  -1.272339e+02  -3.655866e+02
   2.202576e+02  -2.190059e+02
   4.004952e+02   2.902079e+01
   2.700517e+02   2.000030e+02
  -4.285961e+01   1.965518e+02
  -2.383516e+02   6.519349e+01
  -1.711126e+02  -4.963471e+01
   8.213984e+00  -3.696936e+01
   4.989511e+01   4.858091e+01
  -8.113704e+01   6.249490e+01
  -1.819762e+02  -3.838934e+01
  -9.261538e+01  -1.560263e+02
   1.152001e+02  -1.825472e+02
   2.433845e+02  -9.716934e+01
   1.831352e+02   6.047883e+01
  -1.225601e+01   2.189889e+02
  -2.029313e+02   2.698799e+02
  -2.683932e+02   1.336048e+02
  -1.850789e+02  -1.169109e+02
  -4.345540e+01  -2.822179e+02
   3.553009e+01  -2.490233e+02
   2.801879e+01  -1.192745e+02
   2.149907e+01  -5.994983e+01
   8.737901e+01  -8.231398e+01
   1.777095e+02  -5.689001e+01
   1.867536e+02   7.130119e+01
   8.206089e+01   1.861613e+02
  -6.290078e+01   1.531014e+02
  -1.461241e+02  -1.596911e+01
  -1.103208e+02  -1.759428e+02
   3.097545e+01  -1.932469e+02
   1.888766e+02  -6.083632e+01
   2.382308e+02   1.228282e+02
   1.277595e+02   2.262383e+02
  -4.422751e+01   2.020071e+02
  -1.277817e+02   1.122753e+02
  -1.051104e+02   5.202042e+01
  -1.031340e+02   4.715426e+01
  -2.005714e+02   3.007506e+01
  -3.037617e+02  -6.802171e+01
  -2.365397e+02  -2.185301e+02
   1.744404e+01  -3.204006e+02
   2.776979e+02  -2.913323e+02
   3.531091e+02  -1.319467e+02
   2.177174e+02   7.088118e+01
   2.051281e+01   1.902649e+02
  -7.292165e+01   1.527893e+02
  -1.902713e+01   2.684574e+01
   8.355776e+01  -3.824838e+01
   1.049997e+02   2.102757e+01
   1.398854e+01   1.086050e+02
  -8.922517e+01   8.632129e+01
  -8.964973e+01  -3.749599e+01
   1.766066e+01  -1.041178e+02
   1.218189e+02  -6.783801e+00
   1.134373e+02   1.721170e+02
  -1.326462e+01   2.539161e+02
  -1.748922e+02   1.543375e+02
  -2.594046e+02  -4.426389e+01
  -2.054990e+02  -1.924150e+02
  -4.866784e+01  -2.024701e+02
   9.330630e+01  -1.042688e+02
   1.142004e+02  -3.661884e+00
   2.845770e+01   1.352409e+01
  -3.957552e+01  -4.274790e+01
  -7.672089e-01  -8.509940e+01
   9.143340e+01  -5.267315e+01
   1.121205e+02   1.751088e+01
   2.688104e+01   4.197082e+01
  -5.998046e+01  -5.101235e+00
  -3.113701e+01  -6.440528e+01
   1.058042e+02  -6.354876e+01
   2.213581e+02   1.342825e+01
   1.935834e+02   1.222223e+02
   2.651027e+01   1.945839e+02
  -1.516200e+02   1.778768e+02
  -2.034304e+02   7.634655e+01
  -1.079959e+02  -3.321747e+01
   2.134917e+01  -6.007208e+01
   5.147839e+01   2.943499e+00
  -3.735703e+01   6.143730e+01
  -1.400151e+02   2.631556e+01
  -1.444635e+02  -7.773656e+01
  -4.421369e+01  -1.419198e+02
   6.727088e+01  -1.040061e+02
   9.726481e+01  -1.510802e+01
   3.893592e+01   2.744605e+01
  -3.007608e+01  -1.134758e+01
  -2.317105e+01  -7.656451e+01
   6.802138e+01  -8.696722e+01
   1.554402e+02  -1.301737e+01
   1.372590e+02   9.670757e+01
   9.684756e+00   1.557302e+02
  -1.168174e+02   1.150025e+02
  -1.319382e+02   9.817150e+00
  -4.248970e+01  -7.186241e+01
   4.608648e+01  -7.318527e+01
   5.331039e+01  -2.026353e+01
   2.738791e+00   1.805230e+01
  -2.628047e+01   8.657609e+00
   5.705614e+00  -1.559929e+01
   6.267696e+01   6.060446e-01
   7.597158e+01   6.652732e+01
   9.105724e+00   1.269176e+02
  -1.033583e+02   1.125905e+02
  -1.764146e+02   9.490548e+00
  -1.450892e+02  -1.154099e+02
  -2.946254e+01  -1.692210e+02
   7.578666e+01  -1.194255e+02
   9.804993e+01  -2.302102e+01
   5.620089e+01   3.326265e+01
   2.455826e+01   2.219028e+01
   3.869087e+01  -9.533940e+00
   6.277496e+01  -4.885286e+00
   4.114593e+01   4.065934e+01
  -2.786937e+01   7.595376e+01
  -8.751469e+01   4.900237e+01
  -7.663697e+01  -3.072164e+01
   1.249695e+01  -9.276727e+01
   1.183624e+02  -6.608231e+01
   1.516544e+02   4.666399e+01
   6.474965e+01   1.567021e+02
  -8.964382e+01   1.664763e+02
  -1.972220e+02   6.428455e+01
  -1.829547e+02  -6.475409e+01
  -7.640699e+01  -1.257042e+02
   2.777463e+01  -1.038356e+02
   6.554558e+01  -5.973040e+01
   5.249624e+01  -5.127442e+01
   4.306889e+01  -6.967254e+01
   6.568229e+01  -5.954339e+01
   9.680905e+01   1.216496e+01
   8.917588e+01   1.131382e+02
   2.142015e+01   1.669369e+02
  -7.346318e+01   1.241909e+02
  -1.265160e+02   1.015500e+01
  -9.495125e+01  -9.211060e+01
  -8.766557e+00  -1.143230e+02
   5.367820e+01  -6.089004e+01
   4.524571e+01   7.335083e+00
  -1.763273e+00   3.711234e+01
  -1.748395e+01   2.666660e+01
   2.132314e+01   1.063974e+01
   6.163912e+01   1.401800e+01
   3.643203e+01   2.899642e+01
  -5.292055e+01   2.943436e+01
  -1.271094e+02   3.631191e-01
  -1.078123e+02  -4.480094e+01
  -2.705725e+00  -7.232171e+01
   9.755752e+01  -5.642780e+01
   1.086584e+02  -5.871897e+00
   3.474128e+01   3.723304e+01
  -4.412025e+01   3.365500e+01
  -5.896042e+01  -1.263578e+01
  -1.480670e+01  -5.468863e+01
   3.428128e+01  -4.896780e+01
   5.059516e+01  -1.528766e+00
   4.138683e+01   3.754076e+01
   3.406947e+01   3.097298e+01
   4.043613e+01  -4.347627e-01
   4.855391e+01  -9.056097e-01
   3.394016e+01   5.261515e+01
  -1.833029e+01   1.129670e+02
  -9.103547e+01   1.087096e+02
  -1.324176e+02   2.640685e+01
  -9.721482e+01  -6.834753e+01
  -3.340879e+00  -9.785673e+01
   6.735749e+01  -5.214658e+01
   4.632051e+01   6.877856e+00
  -4.224271e+01   1.571407e+01
  -9.902738e+01  -2.873823e+01
  -5.387326e+01  -7.727797e+01
   5.966996e+01  -8.168371e+01
   1.388707e+02  -3.539443e+01
   1.167022e+02   2.818495e+01
   2.430110e+01   6.309980e+01
  -4.690471e+01   4.654969e+01
  -3.675626e+01  -8.671941e-02
   2.879725e+01  -2.323221e+01
   6.885721e+01   1.376032e+01
   3.050699e+01   8.542274e+01
  -5.798035e+01   1.156192e+02
  -1.169019e+02   5.279506e+01
  -9.458622e+01  -6.681926e+01
  -1.363597e+01  -1.418216e+02
   5.919459e+01  -1.049260e+02
   7.649127e+01   6.480323e+00
   4.208865e+01   8.727061e+01
  -7.239684e+00   7.586788e+01
  -3.664334e+01   1.164734e+01
  -3.366961e+01  -2.350892e+01
  -1.291203e+01  -5.473364e+00
  -3.713880e+00   1.370300e+01
  -2.148863e+01  -1.390171e+01
  -4.319332e+01  -6.481289e+01
  -2.573160e+01  -7.740108e+01
   3.964680e+01  -3.233351e+01
   1.004451e+02   2.626585e+01
   9.176084e+01   5.059593e+01
   1.386147e+01   3.931315e+01
  -6.018673e+01   1.960487e+01
  -6.428834e+01   4.748509e+00
  -1.256428e+01  -8.241839e+00
   2.557985e+01  -1.599885e+01
   1.390080e+01  -9.803350e+00
  -1.127386e+01   2.750987e+00
   2.487876e+00   4.115975e+00
   4.963485e+01  -1.017798e+00
   6.838705e+01   1.564455e+01
   1.545756e+01   5.989475e+01
  -7.886641e+01   8.802172e+01
  -1.376051e+02   5.025668e+01
  -1.123166e+02  -4.228265e+01
  -2.510539e+01  -1.171959e+02
   5.751711e+01  -1.148039e+02
   8.529623e+01  -4.886628e+01
   5.952210e+01   1.407303e+01
   1.918222e+01   2.809792e+01
   7.148774e-01   9.231957e+00
   9.709141e+00   5.017104e+00
   2.331894e+01   3.488081e+01
   1.501262e+01   6.691520e+01
  -2.051824e+01   5.392510e+01
  -5.841032e+01  -9.736749e+00
  -6.050409e+01  -7.437965e+01
  -1.173536e+01  -8.158365e+01
   5.484955e+01  -2.419721e+01
   7.852702e+01   4.708062e+01
   3.070283e+01   7.525283e+01
  -4.614562e+01   4.742169e+01
  -7.621472e+01  -4.738941e+00
  -3.423723e+01  -4.167084e+01
   2.427875e+01  -4.513027e+01
   2.866335e+01  -2.181453e+01
  -1.968220e+01   4.674090e+00
  -5.044756e+01   7.672992e+00
  -1.407725e+01  -1.973748e+01
   5.660096e+01  -4.971204e+01
   8.781816e+01  -4.147894e+01
   5.193815e+01   1.105288e+01
  -9.425127e+00   6.267690e+01
  -4.162445e+01   6.114640e+01
  -3.227242e+01   8.466054e+00
  -4.777135e+00  -3.940623e+01
   1.783386e+01  -3.527141e+01
   2.757110e+01   8.420457e+00
   2.121122e+01   3.988307e+01
  -5.948058e-01   2.872969e+01
  -2.465105e+01  -3.874453e+00
  -3.092403e+01  -1.801990e+01
  -1.537948e+01  -2.788107e+00
   2.706055e+00   1.460164e+01
   4.755662e+00   5.480387e+00
  -2.920418e+00  -2.395857e+01
   9.063391e-01  -3.879216e+01
   1.985468e+01  -1.601997e+01
   3.028775e+01   2.545636e+01
   9.915121e+00   4.386304e+01
  -2.935168e+01   1.949708e+01
  -4.655518e+01  -2.348259e+01
  -1.549158e+01  -4.418522e+01
   4.110154e+01  -2.744105e+01
   6.884699e+01   7.164569e+00
   3.823124e+01   3.139303e+01
  -2.057598e+01   3.402522e+01
  -4.836217e+01   2.130096e+01
  -2.153780e+01   5.003397e+00
   2.141176e+01  -3.000110e+00
   2.554535e+01   4.762906e+00
  -1.677739e+01   1.972986e+01
  -5.839830e+01   1.682764e+01
