
 $NMID
 id='ANONYMOUS ', fmtdat='(2E16.6)'
 volume=1.0
 tramp=1.0
 $END
  -2.781820e+07   3.559713e+06
  -2.055489e+07  -1.177901e+07
  -1.720997e+06  -1.842776e+07
   1.151913e+07  -1.265814e+07
   1.031495e+07  -1.298371e+06
   8.001767e+05   5.215551e+06
  -5.666262e+06   2.562693e+06
  -4.381968e+06  -4.431050e+06
   1.102929e+06  -7.580378e+06
   5.084776e+06  -3.609432e+06
   4.735183e+06   3.102416e+06
   1.062238e+06   5.541858e+06
  -2.407297e+06   1.491647e+06
  -2.323770e+06  -4.332313e+06
   1.310772e+06  -5.539521e+06
   4.669934e+06  -8.120321e+05
   3.908880e+06   5.170684e+06
  -6.440478e+05   7.036715e+06
  -4.926065e+06   3.890003e+06
  -5.550439e+06  -8.317163e+05
  -2.952856e+06  -3.452630e+06
  -2.954193e+05  -3.239624e+06
  -4.396155e+04  -2.112301e+06
  -1.670348e+06  -2.140505e+06
  -2.267482e+06  -3.454059e+06
   3.743479e+05  -4.267036e+06
   4.882048e+06  -2.884199e+06
   7.035827e+06   2.799258e+05
   4.272622e+06   2.878589e+06
  -9.596170e+05   2.933356e+06
  -3.565258e+06   7.407952e+05
  -1.474570e+06  -1.550677e+06
   2.330421e+06  -1.913331e+06
   3.713903e+06   7.049481e+03
   1.916696e+06   2.662198e+06
  -5.820171e+05   3.675899e+06
  -1.520344e+06   1.908546e+06
  -8.501463e+05  -9.921882e+05
   1.467752e+05  -1.840962e+06
   3.590003e+05   4.201853e+05
  -5.314530e+05   2.958737e+06
  -1.831524e+06   2.238450e+06
  -2.048079e+06  -1.322070e+06
  -2.663931e+05  -3.497313e+06
   2.285463e+06  -1.466248e+06
   2.873641e+06   2.613522e+06
   1.904295e+05   4.248942e+06
  -3.710099e+06   1.822996e+06
  -5.131320e+06  -2.071502e+06
  -2.489295e+06  -3.946916e+06
   1.977045e+06  -2.757785e+06
   4.355919e+06  -5.860066e+04
   2.818662e+06   1.896032e+06
  -7.567790e+05   1.850030e+06
  -2.813560e+06   2.529880e+05
  -1.717571e+06  -1.167991e+06
   7.547498e+05  -9.848371e+05
   1.605005e+06   4.297622e+05
   4.378152e+04   1.301166e+06
  -1.740854e+06   5.241547e+05
  -1.305387e+06  -1.078951e+06
   1.125845e+06  -1.755671e+06
   2.928172e+06  -6.409112e+05
   2.010782e+06   1.603021e+06
  -1.045805e+06   3.422344e+06
  -3.774912e+06   3.353722e+06
  -4.273297e+06   1.013394e+06
  -2.691037e+06  -2.271157e+06
  -6.396948e+05  -4.222469e+06
   4.965709e+05  -3.718655e+06
   6.571587e+05  -1.968469e+06
   7.598364e+05  -9.742298e+05
   1.468862e+06  -1.048036e+06
   2.399114e+06  -7.091772e+05
   2.529241e+06   9.075404e+05
   1.308321e+06   2.537226e+06
  -6.851395e+05   2.275752e+06
  -2.095074e+06   2.346750e+04
  -1.803485e+06  -2.273136e+06
   1.327579e+05  -2.672796e+06
   2.334185e+06  -1.025349e+06
   3.092337e+06   1.216785e+06
   1.898990e+06   2.491101e+06
  -2.019294e+04   2.339518e+06
  -1.028842e+06   1.491499e+06
  -9.354371e+05   9.664423e+05
  -1.072788e+06   1.022347e+06
  -2.342580e+06   9.367951e+05
  -3.702965e+06  -1.207534e+05
  -3.203489e+06  -2.026985e+06
  -4.210025e+05  -3.602841e+06
   2.717708e+06  -3.589736e+06
   3.782694e+06  -1.773439e+06
   2.243922e+06   6.984258e+05
  -1.589286e+05   2.096515e+06
  -1.255207e+06   1.524661e+06
  -4.419276e+05  -1.731239e+05
   1.037173e+06  -1.125625e+06
   1.538450e+06  -3.962133e+05
   6.440249e+05   9.233085e+05
  -5.608938e+05   1.026604e+06
  -7.045296e+05  -2.744640e+05
   4.442218e+05  -1.166549e+06
   1.737644e+06  -5.940668e+04
   1.743405e+06   2.323899e+06
   6.118556e+04   3.620962e+06
  -2.287082e+06   2.411164e+06
  -3.628405e+06  -3.586935e+05
  -2.949313e+06  -2.498150e+06
  -7.749642e+05  -2.693466e+06
   1.178156e+06  -1.426946e+06
   1.501896e+06  -1.781457e+05
   4.472832e+05   1.579975e+04
  -3.773523e+05  -6.422674e+05
   1.708680e+05  -1.103028e+06
   1.437995e+06  -6.210861e+05
   1.768179e+06   4.561551e+05
   5.478492e+05   1.080564e+06
  -9.569134e+05   6.536081e+05
  -1.005343e+06  -3.341201e+05
   6.085026e+05  -8.203437e+05
   2.243799e+06  -2.053450e+05
   2.111996e+06   1.121199e+06
   1.198832e+05   2.106849e+06
  -2.036707e+06   1.872824e+06
  -2.537187e+06   4.854754e+05
  -1.150199e+06  -9.569680e+05
   6.497793e+05  -1.230468e+06
   1.181604e+06  -2.252067e+05
   1.366790e+05   8.421098e+05
  -1.273613e+06   7.115219e+05
  -1.613508e+06  -4.994956e+05
  -5.925743e+05  -1.449032e+06
   7.717235e+05  -1.142625e+06
   1.215841e+06  -2.845867e+04
   4.457575e+05   6.157474e+05
  -5.993407e+05   1.383112e+05
  -6.745572e+05  -8.681334e+05
   4.841069e+05  -1.275049e+06
   1.788978e+06  -5.327126e+05
   1.852318e+06   8.609894e+05
   4.644435e+05   1.811334e+06
  -1.125516e+06   1.562419e+06
  -1.513454e+06   3.689201e+05
  -5.857413e+05  -7.128265e+05
   5.026553e+05  -8.168179e+05
   6.755930e+05  -9.375512e+04
   1.623192e+03   5.302702e+05
  -5.943127e+05   4.155337e+05
  -4.311019e+05  -1.154789e+05
   2.543015e+05  -2.384548e+05
   6.114452e+05   3.547618e+05
   4.673498e+04   1.050155e+06
  -1.135341e+06   9.380122e+05
  -1.903168e+06  -2.181580e+05
  -1.426994e+06  -1.655399e+06
   5.959754e+04  -2.248260e+06
   1.412683e+06  -1.522496e+06
   1.693894e+06  -9.486197e+04
   1.051683e+06   9.083738e+05
   3.863516e+05   9.138704e+05
   2.625617e+05   3.746370e+05
   3.774056e+05   1.618273e+05
   1.014461e+05   5.473889e+05
  -6.736847e+05   9.109057e+05
  -1.341442e+06   4.953298e+05
  -1.153332e+06  -6.378959e+05
   4.266984e+04  -1.523697e+06
   1.525231e+06  -1.206372e+06
   2.146945e+06   2.716053e+05
   1.262218e+06   1.809234e+06
  -6.123805e+05   2.202495e+06
  -2.128890e+06   1.210903e+06
  -2.265319e+06  -2.836041e+05
  -1.197964e+06  -1.160304e+06
   3.408825e+03  -1.088874e+06
   4.803735e+05  -6.778539e+05
   3.003021e+05  -6.557248e+05
   1.477892e+05  -1.020281e+06
   4.839613e+05  -1.083808e+06
   1.069276e+06  -3.247827e+05
   1.236011e+06   9.228413e+05
   5.905538e+05   1.702409e+06
  -5.097940e+05   1.342336e+06
  -1.189224e+06   1.060191e+05
  -8.639191e+05  -1.041571e+06
   1.425997e+05  -1.283408e+06
   8.866762e+05  -5.979352e+05
   7.675018e+05   3.458981e+05
   1.212142e+05   8.561764e+05
  -2.333071e+05   7.786424e+05
   2.931571e+04   4.718318e+05
   3.720116e+05   3.265183e+05
   4.940498e+04   3.639261e+05
  -9.604765e+05   2.866026e+05
  -1.794013e+06  -1.375653e+05
  -1.530883e+06  -7.781613e+05
  -1.801108e+05  -1.213218e+06
   1.226292e+06  -1.089202e+06
   1.598653e+06  -4.539648e+05
   8.411336e+05   2.303607e+05
  -1.333155e+05   4.538154e+05
  -4.196575e+05   1.323229e+05
  -1.947565e+03  -2.758435e+05
   4.439863e+05  -2.262825e+05
   4.361326e+05   2.881467e+05
   1.404431e+05   6.766403e+05
  -7.000995e+03   4.353587e+05
   1.379925e+05  -1.814446e+05
   3.410665e+05  -3.872463e+05
   2.886942e+05   1.832057e+05
  -1.399504e+05   9.478384e+05
  -7.540630e+05   9.962366e+05
  -1.078598e+06   1.545823e+05
  -6.762045e+05  -7.864509e+05
   3.126221e+05  -9.415579e+05
   1.037547e+06  -2.556135e+05
   6.781519e+05   5.238241e+05
  -5.738696e+05   6.573038e+05
  -1.516049e+06   6.838644e+04
  -1.137736e+06  -7.074853e+05
   2.683802e+05  -1.042356e+06
   1.387618e+06  -6.983092e+05
   1.258981e+06   1.810650e+04
   2.156460e+05   4.968241e+05
  -5.679565e+05   3.437475e+05
  -3.289830e+05  -2.070293e+05
   5.642622e+05  -4.455901e+05
   1.071662e+06   1.054573e+05
   5.603211e+05   1.091042e+06
  -5.858050e+05   1.537708e+06
  -1.378282e+06   7.998422e+05
  -1.184456e+06  -6.822253e+05
  -2.561677e+05  -1.670491e+06
   6.254601e+05  -1.297998e+06
   8.914021e+05   4.099274e+04
   5.404060e+05   1.074482e+06
  -5.505339e+04   9.718162e+05
  -4.875873e+05   1.516416e+05
  -5.242427e+05  -3.476351e+05
  -2.394281e+05  -1.502410e+05
  -9.940428e+03   1.182768e+05
  -1.585318e+05  -1.958119e+05
  -4.769944e+05  -8.420837e+05
  -3.293741e+05  -1.013576e+06
   5.290430e+05  -4.263949e+05
   1.405947e+06   3.615242e+05
   1.321294e+06   7.169119e+05
   2.186240e+05   6.185940e+05
  -8.503614e+05   4.158330e+05
  -9.349080e+05   2.463228e+05
  -2.711423e+05   2.102006e+04
   1.550036e+05  -2.053571e+05
  -6.896619e+04  -2.448845e+05
  -3.470171e+05  -1.357504e+05
  -1.302758e+04  -1.245833e+05
   7.062306e+05  -2.022165e+05
   9.518802e+05  -4.652696e+03
   2.828572e+05   5.946457e+05
  -8.179510e+05   1.055780e+06
  -1.464077e+06   6.990903e+05
  -1.192721e+06  -3.882973e+05
  -2.711912e+05  -1.299975e+06
   6.224048e+05  -1.268223e+06
   9.392848e+05  -4.721710e+05
   6.243064e+05   2.429819e+05
   9.578712e+04   3.205770e+05
  -1.427516e+05   1.444575e+03
   4.683515e+04  -8.646210e+04
   3.388966e+05   3.001648e+05
   2.995511e+05   7.366684e+05
  -1.561310e+05   6.111610e+05
  -6.470030e+05  -1.496597e+05
  -6.580948e+05  -9.063332e+05
  -4.462535e+04  -9.286538e+05
   7.338637e+05  -1.653999e+05
   9.458745e+05   7.039642e+05
   3.034773e+05   9.809835e+05
  -6.409154e+05   5.832451e+05
  -9.861955e+05  -4.904893e+04
  -4.652633e+05  -4.784746e+05
   2.266991e+05  -5.537255e+05
   2.599816e+05  -3.385360e+05
  -3.070067e+05  -3.543846e+04
  -6.169884e+05   4.653664e+04
  -1.197067e+05  -2.604232e+05
   7.345414e+05  -6.680804e+05
   1.073146e+06  -6.113422e+05
   6.319266e+05   6.514242e+04
  -6.056842e+04   7.711919e+05
  -4.027227e+05   7.805924e+05
  -3.014357e+05   1.119976e+05
  -2.275536e+04  -4.694602e+05
   2.161600e+05  -3.650766e+05
   3.295241e+05   1.940176e+05
   2.438800e+05   5.238383e+05
  -4.772520e+04   3.282030e+05
  -3.562744e+05  -5.788429e+04
  -4.261584e+05  -1.886837e+05
  -2.288923e+05  -3.467814e+04
   4.508707e+03   7.810829e+04
   8.411444e+04  -8.001401e+04
   7.877264e+04  -3.646148e+05
   1.621657e+05  -4.198393e+05
   3.223007e+05  -7.866240e+04
   3.344199e+05   4.115204e+05
   3.960095e+04   5.932647e+05
  -3.984039e+05   2.661846e+05
  -5.701606e+05  -2.777530e+05
  -2.154045e+05  -5.449834e+05
   4.314181e+05  -3.452941e+05
   7.698648e+05   6.728669e+04
   4.327089e+05   3.306044e+05
  -2.523737e+05   3.248873e+05
  -5.560051e+05   1.679226e+05
  -1.728057e+05   1.802613e+04
   3.907743e+05  -1.234910e+04
   4.027889e+05   1.261338e+05
  -2.116789e+05   3.174004e+05
  -7.793573e+05   2.662289e+05
