
 $NMID
 id='ANONYMOUS ', fmtdat='(2E16.6)'
 volume=1.0
 tramp=1.0
 $END
  -3.226938e+07  -1.232221e+06
  -2.008566e+07  -1.698627e+07
   1.942304e+06  -2.044791e+07
   1.449575e+07  -1.166233e+07
   1.080967e+07   1.810431e+05
  -6.640439e+04   5.525606e+06
  -6.159924e+06   1.907978e+06
  -3.946841e+06  -5.196050e+06
   2.032154e+06  -7.875001e+06
   5.863582e+06  -3.154545e+06
   4.876907e+06   4.143272e+06
   5.295733e+05   6.389500e+06
  -3.016984e+06   1.413184e+06
  -2.294199e+06  -5.075312e+06
   1.960044e+06  -5.896893e+06
   5.144334e+06  -1.844552e+05
   3.521233e+06   6.287045e+06
  -1.811128e+06   7.682821e+06
  -6.217685e+06   3.556200e+06
  -6.283282e+06  -1.944571e+06
  -2.790175e+06  -4.695130e+06
   5.280022e+05  -3.954742e+06
   7.087772e+05  -2.148960e+06
  -1.564342e+06  -2.023761e+06
  -2.539220e+06  -3.774850e+06
   5.628158e+05  -4.878805e+06
   5.858485e+06  -3.039772e+06
   8.142897e+06   9.420332e+05
   4.642709e+06   3.863324e+06
  -1.449075e+06   3.524690e+06
  -4.311150e+06   7.396383e+05
  -1.854533e+06  -1.882076e+06
   2.501430e+06  -2.252273e+06
   4.193253e+06  -5.250857e+04
   2.228469e+06   3.066052e+06
  -7.912224e+05   4.303593e+06
  -2.072366e+06   2.132536e+06
  -1.139953e+06  -1.442140e+06
   4.098552e+05  -2.401821e+06
   7.265362e+05   4.440371e+05
  -6.185415e+05   3.411890e+06
  -2.196561e+06   2.363321e+06
  -2.012875e+06  -1.714144e+06
   3.282476e+05  -3.701010e+06
   2.781605e+06  -8.974793e+05
   2.636264e+06   3.566048e+06
  -6.441972e+05   4.699259e+06
  -4.505331e+06   1.414882e+06
  -5.451847e+06  -2.908168e+06
  -2.324618e+06  -4.559595e+06
   2.406536e+06  -2.816586e+06
   4.735644e+06   3.140375e+05
   2.859902e+06   2.272870e+06
  -1.053716e+06   1.838824e+06
  -3.095872e+06  -1.228406e+05
  -1.681723e+06  -1.489533e+06
   9.890726e+05  -9.616114e+05
   1.714178e+06   5.984191e+05
  -1.518628e+04   1.264454e+06
  -1.705558e+06   3.150069e+05
  -1.017266e+06  -1.113437e+06
   1.518237e+06  -1.459213e+06
   3.159265e+06  -1.860272e+05
   1.887592e+06   2.038549e+06
  -1.609272e+06   3.790868e+06
  -4.655903e+06   3.516723e+06
  -5.045195e+06   7.297196e+05
  -2.898189e+06  -2.972745e+06
  -2.867513e+05  -4.914173e+06
   9.225357e+05  -4.029401e+06
   7.701294e+05  -2.006546e+06
   7.031534e+05  -1.094326e+06
   1.626392e+06  -1.321943e+06
   2.850428e+06  -8.531642e+05
   2.983703e+06   1.122039e+06
   1.479717e+06   2.990988e+06
  -8.236867e+05   2.628412e+06
  -2.365519e+06   1.648999e+04
  -1.955901e+06  -2.617053e+06
   2.966790e+05  -3.038406e+06
   2.782130e+06  -1.022767e+06
   3.498190e+06   1.693809e+06
   1.917795e+06   3.127233e+06
  -3.827954e+05   2.717134e+06
  -1.446429e+06   1.520354e+06
  -1.176221e+06   8.795902e+05
  -1.240674e+06   9.875675e+05
  -2.646241e+06   8.524027e+05
  -4.111230e+06  -4.139272e+05
  -3.434960e+06  -2.496530e+06
  -2.322653e+05  -4.064460e+06
   3.286131e+06  -3.876062e+06
   4.408483e+06  -1.795829e+06
   2.556168e+06   9.311386e+05
  -2.715004e+05   2.423712e+06
  -1.532336e+06   1.703065e+06
  -5.146659e+05  -2.263508e+05
   1.247639e+06  -1.224710e+06
   1.769206e+06  -3.271460e+05
   6.581487e+05   1.120941e+06
  -6.888454e+05   1.141968e+06
  -7.540910e+05  -3.085390e+05
   5.157429e+05  -1.188983e+06
   1.781444e+06   8.616375e+04
   1.654222e+06   2.596467e+06
  -1.341009e+05   3.846758e+06
  -2.542033e+06   2.442506e+06
  -3.910129e+06  -5.665803e+05
  -3.149403e+06  -2.863349e+06
  -7.531530e+05  -3.022522e+06
   1.398815e+06  -1.550362e+06
   1.711436e+06  -1.264334e+05
   5.012454e+05   4.517204e+04
  -3.807885e+05  -7.435687e+05
   2.863320e+05  -1.213204e+06
   1.664747e+06  -5.685465e+05
   1.924786e+06   6.502327e+05
   5.142505e+05   1.235463e+06
  -1.107197e+06   6.602100e+05
  -1.096833e+06  -4.113168e+05
   6.913509e+05  -8.515126e+05
   2.462806e+06  -1.181321e+05
   2.282599e+06   1.316087e+06
   4.493804e+04   2.322937e+06
  -2.360609e+06   1.973872e+06
  -2.862992e+06   3.923890e+05
  -1.213648e+06  -1.153462e+06
   8.382471e+05  -1.332786e+06
   1.354569e+06  -1.459479e+05
   8.548546e+04   9.760489e+05
  -1.482878e+06   7.125440e+05
  -1.761976e+06  -6.627700e+05
  -5.630017e+05  -1.633126e+06
   9.121407e+05  -1.200548e+06
   1.325423e+06   4.394215e+04
   4.417513e+05   6.936101e+05
  -6.802592e+05   9.739811e+04
  -6.995973e+05  -1.027017e+06
   6.277835e+05  -1.411433e+06
   2.053221e+06  -4.917073e+05
   2.032960e+06   1.087640e+06
   4.024844e+05   2.064009e+06
  -1.364314e+06   1.670835e+06
  -1.709685e+06   3.110241e+05
  -6.020495e+05  -8.250638e+05
   6.088112e+05  -8.755922e+05
   7.616972e+05  -8.049686e+04
  -3.147656e+03   5.736654e+05
  -6.546687e+05   4.479665e+05
  -4.744571e+05  -1.028579e+05
   2.609581e+05  -2.159546e+05
   6.245199e+05   4.277331e+05
  -2.427468e+04   1.156442e+06
  -1.326736e+06   9.709932e+05
  -2.117157e+06  -3.640524e+05
  -1.497337e+06  -1.948398e+06
   1.978941e+05  -2.518259e+06
   1.653438e+06  -1.620539e+06
   1.882106e+06  -2.300219e+04
   1.138415e+06   1.041615e+06
   4.298230e+05   1.024804e+06
   3.121022e+05   4.571152e+05
   4.088402e+05   2.416221e+05
   5.942119e+04   6.302207e+05
  -8.070268e+05   9.684596e+05
  -1.514704e+06   4.773269e+05
  -1.256120e+06  -7.581686e+05
   1.146987e+05  -1.683617e+06
   1.762560e+06  -1.259706e+06
   2.383752e+06   4.243858e+05
   1.296521e+06   2.090924e+06
  -8.293184e+05   2.407794e+06
  -2.447599e+06   1.204394e+06
  -2.492087e+06  -4.491751e+05
  -1.262840e+06  -1.334569e+06
   4.057573e+04  -1.191815e+06
   5.429104e+05  -7.485447e+05
   3.707773e+05  -7.628251e+05
   2.503691e+05  -1.164007e+06
   6.314481e+05  -1.183902e+06
   1.229861e+06  -2.869427e+05
   1.335791e+06   1.116931e+06
   5.623078e+05   1.950103e+06
  -6.527109e+05   1.479960e+06
  -1.334905e+06   4.842115e+04
  -8.915132e+05  -1.216591e+06
   2.449812e+05  -1.410819e+06
   1.011623e+06  -5.866580e+05
   8.020392e+05   4.466578e+05
   5.609657e+04   9.462106e+05
  -3.121985e+05   8.245397e+05
   1.490022e+04   5.141672e+05
   4.069835e+05   3.934955e+05
   3.777436e+04   4.149079e+05
  -1.093562e+06   2.507480e+05
  -2.002180e+06  -2.812058e+05
  -1.659532e+06  -9.692087e+05
  -1.076997e+05  -1.355546e+06
   1.455500e+06  -1.125124e+06
   1.808481e+06  -3.999882e+05
   9.000574e+05   3.082751e+05
  -1.928831e+05   4.931424e+05
  -4.692073e+05   1.129487e+05
   2.923295e+04  -3.222230e+05
   5.148964e+05  -2.375774e+05
   4.736900e+05   3.530063e+05
   1.279668e+05   7.877938e+05
  -2.806357e+04   5.078368e+05
   1.506896e+05  -1.945552e+05
   3.845956e+05  -4.265361e+05
   3.102097e+05   2.194019e+05
  -2.041639e+05   1.064827e+06
  -9.109780e+05   1.073687e+06
  -1.240676e+06   8.758191e+04
  -7.189962e+05  -9.484754e+05
   4.273918e+05  -1.043548e+06
   1.204448e+06  -2.154239e+05
   7.379235e+05   6.306965e+05
  -6.806668e+05   6.971946e+05
  -1.692045e+06  -7.124860e+03
  -1.222969e+06  -8.351458e+05
   3.504613e+05  -1.129303e+06
   1.568005e+06  -7.002578e+05
   1.392162e+06   7.946978e+04
   2.151145e+05   5.583801e+05
  -6.485201e+05   3.472552e+05
  -3.520683e+05  -2.605808e+05
   6.684382e+05  -4.795412e+05
   1.214357e+06   1.803928e+05
   5.778891e+05   1.276688e+06
  -7.519691e+05   1.718369e+06
  -1.608113e+06   8.322879e+05
  -1.299798e+06  -8.352458e+05
  -1.964878e+05  -1.894150e+06
   7.665758e+05  -1.420132e+06
   9.850088e+05   9.666681e+04
   5.400986e+05   1.224864e+06
  -1.118954e+05   1.068638e+06
  -5.502634e+05   1.352277e+05
  -5.690755e+05  -4.070862e+05
  -2.616815e+05  -1.671793e+05
  -1.478025e+04   1.256745e+05
  -1.617294e+05  -2.522180e+05
  -4.849708e+05  -9.824943e+05
  -3.109280e+05  -1.139544e+06
   6.203892e+05  -4.278511e+05
   1.558912e+06   4.839482e+05
   1.439681e+06   8.648827e+05
   2.061917e+05   7.064525e+05
  -9.779152e+05   4.333872e+05
  -1.058081e+06   2.273187e+05
  -3.001319e+05  -6.177452e+03
   1.863099e+05  -2.279314e+05
  -6.805247e+04  -2.600777e+05
  -3.881386e+05  -1.520585e+05
  -1.038563e+04  -1.478764e+05
   8.087201e+05  -2.081933e+05
   1.077944e+06   5.073075e+04
   2.875157e+05   7.134236e+05
  -9.888201e+05   1.161488e+06
  -1.705498e+06   6.933942e+05
  -1.336614e+06  -5.263303e+05
  -2.352359e+05  -1.486149e+06
   7.815770e+05  -1.388971e+06
   1.097799e+06  -4.802197e+05
   6.987756e+05   3.046694e+05
   9.101253e+04   3.746615e+05
  -1.677794e+05   1.175642e+04
   4.688786e+04  -8.581452e+04
   3.568043e+05   3.506030e+05
   2.928574e+05   8.399192e+05
  -2.143400e+05   6.841752e+05
  -7.317157e+05  -1.995839e+05
  -7.036939e+05  -1.067199e+06
   5.561313e+02  -1.069288e+06
   8.510000e+05  -1.588159e+05
   1.042644e+06   8.499324e+05
   2.872708e+05   1.134993e+06
  -7.683489e+05   6.264593e+05
  -1.116066e+06  -1.196468e+05
  -4.874877e+05  -5.791727e+05
   3.036472e+05  -6.139094e+05
   3.200281e+05  -3.533381e+05
  -3.460900e+05  -4.055542e+04
  -6.997129e+05   2.158679e+04
  -1.182218e+05  -3.066622e+05
   8.644438e+05  -7.099829e+05
   1.236556e+06  -6.105868e+05
   7.001182e+05   1.287420e+05
  -1.188276e+05   8.688174e+05
  -5.090437e+05   8.445521e+05
  -3.616021e+05   9.607360e+04
  -7.096018e+03  -5.372853e+05
   2.725830e+05  -4.042823e+05
   3.740978e+05   2.333640e+05
   2.458405e+05   6.068906e+05
  -8.468529e+04   3.744254e+05
  -4.047793e+05  -8.492888e+04
  -4.610719e+05  -2.448823e+05
  -2.473168e+05  -5.472673e+04
  -8.677622e+03   9.831245e+04
   7.663318e+04  -7.929189e+04
   9.581737e+04  -4.239678e+05
   2.155828e+05  -4.959847e+05
   3.916089e+05  -8.564220e+04
   3.751303e+05   4.980035e+05
   1.910813e+04   6.960900e+05
  -4.699921e+05   2.863177e+05
  -6.391139e+05  -3.533325e+05
  -2.191899e+05  -6.331215e+05
   5.098764e+05  -3.609195e+05
   8.733149e+05   1.271930e+05
   4.705570e+05   4.021719e+05
  -3.142375e+05   3.547403e+05
  -6.511673e+05   1.568578e+05
  -2.011661e+05  -2.540343e+02
   4.491302e+05  -9.986176e+03
   4.615804e+05   1.553214e+05
  -2.443424e+05   3.562909e+05
  -8.899348e+05   2.766377e+05
