
 $NMID
 id='ANONYMOUS ', fmtdat='(2E16.6)'
 volume=1.0
 tramp=1.0
 $END
   4.238072e+07   1.982243e+06
   2.497558e+07   2.574757e+07
  -5.478770e+06   2.790769e+07
  -2.058464e+07   1.185565e+07
  -1.291867e+07  -3.952483e+06
   1.878342e+06  -7.056763e+06
   7.643748e+06  -3.268563e+04
   2.938850e+06   7.267537e+06
  -4.230020e+06   8.056204e+06
  -7.494859e+06   2.184702e+06
  -5.508743e+06  -5.124436e+06
  -4.156760e+05  -7.172880e+06
   3.406861e+06  -1.893295e+06
   2.185819e+06   5.063395e+06
  -2.933294e+06   5.819776e+06
  -6.196660e+06  -7.772943e+05
  -3.528617e+06  -8.011955e+06
   2.998951e+06  -9.217412e+06
   7.962207e+06  -4.265696e+06
   8.122839e+06   2.172660e+06
   4.335731e+06   5.978938e+06
  -1.034156e+05   6.062551e+06
  -1.887899e+06   3.899487e+06
  -2.723730e+05   2.242757e+06
   1.612184e+06   2.840402e+06
  -2.705098e+05   4.275969e+06
  -5.445209e+06   3.376350e+06
  -8.462527e+06  -4.576354e+05
  -5.465129e+06  -3.972204e+06
   6.642256e+05  -4.083871e+06
   3.846904e+06  -1.486418e+06
   2.039055e+06   9.166775e+05
  -1.487690e+06   1.448640e+06
  -3.049781e+06   1.696642e+05
  -2.035238e+06  -2.179740e+06
   1.469030e+05  -3.908788e+06
   1.931651e+06  -2.813005e+06
   2.091670e+06   7.818569e+05
   5.603826e+05   2.907785e+06
  -7.392278e+05   7.170159e+05
   2.034347e+05  -2.766826e+06
   2.286330e+06  -2.141362e+06
   2.048383e+06   2.420828e+06
  -1.491869e+06   4.656810e+06
  -4.708043e+06   7.535972e+05
  -3.549642e+06  -5.149180e+06
   1.441263e+06  -6.288394e+06
   5.764339e+06  -1.643808e+06
   5.789949e+06   3.708072e+06
   1.805309e+06   5.112946e+06
  -2.893174e+06   2.531898e+06
  -4.723368e+06  -1.046362e+06
  -2.415887e+06  -2.836857e+06
   1.726351e+06  -1.871179e+06
   3.623893e+06   6.240949e+05
   1.666951e+06   2.073416e+06
  -1.328878e+06   1.072989e+06
  -1.617122e+06  -8.304213e+05
   6.837215e+05  -1.011633e+06
   1.973781e+06   7.748870e+05
   9.914939e+04   2.198279e+06
  -3.012017e+06   1.504113e+06
  -4.028869e+06  -7.107157e+05
  -1.907349e+06  -2.950072e+06
   1.768885e+06  -4.267969e+06
   4.729805e+06  -3.837011e+06
   5.395039e+06  -1.013002e+06
   3.481474e+06   3.033590e+06
   4.210301e+05   5.305688e+06
  -1.474430e+06   4.149771e+06
  -1.271359e+06   1.484596e+06
  -4.214873e+05   3.671468e+05
  -7.725441e+05   1.062192e+06
  -2.138561e+06   1.199724e+06
  -2.739344e+06  -4.880704e+05
  -1.602680e+06  -2.378118e+06
   4.372318e+05  -2.253051e+06
   1.855372e+06  -5.162243e+04
   1.654868e+06   2.279133e+06
  -2.252916e+05   2.836918e+06
  -2.680662e+06   1.198890e+06
  -3.761356e+06  -1.488181e+06
  -2.356752e+06  -3.366323e+06
   3.040314e+05  -3.320231e+06
   1.851594e+06  -1.975069e+06
   1.671126e+06  -9.085488e+05
   1.498702e+06  -7.403523e+05
   2.685162e+06  -5.382987e+05
   4.011879e+06   7.008562e+05
   3.212168e+06   2.621514e+06
   4.032348e+04   3.908180e+06
  -3.215420e+06   3.600847e+06
  -4.147456e+06   1.736267e+06
  -2.465567e+06  -7.160171e+05
   6.005987e+04  -2.216983e+06
   1.303662e+06  -1.698868e+06
   5.118443e+05   1.359998e+05
  -1.148905e+06   1.173333e+06
  -1.766378e+06   2.914577e+05
  -7.232878e+05  -1.134973e+06
   6.050918e+05  -1.058294e+06
   5.454712e+05   3.502909e+05
  -7.931243e+05   8.622105e+05
  -1.709967e+06  -7.373246e+05
  -9.758989e+05  -2.952961e+06
   9.686128e+05  -3.420695e+06
   2.776535e+06  -1.573660e+06
   3.394938e+06   1.094368e+06
   2.476384e+06   2.765991e+06
   4.778609e+05   2.695604e+06
  -1.304627e+06   1.393603e+06
  -1.572922e+06   1.192363e+05
  -4.734335e+05  -5.952990e+04
   3.280381e+05   7.252486e+05
  -3.781016e+05   1.210497e+06
  -1.729443e+06   4.903486e+05
  -1.867706e+06  -8.033280e+05
  -3.843395e+05  -1.284364e+06
   1.107434e+06  -5.485872e+05
   9.263585e+05   4.450173e+05
  -7.614798e+05   6.167007e+05
  -2.202343e+06  -1.868097e+05
  -1.860708e+06  -1.341996e+06
   1.762724e+05  -2.034278e+06
   2.286188e+06  -1.645657e+06
   2.699936e+06  -2.227308e+05
   1.122535e+06   1.198299e+06
  -8.875431e+05   1.331387e+06
  -1.404561e+06   1.152161e+05
  -1.081785e+05  -9.900328e+05
   1.456778e+06  -6.447009e+05
   1.637365e+06   7.501763e+05
   3.693821e+05   1.584222e+06
  -9.978167e+05   9.995742e+05
  -1.224599e+06  -2.204447e+05
  -2.979847e+05  -7.171695e+05
   7.100487e+05  -4.602713e+04
   6.517404e+05   1.017706e+06
  -6.200515e+05   1.334332e+06
  -1.955465e+06   4.290033e+05
  -1.909332e+06  -1.086813e+06
  -3.075508e+05  -1.991279e+06
   1.397332e+06  -1.537126e+06
   1.651903e+06  -1.898199e+05
   4.975122e+05   8.283899e+05
  -6.335472e+05   7.790527e+05
  -6.637145e+05   5.409595e+04
   7.670369e+04  -4.337063e+05
   5.497811e+05  -2.850165e+05
   2.674815e+05   8.690609e+04
  -3.477174e+05   4.083845e+04
  -5.214734e+05  -5.549377e+05
   1.579199e+05  -1.116473e+06
   1.328116e+06  -8.429599e+05
   1.992031e+06   4.437323e+05
   1.350203e+06   1.908893e+06
  -2.795546e+05   2.350381e+06
  -1.609512e+06   1.388294e+06
  -1.697455e+06  -1.129695e+05
  -9.124926e+05  -9.525018e+05
  -3.275853e+05  -7.991755e+05
  -3.738841e+05  -3.285948e+05
  -4.935468e+05  -2.871635e+05
  -4.808939e+04  -6.751535e+05
   8.393797e+05  -8.620244e+05
   1.426482e+06  -3.266030e+05
   1.068409e+06   7.447617e+05
  -2.321175e+05   1.486239e+06
  -1.701828e+06   1.048239e+06
  -2.192340e+06  -5.128629e+05
  -1.084976e+06  -2.042241e+06
   9.649165e+05  -2.247589e+06
   2.424434e+06  -9.783168e+05
   2.289194e+06   6.172466e+05
   1.003836e+06   1.312226e+06
  -1.582545e+05   1.006147e+06
  -4.583673e+05   5.774043e+05
  -2.273663e+05   7.189246e+05
  -2.043670e+05   1.182444e+06
  -6.650503e+05   1.164740e+06
  -1.218990e+06   2.491482e+05
  -1.242377e+06  -1.092284e+06
  -4.724637e+05  -1.853426e+06
   6.549130e+05  -1.371992e+06
   1.250485e+06   2.241843e+04
   7.692610e+05   1.224944e+06
  -3.559410e+05   1.329342e+06
  -1.060425e+06   4.294301e+05
  -7.503610e+05  -5.842933e+05
   7.424737e+04  -9.692742e+05
   4.413554e+05  -7.500072e+05
   5.208901e+04  -4.383852e+05
  -3.915529e+05  -3.605308e+05
  -3.459143e+04  -3.823547e+05
   1.081939e+06  -1.808113e+05
   1.935626e+06   3.634006e+05
   1.530835e+06   1.015341e+06
  -1.972095e+04   1.336915e+06
  -1.498743e+06   1.032639e+06
  -1.751120e+06   2.588353e+05
  -8.108502e+05  -4.197352e+05
   2.384288e+05  -5.033127e+05
   4.727184e+05  -4.978192e+04
  -9.727359e+03   3.613713e+05
  -4.632955e+05   2.239108e+05
  -4.466085e+05  -3.475377e+05
  -1.653636e+05  -7.271198e+05
  -2.356016e+04  -4.731243e+05
  -1.410377e+05   1.284529e+05
  -3.221759e+05   3.264922e+05
  -2.699946e+05  -2.265700e+05
   1.950346e+05  -9.718988e+05
   8.998613e+05  -9.932398e+05
   1.256543e+06  -8.682767e+04
   7.293107e+05   9.159915e+05
  -4.384704e+05   1.036278e+06
  -1.191435e+06   2.316457e+05
  -6.855436e+05  -5.960366e+05
   6.842114e+05  -6.185015e+05
   1.560805e+06   1.067350e+05
   1.025072e+06   8.483011e+05
  -4.407651e+05   9.898429e+05
  -1.479732e+06   5.009059e+05
  -1.240118e+06  -1.774554e+05
  -1.449755e+05  -5.150176e+05
   6.301377e+05  -2.688048e+05
   3.452782e+05   2.798279e+05
  -6.104002e+05   4.640163e+05
  -1.142998e+06  -1.546452e+05
  -5.687602e+05  -1.190620e+06
   6.826000e+05  -1.619657e+06
   1.499085e+06  -7.819776e+05
   1.198192e+06   7.958185e+05
   1.362641e+05   1.764727e+06
  -7.608049e+05   1.267509e+06
  -9.051119e+05  -1.670912e+05
  -4.184096e+05  -1.169326e+06
   1.992790e+05  -9.607615e+05
   5.369131e+05  -8.249548e+04
   4.747237e+05   3.880162e+05
   1.902043e+05   1.481189e+05
   3.652552e+04  -1.016311e+05
   2.138343e+05   2.756217e+05
   4.494761e+05   9.490236e+05
   1.954741e+05   1.063651e+06
  -6.619827e+05   3.689842e+05
  -1.432778e+06  -4.989754e+05
  -1.262754e+06  -8.530933e+05
  -1.637132e+05  -6.791923e+05
   8.785696e+05  -3.819100e+05
   9.777652e+05  -1.614949e+05
   3.221533e+05   4.503665e+04
  -1.615607e+05   2.133744e+05
  -2.329671e+03   2.157673e+05
   2.964766e+05   1.192372e+05
   2.987660e+04   1.348324e+05
  -6.959771e+05   1.974699e+05
  -1.016652e+06  -5.616408e+04
  -3.433605e+05  -6.864265e+05
   8.962034e+05  -1.102005e+06
   1.658389e+06  -6.543953e+05
   1.318013e+06   4.902934e+05
   2.095024e+05   1.388255e+06
  -7.830813e+05   1.304453e+06
  -1.042104e+06   4.664961e+05
  -6.387419e+05  -2.674720e+05
  -1.032741e+05  -3.543427e+05
   1.037137e+05  -4.355127e+04
  -6.620612e+04   3.726208e+04
  -2.972468e+05  -3.561466e+05
  -2.297898e+05  -7.948677e+05
   2.039218e+05  -6.498873e+05
   6.693398e+05   1.619808e+05
   6.728487e+05   9.754615e+05
   4.362810e+04   1.009359e+06
  -7.648881e+05   1.886781e+05
  -9.793488e+05  -7.652370e+05
  -2.847958e+05  -1.073973e+06
   7.241583e+05  -6.156381e+05
   1.073952e+06   1.183950e+05
   4.792305e+05   5.939964e+05
  -3.016184e+05   6.234709e+05
  -3.561637e+05   3.377569e+05
   2.704780e+05   2.499494e+04
   6.428305e+05  -1.408644e+04
   1.231399e+05   3.005750e+05
  -8.262195e+05   6.403948e+05
  -1.219467e+06   5.065347e+05
  -7.081731e+05  -1.774513e+05
   1.245937e+05  -8.342315e+05
   5.421520e+05  -8.043449e+05
   3.946379e+05  -1.220123e+05
   2.403905e+04   4.819584e+05
  -2.535662e+05   4.029945e+05
  -3.429252e+05  -1.786395e+05
  -2.262676e+05  -5.725003e+05
   7.339764e+04  -3.936765e+05
   3.800981e+05   6.635300e+04
   4.451978e+05   2.724110e+05
   2.318875e+05   8.648297e+04
  -1.474392e+04  -1.297144e+05
  -7.510876e+04  -5.600658e+03
  -3.117099e+04   3.640997e+05
  -1.156609e+05   5.135611e+05
  -3.375037e+05   1.611918e+05
  -4.065824e+05  -4.158315e+05
  -9.110545e+04  -6.449474e+05
   4.213655e+05  -2.838588e+05
   6.255357e+05   3.105302e+05
   2.189142e+05   5.782308e+05
  -4.997692e+05   3.368227e+05
  -8.461012e+05  -1.128533e+05
  -4.489675e+05  -3.845555e+05
   3.007700e+05  -3.640429e+05
   6.266052e+05  -1.808818e+05
   2.272073e+05  -4.595784e+03
  -3.673179e+05   4.021994e+04
  -4.086095e+05  -9.933025e+04
   1.919591e+05  -2.967240e+05
   7.677522e+05  -2.450479e+05
