
 $NMID
 id='ANONYMOUS ', fmtdat='(2E16.6)'
 volume=1.0
 tramp=1.0
 $END
  -4.804434e+07  -7.573358e+05
  -2.916065e+07  -2.882103e+07
   5.577794e+06  -3.208332e+07
   2.327567e+07  -1.370767e+07
   1.475020e+07   4.638496e+06
  -2.167876e+06   8.109094e+06
  -8.716933e+06  -9.823594e+04
  -3.263188e+06  -8.310358e+06
   4.864472e+06  -9.001383e+06
   8.475200e+06  -2.427203e+06
   6.254921e+06   5.600912e+06
   6.118749e+05   7.923380e+06
  -3.700509e+06   2.229405e+06
  -2.438783e+06  -5.458681e+06
   3.269486e+06  -6.419121e+06
   7.007654e+06   8.390229e+05
   4.104082e+06   8.952995e+06
  -3.190923e+06   1.043145e+07
  -8.831624e+06   5.042044e+06
  -9.220157e+06  -2.106391e+06
  -5.211690e+06  -6.535790e+06
  -2.391775e+05  -6.957997e+06
   2.080753e+06  -4.689211e+06
   5.977074e+05  -2.601865e+06
  -1.558845e+06  -2.922825e+06
   1.909445e+05  -4.501964e+06
   5.732856e+06  -3.806648e+06
   9.213415e+06   2.152788e+05
   6.167521e+06   4.168996e+06
  -4.556588e+05   4.496504e+06
  -4.004173e+06   1.796187e+06
  -2.198239e+06  -7.547182e+05
   1.440620e+06  -1.369734e+06
   3.065484e+06  -1.878195e+05
   2.144460e+06   2.153900e+06
   1.695534e+04   4.106827e+06
  -1.958523e+06   3.206261e+06
  -2.419030e+06  -6.098628e+05
  -8.887051e+05  -3.173217e+06
   7.094480e+05  -1.023616e+06
  -1.281121e+05   2.845852e+06
  -2.467006e+06   2.328624e+06
  -2.320598e+06  -2.722540e+06
   1.693432e+06  -5.350187e+06
   5.484099e+06  -1.015260e+06
   4.243268e+06   5.766505e+06
  -1.485307e+06   7.221460e+06
  -6.452225e+06   2.031270e+06
  -6.475086e+06  -4.041100e+06
  -1.993413e+06  -5.652790e+06
   3.204691e+06  -2.776255e+06
   5.188237e+06   1.190342e+06
   2.618896e+06   3.169406e+06
  -1.973143e+06   2.109880e+06
  -4.080035e+06  -6.742598e+05
  -1.878079e+06  -2.333799e+06
   1.484346e+06  -1.232448e+06
   1.763377e+06   9.239141e+05
  -8.771919e+05   1.104980e+06
  -2.284069e+06  -1.003738e+06
  -3.892664e+04  -2.664332e+06
   3.531947e+06  -1.803648e+06
   4.615027e+06   8.086377e+05
   2.192764e+06   3.338614e+06
  -1.826774e+06   4.765431e+06
  -5.036654e+06   4.321527e+06
  -5.873975e+06   1.287578e+06
  -3.953002e+06  -3.187895e+06
  -6.144145e+05  -5.807564e+06
   1.617535e+06  -4.584663e+06
   1.481084e+06  -1.560820e+06
   4.380021e+05  -2.411548e+05
   6.610573e+05  -1.058962e+06
   2.130034e+06  -1.365990e+06
   2.888909e+06   3.652854e+05
   1.765529e+06   2.417462e+06
  -3.818456e+05   2.349420e+06
  -1.907996e+06   6.131514e+04
  -1.753970e+06  -2.394128e+06
   1.904583e+05  -3.034215e+06
   2.850099e+06  -1.378776e+06
   4.142972e+06   1.479371e+06
   2.723775e+06   3.616664e+06
  -2.052200e+05   3.716747e+06
  -2.013768e+06   2.295354e+06
  -1.886692e+06   1.058778e+06
  -1.676853e+06   8.021634e+05
  -2.929447e+06   5.788392e+05
  -4.363038e+06  -7.414244e+05
  -3.498460e+06  -2.816205e+06
  -7.296989e+04  -4.217846e+06
   3.417676e+06  -3.908492e+06
   4.412288e+06  -1.934167e+06
   2.652958e+06   6.924181e+05
   5.373034e+03   2.348890e+06
  -1.335456e+06   1.848007e+06
  -5.502989e+05  -1.227028e+05
   1.208345e+06  -1.277635e+06
   1.912400e+06  -3.407633e+05
   8.186207e+05   1.216062e+06
  -6.278598e+05   1.134876e+06
  -5.609925e+05  -3.953371e+05
   9.232825e+05  -9.066790e+05
   1.903021e+06   9.000280e+05
   1.007488e+06   3.300267e+06
  -1.178673e+06   3.700422e+06
  -3.085675e+06   1.604566e+06
  -3.634248e+06  -1.258649e+06
  -2.596867e+06  -2.975316e+06
  -4.939907e+05  -2.865863e+06
   1.377356e+06  -1.498167e+06
   1.674146e+06  -1.485790e+05
   5.088918e+05   6.009906e+04
  -3.583070e+05  -7.808539e+05
   4.054460e+05  -1.326890e+06
   1.885099e+06  -5.542603e+05
   2.040298e+06   8.709579e+05
   4.174023e+05   1.406155e+06
  -1.201181e+06   5.945961e+05
  -9.838871e+05  -4.853523e+05
   8.439104e+05  -6.453332e+05
   2.362548e+06   2.356178e+05
   1.963097e+06   1.452504e+06
  -2.145868e+05   2.167671e+06
  -2.453853e+06   1.759068e+06
  -2.901167e+06   2.491392e+05
  -1.224163e+06  -1.292620e+06
   9.469533e+05  -1.463381e+06
   1.532506e+06  -1.484605e+05
   1.411917e+05   1.073541e+06
  -1.567362e+06   7.122337e+05
  -1.771341e+06  -8.081359e+05
  -3.884183e+05  -1.714765e+06
   1.095084e+06  -1.068716e+06
   1.325199e+06   2.591686e+05
   3.090711e+05   7.890584e+05
  -7.813601e+05   5.733114e+04
  -7.195834e+05  -1.092623e+06
   6.481254e+05  -1.445322e+06
   2.096563e+06  -4.867483e+05
   2.067496e+06   1.147925e+06
   3.490817e+05   2.144683e+06
  -1.500360e+06   1.669153e+06
  -1.783286e+06   2.087969e+05
  -5.332819e+05  -8.976291e+05
   6.852645e+05  -8.395608e+05
   7.020174e+05  -5.766181e+04
  -9.940878e+04   4.518082e+05
  -5.825983e+05   2.817727e+05
  -2.512442e+05  -1.009010e+05
   4.050364e+05  -2.474103e+04
   5.659436e+05   6.217528e+05
  -1.762152e+05   1.214673e+06
  -1.430754e+06   9.162180e+05
  -2.149019e+06  -4.643273e+05
  -1.470420e+06  -2.043621e+06
   2.838399e+05  -2.524751e+06
   1.724490e+06  -1.486756e+06
   1.814196e+06   1.291636e+05
   9.549039e+05   1.012096e+06
   3.327480e+05   8.208203e+05
   4.142285e+05   3.169561e+05
   5.615744e+05   3.024212e+05
   6.853594e+04   7.391228e+05
  -9.041948e+05   9.325250e+05
  -1.531203e+06   3.484648e+05
  -1.134852e+06  -7.941266e+05
   2.575355e+05  -1.584111e+06
   1.825028e+06  -1.125361e+06
   2.354727e+06   5.416115e+05
   1.172433e+06   2.197244e+06
  -1.038536e+06   2.434561e+06
  -2.619996e+06   1.063251e+06
  -2.465572e+06  -6.714129e+05
  -1.060773e+06  -1.417167e+06
   1.889220e+05  -1.065500e+06
   4.809959e+05  -5.941574e+05
   2.061042e+05  -7.634766e+05
   1.864319e+05  -1.285151e+06
   7.048164e+05  -1.274257e+06
   1.316404e+06  -2.866924e+05
   1.348082e+06   1.160199e+06
   5.246352e+05   1.986256e+06
  -6.904345e+05   1.478731e+06
  -1.344527e+06  -1.942163e+04
  -8.353831e+05  -1.322872e+06
   3.867916e+05  -1.440350e+06
   1.162606e+06  -4.598766e+05
   8.261631e+05   6.489741e+05
  -8.425064e+04   1.066943e+06
  -4.945004e+05   8.176980e+05
  -6.724665e+04   4.662440e+05
   4.257441e+05   3.762314e+05
   4.259716e+04   4.065675e+05
  -1.171012e+06   2.040740e+05
  -2.097694e+06  -3.739118e+05
  -1.657991e+06  -1.087319e+06
   2.009292e+04  -1.456134e+06
   1.618280e+06  -1.135639e+06
   1.891898e+06  -2.838173e+05
   8.786883e+05   4.677962e+05
  -2.557526e+05   5.560355e+05
  -5.167787e+05   5.167619e+04
  -4.540055e+03  -3.970467e+05
   4.871253e+05  -2.445814e+05
   4.845752e+05   3.678595e+05
   1.967717e+05   7.679776e+05
   4.285496e+04   5.003644e+05
   1.531955e+05  -1.280559e+05
   3.377172e+05  -3.357774e+05
   2.905151e+05   2.433990e+05
  -1.953454e+05   1.037080e+06
  -9.573733e+05   1.078742e+06
  -1.362501e+06   1.231227e+05
  -8.091759e+05  -9.687502e+05
   4.552960e+05  -1.131346e+06
   1.281090e+06  -2.786434e+05
   7.414189e+05   6.281773e+05
  -7.350812e+05   6.685961e+05
  -1.674240e+06  -1.136417e+05
  -1.089326e+06  -9.160715e+05
   4.860663e+05  -1.060686e+06
   1.590874e+06  -5.263438e+05
   1.324644e+06   1.983529e+05
   1.501475e+05   5.519955e+05
  -6.800814e+05   2.872010e+05
  -3.805227e+05  -3.004461e+05
   6.409141e+05  -5.078144e+05
   1.224890e+06   1.439757e+05
   6.322003e+05   1.260819e+06
  -6.992646e+05   1.742584e+06
  -1.588955e+06   8.590067e+05
  -1.290331e+06  -8.370712e+05
  -1.617712e+05  -1.887012e+06
   8.087957e+05  -1.357495e+06
   9.737886e+05   1.826035e+05
   4.489964e+05   1.256796e+06
  -2.221553e+05   1.030995e+06
  -5.817956e+05   8.941307e+04
  -5.020147e+05  -4.144581e+05
  -1.932579e+05  -1.589679e+05
  -4.401442e+04   1.077979e+05
  -2.501724e+05  -2.940885e+05
  -4.969585e+05  -1.014628e+06
  -2.043100e+05  -1.142684e+06
   7.226565e+05  -4.055444e+05
   1.538057e+06   5.238544e+05
   1.348936e+06   9.098866e+05
   1.810233e+05   7.300581e+05
  -9.275125e+05   4.132031e+05
  -1.044895e+06   1.755699e+05
  -3.576458e+05  -4.763925e+04
   1.668198e+05  -2.292462e+05
   1.604286e+04  -2.307416e+05
  -3.024990e+05  -1.240826e+05
  -3.837640e+04  -1.411231e+05
   7.275898e+05  -2.168937e+05
   1.090444e+06   4.539380e+04
   3.955259e+05   7.255925e+05
  -9.334719e+05   1.192399e+06
  -1.775723e+06   7.322032e+05
  -1.430744e+06  -4.968827e+05
  -2.429177e+05  -1.481217e+06
   8.274853e+05  -1.412609e+06
   1.108374e+06  -5.201972e+05
   6.823035e+05   2.735527e+05
   1.203916e+05   3.764425e+05
  -9.562886e+04   5.027216e+04
   7.905470e+04  -3.374199e+04
   3.181783e+05   3.856625e+05
   2.493567e+05   8.525650e+05
  -2.079504e+05   7.005723e+05
  -7.126890e+05  -1.590045e+05
  -7.353042e+05  -1.026326e+06
  -7.238869e+04  -1.076159e+06
   8.042699e+05  -2.190297e+05
   1.056595e+06   7.961826e+05
   3.255653e+05   1.144684e+06
  -7.628700e+05   6.761335e+05
  -1.156915e+06  -1.084410e+05
  -5.316052e+05  -6.365955e+05
   3.117849e+05  -6.835976e+05
   3.872152e+05  -3.737412e+05
  -2.765548e+05  -2.486918e+04
  -6.848974e+05   2.265002e+04
  -1.402894e+05  -3.210639e+05
   8.793973e+05  -6.937786e+05
   1.315465e+06  -5.522186e+05
   7.765870e+05   1.860423e+05
  -1.212804e+05   8.995417e+05
  -5.799931e+05   8.774657e+05
  -4.289730e+05   1.488416e+05
  -3.489522e+04  -5.086157e+05
   2.620748e+05  -4.398729e+05
   3.639482e+05   1.777412e+05
   2.503445e+05   6.098273e+05
  -6.698287e+04   4.307347e+05
  -4.063898e+05  -6.216010e+04
  -4.871877e+05  -2.924105e+05
  -2.526300e+05  -9.642881e+04
   2.632083e+04   1.444340e+05
   8.872619e+04   2.171853e+04
   1.823666e+04  -3.771021e+05
   9.248642e+04  -5.531906e+05
   3.443108e+05  -1.921632e+05
   4.481741e+05   4.221382e+05
   1.225035e+05   6.796178e+05
  -4.405117e+05   3.116219e+05
  -6.774822e+05  -3.152753e+05
  -2.446290e+05  -6.103308e+05
   5.339740e+05  -3.697846e+05
   9.118825e+05   1.034651e+05
   4.885307e+05   4.051365e+05
  -3.143591e+05   4.013488e+05
  -6.675489e+05   2.119201e+05
  -2.506497e+05   1.310023e+04
   3.778110e+05  -5.018685e+04
   4.289167e+05   9.232671e+04
  -1.963296e+05   3.087804e+05
  -8.043168e+05   2.645386e+05
