
 $NMID
 id='ANONYMOUS ', fmtdat='(2E16.6)'
 volume=1.0
 tramp=1.0
 $END
   3.638347e+07  -7.466088e+05
   2.355608e+07   1.933731e+07
  -1.899847e+06   2.391553e+07
  -1.654754e+07   1.278299e+07
  -1.202593e+07  -1.227730e+06
   5.051568e+05  -6.335543e+06
   6.886537e+06  -1.434080e+06
   3.864568e+06   6.023230e+06
  -2.687930e+06   8.170522e+06
  -6.506752e+06   3.069824e+06
  -5.336348e+06  -4.279467e+06
  -7.737232e+05  -6.636758e+06
   3.044174e+06  -1.746544e+06
   2.383206e+06   4.937498e+06
  -2.170672e+06   5.960804e+06
  -5.639532e+06   5.725113e+04
  -3.889399e+06  -6.831891e+06
   1.863193e+06  -8.442843e+06
   6.684650e+06  -4.230027e+06
   7.088689e+06   1.585773e+06
   3.737593e+06   4.912214e+06
   4.804582e+04   4.790291e+06
  -9.389314e+05   3.047983e+06
   8.283486e+05   2.249499e+06
   2.115038e+06   3.328657e+06
  -3.290856e+05   4.528274e+06
  -5.449642e+06   3.296541e+06
  -8.143010e+06  -4.018852e+05
  -5.080854e+06  -3.605318e+06
   9.024704e+05  -3.680054e+06
   3.937470e+06  -1.148588e+06
   1.861494e+06   1.348106e+06
  -2.037858e+06   1.833094e+06
  -3.613128e+06   1.115122e+05
  -2.107643e+06  -2.576660e+06
   3.993547e+05  -4.014353e+06
   1.827248e+06  -2.450681e+06
   1.510562e+06   9.824804e+05
   1.620560e+05   2.490412e+06
  -6.005265e+05   9.973251e+04
   3.863389e+05  -3.050882e+06
   2.148496e+06  -2.316445e+06
   2.139257e+06   1.928915e+06
  -5.980222e+05   4.217944e+06
  -3.576610e+06   1.143318e+06
  -3.310000e+06  -4.015052e+06
   6.365879e+05  -5.448636e+06
   4.919216e+06  -1.798725e+06
   5.716633e+06   2.991705e+06
   2.283314e+06   4.718761e+06
  -2.524950e+06   2.789139e+06
  -4.758898e+06  -4.732989e+05
  -2.763288e+06  -2.444144e+06
   1.273186e+06  -1.940600e+06
   3.348147e+06   1.772358e+05
   1.767146e+06   1.672372e+06
  -1.081787e+06   1.070512e+06
  -1.693742e+06  -6.469593e+05
   2.988852e+05  -1.214884e+06
   1.917651e+06   8.174932e+04
   7.626954e+05   1.651212e+06
  -2.099663e+06   1.686545e+06
  -3.594532e+06  -1.588918e+03
  -2.045164e+06  -2.342792e+06
   1.468760e+06  -4.017362e+06
   4.459827e+06  -3.772488e+06
   5.065294e+06  -1.057212e+06
   3.220167e+06   2.787658e+06
   5.540199e+05   4.988020e+06
  -1.001693e+06   4.117864e+06
  -9.718288e+05   1.829687e+06
  -6.142957e+05   7.471985e+05
  -1.209778e+06   1.144342e+06
  -2.425653e+06   1.009234e+06
  -2.797928e+06  -7.527220e+05
  -1.542657e+06  -2.614109e+06
   5.977271e+05  -2.408800e+06
   2.103786e+06  -5.152580e+04
   1.844675e+06   2.400861e+06
  -1.823119e+05   2.908034e+06
  -2.642319e+06   1.167754e+06
  -3.596097e+06  -1.428801e+06
  -2.216619e+06  -3.069067e+06
   1.791297e+05  -2.945294e+06
   1.496992e+06  -1.794176e+06
   1.341706e+06  -9.774305e+05
   1.330473e+06  -9.373829e+05
   2.632279e+06  -7.977582e+05
   4.055186e+06   4.039608e+05
   3.386687e+06   2.423066e+06
   2.653606e+05   3.951237e+06
  -3.106285e+06   3.802980e+06
  -4.174809e+06   1.863127e+06
  -2.485802e+06  -7.473827e+05
   1.165128e+05  -2.282553e+06
   1.353155e+06  -1.701002e+06
   5.037718e+05   1.677988e+05
  -1.151461e+06   1.216055e+06
  -1.736946e+06   3.657780e+05
  -7.168091e+05  -1.082186e+06
   6.152627e+05  -1.102415e+06
   6.685223e+05   3.226862e+05
  -6.289735e+05   1.080023e+06
  -1.805699e+06  -3.180412e+05
  -1.463213e+06  -2.738954e+06
   4.185208e+05  -3.706539e+06
   2.627133e+06  -2.139389e+06
   3.707047e+06   7.175130e+05
   2.892810e+06   2.750386e+06
   6.857487e+05   2.841135e+06
  -1.302042e+06   1.494961e+06
  -1.621703e+06   1.628175e+05
  -4.845437e+05  -3.732647e+04
   3.756965e+05   7.185018e+05
  -2.816283e+05   1.216051e+06
  -1.659949e+06   5.906503e+05
  -1.913054e+06  -6.503952e+05
  -4.972379e+05  -1.238839e+06
   1.083731e+06  -6.405340e+05
   1.025981e+06   4.034867e+05
  -7.099487e+05   7.696667e+05
  -2.344902e+06   3.736196e+04
  -2.112802e+06  -1.279705e+06
   7.209507e+03  -2.187250e+06
   2.264876e+06  -1.873020e+06
   2.756296e+06  -3.901971e+05
   1.200147e+06   1.126471e+06
  -8.032749e+05   1.347403e+06
  -1.356132e+06   1.816945e+05
  -1.289880e+05  -9.634712e+05
   1.434363e+06  -7.202950e+05
   1.715088e+06   6.466968e+05
   5.192476e+05   1.592454e+06
  -9.205612e+05   1.136311e+06
  -1.285376e+06  -8.842648e+04
  -3.987516e+05  -6.975494e+05
   6.873900e+05  -1.017574e+05
   7.042326e+05   9.893667e+05
  -5.747353e+05   1.378509e+06
  -1.970666e+06   5.169159e+05
  -1.986449e+06  -1.015968e+06
  -4.169771e+05  -1.999552e+06
   1.317995e+06  -1.638147e+06
   1.663304e+06  -3.038577e+05
   5.754042e+05   8.076381e+05
  -5.934972e+05   8.447899e+05
  -7.091358e+05   8.151911e+04
   3.178430e+04  -5.141357e+05
   6.033727e+05  -3.811434e+05
   3.793078e+05   1.023638e+05
  -3.076568e+05   1.559615e+05
  -5.998525e+05  -4.669494e+05
   4.680920e+04  -1.138029e+06
   1.288897e+06  -9.464786e+05
   2.052895e+06   3.352673e+05
   1.473017e+06   1.868058e+06
  -1.646315e+05   2.423712e+06
  -1.582284e+06   1.545782e+06
  -1.788537e+06   4.972804e+03
  -1.046540e+06  -9.753868e+05
  -3.856514e+05  -9.080006e+05
  -3.342595e+05  -3.752653e+05
  -4.536290e+05  -2.328463e+05
  -8.107420e+04  -6.388066e+05
   7.876604e+05  -9.385063e+05
   1.453955e+06  -4.462016e+05
   1.179110e+06   7.191689e+05
  -1.296554e+05   1.589413e+06
  -1.690888e+06   1.201894e+06
  -2.289434e+06  -3.973255e+05
  -1.251042e+06  -2.019424e+06
   8.126296e+05  -2.347224e+06
   2.387161e+06  -1.169103e+06
   2.402168e+06   4.552695e+05
   1.173694e+06   1.293355e+06
  -7.326824e+04   1.108598e+06
  -4.929010e+05   6.706801e+05
  -2.815279e+05   7.272583e+05
  -1.842431e+05   1.157500e+06
  -5.983773e+05   1.183570e+06
  -1.201459e+06   3.071390e+05
  -1.310396e+06  -1.054853e+06
  -5.699379e+05  -1.870338e+06
   6.062810e+05  -1.433445e+06
   1.285317e+06  -5.238133e+04
   8.678947e+05   1.186368e+06
  -2.511971e+05   1.376249e+06
  -1.017060e+06   5.501916e+05
  -7.999746e+05  -4.786515e+05
  -3.397193e+04  -9.562833e+05
   3.446434e+05  -8.065981e+05
   6.468026e+03  -4.812047e+05
  -4.032561e+05  -3.606539e+05
  -4.612246e+04  -3.930544e+05
   1.071510e+06  -2.528190e+05
   1.962365e+06   2.514324e+05
   1.617552e+06   9.331221e+05
   9.530869e+04   1.339343e+06
  -1.424888e+06   1.123703e+06
  -1.760046e+06   3.875577e+05
  -8.722747e+05  -3.324644e+05
   1.913889e+05  -5.024004e+05
   4.674751e+05  -1.003715e+05
  -4.299004e+03   3.324626e+05
  -4.778277e+05   2.387650e+05
  -4.657713e+05  -3.322599e+05
  -1.616686e+05  -7.397957e+05
  -7.946823e+03  -4.792915e+05
  -1.455250e+05   1.666325e+05
  -3.490409e+05   3.821080e+05
  -2.965008e+05  -2.127278e+05
   1.713266e+05  -1.013411e+06
   8.644917e+05  -1.052596e+06
   1.225380e+06  -1.315494e+05
   7.413495e+05   8.931911e+05
  -3.901659e+05   1.040557e+06
  -1.170500e+06   2.593043e+05
  -7.210164e+05  -5.869004e+05
   6.575456e+05  -6.760021e+05
   1.621439e+06   8.606466e+03
   1.148289e+06   8.106246e+05
  -3.629436e+05   1.074469e+06
  -1.506276e+06   6.456406e+05
  -1.319627e+06  -9.193212e+04
  -1.950858e+05  -5.323575e+05
   6.286247e+05  -3.279647e+05
   3.554193e+05   2.536757e+05
  -6.181475e+05   4.814038e+05
  -1.167673e+06  -1.332488e+05
  -5.983771e+05  -1.200655e+06
   6.632239e+05  -1.666031e+06
   1.513351e+06  -8.391821e+05
   1.259209e+06   7.731653e+05
   2.162110e+05   1.809275e+06
  -7.224555e+05   1.357456e+06
  -9.473108e+05  -1.018283e+05
  -5.142616e+05  -1.178528e+06
   1.247841e+05  -1.020377e+06
   5.380023e+05  -1.278013e+05
   5.310319e+05   3.847546e+05
   2.300275e+05   1.564334e+05
   2.284303e+04  -1.165494e+05
   1.937495e+05   2.462027e+05
   4.918453e+05   9.405487e+05
   2.855963e+05   1.093049e+06
  -6.216756e+05   4.224950e+05
  -1.498575e+06  -4.451736e+05
  -1.368816e+06  -8.191126e+05
  -2.055444e+05  -6.818207e+05
   9.110199e+05  -4.253533e+05
   1.007249e+06  -2.215647e+05
   3.102185e+05   9.708829e+03
  -1.667349e+05   2.213106e+05
   3.960873e+04   2.433344e+05
   3.433881e+05   1.335732e+05
   2.237213e+04   1.370014e+05
  -7.411847e+05   2.139874e+05
  -1.037096e+06  -2.266445e+04
  -3.287079e+05  -6.734503e+05
   9.005614e+05  -1.140032e+06
   1.639509e+06  -7.188018e+05
   1.321354e+06   4.584580e+05
   2.593923e+05   1.415564e+06
  -7.326048e+05   1.357977e+06
  -1.041513e+06   4.979064e+05
  -6.677017e+05  -2.670577e+05
  -1.055046e+05  -3.552684e+05
   1.327577e+05  -2.306499e+04
  -5.780235e+04   6.748455e+04
  -3.383203e+05  -3.428059e+05
  -2.843820e+05  -8.053282e+05
   1.871469e+05  -6.649331e+05
   6.954859e+05   1.626863e+05
   7.047136e+05   9.903785e+05
   4.803644e+04   1.021051e+06
  -7.910407e+05   1.877677e+05
  -1.017507e+06  -7.718973e+05
  -3.132600e+05  -1.081145e+06
   7.167880e+05  -6.329948e+05
   1.084390e+06   8.383351e+04
   4.984577e+05   5.606888e+05
  -2.753637e+05   6.188964e+05
  -3.205151e+05   3.570134e+05
   3.071158e+05   3.096517e+04
   6.642394e+05  -3.500085e+04
   1.283762e+05   2.944559e+05
  -8.187248e+05   6.937733e+05
  -1.202160e+06   5.965782e+05
  -7.034850e+05  -1.226073e+05
   9.382708e+04  -8.451585e+05
   4.913949e+05  -8.358697e+05
   3.636194e+05  -1.226814e+05
   2.585724e+04   5.023996e+05
  -2.461568e+05   4.044218e+05
  -3.557256e+05  -1.969544e+05
  -2.501471e+05  -5.764669e+05
   6.296618e+04  -3.784547e+05
   3.883254e+05   6.467447e+04
   4.590668e+05   2.391171e+05
   2.427319e+05   6.110148e+04
  -9.140181e+03  -1.077381e+05
  -8.298274e+04   4.359595e+04
  -5.921737e+04   3.863427e+05
  -1.493046e+05   4.905119e+05
  -3.492765e+05   1.237543e+05
  -3.896471e+05  -4.374554e+05
  -6.768868e+04  -6.530516e+05
   4.318822e+05  -2.908370e+05
   6.300022e+05   3.087403e+05
   2.306005e+05   5.917916e+05
  -4.880894e+05   3.612483e+05
  -8.504773e+05  -9.212909e+04
  -4.655627e+05  -3.747112e+05
   2.900104e+05  -3.624649e+05
   6.218621e+05  -1.842743e+05
   2.087192e+05  -1.213976e+04
  -4.024080e+05   2.802405e+04
  -4.295779e+05  -1.194270e+05
   2.131196e+05  -3.266210e+05
   8.174857e+05  -2.737273e+05
