
 $NMID
 id='ANONYMOUS ', fmtdat='(2E16.6)'
 volume=1.0
 tramp=1.0
 $END
  -3.962985e+03   2.762265e+00
  -2.325988e+03  -2.197185e+03
   5.257481e+02  -2.339009e+03
   1.685429e+03  -1.009471e+03
   8.306119e+02   2.482008e+02
  -3.340012e+02   3.846623e+02
  -6.565254e+02  -1.789511e+02
  -5.934973e+01  -8.899754e+02
   6.494647e+02  -6.586428e+02
   7.810336e+02  -3.043549e+01
   4.444747e+02   7.027606e+02
  -1.087478e+02   7.703909e+02
  -4.657074e+02   1.402581e+02
  -3.169911e+02  -5.512654e+02
   1.782642e+02  -6.439614e+02
   5.161675e+02  -6.187573e+01
   2.965483e+02   5.610870e+02
  -2.566681e+02   6.310807e+02
  -5.380113e+02   2.016369e+02
  -4.158888e+02  -2.443661e+02
  -1.708974e+01  -4.299192e+02
   1.823460e+02  -2.429279e+02
   1.828132e+02  -4.821986e+01
  -1.779202e+02   1.851699e+01
  -3.788365e+02  -1.783741e+02
  -8.569425e+01  -4.156791e+02
   4.799687e+02  -3.071747e+02
   7.104008e+02   1.511303e+02
   3.417198e+02   4.884339e+02
  -3.393760e+02   3.417637e+02
  -6.407682e+02  -7.055868e+01
  -2.848183e+02  -4.209172e+02
   2.701638e+02  -4.767522e+02
   5.443185e+02  -1.881547e+02
   3.968411e+02   1.854962e+02
   9.098549e+01   4.660314e+02
  -1.567798e+02   2.056434e+02
  -9.166555e+01  -1.886135e+02
   1.729048e+02  -2.971632e+02
   3.160829e+02   8.184828e+01
   1.319369e+02   5.796289e+02
  -3.345850e+02   5.892199e+02
  -4.357217e+02   7.075943e+00
  -2.041163e+02  -4.652463e+02
   2.286028e+02  -2.275591e+02
   3.303107e+02   3.483016e+02
  -6.161300e+01   4.792543e+02
  -4.935611e+02   1.473242e+02
  -5.381096e+02  -3.786719e+02
  -1.804018e+02  -5.282367e+02
   3.560058e+02  -2.821226e+02
   6.152698e+02   7.035783e+01
   3.784823e+02   3.371095e+02
  -7.765881e+01   2.786117e+02
  -3.800210e+02   1.036590e+02
  -2.086130e+02  -9.179343e+01
   7.423529e+01  -1.134768e+02
   8.259646e+01   1.249163e+02
  -8.473911e+01   1.383909e+02
  -3.016584e+02  -3.721560e+01
  -1.818890e+02  -2.844371e+02
   1.800876e+02  -2.199407e+02
   3.373289e+02  -1.412908e+02
   2.357944e+02   7.455484e+01
  -2.496837e+01   2.830199e+02
  -2.674205e+02   3.468760e+02
  -3.164671e+02   1.932734e+02
  -2.858530e+02  -1.554746e+02
  -7.225338e+01  -4.159421e+02
   8.466946e+01  -3.238644e+02
   5.027848e+01  -1.319727e+02
  -1.699340e+00  -2.862706e+01
   1.197132e+02  -1.026789e+02
   1.968984e+02  -9.374694e+01
   2.615226e+02   8.428392e+01
   1.349531e+02   2.300080e+02
  -8.715424e+01   2.489242e+02
  -2.296566e+02  -2.214706e+01
  -2.065827e+02  -2.306205e+02
   2.339719e+01  -2.451772e+02
   2.609428e+02  -1.297206e+02
   3.355891e+02   1.461005e+02
   1.701255e+02   3.102532e+02
  -1.045752e+02   2.664021e+02
  -2.095402e+02   1.444971e+02
  -1.526484e+02   3.868722e+01
  -1.437517e+02   5.416462e+01
  -2.532993e+02   9.027519e+01
  -3.725665e+02  -1.190235e+02
  -3.548339e+02  -2.834850e+02
   1.601108e+00  -3.992013e+02
   3.901868e+02  -3.890191e+02
   5.156378e+02  -1.811224e+02
   3.614142e+02   1.096293e+02
   2.423003e+01   2.739600e+02
  -9.636079e+01   2.085287e+02
  -4.335726e+01   4.763470e+01
   9.360103e+01  -7.753130e+01
   1.427601e+02  -1.150499e+01
   1.742335e+01   1.573790e+02
  -1.526173e+02   1.484872e+02
  -1.693808e+02  -7.392645e+01
   6.291224e+01  -2.198846e+02
   1.603362e+02  -3.653680e+01
   1.841932e+02   2.487485e+02
  -1.365244e+01   3.310444e+02
  -2.183014e+02   2.271854e+02
  -3.959520e+02  -4.464713e+01
  -2.684557e+02  -2.341580e+02
  -8.173861e+01  -2.842323e+02
   1.420542e+02  -1.551118e+02
   1.690779e+02   1.456840e+01
   6.518529e+01   3.279804e+01
  -5.927611e+01  -6.179475e+01
  -1.627451e+01  -1.004959e+02
   1.274729e+02  -5.731545e+01
   1.566542e+02   2.601299e+01
   4.771922e+01   4.740688e+01
  -1.082139e+02   6.308796e+00
  -4.410917e+01  -7.173356e+01
   1.327964e+02  -1.045528e+02
   2.600831e+02  -4.504280e+00
   2.603732e+02   2.477327e+02
   8.459239e+01   2.906765e+02
  -1.996950e+02   2.463824e+02
  -2.875958e+02   1.381464e+02
  -1.547337e+02  -6.629542e+01
   4.360127e+01  -8.362982e+01
   6.728151e+01   3.217721e+01
  -2.632023e+01   5.437613e+01
  -1.844698e+02   7.462994e+01
  -1.974138e+02  -1.118627e+02
  -6.967735e+01  -1.978812e+02
   9.252341e+01  -1.609135e+02
   1.486048e+02  -1.675822e+01
   7.478303e+01   6.716473e+01
  -4.354136e+01  -1.168746e+01
  -2.118423e+01  -6.607647e+01
   1.036317e+02  -1.015173e+02
   2.110622e+02  -4.120852e+01
   1.662564e+02   1.459731e+02
  -1.377370e+01   2.384434e+02
  -1.624587e+02   1.717219e+02
  -1.701201e+02  -1.381339e+01
  -8.220909e+01  -1.000082e+02
   6.909240e+01  -1.117627e+02
   7.568905e+01  -2.626106e+01
   7.846452e+00   1.528815e+01
  -6.474026e+01   2.678041e+01
  -5.768148e+00  -1.127160e+01
   4.667997e+01   2.761384e+01
   9.978173e+01   1.190221e+02
  -7.232265e-01   1.623675e+02
  -1.575879e+02   1.613394e+02
  -2.325147e+02   1.916315e+01
  -1.764295e+02  -1.481991e+02
  -2.640837e+01  -2.458186e+02
   6.965637e+01  -1.279703e+02
   1.449694e+02  -7.116695e+01
   8.959689e+01   4.730702e+01
   1.166240e+01   5.904872e+01
   6.912921e+01   4.223774e+00
   7.168614e+01  -3.901323e+01
   7.497940e+01   4.179998e+01
  -6.062907e+01   1.057372e+02
  -1.062400e+02   5.697788e+01
  -1.107390e+02  -6.994677e+01
   3.262005e+01  -1.039232e+02
   8.593357e+01  -7.656450e+01
   2.018611e+02   3.154083e+01
   2.207483e+01   2.097775e+02
  -9.548479e+01   2.292988e+02
  -2.256955e+02   6.979717e+01
  -2.884478e+02  -1.265542e+02
  -1.217070e+02  -1.368667e+02
   4.912707e+01  -1.248616e+02
   7.890720e+01  -7.960406e+01
   9.031544e+01  -7.495414e+01
   7.404448e+01  -1.045876e+02
   1.035749e+02  -6.686629e+01
   1.429789e+02   3.195705e+01
   1.103873e+02   1.202477e+02
  -2.406365e+01   2.212826e+02
  -1.286846e+02   1.619393e+02
  -1.776516e+02   1.983587e+00
  -1.296418e+02  -1.308862e+02
   9.364819e+00  -1.570120e+02
   7.305276e+01  -8.662097e+01
   2.665714e+01  -7.054320e+00
  -3.734220e+01   6.430237e+01
  -5.122938e+01   3.572016e+01
   2.427593e+01   3.613685e+01
   4.937396e+01   4.076774e+01
   3.003364e+01   2.107228e+01
  -8.155385e+01   3.380777e+01
  -1.449562e+02  -6.505816e+00
  -1.288488e+02  -3.278336e+01
   1.126789e+00  -7.716253e+01
   1.030389e+02  -7.544093e+01
   1.589554e+02  -2.267372e+00
   6.285569e+01   6.569205e+01
  -4.188384e+01   1.371515e+01
  -5.749508e+01  -4.267861e+01
  -5.026358e+00  -5.207881e+01
   5.987494e+01  -4.684910e+01
   4.380991e+01   2.053657e+01
   5.759255e+01   4.617255e+01
   6.186433e+01   5.059486e+01
   8.634164e+01  -3.754828e+00
   6.523986e+01  -9.419995e+00
   1.451869e+01   8.072199e+01
  -2.293781e+01   1.167672e+02
  -1.413567e+02   1.212969e+02
  -2.273672e+02   3.061280e+01
  -1.043606e+02  -1.202419e+02
   9.471026e+00  -1.253649e+02
   6.905382e+01  -3.101877e+01
   5.956199e+01   4.119648e+01
  -5.364979e+01   2.948717e+01
  -1.266402e+02  -6.340302e+00
  -4.588205e+01  -1.173774e+02
   1.016795e+02  -8.992419e+01
   1.612656e+02  -5.440635e+01
   1.617909e+02   2.806070e+01
   4.647388e+01   9.664932e+01
  -3.369269e+01   5.366386e+01
  -6.752966e+01   1.649140e+00
   2.673766e+01  -5.212191e+01
   9.878610e+01   2.278317e+00
   4.238414e+01   1.256803e+02
  -8.879719e+01   1.106034e+02
  -1.220016e+02   7.497349e+01
  -1.173017e+02  -8.229170e+01
   1.268693e+01  -1.936845e+02
   1.139659e+02  -1.308269e+02
   7.978292e+01   3.811068e+00
   7.223363e+01   1.201826e+02
   3.298241e+01   9.510043e+01
  -5.120621e+01   9.783124e+00
  -3.012353e+01  -3.260056e+01
  -6.123652e+01  -3.600582e+01
  -5.503312e+01   1.182023e+01
  -1.317693e+01  -6.456136e+01
  -2.527506e+01  -7.962773e+01
  -4.091792e+01  -1.033513e+02
   5.766597e+01  -4.352890e+01
   1.132451e+02   4.267645e+00
   1.702907e+02   8.788893e+01
   2.076541e+01   4.951252e+01
  -3.413762e+01   6.364080e+01
  -1.012446e+02   5.275246e+00
  -3.072697e+01  -3.588929e+01
   2.386137e+01  -3.148561e+01
   3.519024e+00  -2.142120e+01
  -4.027759e+01  -1.122094e+01
   1.539865e+01   1.345307e+01
   9.791250e+01   1.893465e+00
   5.377399e+01   2.958445e+01
   2.293716e+01   1.003346e+02
  -1.053273e+02   1.050312e+02
  -1.677959e+02   6.763466e+01
  -1.407135e+02  -5.581036e+01
  -2.586361e+01  -1.600440e+02
   6.021769e+01  -1.782109e+02
   1.329147e+02  -6.109028e+01
   9.346422e+01   4.165888e+01
   6.016128e+01   3.296221e+01
   3.864312e+01   7.224354e+01
   5.247217e+01  -1.132103e+01
   5.074179e+01   3.961312e+01
   6.024309e+00   1.056256e+02
  -5.406416e+01   3.388647e+01
  -9.195151e+01  -7.039887e+01
  -6.127853e+01  -8.811109e+01
  -2.117060e+01  -9.815539e+01
   5.407358e+01  -3.831262e+01
   1.150566e+02   3.147302e+01
   2.235517e+01   1.247036e+02
  -8.870025e+01   6.626324e+01
  -1.538380e+02  -5.449623e-01
  -6.465908e+01  -6.199005e+01
   9.655946e+00  -8.031992e+01
   4.494558e+01  -1.149630e+01
  -5.061490e+01   9.686375e-01
  -5.100542e+01   6.765430e+00
   6.380509e+00  -4.693059e+01
   5.802321e+01  -2.067914e+01
   1.424410e+02  -4.145335e+01
   7.785880e+01   2.839519e+01
  -2.311228e+01   7.089796e+01
  -7.691811e+01   8.114911e+01
  -1.059486e+01  -4.469199e+00
   1.050573e+01  -2.877334e+01
  -4.188745e-01  -1.764880e+01
   3.079584e+01   1.709404e+01
   4.896657e+00   1.853625e+01
  -1.593478e+01   3.934069e+01
  -2.833144e+01   1.662600e+01
  -3.469186e+01  -3.307889e+01
  -2.170280e+01   1.925359e+01
  -6.885862e-01   2.611788e+01
   6.036013e+01  -2.725534e+01
  -1.511532e+01  -4.251089e+01
   5.443240e+00  -7.376603e+01
   3.726941e+01   5.383592e+00
   4.146488e+01   2.840117e+01
   3.176448e+01   7.229250e+01
  -4.809078e+01   3.302362e+01
  -5.169800e+01  -5.303301e+00
   2.115008e+01  -6.114648e+01
   5.730121e+01  -1.867180e+01
   1.162081e+02   2.269523e+01
   7.880178e+01   2.575263e+01
  -3.467607e+01   6.123513e+01
  -3.604734e+01   6.239264e+01
  -3.227065e+01   1.081337e+01
   5.837038e+01  -7.954412e+00
   6.404849e+00   4.880828e+00
  -6.151886e+00   3.948734e+01
  -9.093397e+01   1.119386e+01
