
 $NMID
 id='ANONYMOUS ', fmtdat='(2E16.6)'
 volume=1.0
 tramp=1.0
 $END
   3.965056e+03   1.272607e+02
   2.315890e+03   2.459048e+03
  -7.486643e+02   2.343896e+03
  -1.886653e+03   7.794279e+02
  -8.233059e+02  -6.904020e+02
   5.968703e+02  -5.596465e+02
   8.775602e+02   3.926296e+02
  -2.575307e+01   1.003806e+03
  -7.376711e+02   7.508431e+02
  -8.622695e+02  -1.205052e+02
  -4.205887e+02  -7.654145e+02
   2.223917e+02  -8.600156e+02
   6.024449e+02  -1.123221e+02
   3.929256e+02   7.077794e+02
  -2.941238e+02   7.036962e+02
  -6.168842e+02  -4.768601e+01
  -2.238745e+02  -6.372391e+02
   3.103336e+02  -5.988741e+02
   5.185653e+02  -6.934406e+01
   3.317803e+02   3.116062e+02
  -2.429078e+01   4.264650e+02
  -2.613825e+02   2.517642e+02
  -1.796290e+02  -1.772821e+01
   1.319182e+02  -1.128116e+02
   4.027754e+02   1.610582e+02
   1.236171e+02   4.446949e+02
  -4.524236e+02   3.969526e+02
  -8.524456e+02  -8.229876e+01
  -3.691868e+02  -4.602958e+02
   3.973959e+02  -4.459573e+02
   6.735901e+02   6.067262e+01
   3.076028e+02   4.301289e+02
  -2.424483e+02   5.092475e+02
  -5.323264e+02   1.840709e+02
  -3.865622e+02  -2.620012e+02
  -7.280476e+01  -4.559787e+02
   1.523375e+02  -2.626084e+02
   1.099551e+02   2.102562e+02
  -1.323517e+02   3.851723e+02
  -4.064983e+02  -1.252068e+01
  -2.036317e+02  -6.483700e+02
   3.260609e+02  -5.962476e+02
   6.282185e+02  -1.335553e+01
   2.421367e+02   5.495413e+02
  -2.698872e+02   3.409279e+02
  -3.442106e+02  -2.936383e+02
   2.188129e+01  -5.258224e+02
   4.990979e+02  -1.224920e+02
   5.646753e+02   3.916986e+02
   1.327261e+02   5.614978e+02
  -3.283226e+02   3.177072e+02
  -5.913292e+02  -6.151743e+01
  -3.654171e+02  -3.669734e+02
   1.468906e+02  -3.616853e+02
   4.244388e+02  -5.670517e+01
   2.137573e+02   1.706322e+02
  -1.009629e+02   9.277239e+01
  -1.441543e+02  -1.013936e+02
   1.277539e+02  -2.073190e+02
   3.361357e+02   1.079325e+02
   1.445710e+02   2.192135e+02
  -1.930925e+02   2.743054e+02
  -3.106020e+02   3.492796e+01
  -2.298449e+02  -9.864795e+01
   4.622506e+01  -2.382981e+02
   1.881295e+02  -2.705549e+02
   3.392338e+02  -1.714026e+02
   2.667121e+02   1.084271e+02
   8.044151e+01   3.980330e+02
  -9.303131e+01   3.511159e+02
  -7.916851e+01   7.285827e+01
  -1.980001e+01  -2.634462e+01
  -3.887204e+01   5.438859e+01
  -1.639041e+02   1.079577e+02
  -2.502173e+02  -7.759052e+01
  -1.162877e+02  -2.643436e+02
   5.697594e+01  -2.547503e+02
   2.379088e+02  -3.400342e+01
   2.154936e+02   2.235032e+02
  -3.548695e+01   2.757478e+02
  -2.227398e+02   1.034080e+02
  -3.243631e+02  -1.731935e+02
  -1.775291e+02  -3.156743e+02
   1.025147e+02  -2.987365e+02
   2.442330e+02  -1.226634e+02
   1.309166e+02  -5.341380e+00
   8.206054e+01  -3.668507e+01
   2.199675e+02  -8.649704e+01
   3.751825e+02   4.562781e+01
   3.153610e+02   2.557852e+02
   6.315415e-01   4.194580e+02
  -3.290022e+02   3.696567e+02
  -4.362008e+02   1.553242e+02
  -3.080768e+02  -7.838888e+01
  -4.985315e+00  -2.588792e+02
   1.208509e+02  -2.287741e+02
   4.131467e+01  -4.146864e+01
  -1.137711e+02   1.105043e+02
  -1.956040e+02  -3.238063e+01
  -6.911735e+01  -2.034070e+02
   1.731128e+02  -1.920222e+02
   1.489724e+02   4.373915e+01
  -6.352376e+01   1.624728e+02
  -1.857108e+02   2.103893e+01
  -1.471194e+02  -1.859257e+02
   3.067700e+01  -3.402822e+02
   2.089034e+02  -1.543480e+02
   3.573110e+02   5.932306e+01
   2.652786e+02   2.471548e+02
   9.469927e+01   2.828051e+02
  -9.700795e+01   8.703016e+01
  -1.773487e+02   1.290390e+01
  -6.491761e+01  -4.085419e+01
   4.261645e+01   2.398715e+01
   7.821422e+01   8.153697e+01
  -1.355704e+02   3.605214e+01
  -1.769052e+02  -1.858442e+01
  -7.014094e+01  -3.860189e+01
   8.636018e+01  -2.630174e+01
   5.296143e+01   5.575636e+01
  -8.624162e+01   1.270764e+02
  -3.005268e+02   6.855758e+01
  -2.356388e+02  -1.207423e+02
  -2.108963e+01  -2.341808e+02
   2.027822e+02  -2.245300e+02
   2.636211e+02  -6.940807e+01
   1.897922e+02   2.512767e+00
  -2.983254e+01   1.119431e+02
  -1.034125e+02   2.447051e+01
   1.697325e+01  -7.314038e+01
   1.789349e+02  -9.000917e+01
   2.253503e+02   9.259954e+01
   8.094423e+01   2.077114e+02
  -5.168579e+01   1.278942e+02
  -1.333866e+02   5.350743e+01
  -7.144944e+01  -4.634489e-01
   7.268459e+00   8.634707e-01
  -1.261181e+00   1.037911e+02
  -2.825225e+01   9.745999e+01
  -2.124397e+02   5.372075e+01
  -2.000028e+02  -6.282387e+01
  -3.759634e+01  -1.952593e+02
   9.872537e+01  -1.432012e+02
   1.696276e+02  -1.491534e+01
   9.358668e+01   1.266014e+02
  -3.242953e+01   7.352118e+01
  -1.050615e+02  -2.950250e+01
   1.967469e+00  -1.439937e+01
   1.931402e+01   9.324755e+00
   9.874756e+00   2.722576e+01
  -3.662805e+01  -8.864911e+00
  -5.591362e+01  -5.976361e+01
   2.316008e+00  -1.719898e+02
   1.132059e+02  -1.359744e+02
   1.956421e+02  -1.984933e+00
   2.084128e+02   1.471070e+02
   7.287479e+01   2.449786e+02
  -9.437244e+01   1.287633e+02
  -1.139405e+02   2.701886e+01
  -4.354830e+01  -2.961365e+01
  -4.331691e+01   4.964025e-01
  -3.047301e+01   4.782009e+01
  -5.497917e+01  -1.795085e+01
  -1.911876e+01  -6.170376e+01
   7.702865e+01  -8.518763e+01
   9.323888e+01  -3.759572e+01
   1.279055e+02   2.410242e+01
  -2.827337e+01   9.735915e+01
  -1.580237e+02   7.517269e+01
  -2.062396e+02  -4.789521e+01
  -1.259660e+02  -1.681379e+02
   1.175852e+02  -2.153091e+02
   2.770421e+02  -2.996679e+01
   2.555793e+02   9.931748e+01
   1.260549e+02   1.377551e+02
  -4.941791e+01   1.491995e+02
  -1.033706e+02   9.559158e+01
  -8.875172e+01   7.382202e+01
  -6.773144e+01   1.006585e+02
  -6.793413e+01   2.805437e+01
  -1.092964e+02   3.464111e+00
  -1.050447e+02  -1.547315e+02
  -2.921410e+01  -1.787833e+02
   8.933376e+01  -1.592400e+02
   1.479244e+02  -3.200753e+01
   1.313065e+02   1.185605e+02
  -6.205062e+00   1.493098e+02
  -5.109097e+01   6.864358e+01
  -6.293953e+01  -2.819155e+01
  -6.457603e+00  -2.104605e+01
   1.628446e+01  -1.056799e+01
  -4.598391e+01  -3.728836e+01
  -5.583988e+01   4.389001e+00
  -4.618746e+01  -5.044385e+01
   7.000875e+01  -3.993196e+01
   1.250849e+02  -2.969489e+01
   1.068222e+02   5.710553e+01
   2.167868e+01   6.630592e+01
  -1.296652e+02   6.674369e+01
  -1.392678e+02   2.068831e+01
  -3.507816e+01  -4.550572e+01
   7.849573e+01  -2.619408e+01
   4.651144e+01   1.710800e+01
   1.412832e+01   7.321553e+01
  -4.582103e+01   2.091098e+01
  -6.691626e+01  -5.748187e+00
  -4.369524e+01  -1.064767e+01
  -2.776272e+01  -3.477840e+01
  -3.033122e+01  -1.581950e+01
  -7.371323e+01   4.397112e+01
  -3.171866e+01  -7.035249e+01
   2.685835e+01  -1.714321e+02
   1.224520e+02  -1.409107e+02
   1.397824e+02  -4.073973e+01
   1.223366e+02   7.706928e+01
   3.939057e+01   1.073223e+02
  -6.709567e+01   7.422244e+01
  -8.099369e+01  -7.522956e+00
   4.675756e+01  -2.234165e+01
   1.072254e+02   6.275713e+01
   8.310534e+01   1.062496e+02
  -6.682844e+01   1.277634e+02
  -2.088280e+02   5.917609e+01
  -1.211552e+02  -1.008411e+01
  -2.609863e+01  -5.611783e+01
   6.351270e+01  -4.642800e+01
   7.631162e+01  -1.688405e+01
  -5.495011e+01  -5.906597e+00
  -7.000722e+01  -2.617798e+01
  -3.405458e+01  -1.420861e+02
   1.010566e+02  -1.290748e+02
   1.732773e+02  -9.935023e+01
   1.156968e+02   9.061615e+01
   2.502423e+01   1.893872e+02
  -4.189120e+01   1.119763e+02
  -8.018149e+01  -2.420478e+01
  -7.167222e+01  -1.288683e+02
   4.866139e+00  -9.786118e+01
   2.612102e+01  -2.844294e+00
   6.502123e+01   2.315978e+01
   6.674036e+01  -3.984065e+00
   6.742818e+00  -4.398696e+01
  -5.683052e+00   1.424574e+00
   1.298138e+01   6.884600e+01
   2.791125e+01   8.397889e+01
  -4.119722e+01   3.984371e+01
  -1.594254e+02  -1.327865e+01
  -1.374524e+02  -6.924896e+01
  -1.313778e+01  -5.304837e+01
   9.435644e+01   2.676377e+01
   8.319160e+01  -7.067491e+00
   4.765009e+00   6.774398e+01
  -7.477223e+01   2.505902e+01
  -8.173459e+00   6.065195e+01
   5.290663e-01  -2.209016e+01
  -2.599131e+01  -1.153905e+01
  -7.873542e+01  -6.918021e+00
  -5.717779e+01  -2.888225e+01
  -1.610159e+00  -5.664301e+01
   6.882972e+01  -9.116594e+01
   1.760373e+02  -6.572062e+01
   1.335576e+02   5.804655e+01
   1.714544e+00   1.475665e+02
  -9.037215e+01   1.418635e+02
  -1.136359e+02   2.279731e+01
  -6.466498e+01  -2.590086e+01
  -3.537630e+01  -2.952552e+01
  -2.216780e+01  -2.285860e+01
  -2.405868e+01  -2.276424e+00
  -3.261560e+01  -6.332472e+01
   3.178134e+00  -7.149634e+01
   2.045048e+00  -5.841323e+01
   7.115361e+01  -7.123517e+00
   7.008645e+01   1.193877e+02
  -1.089452e+01   9.616167e+01
  -7.814850e+01  -1.352281e+01
  -1.058993e+02  -5.535029e+01
  -1.542636e+01  -7.449459e+01
   6.183749e+01  -4.351196e+01
   7.022904e+01   2.860685e+01
  -5.323083e+00   4.451648e+01
  -2.003804e+01   1.312579e+01
  -5.834953e+01   3.077781e+01
   4.316026e+01   3.353172e+01
   6.738589e+01   2.446380e+01
   2.957781e+01   3.065592e+01
  -1.036883e+02   3.846376e+01
  -1.251818e+02   3.382835e+01
  -2.091037e+01  -1.915499e+01
   5.207955e+01  -6.978057e+01
   5.035986e+01  -3.967926e+01
   2.909975e+01   1.744460e+01
  -2.980387e+01   7.117518e+01
  -2.157201e+01   1.191007e+01
  -4.553996e+01  -3.084783e+00
  -1.610438e+01  -7.388550e+01
   9.798561e+00  -5.616009e+00
   2.235870e+01   9.395842e+00
   2.158405e+01   8.588052e+01
  -2.920458e+01   1.630678e+01
  -1.133364e+01  -5.668065e+00
  -1.489847e+01   1.497642e+00
   6.250242e+01   3.025096e+01
  -2.103332e+01   4.704401e+01
  -3.095899e+01  -1.769579e+01
  -4.149561e+01  -3.992197e+00
   3.041891e+00  -7.434538e+01
   7.599023e+01  -3.776168e+01
   5.313479e+01   3.735118e+01
   5.080930e+00   4.912617e+01
  -2.456279e+01   8.675256e+01
  -8.819173e+01  -3.935700e+01
  -5.400514e+01  -3.112433e+01
   3.434218e+01  -3.205882e+01
   6.303195e+01  -3.987973e+01
   2.031195e+01  -4.989657e+00
  -3.903691e+01   3.192661e+00
  -5.180523e+01   1.464675e+00
  -1.643300e+00   1.964139e+00
   6.874017e+01  -9.954523e+00
