
 $NMID
 id='ANONYMOUS ', fmtdat='(2E16.6)'
 volume=1.0
 tramp=1.0
 $END
  -3.777053e+03  -1.572135e+02
  -2.178999e+03  -2.158639e+03
   5.070821e+02  -2.310306e+03
   1.632421e+03  -8.408666e+02
   7.704782e+02   3.943692e+02
  -5.215293e+02   3.943861e+02
  -7.231867e+02  -3.187966e+02
   5.737662e+01  -8.936791e+02
   6.947400e+02  -6.931769e+02
   8.150715e+02   6.467002e+01
   4.706831e+02   7.527609e+02
  -1.427791e+02   7.753230e+02
  -5.604200e+02   1.295794e+02
  -3.589366e+02  -6.674643e+02
   2.590758e+02  -6.667112e+02
   5.480927e+02  -6.233874e+01
   2.815728e+02   6.189643e+02
  -2.468737e+02   6.420768e+02
  -5.334486e+02   2.057269e+02
  -3.963071e+02  -2.650831e+02
  -1.628235e+01  -4.252616e+02
   2.427835e+02  -2.837061e+02
   2.145628e+02  -2.103558e+01
  -1.372301e+02   6.514248e+01
  -3.333937e+02  -1.176191e+02
  -1.394581e+02  -3.892615e+02
   4.227861e+02  -3.513408e+02
   7.403678e+02   1.318636e+02
   3.756360e+02   5.223896e+02
  -3.879265e+02   3.937804e+02
  -7.120888e+02  -6.127450e+01
  -2.908288e+02  -4.390900e+02
   3.002940e+02  -4.613467e+02
   5.268861e+02  -1.681735e+02
   3.999933e+02   1.688079e+02
   6.947691e+01   3.820645e+02
  -1.759118e+02   2.722195e+02
  -8.511260e+01  -2.360788e+02
   2.061444e+02  -3.782922e+02
   3.763238e+02   5.258804e+01
   1.875871e+02   6.743810e+02
  -2.882231e+02   5.881556e+02
  -5.621717e+02  -2.416557e+01
  -2.347233e+02  -4.540671e+02
   2.261588e+02  -2.405294e+02
   2.910603e+02   2.846462e+02
  -9.058468e+01   4.858686e+02
  -4.717549e+02   9.148908e+01
  -5.685095e+02  -3.607002e+02
  -1.756089e+02  -5.400268e+02
   3.536460e+02  -3.560456e+02
   6.216070e+02   2.780860e+01
   3.565566e+02   3.541999e+02
  -1.462244e+02   3.335815e+02
  -4.251305e+02   2.197733e+01
  -2.062837e+02  -1.421610e+02
   5.856350e+01  -6.536487e+01
   1.251181e+02   1.003085e+02
  -1.520771e+02   1.236128e+02
  -3.011821e+02  -3.224745e+01
  -1.515651e+02  -2.640876e+02
   2.044285e+02  -2.294106e+02
   3.072913e+02  -5.062444e+01
   2.021311e+02   7.415210e+01
  -2.216678e+01   2.406480e+02
  -2.378684e+02   3.732961e+02
  -4.048742e+02   2.158335e+02
  -2.737221e+02  -1.225651e+02
  -4.678769e+01  -3.953592e+02
   9.007734e+01  -3.547114e+02
   8.741583e+01  -1.144854e+02
  -1.819526e+01  -1.170783e+01
   3.774845e+01  -1.135990e+02
   1.444229e+02  -6.298441e+01
   2.548516e+02   5.532141e+01
   1.344168e+02   2.739629e+02
  -5.460197e+01   2.265833e+02
  -2.302308e+02   4.789098e+01
  -1.684553e+02  -2.277302e+02
   4.945258e+00  -3.154814e+02
   2.841955e+02  -1.221106e+02
   3.724649e+02   1.818481e+02
   2.088796e+02   3.190986e+02
  -2.930551e+01   2.843098e+02
  -2.020682e+02   1.472645e+02
  -1.594075e+02   2.335004e+01
  -6.975259e+01   4.201588e+01
  -2.631577e+02   5.744329e+01
  -3.735173e+02  -4.866381e+01
  -3.433189e+02  -2.772180e+02
  -1.890618e+01  -4.067957e+02
   3.305566e+02  -4.042502e+02
   4.495223e+02  -1.625982e+02
   3.147582e+02   1.143510e+02
   3.765834e+01   3.187442e+02
  -1.268137e+02   2.478100e+02
  -4.713019e+01   5.352545e+01
   9.671341e+01  -7.488510e+01
   1.671662e+02   1.113819e+01
   8.255246e+01   1.335809e+02
  -1.596995e+02   1.562838e+02
  -1.453467e+02  -3.532017e+01
   6.895038e+01  -1.922059e+02
   1.801809e+02  -1.762413e+01
   1.201636e+02   2.596558e+02
  -5.611473e+01   3.372280e+02
  -2.377254e+02   2.267480e+02
  -3.290932e+02  -6.513139e+01
  -2.136740e+02  -2.168508e+02
  -7.641079e+01  -2.753359e+02
   1.256774e+02  -1.614133e+02
   2.046046e+02  -1.490286e+01
   3.564883e+01   5.208426e+01
  -9.274540e+01  -5.821022e+01
  -3.961846e+01  -1.208537e+02
   1.197497e+02  -1.022256e+02
   1.819906e+02  -9.223299e+00
   6.404493e+01   6.399459e+01
  -1.201646e+02   1.763176e+01
  -6.227996e+01  -4.464212e+01
   8.979221e+01  -9.808910e+01
   2.774579e+02  -2.853183e+01
   2.946221e+02   1.627282e+02
   4.094342e+01   2.462787e+02
  -1.956001e+02   2.241365e+02
  -2.250486e+02   7.902557e+01
  -1.181960e+02  -6.612926e+01
   7.158170e+01  -1.121816e+02
   9.627812e+01   1.263910e+01
  -1.917554e+01   6.652832e+01
  -1.776157e+02   4.586867e+01
  -2.200474e+02  -8.148601e+01
  -7.716450e+01  -1.909148e+02
   9.253788e+01  -1.694292e+02
   1.419565e+02  -6.079806e+01
   3.888146e+01   6.617661e+01
  -2.708693e+01  -3.723766e+01
  -7.808303e+00  -4.942191e+01
   7.532417e+01  -8.973991e+01
   1.993222e+02  -7.556451e+01
   1.879773e+02   1.511952e+02
   4.440655e+01   1.795017e+02
  -1.585211e+02   1.923499e+02
  -2.114056e+02   4.149253e+01
  -3.303823e+01  -8.170228e+01
   9.437878e+01  -9.908322e+01
   5.707483e+01  -2.699425e+01
   3.865400e+01   3.960165e+01
  -3.168508e+01   5.498857e+01
  -4.187318e+00  -1.361350e+01
   3.708436e+01   1.879706e+01
   8.791686e+01   9.020778e+01
   3.748052e+01   1.380121e+02
  -1.458438e+02   1.147070e+02
  -2.116866e+02   6.350713e+00
  -1.826640e+02  -1.631876e+02
  -7.513519e+01  -2.138020e+02
   1.181821e+02  -1.532404e+02
   1.498257e+02  -1.710116e+01
   6.271063e+01   6.218736e+01
   2.432527e+01   4.489596e+01
   6.554010e+01  -5.304082e+01
   8.531817e+01  -1.366729e+01
   3.558641e+01   1.484258e+01
   1.352117e+01   7.310119e+01
  -1.252842e+02   7.335678e+01
  -1.336132e+02  -4.395110e+01
  -3.056548e+00  -9.486274e+01
   1.199368e+02  -5.157401e+01
   1.402590e+02   5.191689e+01
   1.010175e+02   2.113340e+02
  -1.044259e+02   2.474700e+02
  -2.495042e+02   6.485578e+01
  -2.537509e+02  -6.232144e+01
  -1.096230e+02  -1.601034e+02
   5.328798e+01  -1.645702e+02
   9.682081e+01  -7.380892e+01
   5.278582e+01  -8.231663e+01
   1.266976e+02  -2.900731e+01
   6.815843e+01  -1.177729e+02
   1.221822e+02   7.631210e+00
   1.004070e+02   1.214201e+02
   3.729577e+01   2.116368e+02
  -7.367185e+01   1.796283e+02
  -1.389382e+02  -8.558086e+00
  -1.568971e+02  -1.260254e+02
  -3.880996e-02  -1.660842e+02
   1.009592e+02  -8.551830e+01
   8.099883e+01   1.676312e+01
   1.266139e+01   7.169070e+01
  -3.901741e+01   6.095624e+01
   2.074274e+01   4.323665e+01
   5.437122e+01   4.746960e+00
   3.525692e+01   3.099674e+01
  -6.487607e+01   3.530922e+01
  -1.365419e+02   9.637323e-01
  -1.403884e+02  -5.237075e+01
  -3.264352e+01  -7.942314e+01
   1.300503e+02  -5.509287e+01
   9.409835e+01   4.399592e+00
   5.279658e+01   5.731027e+01
  -8.778580e+01   2.411586e+01
  -5.249002e+01  -5.510277e+00
   1.238838e+01  -6.166694e+01
   6.497413e+01  -5.477181e+01
   6.223368e+01   1.902858e+00
   4.129389e+01   7.236889e+01
   4.058838e+01   1.114504e+01
   4.762002e+01  -4.027544e+00
   7.359519e+01   1.225899e+01
   4.111440e+01   7.455446e+01
  -7.657415e+00   1.397550e+02
  -1.263654e+02   1.532369e+02
  -1.834007e+02   2.184316e+01
  -1.279370e+02  -1.047477e+02
  -3.943294e+00  -1.246390e+02
   4.975431e+01  -4.015954e+01
   8.111602e+01   4.805118e-02
  -6.018750e+01   1.661835e+01
  -1.369180e+02  -6.561810e+01
  -6.065717e+01  -1.122095e+02
   1.075417e+02  -1.430695e+02
   1.230167e+02  -5.471754e+01
   1.233108e+02   2.459395e+01
   3.172469e+01   1.143822e+02
  -3.726821e+01   6.303817e+01
  -7.767753e+01   7.251269e+00
   1.755249e+01  -3.485925e+01
   1.002574e+02  -1.094738e+00
   1.426325e+01   1.117229e+02
  -8.192670e+01   1.596204e+02
  -1.622756e+02   6.504169e+01
  -1.233547e+02  -9.856607e+01
   3.810598e+00  -1.949723e+02
   1.016740e+02  -1.498261e+02
   3.630405e+01  -3.067039e+00
   4.025224e+01   1.095061e+02
  -1.684439e+00   1.071335e+02
  -1.467872e+01   3.871544e+01
  -7.497362e+01  -6.966122e+01
   1.252954e+01  -1.165112e+01
  -3.072515e+01   3.203361e+01
  -3.295236e+01  -2.037125e+01
  -4.090606e+01  -9.466468e+01
  -3.605068e+01  -8.368653e+01
   2.939764e+01  -3.262756e+01
   1.532159e+02   3.880037e+01
   1.132108e+02   5.449190e+01
   2.224368e+01   4.726618e+01
  -4.993019e+01   2.259179e+01
  -8.244808e+01  -2.580323e+01
  -2.599266e+01  -1.187597e+01
   3.953116e+01  -6.625929e+00
   2.927792e+01  -7.564402e+01
  -1.322966e+01   2.080767e+01
  -1.367550e+01   2.980406e+01
   7.398813e+01   1.000871e+01
   1.170167e+02   4.631294e+01
  -5.528779e+00   7.604988e+01
  -1.094821e+02   1.081616e+02
  -2.048573e+02   6.683108e+01
  -1.530156e+02  -9.450001e+01
  -1.330572e+01  -1.679190e+02
   5.865626e+01  -1.421119e+02
   1.158032e+02  -9.028384e+01
   7.876135e+01   2.449346e+01
   1.912960e+01   6.083611e+01
  -1.072689e+01   9.678376e+00
   1.516757e+01   1.119562e+01
   3.377130e+01   4.538078e+01
   3.682704e+01   9.308061e+01
  -3.829381e+01   8.211770e+01
  -6.502491e+01  -3.850288e+01
  -6.820141e+01  -1.004641e+02
  -3.397492e+01  -1.063475e+02
   8.350268e+01  -2.402945e+01
   1.361853e+02   4.389274e+01
   2.073996e+01   7.530749e+01
  -8.630489e+01   4.785449e+01
  -8.069303e+01  -3.841482e+01
  -7.580921e+01  -3.696010e+01
   4.183369e+01  -3.719496e+01
   5.694761e+01   1.200056e+01
  -2.335021e+01  -2.745541e+01
  -5.030016e+01   7.832734e+00
   2.941061e+01   1.724883e+00
   3.607560e+01  -8.044365e+01
   1.002321e+02  -4.090389e+01
   8.565189e+01   4.201867e+01
   3.447495e+01   9.980156e+01
  -4.522244e+01   5.082409e+01
  -4.542675e+01   1.563421e+01
  -1.870955e+01  -4.617591e+01
   3.426347e+01  -1.930339e+01
   4.146580e+01  -6.981267e+00
   3.257345e+01   1.704398e+01
  -1.490571e+01   4.140128e+01
  -4.595864e+01  -1.764066e+01
  -5.747797e+01  -1.038662e+01
  -3.869496e+00   3.161842e+01
   1.628334e+01   2.632539e+01
   2.646406e+01  -1.535566e+01
  -2.024879e+00  -2.750732e+01
  -9.940334e+00  -3.187934e+01
   7.690549e+00   3.841319e+00
   5.135478e+01   1.460267e+01
  -2.217865e+01   1.062988e+01
  -4.766267e+01   1.203279e+01
  -4.690499e+01  -2.449622e+01
  -1.400879e+01  -7.135782e+01
   6.436475e+01  -5.448976e+01
   8.445837e+01   1.308493e+01
   8.002796e+01   3.042845e+01
  -2.495040e+01   2.856702e+01
  -7.114728e+01  -1.892030e+01
  -2.817391e+01   1.351427e+01
   3.140980e+01  -3.785996e+00
   7.703945e+01   2.411253e+01
  -3.759880e+01   4.723387e+01
  -7.376949e+01   1.494870e+01
