
 $NMID
 id='ANONYMOUS ', fmtdat='(2E16.6)'
 volume=1.0
 tramp=1.0
 $END
  -4.394526e+03  -9.195582e+01
  -2.462046e+03  -2.477841e+03
   8.345681e+02  -2.546790e+03
   2.006210e+03  -7.775330e+02
   8.846176e+02   7.091890e+02
  -6.857121e+02   6.276192e+02
  -1.001374e+03  -4.737858e+02
   1.495603e+01  -1.117691e+03
   8.689177e+02  -8.102829e+02
   9.203673e+02   9.653821e+01
   5.063360e+02   8.886724e+02
  -2.737062e+02   8.812861e+02
  -6.676096e+02   1.136951e+02
  -4.357567e+02  -7.049386e+02
   2.900935e+02  -8.189386e+02
   6.425606e+02  -5.479220e+00
   3.241104e+02   6.875415e+02
  -3.701150e+02   6.767060e+02
  -5.190489e+02   1.207576e+02
  -3.968130e+02  -3.705065e+02
  -3.397586e+01  -4.602203e+02
   2.765251e+02  -2.672738e+02
   1.879238e+02   4.608059e+01
  -1.290734e+02   1.079679e+02
  -4.334256e+02  -9.821461e+01
  -2.017213e+02  -4.698890e+02
   5.113021e+02  -3.946732e+02
   8.406145e+02   1.021621e+02
   4.555220e+02   5.883331e+02
  -4.299904e+02   5.028912e+02
  -7.789969e+02  -4.524440e+01
  -3.559372e+02  -5.070146e+02
   3.033481e+02  -6.001115e+02
   5.608658e+02  -1.606294e+02
   4.656725e+02   1.790053e+02
   6.355038e+01   5.169290e+02
  -2.209645e+02   2.275458e+02
  -1.640042e+02  -2.733365e+02
   2.036138e+02  -4.383328e+02
   4.781066e+02   9.325301e+00
   2.338552e+02   7.184639e+02
  -3.499035e+02   7.011219e+02
  -5.895472e+02  -2.511228e+01
  -2.786139e+02  -5.906828e+02
   2.956468e+02  -3.440187e+02
   4.270457e+02   3.628961e+02
  -6.239977e+01   5.931923e+02
  -5.435768e+02   1.682048e+02
  -6.129798e+02  -4.070003e+02
  -1.784198e+02  -5.969732e+02
   4.007396e+02  -3.513500e+02
   6.153576e+02   4.553751e+01
   3.645320e+02   4.121661e+02
  -2.072372e+02   3.759492e+02
  -4.779053e+02   4.949384e+01
  -2.352641e+02  -2.188874e+02
   1.198032e+02  -8.239963e+01
   1.319406e+02   1.476392e+02
  -1.557265e+02   2.068830e+02
  -3.255795e+02  -7.345391e+01
  -1.052165e+02  -3.090752e+02
   2.287771e+02  -2.977112e+02
   3.587623e+02  -6.393072e+01
   2.695952e+02   7.922051e+01
   3.249108e+01   2.446123e+02
  -2.287920e+02   3.620489e+02
  -3.499180e+02   2.223767e+02
  -3.242076e+02  -1.791436e+02
  -9.118319e+01  -4.524502e+02
   1.205425e+02  -4.047612e+02
   1.080120e+02  -1.195539e+02
   9.363908e+00  -1.802163e+01
   4.595410e+01  -8.498949e+01
   1.659159e+02  -1.102858e+02
   2.815830e+02   4.736771e+01
   1.954712e+02   2.596921e+02
  -5.617708e+01   2.217200e+02
  -2.276465e+02   1.605932e+01
  -2.311473e+02  -2.753512e+02
  -6.418969e+00  -2.779897e+02
   3.176407e+02  -1.232070e+02
   3.558501e+02   1.492841e+02
   1.814625e+02   3.416493e+02
  -9.720496e+01   3.069799e+02
  -2.182363e+02   1.317516e+02
  -1.763024e+02   1.692503e+01
  -8.947154e+01   2.934136e+01
  -2.415824e+02   6.715314e+01
  -3.365457e+02  -3.035474e+01
  -3.890970e+02  -2.756412e+02
  -1.324816e+01  -4.208718e+02
   3.895153e+02  -4.373119e+02
   4.947726e+02  -2.044733e+02
   3.216544e+02   1.139195e+02
   4.008946e+01   2.998179e+02
  -1.484028e+02   2.642697e+02
  -1.026189e+02   1.262366e+01
   1.368690e+02  -1.350987e+02
   1.898607e+02   3.062022e+01
   2.176398e+01   1.909138e+02
  -1.508787e+02   1.738346e+02
  -1.909575e+02  -7.069496e+01
   2.332417e+01  -2.216505e+02
   2.115429e+02  -1.936858e+01
   1.821268e+02   2.341047e+02
  -1.107607e+01   3.660250e+02
  -2.404994e+02   2.283618e+02
  -3.130947e+02  -7.723498e+01
  -2.863184e+02  -2.400425e+02
  -1.054399e+02  -2.729148e+02
   7.440956e+01  -1.356501e+02
   1.664460e+02  -1.896045e+01
   2.609436e+01   2.074263e+01
  -4.471263e+01  -6.977732e+00
  -2.030089e+01  -1.525296e+02
   1.354942e+02  -1.125665e+02
   1.965864e+02   5.117551e+01
   4.834273e+01   7.862821e+01
  -8.694730e+01   2.692179e+01
  -7.618837e+01  -4.614443e+01
   1.180365e+02  -1.153720e+02
   2.482720e+02  -1.126863e+01
   2.627233e+02   1.249437e+02
   4.993910e+01   2.616636e+02
  -1.605192e+02   2.534888e+02
  -2.699890e+02   1.058096e+02
  -2.027732e+02  -5.223995e+01
   7.177536e+01  -1.322103e+02
   9.726889e+01  -7.585857e+00
  -8.800049e+00   1.206907e+02
  -1.767668e+02   8.575414e+01
  -2.111890e+02  -7.996006e+01
  -6.821421e+01  -2.074145e+02
   1.255152e+02  -1.693756e+02
   1.180958e+02  -3.387099e+01
   8.597748e+01   4.786127e+01
  -4.387644e+01   1.899005e+01
  -4.642765e+01  -5.842527e+01
   7.943355e+01  -1.177223e+02
   1.871629e+02  -2.910300e+01
   2.026167e+02   9.369492e+01
   4.992054e+01   2.476942e+02
  -1.553131e+02   1.476088e+02
  -1.937005e+02   7.394753e+00
  -7.196536e+01  -1.166045e+02
   8.750649e+01  -1.618241e+02
   6.086415e+01  -1.747810e+01
   4.618404e+01   6.223191e+00
  -4.564344e+00   2.134799e+01
   2.442011e+01  -2.315780e+01
   3.100275e+01  -1.893027e+01
   7.842526e+01   6.008570e+01
   2.199408e+01   1.676623e+02
  -1.041870e+02   1.475603e+02
  -2.502881e+02   8.622464e+00
  -2.141745e+02  -1.153003e+02
  -3.658082e+01  -2.519615e+02
   9.214243e+01  -2.245414e+02
   1.485124e+02  -1.815591e+01
   4.375442e+01   4.340842e+01
   6.891092e+01   5.057697e+01
   6.801129e+01  -1.224543e+01
   6.777530e+01  -3.513043e+01
   4.680719e+01   8.692512e+01
  -3.829456e+01   1.105817e+02
  -1.271375e+02   3.763735e+01
  -7.044614e+01  -1.305366e+01
   2.347282e+01  -8.748956e+01
   1.062763e+02  -6.469448e+01
   1.923446e+02   5.300023e+01
   6.806000e+01   2.073223e+02
  -9.282792e+01   2.142653e+02
  -2.563885e+02   8.598996e+01
  -2.349234e+02  -9.131920e+01
  -1.193332e+02  -1.736467e+02
   4.052069e+01  -1.507390e+02
   1.262357e+02  -7.397885e+01
   9.397964e+01  -1.028775e+02
   4.237456e+01  -9.993612e+01
   7.428015e+01  -7.675547e+01
   1.241115e+02  -9.174507e+00
   9.722194e+01   1.535610e+02
   1.444274e+01   2.428655e+02
  -1.092349e+02   1.843770e+02
  -2.056851e+02   1.180652e+01
  -1.469622e+02  -1.699518e+02
  -7.273446e+01  -1.289063e+02
   3.874518e+01  -8.802351e+01
   9.303203e+01  -4.037384e+01
   6.529767e+00   2.931749e+01
  -3.171539e+01   3.221881e+01
  -1.062907e+01   2.374500e+01
   1.153632e+02   2.510122e+01
   1.908388e+01   6.231433e+01
  -5.762955e+01   6.487040e+01
  -1.363214e+02   8.661037e+00
  -1.266177e+02  -5.354764e+01
  -3.208814e+01  -8.713343e+01
   1.524409e+02  -7.498179e+01
   1.456687e+02  -3.737194e+01
   8.027475e+01   2.597557e+01
  -5.053205e+01   4.793760e+01
  -4.980876e+01  -2.804649e+00
   1.033116e+01  -5.097531e+01
   5.042377e+01  -2.333277e+01
   4.777180e+01   2.734321e+01
   4.367584e+01   4.612184e+01
   5.956995e+01   1.434675e+01
   5.128362e+01  -6.442797e+00
   9.193336e+01   1.294011e+01
   1.056832e+01   5.051947e+01
  -5.063572e+01   1.499177e+02
  -1.076181e+02   9.210703e+01
  -1.765643e+02   2.705803e+01
  -9.191343e+01  -1.146107e+02
   1.262880e+01  -1.413010e+02
   6.155328e+01  -7.275343e+01
   3.730885e+01   4.840752e+01
  -7.423150e+01   2.502955e+01
  -1.223882e+02  -3.050817e+01
  -7.509324e+01  -9.026060e+01
   1.106273e+02  -1.243050e+02
   1.932456e+02  -2.255683e+01
   1.748599e+02   2.168262e+01
  -2.233548e-01   1.152001e+02
  -6.407210e+01   9.818933e+01
  -6.845869e+01   2.976495e+00
   7.229293e+01  -1.203571e+01
   6.103699e+01  -1.223250e+01
   2.493732e+01   1.077608e+02
  -5.771808e+01   1.442313e+02
  -1.753951e+02   6.797847e+01
  -9.393809e+01  -1.117450e+02
  -3.938551e+01  -1.889536e+02
   5.985235e+01  -1.646501e+02
   6.069715e+01  -2.151248e+01
   3.959320e+01   1.273529e+02
  -3.604993e+01   1.158504e+02
  -2.178881e+01   2.468095e+01
  -3.241342e+01  -5.614041e+01
  -1.595237e+00   6.712964e+00
  -4.739030e+01   3.369280e+01
  -3.489703e+01  -1.094357e+01
  -3.746441e+01  -6.115140e+01
  -1.496979e+01  -9.653262e+01
   6.905159e+01  -2.627041e+01
   1.169252e+02   4.294319e+01
   8.423706e+01   7.775308e+01
   4.646146e+01   8.029302e+01
  -8.522618e+01   5.194034e+01
  -6.850206e+01   1.121630e+01
  -2.182737e+01   3.598217e+00
   3.415778e+01  -3.090803e+01
   6.312862e+00  -2.723184e+01
  -4.367227e+01  -2.978363e+01
  -7.566547e+00   4.145419e+01
   5.680950e+01   2.085255e+01
   7.313240e+01   2.688135e+01
  -1.053466e+01   9.421989e+01
  -7.562958e+01   9.740060e+01
  -1.981769e+02   7.416387e+01
  -1.780721e+02  -8.032472e+01
  -4.321145e+01  -1.716054e+02
   1.084331e+02  -1.667768e+02
   6.012278e+01  -6.990274e+01
   9.807412e+01   9.048635e+00
   3.512322e+01   6.607212e+01
  -1.324074e+01   3.457069e+01
   9.496993e+00  -4.064638e+01
   2.594067e+01   3.815679e+01
   4.917137e+01   8.663021e+01
  -3.278994e+01   7.402222e+01
  -8.943486e+01  -2.089563e+01
  -7.520744e+01  -1.450041e+02
  -3.062535e+01  -1.077529e+02
   1.372749e+02  -3.157765e+01
   7.075334e+01   4.694205e+01
   6.891151e+01   7.852270e+01
  -3.638723e+01   3.226301e+01
  -1.001689e+02  -1.416031e+01
  -6.131400e+01  -2.615910e+01
   2.998323e+01  -3.043742e+01
   3.728959e+01  -1.665674e+01
  -3.912599e+01  -3.396050e+00
  -1.727080e+01   3.698233e+01
  -6.571424e+00  -7.734596e+00
   5.464548e+01  -1.014401e+02
   1.581554e+02  -6.943971e+01
   5.533810e+01   3.902656e+01
  -4.845065e+01   6.617605e+01
  -3.819568e+01   1.000311e+02
  -3.740182e+01  -3.406713e+01
   2.170908e+01  -5.882378e+01
   2.078533e+01  -5.202599e+01
   2.431877e+01   6.297416e+00
   1.997392e+00   3.912444e+01
  -1.727875e+01   1.910018e+00
  -2.988512e+01   3.401885e+01
  -5.344964e+01  -3.691640e+01
  -3.453195e+01  -1.119059e+01
   3.072853e+01   4.081244e+01
  -5.122116e+01  -1.154181e-01
  -6.536659e+00  -5.711831e+01
   2.314346e+00  -1.055709e+01
   4.197145e+01   1.107886e+01
   1.269268e+01   4.430490e+01
   1.451531e+01   9.155418e+01
  -5.717647e+01   7.286196e+00
  -2.895617e+01  -7.826020e+01
   2.878147e+01  -1.066900e+02
   3.060762e+01  -6.886976e+01
   7.161320e+01   4.638965e+01
   6.617265e+01   5.000466e+01
   3.942478e+01   3.051529e+01
  -8.615429e+01  -7.533047e+00
   8.303781e+00   4.753171e+00
   1.555241e+01   1.044959e+01
   4.615420e+01   2.020690e+01
  -5.620405e+01   2.734529e+01
  -7.196181e+01   4.307700e+01
