
 $NMID
 id='ANONYMOUS ', fmtdat='(2E16.6)'
 volume=1.0
 tramp=1.0
 $END
   4.179742e+03   1.250427e+01
   2.354309e+03   2.435122e+03
  -7.257174e+02   2.505514e+03
  -1.941551e+03   8.516891e+02
  -7.941686e+02  -6.142582e+02
   6.427729e+02  -5.400710e+02
   8.796722e+02   4.367630e+02
  -1.899796e+01   1.012302e+03
  -8.239457e+02   7.375568e+02
  -9.537887e+02  -1.067325e+02
  -4.304942e+02  -8.616698e+02
   2.635158e+02  -8.322097e+02
   6.264254e+02  -1.169881e+02
   4.204902e+02   7.725024e+02
  -2.777475e+02   7.647971e+02
  -6.271397e+02   2.667509e+00
  -2.925143e+02  -6.372793e+02
   3.379159e+02  -6.344579e+02
   5.080623e+02  -2.003515e+02
   4.054436e+02   3.095588e+02
   1.497402e+01   4.218917e+02
  -2.789047e+02   2.476449e+02
  -2.498899e+02   1.073118e+01
   1.152401e+02  -9.226964e+01
   4.154848e+02   9.303622e+01
   1.434440e+02   4.532580e+02
  -4.531101e+02   3.776825e+02
  -8.510578e+02  -1.115991e+02
  -4.280338e+02  -5.651425e+02
   4.041152e+02  -4.760438e+02
   7.304609e+02   5.445425e+01
   3.555570e+02   4.670792e+02
  -3.264693e+02   5.314732e+02
  -5.495105e+02   1.507549e+02
  -3.906181e+02  -2.577325e+02
  -8.671094e+01  -4.695581e+02
   1.871425e+02  -2.720982e+02
   1.820653e+02   2.347231e+02
  -1.702987e+02   4.592605e+02
  -4.409633e+02  -1.900857e+01
  -2.327192e+02  -6.606537e+02
   3.545699e+02  -6.790715e+02
   5.506093e+02   5.715140e+00
   2.722458e+02   5.628297e+02
  -2.412979e+02   3.411206e+02
  -3.716977e+02  -3.025192e+02
   2.025394e+01  -5.624650e+02
   5.567338e+02  -1.801993e+02
   6.142426e+02   3.974651e+02
   2.112654e+02   6.089148e+02
  -3.977388e+02   3.570045e+02
  -6.302456e+02  -3.458791e+01
  -3.830741e+02  -3.438426e+02
   1.271886e+02  -3.559019e+02
   4.627615e+02  -3.250296e+01
   2.461980e+02   1.890151e+02
  -1.184945e+02   5.473444e+01
  -1.430219e+02  -1.636091e+02
   1.767887e+02  -1.424840e+02
   3.209508e+02   8.656705e+01
   1.139805e+02   3.181731e+02
  -2.381604e+02   3.023801e+02
  -3.543086e+02   1.116855e+02
  -1.916047e+02  -6.311294e+01
   7.443810e+00  -2.524098e+02
   2.309059e+02  -3.236047e+02
   3.413915e+02  -1.880224e+02
   2.932621e+02   1.314598e+02
   7.850786e+01   4.453522e+02
  -9.617639e+01   4.037861e+02
  -1.494489e+02   1.134099e+02
  -3.696178e+01  -9.145921e+00
  -5.722071e+01   1.058701e+02
  -1.507907e+02   1.043943e+02
  -2.348440e+02  -6.903380e+01
  -1.763269e+02  -2.735455e+02
   7.225169e+01  -2.641324e+02
   2.156499e+02  -1.882887e+01
   1.953011e+02   2.374242e+02
   1.917586e+00   2.490318e+02
  -2.703329e+02   1.426683e+02
  -3.420864e+02  -1.205307e+02
  -1.587250e+02  -3.171939e+02
   6.710163e+01  -2.881573e+02
   2.332171e+02  -1.196930e+02
   1.367063e+02  -7.958388e+00
   7.251227e+01   1.235263e+00
   2.356594e+02  -7.695460e+01
   3.775726e+02   8.675994e+00
   3.450303e+02   2.227198e+02
   2.836446e+00   4.466491e+02
  -3.297550e+02   4.380257e+02
  -5.317037e+02   1.954440e+02
  -3.125442e+02  -8.945499e+01
  -3.570207e+01  -3.038956e+02
   1.556261e+02  -2.513801e+02
   9.921985e+01  -6.372744e+00
  -1.070019e+02   1.289506e+02
  -1.818850e+02   8.608552e+00
  -1.550512e+01  -1.838417e+02
   1.570554e+02  -1.621248e+02
   1.660643e+02   7.557501e+01
  -3.842597e+01   1.905073e+02
  -2.249468e+02   5.133417e+01
  -1.395007e+02  -2.118965e+02
   1.613277e+01  -3.655774e+02
   2.421358e+02  -1.947396e+02
   3.150361e+02   9.519993e+01
   2.279285e+02   2.124784e+02
   6.273052e+01   2.712570e+02
  -8.763845e+01   1.769567e+02
  -1.440314e+02   4.271074e+01
  -3.676454e+01  -3.502514e+01
   4.164368e+01   1.872065e+01
   3.630922e+01   1.380933e+02
  -1.082833e+02   9.631476e+01
  -1.994762e+02  -4.231237e+01
  -5.216871e+01  -1.103902e+02
   8.212686e+01  -1.894031e+01
   3.531755e+01   7.132991e+01
  -1.162688e+02   6.887145e+01
  -2.663204e+02   1.143513e+01
  -2.492199e+02  -1.314567e+02
  -1.621538e+01  -2.465933e+02
   1.840732e+02  -2.599445e+02
   2.754481e+02  -1.075287e+02
   1.489248e+02   8.536795e+01
  -3.289758e+01   1.170151e+02
  -1.009897e+02  -2.738031e+01
   3.989013e+01  -9.773945e+01
   1.584059e+02  -3.594552e+01
   2.051210e+02   1.202380e+02
   9.303657e+01   2.138159e+02
  -9.027275e+01   1.871209e+02
  -1.227053e+02   3.268510e+01
  -4.773867e+01  -3.619777e+01
   4.863237e+01  -3.280697e+01
   4.937956e+01   6.195440e+01
  -5.358145e+01   9.521075e+01
  -1.832403e+02   3.942780e+01
  -1.592794e+02  -1.416266e+02
  -5.570938e+01  -1.928385e+02
   1.551747e+02  -1.373848e+02
   2.341681e+02  -3.068137e+01
   8.332438e+01   9.021957e+01
  -4.881812e+01   1.227538e+02
  -8.669283e+01   2.503383e+01
  -5.538490e+01   1.034396e-01
   2.079186e+01  -3.071624e+01
   1.567427e+01   1.742327e+01
  -5.401365e+01   2.522677e+01
  -6.976129e+01  -9.745500e+01
  -1.079495e+01  -1.708125e+02
   1.064203e+02  -1.329408e+02
   2.313178e+02  -1.161959e+01
   1.742638e+02   1.446454e+02
   4.883194e+01   2.325989e+02
  -9.176265e+01   1.370395e+02
  -1.198954e+02   4.694795e+01
  -5.516835e+01  -2.413896e+00
   1.682277e+01  -4.911481e+01
  -5.993084e+01   6.119938e+00
  -7.659347e+01  -2.057812e+01
  -5.236383e+01  -4.066062e+01
   3.698204e+01  -8.624936e+01
   1.128069e+02  -2.982636e+01
   7.700273e+01   5.460321e+01
  -3.689581e+01   9.443782e+01
  -1.202009e+02   2.830211e+01
  -1.673113e+02  -6.109096e+01
  -9.761983e+01  -2.103538e+02
   1.022835e+02  -2.416575e+02
   2.769882e+02  -1.007441e+02
   2.420604e+02   6.851232e+01
   1.195984e+02   1.841018e+02
  -5.123427e+01   1.318666e+02
  -1.030793e+02   5.789456e+01
  -7.001182e+01   6.185377e+01
  -1.114481e+02   8.680720e+01
  -9.094559e+01   4.231022e+01
  -1.092791e+02  -1.227883e+01
  -1.371473e+02  -1.063897e+02
  -2.617186e+01  -2.025565e+02
   8.196022e+01  -1.882208e+02
   1.862376e+02  -9.619205e+00
   1.540927e+02   1.452945e+02
   5.094409e+01   2.110880e+02
  -9.856295e+01   6.984738e+01
  -6.471035e+01   2.021818e+01
   1.717138e+01  -3.121342e+01
   7.275843e+00  -2.968466e+01
  -2.947370e+01  -1.829306e+01
  -5.837503e+01   5.982320e+00
  -4.326188e+01  -4.307160e+01
   3.847831e+01  -3.934936e+01
   1.253672e+02  -2.568643e+01
   1.535238e+02   1.043186e+02
   1.135875e+00   1.374050e+02
  -1.265986e+02   1.173179e+02
  -1.294737e+02  -6.615350e+00
  -7.067762e+01  -7.726651e+01
   2.703564e+01  -6.619907e+01
   6.100933e+01   2.742501e+01
   3.596012e-01   4.856161e+01
  -3.540777e+01   6.516668e+01
  -7.597722e+01  -1.474163e+01
  -4.635841e+01  -6.692285e+01
  -4.602272e+01  -2.815033e+01
  -3.250046e+01   2.741249e+01
  -9.032546e+01   3.428543e+01
  -4.651298e+01  -8.156034e+01
   1.089373e+01  -1.512101e+02
   1.447585e+02  -1.317573e+02
   1.889949e+02  -2.457886e+01
   1.349432e+02   8.319305e+01
   7.144731e+00   1.127118e+02
  -4.632648e+01   7.985126e+01
  -5.805216e+01  -5.747011e+00
  -1.628130e+01   1.002225e+01
   1.422508e+02   2.613467e+01
   2.772711e+01   1.433460e+02
  -7.173214e+01   8.998961e+01
  -1.880007e+02   4.606278e+01
  -1.734460e+02  -3.146363e+01
  -3.711678e+01  -5.056910e+01
   9.411616e+01  -8.714179e+01
   5.271014e+01   1.906054e+01
  -7.828945e+01  -1.974642e+01
  -8.562809e+01  -1.195981e+00
  -3.523582e+01  -1.085945e+02
   7.390987e+01  -1.610863e+02
   1.677642e+02  -9.143188e+01
   1.708612e+02   1.046485e+02
   4.517939e+01   1.820404e+02
  -3.097100e+01   1.480373e+02
  -7.311759e+01  -9.839041e+00
  -7.358573e+01  -1.018023e+02
   4.451487e+00  -8.856890e+01
   3.965642e+01  -1.634857e+01
   6.478942e+01   7.353479e+00
   3.439288e+01   3.205380e+01
   1.394191e+01  -3.911842e+01
  -2.393404e+00   4.876096e+01
   5.626105e+01   1.040695e+02
   4.562028e+01   9.626689e+01
  -7.726701e+01   2.860151e+01
  -1.180153e+02  -2.141887e+01
  -1.420702e+02  -3.812349e+01
  -4.407314e+00  -5.860555e+01
   8.022849e+01  -1.702816e+01
   1.144881e+02  -4.395600e+00
   6.168556e+00  -1.967987e+01
  -5.409609e+01  -4.614075e+00
  -3.563263e+01   2.426663e+01
   5.289401e+01   2.759719e+01
   2.078137e+01  -1.038551e+01
  -8.049213e+01   3.035015e+00
  -1.160994e+02  -7.268418e+00
  -6.818029e+00  -1.061640e+02
   1.122033e+02  -9.191175e+01
   1.636720e+02  -3.289666e+01
   1.306701e+02   6.766700e+01
  -9.039271e+00   1.852253e+02
  -8.062042e+01   1.244684e+02
  -1.145166e+02   8.325489e+01
  -5.951398e+01  -3.852176e+01
  -5.635996e+01  -4.328340e+01
   1.049106e+00   1.805219e+00
   1.638302e+00  -1.990178e+01
  -1.450987e+01  -2.809487e+01
  -2.224503e+01  -1.153212e+02
  -1.669334e+01  -3.162148e+01
   6.725808e+01   8.010632e+00
   6.343824e+01   1.007979e+02
  -4.831862e+00   1.021288e+02
  -9.576963e+01  -5.998750e+00
  -1.340502e+02  -4.041888e+01
  -4.552875e+01  -1.057624e+02
   3.018195e+01  -9.548234e+01
   8.537341e+01  -1.901352e-01
   5.448667e+01   3.670381e+01
  -5.116355e+01   2.529182e+01
  -1.664410e+01   3.766438e+01
  -1.234939e+00   1.015726e+01
   9.906690e+01  -2.541911e+01
   2.571748e+01  -1.557818e+01
  -4.506846e+01   5.139542e+01
  -1.196367e+02   3.255249e+01
  -5.895270e+01  -5.550138e+01
  -6.280790e-01  -5.347984e+01
   7.334783e+01  -9.271423e+01
  -1.214356e+00   2.781202e+01
  -5.212629e+01   5.871450e+01
  -1.413066e+01   4.415530e+01
  -4.985881e+01  -2.556573e+01
  -3.430608e+00  -3.342088e+01
   9.888494e+00   1.263227e+01
   3.200612e+01  -3.788563e+01
   4.167934e+01   7.193406e+01
  -2.572236e+01  -1.464029e+00
   3.950043e+00  -1.262332e+01
  -1.899512e+01   1.879297e+01
  -4.793945e+01   1.233528e+01
  -7.162455e+00   4.677884e+01
  -1.968625e+01   3.614400e+01
  -3.602523e+01  -4.422882e+01
  -8.292929e-01  -5.506943e+01
   3.261866e+01   8.539154e+00
   9.792138e+01  -9.356719e+00
   1.432742e+01   5.535127e+01
  -3.717016e+01   4.099090e+01
  -1.128501e+02  -1.878771e+01
  -7.506512e+01  -2.102401e+01
   9.320072e+00  -4.031126e+01
   8.836932e+01  -1.609237e+01
   2.600690e+01  -2.034020e+01
  -2.491402e+01  -3.731014e+01
  -6.034266e+01   2.715108e+01
   3.693097e+01  -1.960206e+01
   9.797235e+01  -1.909975e+01
