
 $NMID
 id='ANONYMOUS ', fmtdat='(2E16.6)'
 volume=1.0
 tramp=1.0
 $END
  -3.831714e+03  -8.427216e+01
  -2.293399e+03  -2.088288e+03
   4.039010e+02  -2.350504e+03
   1.584771e+03  -9.830411e+02
   8.884364e+02   1.923408e+02
  -2.825280e+02   3.686447e+02
  -6.058277e+02  -1.836938e+02
   2.761101e+01  -8.116731e+02
   6.022389e+02  -6.611642e+02
   7.419298e+02   2.211521e+01
   4.378994e+02   6.234469e+02
  -1.264633e+02   7.499422e+02
  -4.703702e+02   1.797394e+02
  -2.892460e+02  -5.430343e+02
   1.984382e+02  -6.317621e+02
   4.711384e+02  -6.540074e+01
   2.636921e+02   5.539352e+02
  -1.925261e+02   6.217833e+02
  -5.145209e+02   1.882816e+02
  -4.202657e+02  -2.602933e+02
  -5.920049e+01  -3.998859e+02
   2.063456e+02  -2.784333e+02
   1.553453e+02   7.472038e+00
  -1.707526e+02  -7.138762e+00
  -3.446671e+02  -2.189407e+02
  -1.136679e+02  -4.059131e+02
   4.310969e+02  -2.431131e+02
   6.615926e+02   1.638753e+02
   3.033380e+02   4.594205e+02
  -2.836704e+02   3.181599e+02
  -5.813126e+02  -8.833946e+01
  -2.538199e+02  -4.348201e+02
   3.080941e+02  -4.028724e+02
   5.415163e+02  -1.229257e+02
   3.734129e+02   2.049100e+02
   8.882211e+01   3.649106e+02
  -1.278897e+02   2.502486e+02
  -3.352656e+01  -1.666020e+02
   1.781648e+02  -2.964084e+02
   3.379350e+02   6.883856e+01
   9.422716e+01   5.564535e+02
  -3.377358e+02   5.019108e+02
  -4.313651e+02   3.419383e+01
  -1.983387e+02  -3.702830e+02
   2.143764e+02  -2.357484e+02
   2.786992e+02   2.734261e+02
  -1.145740e+02   4.924652e+02
  -4.892580e+02   7.750545e+01
  -5.340540e+02  -3.997776e+02
  -1.632615e+02  -4.976595e+02
   3.495634e+02  -2.963272e+02
   5.149830e+02   6.132301e+01
   3.154858e+02   3.289766e+02
  -1.522480e+02   3.094709e+02
  -3.630835e+02   5.028193e+01
  -2.199568e+02  -1.147665e+02
   8.734639e+01  -7.344582e+01
   1.008846e+02   1.283391e+02
  -1.108199e+02   1.091985e+02
  -2.573709e+02  -4.207375e+01
  -1.787793e+02  -2.272383e+02
   1.658780e+02  -2.379528e+02
   3.427651e+02  -1.083586e+02
   2.338660e+02   9.130911e+01
  -5.187031e+01   2.708923e+02
  -2.542669e+02   3.483310e+02
  -3.442077e+02   1.265465e+02
  -2.694223e+02  -1.248884e+02
  -7.294900e+01  -3.594506e+02
   3.868532e+01  -3.473918e+02
   7.630639e+01  -1.506230e+02
   1.439878e+01  -7.349330e+01
   8.298314e+01  -1.157611e+02
   2.276894e+02  -6.995617e+01
   2.290488e+02   1.148314e+02
   9.975488e+01   2.487226e+02
  -1.030380e+02   2.329987e+02
  -1.933796e+02  -2.002737e+01
  -1.432045e+02  -2.375036e+02
   7.763362e+01  -2.637866e+02
   2.632231e+02  -7.358832e+01
   3.625010e+02   1.716085e+02
   1.721877e+02   3.657213e+02
  -3.828261e+01   2.877580e+02
  -1.832284e+02   1.313861e+02
  -1.749929e+02   2.385020e+01
  -8.431878e+01   5.769582e+01
  -2.517404e+02   1.195714e+01
  -4.129382e+02  -1.338119e+02
  -3.282885e+02  -2.964006e+02
   1.624805e+01  -4.809203e+02
   4.055811e+02  -3.587864e+02
   4.689919e+02  -1.829886e+02
   2.800418e+02   7.899898e+01
   6.251333e+00   2.429028e+02
  -1.272377e+02   1.962135e+02
  -5.301253e+01   2.156452e+01
   1.073268e+02  -4.938270e+01
   1.861234e+02   3.752141e+01
   4.247990e+01   1.874569e+02
  -1.573196e+02   1.173429e+02
  -1.185176e+02  -6.891008e+01
   3.164267e+01  -1.454692e+02
   1.834364e+02  -1.576452e+01
   1.777670e+02   2.428205e+02
  -1.172555e+01   3.370965e+02
  -2.604573e+02   2.290319e+02
  -3.574828e+02  -8.309781e+01
  -2.466463e+02  -2.751465e+02
  -6.339342e+01  -2.408721e+02
   1.357734e+02  -1.289097e+02
   1.825738e+02  -3.309800e+00
   4.365789e+01  -2.175713e+01
  -5.771347e+01  -5.094437e+01
   4.050692e+00  -9.585870e+01
   1.171752e+02  -1.140861e+02
   1.398530e+02   2.410438e+01
   6.663127e+01   8.618178e+01
  -7.817483e+01  -1.080746e+01
  -6.003385e+01  -7.993381e+01
   1.405976e+02  -1.030382e+02
   2.638732e+02   1.587736e+01
   2.388343e+02   1.462024e+02
  -9.024324e+00   2.525230e+02
  -1.988508e+02   2.266007e+02
  -2.616164e+02   9.709409e+01
  -1.678674e+02  -5.352329e+01
   2.479505e+00  -6.258342e+01
   1.042671e+02  -1.248449e+01
  -3.397238e+01   1.493930e+02
  -2.088444e+02   1.009322e+01
  -1.910141e+02  -8.196560e+01
  -9.048200e+01  -1.694859e+02
   8.676264e+01  -1.375799e+02
   1.188412e+02  -4.310353e+01
   7.356489e+01   4.630266e+01
  -2.715636e+01  -1.580214e+00
  -4.491035e+01  -5.971521e+01
   6.709540e+01  -1.295925e+02
   2.332349e+02  -1.887940e+01
   1.988400e+02   1.633031e+02
  -4.033958e+01   2.099016e+02
  -1.488697e+02   1.909816e+02
  -1.784811e+02   8.193664e+00
  -4.068075e+01  -1.156668e+02
   3.292063e+01  -6.799300e+01
   5.156840e+01  -2.545034e+01
   5.935111e+00   1.518375e+01
  -9.580682e+00   1.978889e+01
  -1.292680e+01   3.695619e+00
   6.244393e+01   1.332532e+01
   1.137538e+02   8.665726e+01
  -1.448891e+01   1.698437e+02
  -1.462299e+02   1.578207e+02
  -2.359432e+02   1.042611e+01
  -1.874940e+02  -1.847916e+02
  -3.205533e+01  -2.318335e+02
   9.017528e+01  -1.131790e+02
   1.178955e+02  -3.077627e+01
   5.390083e+01   1.792735e+01
   1.653969e+01   3.189289e+01
   3.052246e+01  -5.984584e+01
   6.353518e+01   2.523871e+01
   9.278850e+01   4.692861e+01
  -4.841942e+01   8.148682e+01
  -8.495461e+01   8.096583e+01
  -1.043341e+02  -6.266026e+01
   7.178270e-01  -9.541625e+01
   1.381768e+02  -6.153180e+01
   1.818771e+02   9.133905e+01
   1.219727e+02   2.344300e+02
  -1.232324e+02   2.454513e+02
  -3.018059e+02   8.884233e+01
  -2.859313e+02  -8.557380e+01
  -1.004985e+02  -1.511952e+02
   3.591863e+01  -1.311392e+02
   7.420011e+01  -8.658661e+01
   8.759960e+01  -5.181261e+01
   6.002855e+01  -1.229120e+02
   6.567260e+01  -6.133517e+01
   1.304131e+02   8.478582e+00
   9.952213e+01   1.689371e+02
   1.766525e+00   2.497896e+02
  -8.051191e+01   1.531187e+02
  -1.958859e+02   2.384301e+01
  -1.058362e+02  -1.441694e+02
  -5.629084e+01  -1.608338e+02
   6.737069e+01  -8.348187e+01
   7.940626e+01  -1.255106e+01
   3.460643e+01   5.113766e+01
  -1.714805e+01   5.224157e+01
   3.498349e+01   1.655109e+01
   8.420655e+01   3.242554e+00
   3.555000e+01   3.242899e+01
  -6.579878e+01   6.930069e+01
  -1.828120e+02  -2.694823e+01
  -1.571885e+02  -8.128347e+01
  -2.526383e+00  -1.325185e+02
   1.254686e+02  -7.577409e+01
   1.127297e+02   2.742422e+01
   7.146019e+01   4.109802e+01
  -4.422043e+01   6.960167e+00
  -5.528989e+01  -3.399091e+01
  -2.801140e+01  -5.470192e+01
   3.866505e+01  -3.721141e+01
   6.234683e+01   1.121654e+01
   8.694115e+01   3.996104e+01
   5.351428e+01   1.375516e+01
   6.213067e+01   2.647772e+00
   4.216307e+01  -5.046784e+01
   4.308895e+01   8.632262e+01
  -2.320755e+01   1.260055e+02
  -1.041311e+02   1.599646e+02
  -1.799726e+02   4.605749e+01
  -1.361919e+02  -8.569772e+01
  -5.527817e+00  -1.225093e+02
   7.201532e+01  -8.574799e+01
   9.203595e+01   7.406950e+00
  -6.250827e+01   1.243335e+01
  -1.790322e+02  -5.441386e+01
  -5.453021e+01  -1.051856e+02
   8.903205e+01  -1.190943e+02
   1.743280e+02  -1.237099e+01
   1.150232e+02  -2.454558e+00
   3.815053e+01   5.744705e+01
  -6.576902e+01   7.333321e+01
  -6.417555e+01  -1.289231e+01
   4.175126e+01  -3.930999e+01
   9.563443e+01   2.755917e+01
   3.649915e+01   1.481831e+02
  -1.122382e+02   1.388185e+02
  -1.497384e+02   7.522223e+01
  -9.259178e+01  -1.432069e+02
  -6.337574e+01  -1.773485e+02
   7.432160e+01  -1.555603e+02
   9.113102e+01   3.608366e+01
   8.771726e+01   1.365245e+02
  -3.228964e+01   1.034664e+02
  -2.709250e+01  -6.495465e+00
  -3.232509e+01  -5.385478e+01
  -4.185921e+01  -3.077203e+01
  -1.433376e+01   7.575583e+00
  -3.462033e+01   8.154008e+00
  -3.349617e+01  -5.814369e+01
  -6.016894e+01  -1.337754e+02
   6.421588e+01  -3.486967e+01
   1.304487e+02   4.872257e+01
   1.262489e+02   8.106531e+01
  -1.603856e+01   7.603470e+01
  -9.090053e+01   1.886812e+01
  -6.926242e+01   5.915896e+00
  -1.778993e+01   5.010248e+00
   1.571993e+01   2.082430e+01
   4.326441e+01  -2.642374e+01
   1.448339e+01  -1.929477e+00
   7.059943e+00   2.155748e+01
   3.558321e+01   9.862503e+00
   9.376934e+01   4.336129e+01
   6.204975e+00   1.203126e+02
  -1.157148e+02   1.151911e+02
  -1.661204e+02   7.024834e+01
  -1.344095e+02  -6.571735e+01
  -4.023427e+01  -1.614078e+02
   4.604304e+01  -1.685116e+02
   1.130070e+02  -5.554759e+01
   4.199769e+01   4.691299e+01
   2.557313e+01   2.209009e+01
  -8.866993e+00  -4.131779e+00
   7.144312e+01   1.480612e+01
   6.424253e+01   5.843390e+01
   5.722048e+01   8.830683e+01
  -3.879062e+01   6.115252e+01
  -7.778472e+01  -2.237045e+01
  -5.279908e+01  -1.086784e+02
  -5.216518e+01  -9.978454e+01
   8.991686e+01  -5.132832e+01
   1.337261e+02   9.912810e+01
   4.155731e+01   7.849353e+01
  -1.135628e+02   2.730856e+01
  -9.299395e+01   1.279747e+01
  -4.636187e+01  -3.869453e+01
   2.743248e+01  -2.778159e+01
   3.764394e+01  -1.052120e+01
  -5.108214e+01   1.277054e+01
  -7.341863e+01  -1.382821e+01
  -2.414952e+01  -2.384671e+01
   7.782878e+01  -6.432349e+01
   1.547384e+02  -7.231819e+01
   6.465107e+01   7.034236e+01
  -6.246294e+01   9.078550e+01
  -2.938963e+01   7.892076e+01
  -3.831839e+01   1.462490e+00
  -1.336191e+01  -2.483085e+01
   4.677425e+00  -7.483565e+01
   3.454553e+01   3.423204e+00
   4.742043e+01   6.277299e+01
  -2.212814e+01   2.650633e+01
  -3.440831e+01   1.909365e+01
  -2.029265e+01  -2.568605e+01
  -3.811124e+01  -4.365806e+00
   2.336024e+01   5.434926e+00
  -1.692436e+01  -2.799555e+01
  -3.692699e+01  -4.978977e+01
   9.042786e+00  -8.026553e+01
   4.284880e+01   1.255951e+01
   4.614141e+01   2.216863e+01
  -2.483334e+01   5.362334e+01
  -5.407908e+01  -1.735411e+01
  -5.501682e+01  -5.154988e+01
   2.132550e+01  -8.702999e+01
   6.346403e+01  -6.679044e+00
   5.833497e+01   6.048950e+01
   2.297859e+01   6.408322e+01
  -1.947979e+01   2.454500e+01
  -6.859450e+01   7.232978e+00
  -5.787220e+01   7.849569e+00
   2.929433e+01  -6.510435e+00
   5.524216e+01  -1.397960e+01
   8.110336e+00   5.361805e+01
  -3.961143e+01   2.813610e+01
