
 $NMID
 id='ANONYMOUS ', fmtdat='(2E16.6)'
 volume=1.0
 tramp=1.0
 $END
  -4.088275e+03   1.480959e+02
  -2.246434e+03  -2.435715e+03
   6.407293e+02  -2.551203e+03
   1.865450e+03  -7.450063e+02
   8.176892e+02   5.038062e+02
  -5.782347e+02   5.696986e+02
  -9.277354e+02  -3.968252e+02
   2.216952e+01  -1.041851e+03
   7.656820e+02  -7.035391e+02
   8.990409e+02   3.988290e+01
   4.505125e+02   8.387119e+02
  -2.520684e+02   7.894543e+02
  -6.181597e+02   1.382198e+02
  -3.852775e+02  -7.121822e+02
   2.700492e+02  -6.972197e+02
   5.524571e+02   3.959332e+00
   3.168251e+02   6.721670e+02
  -2.846187e+02   6.153488e+02
  -5.592019e+02   1.486780e+02
  -4.089013e+02  -3.602906e+02
   6.939919e+00  -4.330751e+02
   2.296257e+02  -2.207196e+02
   2.219539e+02   1.837434e+01
  -9.814186e+01   5.711304e+01
  -3.729715e+02  -1.357638e+02
  -1.890799e+02  -4.304471e+02
   4.529881e+02  -3.806497e+02
   7.819390e+02   8.592425e+01
   3.774549e+02   5.026841e+02
  -4.065551e+02   4.361840e+02
  -7.129411e+02  -5.058431e+01
  -3.224089e+02  -4.892208e+02
   3.282220e+02  -4.987752e+02
   5.939675e+02  -1.575234e+02
   3.955588e+02   2.146109e+02
   5.609906e+01   4.525014e+02
  -1.838334e+02   2.063299e+02
  -1.271349e+02  -2.677471e+02
   1.632240e+02  -4.398424e+02
   4.002989e+02   5.132644e+01
   2.674706e+02   6.569213e+02
  -3.549341e+02   7.280484e+02
  -5.914922e+02   6.381994e-01
  -1.954909e+02  -5.190470e+02
   2.694211e+02  -3.146803e+02
   3.683556e+02   3.280484e+02
  -8.964479e+01   5.592867e+02
  -5.580903e+02   1.380300e+02
  -5.970426e+02  -4.117955e+02
  -1.660175e+02  -5.989317e+02
   3.879137e+02  -3.209038e+02
   6.222017e+02   8.211079e+01
   3.683173e+02   3.781746e+02
  -1.180726e+02   3.339879e+02
  -3.837694e+02   5.832991e+01
  -2.307486e+02  -1.838785e+02
   9.438006e+01  -7.014292e+01
   1.266816e+02   1.345926e+02
  -1.445093e+02   1.869689e+02
  -3.505139e+02  -3.161117e+01
  -8.865595e+01  -2.747699e+02
   1.876910e+02  -2.045775e+02
   3.478884e+02  -8.607448e+01
   2.420999e+02   1.172334e+02
  -4.829827e+01   2.363525e+02
  -2.078934e+02   3.099381e+02
  -3.405040e+02   2.013764e+02
  -2.629762e+02  -1.135146e+02
  -2.204687e+01  -4.072453e+02
   1.107903e+02  -3.402392e+02
   1.576929e+02  -1.158819e+02
   3.578152e+01   3.281761e+01
   4.860217e+01  -5.528450e+01
   1.948689e+02  -1.252390e+02
   2.554421e+02   6.740943e+01
   1.392077e+02   2.742313e+02
  -1.201233e+02   2.404482e+02
  -1.821071e+02  -1.425355e+01
  -1.828496e+02  -2.149256e+02
  -5.630970e+00  -2.820958e+02
   2.523367e+02  -8.870337e+01
   3.463905e+02   1.725051e+02
   2.178655e+02   3.380545e+02
  -8.181768e+01   3.257581e+02
  -1.927753e+02   1.432603e+02
  -1.427314e+02  -1.325654e+01
  -8.567954e+01   6.363775e+01
  -2.172544e+02   4.072690e+01
  -3.728857e+02  -9.809036e+01
  -2.930012e+02  -3.090318e+02
   3.499583e+00  -4.871290e+02
   3.794858e+02  -4.197012e+02
   4.544371e+02  -2.206509e+02
   3.042954e+02   8.327920e+01
   7.076533e+01   2.694202e+02
  -1.573939e+02   2.245222e+02
  -6.171904e+01   1.343379e+01
   1.333206e+02  -1.132336e+02
   1.866435e+02   2.488296e+00
   3.639779e+01   1.340203e+02
  -1.437670e+02   1.532066e+02
  -1.610007e+02  -5.330313e+01
   5.576976e-01  -2.230231e+02
   1.732755e+02  -2.845520e+01
   1.663206e+02   2.760723e+02
  -4.869351e+01   3.414598e+02
  -1.772052e+02   2.126891e+02
  -3.302583e+02  -1.016167e+02
  -2.700199e+02  -2.378182e+02
  -1.129004e+02  -2.703265e+02
   1.026696e+02  -1.285038e+02
   2.343486e+02   1.312514e+01
   4.210452e+01   1.977307e+01
  -1.069776e+02  -2.742839e+01
   3.305137e-02  -1.336210e+02
   1.445862e+02  -9.804043e+01
   2.199761e+02   2.143409e+01
   6.577343e+01   7.148661e+01
  -7.255264e+01   9.299437e+00
  -4.996675e+01  -9.806772e+01
   1.024789e+02  -6.693233e+01
   2.595649e+02   1.822066e+01
   2.548808e+02   1.496636e+02
   5.877187e+01   2.287581e+02
  -1.472951e+02   2.712268e+02
  -2.511382e+02   1.469809e+02
  -1.850977e+02  -2.974276e+01
   7.110000e+01  -1.356216e+02
   1.083572e+02   1.003768e+01
  -1.296747e+01   1.121813e+02
  -1.855108e+02   6.197037e+01
  -1.954776e+02  -9.570138e+01
  -4.154855e+01  -1.977831e+02
   7.255729e+01  -1.383971e+02
   9.861060e+01  -4.339521e+01
   6.247520e+01   4.585415e+01
  -1.857435e+01   1.656734e+00
  -2.166133e+01  -8.764778e+01
   4.722755e+01  -8.697207e+01
   1.463396e+02  -4.564965e+01
   1.686387e+02   1.035429e+02
   4.231540e+01   2.039341e+02
  -1.846676e+02   1.463589e+02
  -1.753658e+02   2.249140e+01
  -4.972359e+01  -1.154347e+02
   7.338432e+01  -8.985606e+01
   3.686811e+01  -2.274975e+01
   2.621705e+01   6.045504e+01
  -4.046607e+01   1.002945e+01
   2.444420e+01   5.080529e+00
   9.168301e+01   2.185382e+01
   4.682053e+01   1.041334e+02
   4.315316e+01   1.775855e+02
  -1.441991e+02   1.489682e+02
  -2.704883e+02   1.608667e+01
  -1.799967e+02  -1.548202e+02
  -1.404628e+01  -2.291446e+02
   9.488027e+01  -2.078603e+02
   1.288197e+02  -1.642211e+01
   6.590547e+01   5.552191e+01
   5.024849e+01   3.979999e+01
   5.603500e+01  -2.854279e+01
   6.847676e+01  -2.981244e+00
   2.644244e+01   9.059369e+01
  -4.113338e+01   8.052736e+01
  -1.121984e+02   5.854678e+01
  -2.753408e+01  -6.233747e+00
   2.193191e+00  -1.345858e+02
   1.299775e+02  -8.932527e+01
   1.799404e+02   6.637023e+01
   7.903349e+01   2.042285e+02
  -9.681772e+01   2.467038e+02
  -2.698029e+02   8.984052e+01
  -2.465638e+02  -1.044396e+02
  -1.357925e+02  -1.770304e+02
   1.075138e+01  -1.272895e+02
   1.117356e+02  -4.114520e+01
   9.845375e+01  -3.839258e+01
   9.391157e+01  -7.608827e+01
   9.810874e+01  -4.301927e+01
   1.325500e+02   2.353200e+01
   1.182320e+02   1.546596e+02
   1.895940e+01   2.113769e+02
  -7.183389e+01   1.547711e+02
  -1.711665e+02   6.228178e+01
  -1.341939e+02  -1.313974e+02
  -3.320256e+01  -1.422525e+02
   7.490895e+01  -1.192327e+02
   3.215984e+01  -6.813017e+00
  -2.460031e+01   2.907492e+01
  -3.251532e+01   1.943337e+01
  -8.922174e+00   5.399545e+01
   7.939576e+01   2.557955e+01
   3.511769e+01   4.103395e+01
  -3.000396e+01   2.338257e+01
  -1.344760e+02   2.014974e+01
  -1.227294e+02  -8.261100e+01
  -1.818105e+01  -1.029264e+02
   1.343708e+02  -8.426430e+01
   1.529825e+02  -9.598103e+00
   4.691064e+01   3.075538e+01
  -7.915833e+01   5.171527e+01
  -4.312789e+01  -3.160048e+01
  -4.583665e+01  -7.667849e+01
   7.958471e+01  -5.665049e+01
   7.967722e+01   1.972322e+01
   6.159664e+00   3.911862e+01
   3.345538e+01   1.225427e+01
   2.850795e+01   3.858716e+01
   2.504997e+00  -2.686073e+00
   6.546811e+01   8.697645e+01
  -2.688815e+01   1.722943e+02
  -1.359309e+02   1.309722e+02
  -1.445184e+02   2.207174e+01
  -1.467510e+02  -7.629467e+01
   3.068157e+01  -1.112721e+02
   8.012044e+01  -3.424526e+01
   5.169434e+01   4.738444e+01
  -7.892224e+01   6.367735e+01
  -1.359944e+02  -1.173211e+02
  -5.427817e+01  -1.046305e+02
   6.051812e+01  -1.433101e+02
   2.114945e+02  -3.014148e+01
   1.377534e+02  -2.002490e+00
   3.352496e+01   9.365978e+01
  -8.997386e+01   5.691543e+01
  -5.834110e+01   8.636737e+00
   1.360498e+01   6.045890e-01
   1.041049e+02   6.143614e+00
   3.013977e+01   1.064061e+02
  -9.877334e+01   1.357016e+02
  -1.985569e+02   7.791089e+01
  -1.497954e+02  -1.120370e+02
  -1.493300e+01  -1.857381e+02
   1.068034e+02  -1.481365e+02
   9.270811e+01   5.370408e+00
   5.108256e+01   1.214888e+02
   4.996963e-01   7.038523e+01
  -7.420116e+01   2.514045e+01
  -6.680704e+01  -1.321095e+01
  -1.357741e+01  -1.060294e+01
   2.305202e+00   9.687320e+00
  -2.217483e+00   3.589927e+00
  -6.936223e+01  -1.133630e+02
  -4.455438e+01  -1.249478e+02
   5.929222e+00  -3.529215e+01
   1.410923e+02   6.523366e+01
   1.047187e+02   4.560336e+01
  -9.840380e+00   9.165436e+01
  -4.688665e+01   2.252234e+01
  -8.679015e+01   1.690228e+01
  -3.939723e+01   4.099442e+00
   3.803120e+01  -3.384200e+01
  -1.158436e+00   2.520453e+01
  -1.142897e+01  -3.663497e+01
  -1.941733e+01   2.367385e+01
   8.253207e+01   3.385651e+00
   4.899003e+01   3.008619e+01
   3.056245e+00   3.784645e+01
  -1.571185e+02   9.080739e+01
  -1.888528e+02   6.327759e+01
  -1.542604e+02  -7.085648e+01
  -2.663791e+01  -1.524732e+02
   4.020674e+01  -1.401595e+02
   1.193019e+02  -6.439551e+01
   8.803935e+01   2.302797e+01
   4.978999e+01   1.495043e+01
   1.486499e+01  -3.627677e+01
   1.634083e+01  -1.116640e+01
   4.739530e+01   3.610055e+01
   1.345295e+01   1.306103e+02
  -3.516593e+01   8.109577e+01
  -1.153160e+02  -1.620563e+01
  -9.241901e+01  -9.657439e+01
   3.302657e+01  -9.090033e+01
   1.173919e+02  -2.777025e+01
   7.460193e+01   5.056048e+01
   3.978610e+01   9.428413e+01
  -8.948190e+01   8.520957e+01
  -8.435283e+01   2.245935e+01
  -1.306182e+01  -6.709203e+01
   4.014208e+01  -1.074601e+02
   1.627253e+01  -8.913896e+00
  -6.627376e+01  -7.023695e+00
  -6.985104e+01   9.721475e+00
  -3.502655e+00  -4.460519e+01
   8.315524e+01  -5.972862e+01
   9.936375e+01  -4.914321e+01
   3.719103e+01   1.596109e+01
  -2.553094e+01   7.717944e+01
  -2.042050e+01   5.796090e+01
  -8.086261e+01   4.415990e+00
   2.697678e+01  -3.620781e+01
  -3.474879e+00  -5.589789e+01
   2.643713e+01   4.126148e+00
  -1.567127e+00   4.785047e+01
  -2.938427e+00   4.714934e+01
  -4.796719e+01   1.148781e+01
  -3.072554e+01   6.569772e+00
  -2.204483e+01  -3.208467e+01
  -1.033675e+01   3.235409e+01
   2.713533e+01   2.706969e+01
  -1.477119e+01  -6.239584e+01
   3.066085e+01  -4.378857e+01
   1.668498e+01   5.240247e+00
   2.763686e+01   4.601486e+01
   1.462627e+01   3.612027e+01
  -5.213565e+01   3.824527e+01
  -5.482366e+01  -2.634387e+01
  -5.467074e+01  -4.615364e+01
   7.590924e+01  -2.941335e+01
   1.355151e+02   5.685832e+01
   4.245969e+01   5.529199e+01
  -3.183360e+01   4.321015e+01
  -3.495312e+01   4.746666e+01
  -2.381435e+01   9.316612e+00
   4.974959e+01  -6.777124e+01
   2.956300e+01   1.285457e+01
  -5.827507e+01   3.879042e+01
  -8.291700e+01   2.004567e+00
