
 $NMID
 id='ANONYMOUS ', fmtdat='(2E16.6)'
 volume=1.0
 tramp=1.0
 $END
  -3.805754e+03   5.542095e+01
  -2.112444e+03  -2.269532e+03
   5.797506e+02  -2.337436e+03
   1.709803e+03  -6.348148e+02
   7.459137e+02   5.380029e+02
  -6.495213e+02   4.710258e+02
  -7.089470e+02  -3.538513e+02
   3.466520e-01  -9.336461e+02
   7.688338e+02  -6.611939e+02
   8.432704e+02   7.445320e+01
   3.446811e+02   7.725321e+02
  -2.295286e+02   7.634461e+02
  -5.390634e+02   7.866777e+01
  -3.032033e+02  -6.585817e+02
   2.483108e+02  -6.304815e+02
   5.117540e+02   8.826443e+00
   2.809170e+02   5.883510e+02
  -3.057071e+02   5.217591e+02
  -4.782652e+02   3.995336e+01
  -3.326150e+02  -2.826622e+02
   2.452146e+01  -3.981587e+02
   2.262433e+02  -2.011181e+02
   1.917216e+02  -1.651362e+01
  -5.320940e+01   8.100551e+01
  -3.750368e+02  -1.483660e+02
  -1.695349e+02  -4.346560e+02
   3.648080e+02  -3.238411e+02
   7.100738e+02   9.127652e+01
   3.415513e+02   4.240415e+02
  -3.745370e+02   4.069806e+02
  -6.276543e+02  -1.007490e+02
  -2.698139e+02  -4.064190e+02
   2.971738e+02  -4.796236e+02
   4.985222e+02  -1.780749e+02
   3.730539e+02   1.762685e+02
   4.034822e+01   3.925215e+02
  -1.846734e+02   1.884075e+02
  -1.576956e+02  -1.573340e+02
   1.279700e+02  -3.098684e+02
   3.753025e+02   4.574442e+01
   2.028115e+02   5.745396e+02
  -2.719642e+02   6.340809e+02
  -5.588783e+02  -2.685294e+01
  -2.347992e+02  -4.498343e+02
   2.828391e+02  -2.441166e+02
   3.283463e+02   2.732743e+02
  -3.184941e+01   5.004642e+02
  -4.770858e+02   1.264355e+02
  -5.010384e+02  -3.569935e+02
  -1.163218e+02  -5.226189e+02
   3.749802e+02  -2.942502e+02
   5.449607e+02   5.199117e+01
   3.212609e+02   3.251127e+02
  -1.188663e+02   3.269812e+02
  -4.325410e+02   4.330164e+01
  -2.336116e+02  -1.784524e+02
   1.417882e+02  -1.382678e+02
   1.199489e+02   8.904583e+01
  -1.358852e+02   2.092848e+02
  -2.705176e+02   1.054421e+01
  -1.383010e+02  -2.698898e+02
   1.291441e+02  -2.487265e+02
   3.503646e+02  -4.375898e+01
   1.576535e+02   9.588510e+01
  -4.801521e+01   2.181719e+02
  -2.605639e+02   2.982775e+02
  -3.441304e+02   2.109464e+02
  -2.179165e+02  -1.158459e+02
  -9.342865e+01  -4.008349e+02
   1.000923e+02  -3.260107e+02
   1.157757e+02  -6.353273e+01
   3.707402e+01   7.676793e+00
   4.392780e+01  -6.901730e+01
   1.498483e+02  -7.556469e+01
   2.532474e+02   5.685466e+01
   8.028405e+01   2.103465e+02
  -5.587175e+01   2.153620e+02
  -1.721838e+02  -3.776943e+00
  -1.738932e+02  -2.029902e+02
  -9.486215e+00  -2.373770e+02
   2.357090e+02  -8.424387e+01
   3.412180e+02   1.464930e+02
   2.197620e+02   3.315361e+02
  -8.736733e+01   2.762821e+02
  -1.971297e+02   9.389260e+01
  -1.514641e+02   1.624786e+01
  -7.338585e+01   6.254902e+01
  -1.936678e+02   8.936382e+01
  -3.262733e+02  -6.802618e+01
  -3.271512e+02  -2.509461e+02
   8.520441e+00  -4.446722e+02
   3.083625e+02  -3.575535e+02
   4.514176e+02  -1.420736e+02
   3.040070e+02   9.250814e+01
   4.527239e+01   2.688351e+02
  -1.131624e+02   2.273914e+02
  -7.095496e+01   1.386807e+01
   9.042844e+01  -8.047809e+01
   1.670142e+02   7.055035e+00
   1.741367e+00   1.389008e+02
  -1.714115e+02   1.439295e+02
  -1.600277e+02  -5.914397e+01
   4.823852e+01  -1.843475e+02
   1.556246e+02  -1.797001e+01
   1.254199e+02   2.176947e+02
   2.810349e-01   2.958934e+02
  -2.244309e+02   1.564638e+02
  -3.073064e+02  -6.218628e+01
  -2.215229e+02  -1.775882e+02
  -7.336682e+01  -1.823425e+02
   3.449318e+01  -1.403448e+02
   1.634150e+02   1.148320e+01
   2.966374e+01   6.832598e+00
  -4.243835e+01  -8.475935e+00
  -4.331576e+01  -1.022963e+02
   1.240341e+02  -7.529851e+01
   1.258242e+02  -4.286977e+00
   2.502185e+01   5.400955e+01
  -7.460470e+01   4.605357e+00
  -3.592730e+01  -9.672631e+01
   1.314775e+02  -5.035470e+01
   2.572801e+02  -2.531619e+01
   2.195753e+02   8.752935e+01
   2.874253e+01   2.480014e+02
  -1.672339e+02   2.777032e+02
  -2.334716e+02   1.754160e+02
  -1.583127e+02  -6.976254e+01
   4.179614e+01  -8.122993e+01
   9.606059e+01  -2.401825e+01
  -4.085414e+01   9.111256e+01
  -1.786040e+02   5.138672e+01
  -1.678573e+02  -8.329571e+01
  -6.100789e+01  -1.333560e+02
   6.801892e+01  -1.387459e+02
   1.090697e+02  -9.755206e+00
   2.448241e+01   2.258162e+01
  -2.174618e+01  -6.045066e+00
  -3.904770e+01  -8.405452e+01
   7.086477e+01  -8.034762e+01
   1.166330e+02  -2.637625e+01
   1.679155e+02   9.524002e+01
   5.728428e+01   1.958975e+02
  -1.779450e+02   1.211116e+02
  -1.559965e+02   8.930456e+00
  -2.141627e+00  -8.224349e+01
   9.300295e+01  -9.929894e+01
   9.414605e+01  -9.746176e+00
  -1.092202e+01  -1.934121e+01
  -8.319537e+01   1.465128e+01
   3.574559e+01  -6.925227e+00
   7.068345e+01  -1.745897e+01
   5.051250e+01   8.685716e+01
  -1.550629e+00   1.189732e+02
  -1.007532e+02   1.022068e+02
  -1.821810e+02  -1.369840e+00
  -2.119823e+02  -1.191365e+02
  -3.206725e+01  -1.921321e+02
   9.351457e+01  -1.155241e+02
   1.332154e+02  -4.432616e+00
   7.161399e+01  -1.052416e+01
   4.805337e+01   3.387798e+01
   3.342942e+01  -5.397259e+00
   6.777178e+01  -3.684058e+01
   3.138384e+01   5.366740e+01
  -2.271150e+01   1.277232e+02
  -1.079777e+02   3.761007e+01
  -5.255025e+01  -2.666659e+01
  -1.202228e+01  -1.048675e+02
   1.377966e+02  -8.368919e+01
   1.913046e+02   7.797892e+01
   7.897195e+01   1.949063e+02
  -8.366812e+01   1.934447e+02
  -2.392011e+02   7.549778e+01
  -2.269753e+02  -8.433703e+01
  -1.130605e+02  -1.280707e+02
   4.131020e+01  -1.089805e+02
   7.492011e+01  -7.436770e+01
   1.128285e+02  -7.934881e+01
   5.660657e+01  -5.280471e+01
   6.860463e+01  -6.149962e+01
   9.670482e+01   2.897086e+01
   1.270079e+02   1.680525e+02
  -1.068049e+01   1.699914e+02
  -7.484007e+01   1.712256e+02
  -1.557424e+02   1.553652e+01
  -1.019867e+02  -7.933316e+01
   1.585086e+01  -1.209079e+02
   5.288226e+01  -7.521728e+01
   3.696772e+01   1.107408e+01
   2.723271e+01   6.412952e+01
  -2.151226e+01   3.197880e+01
   5.450798e+01   9.059980e+00
   1.173176e+02   4.168227e+01
   8.420703e+00   5.225246e+01
  -6.658835e+01   1.645405e+01
  -1.244444e+02  -8.371078e+00
  -1.260763e+02  -4.914255e+01
   1.296051e+01  -7.419957e+01
   9.760142e+01  -9.812139e+01
   1.460995e+02  -3.011540e+01
   2.255775e+01   6.354220e+01
  -2.328026e+01   2.905694e+01
  -6.419880e+01  -2.542066e+01
  -2.812740e+01  -6.502040e+01
   6.656024e+01  -5.942496e+01
   4.573163e+01  -6.239584e+01
   6.629446e+01   2.360772e+01
   2.662276e+01   8.384381e+00
   3.977222e+01   5.382675e+00
   7.282679e+01   9.684062e+00
   4.873554e+01   7.750410e+01
   1.428879e+01   1.050193e+02
  -1.245240e+02   1.025900e+02
  -1.564143e+02   5.804634e+00
  -1.334705e+02  -9.478456e+01
   6.914398e+00  -9.318643e+01
   6.357129e+01  -9.799713e+01
   5.953074e+01  -2.556478e+01
  -4.692898e+01  -1.218599e+01
  -1.347496e+02  -7.491701e+01
  -4.438010e+01  -5.197510e+01
   7.203538e+01  -1.322128e+02
   2.053167e+02  -4.920748e+01
   1.640880e+02   5.880955e+01
  -1.308654e+01   7.321915e+01
  -6.050234e+01   4.956704e+01
  -5.373993e+01   2.374560e+01
   6.603550e+01  -7.276982e+01
   7.848420e+01   2.369767e+01
   4.982147e+01   5.612087e+01
  -6.813965e+01   1.347074e+02
  -1.611260e+02   8.826826e+01
  -1.501987e+02  -1.080873e+02
   8.752643e+00  -1.198556e+02
   7.220403e+01  -1.202242e+02
   7.142260e+01  -1.846523e+01
  -9.941334e+00   1.346571e+02
  -7.669721e+00   1.050055e+02
  -3.480866e+01   1.147324e+01
  -6.962206e+01  -3.316762e+01
  -6.941648e+00  -1.487297e+01
   1.249832e+01  -7.825914e+00
  -3.144704e+01  -1.386565e+01
  -4.535306e+01  -1.018518e+02
  -5.398900e+01  -6.732461e+01
   5.512376e+01  -3.359153e+01
   1.208392e+02   1.492197e+01
   1.188605e+02   4.973076e+01
  -1.089561e+01   6.910546e+01
  -9.625260e+01   3.648557e+01
  -6.791733e+01  -1.666545e+01
  -1.706989e+00  -3.473290e+01
   3.696759e+01  -5.773069e+00
  -4.640983e+00  -5.211801e+01
  -4.399997e+01   5.131806e+00
   1.863043e+00   2.268552e+01
   6.737119e+01  -2.237468e+00
   7.168829e+01   9.659261e+00
  -3.579588e-01   8.527933e+01
  -1.197203e+02   1.276836e+02
  -1.787211e+02   2.752371e+01
  -1.172901e+02  -5.547857e+01
  -3.841565e+01  -1.499668e+02
   6.901030e+01  -1.158997e+02
   9.976484e+01  -3.841049e+01
   9.067150e+00   1.755394e+01
   1.382602e+01   3.986547e+01
  -2.365329e+01   1.243777e+01
   2.119632e+01  -1.557779e+01
   3.823135e+01   2.752618e+01
   4.193168e+01   1.169915e+02
  -2.211424e+01   4.418480e+01
  -2.278063e+01   9.101904e+00
  -8.733551e+01  -7.960990e+01
   2.220496e+00  -9.132840e+01
   8.265246e+01  -2.221567e+01
   1.120104e+02   2.607720e+01
   2.277448e+00   7.019848e+01
  -7.525565e+01   3.484754e+01
  -1.052364e+02  -1.580059e+01
  -2.121335e+01  -6.110029e-01
   5.157458e+01  -4.825766e+01
   4.583858e+01  -1.707989e+01
  -5.242449e+01   1.007814e+00
  -8.105415e+01  -3.208191e+01
   4.919064e+00  -1.775108e+01
   5.685440e+01  -3.644337e+01
   9.793573e+01  -2.941957e+01
   1.305050e+01   4.763236e+01
  -4.342947e+01   3.403375e+01
  -1.880488e+01   8.033282e+01
  -3.489076e+01   1.552381e+01
  -1.951902e+01  -4.371095e+01
   2.190671e+01  -3.700553e+00
   3.885397e+01  -3.351996e-01
   3.783799e+01   8.783500e+01
   1.546228e+01   5.755871e+01
   1.624759e+01  -9.124556e+00
   4.241207e+00  -3.280184e+01
  -7.312608e+00  -3.633652e+01
   3.852571e+01   3.393970e+01
   8.198688e+00  -6.634569e+00
   1.543927e+01  -2.149389e+01
   2.501228e+01  -8.220295e+01
   2.929645e+01   6.892898e+00
   3.750436e+01   3.944694e+01
  -4.480238e+01   6.224773e+01
  -5.291426e+00   5.024131e+00
  -7.305825e+01  -5.928120e+01
  -1.722487e+01  -7.950244e+01
   2.449794e+01  -3.422318e+01
   6.304508e+01   2.820746e+01
   6.929289e+01   4.845615e+01
  -3.000720e+01   3.300088e+01
  -6.398103e+01   7.181911e+00
   8.066806e-01   2.435612e+01
   5.760829e+01   1.839289e+01
  -5.847907e-01   7.100003e+01
  -2.926862e+01   4.831031e+01
  -9.285755e+01   2.341058e+01
