
 $NMID
 id='ANONYMOUS ', fmtdat='(2E16.6)'
 volume=1.0
 tramp=1.0
 $END
   3.760285e+03   4.878591e+01
   2.170984e+03   2.198796e+03
  -4.917559e+02   2.344657e+03
  -1.832716e+03   7.096278e+02
  -8.886311e+02  -5.909846e+02
   5.436763e+02  -5.851929e+02
   7.618964e+02   3.503216e+02
   4.712884e+01   9.847309e+02
  -7.009943e+02   6.350948e+02
  -8.572502e+02  -7.683161e+01
  -3.866516e+02  -7.727997e+02
   2.638031e+02  -7.853572e+02
   5.756792e+02  -7.177027e+01
   3.455413e+02   6.011997e+02
  -2.262365e+02   6.703083e+02
  -5.303513e+02  -1.542881e+01
  -2.548490e+02  -6.298246e+02
   3.029113e+02  -5.554776e+02
   5.433298e+02  -2.980214e+01
   3.052179e+02   2.919657e+02
  -2.121307e+01   3.529698e+02
  -2.107383e+02   1.836451e+02
  -1.876766e+02   6.611929e+00
   1.322887e+02  -7.329177e+01
   3.281151e+02   1.214678e+02
   1.335171e+02   3.610880e+02
  -3.431251e+02   3.508771e+02
  -7.232268e+02  -7.121168e+01
  -3.755511e+02  -4.531461e+02
   3.034318e+02  -4.126155e+02
   6.242750e+02   3.258693e+01
   2.503019e+02   4.178155e+02
  -2.613802e+02   4.456946e+02
  -5.036983e+02   1.559322e+02
  -3.395531e+02  -2.244277e+02
  -5.667054e+01  -3.934826e+02
   2.077414e+02  -2.256495e+02
   1.211740e+02   1.965740e+02
  -1.788869e+02   3.874900e+02
  -3.973465e+02   8.205048e+00
  -2.332635e+02  -5.597173e+02
   3.094567e+02  -5.894009e+02
   5.680843e+02  -3.133305e+01
   2.164917e+02   4.339805e+02
  -2.408877e+02   2.924479e+02
  -3.385704e+02  -2.785252e+02
   5.357733e+01  -4.779083e+02
   4.792465e+02  -9.091277e+01
   5.285580e+02   3.572344e+02
   1.176053e+02   5.032394e+02
  -3.547334e+02   2.781112e+02
  -5.749518e+02  -6.229273e+01
  -2.938299e+02  -3.206079e+02
   1.117211e+02  -3.774013e+02
   4.067235e+02  -3.133402e+01
   2.453826e+02   1.497880e+02
  -8.110710e+01   1.070342e+02
  -1.457881e+02  -1.101074e+02
   1.040860e+02  -1.489571e+02
   3.172855e+02   2.142239e+01
   1.261460e+02   2.275345e+02
  -1.549022e+02   2.139599e+02
  -2.403365e+02   8.128575e+01
  -1.992608e+02  -5.574981e+01
   5.261019e+01  -1.889517e+02
   2.129657e+02  -2.579005e+02
   2.937313e+02  -1.827586e+02
   2.238834e+02   8.836926e+01
   6.294905e+01   3.603118e+02
  -1.509032e+02   3.660611e+02
  -1.354414e+02   6.447401e+01
  -4.800947e+01   9.404273e+00
  -2.129796e+01   6.291247e+01
  -1.676305e+02   1.177549e+02
  -1.985786e+02  -6.215582e+01
  -1.396610e+02  -2.015918e+02
   8.050078e+01  -1.836667e+02
   1.812829e+02  -1.112545e+01
   1.280901e+02   2.163146e+02
   3.490711e+01   2.409739e+02
  -2.316292e+02   1.234460e+02
  -2.939148e+02  -1.539855e+02
  -1.588180e+02  -3.418831e+02
   7.317422e+01  -2.875479e+02
   1.837700e+02  -6.313247e+01
   1.400857e+02  -2.333897e+01
   7.016218e+01  -5.782193e+01
   2.294641e+02  -4.132225e+01
   3.033133e+02   5.383053e+01
   3.097818e+02   2.601163e+02
  -2.258675e+01   4.231571e+02
  -3.046137e+02   3.272508e+02
  -4.045467e+02   1.714293e+02
  -2.674142e+02  -1.098174e+02
   4.391235e+00  -2.500181e+02
   1.349646e+02  -2.333456e+02
   4.895507e+01  -4.157852e+01
  -5.246232e+01   9.961083e+01
  -1.840798e+02  -2.177168e+01
  -7.485250e+01  -1.388837e+02
   1.301126e+02  -1.667315e+02
   1.163249e+02   2.798940e+01
   4.882117e+01   1.829062e+02
  -1.594636e+02   4.312625e+01
  -1.567760e+02  -2.250900e+02
   5.842299e+01  -3.506533e+02
   2.224925e+02  -1.709589e+02
   3.182342e+02   7.890798e+01
   2.083308e+02   2.095955e+02
   1.043775e+02   2.457627e+02
  -6.306215e+01   1.515892e+02
  -1.674480e+02  -1.229403e+01
  -5.595780e+01  -2.286308e+01
   6.627030e+01   6.183447e+01
   3.321613e+01   9.938339e+01
  -1.087566e+02   6.769062e+01
  -1.581539e+02  -2.613808e+01
  -3.443941e+01  -6.091734e+01
   6.538887e+01  -2.595557e+01
   3.867022e+01   5.759420e+01
  -1.221313e+02   7.506983e+01
  -2.379055e+02   3.996031e+01
  -2.268915e+02  -9.289182e+01
  -8.905069e+01  -2.284403e+02
   1.641106e+02  -1.989331e+02
   2.644947e+02  -1.097506e+02
   1.412277e+02   4.216910e+01
   2.382925e+00   1.302601e+02
  -6.402028e+01   2.999331e+00
  -6.047757e-01  -8.010504e+01
   1.583306e+02  -4.106415e+01
   1.772513e+02   7.459171e+01
   5.919928e+01   1.958928e+02
  -3.968214e+01   1.343544e+02
  -1.177736e+02   3.623798e+01
  -5.471503e+01  -3.611108e+01
   5.680106e+01  -3.771394e+01
   2.763700e+01   4.380270e+01
  -5.341687e+01   8.928193e+01
  -1.620339e+02   4.630335e+01
  -1.719672e+02  -9.028876e+01
  -5.546664e+01  -1.693528e+02
   1.405616e+02  -1.595963e+02
   1.537775e+02   2.016554e+01
   7.256412e+01   1.037229e+02
  -6.522719e+01   8.760645e+01
  -9.312691e+01   3.710297e+01
  -4.939641e+01  -3.267176e+01
   2.875196e+01  -3.409560e+01
  -3.632798e+01  -1.217680e+01
  -3.112410e+01  -1.609348e+01
  -7.946394e+01  -2.799651e+01
  -2.087243e+01  -1.085161e+02
   1.242375e+02  -1.199045e+02
   1.904566e+02  -5.147494e+00
   1.979502e+02   1.143916e+02
   6.453231e+01   1.982332e+02
  -9.103714e+01   9.285913e+01
  -1.200667e+02   2.597891e+01
  -4.208731e+01  -6.205241e+01
  -1.747038e+01  -2.436418e+01
  -7.178275e+01   1.914706e+01
  -6.237611e+01   4.088210e+01
  -3.578330e+00  -4.103303e+01
   6.395398e+01  -5.780628e+01
   1.174116e+02  -5.700898e+01
   3.485235e+01   4.389530e+01
  -2.349156e+01   7.626765e+01
  -1.242021e+02   9.508708e+01
  -1.576238e+02  -4.551875e+01
  -7.529944e+01  -1.674885e+02
   1.204674e+02  -2.004565e+02
   2.362352e+02  -1.288329e+02
   2.318753e+02   3.905751e+01
   1.521722e+02   1.631140e+02
  -6.261072e+01   1.143910e+02
  -7.592092e+01   6.209149e+01
  -1.024474e+02   5.613055e+01
  -4.705104e+01   1.078986e+02
  -5.725345e+01   3.682315e+01
  -8.023256e+01  -2.063163e+01
  -8.793938e+01  -1.586495e+02
   5.551842e+00  -2.015955e+02
   8.006855e+01  -1.686404e+02
   1.217308e+02   1.629873e+01
   1.079548e+02   1.119810e+02
   1.722903e+01   8.008682e+01
  -6.998052e+01   5.046002e+01
  -4.290849e+01  -6.662502e+00
  -5.837437e+00  -2.416747e+01
   4.078204e+01  -2.905541e+01
  -1.732750e+01   1.012712e+01
  -7.199107e+01  -4.749138e+01
  -3.868239e+01  -2.718398e+01
   7.160689e+01  -7.775091e+00
   1.441030e+02   8.798824e+00
   1.167473e+02   4.787397e+01
  -4.675645e+01   8.745227e+01
  -9.428106e+01   9.178281e+01
  -1.263525e+02   4.792484e+01
  -5.626588e+01  -7.259287e-01
   5.162284e+01  -4.646967e+01
   7.492071e+01  -8.011804e+00
   2.107829e+01   9.869541e+01
  -6.516995e+01   4.760187e+01
  -5.503181e+01   3.406461e+00
  -4.700435e+01  -4.630163e+01
  -3.153213e+01  -3.712412e+01
  -3.873281e+01   2.927813e+00
  -5.776217e+01  -7.789855e+00
  -3.665958e+01  -8.000422e+01
   3.680812e+01  -1.264757e+02
   1.255569e+02  -1.519491e+02
   1.372700e+02  -2.991756e+01
   7.280563e+01   9.537552e+01
   7.094054e+00   1.557931e+02
  -8.465451e+01   4.447419e+01
  -6.276307e+01  -6.686609e+00
   6.209712e+01  -3.994896e-01
   9.721813e+01   4.783710e+01
   4.154500e+01   6.631686e+01
  -5.679246e+01   9.057656e+01
  -1.580786e+02   6.078561e+01
  -1.544036e+02  -2.522013e+01
  -2.010921e+01  -8.535111e+01
   7.141507e+01  -2.590387e+01
   5.388766e+01   1.266362e+01
  -6.683254e+00   3.664229e+01
  -1.092525e+02  -5.446134e+01
   7.540551e+00  -9.778120e+01
   5.887024e+01  -1.375393e+02
   1.320951e+02  -6.320801e+01
   8.452040e+01   9.518072e+01
  -2.090604e+01   1.484626e+02
  -4.937101e+01   1.046642e+02
  -1.104819e+02   4.906670e+00
  -8.225043e+01  -8.610357e+01
   1.679102e+01  -9.166400e+01
  -4.509865e+00  -1.299072e+01
   9.485982e+01   3.514798e+01
  -1.042448e+01   3.537610e+01
   3.812781e+00  -3.269623e+01
   1.337169e+01  -2.577117e+01
   5.258157e+01   5.761634e+01
   2.336371e+01   1.094113e+02
  -5.854503e+01   1.451943e+01
  -1.243528e+02  -1.456657e+01
  -1.253661e+02  -7.471162e+01
   8.102117e+00  -3.995891e+01
   9.479174e+01  -2.331836e+01
   6.108074e+01  -8.358492e+00
  -1.956947e+01   4.073476e+01
  -6.587584e+01  -4.635617e+00
  -1.647550e+01  -1.068699e+01
   5.271308e+00  -3.207685e+01
  -1.463088e+01  -1.192908e+00
  -5.904945e+01   1.016625e+01
  -9.081608e+01  -2.665138e+01
   3.642620e+00  -6.433435e+01
   9.395248e+01  -9.998893e+01
   1.413810e+02  -5.947166e+01
   1.487187e+02   3.912818e+01
   5.463930e+01   1.087622e+02
  -3.899030e+01   1.270181e+02
  -7.697256e+01   6.541425e+01
  -6.912131e+01  -1.207695e+00
   6.026397e+00   2.773706e+00
  -1.536017e+00  -2.115490e+01
  -2.096462e+01   6.000605e+00
  -4.981197e+01  -2.358052e+01
  -4.671475e+01  -5.440118e+01
   3.570352e+01  -1.022380e+02
   8.536163e+01  -2.135325e+01
   8.968414e+01   6.797376e+01
  -2.032737e+01   8.270313e+01
  -7.802586e+01   3.794320e+01
  -8.736541e+01  -7.109737e+01
  -2.545576e+01  -7.237651e+01
   8.017004e+01  -2.514047e+01
   6.517011e+01   1.873615e+00
  -6.998666e+00   4.083588e+01
  -1.008348e+01   5.108747e+01
  -3.884063e+01  -6.655396e-01
   1.367144e+01   1.148650e+01
   3.503713e+01   6.329185e+00
  -1.543606e+01   9.228076e+00
  -7.732074e+01   4.139512e+01
  -1.102140e+02   4.249618e+01
  -1.771198e+01  -5.070211e+01
   2.736096e+01  -5.306888e+01
   3.049955e+01  -5.611201e+01
  -8.198591e+00   3.751365e+00
   1.092521e+00   7.320732e+01
  -1.531452e+01   3.251304e+01
  -2.985551e+01   2.608518e+01
  -5.492602e+01  -6.628207e+01
   2.940359e+00  -4.701404e+01
   2.081052e+01   1.189130e+01
   3.143187e+01   4.607716e+01
  -4.158116e+01   1.349979e+00
  -2.249367e+01  -2.693876e+01
  -1.135126e+01  -8.325362e+00
  -2.453313e+01   1.369899e+01
  -2.172458e+01   7.413308e+01
  -2.506289e+01  -1.839655e+01
  -5.987343e+01  -6.080363e+01
   3.019515e+01  -2.128802e+01
   2.986258e+01  -1.310352e+01
   7.898456e+01   3.651100e+01
  -1.543870e+01   9.033418e+01
  -5.399525e+01   1.748891e+01
  -7.207005e+01  -2.343209e+01
  -5.180659e+01  -4.683697e+01
   2.984017e+01  -3.537041e+01
   6.518859e+01  -4.417695e+01
  -4.022656e+00  -2.749245e+01
  -4.063031e+01   1.253969e+01
  -5.864940e+00  -1.526146e+01
   4.102248e+01  -3.196765e+01
   8.674420e+01  -3.283810e+01
