
 $NMID
 id='ANONYMOUS ', fmtdat='(2E16.6)'
 volume=1.0
 tramp=1.0
 $END
   4.247332e+03   1.421617e+02
   2.707612e+03   2.631295e+03
  -7.129294e+02   2.931820e+03
  -2.220175e+03   8.372038e+02
  -9.408092e+02  -7.527197e+02
   7.565156e+02  -6.034528e+02
   9.988604e+02   5.214029e+02
   1.084567e+01   1.122540e+03
  -9.245719e+02   7.135480e+02
  -9.618568e+02  -1.643536e+02
  -4.278881e+02  -9.754943e+02
   3.056692e+02  -9.341748e+02
   7.339278e+02  -9.931901e+01
   3.910727e+02   7.588790e+02
  -3.230668e+02   7.729276e+02
  -6.587859e+02  -2.003538e+01
  -2.614911e+02  -6.798126e+02
   3.684380e+02  -6.384048e+02
   5.996910e+02  -7.197044e+01
   4.180095e+02   3.957141e+02
  -6.869721e+00   4.562717e+02
  -2.809874e+02   2.617343e+02
  -2.323156e+02   5.591152e+00
   1.131868e+02  -1.519417e+02
   5.073089e+02   8.984633e+01
   2.419192e+02   4.886138e+02
  -5.023297e+02   4.374791e+02
  -8.776654e+02  -9.635132e+01
  -4.287682e+02  -5.557783e+02
   3.999011e+02  -5.225727e+02
   8.504593e+02   3.699525e+01
   3.620386e+02   4.895707e+02
  -2.921807e+02   5.484413e+02
  -6.031596e+02   1.912772e+02
  -4.158432e+02  -2.140376e+02
  -9.634427e+01  -5.089756e+02
   2.063775e+02  -3.139283e+02
   1.578962e+02   2.490665e+02
  -1.447333e+02   4.470279e+02
  -4.582599e+02  -2.182054e+01
  -2.444311e+02  -7.360363e+02
   3.413179e+02  -7.830328e+02
   6.604412e+02  -2.514163e+01
   2.700253e+02   5.736917e+02
  -2.997204e+02   3.631652e+02
  -3.902919e+02  -3.448410e+02
   4.121314e+01  -5.606758e+02
   5.574787e+02  -1.053802e+02
   6.161960e+02   4.295833e+02
   1.724522e+02   5.925595e+02
  -3.999095e+02   3.594296e+02
  -6.107558e+02  -1.020588e+02
  -3.756365e+02  -4.350795e+02
   1.946620e+02  -3.743357e+02
   4.567412e+02  -4.570293e+01
   2.573194e+02   1.883882e+02
  -1.466361e+02   1.471511e+02
  -1.573312e+02  -1.498036e+02
   1.684639e+02  -1.649764e+02
   3.334906e+02   5.524875e+01
   1.585720e+02   3.109003e+02
  -2.162430e+02   2.950245e+02
  -2.980730e+02   4.198896e+01
  -2.137518e+02  -6.453826e+01
  -1.180777e+01  -2.205949e+02
   1.917450e+02  -2.736428e+02
   3.426891e+02  -2.506074e+02
   3.127025e+02   1.142919e+02
   8.573272e+01   4.304240e+02
  -1.462275e+02   4.250521e+02
  -1.175825e+02   4.865399e+01
  -5.250696e+01   1.754336e+01
  -4.108170e+01   1.041226e+02
  -1.884998e+02   1.034863e+02
  -2.736590e+02  -3.036505e+01
  -1.502459e+02  -2.541824e+02
   7.847306e+01  -3.002359e+02
   2.484097e+02  -4.391573e+01
   1.826314e+02   2.652443e+02
  -2.819210e+01   3.065360e+02
  -2.627658e+02   1.533158e+02
  -3.582861e+02  -1.917440e+02
  -1.536385e+02  -3.339605e+02
   7.673912e+01  -3.249362e+02
   2.544899e+02  -1.252720e+02
   1.689452e+02   2.001593e+01
   9.057180e+01  -3.328357e+01
   2.269728e+02  -8.807759e+01
   4.355654e+02   2.142601e+01
   3.184064e+02   2.343648e+02
   3.149180e+01   4.236246e+02
  -3.760117e+02   4.398592e+02
  -5.022912e+02   2.049644e+02
  -3.006569e+02  -7.870861e+01
  -3.033415e+01  -3.256878e+02
   1.336788e+02  -2.300878e+02
   1.424237e+02  -1.586010e+00
  -9.558418e+01   9.810671e+01
  -1.973848e+02   5.505824e+00
  -6.488232e+01  -2.187348e+02
   1.852869e+02  -1.569702e+02
   2.057561e+02   5.184344e+01
  -2.019940e+01   1.795369e+02
  -2.021739e+02   1.824631e+01
  -1.099691e+02  -2.169900e+02
   4.034161e+01  -3.482483e+02
   2.428525e+02  -2.348962e+02
   3.058221e+02   7.046390e+01
   2.879472e+02   2.474062e+02
   9.443833e+01   3.068273e+02
  -9.120162e+01   1.164658e+02
  -1.848369e+02   1.052442e+01
  -5.341188e+01  -3.721844e+01
   8.350125e+01   5.847483e+01
   3.544167e+01   1.310916e+02
  -1.332438e+02   1.402246e+02
  -1.867751e+02   1.962136e+01
  -6.586402e+01  -4.093486e+01
   8.041938e+01  -2.992929e+01
   3.547634e+00   5.214405e+01
  -1.592981e+02   1.305052e+02
  -2.472538e+02   3.236205e+01
  -2.525872e+02  -1.306193e+02
  -4.016718e+01  -2.782926e+02
   1.616530e+02  -2.600817e+02
   2.727374e+02  -8.024649e+01
   1.387082e+02   8.672494e+01
   1.847008e+00   1.476329e+02
  -1.117475e+02   3.352202e+00
   1.484991e+01  -9.854233e+01
   1.997536e+02  -3.888297e+01
   1.941489e+02   8.856197e+01
   7.160150e+01   2.092465e+02
  -7.890533e+01   1.564156e+02
  -1.632072e+02   1.253758e+01
  -4.168728e+01  -2.941084e+01
   5.025209e+01  -2.220351e+01
   4.114876e+01   6.447456e+01
  -7.417296e+01   1.406517e+02
  -2.094882e+02   1.932399e+01
  -2.060638e+02  -1.076921e+02
   9.407105e+00  -2.210527e+02
   1.568539e+02  -1.743542e+02
   1.859246e+02  -1.038829e+01
   3.784512e+01   1.228282e+02
  -7.628773e+01   1.019230e+02
  -3.723726e+01  -9.949538e+00
  -3.300601e+00  -1.114061e+01
   3.267368e+01  -3.000359e+01
  -3.079889e+01   2.578648e+01
  -5.339380e+01  -3.719066e+00
  -7.763785e+01  -2.662949e+01
  -2.145258e+01  -1.520889e+02
   1.211323e+02  -1.484465e+02
   2.270752e+02  -4.186610e+01
   1.909863e+02   1.392031e+02
   3.320933e+01   2.257584e+02
  -9.308966e+01   1.691914e+02
  -1.374875e+02   5.616888e+01
  -9.025343e+01  -5.510504e+01
  -3.072795e+01  -4.365449e+01
  -5.166851e+01   2.057313e+01
  -7.386094e+01   5.515921e+00
  -5.202426e+01  -7.637711e+01
   4.105485e+01  -1.057453e+02
   1.006573e+02  -7.095809e+01
   5.568076e+01   2.307853e+01
  -1.717287e+00   8.396365e+01
  -1.073026e+02   9.688985e+01
  -2.076343e+02  -2.896229e+00
  -1.324962e+02  -1.675275e+02
   8.320886e+01  -2.113120e+02
   2.777796e+02  -8.673041e+01
   2.644945e+02   1.063606e+02
   1.098649e+02   1.559260e+02
  -5.995602e+01   1.131546e+02
  -6.158726e+01   6.495816e+01
  -1.029454e+02   7.254811e+01
  -9.065383e+01   9.235995e+01
  -4.275461e+01   9.247191e+01
  -1.186235e+02   1.550498e+01
  -1.142904e+02  -1.196470e+02
  -1.621158e+01  -2.363183e+02
   1.025091e+02  -1.473562e+02
   1.812875e+02  -6.760060e+00
   1.461309e+02   8.639104e+01
   4.045624e+01   1.570585e+02
  -6.443722e+01   7.347165e+01
  -5.633667e+01  -4.823021e+01
  -3.745504e+01  -3.602731e+01
  -4.381037e+00  -2.368615e+01
  -1.518841e+01  -2.217129e+01
  -1.228426e+02  -4.619273e+01
  -6.084377e+01  -5.863020e+01
   5.777639e+01  -6.841353e+01
   1.368316e+02  -1.143775e+01
   1.440085e+02   6.407201e+01
   3.333278e+01   9.236740e+01
  -1.248893e+02   7.859900e+01
  -8.609426e+01   2.086806e+01
  -6.111214e+01  -2.527816e+01
   4.664970e+01  -5.937075e+01
   9.858470e+01   6.388156e-01
   7.638388e+00   9.249117e+01
  -5.722934e+01   4.368090e+01
  -3.903286e+01  -2.449072e+01
  -2.549667e+01  -4.459655e+01
  -2.959016e+01  -6.973166e+00
  -8.231382e+01  -9.680516e+00
  -6.430017e+01   3.986723e+01
  -3.759109e+01  -9.162227e+01
   2.351063e+01  -1.626236e+02
   9.620280e+01  -1.459625e+02
   1.587974e+02  -3.374698e+01
   1.348416e+02   8.681373e+01
   3.288808e+01   1.141053e+02
  -4.576937e+01   8.787219e+01
  -5.672853e+01   3.458870e+00
   4.488270e+01  -1.681835e+01
   1.496851e+02   3.373909e+01
   7.558100e+01   9.820608e+01
  -8.901793e+01   1.080508e+02
  -1.837338e+02   6.491940e+01
  -1.965250e+02  -6.279964e+01
  -4.304225e+01  -9.788635e+01
   8.355187e+01  -1.184256e+02
   5.895404e+01   1.312203e+01
  -4.709641e+01   2.262247e+01
  -9.081497e+01   1.644011e+01
  -2.449925e+01  -1.154003e+02
   1.083132e+02  -1.662239e+02
   1.706067e+02  -4.150395e+01
   9.637794e+01   1.343361e+02
   2.158366e+01   1.491415e+02
  -9.693026e+01   9.772460e+01
  -1.081832e+02  -1.420908e+01
  -2.513502e+01  -9.453474e+01
  -1.062094e+01  -9.804231e+01
   3.822815e+01  -3.244734e+01
   8.471268e+01   5.361355e+01
   2.435295e+01  -3.700639e+01
   6.837148e+00  -7.233400e+01
   4.818981e+00   9.855864e+00
   6.760728e+01   9.855085e+01
   5.113826e+01   1.027662e+02
  -5.815320e+01   6.980711e+01
  -1.577087e+02  -1.481265e+01
  -1.489271e+02  -4.687862e+01
  -3.075689e+01  -3.129522e+01
   1.105016e+02  -1.793034e+01
   1.003363e+02  -2.299832e+01
  -3.443612e+01   2.864503e+01
  -2.913497e+01   5.681872e+00
  -4.006917e+00   1.245804e+01
   5.467172e+01  -1.219478e+01
  -1.870272e+01   1.732697e+01
  -7.756848e+01   1.768458e+01
  -8.261663e+01   1.062203e+01
   1.947540e+01  -8.740229e+01
   1.222935e+02  -9.491920e+01
   1.541381e+02  -2.795585e+01
   1.024809e+02   6.843512e+01
  -1.023799e+00   1.497880e+02
  -4.659064e+01   1.650615e+02
  -1.132515e+02   3.803938e+01
  -8.651289e+01  -1.971064e+01
  -2.196681e+00   1.154046e+01
   1.988558e-01  -2.003746e+01
  -3.196218e+01   1.537354e+01
  -7.082368e+01  -2.117201e+01
  -3.826559e+01  -1.084100e+02
   1.171077e+01  -7.860961e+01
   1.109811e+02   3.250196e+01
   7.608705e+00   1.044346e+02
   1.557611e+01   1.215146e+02
  -7.875384e+01  -2.677753e+01
  -9.751699e+01  -9.296773e+01
  -1.797161e+01  -1.216183e+02
   8.003966e+01  -4.411663e+01
   1.108358e+02  -5.452476e+00
   2.164506e+01   3.972156e+01
  -1.554407e+01   7.500532e+01
  -2.700618e+01   1.939886e+00
   1.578799e+01   1.449556e+01
   5.724026e+01  -1.267181e+01
  -7.639858e+00   2.620209e+01
  -9.574425e+01   7.220802e+01
  -1.346885e+02   4.367710e+01
  -4.320006e+01  -9.591369e+00
  -9.755545e+00  -7.859676e+01
   2.891003e+01  -3.454525e+01
   1.950545e+01  -5.653738e+00
  -3.419022e+00   3.664032e+01
  -2.358613e+01   2.869974e+01
  -2.569875e+01  -2.331575e+01
  -6.103005e+01  -2.882018e+01
   1.121843e+01  -3.170483e+01
   1.494917e+01   3.495472e+01
   4.476596e+01   3.488069e+01
   1.684449e+01  -7.324227e+00
  -6.946189e-01  -3.685040e+01
   6.344165e+00   1.487680e+01
  -5.668358e+00   1.164634e+01
  -3.819158e+00   2.148935e+01
  -3.666459e+01   5.542950e+01
  -4.221515e+01  -7.572140e+01
  -1.208156e+01  -7.194422e+01
   4.885301e+01   1.857785e+00
   9.024054e+01   3.885937e+01
   5.239119e+01   8.660828e+01
  -6.741186e+01   2.105218e+01
  -8.841525e+01  -4.053056e+01
  -3.608777e+01  -9.284041e+01
   4.897319e+01  -2.811336e+01
   7.495359e+01  -3.184066e+01
   9.272721e+00   7.729844e+00
  -4.732854e+01  -9.723953e+00
  -1.949932e+01  -5.941835e+01
   4.332405e+01  -2.760088e+01
   9.978444e+01  -2.798264e+01
