
 $NMID
 id='ANONYMOUS ', fmtdat='(2E16.6)'
 volume=1.0
 tramp=1.0
 $END
   4.447258e+03   8.692618e+01
   2.670805e+03   2.714105e+03
  -8.958886e+02   2.780483e+03
  -2.303310e+03   7.495012e+02
  -9.093068e+02  -8.331721e+02
   8.495665e+02  -5.976698e+02
   9.470198e+02   5.432912e+02
  -7.914776e+01   1.090981e+03
  -9.088906e+02   6.911410e+02
  -9.682975e+02  -1.544972e+02
  -3.741195e+02  -9.057778e+02
   3.147107e+02  -9.312218e+02
   7.131117e+02  -1.222462e+02
   3.992249e+02   7.927814e+02
  -3.404594e+02   7.426809e+02
  -5.842639e+02  -1.663943e+01
  -2.223825e+02  -6.549324e+02
   3.504964e+02  -6.573758e+02
   5.238471e+02  -7.009870e+01
   3.557435e+02   3.704157e+02
   5.181515e+01   4.330253e+02
  -2.920283e+02   2.230583e+02
  -2.132040e+02  -1.400957e+01
   1.096784e+02  -1.543003e+02
   4.506257e+02   8.793607e+01
   2.344850e+02   4.378658e+02
  -4.903760e+02   3.922630e+02
  -8.590330e+02  -6.277905e+01
  -5.070773e+02  -5.566114e+02
   4.009572e+02  -4.703774e+02
   7.571989e+02   3.382349e+01
   3.553836e+02   5.035074e+02
  -2.749522e+02   5.537139e+02
  -5.962596e+02   1.990596e+02
  -4.185274e+02  -2.740017e+02
  -7.734210e+01  -4.856594e+02
   1.595859e+02  -2.997646e+02
   1.677527e+02   2.318392e+02
  -1.521470e+02   4.301602e+02
  -4.883465e+02   2.798530e+01
  -2.697304e+02  -6.993632e+02
   4.130481e+02  -6.955205e+02
   6.377051e+02   3.463323e+01
   2.978207e+02   5.955739e+02
  -3.173269e+02   3.874149e+02
  -4.496867e+02  -3.373545e+02
   6.310484e+01  -5.682032e+02
   5.593345e+02  -1.081079e+02
   5.901139e+02   4.598539e+02
   1.823044e+02   5.981571e+02
  -3.573685e+02   3.185935e+02
  -5.988089e+02  -8.155041e+01
  -3.689254e+02  -3.746342e+02
   1.800124e+02  -3.435260e+02
   4.105846e+02  -2.602733e+01
   2.173508e+02   1.922313e+02
  -1.280946e+02   6.067044e+01
  -1.926717e+02  -1.665233e+02
   1.654652e+02  -2.273216e+02
   3.567906e+02   7.064605e+01
   1.219234e+02   2.995703e+02
  -1.902973e+02   2.333240e+02
  -3.256289e+02   8.045483e+01
  -1.670653e+02  -9.582693e+01
   4.930839e+01  -1.943606e+02
   1.720434e+02  -3.488013e+02
   3.050679e+02  -2.806516e+02
   3.119644e+02   1.020914e+02
   9.585646e+01   4.373437e+02
  -1.218988e+02   4.345293e+02
  -1.308291e+02   1.289469e+02
  -5.220937e+00   1.916255e+00
  -3.573440e+01   6.584755e+01
  -1.683133e+02   1.407798e+02
  -2.599868e+02  -4.933501e+01
  -1.754004e+02  -2.641237e+02
   4.104804e+01  -2.724572e+02
   2.333227e+02  -2.891484e+01
   2.472636e+02   2.782496e+02
  -7.432417e+00   3.084458e+02
  -2.676320e+02   1.563908e+02
  -3.168745e+02  -1.689211e+02
  -1.710529e+02  -3.550903e+02
   5.339395e+01  -2.988077e+02
   1.838352e+02  -1.348161e+02
   1.269923e+02  -1.759614e+01
   1.051792e+02  -9.094172e-01
   2.103401e+02  -7.345005e+01
   3.613930e+02   3.778474e+01
   2.953759e+02   2.580820e+02
   2.656689e+00   4.298667e+02
  -3.138414e+02   3.830974e+02
  -4.593625e+02   1.713280e+02
  -3.656421e+02  -8.086843e+01
  -4.521436e+01  -2.918962e+02
   1.407055e+02  -2.175340e+02
   9.819746e+01  -1.683735e+01
  -7.692840e+01   1.237164e+02
  -1.919652e+02   9.512862e+00
  -1.544080e+01  -1.904610e+02
   1.471893e+02  -1.807139e+02
   1.915187e+02   1.078373e+02
  -2.671623e+01   1.815712e+02
  -1.914827e+02   3.467776e+01
  -1.686572e+02  -2.637336e+02
   1.291403e+01  -3.184753e+02
   2.583873e+02  -1.785240e+02
   3.071783e+02   3.392558e+01
   2.341374e+02   2.212429e+02
   1.336547e+02   2.718331e+02
  -9.668075e+01   1.550268e+02
  -1.603713e+02   1.648166e+01
  -7.298331e+01  -3.269443e+01
   4.981443e+01   8.119241e+00
   4.292259e+01   1.166975e+02
  -1.197457e+02   1.108651e+02
  -1.740752e+02  -4.318381e+01
  -9.623407e+01  -7.268649e+01
   9.720178e+01  -1.019543e+01
   4.874717e+01   5.010885e+01
  -1.104519e+02   9.336301e+01
  -2.649927e+02   4.973184e+01
  -2.826143e+02  -1.140204e+02
  -1.042732e+02  -2.737412e+02
   1.472392e+02  -2.430853e+02
   2.846781e+02  -1.606336e+02
   1.836449e+02   4.943169e+01
  -1.262826e+01   1.513361e+02
  -1.182748e+02   2.880538e+01
  -2.261532e+01  -1.171760e+02
   1.931431e+02  -6.125187e+01
   1.878754e+02   7.566315e+01
   1.217977e+02   2.285430e+02
  -6.013304e+01   1.471753e+02
  -1.118798e+02   1.497219e+01
  -9.127368e+01  -1.884553e+01
   1.222374e+01  -1.237583e+01
   2.911366e+01   1.031977e+02
  -6.019851e+01   1.068849e+02
  -1.886270e+02   2.035486e+01
  -1.780762e+02  -1.254694e+02
  -1.082596e+01  -2.592190e+02
   1.532954e+02  -1.776867e+02
   1.795449e+02  -1.157711e+01
   3.437645e+01   1.121850e+02
  -6.125126e+01   1.019399e+02
  -5.313209e+01   2.378327e+01
  -3.708809e+01  -2.400559e+01
   2.114585e+01  -2.504173e+01
  -3.558262e+01  -1.320906e+01
  -7.703386e+01   1.405777e+00
  -1.008429e+02  -6.290791e+01
  -4.103746e+01  -1.421434e+02
   9.922639e+01  -1.286226e+02
   2.355989e+02  -2.801657e+01
   2.080733e+02   1.008516e+02
   5.945508e+01   2.117668e+02
  -1.395442e+02   1.457284e+02
  -1.347010e+02   4.467261e+01
  -5.814485e+01  -6.390403e+01
  -3.711353e+01  -4.546266e+01
  -3.748297e+01   1.671503e+01
  -6.097518e+01   2.704974e+01
  -4.011680e+01  -6.396443e+01
   5.080168e+01  -1.013386e+02
   8.185112e+01  -4.045847e+01
   5.923644e+01   1.528130e+01
  -5.175500e+01   8.150773e+01
  -1.429207e+02   7.310514e+01
  -1.773722e+02  -7.056017e+01
  -8.335266e+01  -1.942087e+02
   1.099198e+02  -2.403234e+02
   2.169305e+02  -6.645783e+01
   2.605108e+02   7.612950e+01
   1.106296e+02   1.473212e+02
  -3.684099e+01   1.155595e+02
  -1.019525e+02   5.776210e+01
  -5.213753e+01   6.065995e+01
  -6.628913e+01   8.088793e+01
  -3.239729e+01   7.680499e+01
  -1.162161e+02  -2.716703e+01
  -1.080275e+02  -1.539086e+02
  -5.267600e+01  -2.105201e+02
   6.649193e+01  -1.609391e+02
   1.691966e+02  -2.689976e+01
   1.314169e+02   1.591463e+02
   4.106836e+01   1.731066e+02
  -7.917633e+01   7.727928e+01
  -8.700503e+01  -9.678679e+00
  -2.002299e+01  -9.305889e+01
   1.155943e+01  -9.588507e+00
   5.162575e-01  -1.980517e+01
  -9.675012e+01  -4.525367e-01
  -3.324164e+01  -2.183058e+01
   5.459894e+01  -1.566250e+01
   1.353840e+02  -1.623057e+01
   1.232559e+02   2.787978e+01
   3.715159e+01   9.141756e+01
  -1.432421e+02   6.378129e+01
  -1.445504e+02   2.436833e+01
  -1.736398e+01  -5.678176e+01
   7.861898e+01  -1.748625e+01
   5.552011e+01   7.250768e+01
  -2.313005e-01   6.795597e+01
  -5.784769e+01   6.827523e+01
  -7.394087e+01  -3.472460e+01
  -4.508551e+01  -5.738093e+01
  -4.739272e+01  -6.041937e+01
  -5.175612e+01  -1.330785e+01
  -4.670168e+01  -7.433682e+00
  -2.077841e+01  -5.491265e+01
   3.086431e+01  -1.583916e+02
   1.190164e+02  -1.490664e+02
   1.337394e+02  -3.960677e+01
   8.962876e+01   7.063519e+01
   3.822476e+01   1.176111e+02
  -9.681239e+01   4.032022e+01
  -8.774020e+01  -4.156479e+00
   6.749221e+01  -9.010862e+00
   1.188476e+02   3.066232e+01
   7.460767e+01   1.229610e+02
  -5.635261e+01   1.137783e+02
  -1.527045e+02   5.060948e+01
  -1.799366e+02  -3.119358e+01
  -3.884503e+01  -6.740022e+01
   1.008132e+02  -4.721067e+01
   8.166039e+01   6.724776e+00
  -6.065492e+01   2.235709e+01
  -8.754384e+01  -1.357858e+01
   1.884897e+00  -1.036573e+02
   8.552461e+01  -1.343649e+02
   1.352833e+02  -2.974467e+01
   1.129642e+02   1.169663e+02
   1.354422e+01   2.121807e+02
  -1.029796e+02   1.381723e+02
  -1.072030e+02   2.433100e+01
  -7.427159e+01  -1.195362e+02
  -1.372684e+01  -1.127726e+02
   5.690515e+01  -3.967933e+01
  -1.011683e+01   3.528173e+01
   2.528463e+01   4.937727e+01
   1.707981e+01   1.568651e+01
   2.883442e+01  -8.763461e-01
   6.648549e+01   7.268123e+01
   5.073971e+01   9.435962e+01
  -3.037644e+01   4.593265e+00
  -1.149986e+02  -2.460616e+01
  -1.166813e+02  -1.054742e+02
  -2.075131e+01  -7.795653e+01
   1.179974e+02  -2.789149e+01
   8.982014e+01  -1.438742e+01
   2.624589e+01   1.463589e+01
  -3.064008e+01   4.183822e+01
   1.284000e+01   1.934093e+01
   4.835770e+01   1.051853e+01
  -2.226412e+01   2.310107e+01
  -9.589878e+01  -8.642826e+00
  -1.127272e+02  -4.606107e+01
   1.783531e+01  -8.508539e+01
   9.885933e+01  -1.310706e+02
   1.927570e+02  -5.671476e+01
   1.403358e+02   3.664627e+01
   1.768456e+01   1.412057e+02
  -8.114760e+01   1.340159e+02
  -1.112933e+02   5.451724e+01
  -6.275981e+01  -3.028203e+01
   1.815673e-01  -3.282491e+01
   5.786946e+00   1.106816e+01
  -2.756750e+01   7.271984e+00
  -3.086347e+01  -2.919706e+01
  -5.683312e+01  -1.117225e+02
   3.810081e+01  -4.792254e+01
   1.044142e+02   3.034538e+01
   7.647370e+01   1.489259e+02
   9.794041e+00   1.245647e+02
  -6.329051e+01   7.328694e+00
  -8.825834e+01  -8.186443e+01
  -5.242202e+01  -1.332386e+02
   6.897291e+01  -7.609098e+01
   6.315223e+01   4.212139e+00
   4.878853e+01   4.710754e+01
  -7.577083e+01   2.640414e+01
  -3.770082e+01   2.869292e+01
   1.497518e+01   1.820803e+01
   7.679392e+01  -1.979217e+01
   3.739594e+01   8.247740e+01
  -8.536448e+01   4.421674e+01
  -1.227013e+02   5.656827e+01
  -5.151714e+01  -2.675491e+00
   1.730083e+01  -6.972782e+01
   5.260622e+01  -7.458790e+01
   8.601990e+00   1.354296e+01
  -2.873369e+01   9.640954e+01
  -1.546573e+01   3.193146e+01
  -3.777780e+01  -1.157937e+01
  -5.471430e+01  -2.994634e+01
  -3.434040e-01  -5.380298e+01
   9.359141e+00   1.452399e+01
   5.990060e+01   3.876824e+01
   2.268593e+01  -7.365200e+00
  -5.246684e-01  -9.217706e+00
  -2.589810e+01   6.479578e+00
   1.396275e+00   6.214583e+01
   4.584463e-01   3.587026e+01
  -3.353917e+01   1.488828e+00
  -7.689314e+00  -3.985976e+01
  -1.053947e+00  -4.938880e+01
   4.033565e+01  -7.618732e+00
   4.834689e+01   3.517976e+01
   2.512791e+01   7.162749e+01
  -9.175915e+01   1.220935e+01
  -1.014587e+02  -3.537137e+01
  -5.232988e+01  -2.761925e+01
   6.496183e+01  -3.412994e+01
   6.187964e+01   1.169352e+00
   2.960437e+00   7.467360e+01
  -3.181226e+01   2.742250e+01
  -6.141721e+01  -8.966854e+00
   2.103696e+01  -6.828352e+01
   8.798179e+01  -3.537652e+01
