
 $NMID
 id='ANONYMOUS ', fmtdat='(2E16.6)'
 volume=1.0
 tramp=1.0
 $END
  -3.462853e+03   1.087057e+02
  -2.133673e+03  -1.992229e+03
   6.642182e+02  -2.266966e+03
   1.765275e+03  -8.727362e+02
   6.892411e+02   5.296316e+02
  -5.852090e+02   5.127643e+02
  -7.050731e+02  -3.868131e+02
   5.526789e+01  -8.316856e+02
   6.970290e+02  -6.462842e+02
   6.747989e+02   1.453770e+02
   4.032045e+02   6.841091e+02
  -1.713350e+02   7.559469e+02
  -4.916919e+02   1.291822e+02
  -2.781911e+02  -6.076517e+02
   1.982245e+02  -5.804054e+02
   4.910613e+02   3.237593e+01
   2.436143e+02   5.582386e+02
  -2.366033e+02   5.107715e+02
  -4.250368e+02   8.655864e+01
  -2.346383e+02  -2.077181e+02
  -3.885988e+01  -3.383245e+02
   1.845871e+02  -2.248387e+02
   1.248428e+02  -8.885281e+00
  -9.219920e+01   8.796999e+01
  -3.350449e+02  -6.033576e+01
  -1.479799e+02  -2.977408e+02
   4.078458e+02  -3.675847e+02
   6.754943e+02   4.345433e+01
   3.559557e+02   4.245244e+02
  -3.184214e+02   3.698174e+02
  -5.722607e+02  -5.078434e+01
  -2.690414e+02  -3.864588e+02
   2.022396e+02  -4.418141e+02
   4.771580e+02  -1.834754e+02
   3.567544e+02   1.670738e+02
   8.509470e+01   3.685193e+02
  -1.097622e+02   2.575158e+02
  -1.750099e+02  -1.690553e+02
   9.663735e+01  -3.394801e+02
   3.335227e+02   1.259171e+01
   2.057527e+02   5.547165e+02
  -2.203426e+02   5.469729e+02
  -5.068699e+02  -4.450172e+01
  -1.961512e+02  -4.969689e+02
   2.443830e+02  -2.796312e+02
   3.107706e+02   2.822423e+02
  -8.676266e+01   4.633146e+02
  -4.138877e+02   8.592344e+01
  -4.452191e+02  -3.404922e+02
  -1.014096e+02  -4.566294e+02
   2.909084e+02  -2.467324e+02
   4.971957e+02   6.158677e+01
   2.975851e+02   2.928884e+02
  -1.140717e+02   3.212959e+02
  -3.648404e+02   4.337010e+01
  -1.862709e+02  -1.699541e+02
   1.040258e+02  -4.063385e+01
   1.025573e+02   1.056528e+02
  -1.433945e+02   1.435009e+02
  -2.650575e+02  -5.342642e+01
  -1.194472e+02  -2.637926e+02
   1.419495e+02  -2.077747e+02
   2.326373e+02   2.008023e+01
   1.410111e+02   6.246978e+01
  -4.218593e+01   1.588145e+02
  -1.408423e+02   2.114726e+02
  -2.774934e+02   1.838824e+02
  -2.249696e+02  -7.965163e+01
  -1.176061e+02  -3.507382e+02
   7.648108e+01  -3.301135e+02
   6.341616e+01  -1.098431e+02
   1.020782e+01   2.524598e+01
  -3.007239e+00  -9.189835e+01
   1.425453e+02  -9.854897e+01
   2.203408e+02   2.581679e+01
   1.547129e+02   2.287896e+02
  -5.370658e+01   1.906906e+02
  -1.963792e+02  -2.376756e+00
  -1.500351e+02  -2.182836e+02
   1.132004e+00  -2.127664e+02
   2.367602e+02  -8.481704e+01
   3.201915e+02   1.016462e+02
   1.408635e+02   2.484699e+02
  -7.459560e+01   2.411780e+02
  -1.922700e+02   6.463323e+01
  -9.908402e+01  -1.248585e+01
  -1.002657e+02   5.409135e+01
  -1.696399e+02   8.012977e+01
  -3.302173e+02  -2.793472e+01
  -2.824733e+02  -2.208710e+02
   1.975201e+01  -3.520431e+02
   2.677396e+02  -3.548217e+02
   3.633014e+02  -1.783063e+02
   2.565169e+02   5.127770e+01
   1.638073e+01   2.000079e+02
  -1.521283e+02   1.903671e+02
  -7.402634e+01   3.012146e+01
   1.091095e+02  -1.026082e+02
   1.546349e+02   5.745329e+01
   6.257651e+01   1.537089e+02
  -1.481385e+02   1.437866e+02
  -1.475498e+02  -5.182588e+01
   3.090856e+00  -1.760226e+02
   1.240756e+02  -1.008832e+01
   1.508381e+02   1.841799e+02
  -4.317062e+01   2.346883e+02
  -1.693642e+02   1.428034e+02
  -2.128428e+02  -5.218653e+01
  -2.216328e+02  -1.530223e+02
  -1.000236e+02  -2.278460e+02
   8.179530e+01  -1.179988e+02
   1.501774e+02  -3.555987e+01
   3.978610e+01  -3.293702e-01
  -5.081729e+01  -4.718273e+01
  -2.579160e+01  -1.328496e+02
   1.143806e+02  -7.656288e+01
   1.582274e+02   9.127369e+00
   1.047930e+01   1.051691e+02
  -5.506292e+01   3.175618e+01
  -1.445031e+01  -6.115427e+01
   1.123744e+02  -4.184649e+01
   2.097828e+02  -1.880192e+01
   1.952495e+02   9.659430e+01
   1.624013e+01   2.362272e+02
  -1.470836e+02   2.223247e+02
  -2.053580e+02   1.138935e+02
  -1.571851e+02  -3.683636e+00
   2.488601e+01  -1.169454e+02
   6.825162e+01  -1.712250e+01
  -1.621882e+01   1.006433e+02
  -1.328686e+02   1.020892e+02
  -1.562390e+02  -5.485979e+01
  -4.844607e+01  -1.679157e+02
   5.227111e+01  -1.425329e+02
   1.480917e+02  -4.472916e+01
   5.253249e+01   4.611387e+01
  -3.714863e+01  -2.653226e+01
  -2.915330e+01  -4.166266e+01
   8.752142e+01  -9.641392e+01
   1.696164e+02  -5.814651e+01
   1.701798e+02   1.194515e+02
  -5.429808e+00   1.350095e+02
  -1.029381e+02   1.118709e+02
  -1.594379e+02   6.303171e+00
  -2.887602e+01  -8.486743e+01
   3.944515e+01  -1.074797e+02
   5.045146e+01  -3.070101e+01
   1.917839e+01   3.426452e+01
  -4.262226e+01   4.758111e+01
  -4.120059e+00  -1.182234e+01
   3.531480e+01   2.816895e+01
   3.835684e+01   7.275095e+01
   6.924725e+00   9.578610e+01
  -9.134723e+01   1.091120e+02
  -1.722152e+02   1.732441e+01
  -1.710157e+02  -1.286171e+02
  -4.865709e+01  -1.489046e+02
   7.945932e+01  -1.369128e+02
   9.185869e+01  -4.905458e+01
   9.734771e+01   6.168990e+01
   1.292860e+01  -1.482825e+01
   5.008867e+01   4.097623e+00
   8.100751e+01   4.576142e+00
   2.894344e+01   5.061313e+01
  -2.669048e+01   5.680189e+01
  -5.176288e+01   3.593872e+01
  -8.646706e+01  -7.777578e+01
  -9.971920e+00  -1.080433e+02
   5.947182e+01  -4.434463e+01
   1.702102e+02   5.013942e+01
   5.393015e+01   1.816210e+02
  -1.047534e+02   1.705155e+02
  -2.461119e+02   9.593466e+01
  -1.987391e+02  -7.217622e+01
  -1.059148e+02  -1.385442e+02
   1.335606e+01  -8.960648e+01
   4.002229e+01  -6.338636e+01
   4.301164e+01  -7.613353e+01
   6.382136e+00  -5.105076e+01
   1.049776e+02  -1.312714e+01
   1.505815e+02   5.475082e+01
   8.567808e+01   1.036776e+02
   6.189093e+01   1.799774e+02
  -8.395862e+01   1.374012e+02
  -1.201687e+02   1.871147e+01
  -1.197626e+02  -9.428581e+01
  -2.567206e+01  -1.331840e+02
   2.797289e+01  -7.228746e+01
   2.431637e+01   2.167502e+01
  -1.370580e+01   4.301651e+01
   6.756500e-01   3.303000e+01
   2.799908e+01  -5.589148e+00
   7.758426e+01   1.304272e+01
   5.142951e+01   4.185101e+01
  -4.136958e+01   6.563655e+01
  -1.292487e+02   2.017476e+01
  -1.771878e+02  -4.869144e+01
  -2.191044e+01  -8.121666e+01
   1.076721e+02  -7.570078e+01
   9.548005e+01  -1.931747e+01
   3.543207e+01  -8.998809e-01
  -7.797704e+01   2.035631e+01
  -6.384111e+01  -1.193376e+01
  -1.480219e+01  -6.215148e+01
   5.316491e+01  -5.483102e+00
   4.984539e+01   2.845404e+01
   1.012538e+01  -2.433820e+01
   7.032476e+01   2.988853e+01
   7.119453e+01   2.192019e+01
   1.071839e+01  -1.627580e+01
   3.956314e+00   6.049606e+01
  -4.453777e+01   1.054279e+02
  -7.625216e+01   1.150212e+02
  -1.110872e+02   3.068483e+01
  -1.021617e+02  -5.606331e+01
  -1.350686e+01  -6.928228e+01
   2.957914e+01  -6.229515e+01
   4.357588e+01   2.439078e+01
  -5.046708e+00   2.115847e+01
  -1.342562e+02  -2.523852e+01
  -6.933235e+01  -9.278338e+01
   4.538067e+01  -7.902132e+01
   1.658212e+02  -6.035302e+01
   1.119558e+02   2.428598e+01
   2.796440e+01   9.716467e+01
  -8.276582e+01   6.445445e+01
  -4.160356e+01  -3.295230e+00
   4.816798e+01  -4.626265e+00
   9.004344e+01   3.302569e+01
   3.842151e+01   1.106751e+02
  -6.680923e+01   1.235844e+02
  -1.443656e+02   4.598917e+01
  -8.812805e+01  -7.151732e+01
  -4.969721e+01  -1.203147e+02
   8.914476e+01  -1.283016e+02
   7.148123e+01  -4.361885e-01
   4.726272e+01   9.657716e+01
   5.292428e+00   6.788534e+01
  -7.336814e+01   1.448375e+01
  -5.552048e+01  -1.267426e+01
  -8.548171e+01   1.726337e+00
  -9.815432e+00   2.149791e+01
   5.145680e+01  -2.709766e+01
  -1.371815e+01  -7.036019e+01
  -4.443592e+01  -4.478879e+01
   5.217049e+01  -5.446588e+01
   1.265592e+02   2.661224e+01
   8.186637e+01   6.061047e+01
   1.436441e+01   7.004038e+01
  -8.999308e+01   3.141284e+01
  -7.676517e+01   1.147678e+01
  -3.716874e+01  -2.879764e-01
   1.977943e+01  -7.130791e-01
   4.352100e+00   1.582179e+01
  -1.922056e+01   2.141126e+01
   2.493673e+01   5.474280e+00
   6.456848e+01  -1.534180e+01
   4.491651e+01   8.388035e+00
   2.998396e+01   4.516927e+01
  -1.102557e+02   9.724288e+01
  -1.737713e+02   3.742596e+01
  -1.394644e+02  -6.188230e+01
  -3.361852e+01  -1.342356e+02
   8.041137e+01  -6.790968e+01
   7.929527e+01  -9.417437e+00
   6.929044e+01   4.099009e+01
  -6.866448e-01   8.348511e+01
  -1.759094e+01   1.403509e+01
   2.964131e+01   1.681488e+01
   9.657469e+00   6.715338e+01
  -5.794178e+00   8.497422e+01
  -1.647906e+01   3.802273e+01
  -5.830710e+01   8.852895e+00
  -8.658187e+01  -7.292524e+01
  -7.100274e+00  -7.374735e+01
   6.328029e+01  -7.649154e+01
   9.366345e+01   6.329209e+01
   4.575223e+01   9.165889e+01
  -4.686881e+01   4.044616e+01
  -7.207741e+01  -1.594683e+01
  -2.329093e+01  -4.854335e+01
   3.767577e+01  -1.014555e+01
   1.202742e+01  -1.627892e+01
  -3.364007e+01  -1.270354e+01
  -4.997769e+01   1.950960e+01
  -3.011271e+01  -5.661599e+00
   5.403109e+01  -4.016457e+01
   9.922676e+01  -2.934707e+01
   3.977371e+01  -1.882016e+01
   2.934324e+01   6.361755e+01
  -9.973793e+01   5.568446e+01
  -2.373047e+01   6.845110e+00
  -7.995634e+00  -5.552585e+01
   2.149960e+01  -1.484850e+01
   1.024883e+01   2.780010e+01
   1.467806e+01   5.232323e+00
   1.173574e+01   2.831085e+00
  -2.949861e+01  -2.983426e+01
  -1.454477e+01  -5.090306e+01
   1.363984e+01  -1.681613e+01
  -1.054547e+01   6.735739e+01
   1.768149e+00   5.400861e-01
  -1.039535e+01  -1.191079e+01
   4.291286e+01  -2.886559e+01
   1.074390e+01  -6.492534e+00
   3.886549e+01   4.031378e+01
   1.300056e+01   7.292091e+01
  -3.158652e+01   1.548042e+01
  -1.928161e+01  -1.642776e+01
  -1.346555e+01  -3.982023e+01
   4.303732e+01  -2.999736e+01
   7.069194e+01   2.143529e+01
   7.352507e+01   2.108549e+01
  -4.198409e+01   4.208812e+01
  -5.057170e+01   2.023371e+01
  -2.217841e+01   2.434141e+01
   7.778846e+01   2.405782e+01
   2.670860e+01   2.681391e-02
  -5.078154e+01  -1.949622e+01
  -8.502318e+01   1.153695e+01
