
 $NMID
 id='ANONYMOUS ', fmtdat='(2E16.6)'
 volume=1.0
 tramp=1.0
 $END
   2.746265e+03  -1.619452e+02
   1.508148e+03   1.685650e+03
  -4.403859e+02   1.759709e+03
  -1.301152e+03   6.588084e+02
  -6.090873e+02  -2.466969e+02
   4.832773e+02  -3.207903e+02
   5.963309e+02   3.432844e+02
  -7.847601e+01   7.113695e+02
  -5.516924e+02   5.000858e+02
  -6.300136e+02  -8.293426e+01
  -3.043766e+02  -5.710626e+02
   1.892099e+02  -5.468872e+02
   4.013438e+02  -7.324336e+01
   2.214954e+02   4.568833e+02
  -1.516582e+02   4.843350e+02
  -3.633040e+02  -1.747160e+01
  -1.359991e+02  -4.495202e+02
   1.623419e+02  -3.546229e+02
   3.382291e+02  -5.959667e+01
   2.276587e+02   1.993793e+02
   1.242328e+01   2.750316e+02
  -1.004886e+02   2.075922e+02
  -1.116236e+02   4.055734e+01
   8.646929e+01  -6.207825e+01
   2.521915e+02   7.781014e+01
   1.189803e+02   2.785757e+02
  -2.901792e+02   2.495859e+02
  -5.222571e+02  -4.990587e+01
  -3.348735e+02  -3.005769e+02
   2.283426e+02  -2.766125e+02
   4.543077e+02   6.294457e+01
   2.152538e+02   3.028451e+02
  -1.658439e+02   3.027496e+02
  -3.464990e+02   1.521331e+02
  -2.435731e+02  -1.198596e+02
  -3.016303e+01  -2.648664e+02
   8.692661e+01  -1.766330e+02
   1.529672e+02   1.375992e+02
  -7.509911e+01   2.901343e+02
  -2.829087e+02   2.857980e+01
  -2.159486e+02  -4.172146e+02
   1.859631e+02  -4.811839e+02
   4.105499e+02  -2.874892e+01
   2.009767e+02   3.579023e+02
  -1.762046e+02   1.957820e+02
  -2.648143e+02  -1.981219e+02
   5.959505e+01  -3.386786e+02
   3.814229e+02  -7.617307e+01
   3.941053e+02   2.791848e+02
   1.042051e+02   3.887509e+02
  -2.522000e+02   2.419868e+02
  -3.960026e+02  -2.937451e+01
  -2.643407e+02  -2.465442e+02
   8.599912e+01  -2.263269e+02
   2.733679e+02  -3.966577e+01
   1.672633e+02   1.231518e+02
  -6.613254e+01   9.014455e+01
  -9.448947e+01  -6.374564e+01
   1.116561e+02  -9.814462e+01
   2.213468e+02   5.840529e+01
   8.216924e+01   1.642477e+02
  -1.334554e+02   1.683950e+02
  -2.443189e+02   4.524011e+01
  -7.776434e+01  -3.942689e+01
   2.755201e+01  -1.146924e+02
   1.412507e+02  -2.157011e+02
   1.819910e+02  -1.423452e+02
   1.790935e+02   5.664680e+01
   9.578571e+01   2.798093e+02
  -4.987897e+01   2.666136e+02
  -9.051540e+01   4.738704e+01
  -2.667810e+00   3.794300e+00
  -5.759443e+01  -1.476856e+01
  -7.114477e+01   4.565011e+01
  -1.537883e+02  -5.134132e+00
  -1.137132e+02  -1.448504e+02
   5.087860e+01  -2.171078e+02
   1.669656e+02  -3.238076e+00
   1.106478e+02   1.278850e+02
  -2.964918e+01   1.850807e+02
  -1.437908e+02   9.479950e+01
  -2.401802e+02  -6.959248e+01
  -1.341574e+02  -2.542805e+02
   6.610875e+01  -1.913680e+02
   1.376104e+02  -6.722993e+01
   1.288091e+02  -4.311269e+00
   8.442218e+01  -4.461335e+01
   1.662685e+02  -2.509551e+01
   2.979151e+02  -1.587687e+01
   1.654424e+02   1.612466e+02
   2.614772e+01   2.752526e+02
  -1.997659e+02   2.941534e+02
  -2.596635e+02   1.366224e+02
  -2.285651e+02  -2.896399e+01
  -3.133860e+01  -1.787100e+02
   7.224149e+01  -1.634684e+02
   2.026758e+01  -1.533637e+01
  -4.878442e+01   8.603984e+01
  -1.338574e+02   3.446308e-01
  -1.333390e+01  -1.206310e+02
   1.070597e+02  -1.170971e+02
   1.092873e+02   4.673142e+01
  -4.956422e+01   1.115653e+02
  -1.168859e+02  -2.542474e+00
  -1.210511e+02  -1.084582e+02
  -5.833386e+00  -1.993285e+02
   1.342750e+02  -1.072856e+02
   1.784580e+02   1.674262e+01
   1.563119e+02   1.401970e+02
   1.021035e+02   1.559545e+02
  -4.078977e+01   8.794149e+01
  -1.095603e+02   2.637030e+01
  -2.313070e+01  -1.972063e+01
   2.072129e+01   3.572307e+01
   1.784841e+01   9.686271e+01
  -9.230397e+01   4.643991e+01
  -8.202181e+01  -2.481932e+01
  -5.676688e+01  -6.777501e+00
   4.530249e+01   7.721004e+00
   2.575737e+01   3.800336e+01
  -1.177527e+02   5.143407e+01
  -1.602195e+02   2.616746e+01
  -1.741992e+02  -9.601000e+01
  -5.498270e+01  -1.532296e+02
   1.230868e+02  -1.751196e+02
   1.629012e+02  -1.218853e+02
   7.997558e+01   3.524731e+01
  -9.336460e+00   8.897905e+01
  -7.730728e+01  -3.724092e+00
   4.633657e+01  -7.769569e+01
   1.429388e+02  -2.587133e+01
   1.365412e+02   5.709483e+01
   1.181888e+01   1.325256e+02
  -3.928240e+01   7.004587e+01
  -1.002747e+02   2.074818e+01
  -4.826605e+01   3.622803e+00
   6.117079e+00   7.973945e+00
   2.071515e+01   7.307593e+01
  -5.505225e+01   7.700625e+01
  -1.369670e+02  -8.730295e+00
  -1.047902e+02  -6.103099e+01
  -1.444953e+01  -1.147376e+02
   7.866241e+01  -7.395530e+01
   9.996133e+01  -4.989508e+01
   5.627909e+01   6.452787e+01
  -5.466479e+01   6.503999e+01
  -5.702199e+00  -1.948919e+00
  -2.958016e+01  -1.772413e+01
   1.410292e+01  -5.031884e+00
  -1.111309e+01  -1.099924e+01
  -5.637301e+01  -1.094526e+01
  -3.525938e+01  -3.548550e+01
  -4.890030e+01  -7.953367e+01
   8.320606e+01  -1.077097e+02
   1.329102e+02  -1.526111e+01
   1.251595e+02   7.750821e+01
   1.754447e+01   1.490203e+02
  -5.601897e+01   1.089637e+02
  -3.782387e+01  -3.066424e+00
  -5.733809e+01  -3.203810e+01
  -4.546806e+01  -1.894338e+01
  -2.674051e+01   3.077343e+01
  -6.314300e+01  -2.300000e+01
  -1.168884e+01  -3.704939e+01
   5.203870e+01  -1.033382e+01
   6.473354e+01  -4.734410e+01
   5.969949e+01   2.351909e+01
  -4.829458e+00   7.585105e+01
  -1.253654e+02   7.466508e+01
  -1.125402e+02  -1.734551e+01
  -1.002899e+02  -1.498409e+02
   1.004249e+02  -1.243057e+02
   2.161586e+02  -4.710416e+01
   1.396716e+02   6.101674e+01
   6.137203e+01   1.079744e+02
   5.797834e+00   1.304253e+02
  -6.552995e+01   4.473284e+01
  -2.670506e+01   8.333653e+01
  -7.847833e+01   2.669783e+01
  -3.263633e+01   4.750571e+01
  -6.202040e+01  -1.034197e+01
  -8.425973e+01  -6.893715e+01
  -4.272112e+01  -1.172501e+02
   2.554920e+01  -1.236995e+02
   7.657121e+01   1.633925e+00
   7.553567e+01   6.120931e+01
   1.318082e+01   8.690213e+01
  -4.552887e+01   9.652952e+01
  -5.973123e+01  -1.064781e+01
  -7.446072e+00  -2.008528e+00
   9.897172e+00  -3.940172e+01
  -4.250778e+01   7.556045e+00
  -5.910958e+00  -3.903681e+01
  -5.082668e+01  -4.405054e+01
   4.791414e+01  -2.741182e+01
   1.109520e+02  -2.977304e+01
   1.286767e+02   4.204272e+01
   3.161072e+01   6.265060e+01
  -5.623562e+01   6.539458e+01
  -1.079504e+02   2.113862e+01
  -2.380207e+01  -3.317161e+01
   4.388573e+01  -5.432214e+01
   9.060458e+01   2.621143e+00
   1.437264e+01  -2.691967e+01
  -1.994232e+01   1.454772e+01
  -1.866475e+01   2.340016e+01
  -4.189727e+01  -3.395342e+01
  -6.007199e+01  -1.966215e+01
  -4.779299e+01   6.764566e+00
  -4.845465e+01  -7.944058e+00
  -1.456931e+01  -5.024402e+01
   4.750630e+01  -8.337050e+01
   8.178019e+01  -9.397542e+01
   1.036617e+02  -2.741306e+01
   7.468150e+01   3.749122e+01
   1.252841e+01   1.095611e+02
  -1.682724e+01   1.674306e+01
  -1.740814e+01   3.247795e+01
   1.651903e+01  -1.247971e+01
   8.039693e+01   4.942390e+01
   3.579352e+01   4.332810e+01
  -5.072129e+01   7.674187e+01
  -1.335998e+02   3.534742e+01
  -9.705017e+01   6.790081e-01
  -3.367596e+01  -3.560494e+01
   6.790779e+01  -5.016379e+01
  -3.126281e+00  -4.440830e+01
  -3.057883e+01   6.372780e+00
  -7.247747e+01   7.350486e+00
  -2.150650e+01  -7.110995e+01
   1.884668e+01  -1.146466e+02
   1.049642e+02  -4.111202e+01
   5.570128e+01   4.025606e+01
  -1.417616e+01   1.086662e+02
  -5.631008e+01   1.114660e+02
  -3.377112e+01  -2.064874e+00
  -2.829253e+01  -9.378257e+01
  -3.167991e+01  -9.954513e+01
   2.590532e+01  -2.122068e+01
   3.762399e+01   8.750717e+00
   9.991109e+00   2.042817e+01
   2.197661e+00  -1.378494e+01
   1.515549e+01  -1.114079e+01
  -1.272988e+01   4.728455e+01
   4.615867e+01   4.893295e+01
  -4.750164e+01   3.420310e+01
  -1.012715e+02  -8.210455e+00
  -8.628594e+01  -4.313496e+01
  -3.614018e+01  -4.375247e+01
   5.630722e+01  -2.102794e+01
   6.430154e+01   2.906811e+01
   2.313067e+01  -1.244577e+00
  -4.607759e+01   3.798552e+01
   1.087591e+00   1.824464e-01
   3.787224e+01   8.903744e+00
  -9.297012e+00  -3.202867e+00
  -5.994684e+01  -1.716029e+01
  -6.231409e+01  -2.470339e+01
  -1.370570e+01  -5.481187e+01
   1.090695e+02  -6.983236e+01
   1.330737e+02  -4.916820e+01
   1.021493e+02   2.690411e+01
  -2.961093e+00   1.347906e+02
  -6.853081e+01   1.197074e+02
  -6.864822e+01   2.893141e+01
  -7.613484e+01  -1.404161e+01
  -1.332884e+01  -3.803663e+01
   3.252059e+00   5.597844e+00
   1.837158e+01   5.465567e+00
   3.751766e+00  -1.816402e+01
  -6.232292e+01  -6.524039e+01
   2.574589e+01  -2.149441e+01
   4.076575e+01   1.650061e+01
   5.228010e+01   4.467309e+01
   2.441039e+01   7.364535e+01
  -9.454591e+01   1.510600e+01
  -5.887540e+01  -5.321782e+01
   1.313281e+01  -5.747164e+01
   6.000089e+01   1.825979e+01
   7.513069e+01   2.493860e+01
  -2.369360e+01   4.358869e+01
   1.150360e+01   4.185720e+01
  -1.212780e+01   1.106438e+01
   1.219635e+01  -1.337207e+01
   2.739522e+01   8.297402e+00
   3.487906e+01   2.170263e+01
  -6.094019e+01   2.487308e+01
  -5.010097e+01   5.670832e+01
  -3.495837e+01  -6.873358e+00
   1.200249e+01  -6.482058e+01
   2.190292e+01  -8.288966e+01
   1.643811e+01  -8.040513e+00
  -4.044757e+00   3.178558e+01
  -2.057090e+01  -1.614572e+01
  -3.502965e+01  -2.179407e+01
   8.611081e+00  -4.605573e+01
   1.300616e+01  -2.147449e+01
   2.833421e+01   4.019313e+00
   1.959881e+01   2.360125e+01
   9.430193e+00   9.838078e+00
  -2.796853e+00  -5.823115e+00
  -7.867872e+00   2.776589e+01
  -4.504008e+01   2.383648e+01
  -1.745781e+01   3.554493e+01
  -2.557578e+01   1.986407e+01
   6.529050e+00  -5.224946e+01
   1.976057e+01  -8.069227e+01
  -4.157647e+00  -2.208373e+01
   1.001314e+02   3.108276e+01
  -5.324096e+00   3.284685e+01
  -5.689729e+01   1.096294e+00
  -3.351969e+01  -4.499802e+01
  -6.545560e+01   4.779987e+00
   3.860737e+01  -9.098380e+00
   1.166117e+00   5.518428e+00
   4.235747e+01  -3.755313e+01
  -2.733729e+01   3.721705e+00
  -4.248815e+01   3.187244e+01
  -1.184869e+01  -1.794954e+01
   7.614912e+01  -3.687538e+01
