
 $NMID
 id='ANONYMOUS ', fmtdat='(2E16.6)'
 volume=1.0
 tramp=1.0
 $END
  -4.711999e+03  -2.503773e+02
  -2.504720e+03  -3.094817e+03
   9.803290e+02  -2.890756e+03
   2.355738e+03  -7.935137e+02
   9.360119e+02   8.670354e+02
  -8.092843e+02   5.722193e+02
  -9.581626e+02  -5.748674e+02
   5.566710e+01  -1.154846e+03
   9.765488e+02  -8.154654e+02
   9.840596e+02   2.128545e+02
   4.554798e+02   9.363411e+02
  -3.615763e+02   9.002689e+02
  -7.109299e+02   8.870658e+01
  -4.115651e+02  -8.125963e+02
   3.465201e+02  -7.778191e+02
   6.489920e+02   2.778537e+01
   2.393405e+02   7.753217e+02
  -4.240656e+02   6.643146e+02
  -6.117400e+02   3.079828e+01
  -3.924240e+02  -4.321825e+02
   1.532998e+01  -4.620436e+02
   2.814267e+02  -2.424734e+02
   2.013257e+02   3.457073e+01
  -1.284385e+02   9.478753e+01
  -4.612225e+02  -8.907804e+01
  -1.863212e+02  -4.532479e+02
   4.827408e+02  -4.777237e+02
   8.634787e+02   9.517118e+01
   4.640915e+02   6.625578e+02
  -4.071737e+02   5.428244e+02
  -7.839923e+02  -4.919431e+01
  -3.342917e+02  -5.183621e+02
   3.061626e+02  -5.499258e+02
   5.798064e+02  -2.267367e+02
   4.047004e+02   2.495848e+02
   4.666619e+01   5.372648e+02
  -2.166006e+02   2.761019e+02
  -1.991017e+02  -2.681059e+02
   1.999261e+02  -4.803079e+02
   4.795476e+02   1.141787e+01
   2.789330e+02   7.409188e+02
  -3.457054e+02   7.646952e+02
  -6.773814e+02  -1.939094e+01
  -2.528888e+02  -6.258561e+02
   3.293791e+02  -3.699847e+02
   4.021561e+02   3.997381e+02
  -1.079796e+02   5.614300e+02
  -5.830660e+02   1.778929e+02
  -6.169557e+02  -4.605228e+02
  -1.244582e+02  -6.197089e+02
   4.374177e+02  -3.713469e+02
   6.469106e+02   1.357507e+02
   3.471994e+02   3.957318e+02
  -1.721672e+02   3.397839e+02
  -4.429753e+02   6.206047e+01
  -2.885425e+02  -2.419525e+02
   1.257937e+02  -1.236246e+02
   1.579146e+02   1.927771e+02
  -1.135337e+02   1.991554e+02
  -3.146956e+02  -1.029316e+02
  -1.095211e+02  -3.080738e+02
   2.576270e+02  -2.715756e+02
   2.983561e+02  -7.185368e+01
   1.884021e+02   9.337839e+01
  -3.963293e+01   2.185581e+02
  -2.309988e+02   3.118902e+02
  -2.847925e+02   2.228532e+02
  -3.383201e+02  -1.495770e+02
  -8.469429e+01  -4.466617e+02
   1.429807e+02  -3.560318e+02
   8.285482e+01  -1.436338e+02
   2.737214e+01   1.196385e+01
   1.940871e+00  -1.088979e+02
   1.633112e+02  -1.348376e+02
   2.797404e+02   3.958973e+01
   2.216563e+02   2.806479e+02
  -6.045353e+01   2.855228e+02
  -2.392600e+02   4.900238e+01
  -2.083882e+02  -2.725854e+02
   2.326123e+01  -3.140067e+02
   2.619500e+02  -1.695099e+02
   3.656225e+02   1.894264e+02
   1.996601e+02   3.895752e+02
  -1.027472e+02   3.314380e+02
  -2.813950e+02   9.592109e+01
  -1.708902e+02  -2.209602e+01
  -7.870270e+01  -6.047822e+00
  -1.953503e+02   8.436891e+01
  -3.954882e+02  -6.488721e+01
  -3.444063e+02  -3.165434e+02
   1.277282e+01  -4.536304e+02
   3.269417e+02  -4.181386e+02
   4.851606e+02  -1.981737e+02
   3.418898e+02   5.867540e+01
   3.649504e+01   2.785178e+02
  -1.801182e+02   2.481661e+02
  -1.199500e+02   3.171092e+01
   1.066309e+02  -1.490978e+02
   1.811112e+02   3.105386e+01
   4.078633e+01   2.197842e+02
  -1.590667e+02   1.736349e+02
  -2.013538e+02  -5.744302e+01
   3.186193e+01  -1.939526e+02
   2.251424e+02  -3.960582e+01
   1.865890e+02   2.290700e+02
  -7.749910e+01   3.299175e+02
  -2.293852e+02   1.899981e+02
  -3.414254e+02  -7.462015e+01
  -2.336462e+02  -2.353450e+02
  -1.169767e+02  -2.541845e+02
   1.195153e+02  -1.735021e+02
   1.925669e+02  -2.118752e+01
   7.997656e+01   2.824131e+01
  -1.027334e+02  -1.240075e+01
  -6.179448e+01  -1.282361e+02
   1.079176e+02  -1.265471e+02
   1.845567e+02  -2.184939e+01
   9.370268e+01   6.504049e+01
  -7.165428e+01   4.424114e+01
  -4.919195e+01  -5.109284e+01
   1.293789e+02  -9.307706e+01
   2.872450e+02  -4.824652e+01
   2.418103e+02   1.412799e+02
   4.838604e+01   2.627793e+02
  -1.720865e+02   2.768433e+02
  -2.751977e+02   1.822769e+02
  -1.974970e+02  -5.249882e+01
  -1.181447e+01  -1.536929e+02
   7.894526e+01   1.675173e+01
  -5.745188e+01   9.477608e+01
  -2.569062e+02   4.793920e+01
  -2.281035e+02  -1.194525e+02
  -6.457515e+01  -1.922930e+02
   1.204322e+02  -1.881097e+02
   1.281469e+02  -1.215768e+01
   9.289544e+01   3.780269e+01
  -2.274796e+01   2.818986e+01
  -4.888958e+01  -7.518248e+01
   7.381866e+01  -1.190882e+02
   1.849835e+02  -3.921284e+01
   2.134522e+02   1.273447e+02
   1.706940e+01   2.191687e+02
  -1.467384e+02   1.806759e+02
  -2.099156e+02   4.222869e+01
  -7.277801e+01  -1.435430e+02
   1.214214e+02  -1.059018e+02
   1.011253e+02  -1.880779e+01
   2.816400e+01   2.745733e+01
  -2.780044e+01   2.887357e+01
   2.083459e+01  -3.524390e+01
   8.243850e+01  -1.275362e+01
   4.916336e+01   7.330426e+01
   2.338950e+00   1.478651e+02
  -1.061737e+02   1.624694e+02
  -2.483269e+02   3.057378e+01
  -2.169769e+02  -1.192413e+02
  -4.037410e+01  -2.362412e+02
   1.515556e+02  -1.654249e+02
   1.627242e+02  -3.731162e+01
   6.727306e+01   3.624538e+01
   1.946884e+01   3.442594e+01
   5.296642e+01  -3.006495e+01
   8.547801e+01   1.641517e+01
   5.019116e+01   6.553183e+01
  -1.474339e+01   1.222472e+02
  -1.138794e+02   3.151516e+01
  -7.388376e+01  -3.241840e+01
   2.230523e+01  -1.000189e+02
   9.469985e+01  -4.661817e+01
   2.093636e+02   2.821389e+01
   9.622713e+01   2.247349e+02
  -1.114341e+02   2.231208e+02
  -2.595190e+02   1.117660e+02
  -2.763445e+02  -8.614366e+01
  -1.231197e+02  -2.225287e+02
   3.779531e+01  -1.217665e+02
   1.099749e+02  -7.029977e+01
   9.671854e+01  -9.289155e+01
   4.654567e+01  -6.097742e+01
   6.998147e+01  -7.563426e+01
   1.394002e+02   2.623400e+01
   1.325164e+02   1.097057e+02
  -2.129015e+01   2.332869e+02
  -1.314770e+02   1.819544e+02
  -2.020645e+02   1.249772e+00
  -1.354451e+02  -1.034708e+02
  -5.782513e+01  -1.857878e+02
   6.682582e+01  -1.244996e+02
   6.554363e+01   1.130579e+01
  -8.491129e+00   6.390552e+01
  -2.191140e+01   5.591719e+01
   2.334165e+01   1.635782e+01
   7.581436e+01   1.122699e+01
   4.721921e+01   3.913509e+01
  -2.887762e+01   4.332002e+01
  -1.864453e+02   4.737774e+00
  -1.761237e+02  -3.683617e+01
  -1.902231e+01  -4.094532e+01
   1.416536e+02  -5.134745e+01
   1.063906e+02  -2.609208e+01
   5.208449e+01   5.590993e+01
  -5.515313e+01   3.151534e+01
  -8.245675e+01  -4.521153e+01
  -1.000013e+01  -5.404402e+01
   2.890927e+01  -6.080230e+01
   7.053037e+01   5.801054e+01
   4.393159e+01   5.202715e+01
   3.375750e+01   2.916284e+01
   7.278543e+01  -1.238817e+01
   8.857638e+01  -1.207277e+01
  -4.783425e+00   8.036359e+01
  -4.771683e+01   1.207962e+02
  -1.195948e+02   1.151588e+02
  -1.596709e+02   2.307596e+01
  -1.494480e+02  -1.245655e+02
  -1.071851e+01  -1.202147e+02
   5.371984e+01  -7.522749e+01
   6.803201e+01   3.719762e+01
  -3.315549e+01   2.222582e+01
  -9.790624e+01  -3.217966e+01
  -9.290393e+01  -8.346399e+01
   9.625246e+01  -8.041187e+01
   2.151898e+02  -2.577394e+01
   1.763198e+02   1.936475e+01
   9.202209e+00   1.120402e+02
  -6.360908e+01   5.139392e+01
  -6.510870e+01   2.890630e+01
   5.296752e+01  -4.482254e+01
   7.069888e+01   1.255515e+01
   2.276569e+01   1.493680e+02
  -1.300249e+02   1.313173e+02
  -1.809802e+02   5.684931e+01
  -1.358217e+02  -1.020836e+02
  -2.909342e+01  -1.811097e+02
   4.676500e+01  -1.437925e+02
   1.397852e+02   2.326797e+00
   9.039795e+01   1.239440e+02
  -3.543937e+01   8.437727e+01
  -4.198255e+01   1.525922e+01
  -4.306345e+01  -3.509738e+01
  -2.557269e+01  -7.096880e+00
   3.363452e+00   6.350610e+01
  -4.355122e+01  -1.571457e+01
  -5.239648e+01  -1.331309e+02
  -2.891157e+01  -1.263028e+02
   3.865314e+01  -4.563911e+01
   1.816904e+02   8.763075e-01
   9.403516e+01   9.561593e+01
   9.260183e+00   4.710297e+01
  -1.117695e+02   2.110238e+01
  -8.882971e+01  -5.886885e+00
  -1.913197e+00  -7.246501e+00
   5.384875e+01  -4.987825e+01
   4.663038e+00  -8.310053e+00
  -2.895038e+01  -1.677738e+01
   1.937968e+01  -1.263031e+01
   9.936958e+01  -1.398333e+01
   1.182651e+02   7.600044e+00
  -2.150215e+01   8.109608e+01
  -1.239737e+02   1.063139e+02
  -1.980728e+02   7.141758e+01
  -1.561070e+02  -6.368770e+01
  -3.402068e+01  -1.480019e+02
   6.674304e+01  -1.404937e+02
   1.471561e+02  -8.555289e+01
   6.936192e+01  -2.057220e+01
   3.546891e+01   5.052212e+01
  -1.662313e+01   2.977552e+01
   1.203523e+01   8.488033e-01
   4.068416e+01   6.739195e+01
   6.079862e+00   9.531743e+01
  -3.733144e+01   7.070604e+01
  -7.539235e+01  -1.877597e+01
  -4.311975e+01  -1.113427e+02
   2.145774e+01  -8.149467e+01
   5.615401e+01  -7.117212e-01
   1.067086e+02   8.166527e+01
   9.492923e+00   9.267235e+01
  -9.056881e+01   4.366598e+01
  -1.105235e+02  -2.309762e+01
  -6.155538e+01  -4.400418e+01
   8.741811e+00  -5.519295e+01
   2.980892e+01  -6.731345e+00
  -7.924310e+01  -1.823520e+01
  -2.742074e+01  -1.424355e+01
  -1.322921e+01  -5.431255e+01
   7.997964e+01  -5.983023e+01
   1.227731e+02  -4.962228e+01
   7.874695e+01   2.004065e+01
  -1.939456e+01   8.878845e+01
  -1.988925e+01   2.853568e+01
  -2.583986e+01  -1.333593e+01
   6.007596e+00  -6.353869e+01
   3.588069e+01  -4.184379e+01
   6.436207e+01   1.642544e+01
   5.208046e+01   1.113794e+02
   3.427673e+00   4.038815e+01
  -4.666278e+00  -2.993365e+01
  -5.000291e+01  -1.211680e+01
  -1.023552e+01   3.200458e+01
   3.379650e+01   7.914552e-01
   3.344926e+01  -6.084173e+00
   8.588593e-01  -1.527910e+01
   1.502233e+01  -4.730338e+01
   2.098938e+01   8.788433e+00
   2.264010e+01   5.494483e+01
   2.318109e+00   5.463020e+01
  -3.821149e+01   3.304158e+01
  -4.599102e+01  -2.512172e+01
  -2.319063e+01  -6.603641e+01
   7.909018e+01  -2.644535e+01
   8.557194e+01   2.516814e+01
   8.940738e+01   7.217085e+00
  -2.435236e+01   1.138280e+01
  -4.047953e+01   3.128985e+01
  -2.473353e+00  -1.271905e+01
  -2.137038e+01   2.649350e+01
   4.453318e+01   2.175339e+01
  -3.810033e+01   2.064196e+01
  -7.938092e+01   3.398062e+01
