
 $NMID
 id='ANONYMOUS ', fmtdat='(2E16.6)'
 volume=1.0
 tramp=1.0
 $END
   4.679239e+03   1.973917e+02
   2.706234e+03   2.994756e+03
  -9.912953e+02   2.915330e+03
  -2.409748e+03   7.855278e+02
  -9.217854e+02  -8.445058e+02
   7.705094e+02  -6.068340e+02
   9.690474e+02   5.839605e+02
  -5.392928e+01   1.165883e+03
  -9.554017e+02   8.951271e+02
  -9.951839e+02  -1.705314e+02
  -4.432464e+02  -9.810641e+02
   3.319446e+02  -9.242218e+02
   7.036883e+02  -9.415200e+01
   3.822755e+02   7.845828e+02
  -3.902013e+02   7.677124e+02
  -6.681978e+02  -2.438908e+01
  -2.256079e+02  -7.774130e+02
   4.294028e+02  -6.266593e+02
   5.825592e+02  -6.680929e+01
   3.652711e+02   3.925822e+02
   2.311891e+01   4.543887e+02
  -2.557821e+02   2.322644e+02
  -2.329166e+02  -3.023524e+01
   1.306738e+02  -7.216819e+01
   4.635139e+02   9.922778e+01
   2.688345e+02   4.794452e+02
  -4.694874e+02   4.300047e+02
  -8.868001e+02  -1.010991e+02
  -5.054500e+02  -6.481970e+02
   3.945197e+02  -5.539301e+02
   8.056808e+02   4.724106e+01
   3.583113e+02   5.412493e+02
  -3.124212e+02   5.638446e+02
  -6.258480e+02   2.123809e+02
  -4.147058e+02  -2.560592e+02
  -7.984796e+01  -5.256308e+02
   2.516532e+02  -3.197183e+02
   2.138883e+02   2.407439e+02
  -1.892474e+02   4.955035e+02
  -5.314457e+02  -6.032076e+00
  -2.921392e+02  -7.210401e+02
   3.492137e+02  -7.713422e+02
   6.459628e+02   2.846461e+01
   2.753340e+02   5.796581e+02
  -3.427255e+02   3.653106e+02
  -4.182786e+02  -3.190644e+02
   1.355602e+02  -5.350518e+02
   6.525977e+02  -1.849286e+02
   6.146945e+02   4.539680e+02
   1.350625e+02   6.567587e+02
  -4.328561e+02   3.568607e+02
  -6.380950e+02  -7.684899e+01
  -4.192433e+02  -4.684277e+02
   1.598730e+02  -3.968200e+02
   4.589617e+02  -7.349437e+01
   2.720679e+02   2.609274e+02
  -1.250522e+02   9.376482e+01
  -1.548137e+02  -2.149032e+02
   2.165404e+02  -1.964055e+02
   3.747023e+02   7.999605e+01
   1.010944e+02   3.178894e+02
  -2.350507e+02   2.815520e+02
  -3.553548e+02   8.208031e+01
  -1.726076e+02  -1.114017e+02
   1.470459e+01  -1.909107e+02
   2.473020e+02  -3.413962e+02
   3.867663e+02  -2.150788e+02
   3.388062e+02   1.832879e+02
   1.003656e+02   4.602113e+02
  -1.586117e+02   4.349672e+02
  -1.479211e+02   1.148201e+02
  -1.621365e+01  -2.229083e+01
  -1.366127e+01   9.311595e+01
  -2.046832e+02   1.912732e+02
  -2.611722e+02  -4.362998e+01
  -1.743949e+02  -2.990171e+02
   8.497101e+01  -3.057147e+02
   2.475992e+02  -4.864674e+01
   2.210616e+02   2.389087e+02
  -3.806935e+01   3.123711e+02
  -2.920534e+02   1.373205e+02
  -3.559732e+02  -1.887018e+02
  -1.633190e+02  -4.050169e+02
   1.263260e+02  -3.309791e+02
   2.736812e+02  -1.233009e+02
   1.906267e+02   5.419123e+01
   9.804390e+01  -4.346793e+01
   2.229910e+02  -2.455610e+01
   4.218737e+02   5.289948e+01
   3.258068e+02   2.989780e+02
  -2.388942e+01   4.568387e+02
  -3.400245e+02   4.243873e+02
  -5.040854e+02   2.103410e+02
  -3.557006e+02  -1.165347e+02
  -9.056219e+01  -2.843222e+02
   1.286605e+02  -2.724452e+02
   9.422480e+01  -6.262186e+01
  -1.097211e+02   1.069404e+02
  -2.421821e+02  -3.464975e+01
  -3.888105e+01  -1.919797e+02
   1.663944e+02  -1.742203e+02
   2.071659e+02   5.256666e+01
  -2.491203e+01   1.800745e+02
  -1.943926e+02   3.153203e+01
  -1.920552e+02  -2.564237e+02
   4.498670e+01  -3.436533e+02
   2.178017e+02  -2.246668e+02
   3.037636e+02   7.458379e+01
   2.546359e+02   2.580015e+02
   6.522005e+01   2.222607e+02
  -1.532619e+02   1.818618e+02
  -1.942929e+02   1.363169e+01
  -6.438444e+01  -5.936155e+01
   6.780215e+01   6.444986e+01
   3.443594e+01   1.555994e+02
  -1.449627e+02   1.002288e+02
  -1.877918e+02  -3.246411e+01
  -7.450672e+01  -1.040903e+02
   6.336711e+01   1.386544e+01
   4.385291e+01   7.495989e+01
  -1.153504e+02   8.565190e+01
  -2.944196e+02   2.921799e+01
  -2.677062e+02  -1.104431e+02
  -3.113183e+01  -2.249639e+02
   1.787850e+02  -2.609355e+02
   2.807705e+02  -1.377028e+02
   2.530746e+02   4.729817e+01
   3.521236e+01   8.709333e+01
  -9.335081e+01   6.526657e+00
   6.256779e+01  -8.579317e+01
   2.711818e+02  -4.910857e+01
   2.267683e+02   1.076141e+02
   7.995170e+01   2.353372e+02
  -1.182305e+02   1.782182e+02
  -1.522036e+02   3.471656e+01
  -7.286337e+01  -1.039401e+02
   2.376530e+01   3.976533e+01
   3.444554e+01   4.600926e+01
  -8.942337e+01   9.488351e+01
  -1.990216e+02   2.177745e+01
  -2.060215e+02  -1.212633e+02
  -3.505063e+01  -2.564264e+02
   2.124965e+02  -2.078204e+02
   2.387842e+02  -4.402621e+00
   9.557448e+01   1.263340e+02
  -7.235798e+01   6.765392e+01
  -8.119906e+01  -1.314491e+00
  -6.548720e+01  -2.621885e+01
   1.174813e+00  -3.479253e+01
  -3.440027e+01   2.172477e+01
  -4.864997e+01  -5.728634e+00
  -4.816753e+01  -6.795095e+01
  -4.954611e+01  -1.374624e+02
   1.117292e+02  -1.570909e+02
   2.710164e+02  -1.118107e+01
   2.092572e+02   1.333544e+02
  -1.069306e+01   2.607787e+02
  -1.431337e+02   1.458754e+02
  -1.421614e+02   1.457324e+01
  -5.866153e+01  -4.483772e+00
  -5.869670e+01  -8.311675e+00
  -5.884051e+01   2.028503e+01
  -8.026261e+01   5.005654e+00
  -6.273932e+01  -4.908415e+01
   1.514395e+01  -1.354446e+02
   8.157640e+01  -2.821774e+01
   1.148596e+02   1.893729e+01
  -1.305709e+01   7.503268e+01
  -1.367284e+02   9.377031e+01
  -2.116983e+02  -7.574761e+01
  -1.002524e+02  -1.655058e+02
   1.439279e+02  -2.384483e+02
   2.796542e+02  -9.809917e+01
   2.649647e+02   1.252172e+02
   8.721968e+01   1.960039e+02
  -5.137242e+01   1.684334e+02
  -1.272769e+02   9.588680e+01
  -1.197668e+02   8.153048e+01
  -4.855653e+01   1.066082e+02
  -8.867152e+01   9.610934e+01
  -1.279709e+02  -8.386696e+01
  -1.133339e+02  -1.465325e+02
  -5.366917e-01  -2.404814e+02
   9.535160e+01  -1.678924e+02
   2.086373e+02  -4.580606e+01
   1.566346e+02   1.183058e+02
   2.021566e+01   2.097277e+02
  -4.951836e+01   1.003584e+02
  -3.731290e+01   2.596832e+00
  -1.997452e+00  -4.130177e+01
  -2.807656e+01  -5.662510e+01
  -2.521819e+01  -1.788366e+01
  -9.395613e+01  -1.790446e+01
  -6.443069e+01  -2.537061e+01
   5.918904e+01  -4.908990e+01
   1.440756e+02  -2.513009e+01
   1.527345e+02   8.747365e+01
   4.305146e+01   6.245397e+01
  -8.004294e+01   6.192447e+01
  -1.669726e+02   2.620500e+01
  -7.264739e+01  -6.828790e+01
   5.813914e+01  -3.940275e+01
   7.367363e+01   2.897504e+01
   1.591849e+01   6.556023e+01
  -3.633675e+01   8.975131e+01
  -5.699788e+01  -2.702979e+01
  -5.444136e+01  -4.457570e+01
  -5.619146e+01  -4.406840e+01
  -5.984648e+01   2.121826e+00
  -1.015120e+02  -2.637326e+01
  -5.020834e+01  -6.959271e+01
   7.276016e+01  -1.409847e+02
   1.318415e+02  -1.044235e+02
   1.670018e+02  -3.813734e+01
   1.003407e+02   1.214356e+02
  -2.801850e+01   1.728635e+02
  -5.203474e+01   7.225311e+01
  -6.240229e+01  -1.428413e+01
   2.899142e+01  -5.141496e+00
   1.305395e+02   2.556698e+01
   9.794416e+01   1.178112e+02
  -8.168206e+01   1.373786e+02
  -2.234380e+02   2.726574e+01
  -1.806971e+02  -5.485992e+01
  -2.581167e+01  -1.142085e+02
   7.140176e+01  -9.351480e+01
   4.876932e+01  -6.189631e+00
   2.136702e+01   1.248721e+00
  -2.345374e+01   4.342774e+01
  -1.758396e+01  -1.258706e+02
   6.825152e+01  -1.313269e+02
   1.794860e+02  -5.305501e+01
   1.491823e+02   1.026778e+02
   1.999091e+00   1.786598e+02
  -6.771553e+01   1.592628e+02
  -1.304601e+02  -1.750659e+01
  -8.166727e+01  -9.841271e+01
   1.097536e+01  -1.330359e+02
   5.129086e+01   1.093781e+01
   7.658627e+01   5.386226e+01
   4.405276e+01   3.940195e+01
   1.818871e+01  -3.442090e+01
   2.930257e+01  -1.748426e+01
   1.759032e+01   1.493933e+02
   4.298932e+01   1.080350e+02
  -2.769507e+01   5.823444e+01
  -1.672463e+02  -6.063634e+01
  -1.366907e+02  -7.975337e+01
  -1.882279e+01  -7.458048e+01
   1.233167e+02  -5.127112e+00
   9.074902e+01  -5.493767e+00
   2.351412e+01   3.515113e+01
  -2.448049e+01   2.351832e+01
  -1.039218e+01   1.564107e+01
   1.896329e+01  -8.065829e+00
  -1.564533e+00   1.537392e+00
  -2.888384e+01   8.145367e-01
  -5.994533e+01  -1.519751e+01
   6.512892e+00  -1.167743e+02
   1.071075e+02  -1.170445e+02
   1.843314e+02  -1.612442e+01
   1.152830e+02   8.486988e+01
   7.538293e+00   1.676488e+02
  -7.328639e+01   1.379871e+02
  -1.011905e+02   2.082052e+01
  -8.033394e+01  -1.784022e+01
  -3.383051e+01  -2.314956e+01
   4.321610e+01   6.096834e+00
  -2.302670e+01  -1.885476e+01
  -1.210503e+01  -8.177294e+01
  -1.370979e+01  -6.269353e+01
   3.917220e+01  -6.312634e+01
   7.458375e+01  -1.564225e+01
   4.891894e+01   1.307602e+02
  -3.276909e+01   1.359751e+02
  -8.825659e+01   5.824966e+01
  -1.405167e+02  -7.979376e+01
  -1.504473e+01  -1.150939e+02
   5.875520e+01  -9.160583e+01
   8.563108e+01   4.538904e+01
   3.076323e+01   6.497667e+01
  -4.884383e+01   6.761416e+01
  -5.540716e+01   9.614254e+00
   2.095995e+01   5.626251e+00
   6.397106e+01  -8.963263e+00
   2.493353e+01  -1.452329e+01
  -6.920330e+01   5.971670e+01
  -1.181836e+02   7.749878e+01
  -9.197964e+01  -2.028137e+01
   4.198022e+01  -8.587481e+01
   4.713375e+01  -9.839828e+01
   5.428554e+01   2.066874e+01
   1.420378e+01   2.633205e+01
  -2.780514e+01   4.229324e+01
  -6.672229e+01  -2.173577e+01
  -2.407331e+01  -9.888317e+01
   1.105190e+01  -3.850537e+01
   2.125634e+01   1.142193e+01
   3.279498e+01   3.155915e+01
   2.782684e+01   2.504616e+01
  -2.367907e+01  -1.333595e+01
   4.673860e+01   9.718859e-01
  -2.016303e+01   7.205630e+01
  -1.611522e+00   5.749613e+01
  -6.197350e+01  -1.962537e+01
  -5.571298e+01  -6.950240e+01
   4.504780e+01  -5.177180e+01
   4.490506e+01   2.135385e+01
   9.077708e+01   5.713683e+01
   3.462911e+01   5.511934e+01
  -5.866073e+01   3.620828e+01
  -4.933468e+01   9.535819e+00
  -5.096161e+01  -2.905401e+01
   3.309598e+01  -3.871500e+01
   9.826703e+01  -2.884565e+01
   1.208674e+01  -8.829647e+00
  -2.864238e+01  -2.166546e+00
  -3.901341e+01  -3.008048e+01
   1.452981e+01  -1.955689e+01
   7.108711e+01  -2.324466e+01
