
 $NMID
 id='ANONYMOUS ', fmtdat='(2E16.6)'
 volume=1.0
 tramp=1.0
 $END
   4.366701e+03   5.386558e+01
   2.559850e+03   2.700322e+03
  -8.786719e+02   2.704908e+03
  -2.104759e+03   8.351543e+02
  -8.294489e+02  -7.532597e+02
   7.321786e+02  -6.599030e+02
   9.894583e+02   5.818169e+02
  -7.017509e+01   1.092485e+03
  -9.215343e+02   8.044652e+02
  -9.709030e+02  -1.217813e+02
  -4.341836e+02  -9.087160e+02
   2.886665e+02  -8.544704e+02
   7.215808e+02  -6.201786e+01
   3.299836e+02   7.766085e+02
  -2.944645e+02   7.923756e+02
  -6.476864e+02  -9.812600e+00
  -2.962243e+02  -6.753373e+02
   3.569415e+02  -6.240291e+02
   5.823867e+02  -2.833806e+01
   3.097936e+02   3.802684e+02
   2.501336e+00   4.564018e+02
  -2.510888e+02   2.473352e+02
  -1.918189e+02  -4.395576e+00
   1.574947e+02  -1.100560e+02
   3.938121e+02   1.127293e+02
   2.454361e+02   4.703275e+02
  -4.359267e+02   4.256942e+02
  -8.761412e+02  -9.558964e+01
  -4.362445e+02  -5.391804e+02
   4.000771e+02  -5.569365e+02
   7.570862e+02   5.411777e+01
   3.685691e+02   5.354590e+02
  -2.786635e+02   5.654990e+02
  -5.690490e+02   1.731924e+02
  -4.105896e+02  -2.629500e+02
  -2.826561e+01  -4.907124e+02
   3.318462e+02  -3.052527e+02
   1.733064e+02   2.530584e+02
  -1.677142e+02   5.004055e+02
  -4.822730e+02  -2.240214e+01
  -2.686997e+02  -7.237572e+02
   2.944596e+02  -7.067482e+02
   6.369871e+02  -8.524228e+00
   2.607364e+02   5.694217e+02
  -3.239247e+02   3.571511e+02
  -4.033137e+02  -2.934355e+02
   5.889097e+01  -5.556259e+02
   5.672605e+02  -1.436445e+02
   6.298867e+02   4.140278e+02
   1.109433e+02   6.105523e+02
  -4.214527e+02   3.702659e+02
  -5.986275e+02  -1.248814e+02
  -3.409487e+02  -4.296570e+02
   1.443828e+02  -3.467642e+02
   4.498194e+02  -1.131996e+01
   2.358466e+02   1.545737e+02
  -1.532330e+02   9.003472e+01
  -1.056033e+02  -1.830781e+02
   1.713193e+02  -2.177980e+02
   3.439366e+02   7.715538e+01
   1.341401e+02   3.168738e+02
  -2.303318e+02   2.663933e+02
  -3.477953e+02   4.446998e+01
  -1.574377e+02  -9.509373e+01
   4.463912e+01  -1.972724e+02
   2.535010e+02  -3.182861e+02
   2.834171e+02  -1.853662e+02
   2.885587e+02   1.149561e+02
   7.650014e+01   3.912710e+02
  -1.081956e+02   3.533761e+02
  -1.441547e+02   1.043311e+02
  -2.520246e+01  -5.576051e+01
  -1.057780e+01   9.616661e+01
  -1.528887e+02   1.649342e+02
  -2.620841e+02   3.098502e+00
  -1.602717e+02  -2.580016e+02
   5.836540e+01  -2.515497e+02
   2.036899e+02  -7.180111e+00
   1.831668e+02   2.085356e+02
  -5.597531e+00   3.174792e+02
  -2.486050e+02   1.361578e+02
  -3.925633e+02  -1.462382e+02
  -1.721395e+02  -3.141519e+02
   1.318642e+02  -2.650510e+02
   2.407370e+02  -1.092714e+02
   1.276116e+02   1.940111e+01
   1.049618e+02  -4.458744e+01
   2.753789e+02  -8.533171e+01
   3.666726e+02   5.298592e+01
   3.648614e+02   2.665642e+02
   4.633119e+00   4.287239e+02
  -3.176749e+02   4.201497e+02
  -4.975566e+02   1.992482e+02
  -3.542000e+02  -8.959789e+01
  -6.693245e+01  -2.925750e+02
   1.127844e+02  -2.355477e+02
   1.045649e+02  -6.527734e+01
  -9.878893e+01   8.574655e+01
  -1.883323e+02  -3.070871e+01
  -5.491582e+01  -2.022610e+02
   1.249956e+02  -2.205188e+02
   1.768154e+02   5.613281e+01
  -4.232560e+01   2.086056e+02
  -1.840350e+02   5.534635e+01
  -1.700437e+02  -2.225416e+02
   3.903447e+01  -3.023279e+02
   1.874102e+02  -1.686367e+02
   2.971675e+02   5.666829e+01
   2.329884e+02   1.997692e+02
   8.874893e+01   2.280706e+02
  -1.118335e+02   1.553211e+02
  -1.569046e+02   4.786123e+01
  -5.557015e+01  -1.550231e+01
   6.007875e+01  -2.698301e+01
   3.649239e+00   1.425910e+02
  -1.046610e+02   1.430166e+02
  -1.912023e+02   1.817716e+01
  -2.532295e+01  -8.716423e+01
   4.950176e+01   1.265933e+01
  -7.695185e+00   3.624465e+01
  -1.443467e+02   5.810255e+01
  -2.447752e+02   1.779998e+01
  -2.689616e+02  -1.359152e+02
  -6.820642e+01  -2.475529e+02
   1.663968e+02  -2.592374e+02
   2.362642e+02  -9.576955e+01
   2.167632e+02   2.785626e+01
  -3.000878e+01   1.377115e+02
  -7.269167e+01   2.641070e+01
   5.175815e+01  -1.087679e+02
   1.806750e+02  -9.656440e+01
   2.750391e+02   1.225362e+02
   7.880638e+01   2.345183e+02
  -7.963465e+01   1.476176e+02
  -1.473102e+02   4.004762e+01
  -7.122231e+01  -2.996830e+01
   3.693577e+01  -3.304829e+01
   4.576318e+01   6.496536e+01
  -6.208739e+01   1.244826e+02
  -1.859272e+02   4.753195e+01
  -1.486916e+02  -1.293080e+02
  -2.903925e-01  -1.966477e+02
   1.409161e+02  -1.657468e+02
   2.269750e+02   2.200361e+01
   3.339441e+01   9.763782e+01
  -5.965052e+01   1.463157e+02
  -6.383702e+01   4.921627e+01
  -2.267622e+01  -3.279103e+01
  -7.205991e+00  -8.907920e+01
   1.316619e+01   1.797747e+01
  -1.063939e+02   1.285212e+01
  -9.554033e+01  -5.868352e+01
  -3.001262e+01  -8.545501e+01
   7.276625e+01  -1.688769e+02
   1.901603e+02  -5.732156e+01
   1.826358e+02   9.401140e+01
   5.757605e+01   1.884793e+02
  -1.121608e+02   1.543228e+02
  -1.240666e+02   2.469096e+01
  -6.723005e+01  -4.236820e+01
   7.947965e+00  -2.700878e+01
  -5.058673e+01   1.333825e+00
  -6.870506e+01   1.662564e+01
   2.112934e+01  -3.137468e+01
   6.412650e+01  -3.872106e+01
   1.058295e+02  -2.631102e+01
   5.886830e+01   4.578090e+01
  -1.161457e+01   8.718662e+01
  -1.496250e+02   6.552226e+01
  -1.817421e+02  -4.619327e+01
  -9.315354e+01  -1.672987e+02
   9.568602e+01  -1.722940e+02
   2.468771e+02  -6.477783e+01
   2.487245e+02   1.012814e+02
   8.791260e+01   1.797791e+02
  -9.293846e+00   1.351779e+02
  -9.364900e+01   9.808581e+01
  -7.197293e+01   5.764620e+01
  -4.497841e+01   7.883253e+01
  -1.332947e+02   7.604463e+01
  -9.653415e+01  -1.352580e+01
  -8.053607e+01  -1.678768e+02
  -5.028308e+01  -2.088199e+02
   1.222321e+02  -1.701003e+02
   1.788673e+02  -2.860140e+01
   1.341099e+02   8.629139e+01
   9.634646e+00   1.396659e+02
  -9.179962e+01   8.617557e+01
  -7.788443e+01   3.049272e+01
   3.763679e+01  -4.277566e+01
   5.089120e+01  -1.633843e+01
  -7.180045e+01  -9.586903e+00
  -6.840680e+01  -7.977989e-01
  -5.054782e+01  -4.949273e+01
   5.045972e+01  -3.687493e+01
   1.473549e+02  -5.587647e+01
   9.721801e+01   5.698095e+01
   8.439100e-01   1.211227e+02
  -1.079083e+02   6.517651e+01
  -1.652498e+02   4.878133e+01
  -3.252082e+01  -3.779394e+01
   8.189858e+01  -4.313355e+01
   7.263751e+01   3.779252e+01
   1.404332e+01   7.380389e+01
  -2.570347e+01   1.972192e+01
  -4.083877e+01  -1.010992e+01
  -5.192419e+01  -4.476573e+01
  -3.364357e+01  -5.705089e+00
   5.541458e+00  -1.736768e+01
  -8.209207e+01   2.866046e+00
  -4.148566e+01  -3.092239e+01
   2.451955e+01  -1.336719e+02
   1.170092e+02  -1.477089e+02
   1.352700e+02  -1.403271e-02
   1.226942e+02   1.093852e+02
   1.188370e+01   9.524213e+01
  -8.586976e+01   7.244750e+01
  -5.654730e+01  -1.149079e+01
   5.089595e+01  -8.650640e-01
   1.273662e+02   4.984690e+01
   7.077686e+01   1.102311e+02
  -7.255691e+01   1.436290e+02
  -1.960786e+02   5.724982e+01
  -1.896307e+02  -3.347730e+01
  -3.228676e+01  -6.027257e+01
   4.791009e+01  -8.811168e+01
   3.509200e+01   5.577398e+00
  -6.957555e+01  -7.295179e+00
  -9.395615e+01   8.937686e+00
  -3.935492e+01  -1.043711e+02
   7.241626e+01  -1.245727e+02
   2.044923e+02  -2.643351e+01
   1.069255e+02   1.397005e+02
   1.829576e+01   1.785179e+02
  -8.282184e+01   1.303109e+02
  -8.054396e+01  -3.592072e+01
  -7.032910e+01  -1.171871e+02
  -1.533644e+01  -7.715311e+01
   2.079517e+01  -2.164055e+01
   5.200315e+01   2.134702e+01
   3.214115e+01   2.236036e+00
   1.199314e+01  -1.974368e+01
   2.062541e+01   1.317241e+01
   6.132410e+01   5.374926e+01
   3.445087e+01   6.225211e+01
  -8.068457e+01   2.010120e+01
  -1.483066e+02  -5.687486e+01
  -1.187157e+02  -5.484723e+01
  -1.423562e+00  -5.411464e+01
   1.115188e+02  -3.927641e+01
   1.067306e+02  -1.836997e+00
  -1.557526e+01   2.197039e+01
  -5.150913e+01   2.132967e+01
  -9.297541e+00   2.305924e+01
   2.337868e+01   1.036163e+01
   2.727639e+00   2.157575e+01
  -9.607723e+01   7.503683e+00
  -7.011546e+01   5.695903e+00
  -3.083554e+00  -9.489822e+01
   1.431214e+02  -9.321996e+01
   1.808224e+02  -6.848435e+01
   1.142896e+02   7.661229e+01
   1.407266e+01   1.596492e+02
  -8.082411e+01   1.005911e+02
  -1.157095e+02   5.340588e+01
  -1.139883e+02   2.695093e-01
  -7.748314e+01  -4.231320e+01
  -1.584688e+01  -3.661391e+01
   3.819752e+01   1.294454e+00
   1.273218e+00  -3.344785e+01
  -1.904883e+01  -1.009476e+02
   1.911895e+01  -5.874942e+01
   5.761281e+01   1.868209e+01
   6.676721e+01   1.286595e+02
   7.573556e+00   1.130470e+02
  -9.541333e+01   2.404199e+01
  -1.216781e+02  -6.176494e+01
  -2.477540e+01  -1.177102e+02
   3.372534e+01  -6.545728e+01
   1.096145e+02   1.321726e-01
   1.939363e+01   5.214162e+01
  -5.831521e+01   4.601877e+01
  -3.770846e+01   1.803657e+01
   4.603219e+01  -3.701951e+01
   2.210163e+01   1.467482e+01
   1.571110e+01   6.721822e+00
  -5.356750e+01   6.512230e+01
  -1.135595e+02   6.072657e+01
  -6.344089e+01   4.642907e+00
   2.833526e+01  -5.574061e+01
   4.994773e+01  -6.390651e+01
   7.302389e+00  -2.676324e+01
  -1.284885e+01   4.583806e+01
  -5.498334e+01   4.936873e+01
  -6.758881e+01  -3.545972e+01
  -6.670632e+01  -7.289420e+01
   3.200783e+01  -4.103925e+01
   3.912848e+01  -3.201910e+00
   5.951659e+01   1.044581e+01
  -2.685885e+00   8.685442e+00
   2.281353e+01  -2.697110e+01
   4.498243e+01   3.110128e+01
  -1.647385e+01   5.643542e+01
  -4.054403e+01   7.404720e+01
   2.418363e+00  -2.861111e+00
  -1.569671e+01  -6.436592e+01
   2.672820e+01  -4.549865e+01
   2.254635e+01  -2.840623e+01
   5.099906e+01   5.854859e+01
   3.018568e+01   6.441795e+01
  -2.847153e+00   2.791342e+01
  -9.470987e+01  -3.043203e+01
  -5.544458e+01  -2.215652e+01
   2.297012e+01  -6.843002e+01
   7.896212e+01  -6.901996e+00
   2.884329e+01   3.679167e+01
  -3.791171e+01  -1.469887e+01
  -4.983414e+01  -3.612833e+01
   3.273895e+01  -6.219354e+01
   1.089064e+02  -1.697085e+01
