
 $NMID
 id='ANONYMOUS ', fmtdat='(2E16.6)'
 volume=1.0
 tramp=1.0
 $END
  -4.689259e+03  -1.499076e+02
  -2.716564e+03  -2.961981e+03
   8.710090e+02  -3.029223e+03
   2.336349e+03  -8.027067e+02
   9.949708e+02   8.830916e+02
  -8.247167e+02   7.075829e+02
  -9.999614e+02  -5.157150e+02
   5.786904e+01  -1.206295e+03
   9.438742e+02  -8.232305e+02
   9.955319e+02   1.729977e+02
   4.451236e+02   9.515860e+02
  -3.159718e+02   9.342638e+02
  -7.123356e+02   7.024376e+01
  -3.792402e+02  -7.955889e+02
   3.159405e+02  -7.795417e+02
   6.811100e+02   4.253239e+01
   2.718243e+02   7.260476e+02
  -3.967016e+02   6.677653e+02
  -6.140435e+02   1.060072e+02
  -4.172436e+02  -4.139563e+02
   2.130078e+01  -4.298778e+02
   2.719028e+02  -2.243360e+02
   2.222347e+02   8.545748e+00
  -8.740371e+01   1.491646e+02
  -4.352947e+02  -6.711169e+01
  -2.294459e+02  -4.598865e+02
   4.740878e+02  -4.138780e+02
   8.664669e+02   5.477859e+01
   4.554575e+02   6.058629e+02
  -4.188176e+02   5.232309e+02
  -7.865456e+02  -1.184252e+01
  -3.747846e+02  -5.244264e+02
   3.151167e+02  -5.463552e+02
   6.290127e+02  -2.414769e+02
   4.157234e+02   2.270559e+02
   9.778055e+01   5.036078e+02
  -2.382813e+02   2.972125e+02
  -2.011188e+02  -2.456568e+02
   1.694399e+02  -4.484107e+02
   5.324356e+02  -1.410682e+01
   3.123616e+02   7.433576e+02
  -3.161594e+02   7.060173e+02
  -6.682774e+02   2.186364e+01
  -2.971995e+02  -6.468031e+02
   3.287227e+02  -3.640341e+02
   4.279938e+02   3.495945e+02
  -5.114369e+01   5.593185e+02
  -5.692480e+02   1.933267e+02
  -6.628686e+02  -4.254788e+02
  -1.694361e+02  -6.389771e+02
   4.179246e+02  -4.024538e+02
   6.689786e+02   8.415936e+01
   3.705622e+02   3.883482e+02
  -1.625357e+02   3.706057e+02
  -4.386778e+02   2.460302e+01
  -2.379543e+02  -2.521468e+02
   1.282448e+02  -1.288899e+02
   1.908382e+02   2.112530e+02
  -1.917406e+02   2.249794e+02
  -3.715640e+02  -1.212452e+02
  -1.575871e+02  -3.180348e+02
   1.955918e+02  -2.796976e+02
   3.547777e+02  -8.119644e+01
   1.562123e+02   1.197513e+02
  -7.201756e+01   2.113105e+02
  -2.411219e+02   3.326971e+02
  -3.344421e+02   2.646192e+02
  -3.166854e+02  -1.385828e+02
  -1.232988e+02  -5.229784e+02
   1.693372e+02  -3.736775e+02
   9.979859e+01  -1.025213e+02
   2.711608e+01   6.188124e+01
  -1.992419e+01  -9.305274e+01
   1.860310e+02  -1.805786e+02
   2.949989e+02  -6.808407e+00
   1.675827e+02   2.777568e+02
  -5.776012e+01   2.703587e+02
  -2.719685e+02   3.601265e+01
  -1.663513e+02  -2.520567e+02
   1.824997e+01  -3.220777e+02
   3.063573e+02  -1.189228e+02
   3.516543e+02   1.808377e+02
   2.083739e+02   3.614891e+02
  -1.325796e+02   3.294880e+02
  -2.755374e+02   1.445897e+02
  -1.470698e+02  -1.410016e+01
  -1.014917e+02   5.554564e+01
  -2.071830e+02   9.869393e+01
  -3.964805e+02  -4.690904e+01
  -3.183581e+02  -3.388721e+02
   9.557035e+00  -4.664455e+02
   3.216051e+02  -4.548079e+02
   4.606317e+02  -1.805010e+02
   3.455145e+02   1.204757e+02
   7.162009e+01   3.110998e+02
  -1.561516e+02   2.781601e+02
  -1.227341e+02   6.697072e+01
   1.181630e+02  -1.090081e+02
   2.015595e+02   2.304090e+01
   7.405880e+01   2.336537e+02
  -1.863617e+02   1.960585e+02
  -2.169687e+02  -5.035137e+01
   3.468535e+01  -2.087512e+02
   2.021439e+02  -4.434205e+01
   1.708504e+02   2.252729e+02
  -5.262286e+01   3.459994e+02
  -1.988543e+02   1.528563e+02
  -3.354569e+02  -7.044654e+01
  -2.812685e+02  -2.324225e+02
  -1.207348e+02  -2.481270e+02
   1.480953e+02  -1.751148e+02
   1.694278e+02  -3.189058e+01
   6.658462e+01   3.134193e+01
  -6.186619e+01  -3.850392e+00
  -2.740705e+01  -1.498769e+02
   1.171590e+02  -1.266355e+02
   1.887439e+02  -3.610077e+00
   9.032565e+01   1.099721e+02
  -9.302150e+01   4.823212e+01
  -8.168257e+01  -8.147158e+01
   1.226850e+02  -8.465118e+01
   3.086719e+02   3.063518e+00
   2.522022e+02   1.087354e+02
   7.236308e+01   2.484202e+02
  -1.502092e+02   2.666405e+02
  -3.014810e+02   1.510223e+02
  -1.517470e+02  -4.702608e+01
   2.631087e+01  -1.348891e+02
   1.182146e+02  -5.983024e+00
  -4.317673e+01   1.143038e+02
  -1.640737e+02   3.446602e+01
  -1.682124e+02  -1.665799e+02
  -9.678964e+01  -2.156512e+02
   9.721527e+01  -1.468038e+02
   1.761613e+02  -4.345381e+01
   9.735959e+01   2.571610e+01
  -4.526557e+01   2.421595e+01
  -4.643979e+01  -2.327123e+01
   6.181419e+01  -1.403685e+02
   1.771405e+02  -4.170572e+01
   2.210579e+02   8.705257e+01
   3.145181e+01   2.454592e+02
  -1.517855e+02   1.571869e+02
  -2.402913e+02   8.905225e+00
  -1.034275e+02  -1.125834e+02
   7.818228e+01  -7.405543e+01
   7.388016e+01   1.285846e+01
   1.251451e+01  -6.597902e+00
  -4.616761e+00   3.894745e+01
   1.110052e+01   4.521042e+00
   4.133659e+01  -1.019688e+01
   3.288255e+01   7.675588e+01
   5.477629e+01   1.585451e+02
  -1.013170e+02   1.412182e+02
  -2.530490e+02   3.535849e+01
  -2.141733e+02  -1.232778e+02
  -8.018244e+01  -2.376914e+02
   1.088215e+02  -1.599459e+02
   1.569337e+02  -2.199920e+01
   8.089863e+01   6.003039e+01
   4.806639e+01   4.807519e+01
   1.032551e+02  -3.134403e+01
   7.687108e+01  -1.321958e+01
   6.555843e+01   2.055193e+01
  -2.475224e+01   6.846859e+01
  -6.515351e+01   7.316754e+01
  -7.940944e+01  -4.088094e+01
   3.445080e+01  -8.416331e+01
   1.118768e+02  -9.210544e+01
   1.646101e+02   3.951873e+01
   8.031085e+01   2.080269e+02
  -1.281203e+02   2.395010e+02
  -2.973401e+02   6.304489e+01
  -2.272597e+02  -6.730405e+01
  -1.371158e+02  -1.281803e+02
   2.359935e+01  -1.176381e+02
   9.296472e+01  -7.015988e+01
   4.244004e+01  -5.986206e+01
   5.516382e+01  -7.960547e+01
   1.085721e+02  -1.082837e+02
   1.303279e+02   6.578749e+00
   1.428618e+02   1.340491e+02
   6.114409e+01   1.905607e+02
  -1.261128e+02   1.602944e+02
  -2.094010e+02   1.782250e+00
  -1.305013e+02  -1.552513e+02
  -3.636530e+01  -1.080739e+02
   7.577578e+01  -1.243313e+02
   3.667378e+01   3.833078e+01
  -5.241642e+00  -2.033494e+01
   1.442773e+01  -2.765795e+00
   3.510057e+01   2.758238e+01
   7.317673e+01   3.503205e+01
   1.035276e+01   3.557123e+01
  -6.356675e+01   5.564146e+01
  -1.443499e+02  -3.385326e+01
  -1.462391e+02  -8.913598e+01
  -1.789814e+00  -1.055342e+02
   1.363747e+02  -9.168412e+01
   1.635613e+02  -2.286842e+01
   1.857293e+01   3.846429e+01
  -5.673444e+01   2.500586e+01
  -1.088733e+02  -8.118834e+00
   1.902045e+01  -8.585003e+01
   3.367859e+01  -5.105205e+01
   3.636011e+01   3.249230e+01
   3.720207e+01   5.429749e+01
   2.729928e+01   4.065317e+01
   2.731719e+01   2.410245e+01
   8.064482e+01   2.847144e+00
   1.886453e+01   3.038910e+01
  -5.222305e+01   1.402651e+02
  -1.010036e+02   1.575216e+02
  -1.514888e+02  -3.096157e+01
  -1.228164e+02  -8.409305e+01
  -3.551979e+01  -1.035832e+02
   8.300290e+01  -7.928818e+01
   6.794817e+01  -1.935040e+01
  -5.163354e+01   3.447468e+01
  -1.463475e+02  -3.080570e+01
  -1.154230e+02  -9.414154e+01
   6.305314e+01  -1.125591e+02
   1.673522e+02  -2.667585e+01
   1.758076e+02  -4.284811e+00
   5.863031e+01   8.321611e+01
  -2.551359e+01   7.812018e+01
  -2.155512e+01   1.742582e+01
   3.419017e+01   2.233485e+01
   1.216422e+02   5.697433e+01
   1.446118e+01   1.397670e+02
  -8.206185e+01   1.539445e+02
  -1.742347e+02   5.889631e+01
  -9.308743e+01  -1.260071e+02
  -2.242815e+01  -1.905431e+02
   9.592044e+01  -1.345253e+02
   1.094751e+02  -4.439069e+01
   7.705757e+01   1.186866e+02
  -2.814874e+00   1.214252e+02
  -4.538074e+01   3.730703e+01
  -6.257154e+01  -3.045072e+01
  -4.016537e+01  -2.935828e+01
   1.584732e-01   2.121125e+01
  -2.275906e+01  -3.755443e+01
  -4.582709e+01  -1.078166e+02
  -2.994767e+01  -9.799401e+01
   2.845759e+01  -1.277506e+01
   1.448722e+02  -1.971874e+00
   1.068124e+02   9.617027e+01
   1.993732e+00   4.809236e+01
  -9.783667e+01  -6.597528e+00
  -8.445980e+01  -3.317188e+00
  -5.458048e+00  -2.230494e+01
   2.150657e+01  -2.673168e+00
   3.537541e+01  -2.334135e+01
  -5.922085e+01  -2.375368e+01
   1.741463e+01  -2.715289e+01
   9.371942e+01   2.924719e+01
   1.040563e+02   4.355851e+01
   5.219853e+00   4.116382e+01
  -1.302122e+02   8.995145e+01
  -2.073855e+02   6.141805e+01
  -1.658063e+02  -5.255995e+01
  -1.327779e+01  -1.696241e+02
   6.626110e+01  -1.369501e+02
   9.983529e+01  -3.141661e+01
   9.035760e+01   1.371290e+01
   2.226654e+01   3.037638e+01
  -2.765444e+01   1.875858e+01
   2.898117e+01   8.532713e+00
   5.583325e+01   6.346377e+01
   1.651117e+01   9.385487e+01
  -8.501575e+00   7.480356e+01
  -7.786016e+01  -2.541233e+01
  -5.868774e+01  -1.087611e+02
   2.644163e+01  -7.666856e+01
   7.133884e+01  -4.585480e+01
   1.101086e+02   9.937707e+01
   2.212595e+01   1.348707e+02
  -7.060783e+01   5.607098e+01
  -1.254353e+02  -1.191046e+01
  -3.679509e+01  -6.775041e+01
  -5.118021e+00  -7.100516e+01
   4.022438e+01  -2.193654e+01
  -2.787301e+01  -1.304829e+01
  -5.042454e+01  -4.432686e+01
  -1.709072e+01  -3.422046e+01
   8.701920e+01  -7.051764e+01
   1.230064e+02  -5.009850e+01
   5.862856e+01   8.543250e+00
  -2.885867e+01   7.339226e+01
  -2.684334e+01   7.260527e+01
  -5.533859e+01   1.836304e+01
   2.192676e+01  -7.383135e+01
   4.363350e+01   7.246943e+00
   4.288458e+01  -2.737369e+01
   4.604705e+01   7.139699e+01
  -1.457460e+01   7.243899e+00
  -5.354146e+01   1.514781e+01
  -3.851121e+01  -2.056132e+01
  -3.286419e+01   1.809591e+00
   2.914215e+00   3.737189e+01
   8.649203e-01  -3.392894e+00
   1.138903e+01  -1.809133e+01
   1.663860e+01  -1.448586e+01
   4.970406e+01   4.954633e+00
  -7.229123e+00   3.941504e+01
  -3.677111e+01   5.269772e+01
  -6.091665e+01   4.512666e+01
  -8.388596e+01  -2.351996e+01
  -3.481480e+01  -7.284198e+01
   5.051895e+01  -2.778089e+01
   6.655213e+01   4.184683e+01
   5.964557e+01   4.095801e+01
   2.660198e+01   3.318124e+01
  -9.010285e+01   3.228582e+01
  -5.489966e+01  -1.546058e+01
   2.976806e+01   2.817114e+00
   4.799224e+01   4.688777e+01
  -5.257959e+01   4.865612e+01
  -1.075756e+02   3.144822e+01
