
 $NMID
 id='ANONYMOUS ', fmtdat='(2E16.6)'
 volume=1.0
 tramp=1.0
 $END
  -4.647791e+03  -2.299560e+02
  -2.693361e+03  -3.008599e+03
   1.052133e+03  -2.990695e+03
   2.365646e+03  -8.400941e+02
   9.672612e+02   8.417128e+02
  -7.615335e+02   6.685729e+02
  -9.787440e+02  -5.954625e+02
   5.673824e+00  -1.142586e+03
   9.356967e+02  -8.584092e+02
   9.952843e+02   2.106550e+02
   4.241176e+02   9.306285e+02
  -3.104847e+02   9.440366e+02
  -7.553398e+02   1.166049e+02
  -3.725675e+02  -7.819224e+02
   3.179044e+02  -8.000962e+02
   6.868844e+02   4.312404e+01
   2.352880e+02   7.596923e+02
  -3.593136e+02   6.246803e+02
  -5.987544e+02   5.262905e+01
  -4.040600e+02  -4.100219e+02
   1.633918e+01  -4.628831e+02
   2.721447e+02  -2.681324e+02
   2.378680e+02   1.936463e+01
  -8.252852e+01   1.262023e+02
  -4.237071e+02  -1.204731e+02
  -2.519834e+02  -4.896802e+02
   4.587902e+02  -4.746862e+02
   9.451244e+02   1.167854e+02
   4.668777e+02   5.803087e+02
  -4.478434e+02   5.293148e+02
  -7.929719e+02  -1.195409e+01
  -3.771282e+02  -5.453081e+02
   3.137270e+02  -5.548978e+02
   6.300692e+02  -2.034677e+02
   3.778224e+02   2.832342e+02
  -6.402713e+00   4.955393e+02
  -2.522079e+02   2.927060e+02
  -1.614225e+02  -3.038916e+02
   1.836376e+02  -5.648723e+02
   4.768859e+02   2.190324e+01
   2.263391e+02   7.463185e+02
  -3.555506e+02   7.381420e+02
  -6.741942e+02  -3.095133e+01
  -2.925006e+02  -6.475004e+02
   3.474095e+02  -3.543514e+02
   4.292234e+02   3.688566e+02
  -7.967675e+01   6.116421e+02
  -5.882859e+02   1.502723e+02
  -6.057292e+02  -4.212592e+02
  -1.297409e+02  -6.158369e+02
   4.224930e+02  -3.412053e+02
   6.767488e+02   8.308312e+01
   3.473671e+02   4.529998e+02
  -1.829248e+02   4.244560e+02
  -4.477441e+02   2.749557e+01
  -2.666342e+02  -2.286417e+02
   1.469593e+02  -1.349616e+02
   2.021394e+02   2.126848e+02
  -2.183910e+02   2.392420e+02
  -3.989347e+02  -8.854380e+01
  -1.574912e+02  -3.385439e+02
   2.235269e+02  -3.060781e+02
   2.965075e+02  -1.729891e+01
   1.856100e+02   8.996903e+01
  -5.644091e+00   2.235677e+02
  -2.272578e+02   3.065913e+02
  -3.965895e+02   2.273830e+02
  -2.888105e+02  -1.794327e+02
  -7.880281e+01  -4.652584e+02
   1.784050e+02  -3.888158e+02
   1.266596e+02  -1.306972e+02
   3.980490e+01   6.223632e+00
  -7.321645e+00  -1.003071e+02
   1.845348e+02  -1.253010e+02
   3.161263e+02   2.204791e+01
   2.066489e+02   2.815224e+02
  -8.079953e+01   2.780811e+02
  -1.960722e+02   2.145470e+01
  -2.238723e+02  -2.429652e+02
   1.203695e+01  -3.404866e+02
   2.875685e+02  -7.263754e+01
   3.589792e+02   2.111046e+02
   1.855773e+02   3.694564e+02
  -1.446946e+02   3.221112e+02
  -2.328304e+02   7.014956e+01
  -1.422841e+02  -8.623346e+00
  -1.026581e+02  -6.299372e+00
  -2.674424e+02   5.665518e+01
  -4.155549e+02  -5.477546e+01
  -3.218629e+02  -3.364389e+02
   2.444410e+01  -4.483620e+02
   3.744097e+02  -4.236079e+02
   4.959957e+02  -2.313703e+02
   3.438245e+02   8.013615e+01
   8.681278e+01   3.177482e+02
  -1.685345e+02   2.433748e+02
  -1.202072e+02   3.147651e+01
   1.494528e+02  -1.432525e+02
   2.024337e+02   1.595254e+01
   4.688253e+01   2.207938e+02
  -1.483882e+02   1.697083e+02
  -2.018151e+02  -6.963451e+01
   2.889641e+01  -2.107479e+02
   2.171770e+02  -1.896210e+01
   1.994474e+02   2.573650e+02
  -6.734921e+01   3.046861e+02
  -2.492765e+02   2.388785e+02
  -3.080704e+02  -9.826028e+01
  -2.204984e+02  -2.380463e+02
  -7.636267e+01  -2.722566e+02
   1.289092e+02  -1.878147e+02
   2.044234e+02   6.581874e+00
   8.368046e+01   2.241675e+01
  -9.051671e+01  -2.527005e+01
  -1.228546e+01  -1.478287e+02
   1.322551e+02  -1.098087e+02
   1.880156e+02   2.741690e+01
   3.969683e+01   6.266410e+01
  -4.758370e+01   2.869085e+01
  -3.959463e+01  -6.104978e+01
   1.530325e+02  -1.136295e+02
   2.596217e+02  -1.503013e+01
   2.478133e+02   1.226021e+02
   2.626316e+01   2.493406e+02
  -1.957988e+02   2.277440e+02
  -2.451027e+02   1.436344e+02
  -1.837774e+02  -2.269306e+01
   3.986043e+01  -9.420697e+01
   8.753906e+01  -2.054502e+01
  -1.241680e+01   1.261099e+02
  -1.883158e+02   5.118194e+01
  -2.445789e+02  -1.026408e+02
  -7.326379e+01  -2.473781e+02
   9.871374e+01  -1.837638e+02
   1.689863e+02  -8.040860e+01
   7.811006e+01   1.804439e+01
  -3.059112e+01  -2.100742e+01
  -2.453669e+01  -7.552000e+01
   8.524443e+01  -1.220950e+02
   2.195560e+02   8.307861e-01
   2.147443e+02   1.366044e+02
   3.670153e+01   2.230713e+02
  -1.488174e+02   1.754316e+02
  -2.011309e+02  -1.803409e+01
  -7.759418e+01  -1.034156e+02
   9.023219e+01  -1.274066e+02
   9.775391e+01   1.476216e+01
   5.806583e+00   7.183079e+01
  -9.109011e+00   3.554729e+01
  -2.122007e+01  -9.267257e-01
   7.638012e+01   6.827049e+01
   5.832909e+01   7.049204e+01
   1.335009e+01   1.799725e+02
  -1.251822e+02   1.274734e+02
  -2.605261e+02   3.144984e+01
  -2.033918e+02  -1.374023e+02
  -2.633805e+01  -2.550197e+02
   9.156772e+01  -1.638333e+02
   1.224527e+02  -5.110465e+01
   6.609371e+01   7.747803e+01
   8.071021e+00   4.030174e+01
   9.223174e+01  -1.038582e+01
   9.482819e+01  -3.402694e+01
   6.702371e+01   4.105736e+01
  -2.424810e+01   1.081835e+02
  -1.103956e+02   7.159300e+01
  -1.170017e+02  -3.445574e+01
  -6.155571e+01  -1.103241e+02
   1.141631e+02  -1.025183e+02
   2.499276e+02   4.286158e+01
   1.045471e+02   1.988807e+02
  -8.976570e+01   2.868635e+02
  -3.062548e+02   9.060300e+01
  -2.713797e+02  -7.008105e+01
  -1.035115e+02  -1.683084e+02
   2.642846e+01  -1.349325e+02
   7.945802e+01  -7.729571e+01
   1.001706e+02  -8.169339e+01
   9.911557e+01  -4.352955e+01
   1.237832e+02  -8.079072e+01
   1.341471e+02   4.774754e+01
   1.071839e+02   1.634624e+02
  -2.153779e+00   2.171599e+02
  -9.878961e+01   1.691068e+02
  -1.959812e+02   6.593147e+01
  -2.224656e+02  -1.396455e+02
  -1.234027e+01  -1.519352e+02
   8.414810e+01  -9.970097e+01
   4.023871e+01  -1.804893e+01
  -3.394473e+01   3.834002e+01
  -2.459279e+01   1.583774e+01
   9.500110e+00   2.479097e+01
   7.354698e+01   2.307822e+01
   4.609766e+01   3.976912e+01
  -6.160302e+01   4.261206e+01
  -1.803626e+02   9.598583e+00
  -1.144831e+02  -5.989954e+01
  -4.001793e+00  -8.238664e+01
   1.077784e+02  -8.125426e+01
   1.321667e+02  -3.378359e+01
   3.543578e+01   6.387858e+01
  -1.832464e+01   4.129996e+01
  -7.866719e+01  -2.350766e+01
  -2.602575e+01  -7.332579e+01
   5.712904e+01  -6.508667e+01
   7.645503e+01   4.003210e+01
   3.879898e+01   5.964802e+01
   3.877836e+01   2.400197e+01
   5.472546e+01  -1.202564e+01
   7.915682e+01  -2.692448e+01
   8.260967e+00   6.430440e+01
  -3.864686e+01   1.349993e+02
  -1.045158e+02   1.038558e+02
  -1.550375e+02   5.271720e+01
  -1.533630e+02  -1.174172e+02
   3.725949e+00  -1.319063e+02
   3.491512e+01  -6.886167e+01
   6.471200e+01  -1.979308e+01
  -5.581278e+01   6.781827e+00
  -1.232287e+02  -5.358464e+01
  -5.973083e+01  -9.709503e+01
   1.317768e+02  -1.189282e+02
   2.332257e+02  -1.751998e+01
   1.637155e+02   2.986752e+01
   1.322304e+01   1.126410e+02
  -5.102648e+01   8.660451e+01
  -7.075269e+01  -2.976015e+01
   3.037915e+01   2.093316e+00
   8.004959e+01   4.738322e+01
   1.010511e+01   1.448664e+02
  -1.176341e+02   1.632985e+02
  -1.740180e+02   5.384747e+01
  -1.209978e+02  -1.386214e+02
   3.084146e+01  -2.039138e+02
   8.602680e+01  -1.328315e+02
   1.082530e+02   2.687656e+01
   9.184468e+01   1.037476e+02
   2.669408e+00   8.414276e+01
  -6.419422e+01  -2.417184e+01
  -6.719085e+01  -4.254166e+01
  -9.115930e+01  -4.440710e+01
  -3.564655e+00  -3.351957e+00
   9.777248e-01   2.519722e+00
  -7.899038e+01  -9.502908e+01
  -3.580922e+01  -1.178024e+02
   6.457013e+01  -5.187364e+01
   1.472297e+02   8.466938e+00
   1.580176e+02   5.854634e+01
  -1.308817e+01   6.002515e+01
  -9.686123e+01   9.691733e+00
  -9.329828e+01   1.006245e+01
   3.503057e+00  -2.924807e+01
   1.242778e+01  -1.055143e+01
  -8.485135e+00  -4.779602e+01
  -1.989975e+01   2.486525e+01
   4.439285e+01  -3.081619e+01
   8.822315e+01  -2.019496e+01
   1.083351e+02   7.415473e+00
   1.822442e+01   6.660898e+01
  -1.179901e+02   8.346022e+01
  -1.839422e+02   2.295989e+01
  -1.443755e+02  -9.608097e+01
  -2.457575e+01  -1.845962e+02
   6.610864e+01  -1.118927e+02
   1.310625e+02  -4.519500e+00
   5.782802e+01   4.108585e+01
   2.651683e+01   4.076739e+01
  -1.359375e+01   1.347059e+01
   1.538969e+00   5.131581e+00
   1.480072e+01   5.186071e+01
   4.402081e+00   9.466777e+01
  -5.603538e+01   3.850286e+01
  -8.680085e+01  -1.599845e+01
  -4.681707e+01  -1.386474e+02
   5.624376e+01  -1.346041e+02
   7.377274e+01  -1.981507e+01
   1.028994e+02   1.047857e+02
   1.072778e+01   8.199684e+01
  -6.621767e+01   6.951140e+01
  -7.389545e+01  -3.239044e+01
  -4.684925e+01  -5.572661e+01
   6.058741e+01  -2.768078e+01
   5.107616e+01  -9.674346e+00
  -1.770825e+01   4.806657e+01
  -3.755215e+01  -5.451800e+00
  -5.075004e+01  -2.837621e+01
   9.665693e+01  -6.877280e+01
   1.012859e+02  -3.242408e+01
   9.299932e+01  -1.209955e+01
  -1.450068e+01   8.565146e+01
  -2.462625e+01   8.019953e+01
  -4.770126e+01   4.657170e+00
  -2.622874e+01  -5.267744e+01
   4.761268e+01  -5.429756e+01
  -6.130393e+00   2.602373e+01
   2.135685e-01   7.524085e+01
  -1.100663e+01   6.364235e+00
  -3.527014e+01  -5.025039e+01
  -2.420700e+01  -1.850422e+01
  -4.294234e+01   4.507026e+00
   1.676505e+01   4.548166e+00
  -3.868592e+01  -4.465065e+01
  -2.000959e+00  -5.837748e+01
   2.465287e+01  -2.264505e+01
   7.216623e+01   1.669962e+01
   6.664697e+01   5.094921e+01
   5.994700e-01   6.255783e+01
  -2.388018e+01   1.708607e+01
  -3.444644e+01  -3.585656e+01
   1.338493e+01  -3.701352e+01
   3.075066e+01  -4.101404e+01
   1.170140e+02   3.475341e+01
   6.882942e+01   8.602991e+00
  -2.007092e+01   3.093611e+01
  -8.388358e+01   2.739002e+01
  -9.221782e+00  -1.745405e+01
   3.345463e+01   2.636847e+01
   4.226761e+01   3.496306e+01
  -1.636831e+01   5.093160e+01
  -7.593360e+01   4.159476e+01
