
 $NMID
 id='ANONYMOUS ', fmtdat='(2E16.6)'
 volume=1.0
 tramp=1.0
 $END
   4.582275e+03   2.063415e+02
   2.737043e+03   2.892919e+03
  -9.212674e+02   2.913978e+03
  -2.338691e+03   7.677838e+02
  -9.433705e+02  -8.514176e+02
   7.901268e+02  -5.184171e+02
   9.292774e+02   5.318254e+02
  -2.054302e+01   1.167579e+03
  -8.628313e+02   7.657620e+02
  -9.818238e+02  -1.446620e+02
  -4.119855e+02  -9.416551e+02
   3.300849e+02  -8.803774e+02
   7.060754e+02  -7.488665e+01
   3.625563e+02   8.024342e+02
  -3.474995e+02   7.680186e+02
  -6.113876e+02  -3.821067e+01
  -2.372570e+02  -7.107875e+02
   3.691307e+02  -6.159208e+02
   5.662282e+02  -7.893383e+01
   3.938194e+02   3.661076e+02
   1.270337e+01   4.537344e+02
  -2.869588e+02   2.485090e+02
  -2.383891e+02   1.579588e+00
   1.293286e+02  -1.054223e+02
   4.456262e+02   1.388700e+02
   2.279536e+02   4.644661e+02
  -4.904651e+02   4.361691e+02
  -9.293341e+02  -5.972216e+01
  -4.311103e+02  -6.044482e+02
   4.209928e+02  -5.383658e+02
   7.682456e+02   2.800216e+00
   3.872745e+02   5.435478e+02
  -2.721341e+02   5.853453e+02
  -6.135384e+02   2.071738e+02
  -3.746922e+02  -2.423562e+02
  -3.371081e+01  -5.258795e+02
   2.508468e+02  -3.198141e+02
   2.199689e+02   2.858464e+02
  -1.740814e+02   4.637530e+02
  -5.096023e+02   3.128105e+01
  -2.507578e+02  -7.145866e+02
   3.615825e+02  -7.091909e+02
   6.285392e+02  -5.873052e+00
   2.608636e+02   5.938319e+02
  -3.064241e+02   3.763720e+02
  -4.579753e+02  -3.917075e+02
   8.322985e+01  -5.890859e+02
   5.845717e+02  -1.318910e+02
   6.040208e+02   4.701794e+02
   1.687877e+02   6.126162e+02
  -4.404461e+02   3.638174e+02
  -6.586437e+02  -1.287536e+02
  -3.682081e+02  -4.483324e+02
   1.837133e+02  -3.731845e+02
   4.697249e+02  -2.080290e+01
   2.359682e+02   2.407954e+02
  -1.682649e+02   1.005568e+02
  -1.699241e+02  -1.988678e+02
   2.081053e+02  -2.114972e+02
   3.841352e+02   9.873750e+01
   1.347620e+02   3.244786e+02
  -2.090301e+02   2.894111e+02
  -3.178309e+02   9.289778e+01
  -1.661084e+02  -9.023960e+01
   6.588136e+01  -2.127616e+02
   2.348522e+02  -2.871497e+02
   3.544178e+02  -1.868001e+02
   2.331850e+02   1.386368e+02
   4.312511e+01   4.076994e+02
  -1.518703e+02   3.715980e+02
  -1.438200e+02   9.761164e+01
  -1.738634e+01  -4.470245e+01
  -1.281725e+01   1.099168e+02
  -1.437566e+02   1.394988e+02
  -2.962724e+02  -3.899880e+01
  -1.964260e+02  -2.865941e+02
   5.141454e+01  -2.918045e+02
   2.467178e+02   4.942377e+00
   1.907838e+02   3.004103e+02
  -2.249278e+01   3.136828e+02
  -2.622422e+02   1.170121e+02
  -3.714986e+02  -1.998381e+02
  -1.696238e+02  -3.717737e+02
   1.197267e+02  -2.803759e+02
   2.329100e+02  -1.222400e+02
   1.428785e+02   2.406708e+01
   9.008580e+01  -2.315994e+01
   2.087390e+02  -1.007833e+02
   3.859997e+02   8.214132e+01
   3.047545e+02   3.147331e+02
   7.481451e+00   4.602507e+02
  -3.606527e+02   4.273857e+02
  -4.661180e+02   1.892606e+02
  -3.200524e+02  -1.204220e+02
  -7.918079e+01  -2.857826e+02
   1.252942e+02  -2.195228e+02
   8.561722e+01  -1.919371e+01
  -9.460253e+01   1.114813e+02
  -1.798085e+02  -3.540007e+00
  -2.752647e+01  -2.314674e+02
   1.698828e+02  -2.081705e+02
   1.874831e+02   6.866201e+01
   7.687435e+00   1.847743e+02
  -2.242813e+02   3.413012e+01
  -1.886329e+02  -2.694581e+02
   2.629989e+01  -3.395368e+02
   2.125471e+02  -1.986585e+02
   3.410428e+02   5.503834e+01
   2.489104e+02   2.470176e+02
   6.868283e+01   2.465352e+02
  -1.095667e+02   1.940256e+02
  -1.828163e+02   4.110402e+01
  -4.696782e+01  -2.745302e+01
   8.600719e+01   3.976879e+01
   2.141226e+01   1.144644e+02
  -1.023842e+02   1.116398e+02
  -1.971391e+02  -2.964826e+00
  -8.946097e+01  -4.724281e+01
   7.049383e+01  -2.087308e+01
   4.828966e+01   5.082420e+01
  -1.068340e+02   5.690274e+01
  -2.834511e+02   3.573234e+01
  -2.650338e+02  -1.445691e+02
  -5.240160e+01  -2.554743e+02
   2.022597e+02  -2.666883e+02
   2.845273e+02  -1.309681e+02
   2.136526e+02   1.810301e+01
  -6.185300e+00   9.132369e+01
  -8.108634e+01  -6.551134e+00
   7.535167e+00  -1.168414e+02
   1.972100e+02  -7.547958e+01
   2.028854e+02   8.691566e+01
   4.181182e+01   2.171112e+02
  -1.409036e+02   1.674070e+02
  -1.659691e+02   2.056733e+01
  -6.879048e+01  -4.989543e+01
   2.974831e+01  -7.135889e+00
   5.752186e+01   4.667358e+01
  -5.048308e+01   1.387019e+02
  -2.121891e+02   1.998649e+01
  -1.601548e+02  -1.162046e+02
  -3.516627e+01  -2.381814e+02
   1.673668e+02  -1.824870e+02
   2.003272e+02  -2.014510e+01
   3.423120e+01   1.278373e+02
  -1.191835e+02   1.090936e+02
  -4.922840e+01   3.723040e+01
  -1.197211e+01   1.349459e+00
   1.871086e+01   4.620972e+00
  -4.679171e+00   8.514196e+00
  -6.122178e+01  -1.477023e+01
  -9.334009e+01  -6.832553e+01
  -4.256963e+01  -1.463127e+02
   1.403576e+02  -1.773802e+02
   2.644200e+02  -2.717615e+00
   1.817998e+02   1.521228e+02
   8.393495e+01   2.175232e+02
  -1.118078e+02   1.491258e+02
  -1.600604e+02   6.785961e+01
  -7.669682e+01  -5.260107e+01
  -2.115230e+01  -1.032950e+01
  -7.611876e+01  -2.943186e+01
  -9.496915e+01   2.566930e+01
  -2.034671e+01  -4.619067e+01
   4.466297e+01  -9.690059e+01
   6.348571e+01  -3.041230e+01
   9.949475e+01   4.617303e+01
  -7.722527e-02   1.101143e+02
  -1.390683e+02   8.889303e+01
  -1.931609e+02  -3.749202e+01
  -8.706636e+01  -1.612619e+02
   1.099312e+02  -1.991987e+02
   2.661764e+02  -5.933761e+01
   2.335076e+02   9.589521e+01
   5.827466e+01   1.656083e+02
  -5.825396e+01   1.657180e+02
  -7.946485e+01   4.639745e+01
  -6.561456e+01   1.074057e+02
  -7.648343e+01   9.677877e+01
  -1.311608e+02   4.921031e+01
  -1.388729e+02  -5.911922e+01
  -1.201506e+02  -1.464156e+02
   5.830553e+00  -2.321755e+02
   8.711460e+01  -1.433633e+02
   1.743130e+02  -6.580420e+00
   1.396087e+02   1.125045e+02
   2.007913e+01   1.308439e+02
  -6.827995e+01   9.818571e+01
  -5.835154e+01   2.295561e+01
  -9.058853e+00  -4.309061e+01
   3.618387e+00  -4.632040e+01
  -3.606364e+01   6.088244e+00
  -1.117762e+02  -4.956046e+00
  -6.584156e+01  -5.009835e+01
   7.667398e+01  -5.552067e+01
   1.509479e+02  -2.306868e+01
   1.121710e+02   7.534830e+01
  -1.354215e+01   9.428706e+01
  -1.216822e+02   6.847835e+01
  -1.765917e+02   2.040157e+01
  -3.821939e+01  -4.825321e+01
   5.175665e+01  -2.949171e+01
   7.181564e+01   3.091227e+01
   2.495514e+01   7.360350e+01
  -8.158414e+01   6.113243e+01
  -5.862649e+01   1.277497e+01
  -3.783537e+01  -7.930140e+01
  -3.597186e+01  -2.726461e+01
  -5.009215e+01  -2.945156e+01
  -6.043629e+01  -1.135886e+01
  -2.800276e+01  -9.743181e+01
  -4.683598e+00  -1.309549e+02
   1.316235e+02  -1.133013e+02
   1.556089e+02  -3.684721e+01
   1.291847e+02   1.137717e+02
  -1.117338e+01   1.496948e+02
  -5.213097e+01   5.783867e+01
  -1.000069e+02   6.119036e+00
   4.353705e+01   1.808616e+01
   1.238561e+02   4.403843e+01
   4.981116e+01   1.060054e+02
  -7.465990e+01   8.248503e+01
  -1.689829e+02   3.793616e+01
  -1.764300e+02  -4.714078e+01
  -3.884737e+01  -5.705821e+01
   3.890474e+01  -8.988664e+01
   3.009862e+01   3.695176e+01
  -3.389843e+01  -4.989235e+00
  -8.134763e+01  -1.417733e+01
  -3.367963e+00  -9.361275e+01
   8.866493e+01  -1.290714e+02
   1.986979e+02  -4.779729e+01
   1.103752e+02   1.011414e+02
   1.876616e+01   1.713404e+02
  -6.805315e+01   1.369354e+02
  -9.352853e+01  -4.356166e+01
  -7.285072e+01  -6.269143e+01
   1.999294e+01  -8.985196e+01
   3.438738e+01   9.409309e+00
   5.906211e+01   3.326698e+01
   3.201887e+01  -1.747785e+01
   2.147103e+01  -5.145277e+01
   1.532927e+01   5.012685e+01
   6.940181e+01   9.444944e+01
   4.871985e+00   7.966132e+01
  -5.506851e+01   3.180212e+01
  -1.376337e+02  -5.475235e+01
  -9.078569e+01  -6.858173e+01
   3.422042e+00  -5.664693e+01
   1.080881e+02   4.051728e-01
   5.961005e+01  -3.480729e+00
  -1.563077e+01   1.160864e+01
  -7.637330e+01   3.401256e+00
  -1.943954e-01   2.092145e+01
   5.436599e+01  -5.383274e+00
   8.081261e+00  -1.598898e+01
  -8.735055e+01  -3.009021e+00
  -1.174479e+02  -4.566102e+01
   9.588537e+00  -7.107057e+01
   1.068989e+02  -9.632847e+01
   1.780009e+02  -4.390467e+01
   1.257668e+02   6.796069e+01
   2.613554e+01   1.592438e+02
  -8.319237e+01   1.173176e+02
  -1.167051e+02   7.270972e+01
  -8.570444e+01  -2.174728e+00
  -3.920243e+01  -2.680399e+01
  -2.805637e+00   1.991656e+01
  -1.731619e+01  -6.525168e-01
  -2.529542e+01  -3.764854e+01
  -1.584947e+01  -7.953372e+01
   5.296472e+01  -2.789757e+01
   8.398401e+01   2.020872e+01
   2.932145e+01   1.168150e+02
   3.311861e+00   1.344958e+02
  -7.527009e+01   4.251010e+01
  -1.020343e+02  -6.752768e+01
  -1.097624e+01  -5.138252e+01
   9.773752e+01  -6.003955e+01
   6.063147e+01   2.638100e+01
   5.049559e+01   8.498741e+01
  -5.264360e+01   8.137755e+01
  -7.759722e+01   4.997804e+01
   4.065483e+01   3.447712e+01
   3.847563e+01   8.786357e+00
   6.705756e+00  -1.205949e+01
  -6.019425e+01   3.434601e+01
  -5.865996e+01   6.662284e+01
  -6.939818e+01  -8.045619e+00
   3.227940e+01  -7.835245e+01
   5.598812e+01  -7.060781e+01
   6.408931e+01   5.435344e+00
   2.054807e+01   5.212903e+01
  -4.934534e+01   4.549151e+01
  -2.915939e+01  -2.020169e+01
  -9.301594e+00  -5.966911e+01
   3.443576e+01  -4.870466e+01
   1.284509e+01   6.103722e+01
   3.742178e+01   2.743132e+01
   1.517557e+01  -2.522539e+01
  -8.431125e+00  -2.090825e+01
  -1.424812e+01   1.534907e+01
   1.874034e+01   3.419644e+01
  -6.033120e+01   1.775825e+01
  -3.583139e+01  -2.312848e+01
  -2.807156e+01  -6.942716e+01
   3.179102e+01  -7.326905e+01
   7.952913e+01  -2.680078e+01
   7.596277e+01   2.173651e+01
   1.941517e+01   3.947059e+01
  -6.818710e+01   3.033727e+01
  -1.018782e+02  -2.984635e+01
  -5.720639e+01  -6.551908e+01
   2.336366e+01  -5.018839e+01
   7.188325e+01  -2.268300e+01
   2.112545e+01   4.005607e+00
  -5.994750e+01  -2.880267e+01
  -1.851017e+01  -1.702003e+01
   5.000093e+01  -1.339542e+01
   9.214383e+01   4.072883e+00
