
 $NMID
 id='ANONYMOUS ', fmtdat='(2E16.6)'
 volume=1.0
 tramp=1.0
 $END
   3.784859e+03   1.965071e+02
   2.316741e+03   2.293840e+03
  -7.412453e+02   2.333031e+03
  -1.878819e+03   6.944631e+02
  -7.069217e+02  -6.912298e+02
   6.578217e+02  -4.265273e+02
   8.043595e+02   4.848709e+02
  -1.032151e+02   9.689166e+02
  -7.853828e+02   6.047131e+02
  -7.993639e+02  -1.739142e+02
  -3.038197e+02  -7.979468e+02
   2.672434e+02  -7.397213e+02
   5.428249e+02  -6.579450e+01
   2.936028e+02   6.575198e+02
  -2.596539e+02   6.359165e+02
  -5.244634e+02  -4.154672e+01
  -1.943059e+02  -6.262179e+02
   2.630932e+02  -5.107361e+02
   4.652334e+02  -2.695685e+00
   2.994919e+02   3.355880e+02
   3.551917e+01   3.450029e+02
  -1.749314e+02   2.192048e+02
  -1.986257e+02   2.454264e+01
   1.211551e+02  -6.014803e+01
   3.302327e+02   1.174225e+02
   1.592723e+02   4.088861e+02
  -3.992718e+02   3.953449e+02
  -7.797876e+02  -8.618795e+01
  -3.498122e+02  -5.350841e+02
   3.528707e+02  -3.828782e+02
   6.497763e+02   4.647576e+01
   3.173189e+02   4.486935e+02
  -3.175921e+02   4.509554e+02
  -5.118360e+02   1.914658e+02
  -3.414312e+02  -2.036696e+02
  -4.077363e+01  -4.019819e+02
   1.617071e+02  -2.331393e+02
   1.167279e+02   1.848592e+02
  -1.517118e+02   4.301822e+02
  -4.104421e+02  -3.964165e+00
  -2.260818e+02  -6.072525e+02
   3.236624e+02  -6.043493e+02
   5.800633e+02   4.037230e+01
   2.042406e+02   4.900323e+02
  -2.954271e+02   2.715140e+02
  -3.599194e+02  -2.990145e+02
   6.694699e+01  -5.132939e+02
   5.170949e+02  -1.031874e+02
   5.290421e+02   3.802283e+02
   1.061989e+02   5.064892e+02
  -3.460871e+02   2.594332e+02
  -5.278700e+02  -1.023595e+02
  -3.202604e+02  -3.459296e+02
   1.773458e+02  -3.242193e+02
   3.823162e+02  -1.090817e+01
   1.364445e+02   1.968095e+02
  -1.130277e+02   7.259006e+01
  -9.747311e+01  -1.534521e+02
   1.817395e+02  -1.789626e+02
   3.214695e+02   1.503112e+02
   1.150992e+02   2.971752e+02
  -1.896707e+02   2.149191e+02
  -2.638855e+02   8.509776e+01
  -1.344303e+02  -6.102219e+01
   3.147067e+01  -1.544866e+02
   1.635930e+02  -2.528343e+02
   2.929942e+02  -1.905822e+02
   2.418229e+02   1.558603e+02
   8.453826e+01   3.486384e+02
  -8.247359e+01   3.353936e+02
  -1.132645e+02   1.009395e+02
   2.283359e+01   1.801044e+01
  -3.483882e+01   4.127967e+01
  -1.536729e+02   9.668927e+01
  -2.606783e+02   1.126885e+01
  -1.724532e+02  -2.550768e+02
   7.806534e+01  -2.520688e+02
   1.538983e+02  -3.760466e+01
   1.789712e+02   2.107015e+02
  -4.334894e+00   2.516725e+02
  -2.175750e+02   1.012287e+02
  -3.066281e+02  -1.529599e+02
  -1.580167e+02  -3.656057e+02
   9.859919e+01  -2.806783e+02
   1.853614e+02  -8.079426e+01
   1.473959e+02  -4.343609e+00
   3.445380e+01  -8.512422e+00
   1.822921e+02  -8.733507e+01
   2.885462e+02   5.732173e+01
   2.585723e+02   2.367347e+02
   3.673214e+00   3.966532e+02
  -3.471874e+02   3.623413e+02
  -4.049548e+02   1.405825e+02
  -3.186992e+02  -7.482370e+01
  -2.923060e+01  -2.274958e+02
   1.378677e+02  -2.257764e+02
   1.047568e+02  -9.470139e+00
  -1.141848e+02   1.005049e+02
  -2.043131e+02   3.123347e+00
  -8.523150e+00  -1.851364e+02
   1.718932e+02  -1.309859e+02
   1.527837e+02   4.596611e+01
  -1.528950e+01   1.550122e+02
  -1.688776e+02   1.633103e+01
  -1.522077e+02  -2.012138e+02
  -2.152675e+01  -2.561965e+02
   1.880566e+02  -1.851721e+02
   2.919779e+02   4.738209e+01
   2.422252e+02   1.864930e+02
   9.106063e+01   2.287153e+02
  -1.443300e+02   1.645998e+02
  -1.396002e+02   1.460148e+01
  -1.560302e+01  -4.629383e+00
   5.843010e+01   4.070101e+01
   4.165239e+01   1.017775e+02
  -1.085059e+02   8.296389e+01
  -1.466067e+02  -1.016665e+01
  -4.130762e+01  -9.214691e+01
   6.476422e+01  -1.877073e+00
   5.144605e+01   5.968758e+01
  -9.015986e+01   8.951265e+01
  -2.472094e+02  -2.488734e+01
  -2.055128e+02  -1.217905e+02
  -8.199533e+01  -2.281442e+02
   1.571900e+02  -2.338417e+02
   2.516929e+02  -1.092899e+02
   1.086250e+02   6.891176e+01
  -3.397906e+01   1.087595e+02
  -6.677941e+01  -2.551133e+00
  -1.956863e+00  -5.137787e+01
   1.529382e+02  -3.654513e+01
   1.883897e+02   1.010013e+02
   2.154460e+01   1.413651e+02
  -1.001610e+02   1.503518e+02
  -1.387909e+02   1.314603e+01
  -8.380528e+01  -2.500145e+01
   4.770439e+00   6.988821e-02
   4.080206e+01   1.064453e+02
  -2.673406e+01   7.511056e+01
  -1.704841e+02   3.271963e+01
  -1.314481e+02  -8.867760e+01
  -5.689014e+01  -1.854393e+02
   1.953449e+02  -1.633809e+02
   1.193326e+02  -2.308251e+01
   5.065745e+01   1.106931e+02
  -6.760764e+01   1.209135e+02
  -1.019506e+02   6.973519e+00
  -3.466451e+00  -4.930821e+01
   2.157535e+01  -5.513945e+00
  -3.037075e+01   4.421565e+01
  -1.526576e+01  -2.463448e+01
  -8.200309e+01  -8.107054e+01
  -4.928582e+01  -1.034492e+02
   8.876179e+01  -1.348901e+02
   1.983588e+02  -5.783282e+01
   1.990059e+02   1.355929e+02
   1.209913e+01   2.336226e+02
  -6.984510e+01   1.441329e+02
  -8.547662e+01   5.437836e+01
  -5.746538e+01  -4.697354e+01
  -1.291459e+01   2.830961e+01
  -5.442447e+01   1.134399e+01
  -8.247949e+01   1.269521e+01
  -3.733571e+01  -6.897454e+01
   7.257363e+00  -2.500553e+01
   6.140897e+01  -5.145176e+01
   4.942480e+01   6.000807e+00
  -2.699481e+01   8.213867e+01
  -1.179474e+02   8.980237e+01
  -1.531951e+02  -1.852696e+01
  -8.579909e+01  -1.761956e+02
   4.612017e+01  -2.192079e+02
   2.289148e+02  -1.005968e+02
   1.940094e+02   7.276282e+01
   1.382096e+02   1.876183e+02
  -1.372580e+01   9.011580e+01
  -8.951424e+01   7.164529e+01
  -9.525158e+01   8.240663e+01
  -4.668545e+01   4.880366e+01
  -8.203387e+01   7.997882e+01
  -6.494848e+01  -1.568954e+01
  -1.113932e+02  -1.473723e+02
  -4.194953e+01  -2.082594e+02
   9.449446e+01  -1.444673e+02
   1.528957e+02  -2.247146e+01
   1.118217e+02   9.906634e+01
   4.421405e+01   1.660594e+02
  -5.752822e+01   1.190670e+02
  -5.537643e+01  -4.283515e+00
  -1.498173e+01  -3.199583e+01
   7.295517e-01  -2.251944e+01
  -1.616851e+01  -3.919434e+01
  -6.665678e+01  -4.665080e+01
  -1.217147e+01  -5.553747e+01
   6.035209e+01  -5.882752e+01
   1.199724e+02  -7.886719e+00
   1.124933e+02   4.357351e+01
   6.788485e+00   4.168800e+01
  -8.453225e+01   7.270424e+01
  -1.221006e+02  -1.726734e+00
  -4.252448e+01  -2.450315e+01
   5.185156e+01  -5.167296e+01
   9.012291e+01   4.305490e+01
  -2.236260e+01   4.969578e+01
  -2.089379e+01   4.628886e+01
  -5.802472e+01   1.065246e+01
  -4.258647e+01  -2.423063e+01
  -5.325428e+01  -1.253221e+01
  -7.715918e+01   1.549985e+01
  -6.121689e+01  -3.831837e+01
  -1.498254e+01  -5.405971e+01
   4.486178e+01  -1.017319e+02
   7.245203e+01  -9.863143e+01
   1.147155e+02  -1.729785e+01
   7.788929e+01   9.102235e+01
   3.262899e+01   1.029295e+02
  -6.692500e+01   1.608390e+01
  -1.395987e+00  -2.967602e+01
   4.866093e+01   2.334485e+01
   8.975113e+01   5.864217e+01
   5.511820e+01   7.957320e+01
  -7.677687e+01   9.105884e+01
  -1.614148e+02   8.995199e+00
  -1.308377e+02  -3.591715e+00
  -5.083755e+01  -5.823375e+01
   1.410794e+01  -3.327040e+01
   4.528225e+01   1.138829e+00
  -6.753122e+00   1.375906e+01
  -7.423764e+01  -5.990571e+00
  -2.086830e+01  -9.756245e+01
   8.528435e+01  -1.476729e+02
   1.659079e+02  -1.973082e+01
   1.007827e+02   1.399533e+02
   4.781807e+01   1.769792e+02
  -7.280185e+01   1.148303e+02
  -7.002679e+01   4.547458e+01
  -1.592192e+01  -7.195286e+01
   4.650923e+00  -9.929667e+01
   3.546915e+01   1.302404e+00
   6.586247e+01   1.271883e+01
   3.307861e+00  -5.887293e+00
  -1.073772e+01  -5.000511e+01
   1.566822e+01   2.110216e+01
   1.262599e+01   7.486629e+01
   5.432578e+01   1.000770e+02
  -1.323291e+01   2.333677e+01
  -1.307957e+02  -9.238243e+00
  -1.198001e+02  -6.691245e+01
  -2.401222e+01  -4.846608e+01
   4.381278e+01  -1.612652e+01
   5.149501e+01  -2.680549e+01
   1.306196e+01   1.913377e+01
  -1.310467e+01   1.278944e+01
  -1.077215e+01   1.420942e+01
   3.382052e+01  -5.810360e+00
   1.441389e+01   3.575477e+00
  -5.922028e+01  -3.378134e+01
  -6.689739e+01  -3.647433e+01
   4.111806e+00  -7.447205e+01
   1.068859e+02  -1.113671e+02
   1.443259e+02  -8.466331e+01
   1.157643e+02   9.210973e+01
   2.012679e+01   1.342787e+02
  -9.490673e+01   9.741976e+01
  -1.456519e+02   5.389605e+00
  -5.564959e+01  -2.100110e+01
   5.032815e+00  -3.586225e+01
  -1.644642e+01  -5.205831e+00
  -1.557227e+01  -4.082570e+01
  -2.981815e+01  -5.379881e+01
  -2.571343e+00  -8.511723e+01
   2.016913e+01  -3.514851e+01
   1.020210e+02  -9.382517e+00
   6.464213e+01   9.503403e+01
   1.711755e+01   5.324228e+01
  -8.180802e+01   4.695547e+01
  -8.363258e+01  -1.330299e+01
  -2.341985e+01  -6.781541e+01
   8.724412e+01  -2.779956e+01
   7.803175e+01   1.789898e+01
   2.898085e+01   6.826481e+01
  -5.258023e+01   7.697359e+01
  -1.707956e+00   1.395415e+01
  -7.286807e+00  -1.638531e+01
   4.351737e+01  -1.809781e+01
   6.009825e+00   5.129910e+01
  -5.125615e+01  -6.507760e+00
  -6.580869e+01   4.476204e+01
  -6.278966e+01  -1.569213e+01
  -5.407124e+00  -9.217445e+01
   3.237416e+01  -5.673053e+01
   5.266768e+01  -2.762986e+01
   1.414235e+01   3.824029e+01
   2.984308e-01   3.428731e+01
  -5.310218e+01   5.410753e+00
   2.463298e+01  -3.647150e+01
  -8.633111e+00  -5.545017e+01
   6.048685e+01   1.864078e+01
   9.912474e+00   1.676103e+01
   2.666174e+01  -1.083659e+01
   5.714322e+00  -1.144119e+01
   3.489591e+01   2.116548e+01
  -2.559352e+01   3.315560e+01
  -2.624278e+01   5.159073e+01
  -2.056540e+01  -1.153164e+01
  -1.744424e+01  -6.669858e+01
   1.020770e+01  -8.358689e+01
   5.751094e+01  -5.912092e+01
   4.975655e+01   1.372305e+01
   1.981311e+01   6.298622e+01
  -5.349323e+01   1.184082e+01
  -8.936503e+01   1.144723e+01
  -4.840648e+01  -5.314249e+00
   2.192154e+01  -4.367584e+01
   4.140458e+01  -3.155676e+01
   2.719675e+01   1.845513e+01
  -4.428310e+01   2.676585e+01
  -1.957162e+01  -3.556338e+01
   1.362755e+01   1.337423e+01
   8.017049e+01   8.847476e+00
