
 $NMID
 id='ANONYMOUS ', fmtdat='(2E16.6)'
 volume=1.0
 tramp=1.0
 $END
   3.634859e+03  -6.537974e+01
   2.142856e+03   2.036516e+03
  -6.973930e+02   2.318028e+03
  -1.746084e+03   7.700878e+02
  -7.775516e+02  -4.648269e+02
   5.558190e+02  -4.905957e+02
   6.880001e+02   3.341865e+02
  -4.636277e+01   8.576272e+02
  -6.949337e+02   6.191264e+02
  -7.383181e+02  -4.163743e+01
  -3.520314e+02  -7.251311e+02
   2.161646e+02  -6.843630e+02
   5.251296e+02  -1.270737e+02
   3.260048e+02   5.614963e+02
  -1.737388e+02   5.748940e+02
  -4.750979e+02   2.176614e+01
  -2.128931e+02  -5.550755e+02
   2.100576e+02  -4.978944e+02
   4.388320e+02  -7.652706e+01
   3.418415e+02   2.534369e+02
   2.178666e+01   3.359764e+02
  -1.953630e+02   2.041628e+02
  -1.746393e+02   3.759605e+01
   1.085467e+02  -6.376070e+01
   3.606926e+02   7.252142e+01
   1.901331e+02   3.441673e+02
  -3.505200e+02   3.063001e+02
  -6.899853e+02  -5.506580e+01
  -4.214280e+02  -4.436622e+02
   2.821104e+02  -3.886789e+02
   5.979053e+02  -2.654674e+01
   3.010939e+02   3.524144e+02
  -2.056973e+02   4.210714e+02
  -4.160452e+02   2.089933e+02
  -2.919507e+02  -1.576442e+02
  -6.983126e+01  -3.820122e+02
   1.807747e+02  -2.453334e+02
   1.630818e+02   1.466216e+02
  -1.206506e+02   4.348848e+02
  -3.746503e+02   6.352963e+00
  -2.559285e+02  -5.174936e+02
   2.601595e+02  -6.020222e+02
   4.991910e+02   3.074136e+00
   2.537338e+02   4.756362e+02
  -2.368356e+02   2.882176e+02
  -3.199381e+02  -2.344366e+02
  -4.372930e+00  -4.513531e+02
   4.275049e+02  -9.344800e+01
   4.706317e+02   3.440336e+02
   1.525004e+02   4.629332e+02
  -2.695151e+02   2.877615e+02
  -4.950703e+02  -6.197461e+01
  -3.298612e+02  -3.272370e+02
   1.359832e+02  -3.205433e+02
   3.395285e+02  -4.341983e+01
   2.049399e+02   1.616855e+02
  -1.023591e+02   1.383732e+02
  -1.521794e+02  -1.261876e+02
   1.499175e+02  -1.559376e+02
   2.804649e+02   8.434645e+01
   1.271864e+02   2.718092e+02
  -1.292932e+02   2.153618e+02
  -2.207607e+02   2.207232e+01
  -1.486834e+02  -4.487769e+01
   4.871239e+01  -1.174581e+02
   1.951539e+02  -2.779117e+02
   2.416951e+02  -1.742757e+02
   1.841689e+02   1.097252e+02
   8.568631e+01   3.501144e+02
  -6.920545e+01   3.256918e+02
  -1.656966e+02   8.281174e+01
  -1.838277e+01   3.781312e+01
  -4.013374e+01   5.011477e+01
  -1.700342e+02   1.166912e+02
  -2.436132e+02   7.272048e+00
  -1.297826e+02  -2.128569e+02
   8.089047e+01  -2.024441e+02
   1.644464e+02  -2.228005e+01
   1.617764e+02   1.699297e+02
   2.536689e+01   1.862812e+02
  -1.994157e+02   1.547575e+02
  -2.872522e+02  -1.201933e+02
  -1.612863e+02  -3.169930e+02
   8.634201e+01  -3.147045e+02
   1.757333e+02  -7.826930e+01
   1.575776e+02   1.108669e+01
   6.708179e+01  -5.518911e+01
   1.334671e+02  -5.468478e+01
   3.200361e+02   5.554069e+01
   2.606500e+02   2.380813e+02
   2.965472e+01   3.374003e+02
  -2.876673e+02   3.146579e+02
  -3.988714e+02   1.748810e+02
  -2.805818e+02  -7.933164e+01
  -5.184210e+01  -2.375394e+02
   8.934037e+01  -2.097911e+02
   6.647795e+01  -2.497248e+01
  -6.095343e+01   1.124168e+02
  -1.522621e+02  -2.486409e+01
  -6.852134e+01  -1.442129e+02
   1.396935e+02  -1.518832e+02
   1.479770e+02   3.794735e+01
  -1.221917e+01   1.313676e+02
  -1.430008e+02   3.808681e+01
  -1.211102e+02  -1.756239e+02
   3.555194e+01  -2.707594e+02
   1.654096e+02  -1.754220e+02
   2.842458e+02   1.240425e+01
   2.173874e+02   1.435377e+02
   1.093297e+02   2.114138e+02
  -4.331038e+01   1.481778e+02
  -1.448440e+02   2.493206e+01
  -4.606136e+01  -3.417389e+01
   5.725787e+01   1.387789e+01
   6.205682e+01   8.043202e+01
  -9.202946e+01   7.127889e+01
  -1.351680e+02  -1.832781e+01
  -6.533525e+01  -7.034669e+01
   1.096988e+02  -4.015255e+01
   5.877793e+01   4.051189e+01
  -9.267228e+01   4.247744e+01
  -2.233348e+02   2.769118e+01
  -1.881374e+02  -1.241844e+02
  -2.300577e+01  -2.007037e+02
   1.418121e+02  -1.857058e+02
   2.389641e+02  -1.213314e+02
   1.250253e+02   6.619597e+01
  -1.948378e+01   8.105625e+01
  -7.586956e+01   1.973720e+01
   5.752380e+01  -7.534946e+01
   1.508683e+02  -9.837550e+00
   2.095112e+02   1.252544e+02
   5.460486e+01   1.563602e+02
  -8.349407e+01   1.540525e+02
  -1.794918e+02   5.543201e+01
  -9.678314e+01   3.478765e+01
   9.774520e+00  -8.870189e+00
   7.717416e+00   2.008690e+01
  -5.959256e+01   9.435563e+01
  -1.020934e+02   3.037942e+01
  -1.690452e+02  -8.978713e+01
  -5.441433e+01  -1.844069e+02
   1.309124e+02  -1.504143e+02
   1.559329e+02  -2.626093e+00
   5.866040e+01   8.918472e+01
  -6.281963e+01   8.828244e+01
  -9.452354e+01   2.692598e+01
   1.803425e+01  -2.251469e+01
   4.896614e+01   1.628103e+01
  -1.755141e+01  -2.117867e+01
  -3.514387e+01  -9.504678e+00
  -5.499720e+01  -1.034132e+02
  -3.661906e+01  -1.153560e+02
   7.263265e+01  -1.128732e+02
   1.914011e+02  -4.829259e+01
   1.689343e+02   1.012483e+02
   4.895135e+01   1.538938e+02
  -6.168676e+01   1.318736e+02
  -1.115717e+02  -2.244990e+01
  -5.719790e+01  -8.595140e+01
  -4.470879e+00   6.299217e+00
  -5.100237e+01  -2.734731e+01
  -4.920391e+01   1.018237e+01
  -4.643795e+01  -7.570899e+00
   4.220122e+01  -4.744914e+01
   8.205747e+01  -2.214476e+01
   4.210097e+01   4.467604e+01
  -1.283042e+01   1.134872e+02
  -1.395964e+02   6.667863e+01
  -1.486157e+02   6.683562e+00
  -1.381631e+02  -1.683478e+02
   6.284913e+01  -1.894638e+02
   2.258695e+02  -5.259482e+01
   2.026269e+02   6.901010e+01
   7.018344e+01   1.275440e+02
  -7.351144e+00   8.355527e+01
  -6.577231e+01   7.903298e+01
  -6.624135e+01   3.180103e+01
  -4.382726e+01   6.205812e+01
  -9.277831e+01   4.721636e+01
  -5.426358e+01  -2.095222e+01
  -1.133602e+02  -1.351176e+02
  -3.565434e+01  -1.757544e+02
   5.742771e+01  -1.253786e+02
   1.676028e+02  -3.557368e+01
   1.059955e+02   9.705393e+01
   1.893043e+01   1.321262e+02
  -7.537470e+01   1.229676e+02
  -4.646074e+01  -3.380393e+01
  -2.369932e+01  -4.075479e+01
   5.365086e+01  -3.709661e+01
  -3.047515e+01   4.019253e+00
  -7.075750e+01  -4.632206e+00
  -2.160003e+00  -8.089344e+00
   7.848140e+01  -1.799797e+01
   1.192469e+02   3.205455e+01
   7.513610e+01   3.942082e+01
   4.736269e+01   5.688105e+01
  -8.973225e+01   4.449169e+01
  -1.082827e+02   9.638344e+00
  -3.361325e+01  -5.912628e+00
   5.027892e+01  -5.223291e+00
   4.270416e+01   6.640737e+00
   2.189877e+00   8.502592e+01
  -2.130947e+01   6.755017e+01
  -1.975491e+01  -2.212895e+01
  -1.975279e+01  -3.420660e+01
  -6.640966e+01  -3.192017e+01
  -9.558286e+01  -4.515948e+01
  -5.935091e+01   4.952847e+00
  -1.441011e+01  -9.032761e+01
   2.897874e+01  -7.584386e+01
   8.583400e+01  -1.128317e+02
   1.111477e+02  -1.342681e+00
   8.474400e+01   8.073691e+01
   1.166634e+01   8.151366e+01
  -7.994676e+01   7.252351e+01
  -7.323224e+01  -1.451182e+01
   1.493083e+01  -5.822068e+01
   1.164475e+02   2.869992e+01
   5.833183e+01   6.095224e+01
  -4.745736e+01   8.577495e+01
  -1.674349e+02   3.559745e+01
  -1.663859e+02   1.004923e+01
  -6.927115e+01  -9.746116e+01
   5.647329e+01  -4.672736e+01
   3.561139e+01   5.747007e+00
  -4.380582e+01   2.166329e+01
  -8.574226e+01   8.924373e+00
  -1.997154e+01  -6.331504e+01
   7.233578e+01  -9.464243e+01
   1.386630e+02  -2.245704e+01
   1.279050e+02   6.974470e+01
   5.902367e-01   1.308674e+02
  -5.772417e+01   1.051454e+02
  -5.874988e+01   4.972453e+00
  -2.324858e+01  -4.307686e+01
  -6.959048e+00  -6.470864e+01
   1.640043e+01   5.373886e+00
   3.786343e+01   8.339694e+00
  -1.988793e+01  -2.893168e-02
  -5.242820e+01  -1.121241e+01
  -2.832040e+00   1.502960e+01
   6.843158e+00   5.918032e+01
   1.001261e+01   6.408922e+01
  -7.947561e+01   3.163564e+01
  -1.022981e+02  -3.776972e+01
  -1.201431e+02  -7.598703e+01
  -3.481520e+01  -4.407822e+01
   8.064029e+01  -1.951491e+01
   4.562627e+01   3.454136e+01
   9.845069e+00  -3.738883e+01
  -5.060741e+01  -3.457437e+01
  -1.602779e+01   1.803393e+01
  -2.806186e+01   2.198661e+01
  -2.422666e+01  -5.693156e+00
  -1.238054e+02  -5.523483e+00
  -7.168190e+01  -4.419968e+00
  -1.465567e+01  -3.392553e+01
   9.625570e+01  -9.266305e+01
   1.154422e+02  -4.401880e+01
   1.174347e+02   2.843112e+01
   3.277035e+01   1.134605e+02
  -5.428474e+01   1.346559e+02
  -1.042285e+02   2.601941e+01
  -4.106987e+01  -3.435157e+00
  -9.718868e+00   3.226940e-01
   2.153584e+01  -4.598101e-01
  -1.763584e+00  -3.810734e+01
  -3.995436e+01  -3.447503e+01
  -2.546475e+01  -3.563339e+01
   3.168534e+01  -5.893734e+01
   6.994264e+01  -1.685844e+01
   3.727522e+01   7.715072e+01
  -1.474463e+01   9.870756e+01
  -7.597762e+01  -1.257623e+00
  -9.377755e+01  -8.107969e+00
  -3.592428e+01  -1.031568e+02
   5.659837e+01  -3.911879e+01
   6.006807e+01   4.117938e+01
   4.008501e+01   5.807985e+01
  -3.777150e+00   6.601516e+01
  -4.205675e+01   1.866044e+01
   2.643298e+01  -9.963000e+00
   1.984863e+01   4.939917e+00
   1.142356e+00   2.336823e+01
  -5.582412e+01   5.937159e+01
  -9.054836e+01   6.250589e+01
  -2.836076e+01   2.720713e+01
   1.154151e+01  -5.781763e+01
   1.855267e+01  -5.226707e+01
   6.483872e+01   1.739221e+01
   1.889681e+01   5.286293e+01
  -2.772819e+01   5.657046e+00
  -1.799910e+00  -1.317162e+01
  -5.092930e+01  -3.292852e+01
   6.996070e+00  -3.607260e+01
   1.063345e+01   1.106375e+01
   1.622772e+01   4.638709e+01
   4.047070e+00   2.175951e+01
  -3.287340e+01   2.067274e+01
   5.318935e+00  -2.321542e+01
  -4.694746e+01   3.791695e+01
  -2.878166e+01   6.787005e+01
  -2.745486e+01   8.623559e+00
  -5.471709e+01  -5.531004e+01
   2.198285e+01  -2.607012e+01
   5.685626e+01  -1.069816e+01
   5.688104e+01   1.080966e+01
   1.141830e+01   2.564269e+01
  -6.323987e+01   5.150724e+01
  -1.092434e+02  -2.924406e+01
   3.926708e+00   1.566931e+01
   3.594188e+00  -3.175604e+00
   6.325712e+01   6.252486e+00
  -1.982228e+00  -4.241781e+01
  -3.570499e+01  -3.055721e+01
  -2.574897e+00  -7.688896e+00
   1.492763e+01  -3.204505e+01
   7.472151e+01  -2.807016e+01
