
 $NMID
 id='ANONYMOUS ', fmtdat='(2E16.6)'
 volume=1.0
 tramp=1.0
 $END
  -3.841230e+03   5.189409e+01
  -2.141451e+03  -2.158419e+03
   6.418612e+02  -2.301041e+03
   1.777411e+03  -7.647376e+02
   7.946201e+02   5.158741e+02
  -5.322315e+02   5.483847e+02
  -7.624789e+02  -3.428425e+02
   4.629861e+01  -8.568480e+02
   6.308017e+02  -6.525685e+02
   7.671858e+02  -4.559280e+00
   4.122701e+02   7.298391e+02
  -2.112141e+02   6.791810e+02
  -4.825627e+02   1.089897e+02
  -3.329064e+02  -6.222611e+02
   1.887051e+02  -6.387395e+02
   5.162218e+02  -3.322237e+00
   1.949035e+02   5.662803e+02
  -2.496959e+02   5.135207e+02
  -4.694839e+02   6.730198e+01
  -3.021831e+02  -2.765518e+02
  -3.602902e+01  -3.575547e+02
   1.658749e+02  -2.065086e+02
   2.155841e+02  -1.009385e+01
  -1.241906e+02   6.195529e+01
  -3.689566e+02  -7.015002e+01
  -1.677568e+02  -3.650942e+02
   3.774484e+02  -3.458638e+02
   6.385444e+02   1.687701e+01
   4.061031e+02   4.595164e+02
  -2.757112e+02   3.925344e+02
  -6.179466e+02  -7.470750e+01
  -2.876005e+02  -3.814987e+02
   1.948696e+02  -4.558766e+02
   4.701740e+02  -2.039008e+02
   3.413083e+02   1.948470e+02
   9.739291e+01   4.219049e+02
  -1.395625e+02   1.825710e+02
  -1.536893e+02  -1.625116e+02
   1.203857e+02  -3.713602e+02
   4.231328e+02  -6.468095e-01
   2.950246e+02   5.849744e+02
  -2.729852e+02   6.130463e+02
  -5.671378e+02   1.048701e+00
  -2.249044e+02  -5.026493e+02
   2.632572e+02  -3.044596e+02
   3.152815e+02   2.681896e+02
  -6.110802e+01   4.782361e+02
  -4.589282e+02   1.503638e+02
  -4.985024e+02  -3.403766e+02
  -1.540943e+02  -4.775210e+02
   3.380093e+02  -2.818718e+02
   5.566762e+02   5.604080e+01
   3.459837e+02   3.359362e+02
  -1.481924e+02   3.894690e+02
  -4.017393e+02   6.330357e+01
  -2.128732e+02  -1.493722e+02
   8.098578e+01  -1.219945e+02
   1.589978e+02   1.110755e+02
  -1.748766e+02   1.524814e+02
  -3.442460e+02  -5.332134e+01
  -1.428644e+02  -2.254146e+02
   1.662238e+02  -1.905634e+02
   2.658559e+02  -8.848685e+01
   1.786120e+02   4.954529e+01
  -3.679150e+01   1.550996e+02
  -1.937544e+02   2.272348e+02
  -2.533671e+02   2.082659e+02
  -2.642740e+02  -1.085396e+02
  -1.085320e+02  -3.792697e+02
   1.060484e+02  -3.364015e+02
   9.169301e+01  -7.796227e+01
   2.597563e+01  -8.067918e-01
   3.030108e+00  -7.236680e+01
   2.067497e+02  -1.493504e+02
   2.071159e+02   2.108175e+01
   1.567104e+02   2.106082e+02
  -3.271433e+01   2.032124e+02
  -1.624340e+02   3.054891e+01
  -1.453127e+02  -1.690642e+02
  -1.346572e+01  -2.290609e+02
   2.182579e+02  -1.114528e+02
   2.982586e+02   1.353717e+02
   1.366732e+02   3.175387e+02
  -9.842609e+01   2.626560e+02
  -2.171173e+02   8.039549e+01
  -1.243199e+02  -3.148959e+01
  -5.689337e+01   3.884988e+01
  -1.827872e+02   5.525054e+01
  -3.528349e+02  -6.166205e+00
  -2.890974e+02  -2.345167e+02
   6.954265e-01  -3.356944e+02
   2.860392e+02  -3.399171e+02
   3.946014e+02  -1.758932e+02
   2.932108e+02   7.263781e+01
   8.555401e+01   2.428087e+02
  -8.794936e+01   2.014312e+02
  -6.719917e+01   4.428090e+01
   6.389101e+01  -9.929289e+01
   1.846488e+02   8.649077e+00
   3.411892e+01   1.608239e+02
  -1.382192e+02   1.615373e+02
  -1.486600e+02  -4.028622e+01
   2.221027e+00  -1.587119e+02
   1.139686e+02  -2.471520e+01
   1.708651e+02   1.543790e+02
   1.314042e+01   2.775179e+02
  -1.789552e+02   1.793503e+02
  -2.386404e+02  -5.615205e+01
  -2.160925e+02  -1.591904e+02
  -1.142195e+02  -1.862765e+02
   1.026394e+02  -1.086467e+02
   1.024058e+02  -4.763693e+01
   8.347731e+01   2.068651e+01
  -4.589631e+01  -3.771901e+01
  -4.626194e+01  -1.112865e+02
   9.965203e+01  -1.078146e+02
   1.473477e+02   4.011450e+01
   7.190172e+01   4.704029e+01
  -4.670560e+01   1.780866e+01
  -4.018506e+01  -6.844234e+01
   1.021403e+02  -8.087272e+01
   2.517817e+02  -2.918704e+01
   1.834665e+02   1.183542e+02
   9.016698e+01   2.295615e+02
  -1.372947e+02   2.593205e+02
  -2.210488e+02   1.364758e+02
  -1.726026e+02  -4.713010e+01
   7.881796e+00  -1.266727e+02
   3.963869e+01  -1.985689e+01
  -3.629885e+01   8.077444e+01
  -1.879894e+02   2.744957e+01
  -1.851475e+02  -6.192846e+01
  -5.830842e+01  -1.861802e+02
   8.067644e+01  -1.141810e+02
   1.558733e+02  -2.973039e+01
   5.430187e+01  -1.591257e+00
   2.217788e-01   1.252734e+01
  -7.920683e+00  -5.680897e+01
   6.789127e+01  -7.041275e+01
   1.754329e+02  -4.601597e+01
   1.963787e+02   8.324003e+01
   3.178191e+01   1.819543e+02
  -1.720510e+02   1.791745e+02
  -1.458373e+02   1.217710e+01
  -6.200049e+01  -1.236660e+02
   2.643004e+01  -6.518127e+01
   9.278202e+01  -2.517147e+01
   4.565605e+01   3.603682e+01
  -1.187311e+01   1.980546e+01
   5.693705e+00  -1.198397e+01
   2.977402e+01  -2.875645e+01
   6.015656e+01   5.820243e+01
   1.004619e+01   2.079893e+02
  -1.238543e+02   1.098218e+02
  -1.782806e+02   2.006620e+01
  -1.787417e+02  -1.117304e+02
  -6.970187e+01  -2.082929e+02
   1.062283e+02  -1.293190e+02
   1.178270e+02  -2.250394e+01
   6.100821e+01   5.075416e+01
  -1.189513e+01   2.335174e+01
   2.840176e+01   4.913131e+00
   4.486122e+01  -4.115137e+01
   5.533128e+01   4.140470e+01
  -4.057744e+01   4.881605e+01
  -6.092388e+01   5.448066e+01
  -4.556567e+01  -2.865272e+01
   3.079620e+01  -7.503170e+01
   8.893151e+01  -6.497025e+01
   2.111051e+02   2.016771e+01
   9.117043e+01   1.381945e+02
  -6.524090e+01   1.980894e+02
  -2.281556e+02   7.492659e+01
  -1.681711e+02  -5.887287e+01
  -1.140675e+02  -1.645739e+02
   6.404569e+01  -1.183033e+02
   1.049008e+02  -7.266317e+01
   9.299165e+01  -4.395094e+01
   4.851457e+01  -9.296263e+01
   5.748407e+01  -6.657014e+01
   9.811845e+01   3.863913e+00
   1.025308e+02   1.298947e+02
  -6.178110e+00   1.527772e+02
  -8.096407e+01   1.252672e+02
  -1.554078e+02   2.553777e+01
  -1.246266e+02  -8.100684e+01
   1.299998e+00  -1.567789e+02
   7.616739e+01  -9.706974e+01
   3.685308e+01  -1.506116e+01
  -1.298371e+01  -4.232108e-01
  -3.885553e+01   6.940994e+01
   2.775380e+01   1.299246e+01
   8.052935e+01  -3.893099e+00
   6.989162e+01   1.380309e+01
  -5.094147e+01   2.732887e+01
  -1.550661e+02  -8.154036e+00
  -9.229991e+01  -3.154866e+01
  -3.712676e+01  -1.063677e+02
   8.548351e+01  -4.554635e+01
   1.280959e+02   1.171244e+01
   3.164220e+01  -2.893068e+01
  -4.636601e+01   2.957952e+01
  -4.398891e+01   2.668764e+01
  -4.524837e+01  -7.166124e+01
   3.990747e+01  -5.610286e+01
   2.750407e+01   1.502422e+01
   6.028852e+01   4.727076e+01
   1.405688e+01   4.019548e+01
   5.585337e+01   8.604165e+00
   7.285208e+01   9.053684e+00
   1.188243e+01   5.946307e+01
  -1.955715e+01   1.252559e+02
  -1.147701e+02   1.206337e+02
  -1.410957e+02   4.811052e+01
  -1.044347e+02  -1.376183e+02
   2.357096e+00  -1.314894e+02
   4.350395e+01  -4.777842e+01
   3.782938e+01   3.150203e+01
  -2.249416e+00   1.185029e+01
  -1.210347e+02  -2.481924e+01
  -8.105997e+01  -1.059546e+02
   5.198423e+01  -8.562411e+01
   1.507210e+02  -4.519175e+01
   1.144088e+02   3.799930e+01
   3.538716e+01   9.606962e+01
  -7.727547e+01   2.494587e+01
  -2.871386e+01   1.308898e+01
   2.155668e+01  -2.542531e+01
   5.880510e+01  -6.912956e+00
  -1.221149e-01   8.677412e+01
  -8.023189e+01   1.118246e+02
  -1.401742e+02   6.748345e+01
  -1.115997e+02  -1.008651e+02
   1.389499e+00  -1.606186e+02
   9.000913e+01  -1.619628e+02
   9.816933e+01   1.005187e+01
   2.728414e+01   8.474954e+01
   1.774539e+01   8.134943e+01
  -7.522863e+01   3.185785e+01
  -5.952225e+01  -2.754223e+01
  -8.681407e+00  -6.743798e+01
   6.474930e+01   4.464569e+01
  -4.290249e+01   1.601987e+01
  -5.271804e+01  -4.155475e+01
  -1.991579e+01  -8.403855e+01
   3.612574e+01  -5.239456e+01
   1.504478e+02   5.556290e+01
   9.009820e+01   5.256043e+01
   9.073964e+00   3.042827e+01
  -7.157672e+01   6.469918e+00
  -7.372350e+01   1.880782e+01
   2.155023e+01   1.442097e+01
   3.245110e+01  -3.431069e+01
   9.037529e+00  -2.720350e+01
   9.352908e+00   1.717117e+01
   6.306475e+00  -2.236859e+01
   7.066709e+01  -4.349164e+01
   6.098646e+01   5.962222e+01
  -7.931439e+00   5.400307e+01
  -9.504288e+01   1.179313e+02
  -1.517258e+02   7.352466e+01
  -1.077716e+02  -6.454456e+01
  -6.160909e+00  -1.641893e+02
   4.107717e+01  -1.105130e+02
   7.783744e+01  -1.155890e+01
   6.542311e+01  -5.187439e+01
   8.227158e+00   4.678076e+00
   6.277872e+00   2.937932e+01
  -7.096271e+00   3.014063e+01
   6.925418e+01  -2.053517e+00
   5.756707e+01   6.076357e+01
  -1.312987e-02   6.703861e+01
  -7.789410e+01  -2.361092e+01
  -6.529710e+01  -5.910300e+01
   1.756218e+01  -9.657083e+01
   6.593551e+01  -1.417023e+01
   7.956027e+01   2.905249e+01
   1.183093e+01   1.238790e+02
  -5.874475e+01   1.927993e+01
  -1.100021e+02   4.124195e+01
  -7.038245e+01  -6.385005e+01
  -1.091157e+01  -7.036622e+01
   4.505539e+00  -3.737411e+01
  -3.884359e+01  -1.799861e+01
  -6.777983e+01   2.311499e+01
   6.880209e+00  -2.760934e+01
   9.738893e+01  -3.272630e+01
   9.241650e+01  -6.893932e+01
   3.868864e+01   3.745375e+01
   2.288286e+01   8.320146e+00
  -7.290903e+01   9.563540e+01
  -1.715695e+01  -6.738278e-01
   2.445895e+01  -5.130437e+01
   2.080128e+01  -2.063866e+01
   1.419527e+01   7.181452e+01
   2.878221e+01   4.213486e+01
   4.582782e+00   1.253581e+01
  -2.767317e+01  -2.510755e+01
  -6.480803e+01  -1.100128e+01
  -1.411268e+00  -1.488417e+01
  -3.280562e+01   2.919209e+01
   1.048413e+01  -7.672579e+00
  -3.851288e+00   1.071622e+00
   2.203075e+01  -2.506261e+01
  -2.337353e+01   4.193052e+00
   3.817207e+01   6.972204e+01
  -2.548875e+01   2.530474e+01
  -4.196853e+01  -1.448413e+00
  -4.682445e+01  -1.219205e+01
  -8.421856e+00  -4.305984e+01
   3.857044e+01  -3.041146e+01
   8.604033e+01   3.845699e+01
   3.345521e+01   1.164249e+01
  -6.085936e+01   1.834912e+01
  -4.290836e+01  -2.254118e+01
  -5.110326e+01   3.377977e+01
   7.191338e+01  -2.270369e+01
  -3.403854e+00   1.448817e+01
   1.692564e+01   1.449101e+01
  -1.073932e+02   2.003517e+01
