
 $NMID
 id='ANONYMOUS ', fmtdat='(2E16.6)'
 volume=1.0
 tramp=1.0
 $END
  -4.860218e+03   5.608080e+01
  -2.544112e+03  -2.888941e+03
   8.556637e+02  -2.869941e+03
   2.226970e+03  -7.908481e+02
   9.929140e+02   8.735724e+02
  -8.057620e+02   7.120803e+02
  -9.680633e+02  -5.499173e+02
  -1.790035e+01  -1.218636e+03
   9.576221e+02  -7.938262e+02
   1.058744e+03   1.079013e+02
   4.264783e+02   9.929702e+02
  -2.839101e+02   1.011075e+03
  -7.402957e+02   1.359667e+02
  -3.673689e+02  -7.975146e+02
   3.462663e+02  -8.800554e+02
   6.868698e+02   3.626236e+01
   2.405213e+02   8.091561e+02
  -3.920623e+02   6.497878e+02
  -6.313070e+02   1.165861e+02
  -4.218461e+02  -4.160347e+02
  -1.286119e+01  -5.009083e+02
   2.454236e+02  -2.852052e+02
   2.483465e+02  -9.108343e+00
  -1.195298e+02   1.084622e+02
  -4.383565e+02  -1.112193e+02
  -2.338437e+02  -4.678880e+02
   4.281687e+02  -4.881436e+02
   9.210716e+02   6.348136e+01
   4.835049e+02   6.332029e+02
  -4.340648e+02   5.315096e+02
  -7.983637e+02  -3.611045e+01
  -3.901109e+02  -5.506647e+02
   3.035554e+02  -5.746742e+02
   6.109999e+02  -2.307673e+02
   5.084345e+02   2.592066e+02
   8.487269e+01   5.178046e+02
  -2.147700e+02   3.121742e+02
  -1.727074e+02  -2.389727e+02
   1.733832e+02  -5.174097e+02
   5.289230e+02  -1.394730e+01
   2.853781e+02   7.167293e+02
  -3.443686e+02   7.691905e+02
  -6.952590e+02  -5.856916e+00
  -2.817568e+02  -6.263243e+02
   3.164981e+02  -4.031505e+02
   4.684956e+02   3.214439e+02
  -3.562741e+01   6.158731e+02
  -6.000712e+02   1.061494e+02
  -6.558555e+02  -4.511161e+02
  -1.415350e+02  -6.318552e+02
   4.391792e+02  -4.118919e+02
   6.862064e+02   6.813119e+01
   4.268416e+02   4.527649e+02
  -1.578232e+02   4.037377e+02
  -4.664768e+02   2.267673e+01
  -2.727315e+02  -2.202652e+02
   1.297319e+02  -1.533711e+02
   1.957707e+02   1.367330e+02
  -1.957509e+02   2.224126e+02
  -3.694278e+02  -7.623336e+01
  -1.395311e+02  -3.454683e+02
   1.768949e+02  -2.484777e+02
   3.457581e+02  -5.121427e+01
   2.066553e+02   9.226680e+01
  -3.652732e+01   2.349761e+02
  -1.529000e+02   3.688623e+02
  -3.757749e+02   2.542383e+02
  -3.204213e+02  -1.244301e+02
  -7.149124e+01  -4.788846e+02
   9.440881e+01  -4.461241e+02
   1.654311e+02  -1.121162e+02
   2.980556e+01   3.996591e+01
  -1.042997e+01  -7.461056e+01
   1.797164e+02  -1.330890e+02
   3.021543e+02   1.044083e+01
   1.959329e+02   2.771546e+02
  -4.697491e+01   3.074593e+02
  -2.630296e+02   2.864101e+00
  -2.323749e+02  -2.407839e+02
   6.834649e+01  -3.294700e+02
   2.561277e+02  -1.583303e+02
   3.932336e+02   1.536832e+02
   2.006498e+02   3.678519e+02
  -9.254922e+01   3.311861e+02
  -2.142757e+02   1.223755e+02
  -1.518619e+02   4.819380e+00
  -1.118637e+02   2.131495e+01
  -2.332702e+02   7.240555e+01
  -4.565634e+02  -2.561725e+01
  -3.863568e+02  -3.352520e+02
   2.632732e+00  -4.478850e+02
   3.747294e+02  -4.294948e+02
   5.279993e+02  -2.264737e+02
   3.399736e+02   9.313287e+01
   1.037045e+02   2.770385e+02
  -1.392618e+02   2.807805e+02
  -9.142512e+01   1.085690e+01
   1.131027e+02  -1.224705e+02
   2.303684e+02  -1.359256e+01
   5.002276e+01   2.238115e+02
  -1.578292e+02   2.107593e+02
  -1.860467e+02  -3.632696e+01
   8.471103e+00  -2.000124e+02
   2.270470e+02  -6.786785e+01
   1.927421e+02   2.473401e+02
  -4.862552e+01   3.645674e+02
  -2.576926e+02   1.751990e+02
  -3.082204e+02  -6.401920e+01
  -2.739778e+02  -2.235240e+02
  -1.196943e+02  -2.587124e+02
   1.034582e+02  -1.704054e+02
   2.224118e+02  -2.512675e+01
   8.394151e+01   6.528542e+01
  -7.665667e+01  -4.592648e+01
  -9.488472e+01  -1.435491e+02
   1.319172e+02  -1.166104e+02
   1.778318e+02   3.052491e+01
   5.430069e+01   8.060957e+01
  -7.692966e+01   6.108096e+01
  -5.231720e+01  -8.284067e+01
   1.006579e+02  -5.100623e+01
   3.025837e+02  -1.359740e+01
   2.756836e+02   1.208516e+02
   2.540065e+01   2.625693e+02
  -2.124706e+02   2.678244e+02
  -3.008870e+02   1.311547e+02
  -1.643915e+02  -3.516519e+01
  -1.164430e+01  -1.113369e+02
   1.016222e+02  -1.915482e+01
  -3.869506e+01   1.269637e+02
  -2.052554e+02   6.439797e+01
  -2.290989e+02  -9.777812e+01
  -1.102698e+02  -2.001810e+02
   6.948501e+01  -1.651710e+02
   1.822627e+02  -5.477539e+01
   8.141426e+01   9.442783e+01
  -2.502819e+01  -2.339575e+01
  -4.340267e+01  -8.971167e+01
   5.040512e+01  -1.179347e+02
   1.967673e+02  -4.946295e+01
   2.085250e+02   1.138176e+02
   4.638960e+01   2.246700e+02
  -1.790079e+02   1.764601e+02
  -2.293779e+02   5.237245e+00
  -6.984064e+01  -1.063730e+02
   5.054376e+01  -1.592046e+02
   7.230750e+01  -4.954357e+01
   1.738439e+01   3.751974e+01
  -4.735887e+01   2.021481e+01
   1.774324e+01  -5.046293e+00
   5.005958e+01   5.866546e+01
   6.543540e+01   8.431143e+01
   2.062661e+01   1.315623e+02
  -8.795924e+01   1.721266e+02
  -2.398829e+02   6.580465e+00
  -2.140698e+02  -1.635675e+02
  -2.207193e+01  -2.579158e+02
   1.212282e+02  -1.758023e+02
   1.012961e+02   1.220609e+00
   6.699639e+01   5.684024e+01
   1.138634e+01   3.117041e+01
   4.683677e+01   3.242801e+00
   7.958376e+01  -1.691638e+01
   3.646470e+01   8.048955e+01
  -7.416948e+01   1.312631e+02
  -8.721655e+01   4.953619e+01
  -9.800087e+01  -3.382785e+01
  -2.078378e+01  -1.147822e+02
   1.344932e+02  -9.602870e+01
   1.890414e+02   2.096427e+01
   1.404782e+02   2.151217e+02
  -1.009766e+02   2.522704e+02
  -2.731982e+02   1.339433e+02
  -2.424003e+02  -9.190098e+01
  -1.296448e+02  -1.723871e+02
   5.688874e+01  -1.612196e+02
   7.228484e+01  -1.125423e+02
   7.412958e+01  -9.345919e+01
   4.859734e+01  -7.127572e+01
   8.905023e+01  -1.151931e+02
   1.423212e+02   5.531768e+01
   1.233295e+02   1.856772e+02
   2.753477e+01   1.944781e+02
  -8.463809e+01   1.764962e+02
  -1.645754e+02   1.686275e+01
  -1.309967e+02  -1.086901e+02
  -4.623402e+01  -1.543976e+02
   6.544058e+01  -8.849558e+01
   5.399989e+01  -4.422121e+01
   3.750164e+00   7.123247e+01
  -1.937620e+01   8.491772e+01
   2.750160e+01   1.069160e+01
   9.872980e+01   1.067650e+01
   2.961783e+01   3.838886e+01
  -7.819628e+01   1.963531e+01
  -1.588174e+02  -3.807808e+00
  -1.201259e+02  -4.933383e+01
  -1.669046e+01  -8.849066e+01
   9.736311e+01  -8.505521e+01
   1.472588e+02  -3.102922e+01
   3.156797e+01   5.190387e+01
  -8.743444e+01   2.383251e+01
  -6.592839e+01  -3.974651e+01
   1.905454e+01  -3.407993e+01
   4.795801e+01  -3.930096e+01
   5.568270e+01   3.436515e+01
   5.536435e+01   5.809729e+01
   2.783209e+01   4.681594e+01
   5.327642e+01  -8.640569e+00
   1.044274e+02  -1.943757e+01
   1.423415e+01   9.626863e+01
  -5.398230e+01   1.240024e+02
  -1.407378e+02   1.467073e+02
  -1.750217e+02   1.305320e+01
  -1.534112e+02  -1.374520e+02
   6.343444e-01  -1.561760e+02
   5.726727e+01  -8.268875e+01
   5.268281e+01  -2.764125e+01
  -7.119875e+01   3.256253e+01
  -1.516958e+02  -4.013441e+01
  -1.144780e+02  -9.275779e+01
   5.998649e+01  -8.878549e+01
   1.757851e+02  -3.216720e+01
   1.926563e+02   2.814010e+01
   4.029704e+01   8.154645e+01
  -5.881959e+01   8.345970e+01
  -1.094879e+01   2.153926e+01
   3.766482e+01  -2.645050e+01
   9.653157e+01   2.780711e+01
   4.800491e+01   1.757410e+02
  -8.764532e+01   1.404374e+02
  -1.775961e+02   7.259911e+01
  -1.251070e+02  -7.206956e+01
  -4.957995e+01  -2.350151e+02
   1.103375e+02  -1.304295e+02
   1.613094e+02   6.295524e+00
   4.161533e+01   1.515187e+02
   3.327832e+01   7.584258e+01
  -2.536541e+01  -1.703289e+01
  -5.171299e+01  -6.174344e+01
  -2.381362e+01   1.980554e+00
  -9.921519e+00   3.120106e+00
  -2.528664e+00  -7.953142e-01
  -5.921804e+01  -6.740171e+01
  -2.996959e+01  -1.415446e+02
   5.289867e+01  -5.527267e+01
   1.696275e+02   5.944999e+01
   1.377864e+02   1.169086e+02
   3.245890e+01   2.098694e+01
  -7.222431e+01   1.534752e+01
  -9.771480e+01   5.747403e+00
  -1.118335e+01   3.120304e+01
   6.337780e+01  -3.923091e+01
   1.953808e+01  -1.191743e+01
  -1.429476e+01  -5.914829e+00
   5.567738e+00   6.925428e+00
   5.318489e+01  -7.002682e+00
   1.107734e+02   7.106433e+01
   1.558446e+01   9.824716e+01
  -1.274455e+02   1.103422e+02
  -2.067636e+02   4.323397e+01
  -1.139096e+02  -6.149099e+01
  -2.493819e+01  -1.718406e+02
   7.258854e+01  -9.484406e+01
   1.043378e+02  -7.411332e+01
   9.581497e+01   3.353897e+01
   3.321708e+01   4.745622e+01
   4.748541e+01   8.812400e+00
  -7.718644e+00   8.118629e+00
   1.164861e+01   3.752102e+01
   1.720978e+01   1.140924e+02
  -1.926577e+01   4.902667e+01
  -6.851765e+01  -1.303124e+01
  -4.285039e+01  -1.187652e+02
  -3.609418e+00  -1.304676e+02
   7.594142e+01  -5.419740e+01
   9.501565e+01   7.641180e+01
   3.868939e+01   9.280370e+01
  -8.436393e+01   6.339731e+01
  -7.318864e+01   1.014902e+01
  -2.379798e+01  -5.458337e+01
   2.640051e+01  -3.409736e+01
   2.782258e+01  -1.248427e+01
  -4.628350e+01  -6.186236e+00
  -6.311407e+01   1.564451e+00
  -4.287508e+01  -6.803257e+00
   6.361651e+01  -6.591889e+01
   1.268884e+02  -3.989081e+01
   7.420886e+01   3.912595e+01
  -4.533511e+00   8.974933e+01
  -4.938205e+01   4.730150e+01
  -4.487673e+01  -3.203899e+00
  -1.228097e+01  -6.181695e+01
   8.379092e+00  -1.719799e+00
   6.122634e+01   1.137566e+01
   5.908064e+00   4.481374e+01
   2.672530e+01   1.951130e+01
  -2.705563e+01  -1.781314e+01
  -1.546958e+01  -1.956096e+01
  -2.139720e+01   1.571447e+01
   2.390198e+01   3.625605e+01
  -2.926441e+01   2.143893e+01
   1.689270e+01  -7.437147e+01
   7.814870e+00  -3.971677e+01
   4.886088e+01  -2.144221e+01
   3.068539e+01   4.063942e+01
  -1.867593e+01   6.650279e+01
  -3.653307e+01  -1.402572e+01
  -6.313529e+01  -6.813756e+01
  -1.770785e+01  -6.310434e+01
   7.226742e+01  -2.937006e+01
   1.157492e+02   1.337026e+01
   1.054750e+02   5.493091e+01
  -4.325302e+01   5.419328e+01
  -1.058625e+02   3.533506e+01
  -4.200609e+01  -1.785926e+01
   3.910987e+01  -7.145863e+00
   7.686595e+01   1.355897e+01
  -1.269747e+01   1.619865e+01
  -9.350757e+01   1.864734e+01
