
 $NMID
 id='ANONYMOUS ', fmtdat='(2E16.6)'
 volume=1.0
 tramp=1.0
 $END
   4.747621e+03   8.099791e+01
   2.521589e+03   3.176893e+03
  -8.902258e+02   3.076914e+03
  -2.319862e+03   8.368625e+02
  -9.130188e+02  -8.670730e+02
   8.554581e+02  -7.582710e+02
   1.034409e+03   5.266755e+02
  -1.528814e+01   1.266977e+03
  -9.377227e+02   7.893784e+02
  -9.854390e+02  -1.500736e+02
  -4.101623e+02  -9.802723e+02
   2.651963e+02  -9.904287e+02
   7.528510e+02  -6.767427e+01
   4.425750e+02   8.012726e+02
  -3.219978e+02   8.216945e+02
  -7.288467e+02  -2.397865e+01
  -2.204787e+02  -7.323205e+02
   4.177459e+02  -6.386858e+02
   6.468591e+02  -9.926836e+01
   3.974216e+02   4.079107e+02
  -2.279909e+01   4.910576e+02
  -2.941778e+02   2.774988e+02
  -2.907137e+02   3.614520e+01
   6.336571e+01  -1.575301e+02
   4.146832e+02   9.779330e+01
   2.478222e+02   4.477588e+02
  -4.678958e+02   5.051110e+02
  -9.260008e+02  -1.185854e+02
  -5.063674e+02  -6.075461e+02
   4.278898e+02  -5.742588e+02
   8.016081e+02   1.127210e+01
   3.236332e+02   5.116655e+02
  -3.066319e+02   5.493751e+02
  -6.007645e+02   2.200588e+02
  -4.403433e+02  -2.632936e+02
  -1.174808e+02  -4.853100e+02
   2.348184e+02  -3.645516e+02
   2.647393e+02   2.852637e+02
  -1.164483e+02   5.160269e+02
  -5.128180e+02   3.992975e+01
  -2.978768e+02  -7.487745e+02
   3.582295e+02  -8.124190e+02
   6.875577e+02  -2.482956e+00
   2.969241e+02   6.343077e+02
  -3.401713e+02   3.486820e+02
  -4.506866e+02  -3.512053e+02
   6.330349e+01  -6.114646e+02
   6.093961e+02  -1.791648e+02
   6.523748e+02   4.352068e+02
   1.798735e+02   6.103504e+02
  -4.126758e+02   3.943492e+02
  -6.922587e+02  -1.682768e+01
  -3.762387e+02  -3.924343e+02
   1.927898e+02  -3.578921e+02
   4.864249e+02  -4.848775e+01
   2.458490e+02   2.726761e+02
  -1.700356e+02   1.257897e+02
  -1.543884e+02  -1.769278e+02
   2.040355e+02  -2.417830e+02
   3.930168e+02   3.776122e+01
   1.307692e+02   3.156864e+02
  -2.751002e+02   2.663612e+02
  -3.319713e+02   6.133936e+01
  -1.362493e+02  -1.224230e+02
   3.299103e+01  -2.321322e+02
   1.868849e+02  -3.283951e+02
   3.026584e+02  -2.116340e+02
   3.436319e+02   1.121218e+02
   8.309907e+01   4.943561e+02
  -1.345425e+02   3.548747e+02
  -1.746851e+02   1.393267e+02
  -4.648213e+01  -2.465198e+01
  -3.442900e+01   6.003210e+01
  -1.787547e+02   1.289232e+02
  -3.176875e+02  -8.388029e+00
  -1.873391e+02  -2.619176e+02
   1.562351e+01  -2.778442e+02
   2.635925e+02  -4.737890e+01
   2.213320e+02   2.467318e+02
   1.423649e+01   3.206807e+02
  -2.756848e+02   1.136503e+02
  -3.524409e+02  -1.562252e+02
  -2.039666e+02  -3.737917e+02
   9.382966e+01  -3.172080e+02
   2.324519e+02  -9.943450e+01
   1.558025e+02   2.235184e+01
   8.323948e+00  -3.348229e+01
   2.472624e+02  -7.420200e+01
   4.391915e+02  -3.349047e+00
   3.598334e+02   2.795361e+02
   3.896517e+01   4.591610e+02
  -3.718748e+02   4.305105e+02
  -4.748969e+02   1.928934e+02
  -3.181580e+02  -1.145895e+02
  -5.730556e+01  -2.847135e+02
   1.371920e+02  -2.624497e+02
   1.328960e+02  -7.461854e+00
  -1.371614e+02   1.085515e+02
  -1.919582e+02   4.737711e+00
  -5.842900e+01  -2.198437e+02
   1.954324e+02  -2.047071e+02
   2.004942e+02   8.710191e+01
  -1.995484e+01   2.471560e+02
  -1.718902e+02   7.026330e+01
  -1.626819e+02  -2.655076e+02
   3.883188e+01  -3.529554e+02
   2.411517e+02  -1.541731e+02
   3.747595e+02   8.091523e+01
   3.015295e+02   2.055277e+02
   1.039620e+02   2.473609e+02
  -9.287768e+01   1.661275e+02
  -1.896641e+02   3.421583e+01
  -2.191987e+01  -4.850272e+01
   6.920951e+01   3.356900e+01
   5.952921e+01   1.257597e+02
  -1.116303e+02   1.337546e+02
  -2.100740e+02   3.675291e+00
  -5.714948e+01  -1.260097e+02
   6.318077e+01  -7.609027e+00
   6.209053e+01   2.682596e+01
  -1.394053e+02   1.076055e+02
  -2.299544e+02   9.872261e+00
  -2.627648e+02  -1.544733e+02
  -1.233752e+02  -2.714128e+02
   1.273165e+02  -2.376092e+02
   2.630989e+02  -1.077307e+02
   1.694812e+02   7.782533e+01
  -2.033851e+01   1.413547e+02
  -1.069022e+02   1.749718e+01
  -1.759486e+01  -8.078058e+01
   1.903745e+02  -6.660042e+01
   2.235056e+02   1.125877e+02
   6.373277e+01   1.785760e+02
  -6.578034e+01   1.446222e+02
  -1.472041e+02   2.209960e+00
  -9.388453e+01  -4.563035e+01
   2.052427e+01  -1.512684e+01
   3.147184e+01   8.297528e+01
  -3.643370e+01   1.204638e+02
  -1.788402e+02   2.432134e+01
  -2.333485e+02  -1.509190e+02
  -5.098222e+01  -2.330554e+02
   1.787477e+02  -1.991429e+02
   2.153287e+02  -3.940907e+00
   6.938295e+01   9.502448e+01
  -6.286086e+01   7.302672e+01
  -9.741879e+01   2.266362e+01
  -1.549443e+01  -4.250384e+01
   2.640443e+01  -4.090271e+00
  -8.469772e+00   6.789919e-01
  -6.717699e+01   2.703227e+01
  -9.084429e+01  -5.240778e+01
  -4.339207e+01  -1.716393e+02
   1.061127e+02  -1.914802e+02
   2.320560e+02  -3.630087e+01
   2.023937e+02   1.505052e+02
   6.102418e+01   2.500879e+02
  -1.202337e+02   1.945831e+02
  -1.178427e+02   2.069346e+01
  -4.219821e+01  -5.174930e+01
  -1.985560e+01  -8.400681e+01
  -6.246697e+01   2.435245e+01
  -7.474954e+01   4.712677e+00
  -2.893526e+01  -6.097931e+01
   2.618695e+01  -6.886134e+01
   8.981835e+01  -5.318653e+01
   9.857744e+01   1.311399e+01
   7.787633e+00   1.225720e+02
  -9.169574e+01   8.221883e+01
  -1.841329e+02  -7.699562e+01
  -1.053208e+02  -2.128635e+02
   1.000633e+02  -2.455050e+02
   2.491545e+02  -8.383305e+01
   2.698832e+02   9.016093e+01
   1.597181e+02   1.628464e+02
  -1.758152e+01   1.360359e+02
  -8.540551e+01   1.095723e+02
  -7.540196e+01   6.437399e+01
  -4.964768e+01   9.028400e+01
  -1.171684e+02   7.923454e+01
  -1.512587e+02  -1.882555e+01
  -8.799561e+01  -1.473969e+02
  -8.141125e+01  -2.188724e+02
   1.033093e+02  -1.906906e+02
   1.954305e+02  -4.818978e+01
   1.800183e+02   1.093510e+02
   3.296034e+01   1.496881e+02
  -6.891984e+01   8.582163e+01
  -3.901838e+01  -2.063489e+01
  -6.237842e+01  -1.001442e+01
   7.611448e+00  -1.175770e+01
  -3.345558e+01  -4.860412e+00
  -6.550943e+01  -1.854460e+01
  -2.840778e+01  -2.859434e+01
   1.034894e+02  -3.669154e+01
   1.589265e+02  -1.620213e+01
   1.797221e+02   5.541720e+01
   3.652910e+01   9.278767e+01
  -1.115050e+02   8.700364e+01
  -1.983420e+02   1.262811e+01
  -4.200682e+01  -4.353399e+01
   6.379870e+01  -5.554584e+01
   8.094546e+01   3.608954e+00
   1.654114e+01   5.241055e+01
  -3.787012e+01   7.589869e+01
  -8.865090e+01  -3.800864e+01
  -6.577172e+01  -4.162984e+01
  -4.682973e+01  -4.766316e+01
  -5.457939e+01  -1.330856e+01
  -4.852072e+01  -4.632383e+00
  -8.251111e+01  -7.098362e+01
   1.785153e+01  -1.584490e+02
   1.398724e+02  -1.282098e+02
   1.381697e+02  -5.807837e+01
   1.213590e+02   9.219038e+01
   1.918924e+01   1.664546e+02
  -5.308542e+01   1.222291e+02
  -5.108930e+01   1.083011e+01
   2.587308e+01  -2.781891e+01
   1.140367e+02   4.842664e+01
   8.148170e+01   1.167714e+02
  -7.069312e+01   1.195972e+02
  -1.684959e+02   3.664273e+01
  -1.514182e+02  -2.767305e+01
  -1.169414e+01  -9.436890e+01
  -1.193837e+00  -1.012036e+02
   2.930890e+01   9.597580e+00
  -2.366703e+01   4.412629e+01
  -7.139602e+01  -2.336936e+01
  -3.997213e+01  -8.671178e+01
   7.141122e+01  -1.181011e+02
   1.781621e+02  -8.385160e+01
   1.261448e+02   8.079168e+01
   3.817040e+01   2.194844e+02
  -1.011243e+02   1.760777e+02
  -9.942498e+01   1.978488e+01
  -5.109057e+01  -1.213780e+02
   6.158262e+00  -1.446830e+02
   3.224636e+01  -3.105828e+01
   3.066549e+01   5.899322e+01
   3.691672e+01   2.884636e+01
   2.940277e+00  -4.778196e+01
   6.984255e+01   2.436684e+01
   9.268313e+01   6.156003e+01
   4.607848e+01   8.887071e+01
  -4.361492e+01   5.809343e+01
  -1.438181e+02  -3.855402e-01
  -1.313536e+02  -9.362344e+01
  -5.552762e+01  -3.950674e+01
   8.934478e+01  -3.694656e+01
   8.948853e+01  -1.333360e+01
   1.136631e+01  -1.143733e+01
  -5.113483e+01   1.059967e+01
  -5.651336e+01   3.053058e+00
   4.270566e+01   9.596607e+00
   2.311603e+01  -1.097817e+01
  -6.761143e+01  -5.002191e+00
  -1.232383e+02  -1.607310e+01
   6.121062e+00  -7.337321e+01
   1.196429e+02  -1.180075e+02
   1.547340e+02  -2.202682e+01
   9.618783e+01   6.082735e+01
   4.413224e+01   1.525365e+02
  -9.904295e+01   1.611257e+02
  -9.125805e+01   9.435814e+01
  -8.764380e+01  -2.956970e+01
  -3.309736e+01  -2.449244e+01
  -1.393842e+01  -1.481837e+01
   1.052631e+01   2.233374e+01
  -5.427866e+01  -1.823076e+01
  -6.074303e+01  -1.336800e+02
   4.019243e+01  -5.669177e+01
   7.607222e+01   4.679968e+01
   9.040211e+01   7.936096e+01
   3.250662e+01   1.013132e+02
  -6.989739e+01   3.106322e+01
  -1.317497e+02  -1.040409e+02
  -2.125873e+01  -7.845771e+01
   9.194665e+01  -5.493223e+01
   7.762301e+01  -7.157487e+00
   5.763948e+01   6.832744e+01
  -3.884483e+01   7.180542e+01
  -2.732614e+01   5.121521e+01
   5.697321e+01   9.508194e+00
   8.517642e+01  -2.622570e+01
  -1.765434e+01   4.772474e+01
  -5.840243e+01   4.634872e+01
  -1.059000e+02   4.525627e+01
  -6.170694e+01   6.941468e-01
  -1.028961e+00  -5.447943e+01
   6.493582e+01  -6.256085e+01
   7.007509e+01   9.651597e+00
   2.327155e+00   6.321358e+01
  -6.481970e+01   4.401482e+01
  -4.720308e+01  -5.196298e+01
   5.143580e+00  -5.315190e+01
   1.698017e+01  -9.369829e+00
   5.650123e+01   3.057448e+01
   2.957462e+01   4.014209e+01
   1.997773e+01   9.449377e+00
   4.237884e+01  -1.209177e+01
  -2.005813e+01   4.848388e+00
   3.167930e+00   3.572901e+01
  -2.845203e+01   2.506809e+01
  -5.300991e+00   6.118499e+00
  -2.147247e+01  -5.308759e+01
  -2.503099e+01  -8.326708e+01
   3.902912e+01  -1.030545e+01
   9.344015e+01   5.200351e+01
  -1.508521e+01   7.020095e+01
  -4.669258e+01   4.169639e+01
  -5.197726e+01   1.450645e+01
  -6.222130e+01  -6.051766e+01
   1.665148e+01  -2.752416e+01
   2.412872e+01  -1.557815e+01
  -5.528352e+00   2.593476e+01
  -4.122417e+01   1.416049e+01
   1.453349e+01  -5.261877e+01
  -8.688857e-01  -3.859431e+01
   1.007850e+02  -1.708437e+00
