
 $NMID
 id='ANONYMOUS ', fmtdat='(2E16.6)'
 volume=1.0
 tramp=1.0
 $END
  -4.650187e+03   5.675282e+01
  -2.567454e+03  -3.041006e+03
   8.378611e+02  -2.970670e+03
   2.361881e+03  -8.068753e+02
   9.817462e+02   8.367364e+02
  -8.162164e+02   6.980425e+02
  -9.671716e+02  -5.348994e+02
  -3.221209e+01  -1.269253e+03
   9.618057e+02  -8.551973e+02
   9.944734e+02   1.271224e+02
   4.248953e+02   8.972665e+02
  -3.528945e+02   9.922879e+02
  -7.296576e+02   6.490470e+01
  -4.327302e+02  -8.044964e+02
   3.395728e+02  -8.334665e+02
   6.879547e+02   6.274150e+01
   2.749253e+02   7.572033e+02
  -3.692687e+02   6.952150e+02
  -6.306402e+02   3.616967e+01
  -4.191283e+02  -4.296095e+02
   4.848936e+01  -4.551585e+02
   2.788997e+02  -2.800117e+02
   2.806967e+02  -1.107206e+01
  -1.191986e+02   1.029609e+02
  -4.163207e+02  -6.060025e+01
  -2.655903e+02  -4.359059e+02
   4.521488e+02  -4.924767e+02
   9.135730e+02   8.451042e+01
   4.714458e+02   5.685458e+02
  -4.179208e+02   5.585235e+02
  -7.336019e+02  -3.825301e+01
  -3.651430e+02  -4.903555e+02
   3.030738e+02  -5.619915e+02
   5.664341e+02  -1.971620e+02
   4.248468e+02   2.397117e+02
   7.616704e+01   5.137833e+02
  -2.643568e+02   3.114004e+02
  -2.011895e+02  -2.340474e+02
   1.820403e+02  -4.644329e+02
   5.235048e+02   3.404191e+00
   3.093738e+02   7.155158e+02
  -3.455033e+02   8.093355e+02
  -6.877799e+02   1.853536e+01
  -2.839922e+02  -6.344739e+02
   3.397725e+02  -3.479766e+02
   4.234137e+02   3.598145e+02
  -5.074357e+01   5.699108e+02
  -5.990144e+02   1.397098e+02
  -6.560010e+02  -4.175578e+02
  -1.334048e+02  -6.210060e+02
   4.273994e+02  -3.949377e+02
   6.748915e+02   7.215399e+01
   3.668538e+02   3.820745e+02
  -1.824981e+02   4.170246e+02
  -4.862766e+02   1.076109e+02
  -2.713108e+02  -2.399127e+02
   1.551563e+02  -1.332318e+02
   1.828279e+02   1.770559e+02
  -1.960608e+02   2.311044e+02
  -4.147656e+02  -4.220022e+01
  -1.451776e+02  -3.543582e+02
   2.240255e+02  -2.734653e+02
   3.000581e+02  -1.696435e+01
   1.911322e+02   1.025175e+02
  -1.816750e+01   2.051566e+02
  -1.882522e+02   3.044824e+02
  -3.423621e+02   1.997791e+02
  -3.109104e+02  -1.442983e+02
  -7.755690e+01  -4.599612e+02
   1.220311e+02  -3.794846e+02
   1.469184e+02  -1.054024e+02
   3.887085e+01   9.971705e+00
   5.622584e+00  -9.895348e+01
   1.805875e+02  -1.278216e+02
   3.344192e+02   1.322160e+01
   1.670855e+02   3.093346e+02
  -4.543265e+01   2.633645e+02
  -2.341527e+02   4.646902e+01
  -2.251810e+02  -2.274357e+02
   1.754427e+01  -3.317803e+02
   3.053422e+02  -1.299939e+02
   3.840558e+02   1.918460e+02
   1.971648e+02   3.908478e+02
  -9.982201e+01   3.416488e+02
  -2.179278e+02   1.092207e+02
  -1.513310e+02  -2.825461e+01
  -1.016802e+02   4.317698e+01
  -1.924789e+02   1.261233e+02
  -4.406304e+02  -2.310660e+01
  -3.510520e+02  -2.739069e+02
   3.594374e+01  -4.755450e+02
   3.500519e+02  -4.766208e+02
   4.874536e+02  -1.861032e+02
   3.342773e+02   8.732955e+01
   8.805859e+01   2.663418e+02
  -1.180335e+02   2.231739e+02
  -6.283977e+01   3.928443e+01
   8.093691e+01  -1.282679e+02
   1.993879e+02   1.903013e+01
   6.508780e+01   2.409592e+02
  -1.857300e+02   1.935601e+02
  -1.874080e+02  -5.958601e+01
   3.697596e+01  -2.168933e+02
   1.938140e+02  -3.498848e+01
   1.375366e+02   2.114540e+02
  -4.747139e+01   3.384142e+02
  -2.655991e+02   1.837369e+02
  -3.465237e+02  -9.292138e+01
  -2.614850e+02  -2.249611e+02
  -1.310732e+02  -3.061574e+02
   1.327527e+02  -1.550403e+02
   1.871602e+02  -1.877119e+01
   8.024244e+01   4.100339e+01
  -7.010189e+01  -1.093183e+01
  -2.507293e+01  -6.891558e+01
   1.118701e+02  -1.672568e+02
   1.856828e+02   2.222320e+01
   7.989032e+01   9.304182e+01
  -6.362036e+01   1.408831e+01
  -4.564507e+01  -1.260709e+02
   1.549902e+02  -9.711480e+01
   2.537392e+02   3.688432e+00
   2.313025e+02   1.440896e+02
   6.939024e+01   2.225905e+02
  -1.861648e+02   2.430986e+02
  -2.763565e+02   1.438100e+02
  -2.140627e+02  -2.956774e+01
   3.963306e+01  -1.444181e+02
   1.255797e+02  -3.420119e+01
  -1.651047e+01   1.114140e+02
  -1.597403e+02   9.674071e+01
  -2.263207e+02  -1.086418e+02
  -8.988049e+01  -2.033044e+02
   8.466824e+01  -1.646490e+02
   1.447031e+02  -4.154244e+01
   6.050693e+01   6.809367e+01
  -3.004404e+01  -1.580277e+01
  -3.879657e+01  -3.503132e+01
   4.068168e+01  -9.367488e+01
   1.993945e+02  -1.834060e+01
   1.993573e+02   1.357556e+02
   4.173078e+01   2.369127e+02
  -1.622079e+02   1.266867e+02
  -2.130583e+02   4.135581e+01
  -6.413335e+01  -1.107082e+02
   6.989221e+01  -1.010942e+02
   6.543375e+01  -2.317406e+01
   1.012899e+01   6.227107e+01
   2.149012e+01   2.014837e+01
   2.164034e+01  -2.855655e+01
   9.089627e+01  -2.413996e+00
   9.257214e+01   6.961000e+01
   3.312047e+01   1.611236e+02
  -9.178846e+01   2.026817e+02
  -2.544695e+02   1.753399e+01
  -2.008328e+02  -1.527492e+02
  -3.737682e+01  -2.583990e+02
   1.360230e+02  -1.506732e+02
   9.672973e+01  -5.608527e+01
   5.374177e+01   1.242961e+01
   5.883753e+01   4.751580e-01
   6.829705e+01  -3.490408e+01
   7.979106e+01  -7.819117e+00
   2.200385e+01   7.300499e+01
  -5.586939e+01   1.110481e+02
  -1.000786e+02   7.819269e+01
  -1.221839e+02  -4.496215e+01
   1.564911e+01  -1.240976e+02
   1.603653e+02  -9.061559e+01
   1.887030e+02   3.738407e+01
   1.242543e+02   2.491647e+02
  -3.479295e+01   2.466383e+02
  -2.370929e+02   1.129288e+02
  -2.963658e+02  -7.828638e+01
  -1.406964e+02  -1.497670e+02
   5.495180e+01  -1.274678e+02
   1.218540e+02  -1.026564e+02
   8.412907e+01  -6.948752e+01
   3.070322e+01  -8.712608e+01
   8.902603e+01  -6.937453e+01
   1.156901e+02   1.552165e+01
   1.194040e+02   1.777651e+02
   6.290095e+01   2.040656e+02
  -1.056541e+02   1.722383e+02
  -1.426620e+02  -1.047358e+01
  -1.215925e+02  -1.399547e+02
  -4.651000e+01  -1.817875e+02
   6.962045e+01  -9.996342e+01
   6.345999e+01   4.064209e+00
   2.308312e+01   6.227590e+01
  -1.179196e+01   2.786132e+01
   2.085960e+01   1.885852e+01
   8.493656e+01   4.351610e+01
   3.255309e+01   2.395837e+01
  -5.098793e+01   6.386863e+00
  -1.582064e+02  -2.041880e+01
  -1.326573e+02  -6.188659e+01
  -9.606270e+00  -1.234073e+02
   1.207401e+02  -8.477597e+01
   1.481106e+02  -3.504124e+01
   3.459390e+01   4.841422e+01
  -6.061869e+01   4.246940e+01
  -8.564841e+01  -1.022427e+00
   8.811745e+00  -1.192189e+02
   7.363176e+01  -6.111467e+01
   6.645696e+01  -9.751087e-01
   7.812023e+01   5.153193e+01
   9.500083e+00   3.735790e+01
   8.022215e+01  -2.909541e+01
   8.782748e+01  -1.366594e+01
   9.862872e+01   6.853927e+01
  -3.652268e+01   1.150030e+02
  -1.330607e+02   1.458803e+02
  -1.385004e+02   3.586753e+01
  -1.333357e+02  -7.307327e+01
   4.561597e+01  -8.971607e+01
   2.829174e+01  -4.752897e+01
   5.900538e+01   3.497824e+01
  -7.263935e+01   1.299859e+01
  -1.582093e+02  -1.013580e+00
  -5.061832e+01  -1.248643e+02
   4.255675e+01  -1.816234e+02
   1.882552e+02  -4.056467e+01
   1.412139e+02   2.981898e+01
   2.135261e+01   9.474632e+01
  -3.521749e+01   8.133113e+01
  -4.628614e+01  -1.633211e+01
   1.876392e+01  -4.104889e+01
   9.407182e+01   1.169021e+01
   4.218421e+01   9.496540e+01
  -6.646134e+01   1.534814e+02
  -1.649082e+02   6.759489e+01
  -1.462404e+02  -1.041857e+02
  -2.591363e+01  -2.157395e+02
   7.699566e+01  -1.325131e+02
   1.148313e+02   1.470239e+01
   5.245392e+01   4.724505e+01
   8.993614e+00   7.405943e+01
   4.855541e+00   5.754941e+00
  -4.290706e+01  -5.459880e+01
  -2.788024e+01  -2.369284e+01
  -2.361310e+01   2.727864e+01
  -4.892036e+01  -2.697572e+01
  -5.538347e+01  -1.397236e+02
  -6.351858e+01  -1.180262e+02
   4.881246e+01  -4.505015e+00
   1.523229e+02   2.929512e+00
   1.121303e+02   1.082759e+02
   2.856566e+00   5.562742e+01
  -7.886939e+01   6.556183e+00
  -9.899556e+01   1.022490e+01
   1.817080e+01   1.350268e+01
   2.256183e+01  -3.379845e+01
   4.256529e+01  -2.438551e+01
  -2.116190e+01   1.325714e+01
   4.391212e+00  -5.351540e+00
   7.375586e+01  -5.673379e+00
   8.806789e+01   1.651940e+01
  -1.317741e+01   7.137379e+01
  -1.365294e+02   1.244397e+02
  -1.506171e+02   5.897312e+01
  -1.444374e+02  -6.206365e+01
  -5.764755e+00  -1.669680e+02
   7.854518e+01  -1.047031e+02
   1.009807e+02  -4.011501e+01
   5.108582e+01   4.636836e+01
   4.359949e+01   3.441202e+01
   1.801379e+01  -2.560871e+01
   5.123475e+01   3.937696e+01
   6.917583e+01   4.453591e+01
   6.661700e+01   1.507880e+02
  -3.091995e+01   8.204265e+01
  -1.107740e+02  -2.892659e+01
  -8.169305e+01  -8.901912e+01
  -2.621605e+01  -1.272609e+02
   1.210203e+02   9.763859e+00
   8.832127e+01   9.641305e+01
   8.096857e+01   7.589711e+01
  -4.765900e+01   3.866142e+01
  -7.543041e+01  -6.790656e+00
  -4.764747e+01  -4.408570e+01
   3.778223e+00  -8.687891e+01
   4.424170e+01  -7.645367e+01
  -2.780866e+01   6.556144e+01
  -8.543600e+01  -3.806196e+01
  -9.784139e+00  -2.042301e+01
   7.780602e+01  -5.846438e+01
   9.026208e+01  -8.405326e+01
   1.014042e+02   5.409973e+00
  -1.663755e+01   7.115977e+01
  -9.768810e+01   1.056429e+02
  -3.909620e+01   3.861607e+00
   1.384743e+00  -4.983324e+01
   3.750125e+01  -3.176981e+01
   3.041368e+01   1.227969e+01
   4.254284e+01   4.231136e+01
   4.119805e-01   7.215588e+01
  -2.102081e+01  -1.540741e+01
  -3.550930e+00  -1.208059e+01
  -2.438224e+01   1.949468e+01
   3.449043e+01   1.932083e+01
  -5.296246e+00  -7.633665e+00
  -2.234065e+01  -1.525886e+01
   2.273356e+01  -4.330131e+01
   4.676779e+01  -2.743926e+01
   4.677832e+01   5.437638e+01
   5.391081e+00   4.397240e+01
  -4.938929e+01   1.593548e+01
  -5.275799e+01  -6.558536e+00
  -2.494309e+00  -6.083261e+01
   8.418850e+01  -4.067186e+01
   6.629820e+01   4.801860e+01
   7.007140e+01   6.216161e+01
  -3.605801e+01   4.564968e+01
  -4.622885e+01   3.914482e+00
  -3.024249e+01   7.934851e+00
   4.310376e+01  -4.130034e+00
   3.571055e+01   6.885248e+01
  -3.627972e+01   3.306945e+00
  -9.458849e+01   4.871308e+01
