
 $NMID
 id='ANONYMOUS ', fmtdat='(2E16.6)'
 volume=1.0
 tramp=1.0
 $END
  -4.741308e+03  -1.955954e+02
  -2.495499e+03  -3.012379e+03
   9.127395e+02  -2.766964e+03
   2.341928e+03  -7.604251e+02
   9.587998e+02   7.780797e+02
  -8.388316e+02   6.526415e+02
  -9.967428e+02  -6.096822e+02
   8.047637e+01  -1.238179e+03
   1.004816e+03  -8.133159e+02
   1.069887e+03   1.924812e+02
   4.204706e+02   9.797196e+02
  -3.385763e+02   9.477002e+02
  -7.126693e+02   7.954682e+01
  -4.013205e+02  -8.207434e+02
   3.493841e+02  -8.300354e+02
   7.091183e+02   6.134921e+00
   2.273571e+02   7.607839e+02
  -3.765028e+02   6.456902e+02
  -6.177254e+02   3.888674e+01
  -3.966326e+02  -4.037476e+02
   2.133959e+00  -4.955235e+02
   2.664133e+02  -2.797931e+02
   2.367325e+02   5.197208e+00
  -7.799641e+01   1.121086e+02
  -4.722524e+02  -1.313370e+02
  -2.347602e+02  -5.123562e+02
   4.758794e+02  -4.952204e+02
   9.790538e+02   8.152064e+01
   4.946415e+02   6.084679e+02
  -4.638121e+02   5.625362e+02
  -8.364349e+02   1.059744e+01
  -3.818295e+02  -5.107381e+02
   2.713301e+02  -5.994804e+02
   5.764803e+02  -1.957493e+02
   4.460559e+02   2.637769e+02
   5.225077e+01   5.066835e+02
  -2.293714e+02   3.309667e+02
  -2.197504e+02  -2.790243e+02
   1.859790e+02  -5.260113e+02
   5.470681e+02   2.996185e+01
   2.680442e+02   7.831420e+02
  -4.322815e+02   7.659824e+02
  -7.048112e+02  -6.766904e+01
  -2.493555e+02  -6.378044e+02
   3.272983e+02  -3.993825e+02
   4.869704e+02   3.642909e+02
  -2.663098e+01   6.031140e+02
  -6.152997e+02   1.341979e+02
  -6.434173e+02  -4.666913e+02
  -2.042410e+02  -6.464431e+02
   4.329815e+02  -4.005263e+02
   6.962676e+02   1.020521e+02
   4.020795e+02   4.178880e+02
  -2.026009e+02   4.152175e+02
  -4.935373e+02   5.797693e+01
  -2.362179e+02  -2.446599e+02
   1.588539e+02  -1.195968e+02
   1.739632e+02   1.895931e+02
  -1.933234e+02   2.147244e+02
  -3.842039e+02  -2.319183e+01
  -1.417552e+02  -3.723923e+02
   2.381847e+02  -2.907504e+02
   3.628791e+02  -7.886863e+01
   1.924488e+02   1.007451e+02
  -1.934133e+01   2.428718e+02
  -2.042440e+02   3.688158e+02
  -3.456638e+02   2.266650e+02
  -3.395318e+02  -1.344100e+02
  -1.175555e+02  -4.704463e+02
   1.409390e+02  -4.022969e+02
   1.389546e+02  -9.274732e+01
  -7.275378e+00   7.245934e+00
   8.895103e+00  -8.363428e+01
   1.960206e+02  -1.544299e+02
   3.400398e+02   2.810862e+01
   2.145722e+02   2.792464e+02
  -4.179783e+01   3.081127e+02
  -2.476516e+02   6.004230e+01
  -2.275877e+02  -2.142304e+02
  -1.958813e+00  -3.361071e+02
   3.034722e+02  -1.471776e+02
   3.978711e+02   1.662851e+02
   2.089499e+02   3.596901e+02
  -1.068190e+02   3.251670e+02
  -2.273936e+02   1.193440e+02
  -1.554624e+02  -5.867273e+00
  -8.861153e+01   8.198008e+01
  -2.322135e+02   1.056039e+02
  -4.337775e+02  -7.213529e+01
  -3.497155e+02  -2.774791e+02
  -5.660710e+00  -4.242868e+02
   4.048503e+02  -4.835556e+02
   5.072974e+02  -2.502181e+02
   3.568065e+02   1.123843e+02
   6.167627e+01   3.063180e+02
  -1.293664e+02   2.595335e+02
  -8.521555e+01   4.278291e+00
   1.214641e+02  -1.040670e+02
   2.229127e+02  -4.347493e+01
   4.147964e+01   2.145595e+02
  -1.591703e+02   2.383111e+02
  -2.154488e+02  -5.959184e+01
   2.908745e+01  -2.434038e+02
   2.059282e+02  -3.950128e+01
   1.927866e+02   2.576387e+02
  -3.879128e+01   4.115976e+02
  -2.065960e+02   1.940374e+02
  -3.430191e+02  -7.324508e+01
  -2.767462e+02  -2.542907e+02
  -9.924737e+01  -2.861550e+02
   7.284576e+01  -2.019889e+02
   2.069658e+02  -5.505137e+01
   9.711925e+01   5.764239e+01
  -5.821078e+01  -7.302812e+01
  -8.397579e+00  -1.630255e+02
   1.083570e+02  -1.039016e+02
   1.883027e+02  -2.515253e+00
   5.182684e+01   7.148139e+01
  -8.564119e+01   2.054562e+01
  -4.013636e+01  -3.846474e+01
   1.330521e+02  -1.218759e+02
   2.981956e+02  -2.352781e+01
   2.878948e+02   1.198865e+02
   6.553004e+01   2.515468e+02
  -1.816722e+02   2.812164e+02
  -2.827106e+02   1.119043e+02
  -1.940369e+02  -5.116563e+01
   3.193196e+01  -1.175755e+02
   9.533004e+01  -1.233114e+01
  -5.361297e+01   1.281194e+02
  -1.930100e+02   5.656155e+01
  -2.166413e+02  -1.057563e+02
  -9.751329e+01  -2.271102e+02
   1.184802e+02  -2.185473e+02
   1.598953e+02  -4.265509e+01
   6.265587e+01   7.072857e+01
  -2.554104e+00   5.837488e+00
  -7.363400e+00  -5.481174e+01
   3.453040e+01  -1.205284e+02
   2.350700e+02  -5.037025e+01
   2.001168e+02   1.268510e+02
  -3.766053e+00   2.140801e+02
  -1.518393e+02   1.658733e+02
  -2.006812e+02  -1.082208e+01
  -1.009195e+02  -1.177889e+02
   7.218349e+01  -1.387889e+02
   1.125877e+02  -9.032566e+00
  -2.378493e+01   3.739151e+01
   8.335624e+00   1.759432e+01
   1.093711e+01  -2.335239e+01
   2.104499e+01   4.333022e+01
   6.438084e+01   5.830456e+01
   3.094317e+01   1.899186e+02
  -1.362748e+02   1.772042e+02
  -2.503449e+02   6.584711e+00
  -2.148454e+02  -1.644876e+02
  -5.471705e+01  -2.371947e+02
   1.181476e+02  -2.112645e+02
   1.259595e+02  -3.284570e+01
   4.961684e+01   8.201512e+01
   2.829684e+01   2.306109e+01
   4.904067e+01  -3.862449e+01
   1.086860e+02   1.185351e+00
   5.260044e+01   7.221985e+01
  -6.661022e+01   4.975048e+01
  -9.186991e+01   7.955143e+01
  -1.028367e+02  -3.926292e+01
   1.024540e+00  -1.123349e+02
   1.719863e+02  -1.014888e+02
   2.574187e+02   7.228870e+01
   9.369985e+01   1.791754e+02
  -9.797362e+01   2.293364e+02
  -2.591027e+02   1.131432e+02
  -2.705694e+02  -1.084935e+02
  -8.370928e+01  -1.778037e+02
   2.875166e+01  -1.909582e+02
   1.140076e+02  -6.703946e+01
   8.144254e+01  -8.703272e+01
   8.297488e+01  -7.045658e+01
   9.732038e+01  -1.025348e+02
   1.373296e+02   1.154396e-01
   1.122610e+02   1.448674e+02
   3.208174e+01   2.034252e+02
  -9.626455e+01   1.970372e+02
  -2.049085e+02   4.520347e+01
  -1.692621e+02  -1.167131e+02
   8.754835e-02  -1.709773e+02
   4.232548e+01  -9.371218e+01
   6.219008e+01   3.291690e+01
  -6.642883e+00   5.581731e+01
  -3.126122e+01   4.044647e+01
   1.413753e+01   2.600050e+01
   6.690449e+01   1.619029e+00
   2.254410e+01   1.451101e+01
  -8.184178e+01   3.181036e+01
  -1.534977e+02   2.480118e+01
  -1.314917e+02  -5.359709e+01
  -2.171472e+01  -7.287472e+01
   1.228653e+02  -6.062038e+01
   2.037190e+02  -2.687127e+01
   5.198782e+01   1.015576e+02
  -7.302101e+01   6.124116e+01
  -1.114704e+02  -1.497336e+01
  -2.934056e+01  -5.583916e+01
   5.423125e+01  -3.409634e+01
   8.547995e+01   3.318383e+01
   3.621342e+01   4.842864e+01
   5.620267e+01   8.603372e+01
   8.625361e+01   1.365649e+01
   8.007504e+01  -1.801150e+01
   6.482324e+01   8.865941e+01
  -6.859493e+01   1.281389e+02
  -1.299634e+02   1.431847e+02
  -1.533790e+02   3.094821e+01
  -1.164717e+02  -1.053537e+02
  -7.038816e+00  -1.347713e+02
   5.042727e+01  -1.156514e+01
   3.717055e+01   1.247583e+01
  -4.986328e+01   5.887089e+01
  -1.526717e+02  -4.625058e+01
  -9.217955e+01  -7.589371e+01
   8.343733e+01  -1.125271e+02
   1.924456e+02  -5.792047e+01
   1.615845e+02   2.737995e+01
   1.213964e+01   8.071395e+01
  -4.465738e+01   7.319128e+01
  -3.167153e+01  -2.790765e+01
   7.819343e+01  -9.265608e+00
   9.047105e+01   2.335167e+01
   6.919714e+01   1.429990e+02
  -8.464344e+01   1.708738e+02
  -1.992423e+02   1.035349e+02
  -1.870821e+02  -1.088316e+02
  -1.929384e+01  -2.072880e+02
   7.520332e+01  -1.526000e+02
   1.298463e+02   1.249493e+01
   7.959119e+01   1.087236e+02
  -6.851273e+00   1.297546e+02
  -4.589875e+01   5.361042e+00
  -1.566512e+01  -4.503905e+01
  -2.690298e+01  -2.949177e+01
   1.776659e+01   1.545320e+01
  -1.898470e+01  -7.697389e+00
  -6.012622e+01  -8.710279e+01
  -8.476020e+00  -9.661288e+01
   6.600462e+01  -3.043125e+01
   1.620827e+02   4.504611e+01
   1.403079e+02   9.230517e+01
   2.529500e+01   4.542713e+01
  -9.015655e+01   2.639326e+00
  -4.701052e+01   1.105174e+01
  -6.988982e+00  -2.968690e+00
   3.874152e+01  -4.146686e+01
   4.229078e+01  -1.785732e+01
  -9.263911e+00  -2.573053e+01
  -1.797348e+01   6.891783e-01
   5.086675e+01  -1.234699e+01
   1.128343e+02   3.367504e+01
   3.247921e+01   6.220113e+01
  -1.193932e+02   1.422255e+02
  -1.843483e+02   5.608632e+01
  -1.617888e+02  -5.897288e+01
  -2.372888e+01  -2.025016e+02
   6.932666e+01  -1.553665e+02
   1.058396e+02  -4.083544e+01
   6.373232e+01  -1.126407e+01
   3.145067e+01   4.752367e+01
  -1.460055e+01  -3.106402e+01
   1.383512e+01  -1.012861e+01
   2.289237e+01   8.327432e+01
   9.776403e-01   9.629469e+01
  -4.125186e+01   6.302024e+01
  -6.663311e+01   5.224424e+00
  -7.972977e+01  -1.244698e+02
  -1.946146e+01  -1.157279e+02
   8.126971e+01  -4.361274e+01
   1.301626e+02   6.274001e+01
   3.608521e+01   1.096586e+02
  -7.700937e+01   5.024270e+01
  -1.143517e+02  -8.894257e+00
  -4.913545e+01  -4.877392e+01
   2.202752e+01  -5.301524e+01
   3.187736e+01  -3.540343e+01
  -4.215442e+01  -1.344700e+01
  -3.158951e+01  -5.573135e+00
  -1.344125e+01  -3.002731e+01
   6.037052e+01  -9.187420e+01
   1.286092e+02  -6.898790e+01
   8.760800e+01  -1.431520e+01
   1.883883e+01   7.716152e+01
  -6.862167e+01   9.288238e+01
  -5.000973e+01   1.870105e+01
   1.424119e+00  -3.470959e+01
   1.211165e+01  -1.908844e+01
   6.025898e+01   2.113816e+01
  -6.709775e+00   6.310382e+01
   6.744678e+00   1.286243e+01
   2.626221e+00  -9.500629e-01
  -5.164320e+01  -1.412144e+01
  -5.796077e+01   1.900480e+01
  -1.081106e+01   1.705213e+01
   3.091675e+01  -2.486771e+01
   3.277914e+01  -2.357061e+01
   3.465162e+00  -1.588190e+01
   3.073248e+01   2.301654e+00
   7.372070e+00   7.096218e+01
   2.181871e+01   6.204093e+01
  -4.254996e+01   3.246060e+01
  -6.194784e+01  -4.200500e+01
  -1.909071e+01  -8.966172e+01
   3.679764e+01  -4.243694e+01
   9.441915e+01   9.390131e+00
   6.674621e+01   1.340619e+01
  -4.743700e+01   7.079505e+01
  -7.138275e+01   3.901236e+01
   5.565357e+00  -4.211116e+00
   5.573384e+01  -9.320960e+00
   4.047392e+01   3.187712e+01
  -4.836064e+01   7.705805e+01
  -9.951078e+01   2.319974e+01
