
 $NMID
 id='ANONYMOUS ', fmtdat='(2E16.6)'
 volume=1.0
 tramp=1.0
 $END
   4.705197e+03   8.337794e+01
   2.423851e+03   2.890964e+03
  -1.042569e+03   2.736418e+03
  -2.224996e+03   7.407467e+02
  -8.446782e+02  -7.932341e+02
   7.915798e+02  -5.666885e+02
   9.852034e+02   4.655780e+02
  -2.590759e+01   1.218096e+03
  -8.137360e+02   8.324523e+02
  -9.818603e+02  -1.613369e+02
  -4.587411e+02  -9.073195e+02
   3.093148e+02  -9.598458e+02
   7.119809e+02  -9.889341e+01
   4.562771e+02   7.494012e+02
  -3.232327e+02   7.579548e+02
  -6.515177e+02   1.681772e+01
  -2.796439e+02  -7.180733e+02
   3.632962e+02  -6.661553e+02
   6.125978e+02  -8.432134e+01
   4.157896e+02   3.852982e+02
  -5.052393e+01   5.026076e+02
  -2.785733e+02   2.727261e+02
  -2.852357e+02   3.939187e+01
   1.012356e+02  -1.180323e+02
   4.029654e+02   4.916222e+01
   2.217728e+02   4.658707e+02
  -4.447411e+02   5.157882e+02
  -8.896204e+02  -5.402511e+01
  -4.533324e+02  -6.196974e+02
   3.981494e+02  -4.835214e+02
   7.908193e+02   1.131902e+01
   3.622478e+02   5.070977e+02
  -3.105879e+02   5.515374e+02
  -6.182414e+02   1.673660e+02
  -4.539085e+02  -2.861318e+02
  -3.333730e+01  -5.191647e+02
   2.979559e+02  -2.772634e+02
   2.117382e+02   2.682119e+02
  -1.887692e+02   4.923032e+02
  -5.388675e+02  -3.070185e+01
  -2.806690e+02  -7.186226e+02
   3.456008e+02  -7.459580e+02
   6.675421e+02   2.943168e+01
   2.641869e+02   5.701735e+02
  -3.431582e+02   3.238464e+02
  -3.925166e+02  -3.085515e+02
   7.610222e+01  -5.817853e+02
   6.012143e+02  -1.645433e+02
   6.103684e+02   4.001381e+02
   1.857948e+02   6.146825e+02
  -4.025990e+02   3.910647e+02
  -6.576024e+02  -4.591666e+01
  -3.851106e+02  -4.258584e+02
   1.656796e+02  -4.053474e+02
   4.814165e+02  -7.159134e+01
   2.479302e+02   1.945829e+02
  -9.211438e+01   1.188224e+02
  -1.539904e+02  -1.305092e+02
   1.940581e+02  -2.363685e+02
   3.437604e+02   8.909934e+01
   9.444034e+01   3.084208e+02
  -2.319152e+02   2.458546e+02
  -3.275452e+02   3.860008e+01
  -1.999635e+02  -9.952851e+01
   2.397712e+01  -1.679442e+02
   1.919548e+02  -2.986236e+02
   3.353921e+02  -2.516926e+02
   3.339576e+02   1.165652e+02
   9.478003e+01   4.731857e+02
  -1.695666e+02   4.114068e+02
  -2.033069e+02   1.088308e+02
  -1.509586e+01  -4.554125e+01
  -2.441178e+01   6.499784e+01
  -1.851472e+02   1.460466e+02
  -2.795754e+02  -4.934755e+01
  -1.912572e+02  -2.698752e+02
   7.017395e+01  -2.795426e+02
   2.476911e+02  -3.146717e+01
   1.872897e+02   2.452783e+02
   6.803589e+00   2.951815e+02
  -2.656046e+02   1.109314e+02
  -3.493127e+02  -1.276732e+02
  -2.028469e+02  -4.000958e+02
   1.340146e+02  -3.169317e+02
   2.298237e+02  -1.191430e+02
   1.693055e+02   5.429886e+00
   1.070983e+02  -4.114158e+01
   2.020157e+02  -6.094094e+01
   4.338808e+02   6.669338e+01
   3.388429e+02   2.897632e+02
  -2.131456e+01   4.030585e+02
  -3.486893e+02   3.931956e+02
  -4.810904e+02   1.665111e+02
  -3.240989e+02  -1.107778e+02
  -7.580333e+01  -3.305145e+02
   1.547587e+02  -2.537769e+02
   9.228436e+01  -3.715300e+01
  -1.008337e+02   1.299557e+02
  -2.102481e+02   8.538397e+00
  -8.482678e+01  -2.303568e+02
   1.706423e+02  -1.636439e+02
   1.883386e+02   8.492215e+01
  -1.181312e+01   1.708451e+02
  -2.130152e+02   6.573824e+01
  -1.643820e+02  -2.824674e+02
   6.463126e+01  -3.691816e+02
   2.558556e+02  -2.335292e+02
   2.976241e+02   7.562510e+01
   2.837221e+02   2.403212e+02
   1.080759e+02   2.944962e+02
  -1.347142e+02   1.265635e+02
  -1.460581e+02   3.186515e+01
  -4.230354e+01  -5.256175e+01
   7.603775e+01   8.154096e+01
   6.940856e+01   1.418364e+02
  -1.100936e+02   1.229882e+02
  -1.906160e+02  -2.470613e+01
  -7.357787e+01  -6.351189e+01
   1.011420e+02  -4.323767e+01
   9.531582e+01   1.292580e+01
  -1.008890e+02   1.130874e+02
  -3.331187e+02   1.278775e+01
  -2.697692e+02  -1.091602e+02
  -7.278535e+01  -2.836578e+02
   2.041197e+02  -2.792187e+02
   2.648564e+02  -1.058588e+02
   1.495310e+02   6.755213e+01
   1.144752e+01   1.340246e+02
  -7.322156e+01   2.446327e+01
   4.667376e+01  -1.136312e+02
   1.757441e+02  -6.349143e+01
   1.952830e+02   1.259983e+02
   4.380371e+01   2.100879e+02
  -1.075024e+02   1.821326e+02
  -1.916641e+02   2.223950e+01
  -9.779387e+01  -4.742528e+01
   1.065461e+01   1.478081e+01
   5.658123e+01   5.419713e+01
  -1.000827e+02   1.008052e+02
  -1.996162e+02   7.963602e+01
  -2.298289e+02  -1.101337e+02
  -2.505229e+01  -1.849627e+02
   1.908257e+02  -1.333376e+02
   1.857374e+02  -8.167614e+00
   8.227412e+01   7.001340e+01
  -4.817617e+01   1.448090e+02
  -1.200036e+02   2.981698e+01
   1.538387e+01  -2.930604e+01
   6.504657e+00  -8.272857e+01
  -2.324048e+01   2.365210e+01
  -5.403915e+01  -6.967123e+00
  -7.071927e+01  -3.967235e+01
  -3.218940e+01  -1.309401e+02
   1.056171e+02  -1.656615e+02
   2.137049e+02  -3.022325e+01
   2.007444e+02   1.565614e+02
   3.098268e+01   2.171904e+02
  -1.172292e+02   1.718322e+02
  -1.437058e+02   1.588689e+01
  -1.311246e+02  -5.652769e+01
  -2.999547e+01  -3.095846e+01
  -6.731715e+01  -2.933059e+00
  -5.679839e+01   1.445208e+01
  -2.533556e+01  -5.452123e+01
   5.287106e+01  -8.270313e+01
   7.609002e+01  -4.374100e+01
   5.785943e+01   2.489619e+01
   4.943757e+01   1.362846e+02
  -1.604139e+02   9.054951e+01
  -1.823446e+02  -5.773345e+01
  -1.327475e+02  -1.831171e+02
   6.999161e+01  -2.482921e+02
   2.754537e+02  -1.218514e+02
   2.062716e+02   6.173702e+01
   1.106927e+02   1.551663e+02
  -6.467765e+01   1.424676e+02
  -1.238299e+02   7.853667e+01
  -6.961679e+01   5.871629e+01
  -4.160856e+01   8.008984e+01
  -5.401805e+01   9.459370e+01
  -1.438164e+02   4.100111e+00
  -7.036488e+01  -1.408605e+02
  -4.420182e+01  -2.171772e+02
   1.249568e+02  -1.972013e+02
   1.970205e+02  -4.627524e+01
   1.526841e+02   1.421647e+02
   4.264161e+01   1.826531e+02
  -7.520938e+01   5.988026e+01
  -6.754021e+01   1.613092e+01
   8.300669e-01  -2.772631e+01
  -1.294956e+01  -5.988881e+01
  -2.319116e+01  -1.454901e+01
  -3.453454e+01  -5.800698e+01
  -6.342851e+01  -2.472040e+01
   3.252689e+01  -6.518640e+00
   1.095007e+02  -9.871253e+00
   1.259562e+02   5.909684e+01
   1.749488e+01   9.935075e+01
  -1.317203e+02   1.015966e+02
  -1.600123e+02   2.950073e+01
  -4.409466e+01  -3.424391e+01
   5.861257e+01  -3.098795e+01
   9.441912e+01   2.982239e+00
  -1.795597e+01   3.799785e+01
  -9.872714e+01   7.254458e+01
  -3.748284e+01   5.846280e+00
  -3.262645e+01  -6.440093e+01
  -1.290620e+01  -5.784087e+01
  -1.062137e+02   2.011563e+01
  -6.402381e+01   7.454609e+01
  -1.289634e+01  -7.660305e+01
  -1.612459e+01  -1.464850e+02
   1.075617e+02  -1.355423e+02
   1.970851e+02  -1.764369e+01
   1.268074e+02   1.106443e+02
   1.510397e+01   1.198792e+02
  -7.428853e+01   5.333489e+01
  -4.898185e+01  -2.627450e+01
   8.994324e+01  -2.429810e+01
   9.271069e+01   6.317507e+01
   8.108820e+01   9.530371e+01
  -1.031056e+02   9.620347e+01
  -2.002298e+02   6.571228e+01
  -1.576430e+02  -8.233137e+01
  -6.258476e+01  -9.577120e+01
   7.654083e+01  -6.965046e+01
   3.608934e+01  -1.197431e+01
  -3.790998e+01   2.076237e+00
  -1.257025e+02  -4.260819e+01
   6.045599e+00  -1.308231e+02
   1.009128e+02  -1.272062e+02
   1.975856e+02  -4.711653e+01
   1.026211e+02   6.614561e+01
   7.022628e+01   2.050283e+02
  -1.290276e+02   1.442793e+02
  -8.136304e+01  -1.470965e+01
  -5.304016e+01  -8.140511e+01
  -2.786558e+01  -8.409577e+01
   4.540983e+01  -2.522566e+01
   4.955467e+01   5.399710e+01
   2.055970e+01   1.572582e+01
   3.565853e+01  -1.395761e+01
   4.706886e+01   2.314556e+01
   5.536482e+01   5.218544e+01
   6.754607e+01   1.043894e+02
  -3.579619e+01   7.761680e+01
  -1.167307e+02  -7.547248e+01
  -1.154075e+02  -8.018933e+01
  -3.031359e+01  -3.525633e+01
   6.280301e+01  -1.226550e+01
   8.807876e+01  -1.937395e+01
   3.912500e+01  -1.342740e+01
  -3.465562e+01   4.850945e+01
  -1.336995e+01   2.846995e+01
   2.583611e+01  -3.181729e+00
  -2.826762e+01  -3.750377e+00
  -8.792474e+01   2.101714e+01
  -7.501232e+01  -3.080067e+01
  -2.343063e+00  -7.773760e+01
   1.220728e+02  -1.250905e+02
   1.950808e+02  -7.597525e+01
   1.328530e+02   7.444904e+01
   4.439588e+01   1.408242e+02
  -6.351307e+01   1.530373e+02
  -1.265590e+02   3.234924e+01
  -7.229546e+01  -1.711257e+01
  -5.343821e+01   1.361020e+00
  -2.010648e+01  -1.107509e+01
  -3.737984e+01  -1.697553e+01
  -2.993671e+01  -5.302576e+01
  -4.945716e+01  -1.006432e+02
   1.340639e+01  -3.430345e+01
   8.514107e+01   2.633221e+01
   3.852708e+01   9.719071e+01
  -3.015356e+01   1.691878e+02
  -9.097869e+01   2.746020e+01
  -1.019827e+02  -4.671462e+01
  -2.755601e+01  -8.961827e+01
   9.489046e+01  -5.201112e+01
   6.275602e+01   3.768883e+01
   2.438010e+01   4.614038e+01
  -2.107204e+01   7.511984e+01
  -5.237304e+01  -1.169894e+01
   2.131347e+01  -1.625134e+01
   4.825821e+01   9.455633e+00
   1.140617e+01  -2.393098e+01
  -6.521369e+01   2.884100e+01
  -1.154411e+02   9.998499e+01
  -5.186151e+01  -2.812159e+01
   1.216760e+01  -1.098731e+02
   7.349177e+01  -7.530342e+01
   2.312107e+01   1.028077e+01
   7.872795e+00   4.225447e+01
  -2.115158e+01   3.083963e+01
  -7.769276e+01  -1.002273e+01
   1.482927e+01   2.642854e-01
  -4.283678e+01  -5.020884e+01
   2.146391e+01   4.785462e+01
   3.784751e+01   2.053099e+01
   3.556240e+01   3.446025e+00
  -2.652665e+01  -4.164990e+01
  -1.080244e+01   6.706450e+01
  -2.908919e+01   4.811419e+01
  -3.650210e+01   1.652951e+01
  -1.132368e+01   1.340754e+00
  -4.999636e+01  -4.445683e+01
   2.439439e+01  -8.123748e+01
   3.697824e+00  -7.854415e+00
   6.104743e+01   6.404392e+01
   3.297420e+01   5.932000e+01
  -5.034301e+01   1.611846e+01
  -1.144955e+02  -1.993153e+01
  -1.855542e+01  -2.846543e+01
   3.712511e+01  -3.583021e+01
   9.983600e+01   2.899553e+00
   1.043847e+01   9.775072e+00
   1.299041e+00  -5.859906e+00
  -5.308875e+01  -6.481364e+00
   7.215244e+00  -4.973367e+01
   8.881049e+01  -1.888106e+01
