
 $NMID
 id='ANONYMOUS ', fmtdat='(2E16.6)'
 volume=1.0
 tramp=1.0
 $END
   4.324831e+03  -2.160212e+02
   2.612978e+03   2.810788e+03
  -8.215837e+02   2.916659e+03
  -2.261717e+03   9.380046e+02
  -1.073145e+03  -7.878703e+02
   8.167238e+02  -6.553447e+02
   1.023000e+03   4.892067e+02
  -2.812239e+01   1.199602e+03
  -8.824344e+02   8.157536e+02
  -1.024059e+03  -1.610006e+02
  -5.528716e+02  -9.512791e+02
   2.802316e+02  -9.305760e+02
   7.197007e+02  -1.522390e+02
   4.461044e+02   7.700120e+02
  -2.665236e+02   8.129332e+02
  -6.667651e+02  -1.986006e+01
  -2.918137e+02  -7.243433e+02
   3.732432e+02  -6.533763e+02
   6.377264e+02  -7.743698e+01
   4.433507e+02   4.326410e+02
   1.458216e+01   4.850684e+02
  -2.908315e+02   2.439986e+02
  -1.678461e+02   2.343597e+01
   1.041160e+02  -1.048322e+02
   4.274442e+02   1.359710e+02
   2.063256e+02   4.362286e+02
  -4.654297e+02   4.527453e+02
  -8.819812e+02  -4.739304e+01
  -4.913084e+02  -5.663674e+02
   4.138880e+02  -5.440213e+02
   7.502829e+02   9.595620e+00
   3.767099e+02   5.042984e+02
  -2.870455e+02   6.121030e+02
  -6.224504e+02   2.310271e+02
  -4.138393e+02  -2.735110e+02
  -7.980706e+01  -4.419560e+02
   1.878018e+02  -2.858670e+02
   1.754958e+02   2.101506e+02
  -2.187788e+02   4.114685e+02
  -5.014948e+02  -2.712688e+01
  -3.070782e+02  -7.123287e+02
   3.124197e+02  -7.909451e+02
   6.876557e+02  -4.158995e+01
   2.839863e+02   6.180012e+02
  -2.361690e+02   3.935447e+02
  -4.230841e+02  -3.027939e+02
   3.471161e+01  -5.411011e+02
   5.874756e+02  -1.557955e+02
   6.096414e+02   4.377652e+02
   1.848784e+02   6.106090e+02
  -4.079206e+02   3.531444e+02
  -7.094854e+02  -7.013094e+01
  -3.925010e+02  -3.891226e+02
   1.711508e+02  -4.024527e+02
   4.592708e+02  -6.464322e+01
   2.675598e+02   2.642106e+02
  -1.272998e+02   1.442936e+02
  -1.687671e+02  -1.777339e+02
   2.067807e+02  -2.023759e+02
   3.681243e+02   6.357525e+01
   1.735080e+02   3.221434e+02
  -2.258483e+02   2.857848e+02
  -3.545134e+02   7.699783e+01
  -1.979921e+02  -9.936124e+01
   4.849554e+01  -2.575826e+02
   2.267638e+02  -3.360575e+02
   3.333323e+02  -2.372434e+02
   2.986254e+02   1.679472e+02
   1.017080e+02   4.463915e+02
  -1.089873e+02   4.062106e+02
  -1.559530e+02   1.054899e+02
  -1.088277e+01  -6.386554e+00
   1.550864e+01   7.111539e+01
  -1.903930e+02   1.510311e+02
  -2.861110e+02  -5.705877e+01
  -2.007512e+02  -2.783669e+02
   8.458129e+01  -2.964667e+02
   2.307521e+02  -3.393857e+01
   2.020929e+02   2.329774e+02
  -5.255558e+00   3.168526e+02
  -2.982631e+02   1.163846e+02
  -4.084923e+02  -1.762725e+02
  -1.524763e+02  -3.663023e+02
   7.937692e+01  -3.539436e+02
   2.181329e+02  -1.319989e+02
   1.570386e+02   1.324828e+01
   1.098250e+02  -3.185819e+01
   2.548081e+02  -9.951597e+01
   4.619858e+02   3.565173e+01
   3.387680e+02   2.692472e+02
  -7.812407e+00   4.436253e+02
  -4.113683e+02   4.176418e+02
  -4.656391e+02   2.163248e+02
  -3.272621e+02  -6.805016e+01
  -9.231130e+01  -2.859164e+02
   1.820650e+02  -2.310300e+02
   1.076570e+02  -3.043758e+01
  -1.262347e+02   1.443244e+02
  -2.195083e+02  -5.517498e-01
  -6.782855e+01  -2.079750e+02
   1.721264e+02  -1.834490e+02
   2.103788e+02   6.345103e+01
   2.329399e+01   2.470854e+02
  -1.711239e+02   7.000628e+01
  -1.689250e+02  -2.292741e+02
   3.494907e+01  -3.810605e+02
   2.798908e+02  -1.983850e+02
   3.125905e+02   6.418539e+01
   2.712782e+02   2.885825e+02
   1.031790e+02   2.713407e+02
  -9.417988e+01   1.295009e+02
  -2.056324e+02  -7.630304e+00
  -5.536854e+01  -6.238186e+01
   7.560763e+01   4.274350e+01
   4.966239e+01   1.416512e+02
  -7.972571e+01   1.143108e+02
  -1.824324e+02  -5.917502e+01
  -4.052320e+01  -6.976973e+01
   7.744186e+01  -4.274731e+01
   7.610941e+01   6.872988e+01
  -1.099111e+02   1.140338e+02
  -2.745150e+02   2.280911e+01
  -2.819709e+02  -1.252607e+02
  -3.573521e+01  -2.861514e+02
   1.792300e+02  -2.731417e+02
   2.767550e+02  -1.200163e+02
   1.509103e+02   3.301148e+01
  -1.438210e+01   1.134619e+02
  -1.193624e+02   2.895328e+01
   1.736455e+01  -1.236802e+02
   2.411004e+02  -9.096100e+01
   2.551390e+02   1.189420e+02
   6.183461e+01   2.099960e+02
  -8.513062e+01   1.818648e+02
  -1.412855e+02   6.384614e+01
  -9.826150e+01  -4.930976e+01
   3.682315e+01  -1.568288e+01
   7.115257e+01   7.524299e+01
  -7.778011e+01   1.212129e+02
  -2.093315e+02   7.734904e+01
  -1.998386e+02  -7.522943e+01
  -3.674950e+01  -2.514218e+02
   1.823916e+02  -1.929207e+02
   2.096955e+02  -1.380613e+01
   1.173527e+02   1.606826e+02
  -9.296228e+01   1.095015e+02
  -8.986185e+01   3.716602e+01
  -2.571808e+01  -2.052174e+01
   3.499909e+01  -3.330607e+01
  -7.529171e+00   5.847273e+00
  -6.859563e+01  -1.532478e+00
  -9.700641e+01  -5.789434e+01
  -1.076606e+01  -1.583220e+02
   1.045868e+02  -1.768887e+02
   2.567809e+02  -3.419833e+00
   2.341407e+02   1.687194e+02
   8.769345e+01   2.066803e+02
  -1.053230e+02   1.544680e+02
  -1.591680e+02   1.340881e+01
  -6.742090e+01  -5.160815e+01
  -9.242283e+00  -2.504987e+01
  -4.964883e+01   1.547548e+00
  -4.638281e+01   2.380981e+01
  -1.727176e+01  -2.742170e+01
   3.716794e+01  -6.346314e+01
   1.062995e+02  -3.472830e+01
   5.593434e+01   2.810772e+01
  -3.011948e+01   7.302123e+01
  -1.343076e+02   8.523952e+01
  -1.715109e+02  -5.492078e+01
  -1.320199e+02  -2.413165e+02
   6.644175e+01  -2.662104e+02
   2.786991e+02  -9.515521e+01
   2.375832e+02   8.150805e+01
   1.317889e+02   1.833118e+02
  -4.792106e+01   1.784043e+02
  -6.761705e+01   1.078531e+02
  -8.201868e+01   1.114507e+02
  -5.372771e+01   8.333990e+01
  -5.214925e+01   8.907259e+01
  -1.071946e+02  -9.163581e-01
  -1.495476e+02  -1.621831e+02
  -5.556225e+01  -2.660570e+02
   5.731042e+01  -1.753071e+02
   2.284999e+02  -3.773331e+01
   1.345121e+02   1.530604e+02
   1.305085e+01   1.809507e+02
  -6.467682e+01   1.039624e+02
  -6.881807e+01   1.108691e+01
   1.000022e+01  -4.364842e+01
   3.666482e+01  -3.262541e+01
  -4.174576e+01  -3.804895e+01
  -7.899275e+01  -2.710772e+01
  -3.914696e+01  -2.000735e+01
   5.717462e+01  -7.258989e+01
   1.857717e+02  -3.290082e+01
   1.872716e+02   6.336767e+01
   2.739431e+01   1.028519e+02
  -1.209552e+02   7.703546e+01
  -1.566547e+02   3.004739e+01
  -6.181025e+01  -7.643619e+01
   6.880953e+01  -3.311775e+01
   7.095408e+01   8.255276e+00
   3.927354e+00   6.834523e+01
  -5.983548e+01   5.556139e+01
  -2.856243e+01  -4.131053e+01
  -3.868654e+01  -5.822636e+01
  -1.947589e+01  -4.172913e+01
  -5.109509e+01   6.559747e+00
  -7.729219e+01   6.941519e+00
  -2.550709e+01  -3.949459e+01
  -1.372621e+01  -1.399605e+02
   1.140752e+02  -1.190060e+02
   1.489568e+02  -2.267545e+01
   1.078823e+02   9.423382e+01
  -1.720908e+01   1.118793e+02
  -6.764089e+01   8.994355e+01
  -3.156232e+01  -5.007406e+00
   5.987759e+01  -3.440879e+01
   1.109751e+02   5.004807e+01
   8.639338e+01   1.293368e+02
  -6.998376e+01   1.172038e+02
  -2.562051e+02   4.452880e+01
  -1.857844e+02  -1.802290e+01
  -5.683522e+01  -9.902483e+01
   6.495217e+01  -7.779150e+01
   4.255467e+01   2.909331e+01
  -5.347327e+01   3.378357e+01
  -9.476928e+01  -1.843842e+01
  -4.712409e+01  -1.208272e+02
   9.587788e+01  -1.338160e+02
   2.034190e+02  -7.701540e+01
   1.410095e+02   6.993916e+01
   2.191573e+01   1.745941e+02
  -1.035555e+02   1.401510e+02
  -1.331663e+02  -5.468063e+00
  -8.481404e+01  -9.504077e+01
   2.304695e+01  -6.823404e+01
   6.103795e+01   1.073482e+01
   4.344158e+01   3.865880e+01
  -8.423362e+00   7.570789e+00
   2.074166e+01  -2.883627e+01
   1.045053e+01   5.391780e-01
   8.052083e+01   1.172848e+02
   8.196293e+01   1.067407e+02
  -5.640856e+01   6.503307e+01
  -1.279015e+02  -7.903991e+01
  -1.142399e+02  -7.352893e+01
  -2.551371e+01  -6.553198e+01
   8.253041e+01  -5.950302e+01
   7.464862e+01  -5.110292e+00
  -2.463849e+01   2.217343e+01
  -2.625423e+01   1.527171e+01
  -1.744800e+01   1.176722e+01
   7.575322e+00   1.864199e+01
  -3.409889e+01  -1.823051e+01
  -8.141458e+01   4.571158e+00
  -8.626085e+01  -3.788215e+01
  -1.672949e+01  -7.891401e+01
   1.331327e+02  -1.359708e+02
   1.928972e+02  -9.497755e+01
   1.348228e+02   5.602509e+01
   5.950600e+01   1.688940e+02
  -9.195423e+01   1.800349e+02
  -1.135583e+02   4.930200e+01
  -6.585712e+01  -5.928745e+01
  -4.807274e+01  -3.141530e+01
   4.620228e+01  -3.569342e+01
  -1.201429e+01  -1.076232e+01
  -3.406139e+01  -5.967133e+01
  -3.179263e+01  -9.639916e+01
   1.153566e+01  -8.347567e+01
   8.859743e+01   2.510299e+01
   7.753372e+01   1.052526e+02
   1.078277e+01   1.000131e+02
  -1.083929e+02   4.882913e+01
  -8.949887e+01  -9.246055e+01
  -3.461107e+01  -1.049262e+02
   7.866864e+01  -4.744256e+01
   1.021228e+02   2.388790e+01
   1.405277e+01   5.360511e+01
  -4.382717e+01   5.961585e+01
  -3.542668e+00   1.989611e+01
   5.052622e+01   1.758455e+01
   4.747606e+01  -3.080562e+01
   2.204810e+01   2.891896e+01
  -5.164293e+01   4.979963e+01
  -1.059705e+02   9.136259e+01
  -6.766257e+01  -1.697634e+01
   3.967092e+01  -6.143676e+01
   1.680217e+01  -8.252466e+01
   1.202216e+01  -3.989770e+00
   1.425093e+01   2.693130e+01
  -1.404384e+01   3.580278e+01
  -6.692999e+01  -2.720920e+01
  -4.129354e+01  -4.008631e+01
  -7.274020e+00  -5.008723e+01
   5.240991e+01  -1.138594e+01
   2.419191e+01  -2.060239e+01
   3.513142e+01  -2.740409e+01
  -1.575031e+01  -5.136882e+01
  -1.340230e+01  -1.090700e+01
  -1.941980e+01   5.918704e+01
  -3.773129e+01   2.588554e+01
   4.831035e+00  -1.765508e+01
  -2.879145e+01  -4.753838e+01
   3.000816e+01  -9.666167e+01
   5.893833e+01   9.549661e+00
   4.808717e+01   4.630644e+01
   2.052011e+01   4.622347e+01
  -4.697814e+01   3.099239e+01
  -8.897003e+01  -3.828195e+01
  -5.558336e+01  -4.947396e+01
   2.503633e+01  -3.522294e+01
   3.582257e+01  -2.358356e+01
   1.414719e+01  -1.707195e+01
  -9.251264e+01  -5.139832e-01
  -1.704975e+01  -3.857669e+01
   7.407337e+00  -6.960957e+01
   5.363883e+01  -1.698163e+01
