
 $NMID
 id='ANONYMOUS ', fmtdat='(2E16.6)'
 volume=1.0
 tramp=1.0
 $END
   4.508702e+03   4.200095e+00
   2.632617e+03   2.850095e+03
  -8.305216e+02   3.152333e+03
  -2.448052e+03   9.603657e+02
  -1.079751e+03  -9.726003e+02
   8.910962e+02  -7.615069e+02
   9.989751e+02   5.333143e+02
  -3.090779e+00   1.247912e+03
  -9.696294e+02   8.652863e+02
  -1.044687e+03  -1.010426e+02
  -5.275641e+02  -1.015670e+03
   3.468634e+02  -1.028385e+03
   7.495979e+02  -1.341081e+02
   4.286133e+02   7.643368e+02
  -3.411047e+02   8.691358e+02
  -7.251941e+02   5.833345e+00
  -3.070722e+02  -7.621946e+02
   4.525500e+02  -6.922965e+02
   6.767030e+02  -6.322078e+01
   3.932158e+02   4.479137e+02
  -3.751386e+01   5.114227e+02
  -2.829704e+02   2.973015e+02
  -2.754065e+02   2.124093e+01
   8.975283e+01  -1.498781e+02
   4.212904e+02   5.370863e+01
   2.580216e+02   4.477682e+02
  -4.903277e+02   5.073234e+02
  -9.004590e+02  -2.645480e+01
  -5.082386e+02  -6.382569e+02
   4.050379e+02  -5.848779e+02
   8.570494e+02   3.051970e+01
   4.018894e+02   5.328837e+02
  -2.757908e+02   5.858416e+02
  -6.150798e+02   2.310180e+02
  -4.634235e+02  -2.114104e+02
  -1.053252e+02  -5.320940e+02
   2.679923e+02  -3.274316e+02
   2.532133e+02   2.087733e+02
  -1.341533e+02   5.295845e+02
  -5.173622e+02  -1.932414e+01
  -2.473414e+02  -7.032488e+02
   3.332477e+02  -8.053413e+02
   7.396771e+02  -1.963313e+01
   3.058926e+02   6.353231e+02
  -3.165005e+02   3.769546e+02
  -4.358966e+02  -2.956434e+02
   6.720880e+01  -5.628220e+02
   6.090534e+02  -1.576870e+02
   6.397131e+02   4.299291e+02
   1.240561e+02   6.313887e+02
  -4.293450e+02   3.710894e+02
  -7.076381e+02  -1.017233e+02
  -3.766834e+02  -4.279052e+02
   1.991660e+02  -4.152857e+02
   5.565224e+02  -4.956964e+01
   2.705471e+02   2.923866e+02
  -1.200730e+02   1.380577e+02
  -1.957636e+02  -1.766995e+02
   1.330142e+02  -2.069008e+02
   3.789969e+02   7.305506e+01
   1.255559e+02   2.916751e+02
  -2.008532e+02   2.921102e+02
  -3.541140e+02   7.233631e+01
  -2.026355e+02  -1.127377e+02
   2.033832e+01  -2.037350e+02
   2.030224e+02  -2.873850e+02
   3.217300e+02  -2.281307e+02
   3.290703e+02   1.018176e+02
   6.562505e+01   4.813921e+02
  -1.698327e+02   4.414570e+02
  -2.140940e+02   1.047543e+02
  -8.253990e+01  -5.958595e+01
  -2.465786e+01   8.863469e+01
  -1.347412e+02   1.351170e+02
  -2.796128e+02  -7.003559e+01
  -1.480702e+02  -2.747551e+02
   6.252528e+01  -2.773077e+02
   2.259992e+02  -2.765948e+01
   1.967046e+02   2.368825e+02
   4.710436e+01   3.419023e+02
  -3.031282e+02   8.301928e+01
  -3.189405e+02  -1.838357e+02
  -1.944789e+02  -3.478792e+02
   1.631144e+02  -3.142535e+02
   2.484635e+02  -1.345732e+02
   1.642753e+02   4.602876e+01
   1.012497e+02  -3.226418e+01
   2.325498e+02  -1.896699e+01
   4.110153e+02   6.069631e+01
   3.179832e+02   3.046712e+02
   1.601106e+01   4.750700e+02
  -3.052910e+02   4.119333e+02
  -4.800555e+02   2.349174e+02
  -3.706696e+02  -1.093213e+02
  -8.918168e+01  -2.813859e+02
   1.093574e+02  -2.362279e+02
   8.772887e+01  -7.379827e+01
  -9.846389e+01   8.736631e+01
  -2.041594e+02   2.005731e+01
  -9.771024e+01  -1.948836e+02
   1.798957e+02  -2.262314e+02
   1.657257e+02   6.084454e+01
  -8.282664e-01   2.238190e+02
  -2.055021e+02   7.190647e+01
  -1.442049e+02  -2.636055e+02
   3.826027e+01  -3.630868e+02
   2.110111e+02  -2.040000e+02
   3.450465e+02   4.392276e+01
   2.327338e+02   2.735752e+02
   1.231797e+02   2.877884e+02
  -1.118567e+02   1.354372e+02
  -1.892941e+02   1.628564e+01
  -8.650964e+01  -6.513746e+01
   9.934349e+01   1.267720e+01
   4.063127e+01   1.227211e+02
  -1.417870e+02   1.269453e+02
  -2.336571e+02   2.425999e+01
  -8.280642e+01  -7.219176e+01
   4.042989e+01  -1.304018e+01
   4.433566e+01   7.337387e+01
  -1.434714e+02   1.007557e+02
  -2.520460e+02  -1.062815e+01
  -2.586319e+02  -1.603117e+02
  -9.382934e+01  -2.666687e+02
   1.732822e+02  -3.021082e+02
   3.518859e+02  -1.375524e+02
   1.636829e+02   4.524122e+01
  -3.627330e+01   1.413765e+02
  -9.346068e+01   2.366550e+00
   1.718490e+01  -9.552708e+01
   2.188762e+02  -6.815089e+01
   2.276792e+02   1.370009e+02
   1.007362e+02   2.093031e+02
  -9.254561e+01   1.597550e+02
  -1.190763e+02   2.214844e+01
  -6.399138e+01  -1.422151e+01
   2.290343e+01   2.602472e+01
   5.754251e+01   1.218468e+02
  -6.417180e+01   1.124820e+02
  -1.619669e+02   4.698780e+01
  -1.995463e+02  -1.514198e+02
  -5.984231e+00  -2.061979e+02
   1.235429e+02  -1.489383e+02
   2.015365e+02   1.405474e+01
   6.673959e+01   1.271166e+02
  -7.845192e+01   1.275610e+02
  -6.212180e+01   3.099500e+01
   1.096169e+00  -3.441863e+01
   3.853897e+00  -2.910988e+01
  -3.583719e+00   8.615658e+00
  -8.585912e+01   7.010205e+00
  -9.092037e+01  -5.649788e+01
  -2.429006e+01  -1.694918e+02
   1.194100e+02  -1.384967e+02
   2.012946e+02  -1.588202e+01
   2.022685e+02   1.584054e+02
   2.311180e+01   2.404273e+02
  -1.323077e+02   1.602536e+02
  -1.437034e+02   4.259009e+01
  -4.740987e+01  -7.638357e+01
  -2.138717e+01  -3.284779e+01
  -9.164005e+01   2.553899e+01
  -6.047438e+01   6.099700e+00
  -3.667927e+01  -6.024158e+01
   6.559078e+01  -8.351980e+01
   1.394836e+02  -4.578096e+01
   5.730796e+01   1.259610e+01
  -3.526310e+01   1.063203e+02
  -1.805848e+02   7.508732e+01
  -2.269252e+02  -7.026195e+01
  -8.645991e+01  -1.957417e+02
   1.191470e+02  -2.409243e+02
   2.724722e+02  -8.130919e+01
   2.866663e+02   7.624146e+01
   1.252757e+02   1.933466e+02
  -2.510050e+01   1.644782e+02
  -1.202487e+02   1.484912e+02
  -7.357434e+01   4.100561e+01
  -5.812879e+01   1.161188e+02
  -1.250415e+02   1.401244e+02
  -1.309080e+02  -2.544578e+01
  -1.180808e+02  -1.776897e+02
  -3.585406e+01  -2.519268e+02
   6.200703e+01  -1.947612e+02
   2.284114e+02  -2.058310e+01
   1.675112e+02   1.118577e+02
   5.885174e+01   1.565087e+02
  -6.439394e+01   7.159550e+01
  -4.753815e+01  -4.225147e+01
  -2.327835e+01  -4.258606e+01
   6.678237e-01  -2.067710e+01
  -4.738556e+00  -7.092724e-01
  -7.537054e+01  -9.641677e+00
  -4.844746e+01  -7.459548e+01
   8.242091e+01  -4.127037e+01
   1.393921e+02  -3.613417e+01
   1.310638e+02   7.160764e+01
  -1.637840e+00   1.177795e+02
  -1.115659e+02   4.365478e+01
  -1.792464e+02  -1.281800e+01
  -6.122226e+01  -5.606620e+01
   3.825856e+01   3.606821e+00
   6.162238e+01   1.145085e+01
   1.392955e+01   9.461906e+01
  -6.593969e+01   5.379187e+01
  -5.840000e+01  -3.951813e+00
  -3.395782e+01  -4.412180e+01
  -5.060522e+01  -4.058815e+01
  -6.410760e+01  -1.546285e+01
  -8.280591e+01   1.983415e+00
  -1.253547e+01  -8.353542e+01
   2.769913e+01  -1.785072e+02
   1.209834e+02  -1.409370e+02
   1.602080e+02  -2.004247e+01
   1.456604e+02   9.371451e+01
   1.110985e+01   1.156796e+02
  -1.000066e+02   4.229604e+01
  -2.507116e+01  -1.447630e+01
   5.825587e+01  -1.232366e+01
   9.861241e+01   5.642905e+01
   6.690838e+01   9.279300e+01
  -6.799541e+01   8.535754e+01
  -1.960271e+02   5.009042e+01
  -1.737954e+02  -2.847683e+01
  -3.395266e+01  -6.181608e+01
   6.060657e+01  -5.759196e+01
   4.447966e+01   3.031730e+01
  -3.640623e+01   5.900431e+01
  -8.643123e+01  -1.159651e+01
  -4.997592e+01  -1.279212e+02
   1.040752e+02  -1.047642e+02
   1.856308e+02  -5.781656e+01
   1.035972e+02   1.475130e+02
  -1.105604e+01   1.962832e+02
  -1.105917e+02   1.456571e+02
  -8.324872e+01  -1.708491e+00
  -4.072259e+01  -1.135824e+02
  -2.352924e+00  -1.057314e+02
   5.400583e+00  -9.203788e+00
   7.135594e+01   3.591730e+01
   2.681090e+01   2.246398e+01
   3.257297e+01  -2.876046e+01
   4.002198e+01   2.856663e+01
   2.976030e+01   6.838526e+01
   3.637633e+01   6.062661e+01
  -6.679318e+01   6.217725e+01
  -1.219114e+02  -6.848596e+01
  -1.081764e+02  -7.272981e+01
  -2.609402e+01  -3.011127e+01
   1.200604e+02   7.958125e+00
   9.053298e+01  -3.571348e+01
  -1.006261e+01   2.329476e+01
  -3.777388e+01   2.118146e+01
  -1.911584e+01   1.917030e+01
   2.767240e+01   1.978699e+01
   2.468126e+01   9.133031e+00
  -4.973514e+01  -4.420031e+01
  -1.028093e+02  -9.275431e+00
   8.843071e+00  -5.868946e+01
   1.319295e+02  -1.337024e+02
   1.695242e+02  -4.739649e+01
   1.256686e+02   1.022943e+02
   2.758910e+01   1.571054e+02
  -8.546003e+01   1.176540e+02
  -1.148710e+02   8.361513e+01
  -6.215114e+01  -6.419819e+00
  -1.827218e+01  -4.675069e+01
   9.491454e+00   2.057486e+00
  -1.746286e+01  -3.690820e+01
  -4.801888e+01  -5.770842e+01
  -3.033366e+01  -8.960376e+01
   4.798883e+01  -5.225898e+01
   5.352693e+01  -1.262114e+00
   7.408381e+01   1.272247e+02
  -6.347816e+00   1.364943e+02
  -1.053242e+02   1.830739e+01
  -1.597983e+02  -4.277163e+01
  -4.314899e+01  -1.019517e+02
   6.843189e+01  -5.268368e+01
   7.687076e+01  -3.021582e+01
   4.050334e+00   3.587090e+01
  -6.383947e+01   4.204431e+01
  -3.971874e+01   5.377667e+01
   4.244749e+01  -3.841577e-01
   9.086632e+01   1.075750e+01
   4.335813e+01   5.366575e+01
  -6.468160e+01   6.689921e+01
  -1.175129e+02   8.247643e+01
  -5.916459e+01  -9.341118e+00
   3.807991e+01  -8.706930e+01
   5.667155e+01  -5.195443e+01
   4.671278e+01  -3.782685e+01
   2.650412e+00   8.961952e+01
  -3.814312e+01   1.208170e+01
  -3.608446e+01  -3.262669e+01
   2.144065e+00  -5.771564e+01
   1.445121e+01  -2.735218e+01
   3.725400e+01   2.556736e+01
   7.615900e+01   3.015656e+01
  -1.029009e+01  -3.406550e+00
  -1.491179e+01  -3.169231e+01
   2.333022e+00   9.312199e+00
   5.722347e+00   3.809090e+01
  -4.073891e+01   1.024541e+01
  -2.922821e+01   1.214481e+01
  -3.371737e+01  -6.689151e+01
   5.393325e+01  -5.152555e+01
   6.403135e+01  -2.843419e+01
   1.384931e+01   3.618184e+01
   3.785517e+01   8.760842e+01
  -2.482236e+00   4.892580e+01
  -8.472200e+01   1.161054e+00
  -4.654016e+01  -4.678254e+01
   2.034420e+01  -3.824637e+01
   5.041408e+01  -2.961610e+00
   2.799956e+01   2.569139e+01
  -2.340234e+01  -5.121623e+00
  -5.636233e+01  -2.361021e+01
   6.018959e+01  -3.554819e+01
   8.551849e+01  -3.501712e+01
