
 $NMID
 id='ANONYMOUS ', fmtdat='(2E16.6)'
 volume=1.0
 tramp=1.0
 $END
   4.670294e+03   6.163605e+01
   2.811161e+03   2.856286e+03
  -1.089970e+03   3.065314e+03
  -2.635499e+03   9.653216e+02
  -1.138840e+03  -9.444888e+02
   8.648703e+02  -7.944179e+02
   1.083438e+03   5.140239e+02
   1.177361e+01   1.282472e+03
  -9.765714e+02   8.665915e+02
  -1.055161e+03  -1.012214e+02
  -4.740730e+02  -9.857849e+02
   2.849804e+02  -1.010913e+03
   7.740371e+02  -1.219101e+02
   4.755953e+02   8.016457e+02
  -3.146927e+02   8.508516e+02
  -6.907474e+02  -1.518284e+01
  -2.600205e+02  -7.275792e+02
   3.674321e+02  -6.677796e+02
   6.668845e+02  -5.820912e+01
   4.033141e+02   3.907894e+02
   2.637268e+01   4.878232e+02
  -2.857305e+02   2.765528e+02
  -2.880541e+02   4.942530e+01
   6.806128e+01  -1.124972e+02
   4.234351e+02   6.374571e+01
   2.206064e+02   4.445790e+02
  -4.484819e+02   4.599134e+02
  -9.029122e+02  -4.841910e+01
  -4.883936e+02  -6.434955e+02
   4.146448e+02  -6.381584e+02
   8.191713e+02  -4.975711e+01
   4.362018e+02   5.211539e+02
  -2.466217e+02   5.884036e+02
  -5.886183e+02   2.773413e+02
  -4.829547e+02  -2.447770e+02
  -9.318869e+01  -5.232289e+02
   2.531105e+02  -3.328399e+02
   2.778035e+02   1.942869e+02
  -1.554467e+02   5.056676e+02
  -5.122132e+02   3.687121e+00
  -2.510021e+02  -7.216302e+02
   3.788331e+02  -7.546498e+02
   7.064539e+02  -1.684438e+01
   2.859947e+02   5.992590e+02
  -3.575464e+02   3.572632e+02
  -4.289760e+02  -3.219008e+02
   2.901409e+01  -5.960463e+02
   6.279909e+02  -1.370551e+02
   6.436701e+02   4.250584e+02
   1.796435e+02   6.009865e+02
  -3.914185e+02   3.755713e+02
  -6.877490e+02  -6.044065e+01
  -3.571553e+02  -4.029745e+02
   1.903726e+02  -4.372504e+02
   4.828955e+02  -4.007361e+01
   2.766618e+02   2.453507e+02
  -1.120564e+02   1.621053e+02
  -1.864624e+02  -1.838885e+02
   2.204552e+02  -2.034189e+02
   3.522781e+02   2.735531e+01
   1.725290e+02   3.072086e+02
  -2.115604e+02   2.733250e+02
  -3.060280e+02   6.022051e+00
  -1.547453e+02  -7.591554e+01
   4.078157e+01  -1.953895e+02
   2.106867e+02  -3.350318e+02
   3.294672e+02  -2.475381e+02
   3.067778e+02   1.459327e+02
   8.280904e+01   4.624392e+02
  -1.768632e+02   4.381274e+02
  -1.329867e+02   5.699499e+01
  -4.988119e+01  -4.691584e+01
   6.884060e+00   1.030407e+02
  -1.806150e+02   1.569539e+02
  -2.437107e+02  -1.207306e+00
  -1.895375e+02  -2.570461e+02
   5.455523e+01  -2.642943e+02
   2.529770e+02  -7.252496e+01
   2.261892e+02   2.411970e+02
  -5.631242e+00   3.487984e+02
  -2.617314e+02   2.004242e+02
  -3.788928e+02  -1.604951e+02
  -2.220747e+02  -3.767341e+02
   1.169013e+02  -3.041716e+02
   2.362426e+02  -1.073199e+02
   1.481159e+02   1.737825e+01
   8.252265e+01  -8.609446e+00
   2.606748e+02  -6.491812e+01
   4.146545e+02   2.672262e+01
   3.346963e+02   3.036291e+02
  -1.266877e+01   4.681934e+02
  -3.841618e+02   4.311214e+02
  -4.926508e+02   2.062243e+02
  -3.567030e+02  -4.055405e+01
  -7.328068e+01  -3.130981e+02
   1.441221e+02  -3.154071e+02
   8.914878e+01   2.177806e+00
  -8.786395e+01   1.435569e+02
  -2.357352e+02   4.265277e+01
  -5.420690e+01  -2.190282e+02
   1.688434e+02  -2.024552e+02
   2.278219e+02   4.375795e+01
  -2.793387e+01   1.973857e+02
  -2.041953e+02   3.452371e+01
  -1.652693e+02  -2.416786e+02
  -1.730209e+01  -4.089391e+02
   2.021648e+02  -2.063921e+02
   3.207693e+02   8.322625e+01
   2.623753e+02   1.951047e+02
   8.209704e+01   2.104385e+02
  -9.889034e+01   1.684268e+02
  -2.313889e+02   6.309240e+01
  -7.759473e+01  -1.608716e+01
   7.311837e+01   1.110056e+01
   1.679122e+01   1.250222e+02
  -9.753463e+01   9.739825e+01
  -1.756212e+02   1.818376e+01
  -1.077360e+02  -9.057554e+01
   7.133805e+01  -2.129514e+01
   8.469538e+01   6.681240e+01
  -1.239750e+02   8.421819e+01
  -2.780846e+02   2.781514e+01
  -2.504860e+02  -1.497484e+02
  -8.170848e+01  -2.575332e+02
   1.743270e+02  -3.115679e+02
   2.964314e+02  -1.128705e+02
   1.354743e+02   3.660873e+01
  -3.775041e+01   1.254465e+02
  -1.252829e+02   5.481493e+01
   4.951254e+01  -1.253002e+02
   1.728488e+02  -7.501425e+01
   2.170520e+02   2.427808e+01
   4.985054e+01   2.218622e+02
  -1.097949e+02   1.631602e+02
  -1.692748e+02   2.042513e+01
  -8.437136e+01  -4.117168e+01
   3.932669e+01  -2.551719e+01
   6.756202e+01   7.444298e+01
  -5.518096e+01   8.839022e+01
  -1.793677e+02   7.295502e+00
  -1.904312e+02  -1.292888e+02
  -4.359091e+01  -2.351808e+02
   1.738646e+02  -1.865346e+02
   1.813525e+02  -1.734516e+00
   1.116561e+02   8.347895e+01
  -5.106325e+01   1.254167e+02
  -9.146581e+01   3.768075e+01
  -1.590567e+00  -3.227250e+00
  -3.341611e+00  -1.486174e+01
  -4.004550e+01  -3.811922e+01
  -2.544378e+01   1.353239e+01
  -2.888497e+01  -5.918187e+01
  -1.210842e+01  -1.328880e+02
   1.858809e+02  -1.501547e+02
   2.583767e+02  -6.085497e+01
   2.129099e+02   1.270535e+02
   3.347662e+01   2.444783e+02
  -1.103047e+02   1.683914e+02
  -1.586992e+02  -1.451528e+01
  -7.871462e+01  -5.125642e+01
  -5.386181e+01  -3.948334e+01
  -3.948411e+01  -3.046022e+00
  -1.022187e+02  -1.636453e+01
  -3.503530e+01   3.042743e+00
   4.434280e+00  -6.652460e+01
   9.418017e+01  -4.950298e+01
   6.193052e+01   4.281770e+01
  -2.423003e+01   1.116981e+02
  -1.717899e+02   9.948047e+01
  -1.889696e+02  -4.201306e+01
  -1.546922e+02  -2.250423e+02
   1.206205e+02  -2.603851e+02
   2.867980e+02  -1.168947e+02
   2.591692e+02   7.750461e+01
   1.165562e+02   1.506523e+02
  -2.019790e+01   1.428785e+02
  -1.243412e+02   1.162911e+02
  -9.263175e+01   8.342743e+01
  -5.119269e+01   9.234300e+01
  -1.092365e+02   7.922845e+01
  -1.204015e+02  -4.009400e+01
  -1.068280e+02  -1.661862e+02
  -5.982532e-01  -2.684636e+02
   1.037256e+02  -1.561487e+02
   1.832176e+02  -3.722544e+01
   1.379740e+02   1.093546e+02
  -1.956187e+01   1.797715e+02
  -9.605835e+01   4.985924e+01
  -3.683116e+01   8.464939e+00
  -1.857879e+01  -5.953317e+00
  -7.387230e+00  -3.688474e+01
  -5.784422e+01   2.391913e+01
  -8.011222e+01  -5.003661e+00
  -5.807866e+01  -6.600363e+01
   7.668148e+01  -4.119801e+01
   1.683258e+02   2.286224e+01
   1.487557e+02   4.133858e+01
   5.116494e+01   1.222196e+02
  -1.065373e+02   9.353732e+01
  -1.111483e+02   3.534359e+01
  -6.448427e+01  -7.107191e+01
   2.052377e+01  -5.685451e+01
   7.739245e+01  -6.320724e+00
  -2.130010e+01   5.330823e+01
  -7.822045e+01   6.175775e+01
  -1.143081e+02   1.186190e-02
  -2.646318e+01  -8.181516e+01
  -5.009424e+01  -1.972328e+00
  -1.033152e+02  -2.280880e+01
  -5.194820e+01   2.392553e+01
  -1.749946e+01  -6.446643e+01
   2.029446e+01  -1.887200e+02
   1.070562e+02  -1.211585e+02
   1.301021e+02  -8.638146e+01
   1.502649e+02   1.288579e+02
   3.884139e+01   1.365661e+02
  -7.202371e+01   5.704553e+01
  -6.561980e+01  -3.808497e+01
   5.063120e+01   6.632008e+00
   1.454343e+02   2.761940e+01
   1.103619e+02   1.290094e+02
  -8.025265e+01   1.392886e+02
  -1.932602e+02   3.229301e+01
  -1.788207e+02  -4.105418e+01
  -7.612081e+01  -1.062206e+02
   5.811879e+01  -4.764607e+01
   3.680572e+01  -1.409133e+01
  -4.291941e+01   2.602373e+01
  -9.582052e+01  -2.141766e+01
  -3.178064e+01  -1.325675e+02
   1.054642e+02  -1.290277e+02
   1.958330e+02  -3.753803e+01
   6.246735e+01   1.287497e+02
   1.195395e+01   1.895470e+02
  -8.535599e+01   1.490349e+02
  -9.022887e+01  -1.966852e+01
  -5.101712e+01  -1.068239e+02
  -2.584009e+01  -8.020549e+01
   3.016343e+01  -1.107440e+01
   9.410016e+01   1.861337e+01
   4.176346e+00   5.005706e+00
   6.774477e+00   1.588240e+01
   3.540743e+01   5.170155e+01
   8.181555e+01   8.974530e+01
   2.591109e+01   1.250759e+02
  -3.280533e+01   6.334440e+01
  -1.676068e+02  -8.179901e+01
  -1.334839e+02  -9.561099e+01
   2.286868e+00  -1.474908e+01
   5.727057e+01  -3.431225e+01
   8.919954e+01  -1.037032e+01
  -3.070295e+00   2.056395e+01
  -5.110160e+01  -3.717037e+00
  -4.552990e+00   3.532342e+01
  -1.236588e+01   6.114499e+00
  -9.240629e+00  -2.715919e+01
  -7.865549e+01   1.927878e+01
  -7.099313e+01  -2.081911e+00
  -3.794355e+01  -8.408928e+01
   9.966580e+01  -1.039217e+02
   1.828217e+02  -6.914780e+01
   1.819223e+02   5.902337e+01
   4.302585e+01   1.571317e+02
  -6.085051e+01   1.140133e+02
  -1.293144e+02   3.842842e+01
  -3.910867e+01   9.558098e+00
  -1.160486e+01  -3.321061e+01
  -6.564911e+00  -2.451293e+01
   2.090488e+01  -4.004703e+01
  -3.018200e+01  -5.858059e+01
  -2.442269e+01  -1.058730e+02
   5.373185e+00  -4.392538e+01
   9.138876e+01   2.783916e+01
   8.570834e+01   9.263474e+01
   6.424514e+00   1.051415e+02
  -6.921949e+01   1.895902e+00
  -8.013268e+01  -1.022450e+02
  -7.406385e+00  -9.794261e+01
   7.879573e+01  -7.448590e+01
   1.089080e+02   1.240981e+01
   4.741264e+01   1.455627e+01
  -3.379399e+01   7.970056e+01
  -2.213998e+01  -6.077642e+00
  -5.067811e+00   1.418558e+01
   7.066998e+01  -2.863682e+01
   4.410118e+01   1.421485e+01
  -1.008007e+02   7.919175e+01
  -1.236652e+02   7.024529e+01
  -3.036400e+01  -2.598964e+01
   2.363910e+01  -6.498276e+01
   6.060107e+01  -6.541357e+01
   4.794779e+01  -2.402735e+01
  -3.489721e+00   6.271207e+01
  -3.016427e+01   2.367057e+01
  -2.919830e+01  -1.560577e+00
   2.100397e+01  -3.522573e+01
  -3.138042e+00  -7.124754e+00
   2.052414e+01   9.873988e+00
   4.894204e+01   1.328894e+00
   6.970307e+00   1.483179e+01
  -2.312786e+01   7.252157e+00
   3.605225e+00  -1.335876e+01
  -7.011412e+00   2.061346e+01
   1.532970e+01   4.003028e+01
  -4.522356e+01   2.228634e+01
  -3.612923e+01  -5.309970e+01
   5.717603e+01  -8.758131e+01
   6.067301e+01  -3.640664e+01
   6.401021e+01   7.757469e+01
  -3.253124e+00   7.967156e+01
  -3.781396e+01   5.498752e+00
  -1.133611e+02   1.403292e+01
  -6.901146e+01  -6.532508e+01
   5.506717e+01  -6.974015e+01
   9.021152e+01  -6.823996e+00
   4.786168e+01   2.229209e+01
  -5.217009e+01   3.142700e+01
  -4.583075e+01  -4.458139e+01
   1.490443e+01  -4.229547e+01
   1.084606e+02  -1.445848e+01
