
 $NMID
 id='ANONYMOUS ', fmtdat='(2E16.6)'
 volume=1.0
 tramp=1.0
 $END
  -4.302463e+03  -1.807339e+02
  -2.551736e+03  -2.519163e+03
   8.954784e+02  -2.820143e+03
   2.292082e+03  -8.234531e+02
   9.551969e+02   8.168517e+02
  -7.491184e+02   6.449877e+02
  -9.649750e+02  -4.758893e+02
   2.614172e+00  -1.076448e+03
   8.821796e+02  -7.926080e+02
   9.561241e+02   2.123753e+02
   3.706749e+02   9.434284e+02
  -2.728920e+02   9.256943e+02
  -6.429198e+02   9.248572e+01
  -3.616122e+02  -7.086189e+02
   3.088701e+02  -8.112024e+02
   6.256884e+02   4.697585e+01
   2.527176e+02   6.926891e+02
  -3.518128e+02   6.383468e+02
  -6.074221e+02   4.646249e+01
  -3.715859e+02  -3.380440e+02
   3.407924e+01  -4.518268e+02
   3.234852e+02  -2.994291e+02
   2.406450e+02  -1.987640e+01
  -4.777602e+01   2.780144e+01
  -4.427822e+02  -1.127047e+02
  -2.263604e+02  -4.557781e+02
   4.554943e+02  -4.538917e+02
   8.541978e+02   1.203475e+02
   4.300428e+02   6.096346e+02
  -4.096238e+02   5.264674e+02
  -7.326708e+02  -5.303358e+01
  -3.586534e+02  -4.914004e+02
   2.544747e+02  -5.616768e+02
   6.199494e+02  -2.125917e+02
   4.123002e+02   2.226570e+02
   8.209675e+01   4.889484e+02
  -2.277211e+02   3.209322e+02
  -2.285080e+02  -2.133651e+02
   1.592813e+02  -4.579432e+02
   4.636916e+02   3.446499e+00
   2.029818e+02   7.158333e+02
  -3.551194e+02   6.744019e+02
  -6.362859e+02  -5.866152e+01
  -2.990517e+02  -5.980754e+02
   3.632947e+02  -2.927868e+02
   3.803285e+02   3.304843e+02
  -7.870529e+01   5.713209e+02
  -5.600160e+02   1.105858e+02
  -6.167328e+02  -3.721740e+02
  -1.666871e+02  -5.796103e+02
   4.231908e+02  -3.539747e+02
   6.371614e+02   1.167594e+02
   3.666193e+02   4.233349e+02
  -1.683693e+02   4.169296e+02
  -4.735352e+02   3.991813e+01
  -3.018959e+02  -1.875143e+02
   1.154211e+02  -1.237736e+02
   1.479723e+02   1.399867e+02
  -1.610454e+02   2.081014e+02
  -3.305246e+02  -5.831926e+01
  -1.389925e+02  -2.997677e+02
   2.187572e+02  -2.572788e+02
   3.207868e+02  -5.147190e+01
   2.194721e+02   8.261448e+01
  -5.443146e+01   2.016317e+02
  -2.331034e+02   3.265408e+02
  -3.085372e+02   2.521435e+02
  -2.949552e+02  -1.150962e+02
  -6.589264e+01  -4.760412e+02
   1.565531e+02  -4.132869e+02
   1.154991e+02  -9.812475e+01
   3.659935e+01   8.870825e+01
   2.726792e+01  -4.491026e+01
   1.636627e+02  -1.099647e+02
   2.636434e+02   5.384687e+01
   1.685585e+02   2.799183e+02
  -5.020209e+01   2.797522e+02
  -2.106205e+02   2.568582e+01
  -2.025069e+02  -2.379846e+02
   3.700768e+01  -2.399610e+02
   2.658466e+02  -1.594399e+02
   3.692297e+02   1.799432e+02
   1.891295e+02   3.619480e+02
  -9.320351e+01   2.648152e+02
  -1.982817e+02   1.353698e+02
  -1.265973e+02  -2.846568e+01
  -1.156868e+02   7.505846e+00
  -2.923129e+02   4.868944e+01
  -4.133649e+02  -4.597732e+01
  -3.289243e+02  -2.931425e+02
   5.130607e+01  -4.065972e+02
   3.668254e+02  -3.343863e+02
   4.864673e+02  -1.637685e+02
   3.292201e+02   8.927703e+01
   7.078395e+01   2.837523e+02
  -1.441505e+02   2.886750e+02
  -8.336993e+01   3.275378e+01
   9.697507e+01  -1.296519e+02
   2.032792e+02   4.653839e+00
   6.449623e+01   1.692185e+02
  -1.597265e+02   1.841995e+02
  -1.599554e+02  -4.151788e+01
   2.984456e+01  -1.667375e+02
   1.859352e+02  -4.996922e+01
   1.673064e+02   3.014239e+02
  -2.946808e+01   3.452885e+02
  -1.818059e+02   1.683258e+02
  -3.176628e+02  -8.003754e+01
  -2.614424e+02  -2.488523e+02
  -1.096489e+02  -2.520174e+02
   1.098730e+02  -1.344709e+02
   1.314891e+02  -2.960906e+01
   8.623254e+01   5.402227e+01
  -7.269125e+01  -4.291019e+01
  -2.925272e+01  -1.263622e+02
   1.000749e+02  -1.004446e+02
   1.606486e+02   3.656085e+01
   8.864413e+01   7.568099e+01
  -7.723701e+01  -1.586026e+01
  -4.924594e+01  -9.479684e+01
   7.620510e+01  -1.147257e+02
   2.563211e+02   1.733433e+01
   2.614516e+02   1.146083e+02
   8.338288e+01   2.265186e+02
  -1.536213e+02   2.375029e+02
  -3.057958e+02   1.499195e+02
  -1.779069e+02  -5.273851e+01
   5.371414e+00  -1.231801e+02
   9.235379e+01  -2.410488e+01
  -1.700433e+00   9.150818e+01
  -1.588583e+02   6.047419e+01
  -2.171234e+02  -1.340298e+02
  -1.083652e+01  -1.667381e+02
   1.070365e+02  -1.764177e+02
   1.620504e+02  -1.115066e+01
   8.429354e+01   3.753890e+01
  -1.832653e+01  -1.310223e+01
  -1.021127e+02  -8.945794e+01
   4.860123e+01  -1.111336e+02
   1.799066e+02  -2.652231e+00
   1.925259e+02   1.264430e+02
   1.877657e+01   2.162356e+02
  -1.639162e+02   1.482459e+02
  -1.656183e+02   2.170570e+01
  -8.457803e+01  -8.853363e+01
   6.945841e+01  -1.382339e+02
   1.144716e+02  -3.564680e+01
   5.203910e+01   1.850197e+01
  -2.293875e+01   3.801287e+01
   1.546226e+01   6.379929e+00
   4.857646e+01   1.900908e+01
   1.549639e+01   7.696483e+01
  -4.292413e+00   1.102153e+02
  -9.360441e+01   1.460675e+02
  -2.173115e+02   6.511188e+00
  -2.429654e+02  -1.443730e+02
  -4.938817e+01  -2.678824e+02
   9.773018e+01  -1.564397e+02
   1.302187e+02  -5.089698e+01
   9.062413e+01   7.080317e+01
   2.595896e+01   3.718975e+01
   6.727503e+00   1.052680e+01
   7.146418e+01   7.289891e+00
   4.461967e+01   5.336583e+01
  -2.217020e+01   8.375894e+01
  -1.112622e+02   1.697351e+01
  -5.380496e+01  -4.083041e+01
   1.836835e+01  -8.986976e+01
   1.483075e+02  -8.416997e+01
   1.790231e+02   1.852809e+01
   7.339149e+01   2.111231e+02
  -9.949381e+01   2.166468e+02
  -2.633808e+02   6.752781e+01
  -2.179095e+02  -7.369787e+01
  -1.160719e+02  -1.757478e+02
   7.885364e+01  -1.454051e+02
   6.482622e+01  -8.333182e+01
   8.121027e+01  -8.789960e+01
   5.520364e+01  -6.741915e+01
   1.091932e+02  -8.920025e+01
   1.326431e+02   8.245389e+00
   1.380509e+02   1.573768e+02
  -4.630744e+00   2.646760e+02
  -1.222166e+02   1.667368e+02
  -1.619946e+02   3.782623e+01
  -1.160439e+02  -1.667381e+02
  -1.956934e+01  -1.692142e+02
   8.957993e+01  -9.244820e+01
   4.941202e+01   9.633039e+00
  -2.802564e+01   3.836367e+01
  -1.863394e+01   5.158976e+01
   4.029935e+01   1.706019e+01
   1.006523e+02   8.229876e+00
   9.608899e+01   1.533296e+01
  -6.310315e+01   2.283503e+01
  -1.458430e+02   9.307407e-02
  -1.287564e+02  -7.104284e+01
   6.517272e+00  -8.921716e+01
   1.118239e+02  -6.029034e+01
   1.204892e+02  -1.587807e+01
   9.806469e+00   5.716908e+01
  -6.458198e+01  -6.623972e-01
  -7.904931e+01  -1.873890e+00
  -1.034894e+00  -5.667713e+01
   2.224429e+01  -2.017805e+01
   6.895890e+01   2.196270e+01
   2.025546e+01   5.505102e+01
   5.671820e+01   3.120509e+01
   8.497566e+01  -3.372533e+00
   6.081581e+01  -6.317088e-01
   1.535979e+01   2.902881e+01
  -6.269322e+01   1.577071e+02
  -1.078187e+02   1.512195e+02
  -1.347025e+02  -1.354515e+01
  -9.246853e+01  -1.108765e+02
  -1.245312e+01  -1.073056e+02
   8.347244e+01  -4.953188e+01
   5.142523e+01   1.548447e+01
  -6.806163e+01   2.016299e+01
  -1.594684e+02  -4.850177e+01
  -7.198564e+01  -1.131041e+02
   7.835859e+01  -9.647674e+01
   2.060191e+02  -8.347279e+01
   1.505594e+02   2.286163e+01
   5.400271e+01   6.151690e+01
  -7.607089e+01   9.579674e+01
  -5.964793e+01   3.406667e+01
   3.313959e+01  -4.366769e+01
   7.980191e+01   5.058086e+01
  -8.183564e-01   1.230134e+02
  -8.174054e+01   1.461651e+02
  -1.626278e+02   4.277277e+01
  -1.136993e+02  -1.211196e+02
  -3.231964e+01  -2.258972e+02
   8.552970e+01  -1.207558e+02
   7.819231e+01  -8.793520e+00
   6.666159e+01   1.051283e+02
   4.356559e+00   1.294730e+02
  -2.052354e+01   3.303815e+01
  -2.740027e+01  -1.763662e+01
  -2.711852e+01  -9.800409e+00
   1.257598e+01   1.068924e+01
   1.050263e+00   2.169718e+01
  -3.693999e+01  -5.639019e+01
  -4.015519e+01  -1.168389e+02
   3.985327e+01  -3.430696e+01
   1.430331e+02   6.095494e+01
   8.328495e+01   6.452611e+01
   1.681215e+01   3.922529e+01
  -6.862410e+01   7.179361e-01
  -8.184326e+01   7.022120e+00
   8.214600e+00  -2.740959e+01
   2.603181e+01  -3.088064e+01
   1.948352e+01  -7.105592e+00
   3.527917e+01   6.402928e+00
  -1.518914e+00   1.978442e+01
   6.300144e+01   2.646888e+01
   7.148287e+01   2.816857e+01
   1.448745e+01   8.576976e+01
  -1.380955e+02   7.352760e+01
  -1.790944e+02   4.080405e+01
  -1.114457e+02  -6.750694e+01
  -1.766727e+01  -1.437419e+02
   9.676220e+01  -1.409172e+02
   9.697853e+01  -5.473712e+01
   6.001148e+01   6.459433e+01
   1.345117e+01   5.014875e+01
  -1.666452e+01   9.460999e+00
   4.588578e+01  -3.448618e+01
   4.517907e+01   7.722910e+01
   3.506911e+01   6.367337e+01
  -5.323886e+01   4.617603e+01
  -7.898855e+01  -7.770996e-01
  -7.146072e+01  -7.997562e+01
  -9.160316e+00  -1.202399e+02
   6.006771e+01  -3.097788e+01
   8.597004e+01   6.184626e+01
   5.793235e+01   1.066973e+02
  -7.764869e+01   2.786066e+01
  -8.824243e+01   2.391580e+01
  -1.234714e+01  -8.584554e+01
   1.508536e+01  -1.087781e+02
   3.123506e+00  -3.272871e+01
  -2.392422e+01  -2.373881e+01
  -7.612153e+01   1.947374e+01
  -4.716126e+01  -7.045914e+01
   6.411190e+01  -7.100160e+01
   1.135985e+02  -6.034184e+01
   9.974312e+01  -3.315359e+00
  -4.047849e+01   8.840094e+01
  -8.291259e+01   3.584291e+01
  -1.144131e+01  -6.049099e-01
   8.885959e+00  -2.323070e+01
   6.674754e+01   6.194113e+00
   6.396314e+01   7.027231e+00
   1.156742e+01   4.817556e+01
  -9.913085e+00   3.099168e+01
  -3.053827e+01   1.113711e+01
  -2.608515e+00  -5.653434e+01
  -3.786930e+01   4.779767e-01
   6.081420e+00   3.653176e-01
   2.173158e+01  -1.284049e+01
   4.149331e+01  -3.769316e+01
   4.242132e+01  -5.664375e+01
   3.269094e+01   1.143907e+01
   1.729396e+01   7.039935e+01
   1.563130e+00   3.832540e+01
  -2.516346e+01   1.544373e+01
  -6.458248e+01  -4.928413e+01
  -3.605810e+01  -5.165492e+01
   3.347947e+01  -1.200123e+01
   7.724740e+01  -8.904330e+00
   6.798712e+01   5.563325e+01
  -2.715549e+01   4.520307e+01
  -6.023924e+01   2.399418e+01
  -4.997190e+01   5.356154e+00
   4.498828e+01  -2.199547e+01
   4.581910e+01   2.004350e+01
  -4.797949e+01   2.516352e+01
  -9.039505e+01   1.552685e+01
