
 $NMID
 id='ANONYMOUS ', fmtdat='(2E16.6)'
 volume=1.0
 tramp=1.0
 $END
   4.699622e+03  -1.598859e+02
   3.038972e+03   2.637199e+03
  -7.248834e+02   3.056050e+03
  -2.309113e+03   1.073600e+03
  -1.163991e+03  -7.618860e+02
   6.841816e+02  -7.169579e+02
   1.046741e+03   4.258806e+02
   8.779825e+01   1.163991e+03
  -8.902066e+02   9.173999e+02
  -1.014378e+03  -3.606374e+01
  -5.016830e+02  -9.142845e+02
   2.401452e+02  -9.463437e+02
   6.891773e+02  -1.509201e+02
   4.338945e+02   7.471035e+02
  -2.327274e+02   7.738894e+02
  -6.330300e+02   2.764083e+01
  -3.122066e+02  -7.136207e+02
   3.724939e+02  -7.152623e+02
   6.569659e+02  -9.743164e+01
   4.184661e+02   3.953012e+02
   3.897310e+01   4.870680e+02
  -2.876154e+02   2.524188e+02
  -2.301771e+02   2.589010e+01
   1.095247e+02  -9.312927e+01
   4.010571e+02   8.443887e+01
   2.460663e+02   4.226328e+02
  -4.424917e+02   4.485974e+02
  -8.903245e+02  -4.524543e+00
  -4.898560e+02  -5.204166e+02
   3.495793e+02  -4.994962e+02
   7.348690e+02   1.614288e+01
   4.137905e+02   4.877526e+02
  -2.836122e+02   5.859655e+02
  -6.207208e+02   2.651333e+02
  -4.244574e+02  -2.201415e+02
  -6.076639e+01  -4.949865e+02
   2.038700e+02  -3.268692e+02
   2.126066e+02   1.667302e+02
  -1.401251e+02   4.802309e+02
  -4.694183e+02   2.141293e+01
  -3.193567e+02  -6.309796e+02
   2.903018e+02  -7.254281e+02
   6.686103e+02  -7.559354e+01
   3.061208e+02   5.344921e+02
  -2.974836e+02   3.076801e+02
  -4.070668e+02  -3.208705e+02
   6.845112e+01  -5.283849e+02
   5.823943e+02  -1.602652e+02
   6.172105e+02   4.575946e+02
   1.760313e+02   6.020152e+02
  -4.085084e+02   3.824311e+02
  -6.365816e+02  -3.481892e+01
  -3.446864e+02  -3.841743e+02
   1.191825e+02  -4.032424e+02
   5.142533e+02  -9.111281e+01
   2.931950e+02   2.127446e+02
  -1.496783e+02   1.458857e+02
  -1.838722e+02  -1.993356e+02
   1.427996e+02  -2.120725e+02
   3.706334e+02   1.093842e+02
   1.880178e+02   3.574275e+02
  -2.128340e+02   3.343236e+02
  -3.561993e+02   1.141279e+02
  -1.878836e+02  -1.436854e+02
   1.056770e+01  -2.375967e+02
   2.315506e+02  -3.139346e+02
   3.106747e+02  -2.798749e+02
   3.236105e+02   1.014602e+02
   8.501712e+01   4.860838e+02
  -9.415892e+01   3.733316e+02
  -1.217179e+02   9.805980e+01
  -7.699930e+01   1.015030e+01
  -3.836388e+01   7.695666e+01
  -1.720849e+02   1.337788e+02
  -2.584231e+02  -3.590819e+01
  -1.949577e+02  -3.057444e+02
   6.254079e+01  -2.886823e+02
   2.315354e+02  -5.471076e+01
   1.814384e+02   2.364625e+02
  -3.166445e+01   2.907370e+02
  -2.784215e+02   1.363242e+02
  -3.453657e+02  -1.868671e+02
  -1.652613e+02  -4.288515e+02
   7.839744e+01  -2.899737e+02
   2.325835e+02  -1.060435e+02
   1.712807e+02  -1.729319e+01
   9.515518e+01  -2.755506e+01
   1.962690e+02  -7.540868e+01
   3.992442e+02   5.420255e+01
   3.178164e+02   2.841239e+02
  -8.072839e+01   4.471460e+02
  -3.750579e+02   4.169257e+02
  -4.804629e+02   1.893097e+02
  -3.707062e+02  -9.664424e+01
  -4.989062e+01  -3.063270e+02
   1.549293e+02  -2.625090e+02
   5.032309e+01  -5.120154e+01
  -7.601890e+01   1.070440e+02
  -1.774987e+02   3.227322e+01
  -6.744110e+01  -1.848568e+02
   1.616798e+02  -2.281444e+02
   2.195798e+02   3.086780e+01
   4.210034e+01   2.145122e+02
  -2.071446e+02   8.029790e+01
  -1.453260e+02  -2.376468e+02
   3.856281e+01  -4.017320e+02
   2.511856e+02  -1.655688e+02
   3.290703e+02   9.507732e+01
   2.594887e+02   2.187570e+02
   1.009813e+02   2.538511e+02
  -1.646751e+02   1.374046e+02
  -1.821004e+02   3.397192e+01
  -7.812180e+01  -1.978110e+01
   3.611922e+01   5.105073e+01
   1.382159e+01   1.533355e+02
  -1.485212e+02   1.005887e+02
  -1.596115e+02   8.228624e+00
  -6.280791e+01  -7.970160e+01
   7.902749e+01   1.592632e+01
   2.929169e+01   8.058061e+01
  -1.265192e+02   8.499256e+01
  -2.371736e+02  -9.535418e+00
  -2.559798e+02  -1.567041e+02
  -7.255689e+01  -2.529259e+02
   1.620116e+02  -2.252153e+02
   2.874876e+02  -1.221517e+02
   1.997563e+02   5.875388e+01
  -3.083574e+01   1.215206e+02
  -9.415105e+01   3.552382e+01
  -3.771798e+00  -1.043305e+02
   2.245180e+02  -5.123045e+01
   2.313273e+02   1.231157e+02
   1.081520e+02   1.715869e+02
  -9.868663e+01   1.848982e+02
  -1.534481e+02   2.244355e+01
  -9.063347e+01  -3.575453e+01
   1.928885e+01   1.477580e+01
   4.103322e+01   4.738156e+01
  -1.097358e+02   8.390259e+01
  -2.013672e+02   8.084107e+00
  -1.710930e+02  -1.238651e+02
  -2.862827e+01  -2.647554e+02
   1.898428e+02  -2.042808e+02
   2.048775e+02   2.970221e+00
   9.322260e+01   1.013976e+02
  -7.623580e+01   1.051135e+02
  -7.891260e+01  -1.321649e+01
  -5.554468e+01  -8.820333e+00
   2.384021e+01  -3.343201e+01
  -4.627505e+01   1.836767e+01
  -9.967263e+01   1.252317e+01
  -5.715711e+01  -7.754381e+01
  -2.161621e+01  -1.296796e+02
   1.519836e+02  -1.798250e+02
   2.627314e+02  -2.116966e+01
   2.143407e+02   1.456410e+02
   2.892310e+01   2.631564e+02
  -1.184198e+02   1.873788e+02
  -1.600580e+02   3.686071e+01
  -9.063136e+01  -7.003667e+01
  -2.714065e+01  -5.130881e+00
  -5.898348e+01   9.186583e+00
  -4.986849e+01   2.244632e+01
  -3.829964e+01  -4.249576e+01
   2.659036e+01  -1.041173e+02
   3.808619e+01  -9.710340e+01
   5.635841e+01   2.709845e+01
   1.707852e+01   1.195357e+02
  -1.493803e+02   7.605885e+01
  -1.996066e+02  -4.360309e+01
  -8.468936e+01  -1.992902e+02
   1.517450e+02  -2.047637e+02
   2.589477e+02  -9.713775e+01
   2.871949e+02   6.261709e+01
   1.468173e+02   2.270212e+02
  -6.284366e+01   1.482003e+02
  -1.066057e+02   1.275722e+02
  -9.510223e+01   5.349438e+01
  -6.311377e+01   9.533071e+01
  -1.141290e+02   8.155106e+01
  -1.103159e+02  -2.332032e+01
  -1.237618e+02  -1.347798e+02
  -3.203662e+01  -1.995760e+02
   1.098287e+02  -1.449259e+02
   1.894509e+02  -4.444493e+01
   1.196350e+02   1.074499e+02
   3.140714e+01   1.270201e+02
  -5.613143e+01   1.069963e+02
  -1.184481e+01   2.112433e+01
   2.053037e+00  -1.938791e+01
   1.324555e-01  -6.943893e+01
  -1.275493e+01  -9.520662e+00
  -1.106054e+02  -1.245250e+01
  -1.303548e+01  -2.889942e+01
   6.849268e+01  -4.947485e+01
   1.772836e+02   1.760627e-01
   1.697231e+02   7.004054e+01
   1.337802e+00   1.065307e+02
  -1.470087e+02   6.777933e+01
  -1.253999e+02   6.877886e+00
  -1.827351e+01  -1.294987e+01
   9.200198e+01  -2.196075e+01
   7.230589e+01   6.126285e+00
  -1.241490e+01   9.438223e+01
  -7.176157e+01   6.122783e+01
  -9.676836e+01   9.275273e+00
  -6.012416e+01  -8.170382e+01
  -8.647226e+00  -6.167313e+01
  -6.380507e+01   1.980923e+01
  -4.714120e+01   8.997218e+00
  -1.627442e+01  -9.462379e+01
   2.880002e+01  -1.441977e+02
   1.123843e+02  -1.376047e+02
   1.667993e+02  -2.692086e+01
   1.482251e+02   9.579072e+01
   8.241607e+00   1.033703e+02
  -7.664054e+01   2.780538e+01
  -4.646604e+01  -1.010711e+00
   5.511495e+01   8.381631e-01
   1.457433e+02   5.730036e+01
   7.560116e+01   1.181788e+02
  -8.461541e+01   1.388665e+02
  -2.033039e+02   7.370775e+01
  -1.469736e+02  -1.297106e+01
  -2.132736e+01  -4.255809e+01
   5.797699e+01  -1.113224e+02
   5.285797e+01  -1.540061e+00
  -4.006808e+01   1.304699e+00
  -4.388638e+01  -2.288341e+01
  -5.584274e+01  -1.283212e+02
   1.159236e+02  -1.521854e+02
   1.992070e+02  -8.206860e+01
   1.761382e+02   1.128874e+02
  -4.791443e+00   2.205224e+02
  -9.734664e+01   1.538137e+02
  -1.253951e+02  -6.234720e+00
  -3.805613e+01  -1.129544e+02
  -9.456011e+00  -1.181055e+02
   2.900571e+00  -2.342275e+01
   8.189923e+01   4.071183e+01
   5.625937e+01  -1.300729e+00
   4.871035e+01  -3.024222e+01
   3.221297e+01   1.282300e+01
   5.708339e+01   1.012430e+02
   3.436444e+01   1.167767e+02
  -7.994299e+00   3.866451e+01
  -1.211323e+02  -1.030780e+01
  -1.301181e+02  -9.441590e+01
  -2.397126e+01  -8.830984e+01
   8.145804e+01  -1.371450e+01
   1.126380e+02   7.556555e+00
  -3.289831e+01   5.291026e+01
  -4.767153e+01  -3.640722e+00
  -3.729081e+00   1.807894e+01
   4.651097e+01  -3.523242e+01
  -1.412939e+01   9.279937e+00
  -5.620425e+01  -1.473915e+01
  -6.634875e+01  -1.456787e+01
  -1.745669e+01  -7.284020e+01
   1.317796e+02  -1.400180e+02
   1.917996e+02  -9.432474e+01
   1.669303e+02   7.369580e+01
   6.967178e+00   1.563555e+02
  -1.060676e+02   1.750750e+02
  -8.121199e+01   2.607634e+01
  -8.189793e+01   3.901018e+00
  -2.882070e+01  -4.993803e+01
  -1.765176e+00  -2.785998e+01
  -4.143294e+01   7.005690e+00
  -3.400897e-01  -5.018016e+01
  -4.663386e+01  -1.119898e+02
   3.256477e+01  -4.561495e+01
   5.974224e+01   5.154591e+01
   9.517176e+01   9.460490e+01
  -9.487970e+00   9.555959e+01
  -6.637781e+01   4.616111e+00
  -1.170042e+02  -3.871539e+01
  -3.663316e+01  -9.436465e+01
   7.094532e+01  -6.293339e+01
   9.221221e+01   4.533119e+01
   5.696229e+01   4.853179e+01
  -1.453539e+01   1.120796e+01
  -5.631402e+01   1.663020e+00
   6.113945e+01  -1.993694e+00
   5.741770e+01  -2.815093e+00
   1.198074e+01   2.347540e+01
  -6.297693e+01   8.939417e+01
  -1.171771e+02   9.067840e+01
  -4.847754e+01   3.219030e+01
   4.198748e+00  -8.867797e+01
   2.425453e+01  -8.050576e+01
   2.620610e+01  -2.224133e+01
  -1.976154e+01   9.926856e+01
  -1.392004e+01   6.235578e+00
  -3.196603e+01  -1.730422e+01
  -3.691076e+01  -8.018106e+01
  -4.073628e+00  -3.939286e+01
   5.534803e+01  -1.644179e+01
   4.530605e+01   3.130315e+01
   2.157405e+00  -1.295531e+01
   3.790297e+01  -3.328322e+01
  -1.693145e+00   1.925893e+01
   2.206490e+01   3.686003e+01
  -2.221912e+01   1.184661e+02
  -3.349062e+01   1.003856e+01
  -3.926991e+01  -4.789306e+01
   3.129178e+00  -6.134060e+01
   4.613969e+01  -4.471051e+01
   2.419721e+01   2.068043e+01
   2.868651e+01   6.972512e+01
  -6.737672e+01   2.947446e+01
  -1.022285e+02  -1.618760e+01
  -5.624921e+01  -4.567154e+01
   6.422183e+01  -6.509332e+01
   6.318767e+01  -1.722968e+01
   3.765392e+01  -1.106903e+01
  -2.237252e+01  -2.472560e+01
  -3.587309e+01   3.501579e+00
  -1.430280e+01  -8.071889e+01
   1.463022e+02  -6.093111e+01
