
 $NMID
 id='ANONYMOUS ', fmtdat='(2E16.6)'
 volume=1.0
 tramp=1.0
 $END
  -4.356689e+03   3.888650e+02
  -2.827173e+03  -2.549187e+03
   4.090952e+02  -3.023592e+03
   2.150267e+03  -1.132500e+03
   1.067152e+03   6.625946e+02
  -6.213358e+02   6.303788e+02
  -9.643012e+02  -3.433125e+02
  -2.979123e+01  -1.128419e+03
   7.664590e+02  -8.253169e+02
   9.555225e+02   2.148120e+01
   4.883282e+02   8.301725e+02
  -2.322413e+02   9.570010e+02
  -6.844595e+02   1.276452e+02
  -4.665090e+02  -6.988631e+02
   2.351614e+02  -7.928719e+02
   6.064637e+02  -2.180937e+01
   2.812014e+02   7.221646e+02
  -3.220349e+02   6.179823e+02
  -6.323311e+02   6.699825e+01
  -4.317709e+02  -3.929389e+02
  -4.914686e+01  -4.925373e+02
   2.204320e+02  -2.691724e+02
   2.518455e+02  -4.581357e+01
  -5.930484e+01   6.486530e+01
  -3.827511e+02  -1.143553e+02
  -1.694293e+02  -3.852032e+02
   4.586545e+02  -4.247445e+02
   8.817859e+02   3.950543e+01
   4.486051e+02   4.975369e+02
  -3.848400e+02   5.356829e+02
  -7.849373e+02   2.069009e+01
  -3.725255e+02  -4.663456e+02
   2.328941e+02  -5.160689e+02
   5.797767e+02  -1.786709e+02
   4.462071e+02   2.216378e+02
   1.834298e+01   4.940774e+02
  -2.361818e+02   3.399520e+02
  -2.003706e+02  -1.782918e+02
   1.410817e+02  -4.251113e+02
   3.929619e+02  -1.934637e+01
   2.344489e+02   6.404774e+02
  -2.017161e+02   7.097088e+02
  -6.403057e+02  -6.310203e-01
  -2.972838e+02  -5.676492e+02
   3.012849e+02  -3.300506e+02
   4.111448e+02   3.188592e+02
  -9.451882e+01   5.762072e+02
  -5.896400e+02   1.910816e+02
  -5.898568e+02  -4.110490e+02
  -1.832247e+02  -5.986120e+02
   3.479522e+02  -3.528492e+02
   6.610411e+02   5.245434e+01
   3.980261e+02   4.187612e+02
  -1.399282e+02   3.777967e+02
  -4.640002e+02   3.798085e+01
  -2.738773e+02  -2.199402e+02
   1.368625e+02  -1.691105e+02
   1.629525e+02   2.029360e+02
  -1.739591e+02   1.793749e+02
  -3.426264e+02  -8.125283e+01
  -1.578380e+02  -2.837363e+02
   2.106614e+02  -2.791089e+02
   3.042590e+02  -6.999192e+01
   1.949994e+02   1.062592e+02
  -5.281835e+01   1.809001e+02
  -2.208441e+02   3.061516e+02
  -3.673720e+02   2.363985e+02
  -2.971420e+02  -1.455447e+02
  -8.843492e+01  -4.410173e+02
   9.595125e+01  -3.948679e+02
   9.486168e+01  -1.155114e+02
   3.274945e+01  -9.404106e-01
   6.294516e+01  -6.983778e+01
   1.938034e+02  -1.137298e+02
   2.524997e+02   7.413970e+01
   9.397194e+01   2.922330e+02
  -3.036468e+01   2.466526e+02
  -2.220954e+02  -7.062139e+00
  -1.771158e+02  -2.458578e+02
   6.568952e+01  -2.899783e+02
   2.936708e+02  -1.445933e+02
   3.505663e+02   1.528071e+02
   2.496193e+02   3.145121e+02
  -1.147760e+02   2.925287e+02
  -2.225343e+02   1.336188e+02
  -1.694690e+02  -8.193540e+00
  -1.160033e+02   3.703248e+01
  -2.436479e+02   6.697477e+01
  -3.536627e+02  -3.302004e+01
  -3.359608e+02  -2.669078e+02
   2.285022e+00  -4.692752e+02
   3.212952e+02  -4.713033e+02
   4.777985e+02  -2.344526e+02
   3.263271e+02   7.245473e+01
   1.857212e+01   3.000559e+02
  -1.171896e+02   2.973260e+02
  -9.330903e+01   5.709541e+01
   1.016844e+02  -9.232986e+01
   1.899513e+02  -1.529549e+01
   4.557836e+01   1.685275e+02
  -1.301479e+02   1.676411e+02
  -2.071513e+02  -3.104661e+01
   2.909594e+01  -1.890277e+02
   2.268174e+02  -4.016854e+01
   1.800289e+02   2.157235e+02
  -1.010960e+01   3.740502e+02
  -2.423297e+02   1.798604e+02
  -3.156735e+02  -1.102206e+02
  -2.731649e+02  -2.208894e+02
  -9.794925e+01  -2.487537e+02
   1.176082e+02  -1.555972e+02
   1.589016e+02  -4.351309e+01
   6.198769e+01   6.142662e+01
  -9.605492e+01  -8.160464e+00
  -2.722689e+01  -1.029500e+02
   1.014914e+02  -8.122015e+01
   1.788929e+02   2.153333e+01
   7.946565e+01   7.571728e+01
  -6.552117e+01   7.738259e+00
  -2.278026e+01  -9.102408e+01
   9.463079e+01  -1.068063e+02
   2.838066e+02  -1.354564e+01
   2.787032e+02   1.214287e+02
   4.128102e+01   1.991050e+02
  -1.698361e+02   2.744652e+02
  -2.675495e+02   1.281862e+02
  -1.599864e+02  -3.447833e+01
   1.452186e+01  -1.026427e+02
   7.042462e+01  -3.534840e+01
  -4.998511e+01   9.362998e+01
  -1.848956e+02   6.285783e+01
  -1.671908e+02  -8.000994e+01
  -9.281951e+01  -1.931575e+02
   9.310093e+01  -1.576324e+02
   1.330414e+02   1.069111e+01
   8.436604e+01   5.491799e+01
  -7.469593e+00   1.410880e+01
  -6.243496e+01  -6.765126e+01
   4.031730e+01  -9.520308e+01
   2.274577e+02  -4.023623e+01
   1.443498e+02   1.350271e+02
   4.885787e+01   2.247389e+02
  -1.727345e+02   1.739775e+02
  -1.749852e+02   6.992478e+00
  -5.654579e+01  -1.429185e+02
   1.023220e+02  -1.417621e+02
   9.300255e+01  -1.582759e+01
  -9.996430e+00   1.996088e+01
  -2.464655e+01  -1.204436e+01
   3.951278e+01  -1.646188e+00
   7.402004e+01   1.288888e+01
   8.541245e+01   6.347017e+01
   1.082413e+01   1.399803e+02
  -1.404972e+02   1.621765e+02
  -2.429458e+02   7.280140e+01
  -2.275486e+02  -1.444560e+02
  -2.138289e+01  -2.453066e+02
   9.660123e+01  -1.626943e+02
   1.332142e+02  -1.609220e+01
   1.149330e+02  -1.314178e+01
   4.505720e+00   2.543154e+01
   2.804251e+01  -3.843682e+01
   1.004097e+02  -1.327993e+01
   4.414604e+01   4.492260e+01
  -5.292651e+01   8.760122e+01
  -1.423800e+02   4.507959e+01
  -9.670774e+01   5.961256e-02
   1.146644e+01  -1.161271e+02
   1.446372e+02  -7.387247e+01
   1.762008e+02   2.903822e+01
   9.408708e+01   2.102577e+02
  -5.480206e+01   2.498642e+02
  -2.911230e+02   7.133257e+01
  -2.538923e+02  -2.346835e+01
  -1.277164e+02  -1.374859e+02
   1.650395e+01  -1.490754e+02
   8.896857e+01  -9.247039e+01
   8.089381e+01  -6.215273e+01
   8.147900e+01  -1.214968e+02
   7.092022e+01  -7.288181e+01
   9.819584e+01  -1.154294e+01
   1.168360e+02   1.380209e+02
   2.579223e+01   2.081872e+02
  -1.172263e+02   1.480209e+02
  -1.306956e+02   1.907459e+01
  -1.537541e+02  -7.845172e+01
   1.970245e+00  -1.586829e+02
   6.767364e+01  -8.610170e+01
   8.256098e+01   1.755060e+01
  -1.208357e+01   6.901825e+01
   1.252043e+01   1.691805e+01
   3.430081e+01   1.152683e+01
   8.221114e+01   9.115499e+00
   3.063257e+01   4.375019e+01
  -5.119326e+01   2.601286e+01
  -1.515954e+02  -1.596264e+01
  -1.173478e+02  -9.304385e+01
  -6.411118e+01  -5.426434e+01
   1.415677e+02  -9.315563e+01
   1.228677e+02  -4.233870e+01
   4.287842e+01   5.542821e+01
  -5.400684e+01   3.708603e+01
  -5.432806e+01  -3.493216e+01
   4.291280e+00  -8.143392e+01
   3.634005e+01  -5.984906e+01
   5.092007e+01   3.186944e+00
   9.440579e+01   5.575671e+01
   6.063788e+01   5.818859e+01
   3.743553e+01   4.259020e+00
   5.362002e+01   9.999035e+00
   4.091441e+01   6.789238e+01
  -3.677369e+01   1.763210e+02
  -1.227564e+02   1.597106e+02
  -1.228845e+02   1.123415e+01
  -1.384528e+02  -6.885030e+01
   2.793646e+00  -1.768713e+02
   6.740835e+01  -1.527292e+01
   3.114729e+01   1.314621e+01
  -4.541623e+01   2.408604e+01
  -1.642238e+02  -3.950276e+01
  -7.556457e+01  -9.200349e+01
   4.838854e+01  -9.797241e+01
   1.755016e+02  -5.705664e+01
   1.184025e+02   5.005587e+01
   2.631276e+01   9.792692e+01
  -5.048310e+01   6.673649e+01
  -4.399278e+01   4.763007e+01
   1.748410e+01  -3.724454e+01
   9.740014e+01   4.560384e+01
   1.696112e+01   1.130301e+02
  -5.391027e+01   1.371281e+02
  -2.019896e+02   7.099706e+01
  -1.488817e+02  -9.865882e+01
  -5.884180e-01  -2.473739e+02
   1.033251e+02  -1.363495e+02
   9.192816e+01   9.369280e+00
   6.432300e+01   1.202760e+02
   3.217216e+01   9.371506e+01
  -5.761475e+01   4.041109e+01
  -5.748861e+01  -2.172445e+01
  -2.995127e+01  -1.862213e+01
  -2.167943e+01   3.682897e+01
  -1.936528e+01   2.413839e+01
  -7.866721e+01  -1.292179e+02
  -9.140728e+01  -1.217225e+02
   5.342767e+01  -6.123201e+01
   1.663207e+02   2.782030e+01
   9.731923e+01   8.722176e+01
   2.925117e+01   2.901121e+01
  -8.547315e+01   5.172012e+01
  -7.541867e+01   1.274416e+01
  -5.565005e+01  -2.015213e+01
   2.969795e+01  -4.338685e+01
   1.814549e+01  -1.764834e+01
  -7.676676e+00   5.909795e+01
  -3.567123e+01   3.753872e+01
   7.107228e+01   3.042719e+01
   1.088481e+02   1.931233e+01
  -1.342423e+01   8.304365e+01
  -1.010740e+02   8.763545e+01
  -1.924054e+02   5.119681e+01
  -1.554380e+02  -6.402165e+01
  -4.680365e+01  -1.578538e+02
   6.705532e+01  -1.726589e+02
   8.192317e+01  -3.332443e+01
   7.793426e+01   4.242248e+01
   9.640362e+00   2.334502e+01
   3.067742e+01   1.831148e+00
   1.516603e+01  -8.304721e-01
   2.645005e+01   4.178020e+01
   3.996259e+01   1.094081e+02
  -7.179758e+01   8.811198e+01
  -1.053954e+02  -1.313724e+01
  -7.902607e+01  -1.124705e+02
  -8.005163e+00  -1.271827e+02
   9.047802e+01  -2.510774e+01
   9.887289e+01   8.695381e+01
   2.193688e+01   1.159223e+02
  -5.996777e+01   3.574103e+01
  -1.244538e+02  -9.143365e+00
  -4.475203e+01  -5.890341e+01
   1.502396e+00  -5.104908e+01
   1.219751e+01  -4.571784e+01
  -4.987984e+01  -2.582738e+00
  -9.698491e+01   3.390868e+00
  -4.115232e+01  -7.939097e+00
   9.495339e+01  -7.233377e+01
   9.703408e+01  -7.856529e+01
   6.891561e+01   4.644999e+00
   1.021614e+01   6.691015e+01
  -4.453577e+01   6.845640e+01
  -2.346613e+01   1.956138e+00
  -1.944086e+01  -8.561136e+01
   3.438890e+01  -4.298202e+01
   6.162407e+01  -5.195956e-01
   4.356564e+01   5.639015e+01
  -2.990965e+00   3.472741e+01
  -4.750891e+01  -1.783998e+01
  -5.358532e+00   1.822153e+00
  -1.919715e+01   7.467934e+00
   1.534112e+01   1.462648e+01
   3.772687e+01  -5.259729e+00
   8.701013e+00  -9.601653e+00
   4.234063e+01  -4.047862e+01
   1.275130e+01  -4.690903e+01
   8.202236e+01   4.903039e+01
  -1.477178e+01   7.702425e+01
  -2.313964e+01   2.918855e+01
  -5.276794e+01  -3.529807e+01
  -4.511027e+01  -4.832473e+01
   5.050771e+01   7.016308e+00
   7.645910e+01   1.133576e+01
   6.961965e+01   1.669862e+01
  -2.702550e+01   9.625092e+01
  -7.677341e+01   3.256290e+01
  -9.265898e+00  -1.768630e+01
   5.578176e+01   1.298760e+01
   3.425911e+01   1.842200e+01
  -3.855719e+01   5.463735e+01
  -9.184632e+01   2.719177e+01
