
 $NMID
 id='ANONYMOUS ', fmtdat='(2E16.6)'
 volume=1.0
 tramp=1.0
 $END
  -4.571177e+03  -9.655261e+01
  -2.748111e+03  -2.885833e+03
   8.611620e+02  -2.980695e+03
   2.342998e+03  -8.153657e+02
   9.043412e+02   7.829752e+02
  -8.145608e+02   5.556775e+02
  -1.019119e+03  -5.447282e+02
   1.045183e+02  -1.143130e+03
   9.673611e+02  -8.923508e+02
   9.673119e+02   1.676647e+02
   4.479773e+02   9.299424e+02
  -3.562374e+02   9.592926e+02
  -7.014757e+02   6.886022e+01
  -4.166754e+02  -7.924819e+02
   3.165618e+02  -7.813624e+02
   6.691994e+02   4.769153e+01
   2.881675e+02   7.650885e+02
  -3.910474e+02   6.417726e+02
  -6.548247e+02   6.282109e+01
  -3.333648e+02  -4.268569e+02
   2.876952e+01  -4.722862e+02
   3.181889e+02  -2.342017e+02
   1.899634e+02  -4.808354e+01
  -1.095679e+02   1.045528e+02
  -4.555754e+02  -1.243314e+02
  -2.083068e+02  -4.772102e+02
   5.184304e+02  -4.090257e+02
   8.439478e+02   1.066068e+02
   4.740035e+02   5.900903e+02
  -4.143450e+02   5.462344e+02
  -8.102642e+02  -6.979841e+00
  -3.667750e+02  -5.302374e+02
   2.987450e+02  -5.816019e+02
   6.334604e+02  -1.826213e+02
   4.247390e+02   2.453334e+02
   3.576920e+01   5.036119e+02
  -2.443642e+02   2.553056e+02
  -1.715401e+02  -2.700108e+02
   2.073304e+02  -4.597320e+02
   5.323593e+02  -2.364152e+01
   2.894176e+02   7.708710e+02
  -3.653858e+02   7.200308e+02
  -6.315229e+02  -3.173979e+01
  -3.265255e+02  -5.968271e+02
   3.665818e+02  -3.502067e+02
   3.918592e+02   3.534403e+02
  -7.098520e+01   6.211460e+02
  -6.225860e+02   1.541128e+02
  -6.287542e+02  -4.806995e+02
  -1.695484e+02  -6.669526e+02
   4.230743e+02  -3.356121e+02
   7.003020e+02   1.106596e+02
   3.852886e+02   4.147351e+02
  -2.273123e+02   3.796625e+02
  -4.974801e+02   4.922365e+01
  -2.238868e+02  -2.447548e+02
   1.139816e+02  -1.462980e+02
   2.135483e+02   1.749074e+02
  -1.848244e+02   1.965031e+02
  -3.928070e+02  -1.114770e+02
  -1.637406e+02  -3.081092e+02
   2.219349e+02  -3.130933e+02
   3.646244e+02  -2.942454e+01
   1.740591e+02   1.086334e+02
  -3.152960e+01   1.884368e+02
  -2.230470e+02   3.523642e+02
  -3.651645e+02   2.734556e+02
  -3.372118e+02  -1.832062e+02
  -2.076013e+01  -4.751896e+02
   1.045579e+02  -3.877112e+02
   1.243990e+02  -8.398277e+01
  -1.708836e+01   5.014899e+01
   9.063391e+00  -9.961071e+01
   1.618548e+02  -1.431213e+02
   2.998107e+02   5.774545e+01
   1.624146e+02   3.298941e+02
  -1.120735e+02   2.801383e+02
  -2.453435e+02   4.269228e+01
  -1.938977e+02  -2.607735e+02
   4.235457e+01  -3.710379e+02
   2.569483e+02  -1.490970e+02
   3.740287e+02   1.830099e+02
   1.677197e+02   3.837594e+02
  -6.887143e+01   3.685148e+02
  -2.568096e+02   1.139653e+02
  -1.890873e+02  -3.561422e+01
  -9.398590e+01   3.589116e+01
  -2.122831e+02   6.543130e+01
  -4.195818e+02  -6.057720e+01
  -3.397175e+02  -3.064775e+02
   1.486586e+01  -4.820032e+02
   3.939121e+02  -4.351042e+02
   5.172786e+02  -1.987069e+02
   3.665106e+02   1.001125e+02
   5.370002e+01   3.285259e+02
  -2.193079e+02   2.474054e+02
  -1.026716e+02   3.550516e+01
   1.164613e+02  -1.064525e+02
   2.421648e+02  -8.977557e+00
   5.544246e+01   2.335991e+02
  -1.798645e+02   2.711706e+02
  -1.932114e+02  -4.513850e+01
  -1.383769e+01  -2.035176e+02
   2.023842e+02  -5.398321e+01
   1.384139e+02   2.463994e+02
  -1.593375e+01   3.773608e+02
  -2.349145e+02   1.967479e+02
  -3.148469e+02  -1.175359e+02
  -2.851809e+02  -2.663263e+02
  -7.613687e+01  -2.793723e+02
   1.442854e+02  -2.045097e+02
   1.858538e+02  -1.153950e+01
   8.365090e+01   6.697045e+01
  -6.286499e+01  -5.063477e+01
  -6.562223e+01  -1.437001e+02
   1.574247e+02  -1.282376e+02
   1.888839e+02   5.893428e+01
   8.133615e+01   1.194621e+02
  -1.010567e+02   2.601307e+01
  -2.556123e+01  -8.968937e+01
   8.406728e+01  -1.051551e+02
   2.928168e+02  -1.163763e+01
   2.977306e+02   1.498040e+02
   7.059186e+01   2.533322e+02
  -2.331403e+02   2.873557e+02
  -2.762855e+02   1.494656e+02
  -1.830829e+02  -3.794690e+01
   4.008936e+01  -1.375611e+02
   8.585142e+01   1.059490e+01
  -5.149499e+01   1.323489e+02
  -2.242230e+02   4.812683e+01
  -2.070793e+02  -9.598341e+01
  -6.153057e+01  -2.200312e+02
   1.278811e+02  -1.938688e+02
   1.772889e+02   1.320596e+01
   6.980594e+01   2.429483e+01
  -3.525873e+01   1.973360e+01
  -1.651474e+01  -7.966229e+01
   9.014750e+01  -8.902351e+01
   2.199776e+02  -2.703228e+01
   2.070952e+02   1.441101e+02
   2.825739e+00   1.803576e+02
  -2.121898e+02   1.694051e+02
  -2.023252e+02  -4.924647e+00
  -7.215415e+01  -1.692338e+02
   8.068679e+01  -1.509354e+02
   1.151894e+02  -4.992032e+01
   3.912757e+01   6.098802e+01
  -5.313589e+01  -1.953095e+01
  -3.217546e+00  -4.549536e+01
   7.465181e+01   2.651602e+01
   8.970223e+01   7.545201e+01
   2.465246e+01   1.512239e+02
  -1.475577e+02   1.691417e+02
  -2.020301e+02   3.522596e+01
  -2.295417e+02  -1.273279e+02
  -1.723217e+01  -2.796181e+02
   1.557060e+02  -1.692098e+02
   1.526673e+02  -1.555954e+01
   4.837995e+01   1.087641e+02
   3.597516e+01   3.182545e+01
   7.732722e+01  -6.035485e+00
   8.705016e+01   3.395453e+01
   4.057858e+01   4.639072e+01
  -7.808875e+01   1.212190e+02
  -9.797137e+01   5.645098e+01
  -7.977857e+01  -3.497080e+01
  -3.744039e+01  -1.251436e+02
   1.502823e+02  -7.581696e+01
   1.867971e+02   5.759707e+01
   9.993494e+01   2.466919e+02
  -1.166633e+02   2.614728e+02
  -2.586662e+02   1.394468e+02
  -2.669860e+02  -7.719864e+01
  -6.958660e+01  -1.631078e+02
   6.472799e+01  -1.488831e+02
   1.491786e+02  -1.097237e+02
   7.035617e+01  -6.344936e+01
   5.921263e+01  -9.526399e+01
   9.007841e+01  -5.834535e+01
   1.384849e+02   1.827484e+01
   1.338403e+02   1.578770e+02
   1.390206e+01   2.182651e+02
  -1.421803e+02   1.892166e+02
  -1.903559e+02  -3.149121e+01
  -1.933930e+02  -1.506040e+02
  -4.152310e+01  -2.003611e+02
   9.480022e+01  -7.902462e+01
   6.023251e+01   1.680349e+01
   5.550613e+00   1.196413e+01
  -1.598148e+01   4.124400e+01
   2.857598e+00   4.676660e+01
   9.488492e+01   4.742451e+01
   3.493785e+01   5.521135e+01
  -5.781881e+01   3.516063e+01
  -1.512188e+02   2.888831e+01
  -1.324620e+02  -3.559023e+01
  -3.500602e+01  -9.007298e+01
   1.192533e+02  -6.653487e+01
   1.558736e+02  -2.995135e+01
   6.608407e+01   4.200134e+01
  -9.772877e+01   6.264891e+01
  -7.382839e+01  -3.613973e+01
  -1.480830e+01  -5.758526e+01
   8.254918e+00  -5.698650e+01
   8.830399e+01  -2.450964e+00
   3.640212e+01   6.367598e+01
   4.799784e+01   5.708833e+01
   5.320789e+01  -5.529521e+00
   8.102669e+01   1.304335e+01
   2.463368e+01   6.444834e+01
  -4.824806e+01   1.593317e+02
  -7.509246e+01   1.148765e+02
  -1.735220e+02   1.744313e+01
  -1.003029e+02  -1.169255e+02
   9.697586e+00  -1.196678e+02
   6.301261e+01  -6.547415e+01
   5.821221e+01   1.396333e+01
  -5.594994e+01   4.361935e+01
  -1.257539e+02  -2.730178e+01
  -8.880084e+01  -9.431561e+01
   8.076840e+01  -1.047072e+02
   2.127543e+02  -2.565669e+01
   1.678211e+02   4.064413e+01
   4.729095e+01   1.338935e+02
  -7.066063e+01   9.913417e+01
  -5.653645e+01   5.273592e+01
   1.755150e+01   2.602366e+01
   1.345063e+02  -2.038311e+01
   4.729335e+01   1.268372e+02
  -9.731852e+01   1.765114e+02
  -2.122037e+02   9.095809e+01
  -9.580349e+01  -7.334380e+01
   6.971620e+00  -2.370790e+02
   9.289354e+01  -1.165201e+02
   1.057984e+02   8.782704e+00
   3.438903e+01   1.196528e+02
  -2.134906e+01   1.517755e+02
  -6.918702e+01   1.668631e+01
  -4.786193e+01  -2.567628e+01
  -4.363724e+01  -1.899025e+01
  -2.309291e+00   3.095825e+01
  -4.783743e+01  -2.360963e+01
  -3.385057e+01  -1.165202e+02
  -4.958895e+01  -1.033441e+02
   5.032372e+01  -6.519844e+01
   1.511698e+02   6.120681e+01
   1.188031e+02   8.594281e+01
  -1.756327e+01   8.253201e+01
  -1.311095e+02   5.468926e+01
  -1.419872e+02  -1.683985e+01
  -2.470385e+01  -5.436186e-01
   3.785706e+01  -9.239689e+00
  -1.481641e+01  -1.718532e+01
  -7.195916e+00  -6.250271e-01
  -1.994625e+01  -7.792131e+00
   5.932927e+01  -9.768241e+00
   1.054210e+02   1.251307e+01
   4.951082e+00   8.868626e+01
  -9.494504e+01   8.842143e+01
  -1.931406e+02   3.194846e+01
  -1.142454e+02  -8.016225e+01
  -3.756138e+01  -2.187023e+02
   1.008542e+02  -1.488624e+02
   1.143989e+02  -5.601317e+01
   8.537696e+01   2.240645e+01
   5.959745e+01   4.558889e+01
  -2.756709e-01  -1.940081e+01
   2.797282e+01   1.191201e+01
   4.322962e+01   6.381408e+01
   6.239643e+01   9.926308e+01
  -2.090005e+01   4.710565e+01
  -8.440531e+01  -2.153587e+01
  -7.951128e+01  -1.230340e+02
  -8.991056e+00  -1.059770e+02
   9.319812e+01  -2.923521e+01
   1.060095e+02   1.048326e+02
   4.717427e+00   1.240066e+02
  -7.227863e+01   6.771104e+01
  -1.061109e+02   2.718506e+01
  -2.926397e+01  -1.253763e+01
   4.838581e+01  -7.081107e+01
   2.305984e+01  -1.053148e+01
  -6.529249e+01   1.744519e+01
  -7.811246e+01   1.636435e+00
  -5.363845e+01   1.326752e+01
   1.078391e+02  -8.973016e+01
   8.492724e+01  -8.715956e+01
   3.753767e+01  -3.680173e+01
   2.079625e+01   6.868755e+01
  -5.090091e+01   5.405306e+01
  -2.816252e+01   7.988412e+00
  -9.626533e-01  -7.414213e+01
   2.772727e+01  -3.099433e+01
   1.460593e+01   2.875454e+01
   4.903017e+01   6.244476e+01
   7.997096e+00   1.076973e+01
  -5.596691e+01  -8.217809e+00
  -3.154328e+01  -4.963076e+01
   4.369387e+00   1.943857e+01
   9.691064e+00   1.822695e+01
  -2.662365e+00   5.044680e+00
   1.405808e+01  -4.821231e+01
   5.478896e+01  -6.190408e+01
   2.326701e+01   4.844109e+00
   1.543026e+01   7.397007e+01
  -1.684117e+01   9.161190e+01
  -3.707967e+01   1.525562e+01
  -6.323230e+01  -7.787185e+01
  -1.666145e+01  -8.536500e+01
   4.110297e+01  -8.938933e+00
   7.203128e+01   2.993273e+01
   4.241811e+01   3.359263e+01
  -8.831136e+00   3.588260e+01
  -3.940797e+01  -1.038585e+01
  -6.529336e+01  -1.261329e+01
   9.240913e+01  -9.408497e+00
   3.397371e+01  -1.443917e+01
  -3.718015e+01  -2.919194e+01
  -1.352518e+02   3.166014e+01
