
 $NMID
 id='ANONYMOUS ', fmtdat='(2E16.6)'
 volume=1.0
 tramp=1.0
 $END
   4.632104e+03  -9.129086e+01
   2.665153e+03   2.509311e+03
  -7.788414e+02   2.866595e+03
  -2.165319e+03   9.791989e+02
  -9.861362e+02  -6.308806e+02
   5.352186e+02  -5.083868e+02
   8.785957e+02   3.990280e+02
   2.116580e+01   1.070559e+03
  -8.375241e+02   7.976632e+02
  -9.690105e+02  -8.877386e+01
  -4.735944e+02  -9.565021e+02
   2.034156e+02  -8.829752e+02
   6.549941e+02  -1.423351e+02
   3.965589e+02   7.486833e+02
  -2.322093e+02   8.117663e+02
  -5.986716e+02   2.553972e+01
  -2.639496e+02  -7.075763e+02
   2.994005e+02  -6.294157e+02
   6.313739e+02  -1.285120e+02
   4.516419e+02   3.497603e+02
   2.845536e+01   4.684367e+02
  -2.460091e+02   2.914492e+02
  -2.475650e+02   5.600270e+01
   6.742985e+01  -7.969378e+01
   4.072380e+02   8.011120e+01
   2.346199e+02   4.574235e+02
  -4.348778e+02   4.488393e+02
  -8.751046e+02  -5.945512e+01
  -4.437770e+02  -5.632250e+02
   4.358867e+02  -5.190908e+02
   7.546416e+02   3.145691e+01
   3.732339e+02   5.175830e+02
  -2.905092e+02   5.335225e+02
  -5.753917e+02   2.310228e+02
  -4.063944e+02  -2.156886e+02
  -5.757692e+01  -5.082605e+02
   1.758598e+02  -3.183031e+02
   1.696981e+02   2.300169e+02
  -1.681584e+02   4.636927e+02
  -4.661577e+02   2.836187e+01
  -2.523868e+02  -7.143633e+02
   3.363519e+02  -7.804676e+02
   5.765069e+02  -5.637327e+01
   2.954117e+02   5.449540e+02
  -2.989835e+02   3.416843e+02
  -3.503244e+02  -3.067556e+02
   5.329087e+01  -5.584952e+02
   5.672408e+02  -1.533525e+02
   6.254676e+02   4.024271e+02
   1.827793e+02   5.970210e+02
  -3.705908e+02   3.797856e+02
  -7.168914e+02  -6.047499e+01
  -3.906465e+02  -3.937960e+02
   9.585026e+01  -3.705395e+02
   4.618081e+02  -5.483316e+01
   2.225462e+02   1.860079e+02
  -1.243547e+02   1.062907e+02
  -1.862520e+02  -1.904946e+02
   1.974134e+02  -1.919095e+02
   3.627465e+02   5.976913e+01
   1.826196e+02   3.586631e+02
  -2.057943e+02   2.683364e+02
  -3.311545e+02   8.182174e+01
  -2.089943e+02  -8.848111e+01
   4.750335e+01  -2.934232e+02
   2.405012e+02  -3.145350e+02
   3.632059e+02  -2.451739e+02
   2.866228e+02   1.233349e+02
   8.270065e+01   4.338403e+02
  -8.177551e+01   3.862557e+02
  -1.260422e+02   1.312377e+02
   4.118891e+00  -3.000629e+01
  -7.931646e+01   8.007097e+01
  -1.924601e+02   1.494971e+02
  -2.958037e+02  -6.218112e+01
  -1.092825e+02  -2.472501e+02
   6.808932e+01  -2.570420e+02
   2.286555e+02  -1.286497e+01
   1.998453e+02   2.393613e+02
  -1.973339e+01   3.110020e+02
  -2.896300e+02   1.173330e+02
  -3.798545e+02  -1.729547e+02
  -1.905838e+02  -3.746856e+02
   8.213023e+01  -3.219744e+02
   2.178096e+02  -1.161195e+02
   1.446968e+02  -2.332664e+01
   1.144837e+02  -3.359390e+01
   2.344714e+02  -1.097534e+02
   3.954893e+02   2.765750e+01
   3.480639e+02   2.822107e+02
   8.191331e+00   3.815173e+02
  -4.084985e+02   4.500975e+02
  -4.855842e+02   1.846158e+02
  -3.430507e+02  -1.238125e+02
  -7.789231e+01  -2.964774e+02
   1.124139e+02  -3.060824e+02
   8.836369e+01  -5.679336e+01
  -7.171590e+01   8.125971e+01
  -1.827350e+02  -4.147383e+00
  -5.261059e+01  -1.821035e+02
   1.357997e+02  -2.056368e+02
   1.544758e+02   5.732646e+01
   3.629852e+01   1.874060e+02
  -2.041876e+02   1.661998e+01
  -1.661453e+02  -2.859204e+02
   4.339127e+01  -3.539942e+02
   2.213804e+02  -2.077427e+02
   3.528741e+02   5.555510e+01
   3.165722e+02   2.371556e+02
   1.131636e+02   3.024960e+02
  -1.160509e+02   2.167683e+02
  -1.664671e+02   7.529989e+00
  -5.307139e+01  -2.972261e+00
   6.287196e+01   3.787982e+01
  -1.378708e+00   1.647202e+02
  -1.491829e+02   8.774026e+01
  -1.916241e+02  -2.666251e+01
  -7.057697e+01  -9.008694e+01
   1.056063e+02  -1.536748e+01
   3.301130e+01   5.476271e+01
  -1.404304e+02   8.454766e+01
  -2.597559e+02  -5.481089e+01
  -2.514284e+02  -1.554066e+02
  -5.319275e+01  -2.551986e+02
   1.817684e+02  -2.507850e+02
   2.807714e+02  -1.233569e+02
   1.292573e+02   4.445137e+01
  -1.441265e+01   1.288655e+02
  -9.711264e+01  -1.686926e+00
   3.405107e+01  -1.164437e+02
   2.077620e+02  -4.874238e+01
   2.141722e+02   1.170603e+02
   6.801687e+01   2.141245e+02
  -8.657096e+01   1.194859e+02
  -1.584069e+02   4.986310e+01
  -4.104230e+01  -7.924511e+01
   4.645680e+01   1.087405e+00
   4.670450e+01   9.508451e+01
  -3.130509e+01   1.406797e+02
  -1.866346e+02  -1.722879e+01
  -2.341392e+02  -8.342727e+01
  -1.552470e+01  -2.430327e+02
   1.674338e+02  -1.353683e+02
   1.562977e+02  -3.932780e+01
   5.893815e+01   1.044628e+02
  -8.453462e+01   8.702840e+01
  -6.342795e+01   1.101413e+01
  -1.492552e+01   7.045737e+00
   1.307630e+01  -1.168512e+01
  -9.408468e-01   6.803365e+00
  -6.600735e+01  -1.192237e+01
  -9.170425e+01  -6.084205e+01
  -3.834007e+01  -1.792452e+02
   1.258969e+02  -1.373427e+02
   2.550239e+02   7.714076e+00
   2.045815e+02   1.878411e+02
   4.018222e+01   2.404446e+02
  -1.248854e+02   2.035477e+02
  -1.267264e+02   4.166232e+01
  -5.840027e+01  -7.911826e+01
  -6.389003e+01  -5.480792e+01
  -8.336111e+01   7.410585e-01
  -4.444519e+01  -1.589762e+01
  -5.391870e+01  -1.953972e+01
   2.764907e-01  -8.891785e+01
   9.940055e+01  -1.073118e+02
   7.784863e+01   9.618961e+00
   1.215975e+01   1.188179e+02
  -1.571920e+02   1.151941e+02
  -1.880006e+02  -2.057555e+01
  -1.024869e+02  -2.207677e+02
   9.865442e+01  -2.689101e+02
   2.602799e+02  -8.284683e+01
   2.874299e+02   9.759780e+01
   9.456026e+01   1.852755e+02
  -4.719052e+01   1.335312e+02
  -1.326487e+02   9.262597e+01
  -7.871013e+01   8.305803e+01
  -5.119379e+01   9.344223e+01
  -8.172697e+01   8.233305e+01
  -1.297985e+02  -2.262174e+01
  -1.103872e+02  -1.945853e+02
  -3.233139e+00  -2.122243e+02
   1.274457e+02  -1.506636e+02
   1.519077e+02  -8.885144e+01
   1.627199e+02   1.138761e+02
   1.829841e+01   1.397555e+02
  -6.812888e+01   1.306794e+02
  -7.409248e+01   1.120575e+01
   1.304486e+01  -2.803245e+01
  -8.930471e-01  -7.688669e+01
  -7.247096e+01  -4.084595e+01
  -8.721946e+01  -9.301244e+00
  -6.876187e+01  -5.348917e+01
   8.464379e+01  -3.338590e+01
   1.700130e+02   5.742548e+00
   1.144547e+02   4.380611e+01
   1.985340e+00   8.115399e+01
  -1.430648e+02   7.383110e+01
  -1.468472e+02   3.484905e+00
  -6.809656e+01  -1.501002e+01
   3.007934e+01  -3.822854e+01
   5.688605e+01  -2.966295e+00
   3.833680e+01   8.558388e+01
  -5.754437e+01   4.391338e+01
  -1.654367e+01   8.539095e+00
  -5.892076e+01  -4.912746e+01
  -2.130999e+01  -5.778796e+01
  -5.411940e+01   3.829496e+00
  -7.843662e+01  -5.001186e+01
  -2.868793e+01  -4.889490e+01
   5.338495e+01  -1.669746e+02
   7.654852e+01  -1.254628e+02
   1.942757e+02   7.754926e+00
   1.181341e+02   1.022037e+02
   4.359430e+01   1.413721e+02
  -1.256104e+02   6.029107e+01
  -3.089064e+01  -4.597769e+01
   7.680791e+01  -1.256640e+01
   1.621437e+02   3.522673e+01
   8.752160e+01   9.521511e+01
  -1.172300e+02   1.498538e+02
  -1.497094e+02   4.684470e+01
  -1.563513e+02   1.312385e+01
  -6.211632e+01  -5.509787e+01
   6.285320e+01  -8.386994e+01
   3.200807e+01  -2.481861e+01
  -8.088069e+01   3.441797e+01
  -9.852989e+01  -2.843124e+01
  -3.672569e+01  -1.177706e+02
   1.013792e+02  -1.885726e+02
   1.684093e+02  -4.960048e+01
   1.433157e+02   8.970773e+01
  -4.811785e+00   2.091727e+02
  -6.179394e+01   1.624401e+02
  -1.192255e+02  -4.063804e+00
  -6.018445e+01  -1.435095e+02
   2.687415e+01  -9.085568e+01
   3.217162e+01   5.442354e+00
   1.090127e+02   2.053246e+01
   1.941592e+01   4.307323e+01
   4.552253e+00  -3.781612e+01
   2.614810e+01   4.517858e+01
   2.890089e+01   5.956145e+01
   6.161246e+01   1.076299e+02
  -4.980939e+01   1.649128e+01
  -1.311776e+02  -2.236215e+01
  -1.295724e+02  -5.633886e+01
  -3.321216e+01  -6.154393e+01
   1.153008e+02  -2.069392e+01
   1.083671e+02  -2.906727e+01
  -1.113288e+01  -2.733403e+01
  -6.897141e+01  -1.217548e+01
  -1.908307e+01   3.682735e+01
   2.240503e+01   4.855068e+00
   5.030675e+00  -2.851121e+01
  -7.699745e+01  -5.805143e+01
  -8.943698e+01  -2.614354e+01
  -1.639284e+01  -1.160477e+02
   1.103495e+02  -1.082832e+02
   1.846408e+02  -6.657695e+01
   1.755800e+02   1.130561e+02
   4.413624e+00   1.725699e+02
  -7.118069e+01   1.701657e+02
  -1.057954e+02   3.668504e+01
  -8.276396e+01  -4.052985e+01
  -5.429309e+01  -3.663088e+01
  -1.368612e+01   4.116059e+00
  -1.227694e+01  -6.864764e+00
  -2.607329e+01  -8.627182e+01
  -4.424732e+01  -7.016080e+01
   5.422972e+01  -4.944681e+01
   7.407462e+01   5.431200e+00
   9.598267e+01   1.136933e+02
   2.970073e+01   9.005990e+01
  -8.857051e+01   2.229366e+01
  -1.085757e+02  -5.971162e+01
  -4.979371e+01  -1.075813e+02
   9.675806e+01  -8.893575e+01
   8.415518e+01  -2.066898e+01
   6.011696e+01   6.170937e+01
  -3.585137e+01   7.893196e+01
  -6.057291e+01   2.414303e+01
   1.531971e+01  -3.223367e+01
   7.194218e+01   4.895342e+00
   1.660523e+01  -2.230210e+01
  -6.424112e+01   9.704749e+01
  -1.119212e+02   4.208551e+01
  -5.355407e+01   2.352843e+00
  -1.974882e+00  -5.031422e+01
   2.475867e+01  -7.620405e+01
   1.939462e+01  -4.772452e+01
   1.557029e+01   9.224923e+01
  -4.812471e+00   5.663664e+01
  -1.731721e+01  -2.343222e+01
  -2.846152e+01  -4.634651e+01
  -6.700993e+00  -7.811726e+01
   2.277957e+01  -3.185297e+01
   7.263827e+01   1.315411e+01
  -4.030685e+00  -1.198775e+01
  -9.216755e+00   1.723603e+01
  -3.010823e+01  -2.724203e+01
  -4.444125e+00   3.845157e+00
   2.506924e+00   5.133629e+01
  -2.256728e+01  -1.948883e+01
  -2.512081e+01  -3.860776e+01
   1.755268e+00  -4.966284e+01
   3.374481e+01  -1.101684e+01
   4.696798e+01   7.791953e+00
   1.087665e+01   7.243625e+01
  -4.014715e+01   1.159339e+01
  -1.165944e+02  -8.553716e-01
  -5.755984e+01  -5.396083e+01
   2.253701e+01  -8.840257e+01
   4.658104e+01  -2.738456e+01
   3.900796e+01  -3.228294e+01
  -7.791766e+00  -4.034104e+00
  -5.057503e+01  -2.087821e+01
   2.632001e+01  -9.091125e+01
   1.131520e+02  -4.471287e+01
