
 $NMID
 id='ANONYMOUS ', fmtdat='(2E16.6)'
 volume=1.0
 tramp=1.0
 $END
  -4.555859e+03   6.462911e+01
  -2.676615e+03  -2.436653e+03
   8.734133e+02  -2.807485e+03
   2.081699e+03  -9.397006e+02
   1.063367e+03   6.770676e+02
  -5.750755e+02   5.363165e+02
  -8.748434e+02  -3.776839e+02
  -8.880729e+00  -1.065425e+03
   8.212950e+02  -7.939893e+02
   9.782827e+02   8.317790e+01
   4.785089e+02   8.950243e+02
  -2.023709e+02   8.518405e+02
  -6.333608e+02   1.454110e+02
  -4.274877e+02  -7.241225e+02
   2.158970e+02  -7.835917e+02
   6.388981e+02   2.478605e+01
   3.188723e+02   7.127722e+02
  -2.891098e+02   6.780381e+02
  -5.849869e+02   1.153693e+02
  -4.337867e+02  -3.966388e+02
   2.311832e+01  -4.322483e+02
   2.420011e+02  -2.824297e+02
   2.590242e+02  -2.315605e+01
  -9.400808e+01   6.952656e+01
  -3.818306e+02  -9.254353e+01
  -2.416362e+02  -4.595300e+02
   4.224964e+02  -4.249239e+02
   8.369105e+02   1.633245e+01
   4.210951e+02   5.452463e+02
  -4.191001e+02   4.891102e+02
  -7.263263e+02  -1.006703e+01
  -3.215860e+02  -4.841306e+02
   2.774682e+02  -5.020355e+02
   5.684145e+02  -2.505500e+02
   4.226344e+02   2.277754e+02
   6.028860e+01   4.992623e+02
  -2.293613e+02   2.963165e+02
  -1.856286e+02  -1.759343e+02
   1.604492e+02  -4.646645e+02
   4.599613e+02   3.584807e+01
   2.267725e+02   7.069819e+02
  -3.248631e+02   7.567627e+02
  -6.335627e+02   2.608955e+01
  -3.171000e+02  -5.192837e+02
   2.836252e+02  -2.975863e+02
   3.779806e+02   2.550603e+02
  -5.353693e+01   5.698509e+02
  -5.852504e+02   1.262634e+02
  -6.678377e+02  -4.066996e+02
  -1.397516e+02  -5.727319e+02
   3.820176e+02  -3.403079e+02
   6.783733e+02   9.471221e+01
   3.854628e+02   3.685433e+02
  -7.939381e+01   3.688546e+02
  -4.463619e+02   7.787900e+01
  -2.669342e+02  -2.065502e+02
   7.408641e+01  -9.352192e+01
   1.649521e+02   1.389696e+02
  -1.779588e+02   1.792662e+02
  -3.634387e+02  -1.036869e+02
  -1.545193e+02  -3.243766e+02
   2.328059e+02  -2.641919e+02
   3.656311e+02  -9.360233e+01
   2.157229e+02   7.028079e+01
  -8.370955e+01   2.610013e+02
  -2.805476e+02   3.221398e+02
  -3.439249e+02   2.308055e+02
  -3.161642e+02  -1.105361e+02
  -6.029583e+01  -4.534696e+02
   9.388072e+01  -3.713391e+02
   1.412279e+02  -1.487487e+02
   6.766978e+01  -4.461062e+00
   2.161005e+01  -8.564033e+01
   2.305545e+02  -1.798002e+02
   2.645027e+02   3.017655e+01
   1.339516e+02   2.617109e+02
  -9.107967e+01   2.865282e+02
  -2.143971e+02   1.385067e+01
  -1.592890e+02  -2.372471e+02
   8.974449e+00  -3.004459e+02
   2.991355e+02  -8.733160e+01
   3.543500e+02   1.596092e+02
   1.891571e+02   3.666308e+02
  -7.652062e+01   3.116884e+02
  -2.451345e+02   1.233786e+02
  -1.903765e+02   1.329341e+01
  -1.172837e+02   9.998060e+00
  -2.173610e+02   7.020199e+01
  -4.156338e+02  -9.413386e+01
  -3.731212e+02  -3.156488e+02
  -1.661241e+01  -4.497940e+02
   3.993582e+02  -4.349220e+02
   5.024973e+02  -1.727065e+02
   3.375474e+02   7.782713e+01
   4.628609e+01   2.573103e+02
  -8.766176e+01   2.345459e+02
  -7.648991e+01   5.882054e+01
   9.987474e+01  -1.094874e+02
   1.784162e+02  -2.820423e+00
   2.387436e+01   1.808221e+02
  -1.461768e+02   1.836214e+02
  -1.589854e+02  -8.038882e+01
   3.354719e+01  -2.238366e+02
   1.899814e+02  -6.031701e+01
   1.571960e+02   2.763923e+02
  -3.344219e+01   3.337356e+02
  -2.126216e+02   2.245959e+02
  -3.505467e+02  -7.459955e+01
  -2.897263e+02  -2.234499e+02
  -8.286468e+01  -2.465633e+02
   8.893759e+01  -1.977672e+02
   2.000712e+02  -2.796197e+00
   3.629366e+01   3.199926e+01
  -9.248004e+01  -2.839230e+01
  -1.641409e+01  -1.580899e+02
   1.283074e+02  -6.779461e+01
   2.155206e+02   6.669735e+01
   7.032885e+01   5.346580e+01
  -5.164327e+01   3.784516e+01
  -2.477560e+01  -1.118631e+02
   1.205365e+02  -1.236422e+02
   2.961440e+02   1.710181e+01
   2.414275e+02   1.482176e+02
   1.041206e+02   2.686092e+02
  -1.673602e+02   2.187269e+02
  -2.846858e+02   9.837697e+01
  -1.825841e+02  -4.029921e+01
   3.709420e+01  -9.595227e+01
   9.355303e+01  -2.603636e+01
  -4.404492e+01   1.112103e+02
  -2.075683e+02   7.370967e+01
  -2.091491e+02  -9.406305e+01
  -4.975906e+01  -2.030697e+02
   1.054759e+02  -1.843679e+02
   1.630253e+02   2.728303e+00
   1.066836e+02   4.862643e+01
  -3.156376e+01  -1.467775e+01
  -5.134613e+01  -8.723967e+01
   1.015310e+02  -1.119186e+02
   1.901194e+02  -1.900280e+01
   1.821551e+02   9.232346e+01
   1.849163e+00   2.270992e+02
  -1.736437e+02   1.751669e+02
  -2.079840e+02   2.089062e+00
  -9.410651e+01  -1.190023e+02
   7.189944e+01  -1.169272e+02
   1.000410e+02  -3.408486e+01
   6.088900e+01   2.272025e+01
  -4.111325e+01   1.571555e+01
  -1.922808e+01  -8.200449e+00
   7.047441e+01   2.195309e+01
   1.116800e+02   5.684302e+01
   2.529186e+01   1.757041e+02
  -1.188107e+02   1.848768e+02
  -2.715287e+02   2.165127e+01
  -2.274109e+02  -1.660966e+02
   7.864969e+00  -2.543265e+02
   1.050433e+02  -1.936620e+02
   1.398039e+02  -2.027871e+01
   9.475352e+01   7.240176e+01
   1.405401e+01   7.318846e+01
   7.989737e+01   7.216132e+00
   5.149014e+01  -2.323235e+01
   4.147420e+01   2.718546e+00
  -3.563889e+01   8.639963e+01
  -9.312266e+01   6.383093e+01
  -1.046277e+02  -4.755543e+01
   9.995694e-01  -9.367079e+01
   1.411974e+02  -1.062645e+02
   2.093496e+02   5.775641e+01
   1.098133e+02   2.359233e+02
  -1.289459e+02   2.428175e+02
  -2.690564e+02   9.764877e+01
  -2.693440e+02  -1.016246e+02
  -1.135721e+02  -1.825710e+02
   4.341811e+01  -1.505721e+02
   1.020683e+02  -1.273768e+02
   6.512175e+01  -9.261327e+01
   8.506845e+01  -8.716487e+01
   8.032585e+01  -8.136747e+01
   1.402511e+02  -8.633163e+00
   1.327910e+02   1.971213e+02
   4.337798e+01   2.179900e+02
  -1.139284e+02   1.587303e+02
  -1.890588e+02  -1.590938e+01
  -1.191661e+02  -1.241840e+02
  -3.721913e+01  -1.684668e+02
   7.565679e+01  -1.243974e+02
   7.277911e+01  -2.744175e+01
   1.841391e+01   1.665836e+01
   1.666499e+01   6.420307e+00
   5.858882e+00   2.121668e+01
   1.107658e+02   3.500412e+01
   4.167083e+01   5.357479e+01
  -4.956415e+01   4.100767e+01
  -1.661885e+02   7.156229e+00
  -1.228656e+02  -6.873704e+01
  -4.215333e+01  -1.318910e+02
   1.145212e+02  -9.188616e+01
   1.367005e+02  -1.170571e+01
   5.313407e+01   3.824934e+01
  -7.791551e+01   5.949799e+01
  -1.009739e+02  -2.664106e+01
   1.437011e+01  -6.150323e+01
   5.192634e+01  -1.102505e+02
   1.535688e+01   2.259922e+01
   3.383532e+01   7.065473e+01
   5.052648e+01   1.310256e+01
   6.318251e+01   1.116157e+00
   7.499773e+01   1.452062e+01
   5.121461e+01   4.846636e+01
  -2.041142e+01   1.509940e+02
  -1.056439e+02   1.349651e+02
  -1.802948e+02   1.366998e+01
  -1.385800e+02  -1.243934e+02
   2.352352e+01  -1.095743e+02
   9.844094e+01  -8.930062e+01
   5.234075e+01  -6.394566e+00
  -4.744345e+01   1.375832e+01
  -1.299649e+02  -7.445638e+00
  -7.816724e+01  -8.909447e+01
   9.805433e+01  -1.042731e+02
   1.988548e+02  -5.404897e+01
   1.526038e+02   1.935766e+01
   4.547620e+01   4.762242e+01
  -3.749024e+01   8.692066e+01
  -4.468157e+01   1.199162e+01
  -2.661733e+00  -4.667714e+01
   7.999021e+01   1.275655e+01
   7.662054e+01   1.691902e+02
  -9.017650e+01   1.900169e+02
  -1.974464e+02   6.293038e+01
  -1.266055e+02  -1.015688e+02
  -8.126875e+00  -1.732891e+02
   1.156458e+02  -1.242240e+02
   7.287204e+01   2.605663e+01
   6.262083e+01   9.810093e+01
   4.947500e+00   1.200488e+02
  -4.290825e+01   3.025347e+01
  -7.762378e+01  -4.926850e+01
  -3.973542e+01  -2.355869e+01
  -4.810846e+01   5.100423e+01
  -1.169317e+01  -3.204060e+01
  -6.302067e+01  -6.106416e+01
  -4.247613e+01  -1.029301e+02
   7.666745e+01  -5.931852e+01
   1.415422e+02   8.047579e+01
   1.461632e+02   9.685282e+01
   4.538113e+01   3.341773e+01
  -9.746813e+01   1.002635e+01
  -1.135341e+02   7.382314e+00
   2.203016e+01   1.066804e+01
   4.802301e+01  -1.609813e+01
   5.255702e+00   1.177858e+01
  -4.551646e+01   3.284670e+00
   3.297058e+01  -2.967249e+01
   7.343045e+01   6.002415e+00
   1.061249e+02   4.881582e+01
   6.437490e+01   1.201531e+02
  -1.171857e+02   1.025502e+02
  -1.812805e+02   5.704185e+01
  -1.631486e+02  -6.377673e+01
  -5.985328e+00  -1.456888e+02
   7.679407e+01  -1.556406e+02
   8.653030e+01  -3.346022e+01
   6.480382e+01   2.582514e+01
  -8.637742e+00   4.995181e+01
  -2.632215e+01   2.701378e+01
   3.198341e+01   1.685265e-01
   3.432442e+01   6.562263e+01
   2.078536e+01   9.431543e+01
   1.223215e+00   6.325080e+01
  -8.808978e+01  -3.516618e+01
  -7.633628e+01  -9.441337e+01
  -8.120200e+00  -1.232822e+02
   7.514431e+01  -7.205259e+00
   1.151949e+02   4.388497e+01
   5.101708e+01   1.198604e+02
  -8.976832e+01   1.113621e+02
  -1.371760e+02  -1.197726e+01
  -3.041496e+01  -6.405782e+01
  -4.505967e+00  -5.288509e+01
   3.262396e+01  -2.000853e+01
  -3.451307e+01  -5.225920e-01
  -5.335139e+01  -3.365217e+01
  -8.838228e+00  -5.114512e+01
   1.051453e+02  -1.071317e+02
   1.087959e+02  -7.279610e+01
   7.658520e+01   2.782970e+01
   1.578170e+01   1.346234e+02
  -2.629001e+01   8.518448e+01
  -6.514537e+01   4.247994e+00
  -1.496454e+01  -4.454636e+01
   2.415138e+01  -8.216030e+01
   4.216649e+01   1.339213e+01
   2.142355e+01   4.553288e+01
  -8.987968e+00   4.748885e+01
  -2.197875e+01   2.221285e+01
  -4.605729e+01  -1.197924e+01
  -3.018602e+01  -4.070895e+01
   4.258590e+01   2.380567e+00
   1.293274e+01   9.971776e+00
   1.893240e+01  -4.371562e+01
   1.068390e+01  -8.094940e+00
   3.716780e+01   2.249045e+00
   1.673778e+01   6.736564e+01
  -3.312772e+01   3.319899e+01
  -6.415118e+01   4.810638e+01
  -4.141522e+01  -2.919900e+01
  -1.549399e+01  -5.719381e+01
   7.105755e+01  -8.338338e+01
   1.121514e+02   5.070693e+01
   4.513653e+01   7.154450e+01
  -5.355831e+00   2.894610e+01
  -3.078674e+01   2.139444e+01
  -2.922945e+01   3.574318e+01
   6.523998e+00  -1.377310e+01
   4.507887e+01  -4.898583e+00
  -2.699542e+00   4.051450e+01
  -1.283458e+02   6.718055e+01
