
 $NMID
 id='ANONYMOUS ', fmtdat='(2E16.6)'
 volume=1.0
 tramp=1.0
 $END
  -4.524806e+03  -2.637069e+01
  -2.527060e+03  -2.855878e+03
   7.980853e+02  -2.742988e+03
   2.112796e+03  -9.171904e+02
   8.711963e+02   7.272375e+02
  -5.979042e+02   5.506900e+02
  -8.756142e+02  -4.565079e+02
   6.780955e+01  -1.087834e+03
   8.626496e+02  -7.582121e+02
   9.107626e+02   8.247328e+01
   4.683074e+02   8.692045e+02
  -2.814678e+02   8.801154e+02
  -6.415101e+02   8.821403e+01
  -4.218749e+02  -7.179659e+02
   2.738600e+02  -7.920747e+02
   5.805677e+02   2.359846e+01
   2.864541e+02   6.662396e+02
  -3.186712e+02   6.473320e+02
  -5.910967e+02   5.482896e+01
  -3.860211e+02  -3.551519e+02
  -1.684627e+01  -4.079355e+02
   2.502241e+02  -2.891178e+02
   1.934577e+02   1.044481e+01
  -1.564790e+02   4.217538e+01
  -4.333112e+02  -1.159944e+02
  -2.025415e+02  -4.618017e+02
   5.378729e+02  -3.901636e+02
   8.748877e+02   1.170748e+02
   3.733596e+02   5.595473e+02
  -4.291006e+02   4.586688e+02
  -7.677993e+02  -6.152005e+01
  -3.399919e+02  -5.046205e+02
   3.319462e+02  -5.040987e+02
   5.507228e+02  -1.446716e+02
   4.088753e+02   2.119247e+02
   6.828410e+01   4.778244e+02
  -2.642987e+02   2.944435e+02
  -1.463153e+02  -2.462863e+02
   2.235944e+02  -4.640327e+02
   4.533538e+02   3.844097e+01
   1.909594e+02   6.875659e+02
  -3.394350e+02   7.432851e+02
  -6.130151e+02  -2.454866e+01
  -2.368470e+02  -5.794736e+02
   2.628213e+02  -2.842824e+02
   3.783538e+02   3.467306e+02
  -9.773340e+01   5.170627e+02
  -5.555755e+02   1.291781e+02
  -6.052738e+02  -4.384434e+02
  -1.389047e+02  -5.810256e+02
   4.277513e+02  -3.612804e+02
   6.463036e+02   1.390315e+02
   3.474113e+02   4.208737e+02
  -1.566028e+02   3.553179e+02
  -4.464336e+02   6.113166e+01
  -2.270760e+02  -2.111688e+02
   1.465358e+02  -1.057565e+02
   1.187127e+02   1.834778e+02
  -1.723475e+02   1.938511e+02
  -3.359789e+02  -1.135017e+02
  -1.013093e+02  -2.899305e+02
   2.040471e+02  -2.212846e+02
   3.709836e+02  -8.295168e+01
   2.320800e+02   1.025105e+02
  -1.883012e+01   2.671454e+02
  -2.708240e+02   3.322623e+02
  -3.564460e+02   2.080508e+02
  -3.352557e+02  -1.312627e+02
  -3.968087e+01  -4.246687e+02
   1.090227e+02  -3.913894e+02
   1.022599e+02  -1.294359e+02
   1.513980e+00   2.599616e+01
   2.327800e+01  -7.532392e+01
   2.103958e+02  -9.740424e+01
   3.261239e+02   6.612084e+01
   1.540285e+02   3.052281e+02
  -5.421126e+01   2.656069e+02
  -1.935044e+02  -5.571155e+00
  -1.995296e+02  -2.771046e+02
   4.057502e+01  -2.659474e+02
   2.547418e+02  -1.319264e+02
   3.190407e+02   1.667641e+02
   1.517124e+02   3.417027e+02
  -1.041572e+02   3.188207e+02
  -2.387234e+02   1.385157e+02
  -1.303998e+02  -4.331898e-01
  -1.666556e+02   3.185322e+01
  -2.190933e+02   7.023108e+01
  -4.069911e+02  -4.847565e+01
  -3.526636e+02  -3.356464e+02
  -1.661936e-01  -4.266664e+02
   3.440744e+02  -4.252207e+02
   5.129771e+02  -1.963955e+02
   3.178105e+02   7.670285e+01
   3.639477e+01   2.999208e+02
  -1.468144e+02   2.565575e+02
  -5.999127e+01   1.949634e+01
   1.002994e+02  -7.124102e+01
   1.820421e+02   2.166690e+01
   4.046962e+01   2.089407e+02
  -1.577599e+02   1.501692e+02
  -1.982361e+02  -8.821598e+01
   4.004003e+01  -1.820886e+02
   2.492328e+02  -3.156769e+01
   1.806264e+02   2.914684e+02
  -6.261489e+01   3.827951e+02
  -2.221307e+02   1.987171e+02
  -3.305143e+02  -8.406059e+01
  -3.068872e+02  -2.440546e+02
  -6.798330e+01  -2.480893e+02
   1.429613e+02  -2.333891e+02
   1.925299e+02   3.137455e+01
   4.733460e+01   2.103228e+01
  -8.958233e+01  -6.529994e+01
  -2.430404e+01  -1.132049e+02
   1.506669e+02  -9.948032e+01
   1.749694e+02   7.473431e+00
   8.667162e+01   5.446800e+01
  -1.073637e+02   4.621125e+01
  -5.316480e+01  -7.327595e+01
   1.743029e+02  -5.771510e+01
   3.039553e+02   4.500284e+01
   2.723647e+02   1.427690e+02
   4.646075e+01   2.767019e+02
  -1.668490e+02   2.487428e+02
  -2.999471e+02   1.439364e+02
  -2.051584e+02  -7.462469e+01
   2.168601e+01  -1.234417e+02
   7.153325e+01  -4.127396e-01
  -7.167434e+01   7.779566e+01
  -1.883066e+02   5.275378e+01
  -2.317061e+02  -7.478263e+01
  -7.496049e+01  -2.046244e+02
   9.456449e+01  -1.600964e+02
   1.298128e+02  -3.672112e+01
   7.583304e+01   5.523828e+01
  -6.199021e+01   1.559311e+01
  -4.648607e+01  -7.936386e+01
   1.092136e+02  -1.623985e+02
   1.980600e+02  -4.083903e+01
   2.275838e+02   1.321636e+02
  -1.479526e+01   1.909575e+02
  -2.079469e+02   1.867822e+02
  -2.133307e+02  -1.315538e+01
  -8.946311e+01  -1.493724e+02
   8.154177e+01  -1.227713e+02
   9.595533e+01  -3.092924e+01
   4.154604e+01   5.616899e+01
  -4.557113e+01   1.973157e+00
   1.566578e+01  -6.424708e+00
   6.947647e+01   2.982849e+01
   5.221659e+01   7.820651e+01
   8.928568e+00   1.591340e+02
  -1.470766e+02   1.377416e+02
  -2.199442e+02  -7.839058e+00
  -2.118360e+02  -1.678866e+02
  -7.027149e+01  -2.956146e+02
   1.095373e+02  -1.671858e+02
   1.396033e+02  -2.970266e+01
   6.263523e+01   5.155678e+01
   4.080150e+01   4.758328e+01
   7.550509e+01  -4.380311e+00
   8.068040e+01  -1.113402e+01
   5.043608e+01   3.570642e+01
  -6.414454e+01   7.122253e+01
  -8.594706e+01   6.883050e+01
  -6.265649e+01  -6.039798e+00
   1.735782e+01  -1.240114e+02
   1.853894e+02  -4.667745e+01
   1.960543e+02   6.006999e+01
   1.135386e+02   1.942692e+02
  -7.391189e+01   2.228775e+02
  -2.692439e+02   1.261604e+02
  -2.484484e+02  -8.491563e+01
  -1.092396e+02  -1.707138e+02
   2.975423e+01  -1.871227e+02
   7.336101e+01  -9.607166e+01
   1.021428e+02  -7.658213e+01
   7.935181e+01  -1.306503e+02
   8.964240e+01  -9.385590e+01
   1.641954e+02   3.674755e+01
   7.266612e+01   1.634126e+02
   1.862245e+01   2.177709e+02
  -9.880525e+01   1.471138e+02
  -1.453742e+02   1.710152e+01
  -1.264559e+02  -1.029662e+02
  -4.676887e+01  -1.673599e+02
   8.406675e+01  -7.555074e+01
   6.226541e+01   1.538933e+01
   2.879864e+01   5.266494e+01
   2.747520e+01   3.201612e+01
   4.948402e+01   2.728799e+01
   4.027191e+01   3.163515e+01
   4.044818e+01   1.743365e+01
  -6.798566e+01   5.396910e+01
  -1.733633e+02  -1.878757e+01
  -1.036851e+02  -6.535421e+01
  -5.010573e+01  -9.461801e+01
   1.145047e+02  -5.180317e+01
   1.699681e+02  -1.091680e+01
   4.828395e+01   6.186405e+01
  -8.278470e+01   2.119898e+01
  -4.575032e+01  -2.347867e+01
  -1.999845e+01  -6.929235e+01
   1.726965e+01  -3.035111e+01
   6.588367e+01  -7.928169e+00
   5.269380e+00   3.454730e+01
   6.490463e+01   5.552260e+01
   7.966821e+01  -1.984083e+01
   8.139171e+01  -9.123368e+00
   3.592834e+01   9.786508e+01
  -3.523179e+01   1.383193e+02
  -1.357693e+02   1.277433e+02
  -1.579517e+02   9.416984e+00
  -1.412843e+02  -6.149102e+01
  -3.178110e+01  -1.339403e+02
   9.257830e+01  -2.218502e+01
   7.158794e+01   7.795919e+00
  -8.122794e+01   2.778619e+01
  -1.018491e+02  -2.623935e+01
  -9.594910e+01  -1.377169e+02
   7.746071e+01  -9.518396e+01
   1.964200e+02  -5.356940e+01
   1.677923e+02   3.120695e+01
   7.956494e+01   9.393795e+01
  -8.175732e+01   6.765598e+01
  -9.610012e+01  -1.056471e+01
   4.128042e+01  -2.289689e+01
   1.071232e+02   2.008822e+01
   4.121796e+01   1.124683e+02
  -7.914681e+01   1.432933e+02
  -1.175852e+02   8.679651e+01
  -1.360002e+02  -7.325520e+01
  -3.869946e+00  -1.892932e+02
   1.079355e+02  -1.644892e+02
   1.248685e+02   1.835266e+01
   9.383863e+00   1.148206e+02
   1.865292e+00   7.951021e+01
  -5.262078e+01   4.826413e+01
  -7.508855e+01  -1.776556e+01
  -9.970701e+00   2.795700e+01
   1.650326e+01  -4.607977e+00
  -2.053934e+01   2.053397e+00
  -4.889140e+01  -7.704193e+01
  -1.541761e+01  -1.037249e+02
   4.509693e+01  -4.382792e+01
   1.428206e+02   4.381110e+01
   1.508543e+02   7.187023e+01
   4.498624e+01   6.455097e+01
  -9.138868e+01   1.630141e+01
  -9.879900e+01  -2.242310e+01
  -3.335638e+01   4.228661e+00
   5.478707e+01  -3.246698e+01
   4.180943e+00   1.916517e+01
  -9.687544e+00  -9.472157e+00
  -2.949344e+01   4.489311e+00
   3.856382e+01  -4.145747e+00
   1.012106e+02   5.817271e+01
  -1.430361e+01   9.341529e+01
  -1.158192e+02   8.510077e+01
  -1.725195e+02   2.809987e+01
  -1.324694e+02  -7.267783e+01
   2.092184e+01  -1.447327e+02
   1.031965e+02  -1.271943e+02
   8.053959e+01  -3.662185e+01
   9.256658e+01   5.109632e+01
   9.922888e-01   3.509615e+01
   9.290165e-02   2.751397e+01
   4.859617e+01   8.490394e-01
   3.077667e+01   4.784185e+01
   2.573547e+01   6.750805e+01
  -4.547649e+01   8.813935e+01
  -8.062271e+01  -3.197618e+01
  -9.136436e+01  -1.244518e+02
   1.624868e+01  -1.318404e+02
   7.201959e+01  -1.923216e+01
   1.347062e+02   5.733999e+01
   4.691275e+01   1.043534e+02
  -7.891904e+01   7.694811e+01
  -8.313603e+01  -1.177357e+01
  -6.036886e+01  -1.711904e+01
   1.444642e+01  -5.513443e+01
   2.118721e+01  -3.361845e+01
  -1.831059e+01   1.566784e+01
  -6.982008e+01   4.604165e+01
  -4.394280e+00  -5.403155e+01
   6.776948e+01  -5.836226e+01
   1.427662e+02  -3.473112e+01
   8.577332e+01  -1.260056e+01
  -4.177075e+01   4.678477e+01
  -4.394337e+01   4.714722e+01
  -7.660949e-01  -9.881423e+00
  -1.472346e+00  -5.997743e+01
   4.503577e+01  -4.520985e+01
   1.849481e+01   4.590660e+01
   4.352106e+01   1.096635e+02
  -4.399134e+00   1.084686e+01
  -7.891707e+00  -1.276369e+01
  -2.098447e+01  -3.014347e+01
  -4.034959e+01  -1.538726e+01
   3.731885e+01   5.300122e+01
  -2.356323e+01  -3.639472e+01
   1.108973e+01  -5.830389e+01
   1.167733e+01  -2.470373e+01
   3.067702e+01  -2.536215e+01
   3.212501e+01   5.104367e+01
   5.445660e-01   3.414054e+01
  -4.587962e+01   5.068052e+01
  -3.445055e+01  -6.245356e+01
   2.566999e+01  -6.051036e+01
   4.554256e+01  -2.470488e+01
   1.088713e+02   7.091994e+00
   3.447082e+01   5.584716e+01
   4.247700e-01   4.117274e+01
  -7.940416e+01   1.715105e+01
  -1.221165e+01  -1.905008e+01
   4.654931e+01   2.616206e+01
   4.994093e+01   4.981337e+01
  -4.454435e+01   3.036396e+01
  -1.299128e+02   5.281829e+01
