
 $NMID
 id='ANONYMOUS ', fmtdat='(2E16.6)'
 volume=1.0
 tramp=1.0
 $END
  -3.922774e+03  -3.949862e+02
  -2.293626e+03  -2.358668e+03
   6.642741e+02  -2.493902e+03
   1.981234e+03  -8.467350e+02
   8.871493e+02   4.051668e+02
  -4.065528e+02   4.101997e+02
  -6.268687e+02  -3.533680e+02
  -2.777268e+01  -8.529504e+02
   7.170187e+02  -6.372025e+02
   8.469569e+02   6.941432e+01
   4.258893e+02   7.804396e+02
  -1.791081e+02   8.207116e+02
  -5.337653e+02   1.112244e+02
  -2.949862e+02  -6.582603e+02
   2.691104e+02  -6.997018e+02
   5.731470e+02   6.777146e+00
   2.510331e+02   6.005861e+02
  -2.443134e+02   6.216085e+02
  -5.288593e+02   1.396868e+02
  -4.001213e+02  -2.954440e+02
  -4.139028e+01  -4.120537e+02
   2.252064e+02  -2.953736e+02
   2.284133e+02  -3.287910e+01
  -1.178521e+02   3.622550e+01
  -3.846232e+02  -1.236366e+02
  -1.523884e+02  -3.906975e+02
   5.095845e+02  -3.013278e+02
   7.944235e+02   1.324814e+02
   3.552248e+02   4.843460e+02
  -3.414406e+02   4.216479e+02
  -6.602401e+02  -1.045169e+02
  -3.092439e+02  -4.344926e+02
   2.684375e+02  -4.950768e+02
   5.248883e+02  -1.906303e+02
   3.928388e+02   2.319491e+02
   6.926510e+01   4.080544e+02
  -1.339555e+02   2.481215e+02
  -7.471849e+01  -1.929548e+02
   2.014580e+02  -3.512346e+02
   4.015998e+02   9.671033e+01
   1.087041e+02   6.563398e+02
  -3.718617e+02   5.980804e+02
  -5.690987e+02   4.556328e+01
  -2.404056e+02  -5.262604e+02
   2.543411e+02  -2.965312e+02
   3.383364e+02   3.058919e+02
  -8.899355e+01   4.804688e+02
  -5.277972e+02   1.062588e+02
  -5.717239e+02  -3.890186e+02
  -1.907126e+02  -5.508148e+02
   3.514263e+02  -3.155996e+02
   6.087475e+02   8.848427e+01
   3.806581e+02   3.674290e+02
  -1.329682e+02   3.138715e+02
  -3.806731e+02   2.828082e+01
  -2.555375e+02  -1.731786e+02
   6.707925e+01  -8.507534e+01
   9.812736e+01   1.450370e+02
  -1.534885e+02   8.819730e+01
  -2.827840e+02  -4.655936e+01
  -1.298094e+02  -2.459021e+02
   1.612914e+02  -2.217944e+02
   3.243178e+02  -8.262639e+01
   2.101548e+02   5.159861e+01
  -1.864430e+01   2.200720e+02
  -2.098359e+02   3.598343e+02
  -3.307153e+02   1.894205e+02
  -2.871406e+02  -1.637484e+02
  -6.102926e+01  -4.318882e+02
   1.268340e+02  -3.643259e+02
   1.129888e+02  -1.668712e+02
   3.149659e+01  -1.547910e+01
   7.524863e+01  -8.533677e+01
   2.022852e+02  -7.466190e+01
   2.587773e+02   7.882942e+01
   1.580093e+02   2.525525e+02
  -8.028685e+01   2.041269e+02
  -2.351702e+02   2.472519e+01
  -2.059856e+02  -2.364107e+02
   5.482064e+01  -3.100545e+02
   2.339457e+02  -8.770593e+01
   3.782962e+02   1.460965e+02
   1.751536e+02   3.316728e+02
  -9.487375e+01   2.969280e+02
  -1.818333e+02   1.322706e+02
  -1.535152e+02   5.333486e+00
  -1.325710e+02   6.062550e+01
  -2.757295e+02   7.346252e+01
  -3.808305e+02  -7.824970e+01
  -3.448045e+02  -2.872452e+02
   3.718783e+01  -4.489809e+02
   3.856639e+02  -3.706854e+02
   4.870591e+02  -1.917935e+02
   3.760628e+02   1.299784e+02
   1.491091e+01   3.142858e+02
  -1.276607e+02   2.032205e+02
  -5.697127e+01   3.395562e+01
   1.534420e+02  -8.112968e+01
   1.844770e+02   1.954209e+01
   1.570700e+01   1.441226e+02
  -1.700077e+02   1.223695e+02
  -1.344754e+02  -7.281996e+01
   4.409574e+01  -1.955715e+02
   1.950553e+02  -1.858676e+01
   1.193771e+02   2.309801e+02
  -5.083142e+01   3.433708e+02
  -2.309630e+02   1.914846e+02
  -3.375988e+02  -6.382029e+01
  -2.355394e+02  -2.513000e+02
  -8.763958e+01  -2.752321e+02
   9.443457e+01  -9.190093e+01
   1.326369e+02   2.464532e+01
   6.715251e+01   8.614862e+01
  -4.450964e+01  -2.895588e+01
  -2.647793e+01  -1.156090e+02
   1.255079e+02  -6.717072e+01
   2.097173e+02   2.896330e+01
   1.315068e+01   8.674457e+01
  -1.052786e+02   3.114727e+00
  -7.145020e+01  -8.757396e+01
   1.410030e+02  -9.969620e+01
   2.996814e+02   2.810989e-01
   2.624137e+02   1.247339e+02
   5.483978e+01   2.514826e+02
  -1.966890e+02   2.412082e+02
  -2.836141e+02   1.391918e+02
  -1.899794e+02  -9.781379e+01
   1.116777e+01  -9.082171e+01
   6.676539e+01   4.636511e+00
  -2.925857e+01   6.998116e+01
  -1.727731e+02   6.303870e+01
  -1.408862e+02  -9.003738e+01
  -4.996515e+01  -2.063353e+02
   1.079352e+02  -1.573520e+02
   1.181537e+02  -2.180765e+01
   5.120156e+01   5.662411e+01
  -3.529932e+01   1.696117e+01
  -5.683319e+01  -1.019901e+02
   4.446470e+01  -1.389446e+02
   1.944421e+02  -3.484293e+01
   1.625882e+02   1.489945e+02
  -1.670312e+01   2.321475e+02
  -1.993396e+02   1.343413e+02
  -1.900868e+02   4.473550e+00
  -1.550257e+01  -1.421419e+02
   8.049142e+01  -1.245622e+02
   9.342166e+01  -2.296230e+01
   3.260974e+01   3.898033e+01
  -4.454511e+01   7.437898e+00
   2.298929e+01  -3.391177e+00
   7.890334e+01  -2.793798e+00
   6.206552e+01   8.810608e+01
  -1.868449e+00   1.802019e+02
  -1.195118e+02   1.341245e+02
  -2.370556e+02  -2.892181e+00
  -1.735916e+02  -1.179209e+02
  -4.894282e+01  -2.540458e+02
   8.606524e+01  -1.446812e+02
   1.605831e+02   9.150811e+00
   2.839003e+01   5.071699e+01
   3.534847e+01   1.189369e+00
   6.626976e+01  -2.529194e+01
   9.799840e+01   1.407965e+01
  -1.249166e+00   5.096928e+01
  -5.210021e+01   9.830743e+01
  -1.105292e+02   4.426024e+01
  -1.054782e+02  -1.743185e+01
   4.460928e+00  -1.353772e+02
   1.301264e+02  -1.010686e+02
   1.993710e+02   5.648759e+01
   9.071049e+01   2.396635e+02
  -7.388037e+01   2.142874e+02
  -2.561051e+02   7.874845e+01
  -2.690002e+02  -8.701700e+01
  -1.287113e+02  -1.872211e+02
   1.894061e+01  -1.561666e+02
   1.200356e+02  -5.263171e+01
   4.689859e+01  -3.214524e+01
   9.332289e+01  -6.227863e+01
   1.139183e+02  -6.098622e+01
   1.618930e+02  -2.821678e+00
   1.224117e+02   1.654008e+02
  -2.898214e+00   2.321596e+02
  -1.082106e+02   1.463370e+02
  -1.762217e+02   1.436217e+01
  -1.532424e+02  -1.338136e+02
  -6.068019e+01  -1.614727e+02
   5.599173e+01  -8.040660e+01
   7.110634e+01   1.692083e+01
   2.509068e+00   3.628387e+01
   1.926139e+01   2.618066e+01
   6.129884e+01  -4.709252e+00
   6.320211e+01   4.824040e+01
   7.149147e+01   5.335664e+01
  -1.023689e+02   4.841606e+01
  -1.805402e+02   1.104232e+01
  -1.175843e+02  -8.731253e+01
  -4.999084e+01  -9.746927e+01
   1.020351e+02  -4.287518e+01
   1.497195e+02   1.408962e+01
   5.301245e+01   6.555319e+01
  -2.853141e+01   4.988209e+01
  -1.270494e+02   4.624003e+00
   1.714848e+01  -6.669569e+01
   5.453598e+01  -4.182944e+01
   7.899005e+01  -1.373756e+01
   9.538073e+01   5.232142e+01
   5.626637e+01   4.428167e+01
   6.979890e+00   2.716276e+00
   3.044549e+01  -5.771268e+00
   3.952068e+01   9.096234e+01
  -2.139030e+01   1.670368e+02
  -1.103305e+02   1.072998e+02
  -2.135650e+02   3.688337e+01
  -1.040752e+02  -1.291475e+02
   4.078451e+00  -1.640378e+02
   7.893737e+01  -5.801313e+00
   3.749571e+01  -6.818047e+00
  -4.722307e+01   4.000615e+01
  -1.540830e+02  -4.780069e+01
  -7.560869e+01  -9.626874e+01
   6.818155e+01  -1.186192e+02
   2.272966e+02  -6.287177e+01
   2.051541e+02   1.032463e+01
  -2.411465e+01   7.889981e+01
  -5.255877e+01   8.029629e+01
  -3.475536e+01   1.074178e+01
   2.937065e+01  -6.048035e+00
   6.409817e+01   1.349608e+00
   2.647499e+01   1.084824e+02
  -9.051016e+01   1.115081e+02
  -1.298725e+02   4.170789e+01
  -1.278813e+02  -8.218720e+01
   5.770572e+00  -1.768381e+02
   6.371911e+01  -1.530334e+02
   6.137617e+01  -1.775267e+01
  -7.480972e-01   1.241930e+02
   7.557717e+00   1.302548e+02
  -6.286926e+01   2.499539e+00
  -8.576610e+01  -4.222399e+01
  -3.376287e+01   5.454843e+00
   2.026601e+01   5.470027e+00
  -2.985458e+01  -4.170631e+01
  -4.334486e+01  -1.043679e+02
  -4.107028e+01  -1.238763e+02
   3.912031e+01  -3.146193e+01
   1.395115e+02   6.996738e+01
   1.315130e+02   7.123997e+01
   1.946164e+01   5.669738e+01
  -8.362437e+01   3.936934e+01
  -9.702364e+01   2.546245e+01
  -3.711623e+01  -3.103687e+01
   5.779635e+01  -5.732786e+01
   3.226045e+01  -1.681619e+01
  -7.093696e+00   1.412504e+01
  -1.888391e+01  -3.708354e+00
   3.787324e+01  -5.650071e+00
   1.204932e+02   4.608372e+01
   1.920018e+01   8.737742e+01
  -1.220351e+02   1.083950e+02
  -2.170797e+02   5.854637e+01
  -1.365848e+02  -9.493587e+01
  -5.209388e+01  -1.708905e+02
   7.753022e+01  -1.431435e+02
   1.367511e+02  -4.494173e+01
   6.943002e+01   6.437175e+00
  -6.803176e+00   3.301113e+01
  -3.699222e+01  -9.480595e+00
  -1.551187e+01   1.479238e+01
   3.293322e+01   4.456968e+01
   4.751199e+01   1.028812e+02
  -4.514757e+01   7.903825e+01
  -7.668660e+01  -2.719481e+01
  -9.244635e+01  -7.347956e+01
  -1.719490e+01  -7.844989e+01
   6.536316e+01  -2.679973e+01
   7.043046e+01   9.359180e+01
   1.443556e+00   7.696416e+01
  -5.740539e+01   6.145601e+01
  -9.795445e+01  -3.928032e+01
  -1.040122e+01  -6.551572e+01
   6.495368e+01  -5.462457e+00
   3.380465e+01  -1.019243e+01
  -3.837762e+01   1.774101e+01
  -3.674321e+01  -4.337523e+01
  -5.553703e+00  -1.982600e+01
   6.650436e+01  -7.255041e+01
   1.159774e+02  -5.180079e+01
   5.475436e+00  -7.162063e+00
   2.725757e+01   6.343367e+01
  -5.125373e+01   8.949929e+01
  -4.298756e+01   2.087445e+01
   1.941706e+01  -5.596077e+01
   5.010618e+01  -4.095684e+01
   5.764038e+01   1.319848e+01
   6.786358e+01   5.506773e+01
   1.865186e+01   4.790494e+01
  -2.349890e+01   1.579373e+01
  -3.161361e+01  -1.548849e+01
  -7.256847e+00  -6.976820e+00
  -2.820208e+01  -2.055585e+01
   4.548057e+01   6.179088e+00
   9.728423e+00  -1.673608e+00
   1.436389e+00  -3.961214e+01
   2.355485e+01  -1.712717e+01
   3.488954e+01   5.088465e+01
   2.072290e+00   6.165795e+01
  -1.198492e+01   4.162977e+00
  -9.163170e+01  -7.348920e+01
  -1.489763e+01  -7.934038e+01
   6.846978e+01  -5.668173e+00
   1.237206e+02   1.465983e+01
   9.056156e+01  -3.014665e+00
  -3.168309e+01   5.363294e+01
  -2.249490e+01  -1.882092e-01
  -6.749466e+00   4.945256e+00
   6.328033e+01  -2.121321e+01
  -1.052982e+01   6.513247e+01
  -7.321003e+01   4.687484e+01
  -7.402943e+01   2.730462e+01
