
 $NMID
 id='ANONYMOUS ', fmtdat='(2E16.6)'
 volume=1.0
 tramp=1.0
 $END
   4.736279e+03  -1.501438e+02
   2.578357e+03   3.067939e+03
  -9.683283e+02   2.943375e+03
  -2.392865e+03   8.401920e+02
  -9.617873e+02  -8.263838e+02
   7.758287e+02  -6.976415e+02
   1.030613e+03   5.413290e+02
  -5.507173e+01   1.196623e+03
  -1.003511e+03   8.298172e+02
  -1.057207e+03  -1.742425e+02
  -5.163537e+02  -9.960519e+02
   2.577294e+02  -9.693011e+02
   7.219125e+02  -1.387256e+02
   4.632889e+02   8.137694e+02
  -3.136587e+02   8.703821e+02
  -6.610710e+02  -5.186668e+01
  -3.273897e+02  -7.342007e+02
   3.344129e+02  -6.733770e+02
   5.984174e+02  -5.910329e+01
   3.879022e+02   3.545231e+02
   5.192219e+00   4.956986e+02
  -3.422625e+02   2.900111e+02
  -3.013841e+02  -2.684341e+01
   1.385459e+02  -1.432209e+02
   4.847640e+02   3.912489e+01
   2.808493e+02   4.302218e+02
  -4.656273e+02   4.913297e+02
  -9.633668e+02  -7.323840e+01
  -5.072857e+02  -6.265843e+02
   4.537188e+02  -5.634143e+02
   8.680907e+02   2.142472e+01
   3.930171e+02   5.247415e+02
  -2.940080e+02   6.236796e+02
  -6.128988e+02   2.108384e+02
  -4.924440e+02  -2.194675e+02
  -8.796001e+01  -4.884957e+02
   2.231333e+02  -3.343193e+02
   2.252311e+02   2.784392e+02
  -1.943436e+02   4.952171e+02
  -5.211021e+02   1.296075e+01
  -2.782579e+02  -7.790040e+02
   4.023070e+02  -7.410151e+02
   6.661828e+02  -1.908261e+01
   3.410832e+02   6.760463e+02
  -3.560036e+02   3.745679e+02
  -4.387828e+02  -3.488411e+02
   2.703619e+00  -6.020165e+02
   5.837741e+02  -1.363025e+02
   6.811314e+02   3.623741e+02
   2.036219e+02   6.039118e+02
  -3.700481e+02   3.462246e+02
  -7.069344e+02  -6.445284e+01
  -4.198899e+02  -4.239497e+02
   1.420933e+02  -4.086571e+02
   5.185167e+02  -2.576914e+01
   2.659229e+02   2.639012e+02
  -1.475512e+02   7.806225e+01
  -1.843054e+02  -1.818007e+02
   1.833575e+02  -1.820564e+02
   3.984044e+02   1.041592e+02
   1.528682e+02   3.145732e+02
  -2.487875e+02   2.738797e+02
  -3.940223e+02   7.220229e+01
  -1.836703e+02  -1.345102e+02
  -1.764677e+01  -2.256864e+02
   2.363694e+02  -3.129148e+02
   3.900984e+02  -2.405452e+02
   3.360263e+02   1.304327e+02
   1.032621e+02   4.785940e+02
  -1.226583e+02   4.100015e+02
  -1.428318e+02   9.598440e+01
  -1.870183e+01  -4.279612e+01
  -5.528339e+01   1.151140e+02
  -1.836131e+02   1.877069e+02
  -3.359073e+02  -7.248338e+01
  -1.998893e+02  -2.763290e+02
   3.857638e+01  -2.870239e+02
   2.652892e+02  -4.528618e+01
   2.273779e+02   2.972181e+02
   4.326109e+01   3.218954e+02
  -3.073824e+02   1.396014e+02
  -3.889310e+02  -1.479938e+02
  -2.041517e+02  -4.228114e+02
   1.059581e+02  -3.796935e+02
   2.516142e+02  -1.087618e+02
   1.789679e+02  -5.477155e+00
   7.999543e+01  -4.058310e+01
   2.480026e+02  -7.537028e+01
   3.959579e+02   2.405905e+01
   3.970882e+02   2.977341e+02
   5.455774e+01   4.529992e+02
  -3.320099e+02   4.671722e+02
  -5.055031e+02   2.831311e+02
  -3.559580e+02  -5.218878e+01
  -9.793696e+01  -2.906542e+02
   1.518801e+02  -2.495363e+02
   9.778318e+01  -1.895932e+01
  -1.236350e+02   1.138057e+02
  -2.252545e+02   5.041739e+00
  -4.529549e+01  -1.995311e+02
   1.657298e+02  -2.282707e+02
   1.932823e+02   7.679575e+01
   2.614524e+01   1.974469e+02
  -1.861058e+02   6.454644e+01
  -2.150908e+02  -2.151494e+02
   6.028420e+01  -4.022991e+02
   2.365037e+02  -2.087635e+02
   3.639134e+02   4.466513e+01
   2.986743e+02   2.465970e+02
   1.065954e+02   2.576579e+02
  -1.321628e+02   1.781268e+02
  -1.858696e+02   1.554123e+01
   1.687691e+01  -6.474525e+01
   1.033423e+02  -1.080517e+00
   4.545374e+01   1.482908e+02
  -9.441961e+01   1.169802e+02
  -2.109040e+02   4.902926e+01
  -6.575020e+01  -5.527545e+01
   9.184037e+01  -2.599458e+01
   9.065009e+01   7.837406e+01
  -1.224593e+02   7.162229e+01
  -2.672610e+02  -6.693418e-01
  -2.375967e+02  -1.691130e+02
  -6.558942e+01  -2.908287e+02
   2.025623e+02  -2.873862e+02
   3.227104e+02  -1.400899e+02
   1.751328e+02   5.330032e+01
  -4.424785e+01   1.072790e+02
  -1.029816e+02   2.334579e+01
   3.590934e+01  -1.327707e+02
   2.177268e+02  -7.981815e+01
   2.190783e+02   5.670193e+01
   7.220482e+01   2.341659e+02
  -1.174528e+02   1.589926e+02
  -1.694407e+02   4.097640e+01
  -7.675808e+01  -7.947468e+01
   3.717956e+01   1.138541e+01
   5.074250e+01   6.552478e+01
  -7.926748e+01   9.248786e+01
  -1.385342e+02   3.017199e+01
  -1.736251e+02  -1.542341e+02
  -6.713531e+01  -2.485594e+02
   1.957195e+02  -1.653752e+02
   2.584992e+02   1.083436e+01
   1.051954e+02   1.240536e+02
  -6.992431e+01   1.181138e+02
  -1.053967e+02   4.247256e+01
  -1.127277e+01  -3.166925e+00
   1.638915e+01  -3.267537e+01
  -2.650878e+01  -1.950082e+00
  -7.871631e+01   1.382957e+01
  -9.581184e+01  -6.202177e+01
   1.442756e+00  -1.388322e+02
   8.671943e+01  -1.910391e+02
   2.731266e+02  -3.594194e+01
   1.989871e+02   1.442915e+02
   6.380032e+01   2.077438e+02
  -1.288428e+02   1.647488e+02
  -1.097043e+02   4.046999e+01
  -4.140123e+01  -7.530724e+01
  -5.179629e+01  -5.840884e+01
  -7.785078e+01   3.565554e+01
  -9.271852e+01   1.474980e+01
  -2.803249e+01  -4.534128e+01
   3.147537e+01  -9.470394e+01
   8.132115e+01  -7.692228e+01
   8.878131e+01   2.652337e+01
  -1.776913e+01   9.553186e+01
  -1.175014e+02   8.458337e+01
  -2.112055e+02  -4.779323e+01
  -1.240873e+02  -1.980776e+02
   6.651033e+01  -2.253377e+02
   2.780976e+02  -9.940110e+01
   2.717995e+02   9.616393e+01
   1.163599e+02   2.157654e+02
  -4.593531e+01   1.662581e+02
  -1.267959e+02   5.348748e+01
  -1.034350e+02   6.870329e+01
  -7.572640e+01   9.827731e+01
  -9.009854e+01   7.810659e+01
  -1.258422e+02  -5.564603e+00
  -1.140452e+02  -1.914127e+02
  -3.846339e+01  -2.178689e+02
   8.153880e+01  -1.948219e+02
   1.613813e+02  -1.787799e+00
   1.523096e+02   7.569741e+01
   3.681152e+01   1.321476e+02
  -8.099341e+01   6.248958e+01
  -8.894009e+01   4.415838e+01
  -2.026771e+01  -5.535724e+01
   2.735538e+01  -4.841957e+01
  -5.142239e+01  -1.941240e+01
  -6.208360e+01  -2.233819e+01
  -6.024109e+01  -4.087213e+01
   7.599380e+01   9.646885e+00
   1.583347e+02   7.355679e+00
   1.262890e+02   6.517428e+01
   5.895937e+01   7.604425e+01
  -1.449995e+02   1.090810e+02
  -1.447851e+02   2.167754e+01
  -4.225250e+01  -9.620318e+00
   5.691393e+01  -3.907474e+01
   7.618399e+01   1.351009e+01
   1.617395e+01   6.820818e+01
  -6.445251e+01   7.071230e+01
  -9.084374e+01  -1.498331e+01
  -4.932782e+01  -7.479427e+01
  -2.730305e+01  -7.585421e+01
  -7.496103e+01  -1.505406e+01
  -8.198270e+01   2.542294e+01
  -1.300520e+01  -6.662832e+01
   6.167422e+01  -1.721808e+02
   8.736203e+01  -1.441493e+02
   1.315622e+02  -3.272652e+01
   1.297066e+02   8.993316e+01
   6.222051e+00   1.187134e+02
  -7.469574e+01   9.933378e+01
  -5.255155e+01  -2.052259e+01
   7.958695e+01   6.832125e+00
   1.310466e+02   7.381821e+01
   8.466529e+01   9.478612e+01
  -1.053723e+02   1.202494e+02
  -2.096711e+02   6.261593e+01
  -1.732171e+02  -5.049980e+00
  -1.930540e+01  -1.025437e+02
   8.141889e+01  -8.261075e+01
   4.297909e+01  -2.791661e+01
  -5.449086e+01   6.169782e+01
  -1.115710e+02  -2.096248e+01
  -3.849035e+01  -1.326276e+02
   7.581439e+01  -1.674470e+02
   1.758873e+02  -6.461117e+01
   1.544142e+02   1.201012e+02
  -1.589946e+01   1.885985e+02
  -4.682031e+01   1.569830e+02
  -8.680309e+01   1.988178e+01
  -6.970395e+01  -1.267987e+02
  -1.104276e+01  -1.382733e+02
   9.874455e+01  -3.696049e+01
   7.080342e+01   5.698693e+01
   7.480307e+00   7.228597e+00
  -3.166844e+01  -8.704118e+00
   6.627442e+01   1.376903e+00
   8.110024e+01   6.620149e+01
   7.677332e+01   9.138564e+01
  -4.345227e+01   1.475454e+01
  -1.229506e+02  -2.050910e+01
  -1.640356e+02  -1.077727e+02
  -3.798859e+01  -8.214152e+01
   8.252052e+01  -3.398797e+01
   1.117212e+02  -9.017284e+00
   3.573288e+01   3.175973e+00
  -1.072697e+01   3.411841e+01
  -1.575202e+01  -3.271474e+01
   3.830441e+01  -1.924144e+01
   9.582370e-01  -2.533403e+01
  -6.474712e+01   5.910344e+00
  -8.995813e+01  -4.146779e+01
   2.387832e+00  -1.073009e+02
   1.241140e+02  -1.017649e+02
   2.067753e+02  -3.386674e+01
   1.229782e+02   1.017082e+02
   2.671003e+01   1.545692e+02
  -9.359656e+01   1.567802e+02
  -1.427203e+02   6.265438e+01
  -9.545309e+01  -2.195556e+01
   4.386485e+00  -3.344760e+01
   1.897431e+01  -3.808052e+00
  -3.447777e+01  -8.963846e-01
  -1.919280e+01  -1.836349e+01
  -2.866382e+01  -1.129335e+02
   3.142914e+01  -6.750782e+01
   9.578829e+01  -7.518788e+00
   9.054473e+01   1.284870e+02
  -1.623480e+01   1.329625e+02
  -9.232046e+01   1.338488e+01
  -1.183015e+02  -6.158384e+01
  -5.027782e+01  -1.087121e+02
   1.011940e+02  -3.537494e+01
   1.240253e+02   2.348685e+01
   3.962874e+01   4.361020e+01
  -1.630242e+01   2.802049e+01
  -1.490378e-01   1.894368e+01
   5.459309e+01  -2.612048e+01
   7.239571e+01  -1.679166e+01
   3.699049e+01   1.059222e+01
  -7.604731e+01   5.655439e+01
  -9.092359e+01   7.070348e+01
  -7.752014e+01  -4.024899e+01
   3.525711e+01  -9.722945e+01
   6.893180e+01  -5.511591e+01
   2.410948e+01   1.767032e+01
   1.223124e+00   3.776000e+01
  -1.164259e+01   6.826813e+01
  -1.956658e+01  -2.649842e+00
   1.300371e+01  -6.352155e+01
  -1.798044e+01  -3.393411e+01
   4.177367e+01  -1.154706e+01
   3.710805e+01   4.716340e+01
   3.856976e+01   2.900124e+00
  -3.173170e+01  -1.276551e+01
  -3.120597e+01  -9.590558e-01
   4.970428e+01   5.273276e+01
   2.133807e+01   1.047488e+02
  -3.396110e+01   2.848148e+01
  -5.752795e+01  -3.901264e+01
  -1.613473e+01  -6.213468e+01
   4.478041e+01  -2.508300e+01
   5.978883e+01   5.946157e+01
   4.549456e+00   4.580521e+01
  -3.581109e+01   6.052078e+01
  -8.009887e+01  -8.036563e-01
  -7.141624e+01  -3.225498e+01
  -3.752730e+01  -3.263703e+01
   5.901307e+01  -5.446761e+01
   3.618229e+01  -1.473404e+00
  -1.043124e+01   1.915948e+01
  -5.706481e+01   6.186031e+00
   4.462955e+01  -4.481917e+01
   9.494845e+01  -1.218816e+01
