
 $NMID
 id='ANONYMOUS ', fmtdat='(2E16.6)'
 volume=1.0
 tramp=1.0
 $END
  -4.490600e+03  -3.557516e+01
  -2.485243e+03  -2.902884e+03
   9.972726e+02  -2.919905e+03
   2.431001e+03  -8.041226e+02
   9.544020e+02   7.853491e+02
  -7.267686e+02   6.472335e+02
  -9.200231e+02  -5.425401e+02
   4.520040e+01  -1.155715e+03
   1.002394e+03  -8.111302e+02
   1.015213e+03   1.203299e+02
   4.102068e+02   9.723106e+02
  -3.040238e+02   9.544135e+02
  -6.581092e+02   3.673209e+01
  -4.132067e+02  -8.146439e+02
   3.359154e+02  -7.914295e+02
   6.788840e+02  -7.101630e-01
   2.726639e+02   7.365160e+02
  -3.785077e+02   6.360589e+02
  -6.438754e+02   4.596267e+01
  -3.960584e+02  -4.129971e+02
   2.674184e+01  -4.806298e+02
   2.703600e+02  -2.110549e+02
   2.162418e+02  -8.362422e-01
  -1.295870e+02   9.971579e+01
  -4.479838e+02  -1.083484e+02
  -2.555538e+02  -4.547635e+02
   4.258960e+02  -5.040257e+02
   9.007860e+02   3.375615e+01
   4.352271e+02   5.899823e+02
  -4.464204e+02   5.666733e+02
  -8.104095e+02  -2.790362e+01
  -3.990791e+02  -5.148121e+02
   3.264761e+02  -5.330629e+02
   5.980021e+02  -1.989032e+02
   3.981355e+02   2.038099e+02
   7.428675e+01   4.789858e+02
  -2.207843e+02   3.243369e+02
  -2.215112e+02  -2.352603e+02
   2.198242e+02  -4.360119e+02
   5.045067e+02   9.473179e+00
   2.592108e+02   7.471987e+02
  -3.865099e+02   7.526357e+02
  -7.128930e+02   2.306931e+01
  -2.523984e+02  -6.468811e+02
   3.225324e+02  -3.465814e+02
   4.203466e+02   3.290049e+02
  -2.803815e+01   5.972251e+02
  -5.993992e+02   1.689621e+02
  -6.063695e+02  -3.719950e+02
  -1.982940e+02  -6.421493e+02
   3.779920e+02  -4.035149e+02
   6.855442e+02   1.217227e+02
   3.951414e+02   3.978583e+02
  -1.551556e+02   3.770435e+02
  -4.695457e+02   4.837551e+01
  -2.754006e+02  -2.171948e+02
   1.602825e+02  -1.084969e+02
   1.763788e+02   1.698593e+02
  -2.116336e+02   1.700271e+02
  -3.976032e+02  -4.313585e+01
  -1.283916e+02  -3.323702e+02
   2.443771e+02  -2.143223e+02
   3.694290e+02  -7.008180e+01
   1.947396e+02   7.702922e+01
  -9.491358e+00   2.223236e+02
  -1.993225e+02   3.272517e+02
  -3.509525e+02   2.917231e+02
  -2.883618e+02  -1.312997e+02
  -8.322154e+01  -4.791322e+02
   1.468763e+02  -4.097187e+02
   9.869109e+01  -7.703463e+01
   6.799076e+00   7.542456e+01
  -3.630290e+01  -6.656559e+01
   2.249427e+02  -1.794598e+02
   2.614343e+02   6.856020e+01
   1.622942e+02   2.515904e+02
  -6.468171e+01   2.706773e+02
  -2.187535e+02   1.806623e+01
  -2.366737e+02  -2.445801e+02
   4.373883e+01  -3.099932e+02
   2.746891e+02  -1.598098e+02
   3.762675e+02   1.176957e+02
   1.982703e+02   3.830211e+02
  -1.013896e+02   3.187357e+02
  -2.463265e+02   8.857779e+01
  -1.753970e+02  -4.836196e+00
  -2.976057e+01   9.335743e+00
  -2.134576e+02   6.949235e+01
  -4.045282e+02  -1.571894e+01
  -3.589373e+02  -2.671356e+02
   3.595965e+00  -4.754802e+02
   3.126766e+02  -4.561395e+02
   5.164638e+02  -2.620260e+02
   3.659708e+02   9.050756e+01
   8.589438e+01   2.886879e+02
  -1.387906e+02   2.594554e+02
  -9.922130e+01   3.807456e+01
   1.272851e+02  -1.464303e+02
   2.071692e+02   5.158908e-01
   5.358882e+01   1.703376e+02
  -1.961618e+02   1.950092e+02
  -1.637208e+02  -9.856438e+01
   8.864240e+00  -2.259449e+02
   2.144555e+02  -5.484646e+01
   1.998887e+02   2.297795e+02
  -2.079889e+01   3.695739e+02
  -2.154456e+02   1.810969e+02
  -3.359117e+02  -2.877970e+00
  -3.196802e+02  -2.349985e+02
  -9.275046e+01  -2.719955e+02
   1.112748e+02  -1.210761e+02
   1.524151e+02  -6.607067e-01
   5.287149e+01   6.205962e+01
  -5.299101e+01  -1.739224e+01
  -4.415402e+01  -1.326814e+02
   1.420557e+02  -1.304745e+02
   2.228040e+02  -1.462013e+01
   9.729674e+01   1.133233e+02
  -7.193773e+01   6.938195e+01
  -5.003137e+01  -5.098570e+01
   1.016798e+02  -6.056278e+01
   2.832566e+02   1.625060e+01
   2.885567e+02   8.378754e+01
   5.171209e+01   2.559875e+02
  -1.937641e+02   2.702002e+02
  -3.038112e+02   1.257218e+02
  -1.712813e+02  -5.898072e+01
   5.429546e+01  -1.183991e+02
   1.187540e+02   2.017136e+01
  -1.292352e+01   1.004898e+02
  -2.223868e+02   7.539913e+01
  -2.403570e+02  -7.490692e+01
  -6.684686e+01  -1.952127e+02
   9.235465e+01  -1.584530e+02
   1.340211e+02  -5.355240e+01
   9.071043e+01   8.485227e+01
  -3.130352e+00   5.461968e+01
  -3.216338e+00  -6.345214e+01
   7.091447e+01  -1.298417e+02
   1.923165e+02  -3.153338e+01
   2.071293e+02   1.198159e+02
   2.848933e+01   2.167067e+02
  -1.769372e+02   1.768775e+02
  -2.323620e+02  -2.164683e+01
  -1.152386e+02  -1.063527e+02
   7.232462e+01  -1.201783e+02
   5.721301e+01  -2.777737e+01
  -2.094246e-01  -4.139164e+00
  -1.796413e+01  -4.045053e+00
  -2.347528e+01  -1.046612e+01
   4.237327e+01   1.028124e+01
   5.717511e+01   4.663071e+01
  -3.735876e+00   1.666972e+02
  -8.906345e+01   1.247721e+02
  -2.404060e+02   3.692361e+01
  -1.922233e+02  -1.128501e+02
  -1.203880e+01  -2.171807e+02
   9.122110e+01  -1.857793e+02
   1.521573e+02  -4.525799e+01
   4.340294e+01   5.245093e+01
   3.042791e+00   5.754971e+01
   5.419649e+01   6.376168e+00
   8.468083e+01  -2.507880e+01
   4.860516e+01   1.192914e+00
  -5.235199e+01   6.964662e+01
  -1.052320e+02   5.687812e+01
  -5.181287e+01  -2.287147e+01
   2.249272e+01  -7.093180e+01
   1.574031e+02  -5.897797e+01
   2.098147e+02   5.441191e+01
   1.058712e+02   2.055607e+02
  -8.922422e+01   2.553335e+02
  -2.578653e+02   1.297768e+02
  -2.682225e+02  -1.137043e+02
  -1.129493e+02  -1.947970e+02
   8.013596e+01  -1.871938e+02
   1.192664e+02  -5.032511e+01
   8.814126e+01  -5.934811e+01
   9.511081e+01  -7.660952e+01
   6.737306e+01  -6.621822e+01
   9.764278e+01  -2.431615e+01
   1.354359e+02   1.348427e+02
   6.049294e+01   2.495006e+02
  -1.131388e+02   1.832132e+02
  -2.249468e+02   5.892647e+01
  -1.567653e+02  -1.040884e+02
  -2.717398e+01  -1.576485e+02
   7.785829e+01  -1.152453e+02
   3.963420e+01   4.605206e+00
   1.521356e+01   4.232962e+01
  -2.148178e-01   1.875866e+01
   4.965346e+01   4.735708e+01
   7.404172e+01   9.428925e+00
   2.890047e+01   7.724739e+01
  -3.299455e+01   8.162548e+01
  -1.028836e+02   9.932095e-01
  -1.483965e+02  -3.863280e+01
  -5.142594e+01  -1.123167e+02
   1.524014e+02  -1.063781e+02
   1.513682e+02  -5.142605e+01
   6.047851e+01   2.140486e+01
  -5.663731e+01   3.245938e+01
  -5.759060e+01  -2.717416e-01
   1.420637e+01  -1.040591e+02
   6.529676e+01  -9.818945e+01
   5.595069e+01   3.029848e+01
   2.985391e+01   6.391518e+01
   5.575263e+01   3.164709e+01
   6.440286e+01  -1.108167e+01
   5.169685e+01  -4.478312e+01
   2.817240e+01   4.458935e+01
  -1.026754e+01   1.854773e+02
  -1.062766e+02   1.231602e+02
  -1.667822e+02   4.001450e+01
  -1.048005e+02  -9.463125e+01
  -3.598673e+01  -1.104997e+02
   7.517305e+01  -8.345379e+01
   8.398554e+01   3.572579e+01
  -8.231865e+01   4.040683e+01
  -1.508078e+02  -6.956135e+01
  -5.475342e+01  -1.041888e+02
   1.145083e+02  -1.059538e+02
   2.406192e+02  -8.350338e+01
   1.636644e+02   6.070709e+01
   2.230290e+01   6.920999e+01
  -6.905832e+01   6.527890e+01
  -3.855715e+01   2.022856e+01
   5.156770e+01  -3.068194e+01
   6.689804e+01   4.611149e+01
   2.638563e+01   1.100646e+02
  -1.256163e+02   1.280841e+02
  -1.344801e+02   8.675893e+01
  -1.446117e+02  -1.196173e+02
  -1.212068e+01  -2.146530e+02
   7.146099e+01  -1.204753e+02
   1.431960e+02  -3.828181e-01
   7.537622e+01   1.169127e+02
  -9.398836e+00   1.214573e+02
  -2.211246e+01  -1.677374e+01
  -3.988884e+01  -3.616200e+01
  -6.510522e+00  -3.203334e+01
  -1.624528e+01   1.401397e+01
  -6.844384e+01  -4.511956e+00
  -2.555571e+01  -9.991759e+01
  -1.631770e+01  -7.940012e+01
   4.181992e+01  -4.176178e+01
   1.674703e+02   5.885089e+00
   1.480491e+02   1.060244e+02
   3.248582e+01   5.318818e+01
  -5.442181e+01  -2.416718e+01
  -8.841939e+01   1.771562e+01
   1.549946e+01   4.180843e+00
   4.752697e+01  -6.167547e+00
   1.876391e+01   1.975237e+01
   5.005947e+01  -1.584161e+01
  -1.960554e+00  -2.823810e+00
   9.085130e+01  -7.204843e-01
   6.102035e+01   2.101902e+01
   1.014223e+01   9.347351e+01
  -9.344057e+01   7.579775e+01
  -1.543287e+02   3.530602e+01
  -1.641232e+02  -7.304997e+01
  -3.549730e+01  -1.263423e+02
   8.194679e+01  -1.730717e+02
   1.036053e+02  -7.877123e+01
   5.100276e+01   1.413630e+01
   3.297251e+01   4.763002e+01
   2.308456e+00  -3.048315e+01
  -1.046785e+01  -5.242058e+01
   2.030784e+01   7.188863e+01
   4.185386e+01   9.253042e+01
  -7.812433e+00   5.064098e+01
  -5.450990e+01  -2.059987e+01
  -9.094180e+01  -1.360746e+02
   2.817545e+01  -1.235913e+02
   4.730049e+01  -1.044782e+00
   1.320182e+02   1.002807e+02
   1.086519e+01   1.109097e+02
  -7.422469e+01   6.528288e+01
  -1.017804e+02  -3.998547e+00
  -2.061801e+01  -7.424361e+01
   8.797470e+00  -4.581193e+01
   5.148318e+01  -5.253436e+01
  -2.394955e+01   1.441450e+01
  -8.072751e+01   2.275585e+01
   1.278109e+01  -1.003316e+01
   6.870934e+01  -4.215000e+01
   1.113474e+02  -4.806258e+01
   4.620455e+01   2.720928e+01
   2.090314e+01   9.846382e+01
  -1.640867e+01   8.462746e+01
  -3.271307e+01   3.105685e+01
  -6.327978e+00  -9.545460e+01
  -3.478932e+01  -1.459273e+01
   3.952752e+01   3.709191e+00
   3.897639e+01   4.827941e+01
   2.380511e+01   2.861865e+01
  -4.111570e+01  -1.311362e+01
  -2.694904e+01  -1.555349e+01
  -2.743999e+01  -1.646407e+00
  -7.661352e+00   2.993931e+01
   4.591806e+01   9.343933e+00
  -1.679283e+01  -3.456274e+01
   6.246738e+00  -6.919619e+01
   4.379118e+01   4.086583e+00
   4.213073e+00   4.154611e+01
  -4.566486e+00   5.477988e+01
  -6.972987e+01   1.922094e+00
  -5.351439e+01  -5.589955e+01
  -1.399135e+01  -4.165889e+01
   2.799047e+01  -5.287692e+01
   7.516496e+01   6.410288e+01
   6.051028e+01   2.123300e+01
  -7.472388e+00   1.756299e+01
  -6.328134e+01   1.688350e+01
  -9.129589e+00  -8.644105e+00
   4.044604e+01  -3.541471e-01
   5.977325e+01   4.348207e+01
  -7.436221e+01   3.834366e+01
  -1.227591e+02   5.588391e+01
