
 $NMID
 id='ANONYMOUS ', fmtdat='(2E16.6)'
 volume=1.0
 tramp=1.0
 $END
  -4.144471e+03  -4.277016e+02
  -2.313181e+03  -2.672940e+03
   8.178754e+02  -2.563733e+03
   1.991426e+03  -8.086231e+02
   8.357405e+02   5.032464e+02
  -5.488885e+02   3.907160e+02
  -7.096468e+02  -4.571184e+02
  -2.410149e+00  -9.810088e+02
   8.373902e+02  -6.864674e+02
   8.612562e+02   9.269590e+01
   3.253253e+02   7.886051e+02
  -2.143844e+02   8.534586e+02
  -5.461811e+02   8.050712e+01
  -3.520343e+02  -6.770126e+02
   2.999537e+02  -6.980107e+02
   5.496765e+02   4.371553e+00
   1.795727e+02   6.169038e+02
  -2.460367e+02   5.764796e+02
  -5.377259e+02   1.051014e+02
  -3.895338e+02  -3.052942e+02
  -3.413305e+01  -4.201894e+02
   2.178388e+02  -2.554893e+02
   1.700590e+02   1.779831e+01
  -1.419021e+02   2.732296e+01
  -3.890735e+02  -1.732081e+02
  -1.622787e+02  -4.547916e+02
   5.366323e+02  -3.803311e+02
   7.851793e+02   1.360419e+02
   3.832781e+02   5.596465e+02
  -3.671538e+02   4.612957e+02
  -7.007653e+02  -8.894997e+01
  -3.065401e+02  -5.061106e+02
   3.570549e+02  -4.647492e+02
   5.201420e+02  -2.335079e+02
   4.262186e+02   2.379514e+02
   2.293867e+00   4.110776e+02
  -1.934538e+02   2.445456e+02
  -9.815103e+01  -2.158711e+02
   2.326656e+02  -3.502087e+02
   3.951789e+02   9.549404e+01
   1.377117e+02   6.836905e+02
  -3.744670e+02   6.173850e+02
  -5.580897e+02   7.191482e-01
  -1.915533e+02  -5.869425e+02
   2.712852e+02  -2.406727e+02
   3.593852e+02   3.368402e+02
  -1.211348e+02   5.427610e+02
  -5.920701e+02   1.037455e+02
  -5.653176e+02  -4.199462e+02
  -1.741594e+02  -6.034657e+02
   4.009510e+02  -3.280032e+02
   5.803383e+02   7.444657e+01
   3.664534e+02   3.766162e+02
  -2.012259e+02   3.348096e+02
  -3.847474e+02   6.773470e+01
  -2.283428e+02  -1.777694e+02
   7.545118e+01  -8.397696e+01
   1.419630e+02   1.278478e+02
  -1.297871e+02   1.653385e+02
  -2.806376e+02  -1.221839e+02
  -1.109220e+02  -2.977306e+02
   2.043361e+02  -2.606013e+02
   3.776694e+02  -4.539346e+01
   2.034573e+02   8.615754e+01
  -5.925509e+01   2.513405e+02
  -2.465373e+02   3.331800e+02
  -3.758057e+02   2.147322e+02
  -2.842502e+02  -1.502610e+02
  -7.062326e+01  -4.148425e+02
   9.953816e+01  -3.913626e+02
   8.140368e+01  -1.165220e+02
  -2.097909e+01  -2.480288e+01
   8.400240e+01  -7.086162e+01
   1.798088e+02  -1.369408e+02
   3.157514e+02   9.789404e+00
   1.358085e+02   2.533839e+02
  -9.421045e+01   2.344324e+02
  -1.896101e+02   2.181426e+01
  -1.718088e+02  -2.546992e+02
  -7.674536e+00  -2.623135e+02
   2.451599e+02  -8.441342e+01
   3.484166e+02   1.452601e+02
   1.754437e+02   3.620865e+02
  -6.469336e+01   2.819485e+02
  -2.392326e+02   1.407799e+02
  -1.291223e+02   3.237483e+01
  -1.182366e+02   2.081669e+01
  -2.992635e+02   1.446154e+01
  -4.513962e+02  -6.371247e+01
  -2.874679e+02  -3.147122e+02
  -1.594854e+01  -4.174261e+02
   3.880255e+02  -3.727873e+02
   4.830574e+02  -1.981148e+02
   3.574612e+02   1.003796e+02
   7.267100e+00   3.145467e+02
  -9.534901e+01   2.260626e+02
  -3.500304e+01   5.111942e+01
   1.343381e+02  -7.582220e+01
   2.132187e+02   8.629703e+00
   3.327582e+01   1.716431e+02
  -1.685117e+02   1.031592e+02
  -1.282883e+02  -9.177211e+01
   3.832958e+01  -2.033904e+02
   1.916684e+02  -2.464270e+01
   1.195305e+02   2.301173e+02
  -1.304743e+00   3.584310e+02
  -2.505037e+02   1.921893e+02
  -3.616213e+02  -2.900495e+01
  -2.683603e+02  -2.551757e+02
  -7.983700e+01  -2.525875e+02
   1.563851e+02  -1.664558e+02
   1.797649e+02   7.602207e+00
   2.954659e+01   1.594014e+01
  -6.526441e+01  -1.037267e+01
  -1.507197e+01  -1.001001e+02
   1.182646e+02  -1.203825e+02
   2.097893e+02   3.213288e+01
   6.353182e+01   6.456205e+01
  -5.731153e+01   1.454384e+01
  -2.987676e+01  -6.166717e+01
   1.118516e+02  -1.340802e+02
   2.689290e+02  -1.239637e+01
   2.987698e+02   1.286901e+02
   8.527876e+01   2.773839e+02
  -2.006504e+02   2.847219e+02
  -2.948976e+02   1.386934e+02
  -1.500310e+02  -6.269617e+01
   3.650953e+01  -1.185874e+02
   8.022769e+01  -3.420526e+01
  -1.502622e+01   1.049762e+02
  -2.051733e+02   4.031605e+01
  -2.178011e+02  -1.080977e+02
  -2.900990e+01  -1.708702e+02
   3.608916e+01  -1.236696e+02
   1.167565e+02  -4.443061e+00
   4.243808e+01   3.115608e+01
  -2.620372e+01  -4.002282e+01
  -4.913020e+01  -8.505120e+01
   7.573280e+01  -8.403297e+01
   2.185237e+02  -2.168926e+01
   1.570953e+02   9.442353e+01
   9.788263e+00   2.133537e+02
  -1.697355e+02   1.685215e+02
  -1.924882e+02   1.200650e+01
  -4.950416e+01  -1.080267e+02
   1.000134e+02  -1.171000e+02
   9.895534e+01  -5.090200e+01
   1.402698e+01   1.255624e+01
  -7.700413e+00   2.569783e+01
   2.639117e+01   2.532652e+01
   5.206266e+01   1.092135e+00
   8.368746e+01   6.380757e+01
  -3.850969e+01   1.829542e+02
  -1.127688e+02   1.438820e+02
  -2.748958e+02   1.013239e+01
  -1.939575e+02  -1.333213e+02
  -4.114005e+01  -2.506415e+02
   1.088996e+02  -1.605344e+02
   1.628154e+02  -2.968430e+01
   1.138937e+02   5.762171e+01
   1.886773e+01   3.387764e+01
   9.138098e+01  -1.587776e+00
   6.862194e+01  -4.704606e+01
   3.067596e+01   8.927707e+01
  -7.533942e+01   1.018233e+02
  -1.081125e+02   5.765384e+01
  -8.638202e+01  -2.157288e+01
  -1.553852e+01  -9.478913e+01
   1.598560e+02  -7.944285e+01
   1.971897e+02   3.138340e+01
   1.015979e+02   1.937058e+02
  -1.325773e+02   2.041902e+02
  -2.964837e+02   9.259653e+01
  -2.936844e+02  -1.071346e+02
  -9.460031e+01  -2.148630e+02
   3.564645e+01  -1.272140e+02
   7.246827e+01  -6.480376e+01
   7.593665e+01  -5.335869e+01
   8.356722e+01  -9.421009e+01
   6.365508e+01  -3.806325e+01
   1.073061e+02  -1.991328e+01
   1.190859e+02   1.293610e+02
   3.085578e+01   2.256399e+02
  -1.058617e+02   1.886218e+02
  -2.020139e+02   5.245719e+01
  -1.728089e+02  -1.281045e+02
  -4.213206e+01  -1.645556e+02
   5.422753e+01  -1.459135e+02
   9.251131e+01   4.055277e+00
  -2.869724e+01   5.862897e+01
  -2.880772e+01   7.496033e+01
   2.436648e+01   5.498170e+00
   9.216591e+01   9.413357e-01
   3.441503e+01   4.040380e+01
  -8.743711e+01   6.722884e+01
  -1.842463e+02   6.170547e+01
  -1.544461e+02  -5.285414e+01
  -3.206256e+01  -8.239808e+01
   1.190261e+02  -8.856939e+01
   1.643667e+02  -9.236303e+00
   3.243444e+01   4.279660e+01
  -6.147802e+01   4.939035e+01
  -7.820751e+01  -2.155174e+01
   2.028542e+01  -5.278535e+01
   4.894885e+01  -1.018409e+02
   1.026338e+02   8.141158e+00
   6.386927e+01   3.847655e+01
   3.959032e+01   7.996513e+01
   8.539327e+01   7.522307e+00
   3.894246e+01   4.160450e+01
  -7.676314e+00   5.207398e+01
  -5.462336e+01   1.838783e+02
  -1.291565e+02   1.796531e+02
  -1.705298e+02   4.324739e+01
  -1.196507e+02  -8.389178e+01
  -5.594075e+01  -1.060543e+02
   8.372325e+01  -7.782046e+01
   3.402707e+01   5.184366e+00
  -5.420179e+01   3.479880e+01
  -1.695092e+02  -1.635667e+01
  -5.411404e+01  -9.270007e+01
   1.222630e+02  -1.337176e+02
   2.099011e+02  -5.631959e+01
   1.627923e+02   6.566475e+01
   4.536124e+01   3.281731e+01
  -4.494550e+01   9.345428e+01
  -5.299861e+01  -2.285910e+01
   6.434416e+01  -6.277472e+01
   6.327711e+01   5.517772e+01
   3.273542e+01   9.761036e+01
  -9.830775e+01   1.556060e+02
  -1.513626e+02   1.105509e+02
  -1.447094e+02  -1.177350e+02
  -3.012341e+01  -1.985953e+02
   7.392278e+01  -1.273709e+02
   1.317144e+02   7.812644e+00
   2.879354e+01   9.079985e+01
  -2.638210e+01   1.004177e+02
  -3.530396e+01   3.880918e+01
  -6.133522e+01  -2.650673e+01
  -2.615565e+01  -2.992805e+01
   2.396740e+00   3.125241e+01
  -1.688796e+01   3.894594e+00
  -7.279852e+01  -7.770750e+01
  -6.194572e+01  -1.159198e+02
   2.062989e+01  -7.393535e+01
   1.370070e+02   7.790013e+01
   1.081480e+02   1.125520e+02
  -1.188178e+01   3.979279e+01
  -7.612567e+01   2.137843e+01
  -6.905898e+01   2.713117e+01
   1.130979e+01  -1.782610e+01
   2.826063e+01  -4.957250e+01
   4.307957e+01  -3.995447e+01
   1.444341e+01  -2.535211e+01
   1.519493e+01  -3.487357e+00
   6.413949e+01  -4.758553e+01
   7.162345e+01   1.310624e+01
  -9.309255e+00   9.505165e+01
  -1.141068e+02   9.566358e+01
  -1.806144e+02   2.167299e+01
  -1.566945e+02  -6.889460e+01
  -5.906275e+00  -1.918696e+02
   5.851799e+01  -1.672824e+02
   9.497235e+01  -3.749971e+01
   7.106726e+01   3.915569e+00
   2.015229e+00   3.381102e+01
   7.205442e+00   2.960269e+01
   2.932191e+01  -3.569548e+00
   2.948830e+01   5.753528e+01
   3.286375e+01   8.105256e+01
  -1.578490e+01   8.197514e+01
  -1.078094e+02  -3.253556e+01
  -8.166988e+01  -1.052280e+02
   1.859845e+01  -9.569634e+01
   7.264203e+01  -1.694268e+01
   1.039405e+02   8.455415e+01
   2.142534e+01   8.340816e+01
  -4.995359e+01   6.600657e+01
  -6.929734e+01  -2.063662e+01
  -5.373719e+01  -6.955666e+01
   5.607575e+00  -3.356076e+01
   4.810259e+01  -3.304750e+01
  -9.602762e+00  -1.645859e+00
  -3.425569e+01   9.084768e+00
  -1.677888e+01  -1.308734e+01
   1.141545e+02  -4.320733e+01
   9.733970e+01  -6.299868e+01
   5.519411e+01   1.477663e+01
  -3.042699e+00   3.901080e+01
  -5.200911e+01   7.261004e+01
  -1.563527e+01   1.772401e+01
   1.091491e+01  -4.718688e+01
  -1.752085e+00  -1.544042e+01
   3.326643e+01   4.288320e+01
   2.779924e+01   5.963524e+01
   6.070299e+00   3.431342e+01
  -1.812828e+01  -1.160170e+01
  -7.184711e+01  -7.754145e+00
  -3.260163e+01  -2.640054e+01
  -1.945671e+01   2.111550e+00
  -5.399014e+00  -6.867711e+00
  -1.764752e+01  -1.834949e+01
   1.711811e+01  -3.352213e+01
   6.973787e+00  -5.391630e+01
   8.550359e+00   5.487338e+01
   2.404873e+01   4.572316e+01
  -3.773887e+01   6.649034e+01
  -4.852292e+01  -3.028255e+01
  -2.872020e+01  -2.090410e+01
   6.993969e+01  -3.645990e+01
   8.882551e+01   5.086738e+01
   1.864338e+01   9.845747e+01
  -4.516814e+01   1.313053e+01
  -9.204209e+01   3.264839e+01
  -3.028480e+01   1.376124e+01
   1.202757e+01  -2.109486e+01
   7.211362e+01   2.636582e+01
  -7.308687e+01  -2.729682e+00
  -1.064848e+02   4.079171e+00
