
 $NMID
 id='ANONYMOUS ', fmtdat='(2E16.6)'
 volume=1.0
 tramp=1.0
 $END
   3.218734e+03   4.304543e+02
   1.892888e+03   1.940812e+03
  -2.875119e+02   2.017761e+03
  -1.205089e+03   1.000595e+03
  -7.816302e+02   5.602929e+01
   5.276682e+01  -1.409288e+02
   3.482324e+02   2.048224e+02
  -1.156671e+01   5.775898e+02
  -4.862017e+02   5.013194e+02
  -6.485345e+02   1.284098e+01
  -3.699176e+02  -4.750773e+02
   5.921671e-01  -6.450941e+02
   3.217623e+02  -1.192407e+02
   2.255967e+02   4.562612e+02
  -1.315750e+02   5.586254e+02
  -4.070376e+02   8.079920e+01
  -2.418706e+02  -4.780037e+02
   1.132803e+02  -5.426510e+02
   3.670682e+02  -1.973692e+02
   3.934920e+02   2.010289e+02
   1.083317e+02   3.470314e+02
  -1.237241e+02   2.354560e+02
  -1.028517e+02   7.121505e+01
   1.474792e+02   8.791521e+01
   2.565251e+02   2.473227e+02
  -1.539478e+01   3.660564e+02
  -4.282155e+02   1.494370e+02
  -6.062955e+02  -2.161352e+02
  -1.756835e+02  -3.619745e+02
   3.346032e+02  -2.763786e+02
   5.052106e+02   1.244394e+02
   2.082479e+02   3.919784e+02
  -2.772777e+02   3.270111e+02
  -4.443838e+02   1.685444e+02
  -3.093155e+02  -1.769070e+02
  -7.509223e+01  -3.109119e+02
   6.302283e+01  -1.352041e+02
  -4.016542e+01   8.660060e+01
  -1.917509e+02   1.382747e+02
  -2.259277e+02  -1.876699e+02
  -1.499723e+01  -5.116685e+02
   3.026362e+02  -4.198379e+02
   3.548809e+02   1.776509e+00
   1.141021e+02   3.620334e+02
  -1.717699e+02   1.344764e+02
  -2.060506e+02  -2.754385e+02
   1.589437e+02  -4.417741e+02
   4.433263e+02  -1.480312e+01
   4.263293e+02   3.491157e+02
   1.087593e+02   4.610959e+02
  -2.986802e+02   2.392141e+02
  -5.041561e+02  -2.680516e+01
  -3.588406e+02  -1.701556e+02
   4.116405e+01  -1.971676e+02
   2.981889e+02  -1.105729e+02
   2.129667e+02   4.133946e+01
  -6.763909e+00  -1.291261e+01
  -2.056235e+01  -3.745128e+01
   1.521615e+02  -5.995461e+01
   1.961192e+02   1.020375e+02
   9.601970e+01   1.941860e+02
  -1.975267e+02   2.246937e+02
  -3.329592e+02   6.221214e+01
  -2.508785e+02  -1.099860e+02
   1.318188e+01  -2.510280e+02
   3.065819e+02  -3.053064e+02
   3.085665e+02  -1.829468e+02
   2.352542e+02   1.634551e+02
   2.365352e+01   3.737277e+02
  -1.633671e+01   3.317087e+02
  -2.789519e+01   1.543231e+02
  -6.616220e+01   1.213554e+02
  -1.305424e+02   6.626055e+01
  -2.067010e+02   6.394766e+01
  -2.549570e+02  -1.182276e+02
  -1.410450e+02  -2.237748e+02
   1.050652e+02  -1.804644e+02
   2.119203e+02   2.468164e+01
   1.268067e+02   2.169829e+02
  -1.817481e+01   2.706876e+02
  -2.394219e+02   5.617784e+01
  -3.052804e+02  -1.585878e+02
  -1.659081e+02  -2.850886e+02
   4.567684e+01  -2.790747e+02
   1.440741e+02  -1.443602e+02
   1.085617e+02  -5.863649e+01
   9.466294e+01  -8.924883e+01
   2.616660e+02  -1.635016e+01
   4.268452e+02   1.150221e+02
   2.746368e+02   2.942796e+02
  -2.962992e+01   4.040950e+02
  -3.758697e+02   3.793381e+02
  -4.550911e+02   1.267287e+02
  -2.815311e+02  -1.309038e+02
  -4.167443e+00  -2.514603e+02
   6.755584e+01  -1.950391e+02
   2.842307e+01  -3.854478e+01
  -1.191389e+02   7.328923e+01
  -1.191393e+02  -5.255698e+01
  -1.704261e+01  -1.279486e+02
   1.485834e+02  -1.145574e+02
   9.161871e+01   4.632484e+01
  -5.194507e+01   1.506547e+02
  -1.346556e+02   1.626734e+01
  -1.090975e+02  -2.368349e+02
   4.172913e+00  -3.414898e+02
   2.115879e+02  -1.973158e+02
   3.571782e+02   2.975316e+01
   2.853758e+02   2.546500e+02
   4.031037e+01   2.646395e+02
  -1.347464e+02   1.247929e+02
  -1.512750e+02   1.034341e+01
  -3.305028e+01  -7.313924e+01
   7.165055e+01   3.439755e+01
   1.735956e+01   1.291613e+02
  -1.360351e+02   9.715228e+01
  -1.634780e+02  -1.242322e+01
   2.019598e+01  -7.103189e+01
   6.810663e+01   7.787319e+00
   5.668578e+01   9.258850e+01
  -1.281615e+02   8.831141e+01
  -2.983786e+02   1.977244e+01
  -3.065413e+02  -1.423787e+02
  -5.971500e+01  -2.569638e+02
   1.973209e+02  -2.523559e+02
   2.603824e+02  -1.469584e+02
   1.277275e+02   4.610465e+01
  -3.695615e+01   1.002177e+02
  -7.708869e+01  -1.794424e+01
   4.160282e+01  -4.898532e+01
   2.027115e+02  -1.509091e+01
   1.518945e+02   1.095385e+02
   5.845850e+01   1.697869e+02
  -8.733223e+01   1.237721e+02
  -9.653153e+01   1.802706e+01
  -4.394959e+01  -1.433255e+01
   5.178345e+01   2.453741e+01
   1.061319e+01   9.272403e+01
  -9.441696e+01   1.095139e+02
  -2.593429e+02  -1.136711e+01
  -1.752228e+02  -1.356269e+02
  -3.336280e+00  -2.428892e+02
   1.795781e+02  -1.285783e+02
   1.879394e+02   3.511342e+01
   7.676102e+01   8.621149e+01
  -4.444919e+01   6.671285e+01
  -7.771986e+01   2.265557e+01
  -5.019262e+00  -3.017451e+01
   6.106193e+01  -1.877229e+01
  -3.276314e+00   5.752196e+00
  -5.625192e+01   2.562803e+00
  -1.210669e+02  -7.682242e+01
   1.237803e+01  -1.749730e+02
   1.337992e+02  -1.730284e+02
   2.106471e+02  -2.990186e+00
   1.892480e+02   1.564346e+02
   4.760050e+01   1.942588e+02
  -1.256101e+02   1.511638e+02
  -1.733050e+02   1.435400e+01
  -9.801356e+01  -2.450083e+01
  -3.296685e+01  -4.701987e+01
  -1.965436e+01   3.131974e+00
  -8.058189e+01   7.763798e-01
  -3.720599e+01  -4.763760e+01
   6.465947e+01  -8.362261e+01
   1.415109e+02  -3.646734e+01
   1.132836e+02   4.369503e+01
  -3.924104e+01   1.270398e+02
  -1.319955e+02   3.671727e+01
  -1.766340e+02  -1.000456e+02
  -7.171840e+01  -1.687840e+02
   1.488585e+02  -2.059022e+02
   2.765205e+02  -7.726838e+01
   2.392390e+02   8.429592e+01
   1.057503e+02   1.441640e+02
  -4.095256e+01   1.042261e+02
  -5.710066e+01   9.729666e+01
  -5.121164e+01   6.136937e+01
  -4.879595e+01   7.267240e+01
  -6.681583e+01   7.294869e+01
  -1.425961e+02  -2.128790e+01
  -1.055199e+02  -1.468680e+02
  -2.273292e+01  -2.308507e+02
   8.789601e+01  -1.411156e+02
   1.805581e+02  -6.721210e+00
   1.084875e+02   1.518923e+02
   4.329234e+01   1.726246e+02
  -1.330521e+02   8.676527e+01
  -9.700616e+01  -1.689511e+01
  -3.309909e+00  -4.209059e+01
   3.192330e+01  -3.959955e+01
   1.233342e+01  -1.284963e+01
  -6.659138e+01  -1.154201e+01
  -5.351816e+01  -2.708240e+01
   1.131586e+02  -7.396511e+01
   1.823625e+02  -4.350962e+01
   1.623254e+02   7.123373e+01
  -2.898568e+01   9.761504e+01
  -1.287816e+02   8.129337e+01
  -1.198528e+02  -3.768192e+01
  -6.707204e+01  -5.490893e+01
   7.499874e+01  -8.344469e+00
   5.273393e+01   2.770462e+01
   5.722779e+01   8.173051e+01
  -7.895770e+01   7.206117e+01
  -6.254231e+01   1.055301e+00
  -6.795526e+01  -1.441963e+01
  -5.551144e+01  -9.381539e+01
  -6.185700e+01  -1.705690e+01
  -9.505476e+01   2.926535e+00
  -1.888589e+01  -4.160365e+01
   1.057828e+01  -1.291338e+02
   1.302937e+02  -1.680458e+02
   1.862394e+02  -4.008957e+01
   1.110763e+02   4.763775e+01
  -4.269593e+00   1.524360e+02
  -6.018118e+01   5.870304e+01
  -3.636578e+01  -3.339308e+01
   9.160796e+01  -5.682451e+01
   1.432370e+02   3.600909e+01
   4.588189e+01   1.161748e+02
  -5.530653e+01   1.174384e+02
  -1.973060e+02   4.661849e+01
  -1.558156e+02  -4.037604e+01
  -4.561631e+01  -8.861231e+01
   3.303597e+01  -2.145940e+01
   3.973371e+01   1.395903e+01
  -5.573779e+01   2.512966e+01
  -4.686538e+01  -2.607015e+01
  -4.974659e+01  -1.354082e+02
   9.151623e+01  -1.409901e+02
   1.647839e+02  -7.738211e+01
   1.279138e+02   4.329877e+01
   3.255244e+01   2.391784e+02
  -5.691952e+01   1.478478e+02
  -1.030114e+02  -7.103997e+00
  -6.621236e+01  -1.162662e+02
   2.499246e+00  -1.199622e+02
   8.543422e+01  -3.468334e+01
   2.837694e+01   4.606537e+01
   4.494211e+01   2.722532e+01
  -8.109271e+00   1.715011e+01
  -1.431059e+01   5.980813e+01
   6.746410e+01   8.826863e+01
   2.788219e+01   1.412974e+02
  -5.090713e+01   3.483211e+01
  -1.415201e+02  -8.668404e+01
  -1.198634e+02  -5.212027e+01
  -4.959405e+00  -2.752621e+01
   5.397087e+01  -7.253778e+00
   6.905614e+01  -2.837690e+01
   4.990437e+01  -1.165965e+01
  -1.864640e+01  -7.701519e+00
  -4.447528e+01  -3.305902e+00
   4.710036e+00  -2.512889e+01
  -1.301819e+01  -4.755525e+01
  -7.093899e+01  -1.129422e+01
  -8.269118e+01  -5.524002e+01
  -2.343842e+01  -8.052866e+01
   9.201006e+01  -1.003618e+02
   1.789966e+02  -8.029745e+01
   1.421315e+02   5.628842e+01
   5.242933e+01   1.554865e+02
  -9.360559e+01   1.221776e+02
  -1.318353e+02   5.729519e+01
  -7.168557e+01  -8.216604e+00
  -4.134464e+01  -3.333128e+01
  -1.680040e+01  -5.099513e+01
   1.556360e+01   2.307941e+00
  -4.230430e+01  -6.016287e+01
   1.327642e+01  -7.248568e+01
   1.518988e+01  -4.847732e+01
   6.959646e+01   1.392795e+01
   1.029266e+02   6.276213e+01
   1.649475e+01   1.021936e+02
  -8.076151e+01   1.438384e+01
  -1.094082e+02  -6.713469e+01
  -5.686175e+01  -7.667534e+01
   6.114438e+01  -4.831109e+01
   6.273174e+01  -1.152454e+00
   4.235939e+01   6.065080e+01
  -5.292410e+01   7.379544e+01
  -4.805221e+01   3.295588e+01
   4.141954e+01   2.212427e+00
   7.540120e+01  -1.976217e+01
   1.899230e+01   2.323831e+01
  -9.114646e+01   9.124056e+01
  -1.312138e+02   6.917781e+01
  -7.972099e+01  -2.400355e+01
  -1.265699e+01  -7.494549e+01
   8.908915e+01  -9.545405e+01
   5.766997e+01   1.010391e+01
   1.507862e+00   4.680310e+01
  -2.316039e+01   8.862266e+01
  -2.158304e+01  -3.553631e+01
  -1.837512e+01  -1.700207e+01
  -1.392905e+00  -1.879022e+01
   1.052284e+01  -5.993101e+00
   1.595438e+00   3.827906e+01
   3.528444e+01   4.757317e+00
  -2.389239e+01  -1.306018e+01
  -2.913832e+01  -1.268105e+01
  -1.874374e+01   3.660274e+01
  -1.274971e+01   7.042959e+01
  -3.428154e+00   2.070046e+01
  -4.553104e+01  -6.495761e+01
  -2.975682e+01  -2.601837e+01
   4.008572e+01  -7.951171e+00
   5.351517e+01   3.650497e+01
   3.384366e+01   4.878811e+01
  -3.691007e+01   4.868308e+01
  -9.122558e+01  -3.692731e+01
  -6.050778e+01  -5.038110e+01
   3.424835e+01  -1.890313e+01
   8.678042e+01  -2.441752e+01
   7.738867e+00  -3.317321e+01
  -4.187824e+01   3.644482e+01
   1.670472e+00  -3.122389e+00
   8.980814e+00  -4.476883e+01
   9.617919e+01   8.393655e+00
