
 $NMID
 id='ANONYMOUS ', fmtdat='(2E16.6)'
 volume=1.0
 tramp=1.0
 $END
  -3.477538e+03  -4.610027e+02
  -1.900835e+03  -1.918180e+03
   3.334342e+02  -2.100964e+03
   1.426215e+03  -1.017855e+03
   8.168167e+02  -5.199885e+00
  -1.127064e+02   2.416087e+02
  -4.445665e+02  -2.019495e+02
   1.766542e+01  -5.861043e+02
   5.057576e+02  -5.209899e+02
   6.598248e+02  -3.133733e+01
   3.874620e+02   6.262012e+02
  -1.925896e+01   7.122103e+02
  -3.645396e+02   1.827553e+02
  -2.646910e+02  -4.561383e+02
   1.694721e+02  -5.962189e+02
   4.687163e+02  -6.922500e+01
   2.677708e+02   5.023520e+02
  -1.546190e+02   5.699189e+02
  -4.112990e+02   2.478138e+02
  -4.267183e+02  -1.910938e+02
  -1.230567e+02  -3.896758e+02
   1.436020e+02  -2.368818e+02
   1.175954e+02  -8.122790e+01
  -1.640062e+02  -5.112809e+01
  -2.956452e+02  -2.726845e+02
  -5.287376e+01  -3.780614e+02
   4.737877e+02  -1.849303e+02
   6.111629e+02   1.939544e+02
   2.821445e+02   4.513709e+02
  -3.661220e+02   2.843427e+02
  -5.679604e+02  -1.251952e+02
  -1.674967e+02  -3.691281e+02
   3.028922e+02  -3.375903e+02
   4.423584e+02  -1.820625e+02
   3.020954e+02   1.854176e+02
   9.391217e+01   3.351924e+02
  -7.134470e+01   2.083763e+02
   6.731302e+00  -1.321506e+02
   2.136739e+02  -1.892407e+02
   2.827272e+02   1.121757e+02
   5.247981e+01   5.589941e+02
  -3.113406e+02   4.450451e+02
  -3.760975e+02   1.366177e+01
  -1.438326e+02  -3.961674e+02
   1.627879e+02  -1.584296e+02
   1.846853e+02   2.814960e+02
  -1.303582e+02   3.971172e+02
  -4.572504e+02   1.377436e+01
  -4.558043e+02  -3.713732e+02
  -1.684010e+02  -4.793611e+02
   2.956020e+02  -2.564015e+02
   5.004002e+02   4.775611e+01
   3.523122e+02   2.869659e+02
  -5.455800e+01   2.215474e+02
  -3.213935e+02   3.705408e+01
  -1.996202e+02  -6.205802e+01
   5.589403e+01  -4.127227e+01
   3.359095e+01   8.138230e+01
  -1.080052e+02   8.300770e+01
  -2.231129e+02  -9.980220e+01
  -7.368133e+01  -2.043381e+02
   1.385253e+02  -2.129703e+02
   3.640310e+02  -1.281231e+02
   2.648043e+02   1.001346e+02
  -1.032585e+01   2.547926e+02
  -2.702728e+02   3.347128e+02
  -2.966462e+02   2.087489e+02
  -2.470147e+02  -1.587170e+02
  -3.170726e+01  -3.824646e+02
   3.302335e+01  -3.702994e+02
   5.741453e+01  -1.380117e+02
   3.624056e+01  -6.357707e+01
   9.910723e+01  -9.444111e+01
   2.218843e+02  -5.523980e+01
   2.284388e+02   1.183232e+02
   1.150052e+02   2.548356e+02
  -8.495480e+01   2.495327e+02
  -1.671586e+02  -1.394782e+01
  -1.673498e+02  -2.531184e+02
   3.326478e+01  -2.614722e+02
   2.652355e+02  -6.144072e+01
   3.298247e+02   1.673648e+02
   1.892528e+02   2.910866e+02
  -5.504243e+01   2.651458e+02
  -1.522876e+02   1.374224e+02
  -9.315479e+01   8.086125e+01
  -1.315379e+02   3.460043e+01
  -2.744588e+02   4.408812e+01
  -4.279501e+02  -7.211922e+01
  -3.447745e+02  -3.101437e+02
   5.991122e+01  -4.380055e+02
   3.949107e+02  -3.712006e+02
   4.605355e+02  -1.257071e+02
   2.867649e+02   7.889689e+01
  -1.899805e+01   2.543536e+02
  -9.194744e+01   2.467350e+02
  -2.501632e+01   3.338872e+01
   1.178987e+02  -4.992786e+01
   9.451205e+01   8.003717e+00
   1.433809e+01   1.250556e+02
  -1.604692e+02   8.971591e+01
  -1.130994e+02  -8.652009e+01
   2.909067e+01  -1.461285e+02
   1.715896e+02  -2.907647e+01
   1.788240e+02   2.117167e+02
  -5.989838e+00   3.203491e+02
  -2.451348e+02   1.733573e+02
  -3.362582e+02  -7.330844e+01
  -2.791895e+02  -2.755169e+02
  -3.361275e+01  -2.364502e+02
   1.024722e+02  -1.540092e+02
   9.700901e+01   6.875771e+00
   4.065598e+01   4.896627e+01
  -4.649032e+01  -7.603724e+01
  -3.435071e+01  -1.062595e+02
   1.184311e+02  -2.218495e+01
   2.031244e+02   2.616153e+01
   4.077230e+01   2.003895e+01
  -9.224966e+01  -2.316719e+01
  -4.736422e+01  -7.328689e+01
   8.717331e+01  -1.106307e+02
   2.760295e+02   1.149472e+00
   2.716890e+02   1.766978e+02
   2.007188e+01   2.245485e+02
  -2.336623e+02   2.647630e+02
  -2.669127e+02   1.254404e+02
  -1.418099e+02  -7.600331e+01
   3.965023e+01  -7.429454e+01
   6.889631e+01   2.149741e+01
  -6.207002e+01   9.466308e+01
  -1.959411e+02   3.156328e+01
  -1.566757e+02  -1.017230e+02
  -3.248136e+01  -2.194207e+02
   9.681252e+01  -1.371592e+02
   9.707398e+01  -1.231084e+01
   2.091940e+01   3.122849e+01
  -3.889890e+01  -2.485819e+01
   1.594161e+00  -1.021497e+02
   1.186963e+02  -1.160976e+02
   2.076304e+02  -2.499469e+01
   1.699374e+02   9.924739e+01
  -1.150267e+01   2.108391e+02
  -1.581290e+02   9.645683e+01
  -1.696204e+02   3.013225e+01
  -4.298468e+01  -1.105314e+02
   6.663409e+01  -1.126068e+02
   8.739737e+01  -3.723023e+01
  -2.933955e+01   4.829973e+01
   8.821992e+00   1.730017e+01
   1.133428e+01  -1.030150e+01
   7.262883e+01  -4.554000e-02
   9.598757e+01   9.015110e+01
   2.458282e+01   1.860315e+02
  -1.447095e+02   1.377101e+02
  -2.132855e+02   5.594473e+01
  -1.720141e+02  -1.450705e+02
  -6.335336e+01  -2.303760e+02
   1.126386e+02  -1.562144e+02
   9.417374e+01  -8.034565e+00
   7.611563e+01   2.466614e+01
   5.494391e+01   5.703637e+01
   7.951553e+01   2.865432e+01
   5.877054e+01   9.662577e+00
   9.936495e+00   4.956675e+01
  -4.688651e+01   7.306350e+01
  -1.057121e+02   2.350536e+01
  -8.328033e+01  -2.344264e+01
  -1.088691e+01  -9.824128e+01
   1.354147e+02  -7.701022e+01
   1.887809e+02   7.553957e+01
   8.409498e+01   2.204915e+02
  -1.016086e+02   2.286607e+02
  -2.361984e+02   8.663311e+01
  -2.507789e+02  -5.001077e+01
  -8.035527e+01  -1.864133e+02
   5.149505e+01  -1.747594e+02
   4.551654e+01  -8.559769e+01
   9.271203e+01  -8.369046e+01
   9.930110e+01  -7.365166e+01
   6.583672e+01  -4.727577e+01
   1.456687e+02   1.584315e+01
   8.722438e+01   1.722494e+02
   1.398564e+01   2.069226e+02
  -9.181314e+01   1.768063e+02
  -1.835140e+02   5.649478e+00
  -1.298606e+02  -1.163775e+02
   8.779654e+00  -1.778905e+02
   4.927190e+01  -7.857080e+01
   4.360000e+01   2.743241e+01
   1.315129e+01   5.064091e+01
   1.475150e+01   4.198052e+01
   3.437148e+01  -7.526076e+00
   7.074376e+01   2.071754e+01
   5.314117e+01   4.215291e+01
  -5.134017e+01   6.253630e+01
  -1.959278e+02   1.584269e+01
  -1.483891e+02  -7.899349e+01
   7.261208e+00  -1.168558e+02
   1.075114e+02  -5.329001e+01
   1.597985e+02   2.007610e+01
   3.108364e+01   4.129135e+01
  -3.099638e+01   3.353403e+01
  -1.169094e+02  -3.574240e+01
   8.274367e+00  -7.225588e+01
   4.999998e+01  -3.349767e+01
   4.126926e+01  -2.987973e+00
   2.990791e+01   8.774561e+01
   3.240128e+01   7.256104e+01
   5.591965e+01  -5.582283e+00
   3.926748e+01  -3.057163e+01
   2.151017e+01   6.402190e+01
  -2.180183e+01   1.557449e+02
  -1.198597e+02   1.301280e+02
  -2.176080e+02   2.174065e+00
  -1.325780e+02  -7.408307e+01
   2.984192e+00  -9.813820e+01
   6.663721e+01  -4.601733e+01
   6.102782e+01   2.549691e+01
  -4.249093e+01   4.190411e+01
  -1.784392e+02  -1.134176e+01
  -6.752950e+01  -8.948218e+01
   8.430939e+01  -1.307753e+02
   1.870357e+02  -4.790224e+01
   1.538194e+02  -9.397602e+00
   7.374826e+01   6.583152e+01
  -7.592312e+01   2.103920e+01
  -3.487520e+01   1.953881e+01
   3.860852e+01  -3.836094e+01
   1.385566e+02   3.854600e+01
   5.339055e+01   1.143395e+02
  -1.077268e+02   1.622346e+02
  -2.211846e+02   6.441855e+01
  -1.496566e+02  -8.759520e+01
  -1.904250e+01  -2.120032e+02
   7.176713e+01  -1.260222e+02
   6.146168e+01   8.017580e+00
   2.673786e+01   1.270769e+02
   1.187161e+01   1.032554e+02
  -5.561021e+01   4.854475e+01
  -3.162076e+01  -1.209028e+01
  -1.733915e+01  -1.433898e+01
  -2.227747e+01   4.419977e+01
  -1.034166e+01  -5.541010e+01
   3.019794e+00  -9.687584e+01
  -2.559252e+01  -1.133114e+02
   6.164966e+01  -3.393853e+01
   1.338288e+02   5.994718e+01
   1.026633e+02   9.567280e+01
   1.816728e+01   7.828808e+01
  -7.697098e+01   5.538605e+00
  -1.000692e+02   2.779632e+01
  -1.381260e+01  -4.707069e+00
   2.360610e+01  -3.351079e+01
   4.914106e+01  -2.412792e+01
   1.229722e+01  -3.362099e+01
  -2.001793e+01  -2.630400e+01
   1.002658e+02   7.609721e+00
   6.027034e+01   9.802700e+00
   5.657629e+01   1.022678e+02
  -5.489322e+01   1.211223e+02
  -1.788401e+02   6.976333e+01
  -1.393208e+02  -6.784235e+01
  -5.105186e+01  -1.936624e+02
   7.497536e+01  -1.556636e+02
   9.340557e+01  -7.959803e+01
   8.165647e+01   1.483359e+01
   3.863812e+01   5.876123e+01
   2.158445e+01   1.208451e+01
   4.184194e+01   1.854974e+01
   1.825210e+01   3.936495e+01
   2.559831e+01   9.467966e+01
  -2.480622e+00   7.547352e+01
  -1.315008e+02  -1.272286e+01
  -6.432357e+01  -6.161692e+01
   1.392757e+01  -1.022016e+02
   9.152733e+01  -1.278665e+01
   1.077980e+02   5.721136e+01
   3.448247e+01   1.164267e+02
  -5.043393e+01   5.583427e+01
  -6.090664e+01   1.110010e+01
  -7.104484e+01  -1.930602e+01
  -5.877478e+00  -4.641316e+01
   3.099663e+00  -5.410838e+01
  -2.746878e+01   4.265483e+00
  -5.135160e+01   2.138952e+01
  -4.785865e+00  -1.655471e+01
   8.092316e+01  -5.295732e+01
   1.346638e+02  -2.514140e+01
   4.756093e+01   1.401636e+01
  -4.734968e+00   5.684415e+01
  -3.821160e+01   9.254904e+01
  -2.216454e+01   5.512402e+00
  -6.859612e+00  -4.929177e+01
   2.802341e+01  -3.870382e+01
   3.265881e+01   1.409662e+01
   2.425998e+01   8.739957e+01
  -2.879822e+01   5.397822e+01
  -1.816348e+01   3.217253e+01
  -1.793366e+01  -4.032148e+01
  -6.259315e+01  -1.845973e+01
   2.318637e+01   2.182589e+01
   1.888350e+01   2.463922e+01
   2.789230e+01   1.111327e+01
  -1.502414e+00  -4.390023e+01
   7.684414e+00  -4.708829e+01
   1.564979e+01   2.849611e+01
   2.475910e+01   6.576059e+01
  -7.485328e+01  -1.054860e+00
  -1.023086e+02  -4.825631e+01
   1.444134e+01  -6.722985e+01
   7.259949e+01  -4.649711e+00
   8.287230e+01   3.353098e+01
   6.852331e+01   5.066661e+01
  -2.725280e+01   3.115713e+01
  -3.376355e+01   6.144797e+01
  -2.430792e+01   4.385736e+01
   2.842981e+01   1.928264e+01
   3.659087e+01  -1.517314e+01
  -6.399671e+00   1.573522e+01
  -5.894888e+01  -1.386177e+01
