
 $NMID
 id='ANONYMOUS ', fmtdat='(2E16.6)'
 volume=1.0
 tramp=1.0
 $END
  -4.518002e+03  -4.840743e+02
  -2.429880e+03  -2.872639e+03
   1.049620e+03  -2.861493e+03
   2.280266e+03  -6.035071e+02
   7.924263e+02   8.263133e+02
  -7.451554e+02   5.164918e+02
  -9.438232e+02  -5.230727e+02
   1.449860e+02  -1.154358e+03
   9.250031e+02  -7.326815e+02
   9.329613e+02   1.572773e+02
   4.428732e+02   9.885381e+02
  -2.716244e+02   8.691898e+02
  -6.631987e+02   5.728076e+01
  -3.175706e+02  -7.842533e+02
   3.380896e+02  -7.501837e+02
   6.209245e+02   5.575212e+01
   2.414329e+02   7.467044e+02
  -3.550758e+02   6.293886e+02
  -5.682684e+02   8.388307e+01
  -3.612626e+02  -3.910677e+02
  -8.823102e+00  -4.837048e+02
   2.760106e+02  -2.620659e+02
   2.236573e+02   8.475565e+00
  -9.960499e+01   1.150295e+02
  -4.395101e+02  -1.306152e+02
  -1.612221e+02  -5.041767e+02
   5.061641e+02  -4.027198e+02
   8.751325e+02   1.002891e+02
   4.020663e+02   5.997793e+02
  -4.522965e+02   5.131008e+02
  -7.701315e+02  -1.074227e+02
  -3.734809e+02  -5.295438e+02
   3.049885e+02  -5.814280e+02
   6.393165e+02  -1.722585e+02
   4.338785e+02   2.663645e+02
   4.033924e+01   4.959084e+02
  -2.262756e+02   2.781141e+02
  -1.777403e+02  -2.269554e+02
   2.167494e+02  -4.495958e+02
   4.517717e+02   5.895904e+01
   1.948993e+02   7.778365e+02
  -3.736155e+02   6.979462e+02
  -6.469723e+02  -2.866577e+01
  -2.142747e+02  -6.094628e+02
   3.200690e+02  -3.305859e+02
   3.673264e+02   3.599922e+02
  -1.163760e+02   5.352456e+02
  -5.809251e+02   1.570807e+02
  -5.939979e+02  -4.183803e+02
  -1.525753e+02  -6.335560e+02
   3.815083e+02  -3.328398e+02
   6.399474e+02   9.070682e+01
   4.134041e+02   4.466460e+02
  -1.743067e+02   3.520051e+02
  -4.721225e+02   9.034399e+01
  -2.516493e+02  -2.333025e+02
   8.672189e+01  -1.004439e+02
   1.281094e+02   1.276923e+02
  -1.991352e+02   1.977585e+02
  -3.424937e+02  -9.328066e+01
  -1.687900e+02  -3.114930e+02
   1.832893e+02  -2.739380e+02
   3.352288e+02  -7.604868e+01
   2.160037e+02   8.931987e+01
  -1.425503e+01   1.937627e+02
  -2.277884e+02   3.324928e+02
  -3.461459e+02   2.266894e+02
  -3.370459e+02  -1.668028e+02
  -8.443472e+01  -4.437162e+02
   1.557613e+02  -3.887336e+02
   1.854927e+02  -8.716253e+01
   4.566609e+00   2.459072e+01
   4.284847e+01  -1.098330e+02
   2.210493e+02  -1.213986e+02
   2.878370e+02   7.638934e+01
   1.783035e+02   2.885331e+02
  -4.976022e+01   2.443577e+02
  -2.469387e+02   3.350031e+00
  -1.875991e+02  -2.416711e+02
  -1.310513e+01  -2.837662e+02
   3.211432e+02  -9.918508e+01
   3.428703e+02   2.159443e+02
   1.931735e+02   3.884350e+02
  -1.356344e+02   3.026751e+02
  -2.442143e+02   1.532913e+02
  -1.266915e+02  -1.735333e+00
  -9.674282e+01   2.910580e+01
  -2.460548e+02   6.581607e+01
  -4.149292e+02  -4.556305e+01
  -3.133705e+02  -2.878592e+02
  -1.821537e+00  -4.897052e+02
   3.580028e+02  -3.668462e+02
   5.657543e+02  -2.142191e+02
   3.756094e+02   8.572728e+01
   7.304923e+01   3.084331e+02
  -1.485796e+02   2.226751e+02
  -7.337993e+01   2.946064e+01
   9.760165e+01  -1.110470e+02
   2.205882e+02   6.364756e+00
  -6.045651e-01   2.018773e+02
  -1.642804e+02   1.700270e+02
  -1.843906e+02  -8.386881e+01
   3.570487e+01  -1.528653e+02
   1.947801e+02  -2.385669e+01
   1.297659e+02   1.891316e+02
  -2.136185e+01   3.752201e+02
  -2.295108e+02   1.766960e+02
  -3.303701e+02  -6.363333e+01
  -2.454094e+02  -2.646229e+02
  -8.739894e+01  -2.373366e+02
   1.185394e+02  -1.662905e+02
   2.053063e+02   1.552409e+01
   7.398409e+01   7.214669e+01
  -7.572678e+01  -6.444179e+01
  -2.016529e+01  -1.193484e+02
   1.251092e+02  -1.088423e+02
   1.777042e+02   1.641213e+01
   3.603178e+01   3.345991e+01
  -7.195303e+01   1.179159e+01
  -1.080053e+02  -4.819318e+01
   1.085927e+02  -5.511131e+01
   2.733008e+02   3.103571e+01
   2.786441e+02   1.648782e+02
   2.773928e+01   3.019216e+02
  -1.992445e+02   2.718843e+02
  -2.962787e+02   1.181641e+02
  -1.911632e+02  -7.730772e+01
   5.241200e+01  -9.665967e+01
   1.016516e+02  -2.963427e+01
  -7.131894e+00   1.020128e+02
  -1.695423e+02   4.685908e+01
  -1.980629e+02  -1.036050e+02
  -8.948478e+01  -2.310918e+02
   1.009754e+02  -1.530387e+02
   1.966734e+02   2.270044e+01
   7.925765e+01   7.408498e+01
  -1.913868e+01   3.039636e+01
  -5.848305e+01  -7.036103e+01
   4.438228e+01  -1.389823e+02
   2.006411e+02  -1.796968e+01
   1.822153e+02   1.263644e+02
   1.241256e+01   2.396423e+02
  -2.023709e+02   1.795136e+02
  -1.840499e+02   1.945261e+01
  -5.899244e+01  -1.369529e+02
   4.040612e+01  -1.578242e+02
   6.012535e+01  -1.642813e+01
   2.479204e+01   5.021980e+01
  -7.437122e+00  -9.539779e+00
   2.998571e+01  -4.649662e+00
   8.153354e+01  -2.301682e+00
   9.968036e+01   6.931351e+01
  -3.945346e+01   1.739896e+02
  -9.547111e+01   1.503339e+02
  -2.471999e+02   1.014075e+01
  -1.635928e+02  -1.964376e+02
  -3.303310e+01  -1.966538e+02
   9.970517e+01  -1.221681e+02
   1.140413e+02  -4.368684e+01
   7.763684e+01   8.891266e+01
   2.587272e+01   4.065578e+01
   6.350055e+01  -3.055793e-01
   6.056319e+01   2.860719e+01
   3.189451e+01   1.372157e+01
  -4.174885e+01   5.813025e+01
  -1.017269e+02   9.062347e+01
  -6.684901e+01   2.638862e+00
  -1.035983e+01  -1.135499e+02
   1.659735e+02  -6.932718e+01
   1.710901e+02   5.304478e+01
   1.237873e+02   2.167340e+02
  -9.304305e+01   2.400835e+02
  -2.700018e+02   1.093783e+02
  -2.705992e+02  -9.783058e+01
  -1.345334e+02  -1.752826e+02
   3.027832e+01  -1.367015e+02
   1.395544e+02  -1.271999e+02
   9.629557e+01  -4.723863e+01
   7.296172e+01  -4.851574e+01
   9.510660e+01  -9.185375e+01
   1.097275e+02   1.093396e+01
   1.098987e+02   1.560890e+02
   2.217771e+01   2.328730e+02
  -1.099210e+02   1.742717e+02
  -1.536271e+02   1.206011e+01
  -1.111632e+02  -1.316827e+02
  -1.128397e+01  -2.084059e+02
   7.065454e+01  -1.204243e+02
   1.115665e+02  -1.073278e+01
   5.111411e+00   4.316877e+01
  -1.732543e+01   2.776303e+01
  -4.604365e+00   1.084783e+01
   4.433086e+01   2.465139e+01
  -1.526562e+01   6.822645e+01
  -4.932954e+01   2.985762e+01
  -1.865114e+02   1.421584e+01
  -1.334317e+02  -4.740831e+01
  -2.307452e+01  -9.279063e+01
   1.101015e+02  -6.381360e+01
   1.422417e+02   2.700042e-01
   7.148353e+01   2.778114e+01
  -4.018452e+01   3.562386e+01
  -9.366126e+01   2.347650e+00
  -1.889429e+00  -3.710450e+01
   6.866413e+01  -7.704822e+01
   4.096277e+01  -1.197686e+01
   4.051594e+01   4.219880e+01
   1.948047e+01   4.888717e+01
   6.081311e+01  -1.970077e+01
   8.505049e+01  -2.899684e+01
   5.114658e+01   5.311001e+01
  -3.257512e+01   1.263858e+02
  -1.019636e+02   1.527720e+02
  -1.531975e+02  -1.118329e+01
  -1.422708e+02  -1.037875e+02
  -3.103736e+01  -1.268049e+02
   1.206949e+02  -4.220016e+01
   7.658725e+01   3.377412e+01
  -8.247559e+01   1.947573e+01
  -1.442962e+02  -1.067358e+01
  -7.355503e+01  -7.364894e+01
   8.075657e+01  -1.102647e+02
   1.588430e+02  -1.231505e+01
   1.550447e+02   4.873902e+01
  -2.200300e+01   5.656127e+01
  -2.805967e+01   4.139603e+01
  -3.813139e+00   2.473898e+01
   7.819291e+01  -4.360860e+01
   9.806182e+01   8.090605e+00
   1.759030e+01   1.101539e+02
  -8.401269e+01   1.669285e+02
  -1.605943e+02   5.715722e+01
  -9.690070e+01  -1.492893e+02
  -3.052665e+00  -2.071280e+02
   6.478532e+01  -1.127269e+02
   7.661964e+01   4.348029e+00
   6.469532e+01   1.935094e+02
   2.900511e+01   1.167643e+02
  -6.529601e+01   8.512067e+00
  -5.686366e+01  -1.865480e+01
  -1.088568e+01  -3.958961e+01
  -9.991297e+00  -1.215396e+00
  -4.962513e+01  -4.403027e+01
  -4.192628e+01  -1.144334e+02
  -4.890763e+01  -1.213069e+02
   7.753138e+01  -4.962862e+00
   1.508395e+02   2.828023e+01
   1.117129e+02   7.388679e+01
   4.813014e+01   4.444295e+01
  -9.540938e+01   9.814166e+00
  -1.056430e+02  -3.775694e+01
   2.548686e+01  -6.680576e+00
   3.502696e+01  -2.929749e+01
   1.320805e+01   1.325913e+00
  -2.354886e+01  -2.534327e+01
   3.597036e+01  -1.149474e+01
   5.194741e+01   3.644622e+01
   1.139196e+02   4.384419e+01
   2.915982e+01   6.027372e+01
  -1.191800e+02   1.198911e+02
  -1.745849e+02   9.255889e+01
  -1.600723e+02  -3.873658e+01
  -1.354018e+01  -1.522766e+02
   5.055124e+01  -1.417559e+02
   9.260030e+01  -6.541681e+01
   9.777950e+01   3.626164e+01
   5.742251e+00   1.871765e+01
  -2.722102e+01   2.723204e+01
   9.551463e+00   5.859707e+00
   2.521735e+01   7.167223e+01
  -7.633364e+00   8.742331e+01
  -5.059444e+01   4.680510e+01
  -8.221899e+01  -6.137109e+01
  -4.369301e+01  -1.301245e+02
  -1.178668e+01  -1.125957e+02
   5.431124e+01   1.715057e+01
   1.070601e+02   6.648941e+01
   3.822236e+01   1.040653e+02
  -9.115726e+01   2.613080e+01
  -1.031703e+02  -1.976784e+01
  -4.067050e+01  -7.811360e+01
   2.847827e+01  -5.566922e+01
   1.810243e+01  -5.413447e+00
  -4.023295e+01  -8.345109e+00
  -9.240199e+01  -8.260333e-01
  -2.262618e+01  -1.816406e+01
   5.688685e+01  -5.597299e+01
   8.055187e+01  -4.457949e+01
   2.715311e+01   1.315066e+01
  -3.616572e+01   8.503413e+01
  -4.938372e+01   1.071987e+02
  -5.092392e+00  -5.162755e+00
  -1.356171e+01  -1.162429e+02
   3.372599e+01   3.670676e+00
   1.775691e+01   3.586421e+01
   2.460926e+01   4.870945e+01
  -2.324531e+01   2.648459e+01
  -1.505889e+01   1.829129e+01
  -3.673096e+01  -1.217088e+01
   5.044474e+01   3.132032e+01
   1.324953e+01  -2.482496e+00
   4.884253e+00  -6.045288e+00
   3.017059e+01  -4.720350e+01
   2.015938e+01  -5.498773e+01
   5.922683e+01   1.869773e+01
   4.330911e+01   2.954445e+01
  -1.817084e+01   5.031659e+01
  -7.457536e+01  -1.120244e+01
  -3.370802e+00  -2.668553e+01
  -2.941342e+01  -7.114883e+01
   3.006698e+01  -2.597710e+01
   7.300206e+01   4.152572e+01
   3.653860e+01   7.851938e+01
   7.674841e+00   4.464327e+01
  -5.191180e+01   2.529403e+01
  -3.888044e+01  -2.046172e+01
   1.916936e+01   2.271281e+01
   3.228106e+01   7.595755e+00
  -6.726774e+01   5.455547e+01
  -1.458827e+02   2.484946e+01
