
 $NMID
 id='ANONYMOUS ', fmtdat='(2E16.6)'
 volume=1.0
 tramp=1.0
 $END
  -4.347932e+03  -7.372428e+01
  -2.782681e+03  -2.742601e+03
   7.458334e+02  -2.969546e+03
   2.282270e+03  -9.292292e+02
   8.783724e+02   7.316730e+02
  -7.419058e+02   7.229484e+02
  -1.002650e+03  -4.637896e+02
   2.868577e+01  -1.131444e+03
   9.475868e+02  -8.094674e+02
   1.030625e+03   8.544748e+01
   4.361240e+02   9.462793e+02
  -3.015847e+02   9.498416e+02
  -7.059304e+02   1.340231e+02
  -4.202949e+02  -7.786268e+02
   2.935110e+02  -8.131817e+02
   6.784165e+02   4.387903e+01
   2.749278e+02   7.524154e+02
  -3.175526e+02   6.487115e+02
  -5.918808e+02   7.789756e+01
  -3.808055e+02  -3.564967e+02
   3.461742e+01  -4.085619e+02
   2.282102e+02  -2.467266e+02
   2.376096e+02   1.358995e+01
  -1.513726e+02   1.673966e+02
  -4.053787e+02  -1.068727e+02
  -2.426974e+02  -5.042084e+02
   4.638615e+02  -4.347481e+02
   9.538018e+02   5.929446e+01
   5.113782e+02   5.946671e+02
  -4.496736e+02   5.300997e+02
  -7.785664e+02  -6.732815e+01
  -3.527081e+02  -5.025955e+02
   3.079198e+02  -5.491948e+02
   6.226074e+02  -1.976815e+02
   4.688720e+02   2.156949e+02
   6.276343e+01   4.877700e+02
  -2.255089e+02   3.205443e+02
  -1.708793e+02  -2.101837e+02
   1.951365e+02  -4.568381e+02
   4.754379e+02  -3.750698e+01
   3.065270e+02   7.773819e+02
  -2.994487e+02   7.664294e+02
  -6.433162e+02   6.873718e+01
  -3.052006e+02  -5.990292e+02
   3.078020e+02  -3.696294e+02
   4.273498e+02   3.026405e+02
  -8.575175e+01   6.025235e+02
  -6.406415e+02   1.833603e+02
  -6.173757e+02  -4.134051e+02
  -1.554244e+02  -5.970929e+02
   4.167291e+02  -3.656860e+02
   6.516692e+02   7.280914e+01
   3.759627e+02   4.353122e+02
  -1.328714e+02   4.040083e+02
  -4.704640e+02   8.906169e+01
  -2.440980e+02  -2.385890e+02
   1.249470e+02  -1.706039e+02
   1.841537e+02   1.420754e+02
  -1.633241e+02   2.252959e+02
  -3.503203e+02  -6.923982e+01
  -1.826261e+02  -3.322293e+02
   2.193995e+02  -2.556849e+02
   3.473301e+02  -1.103969e+02
   2.087931e+02   1.001345e+02
  -4.050082e+01   2.249084e+02
  -2.485625e+02   3.181549e+02
  -3.419076e+02   2.350166e+02
  -2.817544e+02  -1.327222e+02
  -7.831385e+01  -4.651735e+02
   1.194708e+02  -4.337353e+02
   1.821592e+02  -1.054411e+02
   6.000431e+01   2.871858e+01
  -7.582858e+00  -7.050736e+01
   2.220545e+02  -1.471592e+02
   2.471136e+02   7.118328e+01
   1.354292e+02   2.638631e+02
  -5.596689e+01   2.787235e+02
  -2.360181e+02  -1.220129e+01
  -1.897751e+02  -2.389908e+02
  -1.796625e+01  -3.180992e+02
   2.791084e+02  -1.119814e+02
   3.895203e+02   1.536357e+02
   2.093466e+02   3.504811e+02
  -8.996994e+01   3.360947e+02
  -2.293535e+02   1.008508e+02
  -1.571689e+02  -1.080466e+01
  -7.231024e+01   8.573281e+00
  -2.145471e+02   4.290038e+01
  -3.785397e+02  -5.221696e+01
  -3.624257e+02  -2.860598e+02
  -1.080471e+00  -4.310660e+02
   3.732724e+02  -3.974340e+02
   4.944269e+02  -2.242322e+02
   4.135568e+02   1.032582e+02
   4.486589e+01   3.068877e+02
  -9.875498e+01   2.942620e+02
  -1.173488e+02   5.558147e+01
   1.047469e+02  -1.209211e+02
   2.152426e+02  -1.130769e+01
   9.004632e+01   1.764287e+02
  -1.710158e+02   1.860709e+02
  -1.920354e+02  -3.597719e+01
   3.143354e+01  -2.213879e+02
   1.873138e+02  -1.792929e+01
   1.632086e+02   2.903507e+02
  -2.854004e+01   3.171493e+02
  -2.109622e+02   2.079978e+02
  -3.203935e+02  -3.539742e+01
  -2.887615e+02  -2.553510e+02
  -1.194313e+02  -2.360689e+02
   8.633006e+01  -1.720496e+02
   1.894089e+02  -6.951552e+01
   7.745915e+01   4.688166e+01
  -1.181028e+02  -4.579307e+01
  -2.688855e+01  -1.214095e+02
   1.447265e+02  -8.793176e+01
   1.839250e+02  -1.835676e+01
   9.405027e+01   6.335377e+01
  -8.137599e+01  -1.348434e+01
  -6.237510e+01  -3.879687e+01
   1.334239e+02  -9.383370e+01
   2.490796e+02  -2.017520e+01
   1.958860e+02   1.218741e+02
   9.181126e+01   2.602626e+02
  -1.981690e+02   2.190651e+02
  -2.950539e+02   1.460945e+02
  -1.683845e+02  -5.823098e+01
   5.542773e+00  -9.568046e+01
   1.214389e+02  -3.167015e+01
  -2.196450e+01   9.990453e+01
  -2.022830e+02   6.013319e+01
  -2.331298e+02  -1.025981e+02
  -5.635322e+01  -2.571169e+02
   1.093155e+02  -1.623587e+02
   1.332901e+02  -1.071958e+01
   1.036929e+02   2.312697e+01
   1.241115e+01   1.432993e+00
   6.600751e+00  -7.939691e+01
   9.242370e+01  -8.995878e+01
   1.495648e+02  -1.349871e+01
   2.231014e+02   1.092718e+02
   1.913121e+01   2.413784e+02
  -1.558201e+02   1.823301e+02
  -1.648624e+02   1.817566e+01
  -7.168772e+01  -1.393078e+02
   6.022850e+01  -9.137030e+01
   1.093108e+02  -9.400630e+00
   1.034079e+01   2.265884e+01
  -5.584592e+01   3.911058e-01
   2.034868e+01   4.853946e+01
   5.189062e+01   1.806578e+01
   7.564231e+01   1.082321e+02
   2.016343e+01   1.350149e+02
  -1.112198e+02   1.374294e+02
  -2.837843e+02   1.798905e+01
  -2.310027e+02  -1.118969e+02
  -4.120459e+01  -2.233934e+02
   1.067097e+02  -1.621693e+02
   1.321272e+02  -1.248780e+01
   9.198637e+01   3.309076e+01
   1.552292e+01   5.085951e+01
   3.224898e+01   1.027195e+01
   7.584414e+01  -3.109285e+00
   3.232121e+01   7.026403e+01
  -2.441122e+01   1.216991e+02
  -9.431103e+01   5.598415e+01
  -6.987557e+01  -2.922987e+01
  -4.054555e+00  -1.118605e+02
   1.448171e+02  -1.129725e+02
   1.894091e+02   1.219636e+01
   8.153307e+01   2.009557e+02
  -1.161451e+02   2.303947e+02
  -2.593591e+02   1.114042e+02
  -2.573812e+02  -6.977964e+01
  -9.073837e+01  -1.963044e+02
   6.778603e+01  -1.791958e+02
   7.620405e+01  -9.579123e+01
   1.241498e+02  -8.147405e+01
   6.668212e+01  -9.843203e+01
   7.323403e+01  -6.240969e+01
   1.062714e+02   5.014448e+01
   1.455090e+02   1.344468e+02
   2.462563e+01   2.346988e+02
  -1.203005e+02   1.646656e+02
  -1.743182e+02   3.327531e+01
  -1.646928e+02  -1.493290e+02
  -3.629085e+01  -1.401937e+02
   5.076265e+01  -9.777576e+01
   6.602995e+01   9.563928e+00
   9.222772e+00   4.882229e+01
  -4.056073e+01   6.328774e+00
   4.665897e+01  -3.088969e-01
   1.080912e+02  -2.672876e+01
   2.741544e+01   1.182061e+01
  -6.065803e+01   2.342788e+01
  -1.919803e+02  -3.576946e+01
  -1.201826e+02  -4.213152e+01
  -1.243064e+01  -5.887348e+01
   1.013053e+02  -5.236010e+01
   1.717976e+02  -1.542686e+01
   2.993271e+01   6.775005e+01
  -6.775388e+01   1.281971e+01
  -6.642907e+01  -5.873913e+01
   4.811624e+00  -1.155925e+02
   7.582147e+01  -4.690069e+01
   7.716710e+01   9.637350e+00
   7.333645e+01   5.982428e+01
   4.851527e+01   1.529131e+01
   7.215607e+01  -3.805286e+01
   6.466005e+01   9.349205e+00
   2.770493e+01   6.039875e+01
  -5.459582e+01   1.061110e+02
  -1.441892e+02   1.320977e+02
  -1.809547e+02   2.022315e+01
  -1.299126e+02  -7.142002e+01
  -2.314287e+01  -1.461026e+02
   1.070554e+02  -5.510756e+01
   8.337882e+01   2.095785e+00
  -7.955672e+01   3.165628e+00
  -1.624393e+02  -3.006371e+01
  -5.530101e+01  -1.111773e+02
   8.656320e+01  -9.282999e+01
   2.196722e+02  -6.373183e+01
   1.403189e+02   1.372805e+01
   4.132771e+01   8.069959e+01
  -6.376846e+01   1.035424e+02
  -3.862560e+01   2.640453e+01
   5.613208e+01  -1.606611e+01
   7.056713e+01   2.043045e+01
   2.298744e+01   1.520564e+02
  -6.621969e+01   1.588562e+02
  -1.779268e+02   3.856480e+01
  -1.045381e+02  -6.742965e+01
  -3.105265e+01  -2.101253e+02
   9.581324e+01  -1.497506e+02
   9.126435e+01  -1.900006e+01
   7.425874e+01   1.054078e+02
   4.251275e+00   1.134802e+02
  -6.415317e+01   3.191321e+01
  -6.971159e+01  -3.887850e+01
  -7.415912e+01  -4.020165e+01
  -2.706977e+00   1.937749e+01
  -1.686441e+01   1.793180e+01
  -2.679109e+01  -6.020213e+01
  -6.734475e+01  -1.173176e+02
   3.564120e+01  -9.629855e+01
   1.262485e+02   3.588459e+01
   1.442598e+02   7.659037e+01
   4.207915e+01   2.535746e+01
  -7.172255e+01  -3.427482e+01
  -9.757421e+01   5.095672e+01
   5.226293e+00  -1.058650e+01
   5.591775e+01  -4.794447e+01
  -4.932218e+00  -4.051034e+01
  -3.765869e+01   2.177153e+00
   2.594707e+01   4.123617e+01
   8.679659e+01   7.089966e+00
   9.506995e+01   3.417391e+01
  -4.859412e+01   1.152014e+02
  -1.138336e+02   1.234484e+02
  -1.579476e+02   2.409945e+01
  -1.668702e+02  -8.168034e+01
  -4.904766e+01  -1.398576e+02
   6.784356e+01  -1.585667e+02
   9.189199e+01  -5.074408e+01
   6.112002e+01   2.148388e+01
   3.247833e+01   6.654394e+01
   2.111924e+01  -8.332440e+00
   6.409815e+01   2.064549e+01
   8.983869e+00   3.389319e+01
   1.066759e+01   9.599843e+01
  -2.060216e+01   5.231073e+01
  -9.723599e+01  -2.608795e+01
  -7.495158e+01  -1.377764e+02
  -2.442472e-01  -1.271258e+02
   1.069040e+02  -9.639010e+00
   9.948962e+01   1.090084e+02
   8.308946e+00   1.091025e+02
  -7.791542e+01   4.215650e+01
  -8.642746e+01  -1.038038e+01
  -6.872852e+00  -5.978772e+01
   6.347626e+00   1.153178e+01
   3.629778e+01  -5.601330e+01
  -6.440209e+01  -1.825779e+01
  -7.080350e+01   2.209863e-01
   2.170491e-01   1.856107e+01
   9.019859e+01  -6.137336e+01
   1.400975e+02  -9.567660e+01
   4.688529e+01  -1.237876e+00
   3.775466e+01   8.910502e+01
  -6.027403e+01   9.091068e+01
  -4.854720e+01   1.562398e+01
   6.313999e+00  -3.251703e+01
   4.184760e+01  -2.023755e+01
   3.354973e+01   4.107304e+01
   1.929481e+01   4.353840e+01
   1.629199e+01   4.350756e+01
  -3.112054e+01  -5.531865e+00
  -3.065058e+01   3.889362e-01
  -4.013513e+01   2.096573e+01
   1.299107e+01   4.745277e+01
   4.614034e+01  -1.904664e+01
  -3.374932e+01  -4.174936e+01
   4.047160e+01  -3.443111e+01
   6.407879e+01  -2.264594e+01
   8.045088e+00   5.508283e+01
   3.863466e+01   5.938909e+01
  -1.053037e+02   3.516389e+01
  -7.753589e+01  -2.720388e+01
  -2.175342e+01  -5.360660e+01
   5.432872e+01  -3.585815e+01
   1.024371e+02   1.849041e+01
   6.949643e+01   3.494209e+01
  -3.858300e+01   6.641286e+01
  -5.580462e+01   5.914999e+00
  -4.399395e+01   1.775106e+01
   3.493957e+01   2.900078e+00
   3.408466e+01  -5.047737e+00
  -4.645613e+01   1.929035e+01
  -9.237571e+01   3.559531e+01
