
 $NMID
 id='ANONYMOUS ', fmtdat='(2E16.6)'
 volume=1.0
 tramp=1.0
 $END
  -4.831522e+03   4.015575e+01
  -2.920470e+03  -2.794078e+03
   7.108573e+02  -2.972525e+03
   2.328258e+03  -7.800160e+02
   1.005746e+03   7.167228e+02
  -7.352340e+02   7.248190e+02
  -9.811283e+02  -4.646711e+02
  -1.951289e+01  -1.229404e+03
   9.301271e+02  -8.805883e+02
   1.043965e+03   2.106813e+02
   4.687457e+02   9.483917e+02
  -3.206347e+02   9.593847e+02
  -7.713657e+02   5.913342e+01
  -4.369620e+02  -8.473142e+02
   3.234569e+02  -8.068023e+02
   6.309623e+02   7.344498e+01
   2.636857e+02   7.709746e+02
  -3.721489e+02   6.449112e+02
  -6.750070e+02   1.447802e+01
  -3.848616e+02  -4.100576e+02
  -1.075536e+00  -4.741456e+02
   2.598880e+02  -2.870489e+02
   2.265955e+02  -2.452393e+00
  -1.251425e+02   1.226999e+02
  -4.163961e+02  -7.082159e+01
  -2.523114e+02  -4.456679e+02
   4.832055e+02  -4.707070e+02
   9.944990e+02   6.202945e+01
   4.348926e+02   6.364555e+02
  -4.484275e+02   5.443590e+02
  -8.128605e+02  -5.267398e+01
  -3.955279e+02  -5.386168e+02
   3.375824e+02  -5.582360e+02
   6.083959e+02  -1.867203e+02
   4.022058e+02   2.553236e+02
   4.861793e+01   5.467674e+02
  -2.311183e+02   3.081366e+02
  -2.389884e+02  -2.813342e+02
   1.616700e+02  -5.226226e+02
   4.692875e+02  -2.769358e+01
   3.101166e+02   6.922139e+02
  -2.886679e+02   7.946173e+02
  -6.756150e+02  -1.744089e+01
  -3.010561e+02  -6.119094e+02
   3.159614e+02  -4.433447e+02
   4.658401e+02   2.868015e+02
  -3.334645e+01   6.185979e+02
  -5.496842e+02   1.727936e+02
  -6.061681e+02  -4.441778e+02
  -1.611398e+02  -6.762314e+02
   4.529983e+02  -3.667337e+02
   7.118786e+02   1.124441e+02
   4.074196e+02   4.860957e+02
  -1.500574e+02   4.260885e+02
  -5.010663e+02   2.446907e+01
  -2.199494e+02  -2.203567e+02
   1.631142e+02  -1.667928e+02
   1.811634e+02   1.680565e+02
  -1.454455e+02   2.511453e+02
  -3.835385e+02  -6.578974e+01
  -1.693178e+02  -3.593630e+02
   2.560631e+02  -2.822171e+02
   2.939123e+02  -6.007808e+01
   1.581846e+02   6.991002e+01
  -7.787572e+01   1.926561e+02
  -2.206676e+02   2.779400e+02
  -3.151265e+02   2.087393e+02
  -2.855103e+02  -1.338572e+02
  -4.956366e+01  -4.416901e+02
   1.559937e+02  -4.396323e+02
   1.921308e+02  -1.004233e+02
   2.553045e+01   4.452955e+01
   6.700498e+01  -7.650576e+01
   2.025325e+02  -1.511107e+02
   3.023680e+02   1.045104e+01
   2.063844e+02   2.593610e+02
  -5.299025e+01   3.230027e+02
  -2.282241e+02   2.205935e+01
  -2.112296e+02  -2.396810e+02
   1.664358e+01  -3.194750e+02
   2.955772e+02  -1.065692e+02
   3.349195e+02   1.682503e+02
   1.967514e+02   4.294787e+02
  -1.038640e+02   2.721530e+02
  -2.966835e+02   1.501085e+02
  -1.444814e+02  -2.626002e+01
  -1.072113e+02   3.436694e+01
  -2.238353e+02   5.820480e+01
  -3.871262e+02  -9.103804e+01
  -3.196186e+02  -2.915318e+02
  -2.837390e+01  -4.465734e+02
   3.830504e+02  -4.102470e+02
   4.658469e+02  -2.344995e+02
   3.394062e+02   7.005954e+01
   6.063533e+01   3.220912e+02
  -1.339847e+02   2.667929e+02
  -1.527318e+02   1.036810e+01
   4.203464e+01  -1.482205e+02
   2.101904e+02  -2.768053e+01
   5.944247e+01   2.108195e+02
  -1.222227e+02   1.931827e+02
  -2.207852e+02  -5.029304e+01
  -3.750877e+01  -1.984926e+02
   2.285186e+02  -4.156524e+01
   1.570369e+02   2.425555e+02
  -1.440849e+01   3.336243e+02
  -2.345379e+02   1.643910e+02
  -3.402116e+02  -8.176132e+01
  -2.724622e+02  -2.355246e+02
  -7.635683e+01  -2.825558e+02
   9.239409e+01  -1.755794e+02
   1.896681e+02  -4.760389e+01
   5.982399e+01   3.536829e+01
  -9.094914e+01  -1.136262e+01
  -4.116947e+01  -1.218733e+02
   1.289787e+02  -1.175102e+02
   2.074305e+02  -5.859793e+00
   7.202175e+01   5.659513e+01
  -8.405261e+01   4.684721e+00
  -4.206848e+01  -6.704754e+01
   9.676341e+01  -1.008638e+02
   2.862330e+02  -2.046671e+01
   2.790318e+02   1.117433e+02
   4.175425e+01   2.374963e+02
  -1.782603e+02   2.753380e+02
  -2.585251e+02   1.059263e+02
  -1.173253e+02  -7.639429e+01
   4.125295e+01  -1.329782e+02
   1.355711e+02   1.297222e+01
  -6.564070e+01   7.669932e+01
  -1.875659e+02   5.417226e+01
  -2.197697e+02  -1.065666e+02
  -5.315194e+01  -2.275736e+02
   8.556000e+01  -1.463572e+02
   1.324444e+02  -6.363345e+01
   7.272988e+01   2.803336e+01
  -3.941157e+01   3.473692e+01
  -1.433199e+01  -6.454733e+01
   4.813021e+01  -1.304419e+02
   1.937548e+02  -5.054022e+01
   1.923755e+02   1.342309e+02
   3.857679e+01   2.105619e+02
  -1.639420e+02   1.983653e+02
  -1.826733e+02   1.028115e+01
  -8.187928e+01  -9.785390e+01
   3.636931e+01  -1.151641e+02
   1.177511e+02  -3.595339e+01
   7.158694e-01   3.756692e+01
  -2.134242e+01   3.769522e+01
   1.182736e+01  -5.229954e+00
   5.416571e+01   1.596245e+01
   1.155349e+02   7.653743e+01
   3.231692e+01   1.492458e+02
  -9.426762e+01   2.102698e+02
  -2.427899e+02   1.468236e+01
  -2.080610e+02  -1.387826e+02
  -2.814771e+01  -2.246765e+02
   9.540325e+01  -1.900958e+02
   1.551939e+02  -4.775639e+01
   8.101809e+01   4.876307e+01
   4.268632e+01   7.749403e+01
   5.391536e+01   6.267505e+00
   1.123220e+02   3.452580e+00
   1.433395e+01   4.327006e+01
  -4.473577e+01   1.040805e+02
  -1.130639e+02   4.623060e+01
  -5.287070e+01   1.100321e+00
  -2.708395e+00  -9.705775e+01
   1.198343e+02  -4.486051e+01
   2.045048e+02   2.699703e+01
   7.288210e+01   1.920991e+02
  -1.364681e+02   1.880955e+02
  -2.773539e+02   1.244607e+02
  -2.909563e+02  -9.261747e+01
  -8.529761e+01  -1.836155e+02
   6.049308e+01  -1.719387e+02
   1.056609e+02  -1.057218e+02
   9.012580e+01  -7.748067e+01
   7.949722e+01  -7.758627e+01
   6.876507e+01  -9.541820e+01
   1.417294e+02   3.104152e+01
   1.385712e+02   1.524729e+02
   3.966745e+01   2.119848e+02
  -1.180896e+02   1.610645e+02
  -2.185158e+02  -8.926049e+00
  -1.430395e+02  -1.016071e+02
  -1.333048e+01  -1.457581e+02
   4.925227e+01  -9.048779e+01
   5.247028e+01  -1.599097e+01
   3.004000e+01   5.101584e+01
  -2.168927e+01   5.009091e+01
   9.463930e+01   4.909084e+00
   7.490245e+01   5.814990e+00
   1.684835e+01   4.092374e+01
  -9.774691e+01   2.568611e+01
  -1.255719e+02  -9.251787e+00
  -1.381697e+02  -3.627114e+01
   2.610719e+01  -7.357831e+01
   1.085484e+02  -6.546485e+01
   1.692284e+02  -1.409231e+01
   5.687231e+01   5.665625e+01
  -7.298003e+01   4.595476e+01
  -8.153924e+01  -2.422943e-01
  -1.903544e-03  -9.608283e+01
   2.393671e+01  -7.269388e+01
   4.793190e+01   3.822704e+01
   3.201879e+01   6.540909e+01
   5.579848e+01   3.323020e+01
   8.632396e+01   1.093709e-01
   6.002445e+01  -5.667004e+01
   4.222789e+01   4.453179e+01
  -5.155897e+01   1.656407e+02
  -1.335042e+02   1.754828e+02
  -1.550113e+02   5.869381e+01
  -1.467372e+02  -8.962659e+01
  -4.101550e+01  -1.370242e+02
   1.062094e+02  -1.119898e+01
   8.085594e+01   1.971052e+01
  -6.735154e+01  -8.422212e+00
  -1.163100e+02  -6.845286e+01
  -3.061930e+01  -1.233467e+02
   1.473959e+02  -1.220321e+02
   1.773401e+02  -2.073181e+01
   2.156219e+02   2.071644e+01
   4.650644e+01   7.570000e+01
  -2.858282e+01   7.587945e+01
  -7.713136e+01   1.802990e+01
   7.293738e+01  -1.385439e+01
   1.232855e+02   5.937699e+01
   3.336709e+01   1.346497e+02
  -9.892086e+01   1.876378e+02
  -1.901998e+02   6.477310e+01
  -1.094491e+02  -1.057658e+02
  -1.932973e+01  -2.077378e+02
   7.241543e+01  -1.392076e+02
   1.112111e+02   1.006232e+01
   8.949668e+01   8.074761e+01
  -2.004968e+00   1.309842e+02
  -4.101714e+01  -2.138929e+00
  -8.431838e+01  -2.205573e+01
  -3.684098e+01  -3.798661e+01
   2.318032e+01   1.741411e+01
  -4.443324e+00  -1.338083e+01
  -5.445595e+01  -8.801223e+01
  -4.748216e+01  -5.561585e+01
   3.579956e+01  -6.477794e+01
   1.372034e+02   2.492452e+01
   1.257043e+02   5.658044e+01
  -1.750282e+01   7.723269e+01
  -1.057273e+02   1.550771e+01
  -1.035511e+02   1.039970e+01
  -2.815498e+00  -2.652865e+01
   2.471011e+01  -2.175342e+01
   3.915887e+01   2.123025e+01
  -2.902420e+01  -3.359363e+01
   1.990117e+01   2.040635e+00
   1.024770e+02   5.685202e+00
   1.230878e+02   3.371503e+01
  -1.810176e+01   1.030289e+02
  -1.488227e+02   9.748651e+01
  -2.018414e+02   2.302163e+01
  -1.564576e+02  -7.743175e+01
  -4.140236e+01  -1.835933e+02
   5.888929e+01  -1.532909e+02
   1.250376e+02  -5.444667e+01
   1.013876e+02   3.206998e+01
   1.183304e+01   7.154945e+01
  -7.325745e+00   2.678130e+01
   2.436693e+01  -2.336157e+01
   2.813640e+01   4.319203e+01
   2.776811e+01   8.804459e+01
  -5.015935e+01   7.948495e+01
  -7.467125e+01   6.181155e-01
  -6.647476e+01  -1.645089e+02
   1.657420e+01  -8.990802e+01
   9.091740e+01  -1.642755e-01
   9.672067e+01   1.075264e+02
   2.545480e+01   1.608505e+02
  -6.521596e+01   4.298704e+01
  -1.322877e+02  -2.538345e+01
  -3.139020e+01  -5.374606e+01
   6.259153e+01  -5.425391e+01
   4.448420e+01  -4.488832e+01
  -3.358430e+01   2.239134e+01
  -5.996921e+01   3.944306e+01
  -2.566760e+01  -2.534553e+01
   9.020554e+01  -6.401974e+01
   1.208760e+02  -4.048892e+01
   5.397487e+01   5.584898e+01
   1.681555e+01   1.051040e+02
  -6.281537e+01   4.942671e+01
  -2.283976e+01   2.655438e+01
   9.077707e+00  -6.690980e+01
   4.301732e+01  -3.683224e+01
   2.956053e+01   3.019842e+01
   3.106005e+01   6.866860e+01
  -1.395431e+01   4.129253e+01
  -3.944436e+01   7.909126e+00
  -4.645709e+01  -1.883222e+01
  -2.854964e+01   2.327615e+01
   9.735556e+00   1.427988e+00
  -2.659185e+01   2.301072e+01
   7.699952e+00  -3.457267e+01
   1.185162e+01  -6.307061e+01
   3.536536e+01   9.357628e+00
  -3.540353e+00   4.500577e+01
  -1.172076e+01   3.070848e+01
  -1.594049e+01   2.512537e+01
  -4.656806e+01  -4.194307e+01
  -2.038109e+01  -4.596306e+01
   3.459372e+01  -2.545380e+01
   9.548494e+01   5.832400e+01
   5.724213e+01   7.448068e+01
  -4.421255e+01   5.102614e+01
  -3.567235e+01   3.344464e+01
  -5.081628e+01   3.958240e+00
   3.558918e+01   3.644343e+00
   4.505581e+01   4.388220e+01
  -3.458330e+01   3.242927e+01
  -1.189618e+02   2.674105e+00
