
 $NMID
 id='ANONYMOUS ', fmtdat='(2E16.6)'
 volume=1.0
 tramp=1.0
 $END
  -4.727076e+03   8.622029e+01
  -2.732591e+03  -2.826444e+03
   7.577062e+02  -2.887388e+03
   2.176833e+03  -9.160543e+02
   1.087185e+03   7.878573e+02
  -7.591928e+02   7.350191e+02
  -1.023443e+03  -4.775944e+02
   4.054980e+01  -1.165951e+03
   9.210370e+02  -8.284756e+02
   1.039712e+03   1.227572e+02
   4.534235e+02   1.001118e+03
  -3.049236e+02   9.715707e+02
  -7.344642e+02   1.378756e+02
  -4.412858e+02  -7.599225e+02
   3.015076e+02  -8.037024e+02
   6.685253e+02   2.024467e+01
   2.689470e+02   7.614986e+02
  -4.007982e+02   6.976692e+02
  -6.294754e+02   4.834317e+01
  -4.183098e+02  -4.289237e+02
   1.080154e+01  -5.151463e+02
   2.822311e+02  -2.550257e+02
   2.412845e+02   2.082414e+01
  -8.390438e+01   1.103012e+02
  -4.128132e+02  -9.342148e+01
  -2.487663e+02  -4.418597e+02
   4.555050e+02  -4.700056e+02
   9.302987e+02   1.030617e+02
   4.771558e+02   6.048033e+02
  -4.229553e+02   5.849983e+02
  -8.069019e+02  -4.913566e+01
  -3.547472e+02  -5.389186e+02
   2.972386e+02  -5.323990e+02
   6.463026e+02  -2.175658e+02
   4.663859e+02   2.468656e+02
   3.704121e+01   4.818367e+02
  -1.912071e+02   3.137274e+02
  -1.979702e+02  -2.491847e+02
   1.906527e+02  -4.716509e+02
   5.141074e+02  -1.275088e+01
   2.671413e+02   7.192577e+02
  -3.334592e+02   7.931214e+02
  -6.602903e+02   1.389396e+01
  -2.803327e+02  -6.045201e+02
   3.562019e+02  -3.582649e+02
   4.468188e+02   3.682999e+02
  -6.339422e+01   6.064286e+02
  -5.626311e+02   1.059028e+02
  -6.721669e+02  -4.752407e+02
  -1.530967e+02  -6.556591e+02
   3.811529e+02  -3.579444e+02
   6.569301e+02   8.910099e+01
   4.189029e+02   4.392040e+02
  -1.918848e+02   3.987323e+02
  -5.209876e+02   8.211807e+01
  -2.149980e+02  -2.186492e+02
   1.140510e+02  -1.247084e+02
   2.039565e+02   1.557406e+02
  -1.546655e+02   2.478941e+02
  -3.892699e+02  -6.646845e+01
  -1.229945e+02  -3.393501e+02
   1.732153e+02  -2.789112e+02
   3.674594e+02  -7.364962e+01
   1.973653e+02   8.552674e+01
  -2.878689e+01   2.187786e+02
  -1.891434e+02   3.048243e+02
  -3.650402e+02   2.427020e+02
  -3.302077e+02  -1.548617e+02
  -7.793138e+01  -4.638751e+02
   1.432852e+02  -4.097690e+02
   2.119015e+02  -1.232553e+02
   1.210124e+01   5.120410e+01
   2.202610e+01  -7.341097e+01
   1.572501e+02  -1.652392e+02
   2.918184e+02   6.259370e+01
   2.158741e+02   2.693860e+02
  -7.669929e+01   2.811379e+02
  -2.467720e+02   3.260640e+01
  -1.955012e+02  -2.641967e+02
   3.205447e+01  -3.115392e+02
   2.823793e+02  -1.398340e+02
   3.842661e+02   2.082189e+02
   2.150862e+02   3.939942e+02
  -7.325968e+01   3.073840e+02
  -2.709564e+02   1.080962e+02
  -1.614781e+02   1.368766e+01
  -1.022739e+02   9.581932e+00
  -2.413088e+02   8.268476e+01
  -4.251655e+02  -4.602678e+01
  -3.220233e+02  -3.019949e+02
  -2.501838e+01  -4.534378e+02
   3.946687e+02  -4.130569e+02
   5.313106e+02  -2.165982e+02
   3.509448e+02   8.321406e+01
   4.666382e+01   3.212854e+02
  -1.436584e+02   2.723368e+02
  -1.576483e+02   5.411160e+01
   8.828655e+01  -1.547669e+02
   2.259395e+02  -2.328724e+01
   8.142537e+01   1.744318e+02
  -1.096721e+02   2.122709e+02
  -2.048810e+02  -7.629698e+01
   1.380949e+01  -1.999259e+02
   2.223298e+02  -6.782305e+01
   1.755944e+02   2.774137e+02
  -5.633680e+01   3.704120e+02
  -2.681313e+02   2.130476e+02
  -3.483789e+02  -6.002501e+01
  -2.942365e+02  -2.316549e+02
  -1.034708e+02  -2.668094e+02
   1.267493e+02  -2.039615e+02
   2.136940e+02  -4.956289e+01
   4.709909e+01   4.420921e+01
  -8.472120e+01  -3.347855e+01
  -5.429162e+01  -1.525679e+02
   9.326586e+01  -6.493346e+01
   1.807871e+02   3.143274e+01
   9.818929e+01   5.689375e+01
  -7.814953e+01   3.500974e+01
  -7.092862e+01  -3.458573e+01
   8.231461e+01  -9.988837e+01
   2.994200e+02   1.915026e+00
   2.768582e+02   1.326658e+02
   1.792271e+01   2.675354e+02
  -1.756499e+02   2.781903e+02
  -2.529371e+02   1.368353e+02
  -1.542264e+02  -6.603615e+01
   3.158932e+01  -1.305334e+02
   1.450794e+02  -3.033780e+01
   9.150276e+00   1.031280e+02
  -1.818767e+02   4.655129e+01
  -2.216395e+02  -8.629375e+01
  -7.370870e+01  -2.383267e+02
   1.106499e+02  -1.539824e+02
   1.794807e+02   7.478422e+00
   9.817639e+01   3.506946e+01
  -4.787963e+01   4.350129e+01
  -3.692411e+01  -1.066707e+02
   6.990802e+01  -9.057870e+01
   2.068051e+02  -5.545032e+01
   1.754356e+02   1.267824e+02
   4.722183e+01   2.384886e+02
  -1.547030e+02   1.890941e+02
  -2.283879e+02  -1.708708e+01
  -8.765665e+01  -1.097228e+02
   6.899927e+01  -1.210054e+02
   7.377467e+01  -5.957398e+01
   6.860614e+01   1.541499e+01
  -4.897089e+01   2.240526e+01
   4.628906e+00  -4.180203e+00
   8.420822e+01  -2.577836e+01
   5.874479e+01   7.788044e+01
  -1.615789e+01   1.398501e+02
  -1.174578e+02   1.915397e+02
  -2.248544e+02   3.239201e+01
  -2.047229e+02  -1.217444e+02
  -7.638664e+01  -2.359466e+02
   7.155978e+01  -2.141910e+02
   1.541338e+02  -4.952015e+01
   7.305655e+01   5.198815e+01
   2.899802e+01  -2.407941e+00
   5.890207e+01  -1.431402e+01
   1.069282e+02  -2.120697e+01
   1.448463e+01   4.282585e+01
  -2.334546e+01   8.204001e+01
  -1.142513e+02   2.522404e+01
  -5.838170e+01  -2.960399e+01
  -1.177462e+01  -8.627339e+01
   1.383112e+02  -8.737468e+01
   2.249642e+02   4.810627e+01
   9.283349e+01   1.948444e+02
  -1.022220e+02   2.290320e+02
  -2.644751e+02   9.343074e+01
  -2.708486e+02  -5.971748e+01
  -1.406188e+02  -1.728254e+02
   3.467952e+00  -1.784127e+02
   1.015306e+02  -9.051200e+01
   7.497939e+01  -8.877851e+01
   7.460909e+01  -8.502200e+01
   9.454203e+01  -9.515952e+01
   1.079857e+02   3.906258e+01
   1.488052e+02   1.481597e+02
   3.326512e+01   2.079076e+02
  -1.020313e+02   1.785813e+02
  -1.287944e+02   5.545833e+01
  -1.427937e+02  -1.037149e+02
  -1.840041e+01  -1.496109e+02
   7.512163e+01  -8.952422e+01
   5.021183e+01  -1.318195e+01
   2.345761e+00   5.805493e+01
   5.623079e-02   5.536263e+01
   1.810675e+01   2.402726e+01
   6.601950e+01   4.525315e+01
   4.010800e+01   2.510042e+01
  -1.758039e+01   3.374713e+01
  -1.328158e+02   1.205784e+01
  -1.743361e+02  -5.894638e+01
  -5.493338e+01  -8.780621e+01
   1.265469e+02  -7.232233e+01
   1.713110e+02  -1.657712e+01
   6.773265e+01   6.288572e+01
  -6.281193e+01   1.689489e+01
  -8.471415e+01  -5.973722e+01
   1.735818e+01  -6.345503e+01
   6.510668e+01  -4.728775e+01
   5.701787e+01   1.989992e+01
   1.791821e+01   5.881326e+01
   4.404488e+01   2.454433e+01
   5.424909e+01  -2.042889e+01
   5.267742e+01   4.012756e+01
   2.905266e+01   5.796589e+01
  -2.984229e+01   1.789625e+02
  -1.417511e+02   1.686986e+02
  -1.258878e+02   3.971792e+01
  -9.702738e+01  -9.728887e+01
  -2.194302e+01  -9.565190e+01
   1.187449e+02  -8.699811e+01
   8.011084e+01   6.333181e+00
  -8.456636e+01  -6.400422e+00
  -1.191847e+02  -4.046488e+01
  -9.158603e+01  -1.308753e+02
   6.790593e+01  -1.142914e+02
   1.977062e+02  -3.885505e+01
   1.943485e+02   8.552727e+00
   1.819339e+01   8.620703e+01
  -4.690451e+01   7.016067e+01
  -5.526480e+01  -2.818494e+00
   6.517358e+01  -3.719838e+01
   8.860902e+01   2.656794e+01
   6.549973e+01   9.135290e+01
  -1.250371e+02   2.023551e+02
  -1.530799e+02   6.811497e+01
  -1.523982e+02  -1.004817e+02
  -2.655217e+01  -2.435545e+02
   1.171895e+02  -1.904798e+02
   1.038287e+02   4.015306e+01
   5.908359e+01   1.202632e+02
  -1.167098e+01   1.248109e+02
  -6.301770e+01   4.195707e+01
  -6.158904e+01   1.303077e+01
  -5.351487e+01  -4.674473e+01
  -3.644195e+00  -5.063554e-01
  -1.586958e+01   1.979311e+01
  -3.607986e+01  -9.740825e+01
  -6.691743e+01  -1.353417e+02
   2.944607e+01  -6.732970e+01
   1.523559e+02   3.575475e+01
   1.669018e+02   1.026186e+02
   1.772322e+01   5.113839e+01
  -1.119168e+02  -1.952450e+00
  -6.826002e+01  -2.498298e+00
  -1.999704e+01  -3.681829e+01
   2.762086e+01  -4.496987e+00
  -1.406804e+01   1.962477e+01
   1.114829e+01  -8.724973e+00
   1.733462e+01   5.941409e-01
   6.874416e+01   4.294884e+00
   6.533702e+01   1.407706e+01
  -3.363635e+00   1.024762e+02
  -9.935214e+01   1.257407e+02
  -2.115567e+02   7.364820e+01
  -1.308266e+02  -5.497625e+01
  -3.794007e+01  -1.572770e+02
   7.373325e+01  -1.219988e+02
   9.507673e+01  -5.625836e+01
   1.246765e+02   1.486797e+01
  -2.018004e+01   7.588568e+01
   4.943662e+00   4.963185e+01
   2.597787e+01   5.270907e-01
   1.948539e+01   5.350710e+01
   5.044088e+01   1.036321e+02
  -4.020497e+01   3.485794e+01
  -3.405874e+01  -1.702314e+00
  -9.021351e+01  -1.103717e+02
   7.541911e+00  -6.940865e+01
   8.567776e+01  -2.705912e+01
   8.501775e+01   1.274546e+02
   6.259271e+00   9.229747e+01
  -1.155623e+02   4.714273e+01
  -9.401310e+01  -3.290388e+01
  -1.246805e+00  -2.272493e+01
   1.003192e+01  -7.616204e+01
   3.584103e+01  -3.823773e+01
  -5.722364e+01  -2.476876e+01
  -7.015794e+01   1.040469e+01
  -2.033387e+01  -4.374523e+01
   8.149683e+01  -8.170748e+01
   1.334750e+02  -6.811142e+01
   5.574131e+01  -4.028311e+00
  -3.243081e+01   6.103333e+01
  -5.476458e+01   5.238414e+01
  -6.772349e+01   3.226405e+01
   3.810902e+01  -5.384717e+01
   2.435954e+01  -2.436492e+01
   2.177996e+01   9.909599e+00
   2.906627e+01   5.532803e+01
   1.136871e+01   2.011386e+01
  -2.271906e+01  -4.093254e+00
  -4.490276e+01  -3.591092e+01
   4.749795e+00  -1.714661e+00
  -2.439612e+01   2.308500e+01
  -1.923527e+01  -1.617755e+01
   4.143999e+01  -3.921833e+01
   6.534255e+00  -4.523572e+01
  -6.418228e+00   1.813511e+01
  -4.779879e+00   7.391419e+01
   9.235361e+00   6.491370e+01
  -3.465287e+01   3.454722e+01
  -8.095622e+01  -2.759081e+01
  -7.709544e+00  -3.036737e+01
   2.705276e+01  -7.366850e+01
   1.332273e+02   4.615147e+01
   8.101660e+01   1.575340e+01
  -2.307857e+01   6.648917e+01
  -4.117970e+01   2.359109e+01
   3.806256e+01   4.856380e+01
   4.578910e+01  -2.070301e+01
   3.864227e+01  -3.670189e+00
  -4.088260e+01   5.745578e+01
  -8.139794e+01   4.097624e+01
