
 $NMID
 id='ANONYMOUS ', fmtdat='(2E16.6)'
 volume=1.0
 tramp=1.0
 $END
   4.785096e+03   7.384674e+00
   2.743691e+03   2.734888e+03
  -7.268763e+02   2.836506e+03
  -2.193538e+03   7.952437e+02
  -9.596685e+02  -7.978923e+02
   8.557119e+02  -6.631526e+02
   1.034921e+03   5.198977e+02
  -8.520163e+01   1.204783e+03
  -9.204045e+02   8.847178e+02
  -1.046193e+03  -1.129059e+02
  -4.390980e+02  -9.388300e+02
   2.972877e+02  -9.662968e+02
   7.197343e+02  -6.761007e+01
   4.392613e+02   7.677851e+02
  -3.056553e+02   7.670736e+02
  -6.460094e+02  -3.852962e+01
  -2.733740e+02  -7.468002e+02
   3.842393e+02  -6.167301e+02
   6.391153e+02  -5.477439e+01
   4.016956e+02   4.116727e+02
   1.214516e+01   4.462500e+02
  -2.847940e+02   2.774171e+02
  -2.257205e+02  -4.641194e+00
   1.207568e+02  -1.215141e+02
   4.956888e+02   1.137059e+02
   2.322837e+02   4.758445e+02
  -4.937945e+02   4.659658e+02
  -9.075738e+02  -5.688005e+01
  -5.293535e+02  -5.804461e+02
   4.203136e+02  -5.122213e+02
   8.262580e+02   2.389340e+01
   3.749922e+02   5.145754e+02
  -3.048173e+02   5.641064e+02
  -5.711515e+02   1.903546e+02
  -4.485006e+02  -2.576248e+02
  -7.797317e+01  -5.259163e+02
   2.201535e+02  -2.990566e+02
   1.858405e+02   2.327413e+02
  -1.975281e+02   4.593628e+02
  -5.266983e+02  -2.523569e+01
  -3.275704e+02  -7.592108e+02
   3.314534e+02  -7.693709e+02
   6.766155e+02   7.182571e+01
   3.100461e+02   6.022294e+02
  -3.320764e+02   3.434661e+02
  -4.275466e+02  -3.801165e+02
   1.036010e+02  -6.065613e+02
   6.201687e+02  -1.583616e+02
   6.655623e+02   4.612045e+02
   1.542660e+02   6.369296e+02
  -4.389956e+02   3.638915e+02
  -6.239185e+02  -1.139130e+02
  -3.586228e+02  -4.151749e+02
   2.274644e+02  -3.903840e+02
   5.358798e+02  -4.542125e+01
   2.706935e+02   2.041885e+02
  -1.199504e+02   1.215070e+02
  -1.567227e+02  -2.035380e+02
   1.869574e+02  -2.281970e+02
   3.802080e+02   1.017445e+02
   1.596772e+02   2.882521e+02
  -2.563377e+02   2.790112e+02
  -3.325999e+02   6.778931e+01
  -1.912749e+02  -1.099662e+02
   1.048776e+01  -2.124556e+02
   1.890810e+02  -3.032155e+02
   3.523062e+02  -2.586723e+02
   3.230288e+02   1.346480e+02
   1.242712e+02   4.543956e+02
  -1.157221e+02   3.822759e+02
  -8.818910e+01   1.050512e+02
  -2.132087e+01   1.197541e+00
  -2.113688e+01   8.099461e+01
  -2.078857e+02   1.462676e+02
  -2.855420e+02  -4.678650e+01
  -1.347409e+02  -2.743115e+02
   6.910396e+01  -2.757561e+02
   2.283267e+02  -6.244832e+00
   1.663321e+02   2.475412e+02
   7.483721e+00   2.809207e+02
  -2.550531e+02   1.555036e+02
  -3.781543e+02  -1.719832e+02
  -1.749167e+02  -4.022419e+02
   1.045034e+02  -3.583086e+02
   2.225423e+02  -1.431034e+02
   1.787494e+02  -2.113648e+01
   1.034813e+02  -3.065180e+01
   2.572147e+02  -5.895544e+01
   3.924757e+02   2.434695e+01
   3.776684e+02   3.103856e+02
   3.139561e+01   4.377445e+02
  -3.768789e+02   4.359052e+02
  -5.306115e+02   2.261891e+02
  -3.646595e+02  -1.154754e+02
  -3.732473e+01  -3.234283e+02
   1.184476e+02  -2.744867e+02
   8.086056e+01  -6.541123e+00
  -1.223711e+02   1.281025e+02
  -2.149979e+02   2.558098e+01
  -6.688321e+01  -1.784059e+02
   1.920450e+02  -2.088216e+02
   2.081632e+02   8.986619e+01
  -2.531912e+01   1.550084e+02
  -2.402180e+02   1.814558e+01
  -1.818040e+02  -2.463738e+02
   1.159187e+01  -3.365298e+02
   2.259062e+02  -1.815056e+02
   3.427117e+02   2.247872e+01
   2.562137e+02   2.607238e+02
   1.146284e+02   3.042550e+02
  -1.239827e+02   1.914852e+02
  -1.794952e+02   3.728171e+01
  -9.970098e+01  -5.333945e+01
   1.101210e+02   1.687829e+01
   3.841677e+01   1.433312e+02
  -1.071645e+02   1.247047e+02
  -2.316381e+02   2.239348e+01
  -4.344406e+01  -5.978251e+01
   6.171792e+01  -2.675901e+01
   4.660926e+01   6.435804e+01
  -1.198766e+02   1.082862e+02
  -3.285574e+02  -2.920632e+01
  -3.025282e+02  -1.189486e+02
  -5.223544e+01  -2.543911e+02
   1.877158e+02  -2.491109e+02
   3.274595e+02  -1.323418e+02
   2.070346e+02   1.680928e+01
  -3.561000e+01   1.011879e+02
  -7.223070e+01   5.588556e-01
   3.129641e+01  -9.181148e+01
   2.037269e+02  -7.989430e+01
   2.483129e+02   1.239238e+02
   1.005422e+02   1.971560e+02
  -4.922679e+01   1.696058e+02
  -1.571406e+02   4.360028e+01
  -8.877566e+01  -3.827917e+01
   1.439393e+01  -1.821821e+01
   2.143423e+01   6.903743e+01
  -7.150271e+01   1.065710e+02
  -2.150697e+02  -1.347454e+01
  -1.957470e+02  -1.274581e+02
  -1.054922e+01  -2.339082e+02
   1.802111e+02  -1.595133e+02
   1.773666e+02  -5.819563e+01
   9.619747e+01   1.288962e+02
  -5.489275e+01   9.567990e+01
  -9.332248e+01   6.380254e+01
  -3.789174e+01  -1.820834e+01
   7.064354e+00  -4.569360e+01
   4.464410e+00  -2.410955e+01
  -7.926570e+01   4.187504e+00
  -6.378866e+01  -6.808735e+01
  -6.183653e+00  -1.950428e+02
   1.446314e+02  -1.851193e+02
   2.642851e+02  -5.943491e+01
   1.880631e+02   1.068728e+02
   6.041805e+01   2.261693e+02
  -1.247789e+02   1.789246e+02
  -1.298238e+02  -2.632260e+00
  -8.221997e+01  -5.041488e+01
  -4.636094e+01  -3.444617e+01
  -6.484145e+00   1.872566e+01
  -9.519616e+01   3.092300e+01
  -6.566750e+01  -1.733568e+01
   2.669586e+01  -7.322696e+01
   9.088480e+01  -8.508775e+01
   1.231914e+02   2.098351e+01
   3.861315e+01   5.846743e+01
  -1.353422e+02   9.209832e+01
  -1.962976e+02  -3.933003e+01
  -8.027318e+01  -1.546068e+02
   1.223594e+02  -2.568752e+02
   2.665961e+02  -8.654814e+01
   3.187440e+02   8.018320e+01
   1.250031e+02   1.773920e+02
  -1.792684e+01   1.437293e+02
  -8.629738e+01   1.140026e+02
  -1.148534e+02   9.733275e+01
  -7.465014e+01   1.074209e+02
  -1.008533e+02   3.145654e+01
  -1.235551e+02  -4.419078e+01
  -1.262388e+02  -1.723664e+02
  -3.366136e+01  -2.319112e+02
   1.408361e+02  -1.802431e+02
   1.540962e+02   5.985272e+00
   1.410336e+02   1.146344e+02
   5.152492e+01   1.671380e+02
  -5.817740e+01   1.034359e+02
  -9.192443e+01  -1.878194e+01
  -3.176787e+01   9.738244e+00
   2.146814e+01  -3.538125e+01
  -6.807424e+01   3.820219e+00
  -9.263385e+01  -3.286962e+01
  -5.155253e+01  -6.577145e+01
   8.151465e+00  -5.144567e+01
   1.787417e+02  -4.254710e+01
   1.413432e+02   4.876804e+01
  -2.418959e+01   5.651213e+01
  -1.263291e+02   1.066254e+02
  -1.667885e+02  -8.764995e+00
  -4.873314e+01  -6.233551e+01
   4.547956e+01  -5.631550e+01
   8.050618e+01   3.684302e+01
   1.713670e+01   9.736304e+01
  -3.540605e+01   8.468957e+01
  -5.586765e+01  -2.235503e+01
  -5.224973e+01  -8.087000e+01
  -3.060055e+01  -3.259451e+01
  -4.828686e+01   2.192643e+01
  -8.514467e+01  -1.990289e+01
  -5.187981e+01  -8.586291e+01
   1.843249e+01  -1.446239e+02
   1.212942e+02  -2.013962e+02
   1.654312e+02  -1.983698e+01
   1.336238e+02   1.164397e+02
   1.557363e+01   1.241584e+02
  -7.880888e+01   4.439160e+01
  -5.475327e+01   1.517723e+00
   4.808660e+01  -1.687642e+01
   1.541400e+02  -1.229083e+01
   9.485750e+01   6.614196e+01
  -8.432963e+01   9.786043e+01
  -1.742378e+02   5.569369e+01
  -1.609303e+02  -3.307521e+01
  -4.537866e+01  -8.798090e+01
   3.934882e+01  -5.837414e+01
   5.245797e+01  -7.121837e+00
  -3.634751e+01   3.094914e+01
  -7.448191e+01   6.767644e+00
  -1.015707e+01  -1.361213e+02
   9.420421e+01  -1.590470e+02
   2.173492e+02  -3.345565e+01
   1.326471e+02   1.039483e+02
   4.126023e+00   1.964826e+02
  -1.006433e+02   1.524496e+02
  -1.092520e+02  -3.035591e+01
  -8.263444e+01  -1.009282e+02
  -3.264546e+01  -1.248920e+02
   3.049331e+01  -1.068201e+01
  -1.103937e+01   4.099502e+01
  -1.226754e+01   2.610252e+01
   1.606542e+01  -6.483929e+01
   5.440651e+01  -3.155280e+00
   3.701653e+01   1.020285e+02
   8.269268e+01   8.886729e+01
  -3.562115e+00   2.754493e+01
  -8.347624e+01  -3.861378e+01
  -1.452708e+02  -2.673016e+01
  -8.277931e+00  -7.488961e+01
   1.448896e+02  -4.739538e+01
   7.741720e+01  -1.748000e+01
   2.616966e+01   8.800045e+00
  -3.946550e+01   8.450864e+00
  -2.261695e+01   7.731514e+00
   3.149996e+01   1.294350e+01
  -4.177602e+01   1.071543e+01
  -1.073283e+02  -1.833662e+01
  -8.310559e+01  -6.284870e+01
   3.354502e+01  -6.800424e+01
   7.195109e+01  -7.785755e+01
   1.542352e+02  -5.947716e+01
   1.624921e+02   8.170829e+01
   2.637304e+01   1.570709e+02
  -9.124365e+01   1.600842e+02
  -5.475671e+01   4.435137e+01
  -9.016400e+01  -1.169081e+00
   6.799171e-01  -3.379005e+01
   2.608009e+01  -1.619010e+00
  -1.534358e+01  -8.946987e+00
  -3.611877e+01  -1.853588e+01
  -7.593644e+00  -1.132158e+02
   1.986276e+01  -5.834868e+01
   5.865255e+01   2.031992e+01
   3.874761e+01   1.035516e+02
  -1.153934e+01   1.028713e+02
  -1.030727e+02   3.064137e+01
  -1.223184e+02  -8.409930e+01
  -3.094059e+01  -9.461264e+01
   4.467779e+01  -3.522763e+01
   9.575213e+01   1.243783e+00
   4.682065e+01   2.218715e+01
  -3.329539e+01   2.695992e+01
  -3.541032e+01   4.088451e+01
   4.477124e+01   1.734244e+00
   6.002303e+01  -1.487077e+01
   2.381164e+01   4.589106e+00
  -9.844933e+01   6.921825e+01
  -9.291714e+01   9.461147e+01
  -5.632915e+01   2.886301e+01
  -1.375093e+01  -1.120189e+02
   2.568606e+01  -9.804500e+01
   5.803405e+01  -3.294327e+01
   1.959356e+01   1.011096e+02
  -3.544136e+01   4.866173e+01
  -2.887442e+01  -1.307214e+01
  -1.323423e+01  -7.256326e+01
   3.596021e+01  -5.017362e+01
   2.152018e+01  -4.764011e+00
   3.278983e+01   4.422707e+01
   3.513167e+01   2.665878e+01
  -1.125776e+01  -4.108256e+01
   7.445681e+00   1.162371e+01
  -6.608688e+00   2.365889e+01
  -3.272630e+01   7.963058e+01
  -3.197096e+01   1.738098e+01
   9.056507e+00  -2.992929e+01
   2.246196e+01  -6.773884e+01
   2.903833e+01  -3.667141e+01
   3.848507e+01   1.809998e+01
   7.471348e+00   8.593115e+01
  -6.291375e+01   9.829174e+00
  -8.351495e+01  -9.863508e+00
  -3.700913e+01  -2.405590e+01
   8.956840e+01  -4.119638e+01
   4.712889e+01  -1.945880e+01
   1.190230e+01  -2.623064e+01
  -1.462417e+01  -2.118836e+01
  -4.759869e+01   3.954089e-01
   2.882030e+01   1.497904e+01
   8.720437e+01  -4.205168e+01
