
 $NMID
 id='ANONYMOUS ', fmtdat='(2E16.6)'
 volume=1.0
 tramp=1.0
 $END
  -4.673058e+03   2.979750e+02
  -2.892619e+03  -2.599491e+03
   8.411264e+02  -3.070232e+03
   2.159818e+03  -9.628324e+02
   1.097353e+03   7.600348e+02
  -8.216370e+02   7.503299e+02
  -1.089200e+03  -4.330083e+02
  -1.012401e+02  -1.198715e+03
   9.194328e+02  -8.615819e+02
   1.079010e+03   9.676227e+01
   5.017079e+02   9.794223e+02
  -3.119953e+02   9.833400e+02
  -7.496048e+02   1.054743e+02
  -4.882205e+02  -7.797821e+02
   2.736161e+02  -8.385587e+02
   6.982506e+02  -3.072346e+01
   3.028150e+02   7.461257e+02
  -3.496635e+02   6.515851e+02
  -6.263960e+02   9.985933e+01
  -3.723497e+02  -3.819234e+02
   2.667676e+01  -4.957485e+02
   2.550448e+02  -2.712193e+02
   2.197910e+02  -7.284201e+00
  -1.058729e+02   1.181969e+02
  -4.357449e+02  -7.246411e+01
  -2.926240e+02  -3.926069e+02
   4.722341e+02  -4.660384e+02
   9.504900e+02  -2.866080e+01
   5.125630e+02   5.565394e+02
  -3.540655e+02   5.859040e+02
  -7.837774e+02   4.763661e+01
  -3.933257e+02  -4.968516e+02
   2.285731e+02  -6.047629e+02
   6.075344e+02  -2.567895e+02
   4.814379e+02   2.326065e+02
   7.741086e+01   5.002796e+02
  -2.223532e+02   2.676595e+02
  -2.161636e+02  -2.168338e+02
   1.062251e+02  -5.106311e+02
   4.817866e+02  -8.297927e+01
   3.613312e+02   7.287851e+02
  -3.444793e+02   7.637179e+02
  -6.545707e+02   8.009530e+01
  -3.339812e+02  -5.956136e+02
   2.918630e+02  -3.680247e+02
   4.663630e+02   3.152214e+02
  -5.369237e+01   5.984519e+02
  -5.978893e+02   1.688970e+02
  -6.636169e+02  -3.989969e+02
  -1.826126e+02  -6.006350e+02
   4.096073e+02  -4.032196e+02
   6.753761e+02   3.100676e+01
   4.166978e+02   4.292964e+02
  -2.000093e+02   4.400677e+02
  -5.300455e+02   9.559241e+01
  -2.410967e+02  -2.343556e+02
   1.381686e+02  -1.832749e+02
   1.774083e+02   1.723300e+02
  -2.366474e+02   2.151655e+02
  -4.033617e+02  -6.131884e+01
  -1.450361e+02  -3.383928e+02
   2.447331e+02  -2.916037e+02
   3.568602e+02  -3.563716e+01
   1.842871e+02   8.211375e+01
  -6.712752e+00   1.921769e+02
  -1.999509e+02   3.105883e+02
  -3.363078e+02   2.242758e+02
  -3.093890e+02  -1.318836e+02
  -1.116766e+02  -4.653354e+02
   1.444859e+02  -4.034467e+02
   1.168171e+02  -8.516117e+01
   8.519166e-01   5.723519e+01
   3.362483e+01  -7.402992e+01
   1.576599e+02  -1.711059e+02
   3.050478e+02   4.113283e+01
   1.517158e+02   2.737765e+02
  -8.847192e+01   2.657914e+02
  -2.336942e+02   2.297208e+00
  -2.605483e+02  -2.040673e+02
  -2.813047e+01  -2.830433e+02
   2.508883e+02  -1.261986e+02
   3.638016e+02   1.762151e+02
   2.370265e+02   3.764052e+02
  -1.412519e+02   3.264951e+02
  -2.146274e+02   1.464550e+02
  -1.758770e+02   3.223335e+01
  -7.786331e+01  -4.888713e+00
  -2.210998e+02   1.033951e+02
  -4.263265e+02  -1.243877e+01
  -3.117001e+02  -2.876914e+02
  -6.202600e-02  -4.258281e+02
   3.430101e+02  -4.373438e+02
   5.267482e+02  -2.573435e+02
   3.950610e+02   1.004479e+02
   8.985266e+01   3.108779e+02
  -1.710042e+02   3.016606e+02
  -7.602722e+01   3.433723e+01
   9.332452e+01  -1.619928e+02
   2.081199e+02  -3.561479e+01
   8.508627e+01   1.967828e+02
  -1.646075e+02   2.045677e+02
  -2.347529e+02  -5.532220e+01
  -1.860223e+01  -2.041438e+02
   1.906391e+02  -4.237469e+01
   1.416659e+02   2.298849e+02
   1.242354e+01   3.972581e+02
  -2.278176e+02   1.889248e+02
  -3.300762e+02  -3.471123e+01
  -2.650691e+02  -2.448644e+02
  -1.202736e+02  -2.411721e+02
   1.063269e+02  -1.640125e+02
   2.204059e+02  -4.917854e+00
   6.737946e+01   1.683467e+01
  -8.133488e+01  -3.629499e+01
  -4.769272e+01  -1.281525e+02
   8.479987e+01  -9.710068e+01
   1.508324e+02   1.443312e+01
   5.914499e+01   5.413767e+01
  -8.718692e+01   2.471383e+01
  -9.035795e+01  -4.642262e+01
   1.470604e+02  -7.595081e+01
   2.950816e+02  -2.813914e+01
   2.885003e+02   1.322345e+02
   1.074067e+02   2.613348e+02
  -1.862321e+02   2.736465e+02
  -3.141134e+02   1.728586e+02
  -1.991180e+02  -2.501125e+01
   4.958020e+00  -1.314278e+02
   6.964586e+01  -3.736536e+00
  -6.209494e-01   1.043336e+02
  -1.718881e+02   8.059777e+01
  -2.069997e+02  -7.505729e+01
  -7.897022e+01  -1.688003e+02
   6.719472e+01  -2.050563e+02
   1.336223e+02  -5.494727e+01
   5.720450e+01   1.581617e+01
  -1.075335e+01   1.175746e+01
  -7.463052e+01  -6.197157e+01
   8.886459e+01  -1.282993e+02
   1.722941e+02  -6.000983e+01
   1.930683e+02   1.073654e+02
   3.101409e+01   2.202082e+02
  -1.572841e+02   1.567995e+02
  -1.849350e+02   3.006621e+01
  -6.174649e+01  -9.877605e+01
   6.171952e+01  -1.650513e+02
   9.651753e+01   8.980654e+00
   2.847876e+01   2.245853e+01
  -4.985816e+00   3.063027e+01
  -3.033611e+01  -1.678516e+01
   7.462478e+01   5.609257e+00
   1.104288e+02   6.717048e+01
  -8.660881e-01   1.383953e+02
  -1.102030e+02   1.741700e+02
  -2.112254e+02   4.027188e+01
  -2.018676e+02  -1.319640e+02
  -3.955764e+01  -2.524974e+02
   9.663302e+01  -1.467578e+02
   1.428615e+02  -4.568351e+01
   6.913229e+01   4.841392e+01
   2.599426e+01   3.837356e+01
   7.696667e+01  -2.065646e+01
   7.649298e+01  -8.459338e+00
   3.038932e+00   9.140048e+00
  -6.473578e+01   9.484840e+01
  -6.371444e+01   7.495623e+01
  -7.017615e+01  -3.907785e+01
  -2.463636e+01  -8.333227e+01
   1.568313e+02  -7.966478e+01
   1.746752e+02   6.845281e+01
   1.335353e+02   2.149625e+02
  -1.333969e+02   1.972809e+02
  -2.336661e+02   1.101354e+02
  -2.537312e+02  -1.252024e+02
  -1.200122e+02  -1.250113e+02
   5.415761e+01  -1.379331e+02
   1.228351e+02  -7.107408e+01
   8.947992e+01  -5.673708e+01
   4.557857e+01  -6.702991e+01
   1.305082e+02  -9.714438e+01
   1.442745e+02   7.373244e+00
   1.541761e+02   1.827809e+02
   2.955747e+01   2.221074e+02
  -9.277474e+01   1.738967e+02
  -1.648944e+02   2.809722e+01
  -1.525504e+02  -8.662777e+01
  -4.575106e+01  -1.396881e+02
   8.198697e+01  -9.604844e+01
   5.861477e+01  -3.048350e+01
   2.256706e+01   3.647301e+00
  -7.595298e+00   2.255190e+01
   1.978496e+00   2.256955e+01
   3.559525e+01   9.871025e+00
   8.322558e+00   3.129275e+01
  -2.732527e+01   2.276460e+01
  -1.433418e+02  -9.687891e+00
  -1.342387e+02  -3.051539e+01
   3.211393e+01  -1.036826e+02
   9.733409e+01  -7.648033e+01
   1.678229e+02  -1.122712e+01
   7.456076e+01   2.000994e+01
  -6.188415e+01   3.446882e+00
  -8.794321e+01  -2.856099e+00
  -8.987083e+00  -2.055570e+01
   6.245767e+01  -8.830245e+01
   1.082268e+02  -1.243970e+01
   2.506457e+01   5.272510e+01
   6.824377e+01   6.500203e+01
   5.368084e+01   1.248319e+01
   8.239397e+01   3.664126e+01
   3.130968e+01   9.342160e+01
   9.507065e+00   1.497286e+02
  -1.232107e+02   1.023583e+02
  -1.373466e+02   6.104787e+01
  -1.470968e+02  -8.208303e+01
  -1.376202e+01  -1.195170e+02
   4.540983e+01  -4.041942e+01
   7.576742e+01  -6.601693e+00
  -2.909016e+01   1.952176e+01
  -1.383561e+02  -3.207968e+01
  -9.797365e+01  -1.205771e+02
   6.681474e+01  -1.047633e+02
   2.066508e+02  -9.257407e+01
   1.344816e+02   5.531654e+01
  -3.255503e+00   8.619225e+01
  -2.912825e+01   6.350958e+01
  -3.143252e+01   2.159931e+01
   5.906517e+00  -2.597888e+01
   9.762571e+01  -1.200794e+01
   3.531364e+01   7.688254e+01
  -8.850803e+01   1.451638e+02
  -1.599222e+02   5.579289e+01
  -8.456012e+01  -1.111982e+02
  -1.103398e+01  -1.629196e+02
   1.143664e+02  -1.674859e+02
   1.010831e+02  -2.497200e+01
   1.106667e+02   1.237194e+02
   5.363295e-01   1.186551e+02
  -6.631241e+01   9.870676e-01
  -3.490301e+01  -2.733159e+01
  -4.079426e+01  -2.378038e+01
  -2.455355e+01   3.377549e+01
  -6.833550e+00   1.206941e+01
  -4.140385e+01  -5.734459e+01
  -5.299297e+01  -1.337630e+02
   3.264288e+01  -4.399047e+01
   1.300889e+02  -1.732063e+00
   1.406451e+02   8.408143e+01
  -6.234394e+00   6.052049e+01
  -7.146473e+01   8.403884e+01
  -9.059070e+01   3.029783e+01
   6.769678e+00   1.600129e+00
   1.122351e+01  -1.544220e+01
   5.915850e+01  -3.192247e+01
  -4.065998e+00  -4.925655e+00
   1.894375e+01   1.224622e+01
   9.788728e+01   3.462789e+01
   6.794574e+01   3.596695e+01
   9.991827e+00   5.898894e+01
  -1.120615e+02   1.054584e+02
  -1.777274e+02   8.816066e+01
  -1.517689e+02  -5.538682e+01
  -7.907442e+00  -1.959189e+02
   5.642967e+01  -1.677576e+02
   1.422566e+02  -3.935403e+01
   9.944334e+01   2.823241e+01
   2.678340e+01   3.313877e+01
  -1.468119e+01   1.334708e+01
   4.566151e+01   1.816314e+01
   5.247760e+01   2.800045e+01
   5.008675e+01   7.744985e+01
  -5.131143e+01   6.506872e+01
  -5.371906e+01   4.467958e+01
  -8.202602e+01  -1.210305e+02
   4.517698e+00  -8.798733e+01
   7.715847e+01  -1.523614e+01
   8.259250e+01   7.401476e+01
   5.298971e+01   1.117669e+02
  -9.097743e+01   7.891811e+01
  -8.368876e+01   2.414279e+01
  -3.667302e+01  -1.019337e+02
   5.166205e+01  -2.725943e+01
  -8.170959e-01  -3.277181e+01
  -4.647989e+01  -1.072880e+01
  -5.543466e+01  -3.972443e+00
  -1.221420e+01  -4.862914e+01
   7.483671e+01  -7.256102e+01
   1.224626e+02  -8.858560e+01
   5.875668e+01  -1.100162e+01
   1.418553e+01   7.461506e+01
  -1.316195e+01   6.362096e+01
  -2.108451e+01  -1.445430e+01
   1.288731e+01  -3.886262e+01
   7.197218e+01  -9.013320e+01
   7.214411e+01   1.642023e+01
  -5.775166e+00   6.311205e+01
   8.665017e+00   5.563570e+01
  -3.170734e+01   3.369481e+00
  -3.888866e+01  -2.703345e+01
   2.173365e+01  -1.876509e+00
   3.861174e+00  -6.538463e+00
   1.667906e+01  -1.351246e+01
   5.944548e+00  -4.015086e+01
   3.696172e+01  -3.272598e+01
   2.619749e+01  -2.249450e+01
   6.164044e+01   4.174098e+01
   6.166575e+00   6.973877e+01
  -5.922718e+01   2.337141e+01
  -3.004608e+01  -2.392926e+01
  -3.071981e+01  -7.197110e+01
   5.582731e+01  -3.978316e+01
   6.610655e+01  -1.347846e+01
   3.666932e+01   1.220722e+01
  -2.614883e+01   7.356824e+01
  -4.709539e+01   2.292717e+01
  -2.891912e+01  -2.287768e+01
  -3.641064e-01  -3.319489e+01
   2.756999e+01   1.207647e+01
  -5.828850e+01   3.007033e+01
  -8.190161e+01  -2.977862e+00
