
 $NMID
 id='ANONYMOUS ', fmtdat='(2E16.6)'
 volume=1.0
 tramp=1.0
 $END
   4.712860e+03  -4.744369e+01
   2.807716e+03   2.635076e+03
  -7.835257e+02   2.914098e+03
  -2.313874e+03   7.489069e+02
  -8.849111e+02  -8.078608e+02
   8.674167e+02  -6.352196e+02
   1.003304e+03   4.773699e+02
   6.914066e+00   1.211537e+03
  -9.303012e+02   7.872502e+02
  -1.033388e+03  -1.554748e+02
  -4.717957e+02  -9.596238e+02
   3.069452e+02  -9.227579e+02
   7.590173e+02  -9.861424e+01
   3.713772e+02   7.619298e+02
  -3.007232e+02   8.374498e+02
  -7.068064e+02  -1.810515e+01
  -2.327629e+02  -7.787229e+02
   3.598925e+02  -6.219041e+02
   6.079567e+02   3.820542e+00
   3.546885e+02   3.624966e+02
  -3.344842e+01   4.209990e+02
  -2.775445e+02   2.326628e+02
  -2.294083e+02  -2.162566e+01
   1.163587e+02  -1.463772e+02
   4.461374e+02   7.136518e+01
   2.438662e+02   4.489332e+02
  -4.185775e+02   4.469821e+02
  -8.929898e+02  -4.440513e+01
  -4.734324e+02  -5.970220e+02
   4.179144e+02  -5.387139e+02
   7.740434e+02  -3.547961e+01
   3.619577e+02   4.833732e+02
  -2.787040e+02   5.946137e+02
  -6.286867e+02   1.917784e+02
  -4.271906e+02  -2.578020e+02
  -6.010070e+01  -4.864940e+02
   2.174654e+02  -2.851848e+02
   2.573750e+02   2.895259e+02
  -1.411575e+02   5.319881e+02
  -4.670557e+02   5.369666e+01
  -2.799784e+02  -6.654563e+02
   3.413181e+02  -7.103626e+02
   6.309921e+02  -2.508724e+01
   2.759678e+02   6.004542e+02
  -3.133058e+02   3.840393e+02
  -4.255975e+02  -3.294327e+02
   3.354246e+01  -5.694524e+02
   5.870775e+02  -1.846702e+02
   6.019136e+02   4.089272e+02
   1.575381e+02   6.046177e+02
  -3.776574e+02   3.649593e+02
  -6.742170e+02  -5.993510e+01
  -3.901645e+02  -4.280441e+02
   1.946800e+02  -4.388137e+02
   5.196723e+02  -5.548283e+01
   2.574965e+02   2.647609e+02
  -1.528807e+02   1.475267e+02
  -1.246656e+02  -1.975053e+02
   1.767073e+02  -2.030721e+02
   3.707349e+02   8.872905e+01
   1.553348e+02   3.451994e+02
  -2.198109e+02   2.703396e+02
  -3.004312e+02   5.589044e+01
  -1.764777e+02  -5.751094e+01
   5.620602e+01  -1.946141e+02
   2.425449e+02  -2.932041e+02
   3.191102e+02  -1.951334e+02
   3.269684e+02   1.138810e+02
   9.701677e+01   4.493975e+02
  -1.587866e+02   3.889094e+02
  -9.142686e+01   1.127038e+02
  -1.875046e+01  -1.133182e+01
  -4.505055e+01   5.244250e+01
  -1.989638e+02   1.047318e+02
  -2.411854e+02  -2.708282e+01
  -1.647444e+02  -2.735328e+02
   6.123655e+01  -2.651728e+02
   2.139412e+02  -1.437940e+01
   2.067132e+02   2.351003e+02
   7.843169e+00   3.227288e+02
  -2.343835e+02   1.451325e+02
  -3.772988e+02  -1.678303e+02
  -2.147057e+02  -4.019131e+02
   1.286100e+02  -2.841029e+02
   2.668978e+02  -1.622470e+02
   1.778317e+02   1.771066e+01
   5.503606e+01  -2.479360e+01
   2.243119e+02  -5.693880e+01
   4.033739e+02   3.325987e+01
   3.437104e+02   2.550752e+02
   2.613773e+01   4.362957e+02
  -3.433525e+02   3.793042e+02
  -5.214709e+02   1.852904e+02
  -2.976809e+02  -1.331956e+02
  -8.058563e+01  -2.823711e+02
   1.377096e+02  -2.606025e+02
   7.227270e+01  -5.692474e+01
  -7.598200e+01   1.188667e+02
  -2.115400e+02   3.007343e+01
  -9.703766e+01  -1.532243e+02
   1.645655e+02  -1.864728e+02
   1.970292e+02   7.623943e+01
   1.987086e+01   2.074125e+02
  -2.099336e+02   2.762424e+01
  -1.719545e+02  -2.352777e+02
  -7.208940e+00  -3.239477e+02
   2.188302e+02  -2.168690e+02
   3.592002e+02   3.982297e+01
   2.362211e+02   2.661866e+02
   1.402310e+02   2.659851e+02
  -9.962902e+01   1.818501e+02
  -1.937658e+02   3.083682e+01
  -6.108803e+01  -3.251296e+01
   8.676612e+01   5.972748e+00
   3.223324e+01   9.845557e+01
  -1.613610e+02   9.732707e+01
  -1.591756e+02  -1.604339e+01
  -7.317083e+01  -5.435657e+01
   7.646140e+01   1.280226e+01
   7.843189e+01   7.252371e+01
  -1.241688e+02   7.282469e+01
  -3.036610e+02   3.257159e+01
  -2.270562e+02  -1.366683e+02
  -1.043169e+02  -2.464689e+02
   1.658634e+02  -2.439056e+02
   2.634125e+02  -1.281280e+02
   1.815741e+02   5.327521e+01
  -3.021375e+01   1.073926e+02
  -1.165485e+02   1.454772e+01
   1.152553e+01  -1.197169e+02
   1.770397e+02  -4.255599e+01
   2.558022e+02   7.918136e+01
   9.583948e+01   1.980414e+02
  -8.525816e+01   1.630892e+02
  -1.508268e+02   1.746742e+01
  -9.736834e+01  -6.027724e+01
   1.353107e+01   2.382840e+00
   3.772654e+00   7.834591e+01
  -6.507667e+01   8.462194e+01
  -1.996108e+02   3.542199e+01
  -1.980997e+02  -1.114009e+02
  -3.518721e+01  -2.285274e+02
   1.973530e+02  -1.595055e+02
   1.917367e+02   1.513709e+01
   5.231180e+01   1.270669e+02
  -7.648201e+01   9.597145e+01
  -1.215331e+02   4.083956e+01
  -1.778174e+01  -4.530419e+01
   2.399123e+00  -2.782419e+01
  -3.165182e+01  -2.431032e+01
  -8.569565e+01   2.747460e+00
  -5.956435e+01  -6.465385e+01
  -3.798574e+01  -1.756386e+02
   1.041671e+02  -1.632722e+02
   2.171581e+02  -4.760621e+01
   2.161401e+02   1.432338e+02
   4.113065e+01   2.715739e+02
  -1.086769e+02   1.867934e+02
  -1.378534e+02  -2.438711e+00
  -2.040675e+01  -6.956646e+01
  -5.545162e+01  -7.547712e+01
  -5.648561e+00  -4.433990e+00
  -4.558766e+01   1.371145e+01
  -1.413200e+01  -5.908697e+01
   4.877222e+01  -1.040804e+02
   9.691812e+01  -7.640360e+01
   8.980142e+01   5.907937e+01
  -1.755211e+01   8.274318e+01
  -1.072988e+02   1.147057e+02
  -1.646377e+02  -1.637095e+01
  -8.425082e+01  -2.386944e+02
   8.100476e+01  -1.923678e+02
   2.447330e+02  -1.113155e+02
   2.332195e+02   1.214561e+02
   1.197188e+02   1.678182e+02
  -4.958974e+01   1.381575e+02
  -1.007314e+02   6.476755e+01
  -4.588480e+01   7.442623e+01
  -8.678798e+01   9.334176e+01
  -8.669701e+01   7.578746e+01
  -1.194911e+02  -3.203054e+01
  -1.020094e+02  -1.538763e+02
  -7.102834e+00  -2.316972e+02
   7.245366e+01  -1.887514e+02
   1.859657e+02  -2.633867e+01
   7.573456e+01   1.225833e+02
  -2.776132e+01   1.433915e+02
  -1.074093e+02   8.208401e+01
  -3.189182e+01   2.057003e+01
   4.529798e+00   1.346466e+00
  -8.409921e+00  -1.624709e+01
  -4.214158e+01  -2.260478e+01
  -6.735305e+01  -8.952436e+00
  -1.893581e+01  -5.769982e+01
   4.384518e+01  -2.412572e+01
   1.480309e+02   1.088131e+01
   1.334606e+02   6.848059e+01
   2.503126e+01   9.981225e+01
  -1.428857e+02   8.979703e+01
  -9.710460e+01   3.936917e+01
  -6.686680e+01  -3.178390e+01
   8.781804e+01  -2.334249e+01
   8.983854e+01   1.706734e+01
  -2.147335e+01   9.112030e+01
  -5.559074e+01   3.344294e+01
  -7.020296e+01  -2.231975e+01
  -4.012123e+00  -8.210801e+01
  -1.438983e+01  -1.739111e+01
  -6.622693e+01  -4.139217e+01
  -6.726735e+01  -2.167099e+01
  -3.160173e+01  -4.751390e+01
   2.849084e+01  -1.384943e+02
   1.146574e+02  -1.446103e+02
   1.590044e+02  -2.050502e+01
   7.913040e+01   7.453425e+01
   3.278744e-02   1.176539e+02
  -9.054692e+01   8.326002e+01
  -4.434711e+01   2.929407e+01
   6.981907e+01  -5.723357e+01
   1.443263e+02   1.924159e+01
   8.418617e+01   8.850672e+01
  -5.836595e+01   1.140823e+02
  -1.767886e+02   7.134267e+01
  -1.519972e+02  -4.691284e+01
  -3.813854e+01  -1.053498e+02
   7.489180e+01  -6.294638e+01
   3.685615e+01   3.379701e+00
  -2.816505e+01   5.851964e+01
  -8.883893e+01  -2.414051e+01
  -1.771275e+01  -1.224827e+02
   9.964345e+01  -1.373168e+02
   1.909954e+02  -5.660497e+01
   1.197545e+02   6.041935e+01
   1.016328e+01   1.973532e+02
  -8.122689e+01   1.156130e+02
  -1.132149e+02   1.271374e+01
  -7.093628e+01  -1.129623e+02
   7.694892e+00  -1.322420e+02
   3.796239e+01  -4.212411e+01
   5.652491e+01   3.421630e+01
   4.147731e+01  -1.704939e+01
  -1.413838e+01  -3.146707e+01
   1.514619e+01   2.248141e+01
   7.026550e+01   7.610096e+01
   3.541377e+01   1.007274e+02
  -2.599894e+01   5.724179e+01
  -1.411132e+02  -3.186350e+01
  -1.417637e+02  -1.158729e+02
  -7.670312e+00  -3.804623e+01
   1.065967e+02  -2.578425e+01
   1.009709e+02  -2.478018e+01
   3.219394e+01   6.778153e+00
  -9.421089e+01   4.820398e+01
  -3.317171e+01   2.156057e+01
   2.398150e+01  -4.121351e+01
   8.991108e+00   1.667425e+01
  -9.157707e+01  -1.415942e+01
  -9.167822e+01  -3.427281e+01
   1.375016e+01  -5.371241e+01
   1.173477e+02  -1.388823e+02
   1.769791e+02  -3.616227e+01
   1.176167e+02   6.302136e+01
   6.367668e+00   1.338187e+02
  -7.364784e+01   1.422786e+02
  -8.822601e+01   5.632607e+01
  -7.840290e+01  -1.291268e+01
  -2.844793e+01  -4.340335e+01
  -5.087775e+01  -6.706727e-02
  -3.868546e+01  -2.592693e+01
  -2.661707e+01  -4.895608e+01
  -4.535721e+01  -8.036792e+01
  -6.564582e+00  -6.699754e+01
   7.383259e+01   9.098185e+00
   7.877889e+01   9.630904e+01
  -1.441668e+01   9.915938e+01
  -6.902631e+01   1.472424e+01
  -1.070611e+02  -1.046343e+02
   1.957572e+01  -1.293539e+02
   1.030314e+02  -4.850917e+01
   1.194137e+02   2.306461e+00
   6.495973e+01   5.505599e+01
  -5.131903e+01   3.531248e+01
  -2.083471e+01   9.849865e+00
   5.981659e+01   8.494136e+00
   7.828713e+01  -2.337857e+01
  -1.956544e+01   3.822328e+01
  -1.032452e+02   4.292962e+01
  -9.559486e+01   6.560960e+01
  -7.587119e+01  -3.663880e+01
   1.539066e+01  -1.016692e+02
   6.399323e+01  -7.624693e+01
   5.864358e+01  -2.674589e+01
  -9.280642e+00   7.023972e+01
  -5.237951e+01   2.650365e+01
  -2.854964e+01  -3.276026e+01
  -4.900515e+01  -7.308715e+01
   7.235033e-01  -2.739243e+01
  -6.737703e+00  -2.205993e+01
   6.547000e+01   3.834757e+00
   2.057021e+01   2.524541e+01
  -4.170494e-01  -1.730331e+00
   1.028692e+00   6.438190e+00
  -5.269385e+00   2.740522e+01
  -3.145458e+01   6.672138e+00
  -1.951136e+01   1.816938e+01
  -3.188441e+01  -6.279317e+01
   1.583137e+01  -5.409690e+01
   4.711018e+01  -2.644570e+01
   7.841996e+01   2.876381e+01
   1.825549e+00   8.245597e+01
  -4.382244e+01   3.411900e+01
  -1.034712e+02  -4.132455e+01
  -5.307253e+01  -2.239892e+01
   1.836566e+01  -3.419155e+01
   6.061175e+01  -3.604018e+01
   1.093992e+01   3.091983e+01
   4.419308e+00  -2.337359e+01
  -1.064023e+01  -3.734358e+01
   6.965706e+01  -1.185094e+00
   8.448383e+01  -1.402086e+01
