
 $NMID
 id='ANONYMOUS ', fmtdat='(2E16.6)'
 volume=1.0
 tramp=1.0
 $END
  -4.738999e+03   5.216466e+01
  -2.791053e+03  -2.636480e+03
   8.562456e+02  -2.912340e+03
   2.319703e+03  -7.715590e+02
   8.067896e+02   8.247001e+02
  -8.742411e+02   5.825203e+02
  -9.648585e+02  -4.674768e+02
   2.491950e+01  -1.209861e+03
   9.653488e+02  -8.418407e+02
   1.023013e+03   1.512078e+02
   4.186448e+02   1.001083e+03
  -3.385610e+02   8.575987e+02
  -7.544801e+02   7.572607e+01
  -4.027054e+02  -7.851823e+02
   3.289270e+02  -7.946343e+02
   6.948470e+02   3.444435e+01
   2.232650e+02   7.426962e+02
  -4.187303e+02   6.971812e+02
  -6.087649e+02   1.117469e+01
  -3.509841e+02  -4.356503e+02
  -2.700083e+01  -4.477177e+02
   2.772564e+02  -2.350298e+02
   2.505251e+02  -2.074404e+01
  -1.158930e+02   1.372264e+02
  -4.315628e+02  -1.264741e+02
  -2.482959e+02  -4.751719e+02
   4.831493e+02  -4.574001e+02
   9.763358e+02   6.462324e+01
   4.919285e+02   5.861425e+02
  -4.278641e+02   5.600203e+02
  -7.815962e+02  -5.076368e+01
  -3.711001e+02  -5.221492e+02
   3.189250e+02  -5.662270e+02
   5.936934e+02  -2.185073e+02
   3.819407e+02   2.540846e+02
   3.299948e+01   4.840550e+02
  -2.386410e+02   2.987584e+02
  -2.528713e+02  -2.492841e+02
   1.740628e+02  -4.973329e+02
   5.182068e+02  -2.764957e+01
   2.690750e+02   7.127324e+02
  -3.847461e+02   7.701151e+02
  -6.419527e+02  -3.063797e+00
  -2.895547e+02  -6.060824e+02
   3.229447e+02  -3.659348e+02
   4.562141e+02   3.355829e+02
  -1.840161e+01   5.909316e+02
  -5.765101e+02   1.760327e+02
  -6.061595e+02  -4.186479e+02
  -1.342320e+02  -6.263735e+02
   4.197417e+02  -3.732583e+02
   6.670915e+02   9.157429e+01
   4.161928e+02   4.090101e+02
  -2.196278e+02   4.012262e+02
  -5.318554e+02   2.850784e+01
  -2.848494e+02  -2.491132e+02
   1.196182e+02  -1.381163e+02
   1.679590e+02   1.394360e+02
  -2.380810e+02   2.441527e+02
  -4.128714e+02  -5.439333e+01
  -1.818816e+02  -3.129002e+02
   2.366373e+02  -2.637692e+02
   3.127063e+02  -2.068907e+01
   2.097263e+02   4.384814e+01
  -3.315430e+00   1.881360e+02
  -2.290003e+02   3.472395e+02
  -3.326025e+02   2.052052e+02
  -3.076087e+02  -1.364433e+02
  -8.327087e+01  -4.279323e+02
   1.880063e+02  -4.385326e+02
   1.484643e+02  -9.832749e+01
   7.603052e+00   2.639364e+01
   4.188633e+01  -1.085006e+02
   1.725170e+02  -1.508234e+02
   3.084626e+02   8.012522e+00
   1.664937e+02   2.699178e+02
  -6.066391e+01   2.478418e+02
  -2.356122e+02   1.538523e+01
  -2.205392e+02  -2.433103e+02
  -1.381135e+01  -2.810414e+02
   2.585353e+02  -1.288063e+02
   3.707618e+02   1.686052e+02
   1.658491e+02   3.761556e+02
  -1.373493e+02   2.807673e+02
  -2.519188e+02   1.470657e+02
  -1.723555e+02   3.602468e+01
  -8.107449e+01   2.224221e+01
  -2.095456e+02   5.068101e+01
  -3.914864e+02  -6.839076e+01
  -3.192267e+02  -2.577440e+02
   2.555675e+00  -4.422129e+02
   3.494595e+02  -4.227965e+02
   4.828743e+02  -1.789330e+02
   3.514308e+02   6.818082e+01
   7.839492e+01   2.794011e+02
  -9.784212e+01   2.628612e+02
  -1.005411e+02   5.585717e-01
   1.029936e+02  -1.059858e+02
   2.234445e+02   2.296299e+01
   5.490055e+01   2.424780e+02
  -1.241768e+02   1.620966e+02
  -2.182753e+02  -4.564066e+01
   2.519883e-01  -2.025254e+02
   2.316047e+02  -2.147327e+01
   1.638975e+02   2.361245e+02
  -4.373109e+01   3.156516e+02
  -2.493310e+02   2.128548e+02
  -3.113421e+02  -2.861821e+01
  -2.448527e+02  -2.357536e+02
  -1.101014e+02  -2.621074e+02
   1.381259e+02  -1.866329e+02
   2.149593e+02  -2.314184e+01
   6.099697e+01   3.648731e+01
  -8.760888e+01  -5.401503e+01
  -6.583550e+01  -1.160522e+02
   1.027154e+02  -1.340663e+02
   1.979003e+02   2.706753e+01
   1.120407e+02   1.131521e+02
  -6.898643e+01   1.747195e+01
  -7.059076e+01  -7.401783e+01
   1.193107e+02  -6.993052e+01
   2.675558e+02  -3.046201e+01
   2.773593e+02   1.349733e+02
   3.191846e+01   2.353141e+02
  -1.633343e+02   2.687110e+02
  -2.561621e+02   9.812891e+01
  -1.829386e+02  -5.881508e+01
   6.070835e+01  -1.347148e+02
   9.044909e+01  -8.018214e+00
  -3.499618e+00   1.525534e+02
  -1.870168e+02   8.269105e+01
  -2.513002e+02  -1.023516e+02
  -6.268176e+01  -2.316658e+02
   1.170880e+02  -1.609278e+02
   1.412002e+02  -4.394870e+01
   4.962858e+01   1.548123e+01
   2.806967e+01   1.813367e+01
  -1.660178e+01  -7.786263e+01
   9.716059e+01  -1.057199e+02
   2.149194e+02  -3.927448e+01
   2.142817e+02   1.201051e+02
   1.381958e+01   2.315936e+02
  -1.538516e+02   2.103934e+02
  -1.936676e+02   2.250472e+01
  -9.532429e+01  -9.688239e+01
   9.259617e+01  -1.326050e+02
   9.155972e+01  -4.664794e+01
   3.160165e+01   7.923517e+00
  -3.808363e+01   1.581647e+01
  -2.124006e+01  -3.316336e+01
   5.536725e+01  -4.455034e+00
   8.070072e+01   9.657910e+01
   9.901674e+00   1.275566e+02
  -9.984831e+01   1.748158e+02
  -2.047710e+02   5.987835e+00
  -1.707582e+02  -1.543138e+02
  -7.090687e+01  -2.730176e+02
   9.728085e+01  -2.025120e+02
   1.320977e+02  -2.434235e+01
   7.305086e+01   3.297439e+01
   2.523975e+01   9.711280e+00
   6.602189e+01   1.570831e+01
   9.038314e+01   1.887746e+01
   2.981894e+01   8.137607e+01
  -7.551387e+01   7.094871e+01
  -1.187182e+02   2.613996e+01
  -6.479529e+01  -3.406327e+01
   2.641003e+01  -7.708456e+01
   1.118520e+02  -8.584567e+01
   1.685151e+02   4.564536e+01
   7.544148e+01   1.946569e+02
  -6.866604e+01   1.898899e+02
  -2.812352e+02   1.205150e+02
  -2.830584e+02  -8.688578e+01
  -6.794611e+01  -2.131590e+02
   4.446945e+01  -1.508848e+02
   8.198806e+01  -9.569744e+01
   6.925798e+01  -1.204863e+02
   5.736640e+01  -8.171037e+01
   3.683930e+01  -3.726719e+01
   1.429092e+02   3.902653e+01
   9.970682e+01   1.425460e+02
   7.647826e+00   2.423188e+02
  -1.066232e+02   1.641851e+02
  -1.809106e+02   3.707005e+01
  -1.407609e+02  -1.174691e+02
  -7.754259e+01  -1.433153e+02
   6.900337e+01  -6.780710e+01
   6.360664e+01   2.228329e+00
  -2.088473e+01   4.541026e+01
   6.174189e+00   5.047083e+01
   5.553019e+01  -1.225284e+01
   8.476228e+01   3.460167e+01
   3.244918e+01   3.680507e+01
  -5.151876e+01   1.862341e+01
  -1.205593e+02  -9.649667e-01
  -1.669584e+02  -5.149937e+01
  -2.059194e+01  -1.130428e+02
   9.902886e+01  -1.029013e+02
   1.779192e+02  -3.307972e+01
   5.190020e+01   4.049236e+01
  -6.360131e+01   3.898876e+01
  -3.233556e+01  -4.230489e+01
  -2.063103e+00  -6.909591e+01
   2.338651e+01  -1.708546e+01
   5.542764e+01   1.356613e+01
   5.043289e+01   4.782403e+01
   4.693747e+01   3.777820e+01
   4.278202e+01   1.182984e+01
   9.153326e+01   2.717987e+01
   1.851872e+00   7.578443e+01
  -4.839702e+01   1.441723e+02
  -1.200767e+02   1.418092e+02
  -1.483695e+02   5.666046e+01
  -9.239118e+01  -8.079092e+01
  -2.403673e+01  -1.030991e+02
   5.654939e+01  -6.705692e+01
   2.642044e+01  -1.928689e+01
  -7.752692e+01   4.899135e+01
  -1.426865e+02  -3.545386e+01
  -9.159966e+01  -1.516678e+02
   5.928973e+01  -1.103177e+02
   2.331120e+02  -8.664356e+01
   1.183849e+02   2.813920e+01
   4.743054e+01   1.019823e+02
  -5.004334e+01   6.702166e+01
  -3.861525e+01   3.343620e+01
   7.098056e+01  -1.283237e+01
   1.310276e+02   2.033534e+01
   2.743987e+01   1.474547e+02
  -8.574520e+01   1.246899e+02
  -1.258410e+02   4.876329e+01
  -9.467339e+01  -1.047501e+02
   7.026543e+00  -2.162364e+02
   1.118735e+02  -1.307153e+02
   7.841286e+01  -4.160109e+01
   5.116581e+01   1.174893e+02
   2.529748e+01   9.723513e+01
  -8.863458e+01   4.921307e+01
  -3.134769e+01  -6.303466e+01
  -1.458125e+01  -6.708505e-02
  -1.123120e+01   5.346019e+01
  -2.159581e+01   1.393842e+01
  -6.291310e+01  -1.245282e+02
  -3.217076e+01  -1.872163e+02
   4.133741e+01  -4.447878e+01
   1.284769e+02   1.202729e+01
   1.010296e+02   7.942899e+01
   2.469939e+01   1.382503e+01
  -1.021060e+02   2.727437e+01
  -6.953091e+01   3.562976e+01
   9.405055e+00   7.057021e+00
   6.361912e+01  -2.879900e+01
   2.081851e+01   2.541596e+01
  -3.741174e+01   9.382677e+00
  -4.100740e+00   2.535946e+01
   8.206404e+01  -1.274940e+01
   7.733459e+01   7.405333e-01
   1.397391e+01   6.134035e+01
  -1.108522e+02   1.265258e+02
  -1.900251e+02   7.925277e+01
  -1.163770e+02  -1.009031e+02
  -6.744825e+01  -1.699687e+02
   4.799541e+01  -1.577668e+02
   1.034138e+02  -3.510816e+01
   3.701262e+01   5.900547e+00
   2.277490e+01   6.186886e+01
  -5.357255e+01   2.087427e+01
   1.963879e+01   4.233211e+01
  -5.973181e+00   3.883671e+01
   6.287719e+01   9.353894e+01
  -7.734839e+00   6.295597e+01
  -9.220878e+01  -4.415703e+01
  -5.758446e+01  -1.179934e+02
  -8.322521e+00  -1.280746e+02
   5.898246e+01  -2.012327e+01
   8.499525e+01   8.344687e+01
   7.635161e+01   6.994013e+01
  -7.456692e+01   6.674231e+01
  -7.507931e+01  -3.717135e+01
  -4.638730e+01  -4.382443e+01
   7.497506e+01  -4.603370e+01
   3.242573e+01  -1.626721e+01
  -2.478626e+01  -9.140529e+00
  -5.286883e+01  -3.913392e+01
   5.298357e+00  -4.496703e-01
   7.518260e+01  -4.532269e+01
   1.192185e+02  -6.221439e+01
   6.409297e+01  -3.703370e+01
  -2.349526e+01   7.409629e+01
  -4.774877e+01   6.356303e+01
  -2.333905e+01  -1.398954e+00
  -3.239058e+00  -5.393658e+01
  -7.756907e-02  -6.562425e+01
   9.039365e+00  -3.433490e+01
   4.489067e+01   2.168105e+01
   2.817770e+01   1.544451e+01
  -3.482440e+01   8.773975e+00
  -4.785173e+01   1.045989e+01
  -4.788405e+00   5.452811e+00
   3.393796e+01   1.850445e+01
   2.335330e+01  -2.771662e+01
   1.936690e+00  -6.622922e+01
   1.072404e+01  -5.139492e+01
   2.248438e+00   8.215560e+00
  -2.616920e+01   1.126663e+01
   1.103630e+01   5.221618e+01
  -2.151065e+01   1.778823e+01
  -5.907362e+01  -2.319512e+01
   1.254323e+01  -4.775854e+01
   4.752183e+01  -4.573752e+01
   6.262018e+01   6.682786e+01
   4.568815e+01   5.233695e+00
  -3.064980e+01   4.228607e+01
  -2.731672e+01   3.334952e+01
   7.791523e+00   1.246384e+01
   4.367282e+01  -6.181358e+00
   4.639354e+01   5.760710e+01
  -8.711034e+01   4.046057e+01
  -1.016804e+02   4.722069e+00
