
 $NMID
 id='ANONYMOUS ', fmtdat='(2E16.6)'
 volume=1.0
 tramp=1.0
 $END
   4.599619e+03  -3.408283e+01
   2.769234e+03   3.001705e+03
  -9.122343e+02   3.016433e+03
  -2.246021e+03   9.184353e+02
  -1.072337e+03  -8.680348e+02
   7.761113e+02  -7.200674e+02
   1.023525e+03   5.286357e+02
  -2.484829e+01   1.126181e+03
  -9.245180e+02   8.447673e+02
  -1.034423e+03  -1.278838e+02
  -4.794817e+02  -9.517915e+02
   2.736126e+02  -9.282338e+02
   6.896497e+02  -8.930517e+01
   3.727114e+02   8.201738e+02
  -3.147372e+02   8.042577e+02
  -6.281563e+02  -1.403748e+01
  -3.053995e+02  -7.629510e+02
   3.093970e+02  -7.001172e+02
   6.704075e+02  -1.108442e+02
   4.293056e+02   3.748141e+02
  -4.531009e+00   4.862044e+02
  -2.768904e+02   3.071707e+02
  -2.440518e+02   6.030646e+01
   1.033961e+02  -1.513863e+02
   4.464656e+02   1.087438e+02
   2.173157e+02   4.194900e+02
  -4.875064e+02   5.095336e+02
  -9.339878e+02  -7.391547e+01
  -4.978900e+02  -6.132532e+02
   4.190595e+02  -5.271800e+02
   7.977553e+02  -3.475655e+00
   3.727494e+02   5.365565e+02
  -3.408154e+02   5.284302e+02
  -6.053073e+02   2.493857e+02
  -4.285448e+02  -2.262930e+02
  -1.193246e+02  -4.895984e+02
   2.450929e+02  -3.342225e+02
   2.158967e+02   2.386682e+02
  -1.932166e+02   4.797492e+02
  -5.059750e+02   6.376277e+00
  -2.615880e+02  -6.974449e+02
   3.982646e+02  -7.899449e+02
   6.617886e+02   1.012159e+01
   2.904193e+02   6.057231e+02
  -2.878919e+02   4.016633e+02
  -4.188596e+02  -3.215102e+02
   4.445895e+01  -5.899017e+02
   5.684356e+02  -1.175973e+02
   6.502838e+02   4.112459e+02
   2.299703e+02   6.226462e+02
  -3.517773e+02   3.543040e+02
  -6.561074e+02  -1.854128e+01
  -4.313294e+02  -3.847441e+02
   2.005310e+02  -4.109265e+02
   4.212703e+02  -8.218735e+01
   3.033886e+02   1.828958e+02
  -1.361174e+02   1.173804e+02
  -1.655045e+02  -1.309354e+02
   2.037814e+02  -2.329857e+02
   4.107008e+02   7.157389e+01
   1.856873e+02   3.073714e+02
  -2.206682e+02   2.856941e+02
  -3.400534e+02   9.522194e+01
  -1.908431e+02  -1.052526e+02
   1.012952e+01  -2.357846e+02
   1.923675e+02  -3.638184e+02
   3.437459e+02  -2.298830e+02
   3.172787e+02   1.120033e+02
   1.059070e+02   4.656750e+02
  -1.038005e+02   4.074764e+02
  -1.628515e+02   1.248368e+02
  -4.434570e+01  -2.109050e+01
  -2.571429e+01   1.074388e+02
  -1.596974e+02   1.397725e+02
  -2.928502e+02  -4.069884e+01
  -1.954122e+02  -2.367044e+02
   6.228029e+01  -2.787872e+02
   2.541340e+02  -2.828750e+01
   2.527540e+02   2.617709e+02
   1.397545e+01   3.313464e+02
  -2.688919e+02   1.262369e+02
  -3.913710e+02  -1.650341e+02
  -2.215888e+02  -3.921722e+02
   8.529043e+01  -3.488614e+02
   2.302906e+02  -1.123636e+02
   1.606102e+02  -7.557536e+00
   1.125112e+02  -3.142558e+00
   2.420656e+02  -7.358157e+01
   4.366695e+02   3.597814e+01
   3.598147e+02   2.803513e+02
   1.314564e+01   4.923159e+02
  -3.739010e+02   3.902751e+02
  -5.136650e+02   2.167708e+02
  -3.212494e+02  -1.128085e+02
  -7.806944e+01  -2.885826e+02
   1.166876e+02  -2.261127e+02
   1.138317e+02  -3.360267e+01
  -1.138512e+02   1.050233e+02
  -2.545807e+02   3.914668e+01
  -5.599172e+01  -2.066545e+02
   1.802072e+02  -2.261570e+02
   1.856553e+02   5.592714e+01
  -8.642950e+00   1.578595e+02
  -2.029232e+02   6.913789e+01
  -1.824015e+02  -2.452365e+02
   1.806915e+01  -3.612241e+02
   2.176721e+02  -2.024770e+02
   3.263881e+02   8.043896e+01
   2.871952e+02   2.487695e+02
   8.844078e+01   2.966883e+02
  -1.430053e+02   1.617305e+02
  -1.684978e+02   7.145364e+00
  -5.623752e+01  -5.837592e+01
   6.665404e+01   6.151332e+01
   3.370501e+01   1.265856e+02
  -1.221442e+02   5.036006e+01
  -1.929876e+02   2.833488e+00
  -4.625360e+01  -7.664330e+01
   9.359784e+01  -1.786171e+01
   5.943624e+01   3.587346e+01
  -1.214903e+02   1.053473e+02
  -2.791494e+02  -1.953307e+01
  -2.955723e+02  -1.311534e+02
  -5.712270e+01  -2.307601e+02
   1.980737e+02  -2.340728e+02
   2.481671e+02  -1.769618e+02
   1.948621e+02   2.439301e+01
  -2.597365e+01   1.511189e+02
  -9.778636e+01   4.194363e+01
  -6.801800e+00  -1.269061e+02
   2.078132e+02  -1.088826e+02
   2.183147e+02   8.208182e+01
   9.439037e+01   2.057842e+02
  -1.277902e+02   1.830082e+02
  -1.888342e+02   3.046913e+01
  -6.542727e+01  -4.499599e+01
   1.769246e+01  -2.199160e+01
   4.425509e+01   9.164407e+01
  -7.494707e+01   1.008078e+02
  -1.671157e+02   2.697345e+01
  -2.163858e+02  -1.577316e+02
  -2.230608e+01  -2.243279e+02
   1.500929e+02  -1.233074e+02
   1.725941e+02  -6.578739e+01
   1.011516e+02   1.276833e+02
  -9.375156e+01   1.177722e+02
  -8.014355e+01   4.027053e+01
  -4.835317e+01  -2.756898e+01
   5.108047e+01  -3.645512e+01
  -1.337061e+01   2.140297e+00
  -1.162663e+02  -2.172230e+01
  -7.054442e+01  -8.287333e+01
  -3.011565e+01  -1.445103e+02
   1.175026e+02  -1.463029e+02
   2.460332e+02  -5.772983e+01
   2.160963e+02   1.402148e+02
   5.319297e+01   2.004743e+02
  -1.574425e+02   1.444194e+02
  -1.216857e+02   6.269633e+01
  -7.998659e+01  -1.066176e+02
  -3.681764e+01  -3.146752e+01
  -5.571857e+01   1.294292e+01
  -1.023999e+02   1.375439e+01
  -4.265511e+01   1.938270e+01
   5.226604e+01  -8.617036e+01
   6.501618e+01  -8.293679e+01
   9.528762e+01   3.306221e+00
   5.000876e+00   1.113891e+02
  -1.321406e+02   7.070544e+01
  -2.005040e+02  -4.136536e+01
  -1.481624e+02  -2.162524e+02
   1.504184e+02  -2.353618e+02
   2.498818e+02  -1.417810e+02
   2.733562e+02   9.095081e+01
   1.272976e+02   1.798360e+02
  -6.250929e+00   1.682737e+02
  -1.166313e+02   3.994805e+01
  -1.148198e+02   8.275030e+01
  -4.612681e+01   1.218434e+02
  -1.080107e+02   7.021082e+01
  -9.147521e+01  -2.780495e+01
  -9.489111e+01  -1.379740e+02
  -4.548571e+01  -2.257216e+02
   1.063455e+02  -1.932900e+02
   1.684084e+02  -2.317873e+01
   1.282255e+02   1.051906e+02
   1.350281e+01   1.675572e+02
  -5.320399e+01   8.345756e+01
  -4.907020e+01   1.043988e+01
  -1.718999e+00  -4.169406e+01
   3.540354e+01  -1.443811e+01
  -2.012283e+01   1.133054e+01
  -9.771108e+01  -1.680789e+01
  -5.956313e+01  -4.059449e+01
   6.254899e+01  -2.754089e+01
   1.564578e+02  -6.377281e+00
   1.192853e+02   6.263769e+01
   1.801636e+01   9.021186e+01
  -1.290099e+02   7.375539e+01
  -1.377563e+02   3.870895e+01
  -4.562234e+01  -3.728336e+01
   4.406199e+01  -5.100712e+01
   7.231375e+01   5.553736e+00
   6.392461e+00   6.174993e+01
  -8.452912e+01   4.213507e+01
  -4.278972e+01  -4.333883e+00
  -3.339370e+01  -6.781926e+01
  -1.172777e+01  -3.091426e+01
  -5.972482e+01  -9.465826e+00
  -5.739820e+01   1.640811e+01
  -7.908930e+00  -6.357500e+01
   1.517765e+01  -1.275882e+02
   1.012477e+02  -1.594259e+02
   2.001851e+02  -2.227089e+01
   1.419584e+02   9.228454e+01
  -4.598684e+00   1.101901e+02
  -7.884534e+01   8.815142e+01
  -3.184331e+01  -1.700422e+01
   9.295306e+01  -2.002061e+01
   1.351510e+02   2.764022e+01
   8.409742e+01   9.462537e+01
  -7.318329e+01   1.973144e+02
  -2.158908e+02   6.698651e+01
  -1.687208e+02  -5.018320e+01
  -3.931448e+01  -8.303913e+01
   5.339546e+01  -1.058683e+02
   6.102142e+01   1.249699e+01
  -4.904297e+01  -9.380616e+00
  -1.056203e+02  -3.132978e+01
  -4.758370e+01  -1.704353e+02
   1.291054e+02  -1.690004e+02
   1.598156e+02  -4.107833e+01
   1.265117e+02   8.705991e+01
   4.485414e+01   2.164366e+02
  -5.670500e+01   1.417394e+02
  -8.228193e+01  -4.836456e+00
  -7.475157e+01  -6.698469e+01
  -4.261306e+00  -8.520066e+01
   2.882818e+01  -3.021167e+01
   7.019832e+01   1.886579e+01
   2.839826e+01  -8.519300e+00
   2.371765e+01  -1.371947e+01
   9.029742e+00   5.409249e-01
   2.460289e+01   6.642051e+01
   3.871238e+01   1.011434e+02
  -4.146574e+01   5.768427e+01
  -1.288146e+02  -2.163738e+01
  -1.102181e+02  -8.480298e+01
  -5.547041e+01  -4.860230e+01
   1.038046e+02  -3.853427e+01
   9.180486e+01   2.166391e+01
  -3.859008e+00   1.262893e+01
  -1.632543e+01   2.336591e+01
  -2.463993e+01   3.102771e+01
   2.513613e+00  -8.320514e-01
   6.834587e+00   1.446706e+00
  -6.414846e+01  -1.598681e+01
  -9.014008e+01  -2.745220e+01
  -1.556619e+01  -1.336116e+02
   1.494528e+02  -1.500938e+02
   1.695623e+02  -9.866122e+01
   1.517203e+02   4.571561e+01
   2.626565e+01   1.175060e+02
  -6.311422e+01   1.319740e+02
  -1.192759e+02   6.401084e+01
  -1.264026e+02  -9.663410e+01
  -2.976870e+01  -3.524971e+01
  -2.276939e+01   2.642548e+01
  -7.198774e+00  -2.246248e+01
  -2.693880e+01   2.493826e+00
  -2.046724e+00  -1.119887e+02
   3.439733e+01  -5.977995e+01
   4.760088e+01   1.634816e+01
   5.517247e+01   1.377461e+02
  -1.288441e+01   1.515912e+02
  -9.289005e+01   1.501803e+00
  -8.790125e+01  -7.440380e+01
  -3.205383e+01  -1.179220e+02
   6.873898e+01  -8.147266e+01
   1.022561e+02   1.966582e+01
  -7.035531e-02   4.236554e+01
  -2.339523e+01   4.852620e+01
  -6.118669e+01   1.927478e+01
   8.112654e+01   1.757260e+01
   1.020518e+02  -1.535805e+01
   6.764723e+01   2.205204e+01
  -1.016246e+02   7.546254e+01
  -9.333235e+01   1.033175e+02
  -3.317163e+01   8.794313e+00
   3.663898e+01  -9.567591e+01
   2.302782e+01  -5.431147e+01
   7.860081e+01   4.794865e+00
  -5.888288e+00   9.384146e+01
  -6.797564e+01   5.864156e+01
  -1.591733e+01   2.095739e+00
  -2.997940e+01  -8.197159e+01
   1.566626e+01  -2.649613e+01
   3.287394e+01   5.120906e+00
   1.369585e+01  -1.480964e+01
   1.862780e+01   6.694125e+00
  -2.857543e+01   1.829081e+00
  -7.945153e-01   1.423921e+01
  -2.967898e+01   5.521993e+01
  -8.071124e-01   2.967148e+01
  -2.825332e+01  -3.345105e+00
   2.597068e+01  -7.323890e+01
   1.375979e+01  -5.685665e+01
   3.350141e+01  -1.793486e+00
   9.457596e+01   2.335792e+00
   2.543290e+01   7.855669e+01
  -6.549437e+01   2.423525e+01
  -1.048075e+02  -1.181059e+01
  -7.136313e+01  -3.241816e+01
   2.310227e+01  -4.047670e+01
   8.100679e+01  -3.633642e+01
   2.906600e+00  -4.659261e+01
  -1.465123e+01  -8.422568e+00
  -5.652320e+01  -3.991197e+01
   3.521628e+01  -5.924472e+00
   8.359715e+01  -3.573262e+01
