
 $NMID
 id='ANONYMOUS ', fmtdat='(2E16.6)'
 volume=1.0
 tramp=1.0
 $END
   4.421302e+03   2.836767e+01
   2.678508e+03   2.863787e+03
  -8.800543e+02   2.875117e+03
  -2.239268e+03   1.014438e+03
  -1.029253e+03  -7.259057e+02
   6.555049e+02  -7.183072e+02
   1.003568e+03   5.087758e+02
   1.577044e+01   1.091831e+03
  -8.793851e+02   7.518813e+02
  -9.845313e+02  -1.365681e+02
  -4.633651e+02  -9.199866e+02
   3.106347e+02  -9.738972e+02
   7.130621e+02  -1.296368e+02
   4.182702e+02   7.863556e+02
  -3.539067e+02   7.542614e+02
  -6.879348e+02  -4.425850e+01
  -2.930616e+02  -7.330578e+02
   3.799368e+02  -6.851213e+02
   5.762915e+02  -1.333708e+02
   4.493935e+02   4.338525e+02
   1.402631e+01   4.662261e+02
  -2.598742e+02   3.024580e+02
  -2.258045e+02   2.398614e+01
   1.195462e+02  -8.284660e+01
   4.094588e+02   1.162056e+02
   2.082844e+02   4.612461e+02
  -4.558011e+02   4.829383e+02
  -9.090737e+02  -1.188476e+02
  -4.579177e+02  -5.778623e+02
   4.241494e+02  -4.929980e+02
   8.144832e+02   2.726767e+01
   3.635259e+02   4.901310e+02
  -3.337411e+02   5.050093e+02
  -6.042416e+02   2.438933e+02
  -4.234374e+02  -2.066364e+02
  -1.185695e+02  -4.824542e+02
   2.189968e+02  -2.726434e+02
   2.075916e+02   2.081389e+02
  -1.066518e+02   4.653801e+02
  -4.846823e+02   3.162836e+01
  -2.880020e+02  -6.848757e+02
   3.284312e+02  -7.479956e+02
   6.241665e+02  -1.454351e+01
   2.837613e+02   5.588601e+02
  -3.099669e+02   3.864363e+02
  -4.196366e+02  -3.261229e+02
   3.434452e+01  -5.878917e+02
   5.680396e+02  -1.749084e+02
   6.495962e+02   3.963141e+02
   1.539203e+02   6.180379e+02
  -3.566077e+02   3.682450e+02
  -6.549745e+02  -7.168472e+01
  -4.242885e+02  -3.973837e+02
   1.574688e+02  -3.547228e+02
   4.624570e+02  -9.190364e+01
   2.589619e+02   2.156198e+02
  -1.645490e+02   1.145367e+02
  -1.741163e+02  -1.457600e+02
   1.517048e+02  -2.384306e+02
   3.719740e+02   4.843810e+01
   1.695366e+02   3.292872e+02
  -1.789797e+02   2.954176e+02
  -3.138116e+02   7.719582e+01
  -2.300224e+02  -1.283233e+02
   7.585565e+01  -2.737591e+02
   2.386352e+02  -3.681138e+02
   3.206326e+02  -2.522962e+02
   2.827102e+02   1.149287e+02
   8.683769e+01   4.634894e+02
  -1.293755e+02   3.848949e+02
  -1.251796e+02   1.553631e+02
  -7.310375e+01  -2.419554e+01
  -6.454973e+01   9.193423e+01
  -1.779542e+02   1.475764e+02
  -2.575941e+02  -7.453993e+01
  -1.572374e+02  -2.897181e+02
   7.873253e+01  -2.610521e+02
   2.594018e+02  -3.008616e+01
   1.891014e+02   2.582181e+02
   3.282240e+00   3.214929e+02
  -2.593569e+02   1.765616e+02
  -3.574758e+02  -1.668573e+02
  -1.999642e+02  -3.967330e+02
   8.621459e+01  -2.986647e+02
   2.311169e+02  -1.506741e+02
   1.360200e+02  -2.045286e+01
   1.406179e+02  -2.350473e+01
   2.617184e+02  -8.933388e+01
   3.796523e+02   8.500704e+01
   3.238452e+02   2.448908e+02
  -1.298258e+01   4.713077e+02
  -3.547712e+02   3.686500e+02
  -4.728772e+02   2.820487e+02
  -3.759798e+02  -8.041096e+01
  -6.122362e+01  -2.775050e+02
   1.030529e+02  -2.469423e+02
   7.619287e+01  -2.576219e+01
  -9.447306e+01   9.968291e+01
  -2.509621e+02   1.785886e+01
  -8.237917e+01  -2.361875e+02
   1.579501e+02  -1.939463e+02
   1.899983e+02   7.112379e+01
  -2.784813e+01   2.265667e+02
  -1.737826e+02   5.048488e+01
  -1.548121e+02  -2.701434e+02
   3.536180e+01  -3.291390e+02
   2.674099e+02  -1.848452e+02
   3.346188e+02   6.945614e+01
   2.832071e+02   2.506442e+02
   7.469398e+01   2.779035e+02
  -1.288443e+02   1.404407e+02
  -1.788181e+02  -4.103374e+01
  -1.172215e+02  -6.848738e+01
   7.074147e+01   4.224105e+01
   3.212911e+01   1.467531e+02
  -1.234545e+02   1.119120e+02
  -1.800899e+02   1.435037e+01
  -3.915010e+01  -3.779103e+01
   5.446846e+01  -1.568581e+01
   6.875634e+01   5.586578e+01
  -1.631275e+02   6.827585e+01
  -2.888414e+02   2.417746e+01
  -2.623346e+02  -1.420150e+02
  -5.491911e+01  -2.660104e+02
   1.726009e+02  -2.843257e+02
   3.002913e+02  -1.494850e+02
   1.776122e+02   6.149196e+01
  -7.861553e+00   1.544227e+02
  -1.113399e+02   4.180977e+01
   6.991396e+00  -1.150227e+02
   2.191823e+02  -6.637672e+01
   2.052529e+02   9.803968e+01
   6.117330e+01   1.876115e+02
  -1.006857e+02   1.414907e+02
  -1.597102e+02   2.150802e+01
  -4.889454e+01  -7.799477e+01
   2.644031e+01  -2.336146e+01
   8.713595e+01   7.418144e+01
  -6.306245e+01   1.185598e+02
  -2.172049e+02   1.704522e+01
  -1.897387e+02  -1.453122e+02
  -1.324878e+01  -2.461468e+02
   1.753715e+02  -1.782554e+02
   1.785658e+02  -2.831965e+01
   7.056661e+01   1.103543e+02
  -5.404206e+01   1.397435e+02
  -6.692255e+01   2.817656e+01
  -1.841707e+01  -7.133281e+01
  -1.332477e+01  -4.239557e+01
  -1.306919e+01  -3.182151e+01
  -1.015997e+02  -4.373307e+00
  -8.686271e+01  -1.047519e+02
  -2.582287e+01  -1.536853e+02
   1.017894e+02  -1.698264e+02
   2.528717e+02  -6.974605e+01
   1.907497e+02   1.208850e+02
   9.687309e+01   2.281808e+02
  -1.039306e+02   2.183013e+02
  -1.205184e+02   6.541286e+01
  -1.386695e+02  -8.405035e+01
  -2.088327e+01  -3.710658e+01
  -1.250180e+01   1.689711e+01
  -7.379303e+01   1.138603e+01
  -6.604608e+01  -1.921419e+01
   2.219521e+01  -1.129497e+02
   9.526397e+01  -1.981527e+01
   9.055955e+01  -6.716907e+00
  -2.960723e+01   1.320846e+02
  -1.060329e+02   8.673149e+01
  -1.783168e+02  -5.182775e+01
  -9.393357e+01  -1.936718e+02
   8.213234e+01  -2.486352e+02
   2.993222e+02  -1.167113e+02
   2.652002e+02   4.132673e+01
   1.017750e+02   1.725109e+02
  -1.548786e+01   1.446463e+02
  -9.553014e+01   1.096912e+02
  -5.132494e+01   8.069444e+01
  -6.389453e+01   1.012964e+02
  -9.611790e+01   8.532106e+01
  -9.106044e+01  -4.224217e+00
  -1.328894e+02  -1.477280e+02
  -4.745725e+00  -2.184166e+02
   1.011185e+02  -1.843211e+02
   1.662379e+02  -2.011442e+01
   1.497945e+02   1.132702e+02
   3.708062e+01   1.491139e+02
  -8.298438e+01   9.729316e+01
  -6.276165e+01   1.480051e+01
  -2.952243e+01  -1.580758e+01
  -8.288660e+00  -3.428574e+01
  -5.286831e+01  -4.628724e+01
  -1.271945e+02  -1.455356e+01
  -6.134995e+01  -8.009581e+01
   8.656412e+01  -6.931287e+01
   1.824679e+02  -1.672716e+01
   1.229304e+02   2.461415e+01
   4.244285e+01   1.202037e+02
  -1.064097e+02   5.103539e+01
  -1.532271e+02  -1.031859e+01
  -7.041716e+01  -2.840850e+01
   5.820145e+01  -1.973841e+01
   6.383712e+01   2.184079e+01
  -2.445499e+01   9.048756e+01
  -5.389801e+01   6.004666e+01
  -5.412748e+01  -8.788550e+00
  -5.636072e+01  -6.478942e+01
  -5.519445e+01  -2.447601e+01
  -7.903030e+01  -1.308318e+00
  -8.214629e+01   6.834846e+00
  -2.567253e+01  -1.091643e+02
   2.100006e+01  -1.401754e+02
   1.169624e+02  -1.414348e+02
   1.741626e+02   1.505850e+00
   1.439334e+02   5.339612e+01
   1.126380e+00   1.052611e+02
  -9.152080e+01   1.006783e+02
  -6.289562e+01  -1.036867e+01
   1.035513e+02  -2.465708e+01
   1.327350e+02   4.615579e+01
   1.080759e+02   1.112867e+02
  -8.993121e+01   1.324803e+02
  -2.085479e+02   5.186274e+01
  -1.792990e+02   7.438818e+00
  -4.554865e+01  -6.454599e+01
   6.351225e+01  -8.562037e+01
   2.399994e+01  -1.835959e+01
  -5.336419e+01   5.062899e+01
  -7.995920e+01   3.277894e+01
  -5.023232e+01  -1.334141e+02
   8.814842e+01  -1.734082e+02
   1.794541e+02  -7.398932e+01
   1.222824e+02   9.483340e+01
   2.811638e+01   2.370492e+02
  -9.212829e+01   1.328233e+02
  -1.140209e+02   1.396824e+01
  -5.486751e+01  -1.154147e+02
   2.243123e+01  -1.149702e+02
   4.412130e+01  -1.055364e+01
   4.006199e+01   2.325543e+01
   4.093023e+01  -2.081038e+01
   7.407311e+00  -2.416143e+01
   4.994739e+01   1.030966e+01
   1.878280e+01   9.749093e+01
   1.952976e+01   1.038368e+02
  -1.205439e+00  -8.179015e+00
  -1.260291e+02  -4.701142e+01
  -1.328714e+02  -6.942852e+01
  -2.635476e+01   6.703113e+00
   4.630245e+01  -1.524274e+01
   7.704544e+01  -2.038716e+01
  -7.903346e+00   3.058449e+01
  -4.879639e+01   1.740753e+01
   1.765901e+01  -3.380426e+00
   1.454227e+01   1.106802e+01
   4.785471e+00   4.120355e+00
  -4.790888e+01   1.019522e+01
  -7.338620e+01  -3.735074e+00
   1.963323e+01  -9.599555e+01
   1.132603e+02  -1.403184e+02
   1.956232e+02  -7.614929e+01
   1.425413e+02   6.104786e+01
   3.707163e+01   1.557211e+02
  -8.307864e+01   1.276598e+02
  -1.098796e+02   8.367516e+01
  -7.604916e+01  -7.709499e+01
  -3.848091e+01  -6.304743e+01
  -3.397693e+01   1.853179e+00
  -3.502964e+00  -2.549334e+01
  -9.695246e+01  -8.100010e+01
  -1.842192e+01  -6.409457e+01
   4.661415e+01  -6.285900e+01
   9.029679e+01   3.132914e+01
   7.552249e+01   8.949552e+01
   3.037142e+01   1.279528e+02
  -7.052176e+01   2.613592e+01
  -9.806583e+01  -3.525825e+01
  -1.536386e+01  -1.182610e+02
   9.171869e+01  -5.533562e+01
   1.244825e+02  -1.201419e+01
   9.056927e+00   5.255621e+01
  -5.059042e+01   8.014437e+01
  -4.722011e+01   4.996415e+00
   5.106267e+01   1.134348e+01
   7.987406e+01  -1.458380e+01
   4.412453e+01   1.733116e+01
  -9.423107e+01   7.128944e+01
  -1.091797e+02   7.134082e+01
  -8.467178e+01  -1.671993e+01
  -6.918199e-01  -1.014197e+02
   3.458864e+01  -7.601277e+01
   5.877915e+00   3.287238e+01
   4.048441e+00   8.260539e+01
  -4.477688e+01   8.468299e+01
  -6.223959e+01  -3.397341e+01
  -2.678096e+01  -4.960129e+01
   1.710487e+01  -3.264529e+01
   4.346899e+01   3.635501e+01
   6.710196e+01   2.878768e+01
  -8.739353e+00   1.681072e+01
   3.371876e+01  -4.859400e+01
  -3.438784e+00   5.538841e+00
   9.288216e-02   2.626987e+01
  -4.400060e+01   2.751574e+01
  -2.006672e+01   5.047672e+00
  -4.061098e+00  -5.066082e+01
   1.123031e+01  -9.203146e+01
   7.346009e+01  -5.839685e+01
   9.135840e+01   3.075153e+01
   1.958325e+01   6.425334e+01
  -8.655809e+01   5.196832e+01
  -8.811205e+01  -2.422174e+01
  -4.850716e+01  -5.121055e+01
   6.129817e+01  -6.313784e+01
   1.242128e+02   4.317589e+00
   5.032777e+01  -3.394453e+01
   1.505498e+00   2.114007e+01
  -8.333102e+01  -4.340686e+01
   5.670556e+01  -5.363078e+01
   1.363131e+02  -2.006039e+01
