
 $NMID
 id='ANONYMOUS ', fmtdat='(2E16.6)'
 volume=1.0
 tramp=1.0
 $END
  -4.700732e+03   4.538565e+01
  -2.778834e+03  -3.003456e+03
   9.566199e+02  -3.008246e+03
   2.357429e+03  -9.622708e+02
   1.015399e+03   7.898777e+02
  -7.339050e+02   6.333248e+02
  -1.134244e+03  -5.117890e+02
  -1.353040e+01  -1.166043e+03
   9.221445e+02  -8.460430e+02
   1.021801e+03   1.657025e+02
   4.329219e+02   9.056281e+02
  -2.735945e+02   9.485453e+02
  -7.250973e+02   7.568151e+01
  -4.243852e+02  -7.386943e+02
   2.816474e+02  -7.794302e+02
   6.462672e+02   9.171088e+00
   2.818880e+02   7.476175e+02
  -3.438444e+02   6.809578e+02
  -6.299082e+02   5.142681e+01
  -4.069265e+02  -3.569142e+02
  -5.727183e+01  -4.818368e+02
   2.664636e+02  -2.627508e+02
   2.599166e+02  -5.764960e+00
  -1.280538e+02   1.133973e+02
  -4.659134e+02  -9.974190e+01
  -2.413911e+02  -4.760782e+02
   4.869223e+02  -4.641853e+02
   9.021584e+02   5.283295e+01
   4.544103e+02   5.905551e+02
  -4.302215e+02   5.421687e+02
  -8.594431e+02   7.823696e+00
  -3.561083e+02  -5.361537e+02
   3.302656e+02  -5.583584e+02
   6.096098e+02  -1.813738e+02
   4.678527e+02   2.837124e+02
   9.827317e+01   5.465384e+02
  -2.764205e+02   3.134979e+02
  -1.890516e+02  -2.414258e+02
   1.728920e+02  -4.996770e+02
   5.144731e+02   2.121132e+01
   3.248696e+02   7.328250e+02
  -3.667907e+02   7.876291e+02
  -6.807955e+02   1.080361e+01
  -3.133711e+02  -6.006775e+02
   3.311965e+02  -3.754295e+02
   4.030479e+02   3.303743e+02
  -1.203774e+01   5.978323e+02
  -5.669915e+02   1.540212e+02
  -6.528270e+02  -4.229769e+02
  -2.042230e+02  -6.127004e+02
   3.847726e+02  -3.793513e+02
   6.827016e+02   4.352584e+01
   3.807627e+02   4.330225e+02
  -2.019266e+02   3.557014e+02
  -4.406487e+02   5.581814e+01
  -2.002907e+02  -2.451316e+02
   1.383854e+02  -1.493025e+02
   1.549734e+02   1.833279e+02
  -1.540244e+02   2.251325e+02
  -3.600404e+02  -8.015360e+01
  -1.871359e+02  -2.915181e+02
   2.144559e+02  -2.866815e+02
   3.013727e+02  -6.862480e+01
   1.839658e+02   7.890341e+01
   1.316896e+01   2.259109e+02
  -2.201927e+02   3.496327e+02
  -2.996633e+02   2.688313e+02
  -2.903788e+02  -1.319817e+02
  -9.165846e+01  -4.800683e+02
   1.081271e+02  -3.730235e+02
   1.389698e+02  -1.110712e+02
   3.143430e+01  -1.984009e+01
   9.568344e+00  -7.415751e+01
   2.179809e+02  -1.471119e+02
   3.019712e+02   5.039612e+01
   1.634239e+02   2.667291e+02
  -7.318647e+01   2.576408e+02
  -2.568760e+02   1.518434e+01
  -2.239932e+02  -2.350327e+02
   1.351904e+01  -3.136803e+02
   2.748282e+02  -1.717680e+02
   4.131935e+02   1.667100e+02
   1.831009e+02   3.851917e+02
  -1.205081e+02   3.337093e+02
  -2.286810e+02   1.521998e+02
  -2.010669e+02  -9.105456e+00
  -1.096061e+02  -3.988166e+00
  -2.440299e+02   4.303330e+01
  -3.785883e+02  -4.535224e+01
  -3.050620e+02  -2.588123e+02
  -3.578251e+01  -3.990383e+02
   3.469587e+02  -4.084703e+02
   4.861372e+02  -2.103340e+02
   3.475452e+02   8.362787e+01
   9.041073e+01   2.949725e+02
  -1.158273e+02   2.972302e+02
  -9.317234e+01   5.910360e+01
   1.181271e+02  -1.145262e+02
   2.206322e+02  -4.279930e+00
   4.904133e+01   2.288598e+02
  -1.748586e+02   1.992326e+02
  -2.096037e+02  -4.665721e+01
  -1.016039e+01  -1.946145e+02
   2.222925e+02  -4.495032e+01
   1.287891e+02   2.455399e+02
  -2.462797e+01   3.720934e+02
  -2.110775e+02   2.040899e+02
  -3.683705e+02  -5.462459e+01
  -3.227872e+02  -2.351850e+02
  -1.140157e+02  -2.920105e+02
   1.042718e+02  -2.044273e+02
   1.688704e+02   7.963084e+00
   5.104848e+01   7.748549e+01
  -1.128830e+02  -2.293709e+01
  -5.372482e+01  -1.028890e+02
   1.160154e+02  -7.048799e+01
   2.255186e+02   4.531897e+01
   5.494717e+01   5.743184e+01
  -8.788473e+01   4.306830e+01
  -5.579525e+01  -1.116290e+02
   1.438538e+02  -1.037411e+02
   2.930765e+02  -7.400256e+00
   2.265731e+02   1.197315e+02
   9.290621e+01   2.306799e+02
  -1.884893e+02   2.957250e+02
  -2.665956e+02   1.789609e+02
  -2.133780e+02  -5.823589e+01
   1.023415e+01  -1.177706e+02
   1.042007e+02   2.946485e+01
  -2.102255e+01   1.127127e+02
  -2.235297e+02   4.799442e+01
  -2.130679e+02  -6.805019e+01
  -9.552098e+01  -1.964524e+02
   1.143597e+02  -1.823604e+02
   1.563664e+02  -1.396506e+01
   5.278123e+01   4.569495e+01
  -2.918151e+01   1.908852e+01
  -6.352687e+00  -7.489758e+01
   6.164313e+01  -1.068315e+02
   1.661433e+02  -6.686652e+01
   2.250337e+02   1.148740e+02
   3.402136e+01   2.058908e+02
  -1.331305e+02   1.863961e+02
  -1.787234e+02  -3.743223e+00
  -1.215507e+02  -1.443606e+02
   1.067275e+02  -1.435252e+02
   8.812726e+01  -1.390540e+01
   4.981316e+01   3.785594e+01
  -1.584011e+01  -5.670160e-01
   1.825858e+01   8.239157e+00
   3.941575e+01   3.769284e+01
   6.868294e+01   6.571540e+01
   3.030266e+01   1.833755e+02
  -1.167964e+02   1.494346e+02
  -2.738938e+02   5.464454e+01
  -1.992667e+02  -1.261056e+02
  -4.820227e+01  -2.436957e+02
   1.348763e+02  -1.579190e+02
   1.550008e+02  -5.469596e+01
   1.045286e+02   8.883231e+01
   4.936924e+01   4.158853e+01
   7.024360e+01  -2.400930e+01
   1.031877e+02  -3.063080e+01
   7.730572e+01   6.074722e+01
  -5.501965e+01   1.061958e+02
  -6.292905e+01   5.612919e+01
  -5.600104e+01  -5.462664e+01
   4.023962e+01  -8.249584e+01
   1.381480e+02  -9.073577e+01
   1.800500e+02   5.411818e+01
   1.189611e+02   1.824810e+02
  -8.662092e+01   2.601525e+02
  -2.698975e+02   1.061562e+02
  -2.352893e+02  -1.143522e+02
  -1.038437e+02  -1.760592e+02
   4.555627e+01  -1.564346e+02
   9.108716e+01  -8.460862e+01
   7.563501e+01  -3.925158e+01
   3.182184e+01  -1.088614e+02
   9.896835e+01  -7.904045e+01
   1.445384e+02   3.040221e+01
   9.927230e+01   1.295250e+02
   2.175216e+01   2.135163e+02
  -9.223162e+01   2.025550e+02
  -2.015637e+02   5.273624e+01
  -1.405555e+02  -8.401965e+01
  -2.136542e+01  -1.737763e+02
   7.343622e+01  -8.814708e+01
   6.712649e+01   3.232988e+00
  -2.368636e+01   7.061992e+01
  -9.632888e+00   4.279734e+01
   1.884923e+01  -2.576080e+01
   8.924814e+01  -1.121327e+01
   5.868130e+01   1.545386e+01
  -3.639951e+01   4.893248e+01
  -1.445660e+02  -3.805467e+01
  -1.288108e+02  -1.975082e+01
  -3.472668e+01  -6.769909e+01
   1.057948e+02  -9.901462e+01
   1.509447e+02  -3.411337e+01
   3.656571e+01   6.320300e+00
  -8.063435e+01   5.094220e+01
  -6.074002e+01  -2.659252e+01
  -9.532361e+00  -5.175821e+01
   6.048798e+01  -6.146532e+01
   3.698215e+01   6.294299e+00
   6.682882e+01   4.925287e+01
   4.104249e+01   6.240555e+01
   7.947975e+01   8.539161e+00
   4.592445e+01  -6.877121e+00
  -4.091543e+00   7.572167e+01
  -2.283997e+01   1.390243e+02
  -1.188660e+02   1.538601e+02
  -1.705346e+02  -5.425331e+00
  -1.533982e+02  -9.762139e+01
   1.108503e+01  -9.983172e+01
   9.642748e+01  -4.553529e+01
   6.394716e+01   1.685917e+01
  -9.393253e+01   6.533238e+00
  -1.258930e+02  -2.414866e+01
  -6.439874e+01  -6.618867e+01
   1.044989e+02  -1.483772e+02
   1.824981e+02  -8.738365e+01
   1.560885e+02   8.548771e+00
   6.897689e+01   1.283656e+02
  -6.097249e+01   5.864656e+01
  -5.560402e+01   2.083067e+01
   5.293337e+01  -7.281965e+00
   1.282015e+02   4.599743e+01
   4.954425e+01   1.372641e+02
  -7.236908e+01   1.478334e+02
  -1.536502e+02   4.913145e+01
  -1.327646e+02  -8.964622e+01
  -2.001628e+01  -1.975805e+02
   3.332562e+01  -1.961258e+02
   8.571617e+01   3.674640e+00
   6.916553e+01   1.039652e+02
  -5.116854e+00   7.507316e+01
  -2.872993e+01   1.086307e+01
  -6.297174e+01  -5.341407e+01
  -4.498506e+00   7.030895e+00
  -1.488118e+01   3.211993e+01
  -1.440035e+01  -1.295682e+01
  -2.679569e+01  -9.687835e+01
  -4.597060e+01  -8.867527e+01
   4.388928e+01  -1.708428e+01
   1.152295e+02   3.549868e+01
   9.536462e+01   9.131672e+01
   3.121862e+01   1.787583e+01
  -1.403516e+02   3.529604e+01
  -7.681066e+01   1.865876e+01
   2.241217e+01  -4.982709e+01
   1.215174e+01  -2.254891e+00
   1.888163e+01   1.399120e+01
  -2.052508e+01  -1.118714e+01
  -1.021220e+01   1.252689e+01
   9.499839e+01   1.343540e+01
   6.222899e+01   1.227629e+01
  -1.095862e+01   8.282253e+01
  -1.455549e+02   1.211263e+02
  -1.709554e+02   8.248865e+01
  -1.612299e+02  -7.605742e+01
  -3.268817e+01  -1.700557e+02
   7.826508e+01  -1.261132e+02
   9.473121e+01  -5.300847e+01
   5.689812e+01   4.192260e+01
   1.474581e+01   6.432057e+00
  -1.851607e+01   7.580375e+00
   2.915293e+01  -1.092147e+01
  -1.975373e+01   6.255442e+01
   2.507226e+01   1.072414e+02
  -1.180894e+01   7.835019e+01
  -7.486148e+01  -3.601273e+01
  -6.214664e+01  -1.167458e+02
   3.717799e+01  -7.429866e+01
   4.928118e+01  -3.457883e+01
   1.245977e+02   8.742830e+01
   6.476207e+01   8.409161e+01
  -7.855935e+01   8.360596e+01
  -8.687130e+01  -1.843367e+01
  -2.613927e+01  -5.009372e+01
   4.393167e+01  -6.903114e+01
   2.492575e+01  -1.691837e+01
  -1.567868e+01  -2.020589e+01
  -9.148563e+01   1.639649e+01
  -1.037117e+01  -3.361996e+01
   7.783984e+01  -6.891543e+01
   8.144507e+01  -6.533498e+01
   5.880785e+01  -1.025340e+01
  -3.186682e+01   1.047824e+02
  -7.421937e+01   6.693825e+01
  -2.432735e+01  -2.116951e+01
  -2.350160e+01  -6.543374e+01
   4.314600e+01  -6.494477e+01
   6.090435e+01   7.123038e+00
   5.383948e+01   8.054150e+01
  -6.246688e+01   5.177877e+01
  -6.653101e+00   7.146917e+00
  -5.152938e+00  -3.594976e+01
  -7.133163e+00   8.165693e+00
   2.315016e+01   2.194255e+01
   6.202152e+00  -2.504768e+01
   1.500711e+01  -2.983436e+01
   1.740799e+01  -6.993080e+01
  -3.624540e+00  -1.484007e+01
   3.891390e+01   2.121104e+01
   1.789915e+01   7.731629e+01
  -7.165705e+01   7.781906e+00
  -2.544190e+01  -6.191137e+01
  -2.227609e+01  -8.381405e+01
   8.649176e+01  -2.985417e+01
   8.824344e+01   2.098205e+01
   1.892813e+01   3.785050e+01
  -4.998266e+01   7.918085e+01
  -7.477243e+01   2.912443e+01
  -3.539683e+01  -2.470081e+01
   5.798569e+01   1.011212e+01
   1.743895e+00   2.168191e+01
  -3.607380e+01   3.226784e+01
  -7.834124e+01   6.624012e+01
