
 $NMID
 id='ANONYMOUS ', fmtdat='(2E16.6)'
 volume=1.0
 tramp=1.0
 $END
  -4.452027e+03   1.974365e+02
  -2.634446e+03  -2.897979e+03
   9.035439e+02  -2.968751e+03
   2.172893e+03  -9.699210e+02
   9.495581e+02   8.014394e+02
  -6.901938e+02   6.056657e+02
  -1.007724e+03  -4.648280e+02
  -4.762866e+01  -1.044153e+03
   8.820480e+02  -7.596118e+02
   9.834365e+02   1.312250e+02
   4.430694e+02   8.779536e+02
  -2.474360e+02   8.655039e+02
  -6.927974e+02   1.175059e+02
  -4.144409e+02  -7.234439e+02
   3.155097e+02  -7.523047e+02
   6.692441e+02   3.057404e+01
   3.123526e+02   7.206930e+02
  -3.167086e+02   6.016299e+02
  -6.189689e+02   9.302762e+01
  -3.822064e+02  -3.628497e+02
  -2.089494e+00  -4.606434e+02
   2.230971e+02  -2.499548e+02
   2.142862e+02  -5.135804e+01
  -8.886010e+01   1.150599e+02
  -3.547637e+02  -8.415061e+01
  -2.166044e+02  -3.928654e+02
   4.617134e+02  -4.872687e+02
   8.736077e+02   5.663289e+01
   4.741836e+02   5.857621e+02
  -3.477265e+02   5.604449e+02
  -7.589523e+02  -2.709586e+01
  -4.109652e+02  -4.672609e+02
   2.486708e+02  -5.209769e+02
   5.666081e+02  -2.814977e+02
   4.326421e+02   2.535655e+02
   9.348891e+01   4.047355e+02
  -2.281153e+02   3.203236e+02
  -1.970002e+02  -2.128820e+02
   1.218339e+02  -4.949904e+02
   5.072933e+02   3.831793e+00
   2.670742e+02   6.596871e+02
  -3.060220e+02   7.267834e+02
  -6.046303e+02   7.131465e+00
  -2.928928e+02  -5.721113e+02
   2.949862e+02  -3.528204e+02
   3.943342e+02   3.078285e+02
  -2.091098e+01   5.194723e+02
  -5.644475e+02   1.766303e+02
  -5.743546e+02  -4.066423e+02
  -1.536883e+02  -5.734967e+02
   3.817922e+02  -3.469560e+02
   6.758168e+02   4.756702e+01
   3.785142e+02   3.787303e+02
  -1.736694e+02   3.492219e+02
  -4.323759e+02   4.187586e+01
  -2.325659e+02  -2.297989e+02
   1.217706e+02  -1.333895e+02
   1.428169e+02   1.877523e+02
  -1.708220e+02   1.886482e+02
  -3.431929e+02  -4.639659e+01
  -1.241326e+02  -3.139429e+02
   2.093603e+02  -3.077835e+02
   3.142986e+02  -4.369916e+01
   1.634494e+02   4.268679e+01
  -1.131230e+01   2.196928e+02
  -2.159428e+02   2.383317e+02
  -3.025236e+02   2.370754e+02
  -2.557389e+02  -1.306220e+02
  -1.053980e+02  -4.414810e+02
   8.552975e+01  -3.574243e+02
   1.328155e+02  -9.993238e+01
   6.165840e+01  -2.025327e+01
   3.468214e+01  -7.652307e+01
   1.795051e+02  -1.142482e+02
   2.914936e+02  -1.265107e+01
   1.560419e+02   2.687235e+02
  -4.477758e+01   2.719171e+02
  -2.354541e+02   4.016989e+01
  -2.138362e+02  -2.231950e+02
   5.762329e+00  -2.830245e+02
   2.511481e+02  -1.308521e+02
   3.759433e+02   1.429609e+02
   1.944191e+02   3.576393e+02
  -7.628663e+01   2.885754e+02
  -2.472363e+02   1.438295e+02
  -1.563838e+02   4.245396e+00
  -8.084423e+01   4.897705e+01
  -2.252631e+02   8.322897e+01
  -3.923545e+02  -5.229245e+01
  -3.268741e+02  -2.591148e+02
   2.898863e+01  -4.340821e+02
   3.414302e+02  -4.072251e+02
   4.791401e+02  -2.028743e+02
   3.800431e+02   9.644022e+01
   4.140781e+01   2.934920e+02
  -9.401285e+01   2.482297e+02
  -6.834246e+01   3.448661e+01
   8.616675e+01  -1.320649e+02
   2.138555e+02  -2.571968e+01
   3.529593e+01   2.182946e+02
  -1.619047e+02   1.627322e+02
  -1.674290e+02  -8.865703e+01
   2.186665e+01  -1.582492e+02
   2.156019e+02  -7.826444e+01
   1.621466e+02   2.457934e+02
  -2.437036e+01   3.519278e+02
  -2.163227e+02   1.883690e+02
  -3.249180e+02  -8.753087e+01
  -2.663880e+02  -2.108023e+02
  -9.885181e+01  -2.465899e+02
   7.377531e+01  -1.131432e+02
   1.731705e+02  -6.750449e+00
   4.460705e+01   4.222621e+01
  -9.391103e+01  -6.215690e+01
  -4.379024e+01  -1.069186e+02
   8.889618e+01  -7.198664e+01
   1.694306e+02   3.988090e+01
   5.439688e+01   6.586618e+01
  -5.266219e+01   1.604638e+01
  -4.570187e+01  -7.486977e+01
   1.053143e+02  -6.060178e+01
   2.869213e+02  -5.600389e+00
   2.279287e+02   1.198272e+02
   8.257856e+01   2.274264e+02
  -2.005470e+02   2.578774e+02
  -2.419874e+02   1.532902e+02
  -1.538313e+02  -7.075016e+01
   5.647080e+01  -1.173931e+02
   7.815291e+01  -1.449699e+01
  -2.636620e+01   1.007915e+02
  -1.682175e+02   6.899281e+01
  -2.156059e+02  -8.214890e+01
  -1.201426e+02  -2.027335e+02
   9.430751e+01  -1.152280e+02
   1.014395e+02  -8.113979e+00
   7.655053e+01   6.157204e+01
  -1.521003e+01  -9.942361e+00
  -4.372115e+01  -3.680680e+01
   9.285950e+01  -9.296104e+01
   1.774439e+02  -4.702409e+01
   1.784243e+02   1.264874e+02
   1.846271e+01   2.488321e+02
  -1.464195e+02   1.498680e+02
  -1.945299e+02   3.480797e+01
  -7.329414e+01  -1.298610e+02
   5.331821e+01  -1.130228e+02
   6.322909e+01  -3.265305e+01
   2.834523e+01   3.533094e+01
  -6.913977e+00   9.870806e+00
   1.823679e+01  -7.507029e+00
   5.403861e+01   1.716769e+01
   9.823467e+01   6.698069e+01
  -1.700394e+01   1.704602e+02
  -1.240809e+02   1.222518e+02
  -2.175954e+02   4.207754e+01
  -1.909873e+02  -1.596836e+02
  -3.061093e+01  -2.298906e+02
   9.939377e+01  -1.257711e+02
   1.733986e+02  -3.303844e+01
   5.628405e+01   6.579916e+01
   1.684199e+01   8.114765e+01
   5.242241e+01  -4.280133e+01
   1.058432e+02   1.642102e+01
   4.847296e+01   6.691534e+01
  -3.213546e+01   1.190365e+02
  -1.127439e+02   1.950429e+01
  -7.089325e+01  -7.551042e+01
   1.900394e+01  -8.854746e+01
   1.137309e+02  -9.528957e+01
   2.122541e+02   4.484631e+01
   1.117298e+02   2.153649e+02
  -1.216971e+02   2.066447e+02
  -2.748291e+02   9.235892e+01
  -2.694370e+02  -1.008144e+02
  -1.349968e+02  -1.636242e+02
   4.667366e+01  -1.407223e+02
   1.152873e+02  -1.222942e+02
   9.357153e+01  -9.401279e+01
   6.759726e+01  -8.269949e+01
   5.999516e+01  -9.933902e+01
   1.051738e+02  -3.003878e+00
   1.100401e+02   1.001483e+02
   4.513028e+01   2.097822e+02
  -1.133571e+02   1.413710e+02
  -1.944843e+02   1.501456e+01
  -1.336269e+02  -1.093973e+02
  -5.251036e+01  -1.477985e+02
   4.584524e+01  -7.117473e+01
   4.747575e+01   4.718227e-01
   3.536740e+01   3.290331e+01
   3.082033e+01   3.340274e+01
   1.947305e+01  -2.158792e+01
   7.128694e+01   2.077214e+01
   2.602474e+01   1.047806e+01
  -5.218059e+01   5.590691e+01
  -1.373205e+02   5.859586e+00
  -1.494259e+02  -5.239726e+01
  -6.053921e+00  -7.976931e+01
   1.328244e+02  -9.958386e+01
   1.755188e+02   1.872133e+01
   8.821160e+01   2.359220e+01
  -7.109231e+01   5.114594e+01
  -1.284423e+02  -3.192102e+01
  -1.156908e+00  -4.904859e+01
   8.032767e+01  -6.849702e+01
   7.839837e+01  -3.153539e+00
   5.555497e+01   5.355232e+01
   5.491768e+01   7.218062e+00
   6.168087e+01   1.507013e+01
   6.201298e+01  -5.276403e+00
   6.904582e+01   7.101827e+01
  -2.817034e+00   1.152976e+02
  -1.143543e+02   1.732063e+02
  -1.520364e+02   3.638480e+01
  -1.160809e+02  -1.178418e+02
  -1.635369e+00  -1.079289e+02
   1.048573e+02  -6.258678e+01
   6.628947e+01  -2.403517e+00
  -4.934470e+01   2.283923e+01
  -1.234606e+02  -6.490116e+01
  -5.105650e+01  -9.649941e+01
   8.169546e+01  -1.204671e+02
   1.992730e+02  -1.615906e+01
   1.509031e+02   2.800135e+01
   3.481239e+01   5.791418e+01
  -7.228330e+01   3.674761e+01
  -3.767838e+01   1.125471e+01
   1.934464e+00  -1.430626e+01
   7.897246e+01   3.475843e+01
   2.610053e+01   8.909538e+01
  -8.678843e+01   1.476510e+02
  -1.713959e+02   5.700589e+01
  -1.397195e+02  -1.060056e+02
   1.563312e+00  -2.214342e+02
   6.948053e+01  -1.425287e+02
   8.370168e+01   4.230996e+01
   5.829575e+01   1.303364e+02
   1.423666e+01   1.065040e+02
  -3.783512e+01  -1.679828e+00
  -5.160983e+01  -3.337228e+01
  -2.553984e+01  -1.932494e+01
   3.722315e+00   2.152076e+01
  -4.805386e+01   1.079641e+01
  -3.220265e+01  -6.657967e+01
  -1.306274e+01  -1.006749e+02
   5.115057e+01  -3.121890e+01
   8.708352e+01   4.893043e+01
   9.765638e+01   7.307051e+01
   2.981994e+01   2.059387e+01
  -1.030544e+02   4.995437e+00
  -5.480026e+01  -5.656640e+00
  -2.270219e+01   2.680687e+01
   1.157804e+01  -1.586661e+01
   7.393349e+00  -4.361783e+01
  -3.779624e+01   1.079141e+01
   2.540966e+01   6.173328e+00
   2.528621e+01   3.097631e+01
   9.395228e+01   2.125758e+01
   1.255051e+01   9.359052e+01
  -1.393730e+02   1.610190e+02
  -1.848161e+02   6.913319e+01
  -1.308465e+02  -7.301808e+01
  -1.796077e+01  -1.561873e+02
   3.640684e+01  -7.086769e+01
   9.900631e+01  -6.955697e+01
   6.935041e+01   2.855294e+01
   8.213179e-01   1.705893e+01
   2.304870e+00   2.104126e+01
   2.036095e+01  -3.170242e+01
   2.125086e+01   2.018669e+01
   1.227753e+01   8.447525e+01
  -2.815224e+01   7.798923e+01
  -5.900194e+01  -5.355738e+01
  -7.889928e+01  -9.121860e+01
  -3.179345e+01  -9.496390e+01
   1.177516e+02  -6.039649e-01
   1.269031e+02   4.154370e+01
   4.075104e+01   1.152509e+02
  -8.151644e+01   5.376156e+01
  -7.357374e+01  -3.381294e+01
  -1.851033e+01  -6.088549e+01
   6.779693e+01  -6.895974e+01
   4.528084e+01   1.020957e+01
  -2.582421e+01   5.258524e+00
  -6.963067e+01  -3.000169e+00
   8.061245e+00  -3.203109e+01
   3.978505e+01  -9.755922e+01
   5.713295e+01  -6.142663e+01
   8.894699e+01  -1.308930e+01
  -1.734869e+01   1.096594e+02
  -3.704972e+01   8.288447e+01
  -1.998797e+01  -2.323070e+01
  -1.698947e+01  -5.574562e+01
   5.664161e+01  -4.204391e+01
   4.633997e+01  -6.283394e+00
   2.953991e+00   6.085166e+01
   1.107108e+01   5.373103e+00
  -1.395410e+01  -1.423276e+01
  -6.374060e+01  -4.061756e+01
   1.544848e+01   3.256426e+01
  -1.175685e+01   2.181539e+01
   1.072347e+01   5.143191e+00
  -3.637164e-01   1.762825e+01
   2.257237e+00  -4.283623e+01
   2.087858e+01   1.542114e+01
   3.821845e+01   1.807212e+01
   1.285869e+01   7.679336e+01
  -3.825866e+01   1.823265e+01
  -5.863925e+01  -3.758185e+01
  -3.518598e+01  -6.288754e+01
   9.758113e+01  -5.965616e+00
   9.061724e+01   2.104790e-01
   5.285571e+01   3.235954e+01
  -3.222400e+01   3.547299e+01
  -4.882305e+01   4.378126e+01
  -6.380726e+01   1.104258e+00
   3.212838e+01  -1.595092e+01
   4.975341e+01   5.233915e+01
  -4.226727e+01   2.441192e+01
  -9.188603e+01   1.631212e+01
