
 $NMID
 id='ANONYMOUS ', fmtdat='(2E16.6)'
 volume=1.0
 tramp=1.0
 $END
   3.234426e+03   1.907282e+02
   1.814378e+03   1.886537e+03
  -6.576564e+02   1.949336e+03
  -1.606014e+03   5.525400e+02
  -7.455132e+02  -5.453117e+02
   4.979995e+02  -3.821561e+02
   6.159048e+02   3.204453e+02
  -7.496423e+01   7.765113e+02
  -5.958985e+02   5.660027e+02
  -6.928021e+02  -1.013072e+02
  -3.061653e+02  -5.956143e+02
   1.490483e+02  -6.668592e+02
   4.537128e+02  -4.211304e+01
   2.575737e+02   5.220753e+02
  -2.547536e+02   5.212463e+02
  -4.343496e+02  -1.233164e+01
  -1.375833e+02  -4.657069e+02
   2.509691e+02  -4.549138e+02
   4.720128e+02  -2.248022e+01
   2.806143e+02   3.156707e+02
   2.008273e+01   3.060322e+02
  -1.721692e+02   2.043100e+02
  -1.733307e+02   6.132688e+01
   8.109113e+01  -4.774711e+01
   3.337684e+02   9.602248e+01
   1.491121e+02   2.776756e+02
  -3.097113e+02   2.609170e+02
  -6.097278e+02  -7.137343e+01
  -3.387047e+02  -4.027257e+02
   3.024338e+02  -3.870678e+02
   5.349288e+02  -1.566920e+01
   2.793382e+02   3.546768e+02
  -1.727769e+02   3.166221e+02
  -4.420506e+02   1.607670e+02
  -3.221571e+02  -1.173150e+02
  -7.419089e+01  -3.270882e+02
   1.466030e+02  -2.355007e+02
   1.732493e+02   1.807155e+02
  -1.602845e+02   3.803885e+02
  -3.568955e+02  -9.515938e+00
  -2.181908e+02  -5.042213e+02
   2.605991e+02  -4.908217e+02
   4.227788e+02   9.937015e+00
   2.169325e+02   4.074045e+02
  -2.158070e+02   2.004669e+02
  -2.700125e+02  -2.488807e+02
   8.140015e+01  -4.274495e+02
   4.075017e+02  -6.081404e+01
   4.658961e+02   2.868886e+02
   1.320703e+02   4.702668e+02
  -2.248025e+02   2.462192e+02
  -4.504576e+02  -7.453212e+01
  -2.673203e+02  -2.370870e+02
   9.067747e+01  -2.513226e+02
   3.173796e+02  -6.211858e+01
   1.876131e+02   1.404979e+02
  -7.372482e+01   8.554730e+01
  -1.141886e+02  -1.097487e+02
   1.249535e+02  -1.422536e+02
   2.419074e+02   7.859087e+01
   5.264574e+01   1.686812e+02
  -1.736768e+02   1.907228e+02
  -2.389917e+02   3.377613e+01
  -1.272832e+02  -6.058394e+01
   9.448804e+00  -1.416136e+02
   1.185230e+02  -2.013594e+02
   2.282002e+02  -2.094209e+02
   2.402658e+02   7.257556e+01
   9.554899e+01   3.958620e+02
  -9.035261e+01   2.780299e+02
  -8.415041e+01   9.777657e+01
  -2.615597e+01   2.721653e+01
  -1.367296e+01   5.475534e+01
  -1.314475e+02   8.406227e+01
  -2.271475e+02  -5.176719e+01
  -8.751623e+01  -1.628781e+02
   3.685218e+01  -2.154353e+02
   1.642495e+02  -3.341014e+01
   1.122665e+02   1.522898e+02
  -8.224512e+00   2.181800e+02
  -1.898329e+02   7.470993e+01
  -2.631245e+02  -1.464154e+02
  -1.604559e+02  -2.493770e+02
   8.492909e+01  -1.788062e+02
   1.280044e+02  -1.195948e+02
   9.358732e+01   5.904767e+01
   5.552591e+01  -4.345659e+01
   1.942288e+02  -2.428004e+01
   3.108852e+02   8.653682e+01
   2.511763e+02   1.993189e+02
  -1.710728e+00   3.473833e+02
  -2.915827e+02   2.890791e+02
  -3.879726e+02   1.532789e+02
  -2.327886e+02  -6.346400e+01
  -3.868405e+01  -1.866744e+02
   1.003395e+02  -1.711657e+02
   7.975608e+01  -3.224183e+01
  -1.288419e+02   9.187999e+01
  -1.508156e+02   2.183852e+00
  -4.567448e+01  -1.173869e+02
   1.266382e+02  -1.169389e+02
   1.271150e+02   4.551176e+01
  -1.125839e+01   1.265711e+02
  -1.272609e+02   2.444631e+01
  -1.040801e+02  -1.924807e+02
   3.571683e+01  -2.420146e+02
   1.730505e+02  -1.416259e+02
   2.140118e+02   4.216826e+01
   1.970576e+02   1.994014e+02
   7.083421e+01   1.409071e+02
  -1.022507e+02   1.449446e+02
  -1.398781e+02   5.793883e+01
  -8.296104e+01  -6.888191e+01
   4.043020e+01   5.996610e+01
   1.173331e+01   8.579836e+01
  -5.446770e+01   1.009533e+02
  -1.166969e+02  -1.852093e+01
  -7.970271e+01  -3.997380e+01
   2.119567e+01  -4.150622e+01
   3.051836e+01   5.128470e+01
  -9.352131e+01   6.846864e+01
  -2.034808e+02  -1.781207e+01
  -1.720638e+02  -1.285329e+02
  -6.322983e+01  -2.085427e+02
   1.255753e+02  -1.728359e+02
   1.744215e+02  -9.612942e+01
   1.533442e+02   3.315583e+01
  -1.197269e+01   6.025851e+01
  -5.357618e+01   4.104769e+01
  -1.403364e+01  -4.257380e+01
   1.377244e+02  -3.264563e+01
   1.462563e+02   7.501056e+01
   8.817498e-01   1.457982e+02
  -3.309039e+01   1.015291e+02
  -1.046671e+02   2.715088e+01
  -5.743709e+01  -1.921680e+01
   1.274513e+01   1.693201e+01
   1.356413e+01   6.769254e+01
  -7.512234e+01   1.102547e+02
  -1.213238e+02  -1.238359e+01
  -1.162283e+02  -8.340368e+01
  -3.898321e+01  -1.861294e+02
   1.482310e+02  -1.323208e+02
   1.558472e+02  -1.707227e+01
   6.140777e+01   7.927754e+01
  -3.509413e+01   6.442843e+01
  -2.918990e+01   6.192278e+01
   8.488866e+00  -2.473335e+01
  -3.379495e+01   2.717476e+01
  -2.818040e+01   1.191030e+01
  -1.023061e+02   1.060692e+01
  -3.811805e+01  -9.434375e+01
  -2.718073e+01  -1.391293e+02
   1.482376e+02  -7.796403e+01
   1.749835e+02  -3.598793e+01
   1.299068e+02   1.039956e+02
   3.551975e+01   1.794333e+02
  -6.802020e+01   1.353747e+02
  -1.046904e+02   3.197352e+01
  -4.543510e+01  -2.612391e+01
  -5.211974e+01  -6.826677e+01
  -7.990417e+01   1.205138e+01
  -4.840920e+01   1.390452e+00
  -8.180254e+00  -4.688883e+01
   7.922679e+01  -7.889624e+01
   1.232649e+02  -3.595532e+01
   7.219397e+01   3.767016e+01
  -5.256737e+00   5.374305e+01
  -7.481775e+01   4.818197e+01
  -1.216187e+02  -4.312139e+01
  -7.170349e+01  -1.212682e+02
   1.094114e+02  -1.860910e+02
   1.873492e+02  -5.755430e+01
   2.113073e+02   7.210926e+01
   5.691286e+01   1.577306e+02
  -3.025807e+01   1.143059e+02
  -9.525032e+01   4.255483e+01
  -9.937093e+01   5.109021e+01
  -6.643151e+01   7.849661e+01
  -5.372507e+01   4.117137e+01
  -7.651897e+01  -2.130518e+01
  -1.077614e+02  -9.949981e+01
  -4.853831e+00  -1.755086e+02
   6.373836e+01  -1.461088e+02
   1.633932e+02  -6.077039e+01
   1.027212e+02   8.182286e+01
  -2.616749e+00   1.060304e+02
  -3.282558e+01   6.982976e+01
  -2.782140e+01  -5.295982e+00
  -1.522214e+01  -7.172305e+01
   1.618250e+01  -3.497923e+01
  -5.432531e+01   7.326675e+00
  -2.943460e+01  -2.658662e+01
  -2.459574e+01  -4.106076e+01
   4.330001e+01  -7.109067e+00
   9.391233e+01   9.179347e+00
   7.680169e+01   4.373866e+01
   2.014785e+00   7.881361e+01
  -5.145014e+01   5.767019e+01
  -1.123815e+02   2.028939e+01
  -2.572168e+00  -3.134336e+01
   4.931632e+01  -2.838811e+01
   8.398769e+01   4.915426e+01
   5.389669e+01   1.115238e+02
  -5.540220e+01   3.855740e+01
  -5.262959e+01   2.553224e+01
  -3.631125e+01  -7.666494e+00
  -4.777463e+01  -3.981170e+01
  -7.272657e+01  -1.282293e+01
  -2.805356e+00  -1.225931e+01
  -1.505634e+01  -1.797687e+01
   6.407942e+00  -7.899274e+01
   8.278180e+01  -1.126263e+02
   1.396742e+02  -8.101405e+01
   7.547075e+01   6.714069e+01
   4.329735e+01   9.809973e+01
  -4.984700e+01   4.311367e+01
  -5.232206e+01  -1.004831e+01
   6.530998e+01  -4.746062e+00
   1.044947e+02   5.274588e+01
   5.813050e+01   5.723315e+01
  -4.581458e+01   6.657751e+01
  -1.364357e+02   2.066854e+01
  -1.289118e+02  -2.281970e+01
  -3.086047e+01  -7.836442e+01
   3.819037e+01  -1.832715e+01
   6.171611e+01   1.558476e+01
  -3.524715e+01   1.777650e+01
  -3.216227e+01  -1.386993e+01
  -2.558275e+01  -1.124183e+02
   8.277214e+01  -9.339071e+01
   1.326779e+02  -5.940728e+01
   4.090257e+01   9.985625e+01
   3.592608e+01   1.572734e+02
  -3.222804e+01   1.180582e+02
  -8.220804e+01   5.747125e+01
  -2.242092e+01  -4.602516e+01
  -2.290671e+01  -1.183919e+02
   3.973630e+01  -1.175935e+01
   2.183459e+01   3.761207e+01
   1.688955e+00   1.830735e+00
   6.590534e+01  -2.377390e+01
   1.278480e+01  -1.868196e+01
   4.050196e+01   3.862551e+01
   6.188171e+00   9.767571e+01
  -6.079129e+01  -1.483488e+00
  -1.369318e+02  -7.483242e-01
  -1.191944e+02  -9.380956e+01
  -4.105548e+01  -2.303930e+01
   6.142477e+01   6.469408e+00
   4.730689e+01  -9.342919e+00
   1.120544e+01  -1.085324e+01
   2.824676e-01   1.112920e+01
  -2.965596e+01   5.751525e+01
   6.599139e+01   7.548311e+01
  -3.849507e+01  -1.971502e+00
  -4.407596e+01   2.928582e+01
  -7.418169e+01  -2.691859e+01
   2.899274e+01  -7.245879e+00
   4.999992e+01  -4.338485e+01
   1.560494e+02  -5.762698e+01
   9.172844e+01   5.053139e+01
   3.201178e+01   1.139871e+02
  -7.557776e+01   1.264417e+02
  -1.339057e+02   4.307838e+01
  -8.534495e+01   1.099652e+01
  -1.110232e+00  -3.319466e+01
   3.337472e+01  -4.505392e+01
   5.354897e+00   1.810493e+01
  -2.310973e+01  -3.827120e+01
   1.618242e+01  -6.872870e+01
   4.514990e+01  -6.471228e+01
   6.833786e+01  -2.927619e+01
   3.100951e+01   6.087859e+01
   2.132992e+01   7.452137e+01
  -6.562732e+01   1.843811e+00
  -3.027868e+01  -3.155463e+01
  -3.432531e+01  -5.091252e+01
   1.056356e+02  -5.298698e+01
   6.910662e+01   1.857190e+01
   3.192885e+01   5.154426e+01
  -6.342393e+01   2.502945e+01
  -2.425700e+01   4.182662e+01
   2.855768e+01   4.634321e+00
   3.566485e+01   2.100399e+01
  -1.706178e+01   1.371021e+01
  -9.110202e+01   4.233239e+01
  -9.570162e+01   1.361828e+01
  -1.690542e+01   2.859033e+00
   2.074203e+01  -5.267913e+01
   8.639185e+01  -6.570615e+01
   3.117598e+01   1.706420e+00
   3.978440e+01   3.383875e+01
  -1.576104e+01   3.381784e+01
  -1.507804e+01  -1.883141e+01
  -2.709611e+01  -4.353215e+01
   8.995197e+00  -5.567021e+01
   3.573392e+01   7.073795e+00
   4.594338e+01  -8.221340e+00
   2.468353e+01  -8.936713e+00
  -2.282198e+01  -1.524646e+01
  -1.211314e+01  -1.122627e+01
   2.134046e+01   2.985624e+01
  -1.011503e+01   8.106803e+01
  -4.005182e+01   2.266338e+01
  -4.579641e+01  -2.815553e+01
   1.358319e+01   7.588240e+00
   4.997580e+01  -1.048087e+00
   2.551215e+01   1.551677e+01
   7.295935e+00   1.040271e+01
  -4.000887e+01   2.080816e+01
  -4.129581e+01   1.127331e+01
   3.247776e+00  -2.894200e+01
   5.786292e+01  -1.052184e+01
   3.693699e+01  -4.498927e+00
   3.268304e+01   3.355975e+01
  -1.387006e+01  -8.035583e+00
  -6.541383e+00  -2.803006e+01
   3.476639e+01  -2.960162e+01
   6.716763e+01  -2.647452e+01
