
 $NMID
 id='ANONYMOUS ', fmtdat='(2E16.6)'
 volume=1.0
 tramp=1.0
 $END
   3.917622e+03   1.582724e+02
   2.222781e+03   2.307755e+03
  -7.309675e+02   2.465361e+03
  -1.991203e+03   8.306122e+02
  -8.570049e+02  -6.736052e+02
   5.909993e+02  -5.634660e+02
   8.321651e+02   4.349254e+02
  -4.885925e+01   1.043361e+03
  -7.709819e+02   7.118160e+02
  -8.333831e+02  -1.005526e+02
  -4.073181e+02  -8.308678e+02
   1.916073e+02  -8.549074e+02
   6.230723e+02  -5.359075e+01
   3.247558e+02   6.719291e+02
  -2.924334e+02   6.750953e+02
  -5.634845e+02  -6.996466e+01
  -2.300265e+02  -6.487765e+02
   3.160239e+02  -5.596485e+02
   5.639491e+02  -3.186054e+01
   3.580178e+02   3.134856e+02
   7.993180e+00   4.009234e+02
  -2.309290e+02   2.103564e+02
  -2.282818e+02  -1.499652e+01
   8.576017e+01  -9.355584e+01
   3.907285e+02   9.609513e+01
   1.944557e+02   3.351813e+02
  -3.691622e+02   3.958111e+02
  -7.139853e+02  -7.191749e+01
  -3.837658e+02  -5.515228e+02
   3.485954e+02  -4.408467e+02
   6.079601e+02   7.274527e+01
   2.915398e+02   4.655669e+02
  -2.621798e+02   4.586422e+02
  -5.088936e+02   1.925016e+02
  -4.041208e+02  -2.112797e+02
  -9.709331e+01  -4.605925e+02
   2.266497e+02  -3.131866e+02
   1.768974e+02   2.401728e+02
  -1.472235e+02   3.860920e+02
  -4.435150e+02  -3.621716e+00
  -2.287704e+02  -5.881837e+02
   2.827487e+02  -6.425107e+02
   5.995569e+02   3.410046e+01
   2.438344e+02   5.408748e+02
  -3.226425e+02   2.573000e+02
  -3.574218e+02  -3.134067e+02
   6.058550e+01  -5.324064e+02
   5.273898e+02  -1.228588e+02
   5.457768e+02   3.236348e+02
   1.270186e+02   5.875557e+02
  -3.235450e+02   3.020754e+02
  -5.726089e+02  -5.954703e+01
  -3.392600e+02  -3.535041e+02
   1.808112e+02  -3.395373e+02
   4.324692e+02  -5.151120e+01
   1.918709e+02   2.159026e+02
  -1.859150e+02   1.051165e+02
  -1.696793e+02  -1.536257e+02
   1.694351e+02  -1.485318e+02
   3.161347e+02   7.330122e+01
   1.145904e+02   2.336632e+02
  -2.357316e+02   2.102997e+02
  -2.745160e+02   5.646110e+01
  -1.688892e+02  -5.058100e+01
  -1.767036e+01  -1.942090e+02
   1.963239e+02  -2.932274e+02
   3.086869e+02  -1.766165e+02
   2.800428e+02   1.642862e+02
   6.290260e+01   4.236444e+02
  -1.259686e+02   3.157482e+02
  -9.621323e+01   1.033168e+02
   1.133285e+01  -4.227294e+01
  -4.491077e+01   4.681754e+01
  -1.510433e+02   1.277233e+02
  -2.807012e+02  -5.420504e+01
  -1.616954e+02  -2.652714e+02
   3.061878e+01  -2.483243e+02
   2.009009e+02   1.676053e+01
   1.613778e+02   2.306457e+02
  -3.402701e+01   2.876057e+02
  -1.970908e+02   1.189930e+02
  -3.396609e+02  -1.507323e+02
  -1.405204e+02  -3.432669e+02
   1.070211e+02  -2.510097e+02
   2.304272e+02  -6.907290e+01
   1.268337e+02   2.164970e+01
   6.027137e+01  -2.345204e+01
   2.658051e+02  -1.300903e+02
   3.328151e+02   4.926434e+01
   2.448435e+02   2.707920e+02
  -2.034263e+01   3.619294e+02
  -3.211192e+02   3.681298e+02
  -4.342604e+02   1.832859e+02
  -2.706427e+02  -6.337132e+01
  -5.972862e+01  -2.469340e+02
   1.308328e+02  -2.357074e+02
   7.015604e+01  -8.034109e+00
  -1.375097e+02   9.560314e+01
  -1.957604e+02  -1.612123e+01
  -7.732701e+01  -1.896965e+02
   1.611697e+02  -1.448570e+02
   1.678413e+02   7.772479e+01
  -3.283120e+01   2.103278e+02
  -1.874468e+02   3.269335e+01
  -1.920249e+02  -1.978422e+02
   3.886737e+01  -3.319568e+02
   1.968473e+02  -1.847847e+02
   2.680777e+02   2.783975e+01
   2.207884e+02   2.166327e+02
   8.492519e+01   2.381730e+02
  -5.538115e+01   1.469784e+02
  -1.277010e+02   1.626253e+01
  -3.827975e+01  -3.794303e+01
   6.682163e+01   7.626075e+01
   2.964560e+01   1.263864e+02
  -1.383294e+02   1.179358e+02
  -1.693867e+02  -4.841933e+01
  -6.886798e+01  -9.378706e+01
   4.910668e+01   5.655716e-01
  -9.580218e+00   4.174634e+01
  -8.869909e+01   5.806245e+01
  -2.226858e+02   8.864105e+00
  -2.547628e+02  -1.396065e+02
  -1.091498e+02  -2.401561e+02
   1.423947e+02  -2.067048e+02
   2.483142e+02  -7.468467e+01
   1.595500e+02   3.348859e+01
  -5.758935e+01   1.172758e+02
  -7.742857e+01   5.545349e+01
   6.806445e+00  -8.549741e+01
   1.694071e+02  -7.175769e+01
   1.499147e+02   6.544608e+01
   6.976411e+01   1.772584e+02
  -8.481669e+01   1.838289e+02
  -1.393941e+02   4.739392e+01
  -9.020906e+01  -4.936387e+01
  -1.406621e+01  -1.090094e+01
   4.448745e+01   4.061977e+01
  -5.946671e+01   1.101086e+02
  -1.690899e+02   1.456853e+01
  -1.662462e+02  -8.561840e+01
  -3.552344e+01  -1.798922e+02
   9.571225e+01  -1.658239e+02
   1.911994e+02  -7.079111e+00
   8.897524e+01   1.003612e+02
  -4.959835e+01   9.504051e+01
  -9.847082e+01   4.715667e+01
  -5.225871e+01  -5.290874e+01
   3.497657e+01  -5.197429e+01
   1.535781e+01   8.475335e+00
  -5.528140e+01  -9.799465e+00
  -3.860438e+01  -4.880089e+01
   3.949062e+00  -1.325539e+02
   1.402681e+02  -1.030415e+02
   2.482570e+02  -3.397074e+01
   1.621264e+02   1.187526e+02
  -2.472059e+00   1.949292e+02
  -1.145347e+02   1.302659e+02
  -1.617237e+02  -3.023412e+01
  -6.214219e+01  -6.357052e+01
  -2.039761e+01  -7.767709e+01
  -3.380711e+01  -1.020759e+01
  -6.170563e+01  -2.058660e+01
  -1.574439e+01  -6.697403e+01
   4.419024e+01  -7.560111e+01
   7.546491e+01  -1.025644e+01
   4.901000e+01   1.489991e+01
   2.744608e+01   1.027328e+02
  -9.455413e+01   4.177567e+01
  -1.528875e+02  -2.085621e+01
  -1.163003e+02  -1.520493e+02
   8.944883e+01  -1.813825e+02
   2.196026e+02  -8.970208e+01
   2.088428e+02   7.774213e+01
   9.597761e+01   1.303763e+02
  -5.000973e+01   1.127647e+02
  -9.447227e+01   6.687715e+01
  -1.167429e+02   3.783464e+01
  -8.708354e+01   8.061525e+01
  -5.878752e+01   3.671551e+01
  -1.101849e+02  -4.337281e+01
  -7.851894e+01  -1.087191e+02
  -3.667734e+01  -2.124692e+02
   7.821003e+01  -1.513623e+02
   1.287635e+02  -1.012746e+01
   1.107224e+02   9.781956e+01
   6.813956e+01   1.703950e+02
  -5.556842e+01   1.313396e+02
  -9.810464e+01   1.867223e+00
  -5.215354e+00  -4.774869e+01
  -1.686429e-01  -3.263516e+01
  -3.046066e+01  -4.141141e+01
  -5.993883e+01  -2.153173e+01
  -2.436183e+01  -3.462432e+01
   4.874592e+01  -5.584907e+01
   1.512427e+02  -2.094486e+01
   1.790053e+02   1.331055e+01
   5.110456e+00   7.477106e+01
  -1.318988e+02   9.764998e+01
  -1.085483e+02   3.134941e+00
  -2.876758e+01  -4.765570e+01
   3.238904e+01  -4.620336e+01
   6.880311e+01   3.735581e+01
  -1.583956e+01   5.012018e+01
  -5.546779e+01   7.936898e+01
  -7.856881e+01  -4.872932e+01
  -1.739148e+01  -5.583524e+01
  -4.434546e+01  -3.978101e+01
  -7.011059e+01   3.117178e+01
  -1.064414e+02  -2.368993e-01
  -2.031481e+01  -6.201098e+01
   3.740715e+01  -1.447219e+02
   9.739523e+01  -8.456898e+01
   1.658027e+02   1.082323e+01
   8.714329e+01   7.936082e+01
  -3.010455e+01   8.790265e+01
  -1.217960e+02   3.523977e+01
  -9.530240e+01  -5.962702e+01
   5.479849e+01   1.283154e+01
   1.093473e+02   4.666121e+01
   6.962533e+01   1.435472e+02
  -4.835827e+01   6.714709e+01
  -1.777867e+02   3.665265e+01
  -1.455786e+02  -2.652052e+01
  -1.297580e+01  -8.308911e+01
   5.316728e+01  -3.676524e+01
   7.603142e+01  -9.745382e+00
  -2.179864e+01   3.424120e+01
  -8.556553e+01  -3.312099e+00
  -1.733898e+01  -1.175569e+02
   1.051987e+02  -1.434722e+02
   1.731968e+02  -4.628311e+01
   9.696294e+01   9.981274e+01
  -2.288060e+01   1.594641e+02
  -1.058415e+02   8.724582e+01
  -9.126779e+01   1.090184e+01
  -4.442121e+01  -7.797684e+01
   1.730736e+01  -7.846967e+01
   3.352096e+01  -3.929428e+01
   4.728325e+01   4.359102e+01
   5.749794e+01  -2.334018e+00
   7.768571e+00  -3.211822e+01
   2.453859e+00   3.285870e+01
   3.507882e+01   6.672030e+01
   5.707044e+00   9.418551e+01
  -3.227323e+01   1.450813e+01
  -1.055938e+02  -4.481619e+01
  -1.153592e+02  -5.639395e+01
  -1.353964e+01  -5.714500e+01
   6.933578e+01  -3.957331e+01
   6.393437e+01  -4.785898e+01
   1.057637e+01  -7.369630e+00
  -4.050083e+01   4.104405e+01
   1.599382e+01  -3.417050e+00
   1.438731e+01  -5.584969e+00
  -8.001067e+00   8.402318e+00
  -7.682344e+01  -2.141171e+01
  -9.879625e+01  -1.991206e+01
  -4.131919e+01  -7.027664e+01
   1.062021e+02  -9.751034e+01
   1.707029e+02  -1.284635e+01
   8.171896e+01   7.512509e+01
   1.055331e+01   1.209221e+02
  -5.844501e+01   1.112214e+02
  -1.338836e+02   1.299038e+01
  -6.791568e+01   1.481316e+00
  -5.095375e+01  -1.235298e+01
   7.764618e+00  -1.359330e+01
   3.637093e+00  -1.909241e+00
  -2.461129e+01  -2.266857e+01
  -1.884181e+01  -4.429029e+01
   4.822453e+01  -3.592094e+01
   5.710389e+01   2.188616e+01
   7.212084e+01   8.231805e+01
  -1.347545e+01   1.161148e+02
  -5.324602e+01   1.982318e+01
  -8.506929e+01  -4.148716e+01
  -5.793063e+01  -9.545730e+01
   6.774741e+01  -5.110205e+01
   6.110557e+01   3.495291e+00
   2.428963e+01   5.494210e+01
   2.002969e+00   3.785325e+01
  -2.838551e+01   1.223424e+01
   3.162724e+01  -2.284664e+01
   8.044227e+00  -4.031186e+01
  -2.812233e+00   4.903365e+01
  -5.984669e+01   7.301669e+01
  -1.201627e+02   7.957337e+01
  -7.789243e+01  -2.529416e+01
   8.856282e+00  -8.927773e+01
   5.801982e+01  -7.764870e+01
   2.250672e+01   8.256236e+00
  -2.149560e+01   1.006137e+02
  -4.922422e+01   4.713754e+01
  -3.117982e+01  -3.834191e+01
  -3.085472e+01  -1.331500e+01
  -6.191638e+00  -2.056580e+01
   3.864741e+01  -1.194161e+01
   5.664901e+01   3.932828e+01
   8.204251e+00  -2.023757e+00
  -7.506803e+00   2.724701e+01
  -1.474028e+01   1.197814e+01
  -2.252659e+01   6.069904e+01
   1.273674e+00   1.859562e+01
  -4.096490e+01   3.497490e+01
  -4.746907e+01  -2.216657e+01
   1.424816e+01  -5.447768e+01
   4.128458e+01   2.732223e+01
   4.297691e+01   4.619824e-01
  -6.833622e+00   7.023444e+01
  -4.329855e+01   2.789517e+01
  -9.700930e+01   9.685216e+00
  -5.528747e+01  -4.816750e+01
   3.720607e+01  -3.368817e+01
   6.286902e+01   2.268467e+01
   4.863394e+01  -2.584441e+01
  -5.134985e+01   2.146338e+01
  -8.179770e+00  -3.923542e+00
   3.540417e+01  -1.799513e+01
   9.082230e+01  -9.533555e+00
