
 $NMID
 id='ANONYMOUS ', fmtdat='(2E16.6)'
 volume=1.0
 tramp=1.0
 $END
  -2.967966e+03  -2.854057e+02
  -1.690243e+03  -1.796840e+03
   6.638010e+02  -1.945310e+03
   1.563199e+03  -5.038858e+02
   7.250066e+02   4.395628e+02
  -5.493812e+02   3.689284e+02
  -6.132545e+02  -3.572170e+02
   9.168237e+01  -7.195715e+02
   5.921929e+02  -5.021005e+02
   6.536718e+02   9.910551e+01
   3.178283e+02   5.756276e+02
  -1.256775e+02   6.364870e+02
  -4.040875e+02   8.324752e+01
  -2.442513e+02  -5.520112e+02
   1.933569e+02  -5.520757e+02
   4.306266e+02   2.591433e+01
   1.398259e+02   4.609945e+02
  -2.788117e+02   4.230659e+02
  -3.889854e+02   1.132239e+02
  -2.599882e+02  -2.363935e+02
  -1.432038e+01  -3.160623e+02
   1.054992e+02  -2.110314e+02
   1.625272e+02  -3.328854e+01
  -9.811184e+01   2.835597e+01
  -2.174708e+02  -6.599128e+01
  -7.161124e+01  -2.733854e+02
   2.930142e+02  -2.554871e+02
   5.515961e+02   1.126230e+02
   3.254174e+02   4.174439e+02
  -2.858356e+02   3.280022e+02
  -4.916186e+02  -6.379055e+01
  -2.573397e+02  -2.774717e+02
   1.336854e+02  -3.448924e+02
   3.615798e+02  -1.927265e+02
   2.660710e+02   1.274614e+02
   5.150856e+01   3.442472e+02
  -1.589727e+02   2.248084e+02
  -1.149344e+02  -1.132687e+02
   5.427259e+01  -3.355812e+02
   3.564074e+02   1.464500e+00
   1.581305e+02   4.641920e+02
  -2.584930e+02   4.994343e+02
  -4.163338e+02  -1.931070e+00
  -1.689893e+02  -3.947017e+02
   2.462745e+02  -2.358788e+02
   2.665201e+02   2.167396e+02
  -1.051832e+02   3.798683e+02
  -3.938670e+02   9.968409e+01
  -4.368792e+02  -2.807710e+02
  -1.081615e+02  -4.338153e+02
   2.247565e+02  -2.065859e+02
   3.971939e+02   8.953798e+01
   2.607844e+02   2.924551e+02
  -1.185899e+02   2.484825e+02
  -2.670699e+02   5.059980e+01
  -1.931139e+02  -1.116456e+02
   5.274270e+01  -5.923787e+01
   8.934762e+01   1.340957e+02
  -1.377318e+02   1.391380e+02
  -2.083733e+02  -9.530307e+01
  -8.581863e+01  -1.925652e+02
   1.518730e+02  -1.575567e+02
   1.871403e+02  -6.392973e+01
   1.275448e+02   9.270206e+01
  -3.816411e+01   9.315192e+01
  -1.208526e+02   2.224406e+02
  -2.336886e+02   1.654540e+02
  -2.361964e+02  -6.809991e+01
  -1.170710e+02  -3.370778e+02
   8.169094e+01  -2.837220e+02
   9.886155e+01  -1.153883e+02
   5.315718e+01   2.069081e+01
   3.596206e+01  -2.678538e+01
   8.970097e+01  -3.602872e+01
   2.278943e+02   3.163248e+01
   9.231131e+01   1.653705e+02
  -9.516194e+00   1.815098e+02
  -1.475434e+02  -1.103766e+00
  -1.409313e+02  -1.659336e+02
   1.694434e+01  -1.957748e+02
   1.133973e+02  -6.703323e+01
   2.610131e+02   1.003806e+02
   1.399193e+02   2.324490e+02
  -1.780177e+01   2.099015e+02
  -1.617185e+02   1.001604e+02
  -9.783194e+01  -3.643169e+01
  -7.431249e+01   5.573544e+00
  -1.473916e+02   3.129595e+01
  -2.677192e+02  -7.182356e+01
  -2.106703e+02  -2.128371e+02
  -3.931335e+00  -2.909329e+02
   2.718753e+02  -2.675577e+02
   3.114836e+02  -1.169724e+02
   2.365870e+02   7.766149e+01
   4.539078e+01   2.242195e+02
  -7.156745e+01   1.590767e+02
  -8.373967e+01   3.010153e+01
   1.112840e+02  -9.322645e+01
   1.424308e+02   1.807750e+01
   4.660278e+01   1.118422e+02
  -1.047786e+02   8.441386e+01
  -1.343546e+02  -3.238198e+01
   1.060062e+00  -1.393706e+02
   9.941106e+01  -2.750888e+01
   1.169238e+02   2.015670e+02
  -3.117965e+01   2.237113e+02
  -1.573861e+02   1.047904e+02
  -2.192935e+02  -7.047203e+01
  -1.774509e+02  -1.632041e+02
  -1.113621e+02  -1.952876e+02
   4.861852e+01  -1.547833e+02
   1.177139e+02  -3.618591e+01
   4.186518e+01  -6.826837e+00
  -4.240794e+01  -4.170425e+01
   1.992041e+01  -9.229311e+01
   1.190262e+02  -1.086155e+02
   1.143249e+02   1.508040e+01
   5.402975e+01   5.367992e+01
  -1.789518e+01   3.415348e+01
  -4.419225e+01  -4.364880e+01
   8.040684e+01  -5.807618e+01
   1.817484e+02   4.911145e-01
   2.312817e+02   1.065336e+02
   5.527655e+01   1.515611e+02
  -1.284498e+02   1.652949e+02
  -1.518878e+02   6.317462e+01
  -1.279634e+02  -5.286291e+01
   3.300075e+01  -8.338867e+01
   7.098004e+01  -3.718946e+00
  -1.942997e+01   6.961523e+01
  -1.014492e+02   2.248895e+00
  -1.355809e+02  -6.507382e+01
  -5.401081e+01  -1.574868e+02
   8.256014e+01  -1.157504e+02
   1.117865e+02  -1.622736e+01
   8.642098e+01   2.831405e+01
  -1.739931e+01   3.858982e+01
  -3.549413e+01  -6.555462e+01
  -1.451455e+01  -8.178702e+01
   1.297949e+02  -6.983509e+00
   1.652896e+02   7.503506e+01
   3.568674e+01   1.586640e+02
  -1.317230e+02   9.406028e+01
  -1.734937e+02  -2.789034e+01
  -9.330674e+01  -5.579742e+01
   6.935891e+00  -7.536201e+01
   7.886621e+01  -1.797959e+01
   1.525805e+01   7.483326e+00
   2.409828e+01   2.483146e+01
  -3.719235e+00   1.834511e+01
   4.251649e+01   7.384987e+00
   2.944854e+01   8.939216e+01
   1.666056e+01   1.339656e+02
  -1.066043e+02   8.285655e+01
  -1.512347e+02   4.809704e+00
  -1.168152e+02  -1.242990e+02
  -5.538716e+01  -1.448562e+02
   9.487014e+01  -1.104629e+02
   8.689828e+01  -3.728284e+00
   5.805884e+01   2.896847e+01
   5.637081e-01   5.598423e+01
   7.610437e+01  -1.352126e+01
   7.845380e+01  -6.124279e+00
   6.629907e+00   5.739995e+01
  -2.067998e+00   2.512774e+01
  -4.237442e+01   9.378106e+00
  -5.740653e+01  -1.383084e+01
   1.253103e+01  -3.090416e+01
   9.161024e+01  -5.998687e+01
   1.608437e+02   2.188581e+01
   6.500612e+01   1.380616e+02
  -6.835610e+01   1.171594e+02
  -1.819294e+02   9.781113e+01
  -1.836681e+02  -6.208410e+01
  -1.014674e+02  -1.019411e+02
   3.503186e+01  -1.215010e+02
   7.929495e+01  -6.556600e+01
   4.177755e+01  -5.806328e+01
   4.428199e+01  -7.337806e+01
   6.832476e+01  -3.464000e+01
   8.298845e+01   4.414372e+01
   1.135075e+02   9.235147e+01
   2.272735e+01   1.398969e+02
  -6.664931e+01   9.135619e+01
  -1.053444e+02   3.941082e+01
  -6.633604e+01  -7.388168e+01
   1.271719e+01  -1.008361e+02
   3.231918e+01  -5.321200e+01
   8.219428e+01  -1.738983e+01
  -1.645485e+01   2.054372e+01
  -1.424605e+01   4.794222e+01
   4.412425e+01  -2.007968e-01
   3.877608e+01  -1.002289e+01
   5.680859e+01   2.314226e+01
  -5.896846e+01  -1.095209e+01
  -7.637508e+01   1.340385e+01
  -1.112261e+02  -1.394660e+01
   6.819902e+00  -4.228871e+01
   7.871423e+01  -3.578751e+01
   8.293093e+01  -1.848058e+01
   2.376229e+01   2.539564e+01
  -4.248512e+01   2.278804e-01
  -1.075952e+01  -2.071544e+01
  -6.646098e+00  -3.630328e+01
   2.856036e+01  -4.134526e+00
   1.793862e+01   1.016106e+01
   4.708549e+01   2.727725e+01
   6.422422e+01   3.916509e+01
  -2.661232e-01  -1.762237e+01
   2.646938e+01   5.906745e+00
  -5.134060e-01   4.680560e+01
  -1.669163e+01   9.015234e+01
  -8.405300e+01   9.108892e+01
  -1.124119e+02   3.232477e+01
  -4.002578e+01  -6.740515e+01
   2.812312e+01  -7.830380e+01
   7.563073e+01  -3.378038e+01
   4.578347e+01   7.437358e+00
  -3.301305e+01  -2.618969e+01
  -1.165106e+02  -3.710969e+01
  -7.625764e+01  -8.642574e+01
   6.991566e+01  -8.843607e+01
   1.173061e+02  -2.601900e+01
   1.202774e+02   6.561779e+01
   2.232556e+01   5.055682e+01
  -5.977448e+01   6.545992e+01
  -8.316914e+01  -8.751033e+00
   1.564354e+01  -2.773659e+01
   5.893383e+01   3.894020e+01
  -1.045167e+01   9.068326e+01
  -4.688186e+01   8.327034e+01
  -1.449748e+02   6.608466e+01
  -8.170594e+01  -8.087026e+01
   2.649507e+00  -1.008465e+02
   4.918583e+01  -1.128204e+02
   8.666833e+01   6.635723e-01
   4.954243e+01   2.882498e+01
   6.728227e+00   8.718919e+01
  -6.706631e+01   7.157797e+01
  -4.317756e+01   2.307439e+00
  -3.092233e+01  -2.538517e+01
  -1.310851e+01  -7.434078e-01
  -3.104342e+01   3.350097e+01
  -6.744275e+00  -6.034142e+01
  -2.585433e+01  -7.263181e+01
   2.684619e+01  -4.248939e+01
   8.332850e+01   3.317996e+01
   6.033568e+01   2.370541e+01
   1.688407e+01   2.718823e+01
  -6.194692e+01   3.760202e+00
  -9.445846e+01   2.801615e+01
  -1.780603e+01  -5.463135e+00
  -1.458311e+01  -2.071187e+01
  -4.888350e+00  -2.614752e+01
  -3.062801e+01  -1.319506e+01
   4.903176e+01   3.523509e+01
   5.601481e+01   1.960056e+01
   2.321701e+01   1.526929e+01
  -2.740183e+01   4.244803e+01
  -6.278793e+01   6.395578e+01
  -8.770099e+01   2.628119e+01
  -7.460909e+01  -9.071676e+01
  -1.785697e+01  -1.146783e+02
   5.709673e+01  -1.453246e+02
   6.650860e+01  -7.672431e+01
   6.577239e+01  -2.623069e-01
   2.192050e+00  -2.723967e+01
  -3.064480e+01   2.453471e+01
   3.131820e+00  -5.358993e+00
   3.631905e+01  -3.305917e+01
   1.393079e+01   6.610633e+01
   4.112805e+00   4.077091e+01
  -5.154589e+01  -1.765128e+01
   5.972227e+00  -5.754658e+01
   3.239693e+01  -5.528501e+01
   5.907319e+01  -3.197482e+01
   7.414006e+01   6.193263e+01
   5.236418e+00   5.427537e+01
  -3.406684e+01   5.456844e+01
  -8.486395e+01  -1.262973e+01
   3.131545e+00   6.148001e-01
   3.640981e+01  -2.189986e+01
  -8.718948e+00  -1.273042e+01
   3.437724e+01  -2.143751e+00
  -4.627042e+01   3.785744e+01
   2.395540e+01  -5.428424e+00
   8.525995e+01  -6.451399e+01
   9.133898e+01  -1.555303e+01
   1.096191e+01   2.354935e+01
  -1.370083e+01   7.388591e+01
  -3.057207e+01   5.606932e+01
  -8.761788e+00   3.241940e+01
   9.723610e+00  -4.850736e+01
   2.882718e+01  -5.405282e+01
   1.279529e+01   3.010876e+01
   3.726606e+01   1.358744e+01
   7.639275e+00   4.662873e+01
  -4.475147e+01   4.984016e+00
  -1.831405e+01   6.439090e+00
  -1.746088e+01   1.754932e+00
   2.744930e+01   1.086942e+01
  -1.373555e+01  -1.344202e+01
  -1.516841e+01  -2.048457e+01
   4.635892e+01  -3.574389e+00
   3.228995e+01   4.818642e+00
  -1.873242e+00   6.480386e+01
  -1.857549e+01   3.313643e+01
  -5.707744e+00   2.680049e+01
  -4.147932e+01  -4.378301e+01
   2.418826e+01  -4.870181e+01
  -3.505137e+00  -1.406378e+01
   6.232308e+01   1.641223e+01
   7.048895e+01   1.332542e+01
  -1.632783e+01   7.351185e+00
  -4.084309e+01  -3.132124e+01
  -1.829311e+00  -2.420367e+01
   2.090677e+00   1.814792e+01
  -3.200879e+00   3.233503e+01
  -2.400213e+01   1.297286e+01
  -5.227458e+01   2.700346e+01
