
 $NMID
 id='ANONYMOUS ', fmtdat='(2E16.6)'
 volume=1.0
 tramp=1.0
 $END
   3.972706e+03  -1.608617e+02
   2.444837e+03   2.149532e+03
  -3.575508e+02   2.414178e+03
  -1.691862e+03   1.150025e+03
  -9.039195e+02  -2.521715e+02
   3.746525e+02  -3.385515e+02
   6.229856e+02   2.984101e+02
   1.407537e+01   9.722588e+02
  -6.736352e+02   7.129177e+02
  -8.437392e+02   1.016559e+01
  -4.891952e+02  -7.174442e+02
   1.440107e+02  -7.921578e+02
   4.817404e+02  -1.862660e+02
   3.397950e+02   5.942601e+02
  -1.480530e+02   6.659377e+02
  -5.461587e+02  -1.019644e+00
  -3.477766e+02  -6.309587e+02
   1.898574e+02  -6.115647e+02
   5.684369e+02  -1.934557e+02
   4.227738e+02   2.812914e+02
   7.069831e+01   4.119102e+02
  -1.774895e+02   2.426383e+02
  -1.130891e+02   1.497453e+00
   1.161502e+02   1.112896e+00
   3.632135e+02   2.181147e+02
   8.443634e+01   3.743671e+02
  -4.660290e+02   3.076610e+02
  -7.755192e+02  -1.425859e+02
  -3.208659e+02  -4.690846e+02
   3.698055e+02  -3.915532e+02
   6.162329e+02   8.122980e+01
   2.512395e+02   4.140106e+02
  -2.402211e+02   4.522508e+02
  -5.241194e+02   1.701822e+02
  -3.858436e+02  -2.057250e+02
  -7.325361e+01  -4.074553e+02
   1.179617e+02  -2.275242e+02
   9.326722e+01   1.856061e+02
  -1.521115e+02   3.040482e+02
  -3.324003e+02  -8.079926e+01
  -1.211845e+02  -5.566216e+02
   2.182775e+02  -5.966356e+02
   5.023464e+02  -8.682774e+00
   1.897329e+02   4.575073e+02
  -2.568520e+02   2.343607e+02
  -3.210344e+02  -2.977419e+02
   9.590115e+01  -5.355904e+02
   5.540651e+02  -7.712671e+01
   5.816904e+02   4.147966e+02
   1.393612e+02   5.865858e+02
  -3.551860e+02   3.012944e+02
  -5.974061e+02  -1.159879e+02
  -4.099124e+02  -2.826102e+02
   9.637733e+01  -3.301915e+02
   3.283462e+02  -1.389060e+02
   2.483163e+02   1.380437e+02
  -5.851972e+01   8.141254e+01
  -7.548999e+01  -8.060550e+01
   1.049831e+02  -1.428182e+02
   3.064017e+02   2.673249e+01
   1.812995e+02   2.363718e+02
  -1.913778e+02   2.594951e+02
  -3.581504e+02   1.137476e+02
  -2.516829e+02  -9.510238e+01
   8.429467e+00  -2.901158e+02
   2.725793e+02  -3.157057e+02
   3.657549e+02  -1.790058e+02
   2.846862e+02   1.424745e+02
   4.876929e+01   4.034324e+02
  -6.956531e+01   3.672967e+02
  -7.204008e+01   1.484989e+02
  -2.441251e+01   1.419917e+01
  -1.062374e+02   9.328476e+01
  -2.049002e+02   1.370152e+02
  -2.413009e+02  -8.689122e+01
  -1.582444e+02  -2.725453e+02
   6.947734e+01  -2.175750e+02
   2.271581e+02   3.396256e+01
   1.719710e+02   2.387505e+02
  -4.939009e+01   2.563391e+02
  -2.324194e+02   8.106755e+01
  -3.896041e+02  -1.740422e+02
  -1.846144e+02  -3.426347e+02
   9.510338e+01  -3.376377e+02
   1.724242e+02  -9.090967e+01
   1.786913e+02  -1.270806e+01
   1.005039e+02  -4.448774e+01
   2.689332e+02  -5.032624e+01
   3.984757e+02   9.035792e+01
   3.379618e+02   2.841201e+02
   5.824672e+00   4.515939e+02
  -3.470577e+02   4.345089e+02
  -4.765640e+02   1.644543e+02
  -2.957236e+02  -7.816636e+01
  -3.891814e+01  -2.990989e+02
   1.297391e+02  -2.184562e+02
   4.806531e+01  -4.380959e+01
  -1.134897e+02   1.167248e+02
  -1.572230e+02   3.735910e+00
  -4.653391e+01  -1.626675e+02
   1.144602e+02  -1.443098e+02
   1.693097e+02   8.548857e+01
  -3.163081e+01   1.695270e+02
  -2.372029e+02   4.078299e+01
  -1.953978e+02  -2.375678e+02
   1.046725e+01  -3.473005e+02
   2.515359e+02  -2.050851e+02
   3.970055e+02   9.077464e+01
   2.522633e+02   2.549342e+02
   5.889579e+01   2.799836e+02
  -1.309801e+02   1.719454e+02
  -1.785494e+02   4.727378e+01
  -4.399707e+01   9.822064e-02
   5.545248e+01   8.327594e+01
   3.541528e+00   1.308131e+02
  -1.089061e+02   6.984659e+01
  -1.845920e+02  -8.769307e+01
  -3.158202e+01  -5.858071e+01
   1.012658e+02  -9.063274e+00
   3.929365e+01   4.489778e+01
  -1.453673e+02   9.234976e+01
  -2.646330e+02   2.457308e+01
  -3.029043e+02  -1.647404e+02
  -8.445848e+01  -2.524042e+02
   1.802286e+02  -2.355980e+02
   2.615126e+02  -1.163651e+02
   1.750110e+02   5.105691e+01
  -5.997649e+01   8.077255e+01
  -8.838965e+01  -4.370208e+00
   2.741036e+01  -7.654713e+01
   1.626597e+02  -3.057080e+01
   1.637455e+02   1.200825e+02
   7.253565e+01   2.363209e+02
  -8.221983e+01   1.815624e+02
  -1.341600e+02   2.258052e+01
  -4.921776e+01  -5.516104e+01
   5.488296e+01   9.420018e+00
   3.996689e+01   8.446046e+01
  -9.319872e+01   1.052642e+02
  -2.146988e+02  -1.021907e+01
  -2.082710e+02  -1.103803e+02
  -1.956499e+01  -2.313029e+02
   1.877939e+02  -1.684946e+02
   1.670576e+02  -3.269927e+01
   7.275119e+01   9.805707e+01
  -9.805900e+01   1.149524e+02
  -7.593267e+01   2.671769e+01
  -1.031963e+00  -4.273428e+01
   3.211725e+01  -3.305918e+01
   1.890455e+01   1.738607e+01
  -5.877623e+01  -1.973182e+01
  -1.077768e+02  -1.374010e+01
  -1.726578e+00  -1.793311e+02
   1.688532e+02  -1.607587e+02
   2.484135e+02  -3.347484e+01
   1.760153e+02   1.387131e+02
   1.574941e+01   2.302649e+02
  -7.999381e+01   1.797270e+02
  -9.111702e+01   1.921495e+01
  -7.725225e+01  -4.853042e+01
  -3.943410e+00  -6.918216e+01
  -6.271324e+01  -5.688746e+00
  -8.894289e+01   5.581500e-01
  -3.957620e+01  -4.894299e+01
   4.200101e+01  -7.537022e+01
   1.143656e+02  -9.268828e+01
   9.786446e+01   5.262671e+01
   1.633508e+01   1.520698e+02
  -1.523767e+02   1.017778e+02
  -2.163453e+02  -3.129681e+01
  -9.040066e+01  -2.286071e+02
   1.187855e+02  -2.106361e+02
   2.969103e+02  -1.174007e+02
   2.431104e+02   1.111853e+02
   7.956303e+01   1.384177e+02
  -5.629181e+01   1.063881e+02
  -6.629291e+01   1.026326e+02
  -6.433742e+01   1.158026e+02
  -7.269794e+01   1.264400e+02
  -1.050910e+02   8.095366e+01
  -1.628230e+02  -6.268100e+01
  -1.178626e+02  -1.635006e+02
  -2.597406e+01  -2.317397e+02
   8.230024e+01  -1.506523e+02
   1.947611e+02   2.841493e+01
   8.555460e+01   1.194839e+02
  -2.068574e+01   1.283358e+02
  -6.666846e+01   5.511164e+01
  -6.348598e+01   1.522875e+01
  -6.907149e+01  -6.781001e+01
  -1.209607e+01  -2.611405e+01
  -5.068041e+00  -1.193981e+01
  -9.085303e+01  -4.321076e+00
  -4.993144e+01  -4.294450e+01
   1.166300e+02  -7.064197e+01
   1.549668e+02  -4.454965e+01
   1.226735e+02   6.531118e+01
  -2.692456e+01   8.773576e+01
  -1.216946e+02   6.031246e+01
  -1.475921e+02   1.754570e+01
  -2.657142e+01  -8.132562e+01
   5.356698e+01  -2.645174e+01
   8.835664e+01  -3.506981e+01
   3.006948e+01   1.159915e+02
   6.210204e+00   6.545950e+01
  -6.906701e+01   1.535666e+01
  -9.707810e+00  -4.821431e+01
  -3.711098e+01  -4.577910e+01
  -4.476374e+01   6.627091e+00
  -4.434185e+01   7.254578e+00
  -4.259494e+01  -7.852317e+01
   5.576497e+01  -1.506080e+02
   1.339255e+02  -1.317892e+02
   2.032885e+02  -2.422303e+01
   1.267214e+02   7.725997e+01
   1.647154e+01   1.149209e+02
  -1.147842e+02   7.780273e+01
  -8.779378e+01   1.150433e+01
   5.354165e+01  -1.937845e+01
   1.234924e+02   6.905799e+01
   1.007206e+02   9.455285e+01
  -8.933476e+01   8.683816e+01
  -2.056197e+02   6.135303e+01
  -2.021770e+02  -3.860699e+01
  -3.065054e+01  -9.134381e+01
   8.682349e+01  -5.810400e+01
   2.928035e+01   6.759880e-01
  -6.874554e+01   3.752324e+01
  -8.272414e+01  -1.965069e+01
  -3.931629e+01  -1.230864e+02
   1.342217e+02  -1.662185e+02
   1.686327e+02  -6.780744e+01
   1.185446e+02   1.304767e+02
   1.465124e+01   2.205249e+02
  -8.805505e+01   1.636655e+02
  -9.763513e+01   4.874647e-01
  -5.662287e+01  -9.100532e+01
   1.618315e+01  -7.321888e+01
   1.538065e+01  -4.236400e+00
   2.318420e+01   2.585179e+01
   1.348932e+01  -2.151105e+01
   1.753944e+01  -1.338685e+01
   4.824873e+01   3.161367e+01
   6.075538e+01   9.692854e+01
  -1.412252e+00   1.181199e+02
  -7.267262e+01   4.621074e+01
  -9.864140e+01  -5.708633e+01
  -1.326235e+02  -8.182811e+01
  -7.019482e+00  -5.130671e+01
   1.122873e+02  -3.279598e+01
   9.402668e+01  -1.226821e+01
  -1.251426e+01   3.279965e+00
  -2.133751e+01   3.403399e+01
   6.419658e-01  -1.784420e+01
   8.517567e+00   2.397226e+01
   3.549729e+01  -2.102799e-01
  -7.802906e+01  -9.001657e+00
  -8.847296e+01  -3.852005e+01
  -3.601649e+01  -7.914967e+01
   1.122355e+02  -7.643150e+01
   1.590187e+02  -6.264820e+01
   1.339778e+02   8.701706e+01
   4.646064e+01   1.681059e+02
  -6.015409e+01   1.518188e+02
  -1.332136e+02   6.430128e+01
  -1.001132e+02  -1.318864e+01
  -4.844458e+01  -3.116831e+01
   2.585084e+00  -4.185001e+00
  -5.337406e-01  -5.214949e+01
  -3.002985e+01  -5.465226e+01
  -3.858100e+01  -1.051039e+02
   3.151057e+01  -1.034856e+02
   1.135345e+02   2.623566e+01
   4.584141e+01   1.592577e+02
  -1.853382e+00   1.274836e+02
  -1.127495e+02   1.922052e+01
  -1.514305e+02  -1.157269e+02
  -2.353484e+01  -1.049715e+02
   5.921387e+01  -8.977529e+01
   9.467814e+01   2.173316e+01
   5.746947e+01   4.144066e+01
   6.509036e+00   5.437935e+01
  -7.216739e+01   2.026690e+01
   4.875456e+01   6.350940e+00
   5.853469e+01   2.836372e+01
   1.214933e+01   4.889091e+01
  -7.328491e+01   6.659555e+01
  -1.227794e+02   5.899766e+01
  -2.965252e+01   4.393627e+00
  -2.717362e+01  -1.231986e+02
   6.061682e+01  -9.309389e+01
   5.451925e+01   5.672194e+00
  -3.617486e+00   5.674305e+01
   9.658979e+00   7.580891e+01
  -8.369840e+01   1.674489e+01
   1.766958e+01  -8.734642e+01
  -1.613321e+01  -6.706639e-01
   5.815832e+01   1.605872e+01
   2.772885e+01   3.232349e+01
   4.528969e+01  -5.356947e+00
  -5.830297e+00  -1.183185e+01
   2.206737e+01  -6.772232e+00
  -1.562936e+01   1.960504e+01
  -3.036257e+01   8.062443e+00
  -9.021524e+00   1.410003e+01
  -3.933292e+01  -7.749784e+01
  -3.431889e+01  -8.281328e+01
   3.016220e+01  -2.757718e+01
   5.625902e+01   3.571492e+01
   3.121667e+00   5.313824e+01
  -5.162214e+01   1.580918e+01
  -1.265115e+02  -7.829052e+00
  -7.313935e+01  -3.162701e+01
   3.073565e+01  -1.278685e+02
   3.852324e+01  -2.665028e+01
   4.064764e+01  -2.052031e-01
  -3.248780e+01   1.625275e+00
  -7.412152e+01   2.529547e+01
  -9.870536e+00  -2.807963e+01
   6.888902e+01   5.965371e-01
