
 $NMID
 id='ANONYMOUS ', fmtdat='(2E16.6)'
 volume=1.0
 tramp=1.0
 $END
  -4.062136e+03  -2.370588e+01
  -2.414300e+03  -2.222474e+03
   3.057800e+02  -2.432176e+03
   1.882930e+03  -1.032203e+03
   9.168103e+02   3.773686e+02
  -4.080389e+02   4.824411e+02
  -6.952830e+02  -3.197918e+02
  -2.404265e+01  -1.009738e+03
   7.363395e+02  -7.072115e+02
   8.679223e+02   6.149154e+01
   4.401684e+02   7.289235e+02
  -1.812564e+02   8.256141e+02
  -5.450254e+02   1.406688e+02
  -2.913125e+02  -6.242286e+02
   2.018450e+02  -7.051042e+02
   5.613002e+02  -1.829086e+01
   3.404134e+02   6.690932e+02
  -2.626518e+02   6.491447e+02
  -5.992613e+02   1.698558e+02
  -4.040365e+02  -3.580023e+02
  -5.354371e+01  -4.532764e+02
   2.783098e+02  -2.381936e+02
   1.130492e+02   3.468097e+00
  -1.437335e+02   1.140269e+01
  -3.884177e+02  -2.290757e+02
  -1.316962e+02  -4.048871e+02
   4.789010e+02  -3.309538e+02
   8.041602e+02   1.002262e+02
   3.464461e+02   5.229260e+02
  -3.872681e+02   4.150538e+02
  -6.569912e+02  -6.068746e+01
  -2.777130e+02  -4.098959e+02
   2.903856e+02  -4.856311e+02
   5.209684e+02  -1.797384e+02
   3.437446e+02   2.189997e+02
   8.453963e+01   4.297027e+02
  -1.333968e+02   2.284111e+02
  -8.962181e+01  -1.807275e+02
   1.717181e+02  -3.309897e+02
   3.967046e+02   8.274146e+01
   1.477076e+02   5.999817e+02
  -2.691650e+02   6.469922e+02
  -4.815373e+02   4.107300e+01
  -2.307426e+02  -4.185722e+02
   2.385729e+02  -2.584137e+02
   3.227758e+02   3.451713e+02
  -1.108913e+02   5.272897e+02
  -5.201429e+02   1.345333e+02
  -6.077886e+02  -3.834184e+02
  -1.239958e+02  -6.143038e+02
   3.816166e+02  -3.156999e+02
   6.063100e+02   1.381337e+02
   3.646496e+02   3.729943e+02
  -1.202657e+02   3.228799e+02
  -4.500192e+02   8.808875e+01
  -2.377270e+02  -1.062330e+02
   8.998800e+01  -6.901670e+01
   1.176808e+02   1.097262e+02
  -1.601358e+02   1.609948e+02
  -3.213750e+02  -4.066380e+01
  -1.736778e+02  -2.388261e+02
   1.989833e+02  -2.823677e+02
   3.623815e+02  -1.032448e+02
   2.156235e+02   1.432341e+02
  -4.119198e+01   3.176729e+02
  -2.765904e+02   3.613040e+02
  -3.857045e+02   1.756005e+02
  -2.898156e+02  -1.723924e+02
  -7.575840e+01  -4.228527e+02
   1.032473e+02  -3.533263e+02
   1.178299e+02  -1.465938e+02
   4.261735e+01  -2.538320e+01
   8.923993e+01  -9.455440e+01
   2.190849e+02  -1.334378e+02
   2.718133e+02   4.510879e+01
   1.708300e+02   2.824125e+02
  -8.859680e+01   2.009834e+02
  -2.426653e+02  -1.369260e+00
  -2.408882e+02  -2.584663e+02
   2.358574e+01  -2.966452e+02
   2.859698e+02  -7.157059e+01
   3.584248e+02   1.856162e+02
   1.607543e+02   3.825029e+02
  -9.307348e+01   3.293679e+02
  -2.332205e+02   1.394202e+02
  -1.598246e+02   2.706322e+01
  -1.094518e+02   2.521674e+01
  -2.630688e+02   4.669242e+01
  -3.628314e+02  -5.528806e+01
  -3.351297e+02  -3.329140e+02
  -6.585851e+00  -4.558770e+02
   3.715361e+02  -4.038578e+02
   5.047350e+02  -1.946993e+02
   3.070784e+02   1.003496e+02
   5.717563e+01   3.073030e+02
  -1.453579e+02   1.917274e+02
  -8.272787e+01   3.980601e+01
   1.093509e+02  -1.072045e+02
   1.676572e+02   2.146760e+01
   5.972462e+01   1.970459e+02
  -1.614980e+02   1.540352e+02
  -1.305625e+02  -4.882819e+01
   6.516444e+00  -1.715046e+02
   1.949111e+02  -1.641027e+01
   1.460080e+02   2.554310e+02
  -5.382807e+01   3.374052e+02
  -2.891574e+02   1.919385e+02
  -3.312740e+02  -8.518367e+01
  -2.771393e+02  -2.212721e+02
  -7.308133e+01  -2.600298e+02
   9.605626e+01  -1.845504e+02
   1.985594e+02  -2.137633e+01
   7.229061e+01  -1.193941e+01
  -3.357802e+01  -7.233724e+01
   1.666703e+00  -1.345699e+02
   8.141562e+01  -8.792053e+01
   1.890682e+02   3.295410e+01
   5.978415e+01   1.123578e+02
  -9.594182e+01  -2.619431e+01
  -6.161704e+01  -8.931457e+01
   1.379686e+02  -4.248440e+01
   2.982802e+02   3.974682e+01
   2.698747e+02   1.652129e+02
   7.641605e+01   2.534053e+02
  -1.897939e+02   3.295799e+02
  -2.778023e+02   1.285482e+02
  -1.626127e+02  -4.978480e+01
   1.192131e+01  -1.158652e+02
   9.484879e+01   1.708349e+01
  -7.818685e+01   1.085356e+02
  -1.727858e+02   4.204488e+01
  -1.974491e+02  -1.434946e+02
  -6.894823e+01  -2.357468e+02
   9.182291e+01  -1.819116e+02
   1.406850e+02   1.644202e+01
   5.660030e+01   2.622406e+01
  -5.760673e+01  -2.390730e+01
  -4.695781e+01  -8.229346e+01
   1.015823e+02  -9.928842e+01
   2.077739e+02  -1.147401e+00
   1.930502e+02   1.174701e+02
   7.171646e+00   1.955579e+02
  -1.492811e+02   2.098187e+02
  -1.898289e+02   2.408073e+01
  -5.627668e+01  -1.434244e+02
   7.372613e+01  -1.367589e+02
   8.299662e+01  -5.077021e+01
  -6.047544e+00   2.094049e+01
  -1.002948e+01  -3.909195e+00
  -2.029358e+01  -2.654300e+01
   9.140367e+01  -4.050093e+01
   1.058973e+02   4.983240e+01
   1.397718e+01   1.619273e+02
  -1.446215e+02   1.580643e+02
  -2.502611e+02   6.736598e+01
  -2.130355e+02  -1.784119e+02
  -1.651094e+01  -2.341251e+02
   1.232655e+02  -1.803360e+02
   1.306998e+02  -3.394680e+01
   1.221484e+02   5.356719e+01
   1.225981e+01   1.569198e+01
   8.593310e+01  -4.747793e+01
   9.007201e+01   5.473037e+00
   2.436394e+01   4.499839e+01
  -2.418298e+01   1.058535e+02
  -9.937425e+01   5.933529e+01
  -1.158824e+02  -5.569938e+01
  -4.859641e+00  -1.075735e+02
   1.713585e+02  -7.818682e+01
   2.211072e+02   3.770185e+01
   6.908146e+01   1.940071e+02
  -1.723682e+02   2.191932e+02
  -2.843148e+02   7.565671e+01
  -2.604727e+02  -1.388326e+02
  -8.482492e+01  -1.860222e+02
   2.479807e+01  -1.790021e+02
   7.526278e+01  -6.679002e+01
   4.269482e+01  -5.513271e+01
   5.432407e+01  -9.225575e+01
   8.138645e+01  -5.888717e+01
   1.617279e+02  -1.058598e+01
   1.257749e+02   1.326043e+02
   3.710436e+01   2.260317e+02
  -8.827074e+01   1.632594e+02
  -1.950436e+02   2.199955e+00
  -1.281141e+02  -1.091730e+02
  -3.359472e+01  -1.421966e+02
   6.453620e+01  -8.298688e+01
   9.296095e+01  -1.191723e+01
  -9.766405e-01   6.177510e+00
  -1.082604e+01  -1.877926e+01
   4.929138e+01   1.985321e+01
   8.029830e+01   4.944301e+01
   4.447336e+01   5.135193e+01
  -1.147066e+02   6.436791e+01
  -1.721179e+02  -2.458893e+01
  -1.503711e+02  -2.347506e+01
  -6.977660e+00  -9.696617e+01
   1.561503e+02  -8.355211e+01
   1.286036e+02  -7.750588e+00
   3.286266e+01   7.783900e+01
  -8.277272e+01   1.347484e+01
  -8.474162e+01  -1.046215e+01
  -3.253410e+01  -7.831851e+01
   8.553404e+01  -1.067310e+02
   7.560419e+01   3.615578e+01
   7.807194e+01   6.067575e+01
   4.261651e+01   3.418137e+01
   8.061886e+01  -1.982467e+01
   1.022354e+02   1.933426e+01
   4.375357e+01   9.041128e+01
  -4.950093e+01   1.514588e+02
  -1.269872e+02   1.282813e+02
  -1.878006e+02   2.088398e+01
  -1.302514e+02  -1.236988e+02
   1.599005e+01  -1.118697e+02
   7.613698e+01  -7.503772e+01
   5.284200e+01   5.399636e+01
  -8.918687e+01   1.050752e+01
  -9.591609e+01  -3.744396e+01
  -8.612609e+01  -7.276949e+01
   6.696942e+01  -1.096267e+02
   2.130172e+02  -8.623432e+01
   1.603657e+02   7.237488e+01
   1.972273e+01   1.121258e+02
  -5.576747e+01   6.930082e+01
  -9.265335e+01  -7.639584e-01
   5.795294e+01  -3.684444e+01
   7.977773e+01   4.713214e+01
   6.337966e+01   1.143885e+02
  -1.008180e+02   1.387057e+02
  -2.367258e+02   9.656636e+01
  -1.410593e+02  -1.073898e+02
   4.370615e+01  -2.036284e+02
   8.034756e+01  -1.268030e+02
   1.169416e+02   6.436285e+01
   6.383004e+01   1.042412e+02
   5.747789e+00   1.009685e+02
  -7.710385e+01   1.009896e+01
  -1.556301e+00  -5.099026e+01
   7.731544e+00   2.483754e+01
  -5.297563e+01   4.666726e+01
  -4.076432e+00  -2.137913e+01
  -4.634176e+01  -6.547448e+01
  -1.191638e+01  -1.382233e+02
   2.469072e+01  -5.790107e+00
   1.266023e+02   5.406864e+01
   1.624477e+02   5.498732e+01
   4.971986e+01   4.632440e+01
  -1.449064e+02   1.131099e+01
  -8.630441e+01   1.921107e+01
  -1.282308e+01  -1.595164e+01
   1.495006e+01  -2.447816e-02
   1.036380e+01   2.627133e+01
  -5.707283e+01   2.752655e+00
  -3.395444e+01   4.509718e+01
   4.223622e+01  -5.580557e+00
   9.365970e+01   4.751470e+01
   2.811293e+01   9.938748e+01
  -1.299646e+02   1.175433e+02
  -1.925916e+02   1.031130e+02
  -1.673670e+02  -4.773646e+01
  -2.394631e+01  -1.396974e+02
   4.865081e+01  -1.742373e+02
   1.564067e+02  -5.316490e+01
   8.247143e+01   3.778193e+01
  -2.331678e-01   2.284045e+01
  -3.151764e+00  -1.687248e+01
   4.162968e+01   3.320538e+00
   2.984304e+01   3.221432e+01
   6.152816e+00   1.297913e+02
  -2.389499e+01   7.372372e+01
  -5.623681e+01  -3.282609e+01
  -6.832875e+01  -1.481059e+02
   2.257162e+01  -1.324241e+02
   9.630268e+01  -9.730771e+00
   9.138029e+01   9.459427e+01
   1.447995e+01   1.049939e+02
  -6.474735e+01   8.716908e+01
  -8.912079e+01  -1.675313e+01
  -2.803694e+01  -7.892822e+01
   5.682659e+01  -9.469103e+00
   5.659203e+01  -2.196699e+01
  -4.269220e+01  -2.727380e+01
  -9.096035e+01  -3.590162e+01
  -3.489618e+01  -5.070807e+01
   1.033164e+02  -3.094070e+01
   1.619264e+02  -4.939813e+01
   5.810192e+01   3.126838e+01
  -2.608969e+01   7.603436e+01
  -4.764133e+01   6.205630e+01
  -3.448680e+01  -4.594411e+01
  -1.924974e+01  -5.079728e+01
   4.204203e+01  -8.255883e+01
   5.703758e+01   3.952983e+01
   1.256618e+01   4.423854e+01
   8.620872e+00   2.466588e+01
  -8.226541e+00   1.485265e+01
  -1.211030e+01  -2.388461e+01
  -2.253295e+01   3.968545e+01
   5.420854e+01   3.170975e+01
   2.862814e+01   6.947717e+00
  -7.470560e+00  -6.230785e+01
   7.471700e+00  -6.783933e+01
   2.561635e+01   2.943622e+01
   2.038465e+01   4.372741e+01
   8.300979e+00   6.482410e+01
  -3.490477e+01   8.789328e+00
  -6.830158e+01  -4.798606e+01
  -5.218306e+01  -4.467771e+01
   5.167442e+01  -4.003851e+00
   6.852547e+01   6.046697e+00
   3.478512e+01   5.987762e+01
  -4.532753e+01   4.534175e+01
  -4.131974e+01   1.206522e+00
  -6.180895e+01   1.993186e+01
   2.066090e+01   3.265943e+01
   2.013624e+01   2.355409e+01
  -9.779261e+00   4.398859e+01
  -8.402490e+01   3.790496e+01
