
 $NMID
 id='ANONYMOUS ', fmtdat='(2E16.6)'
 volume=1.0
 tramp=1.0
 $END
  -4.035370e+03  -1.881688e+02
  -2.424354e+03  -2.288520e+03
   3.719584e+02  -2.322960e+03
   1.790045e+03  -9.623082e+02
   9.085391e+02   3.939762e+02
  -4.344042e+02   3.973679e+02
  -7.161058e+02  -3.761183e+02
   8.499964e+01  -9.833117e+02
   7.467512e+02  -6.820537e+02
   8.861107e+02   8.712355e+01
   4.279637e+02   8.128046e+02
  -1.811650e+02   7.915635e+02
  -5.813523e+02   1.095417e+02
  -3.593984e+02  -6.969960e+02
   2.437043e+02  -6.507697e+02
   5.685645e+02   3.589275e+01
   2.697237e+02   6.911939e+02
  -2.349134e+02   6.400965e+02
  -5.633368e+02   1.191399e+02
  -4.024207e+02  -2.938941e+02
  -5.407018e+01  -4.149442e+02
   1.992596e+02  -2.273843e+02
   1.591686e+02  -1.336590e+00
  -1.370350e+02  -8.820751e+00
  -3.515589e+02  -1.954175e+02
  -1.007111e+02  -4.163863e+02
   5.371377e+02  -3.541028e+02
   8.134628e+02   9.615387e+01
   3.887543e+02   4.717935e+02
  -4.066661e+02   4.321724e+02
  -6.929459e+02  -7.229940e+01
  -3.437735e+02  -4.797346e+02
   3.036347e+02  -5.211658e+02
   5.386310e+02  -1.563119e+02
   4.050174e+02   2.192505e+02
   3.338062e+01   4.485536e+02
  -2.303252e+02   2.382718e+02
  -9.034018e+01  -2.170627e+02
   2.479270e+02  -3.788175e+02
   4.075442e+02   9.376862e+01
   1.225045e+02   6.624522e+02
  -2.857160e+02   6.090221e+02
  -4.712115e+02  -3.051362e+01
  -2.430350e+02  -5.308814e+02
   3.047811e+02  -2.408807e+02
   3.135309e+02   3.667848e+02
  -1.081384e+02   5.185076e+02
  -5.732393e+02   1.324177e+02
  -5.876375e+02  -4.489901e+02
  -1.105464e+02  -6.166921e+02
   3.752924e+02  -3.044524e+02
   6.437533e+02   1.040970e+02
   3.133097e+02   4.074513e+02
  -1.499249e+02   3.401165e+02
  -4.071752e+02   5.431858e+01
  -2.029875e+02  -1.598511e+02
   6.797967e+01  -1.048691e+02
   1.363750e+02   1.458271e+02
  -1.431144e+02   1.510546e+02
  -3.377289e+02  -4.757127e+01
  -1.730249e+02  -2.816634e+02
   1.873972e+02  -2.758915e+02
   3.798648e+02  -7.812495e+01
   2.819557e+02   9.899566e+01
  -2.437963e+01   2.794855e+02
  -2.228665e+02   3.851712e+02
  -3.671185e+02   1.948837e+02
  -2.530356e+02  -1.813933e+02
  -6.251478e+01  -4.338138e+02
   9.774068e+01  -4.136210e+02
   1.012020e+02  -1.292490e+02
   2.393698e+01  -1.508112e+01
   5.206479e+01  -9.673396e+01
   2.518208e+02  -1.356221e+02
   2.859669e+02   9.610819e+01
   1.391823e+02   3.162005e+02
  -6.836257e+01   2.490322e+02
  -2.297150e+02  -5.307059e-01
  -1.925590e+02  -2.796472e+02
   3.202476e+01  -3.147967e+02
   2.892324e+02  -1.671124e+02
   3.524873e+02   1.752681e+02
   2.087921e+02   3.690204e+02
  -8.561861e+01   3.127429e+02
  -2.050133e+02   1.096334e+02
  -1.570962e+02   3.984290e+01
  -1.087128e+02   3.769959e+01
  -2.695840e+02   3.199687e+01
  -4.243003e+02  -4.521228e+01
  -3.337609e+02  -3.015012e+02
  -2.337839e-01  -4.315851e+02
   3.715039e+02  -4.624770e+02
   4.867968e+02  -1.867328e+02
   3.085234e+02   1.314795e+02
   3.302438e+01   3.460803e+02
  -1.355490e+02   2.403093e+02
  -8.395719e+01   3.695665e+01
   1.577713e+02  -7.941211e+01
   1.591763e+02   1.366445e+01
   4.533768e+01   2.215303e+02
  -1.574815e+02   1.298256e+02
  -1.681811e+02  -5.273111e+01
   2.208571e+01  -1.888234e+02
   2.111702e+02  -4.299616e+01
   1.311454e+02   2.472979e+02
   5.511039e+01   3.664379e+02
  -2.530786e+02   2.112764e+02
  -3.496420e+02  -6.468435e+01
  -2.675772e+02  -2.486377e+02
  -8.634590e+01  -2.493779e+02
   1.229349e+02  -1.617984e+02
   1.548325e+02  -3.392803e+01
   3.081975e+01  -3.377282e+00
  -7.084491e+01  -2.099151e+01
  -4.423131e+01  -1.104934e+02
   1.233544e+02  -6.545980e+01
   1.605136e+02   3.818180e+01
   2.240776e+01   8.265592e+01
  -7.110421e+01   1.962073e+01
  -9.924538e+01  -8.287806e+01
   1.379919e+02  -9.326303e+01
   3.280627e+02   8.345816e+00
   2.954533e+02   1.198441e+02
   7.733257e+01   2.452046e+02
  -2.251332e+02   2.451121e+02
  -2.839420e+02   1.007694e+02
  -1.426106e+02  -3.512191e+01
   9.151662e+00  -1.092140e+02
   8.128201e+01  -2.430195e+01
  -4.788286e+01   9.905455e+01
  -1.991231e+02   7.098144e+01
  -2.232690e+02  -1.288967e+02
  -5.745323e+01  -2.426902e+02
   4.943283e+01  -1.904389e+02
   1.322660e+02  -1.156466e+01
   8.742392e+01   2.869122e+01
  -3.581856e+01  -4.122583e+01
  -6.884994e+00  -1.286672e+02
   8.303246e+01  -1.024745e+02
   1.618083e+02  -1.033172e+01
   1.944408e+02   1.544177e+02
   1.543618e-01   2.061635e+02
  -1.797963e+02   1.118470e+02
  -1.951120e+02   4.343491e+01
  -4.420461e+01  -1.394302e+02
   6.135327e+01  -9.774669e+01
   9.493943e+01  -4.163141e+01
  -2.840373e+01   8.574799e+00
  -6.315945e+01   2.631534e+01
   1.936213e+00  -4.751620e+01
   6.247778e+01  -1.242691e+01
   1.154785e+02   9.398328e+01
   3.327424e+01   1.978711e+02
  -1.201844e+02   1.527700e+02
  -2.394015e+02   2.157517e+01
  -2.033891e+02  -1.573859e+02
   1.551433e+01  -2.136040e+02
   1.328481e+02  -1.909405e+02
   1.494351e+02  -1.837330e+01
   5.135405e+01   7.669909e+01
   3.186885e+01   2.464868e+01
   3.935830e+01  -7.959817e+00
   7.251637e+01   4.006920e+00
   5.169797e+01   2.889992e+01
  -4.397937e+01   1.386020e+02
  -1.377794e+02   3.541876e+01
  -1.200344e+02  -3.855202e+01
   6.781888e+00  -1.162914e+02
   1.266893e+02  -8.541594e+01
   2.287707e+02   8.352603e+01
   9.971947e+01   1.840866e+02
  -1.174447e+02   2.080826e+02
  -3.021114e+02   5.363209e+01
  -2.898838e+02  -9.134680e+01
  -1.012360e+02  -1.418813e+02
   5.384832e+01  -1.050286e+02
   9.957119e+01  -7.720213e+01
   8.187417e+01  -4.953941e+01
   6.987152e+01  -9.655641e+01
   8.850095e+01  -8.736532e+01
   1.379106e+02   2.967941e+01
   8.971856e+01   1.730395e+02
  -3.855719e+00   2.121873e+02
  -8.714699e+01   1.995126e+02
  -1.999567e+02   1.922428e+01
  -1.401111e+02  -1.370265e+02
   2.177877e+01  -1.715745e+02
   9.147438e+01  -7.882475e+01
   6.536801e+01  -5.798139e+00
  -1.707332e+01   2.166069e+01
   2.926902e+01   3.816826e+01
   7.466681e+01   5.438297e+00
   1.139093e+02  -9.515723e+00
   1.910070e+01   2.978848e+01
  -4.272579e+01   1.676674e+01
  -1.871686e+02   2.833871e+01
  -1.159786e+02  -6.351876e+01
   3.036508e+01  -9.215087e+01
   1.575769e+02  -1.050710e+02
   1.440905e+02  -2.179203e+01
   5.923767e+01   3.315036e+01
  -5.978285e+01   3.839897e+01
  -8.372246e+01  -4.854914e+01
  -4.102672e+01  -5.977423e+01
   6.395257e+01  -1.027886e+02
   1.062976e+02   4.246040e+01
   3.732870e+01   7.503396e+01
   3.810440e+01   4.234704e+01
   5.965436e+01   1.897107e+01
   1.006145e+02  -2.610761e+01
   5.494991e+01   8.592907e+01
  -4.508357e+01   1.988846e+02
  -1.567222e+02   1.254358e+02
  -1.756329e+02   4.594210e+01
  -1.342930e+02  -1.020206e+02
   2.356574e+01  -1.244609e+02
   9.015723e+01  -4.413546e+01
   4.524055e+01   2.647798e+01
  -7.729606e+01   4.274980e+01
  -1.526630e+02  -5.766754e+01
  -8.106771e+01  -7.452967e+01
   7.060055e+01  -1.304114e+02
   2.126328e+02  -3.396552e+01
   1.375228e+02  -2.025829e+01
   2.998979e+01   8.345906e+01
  -8.227531e+01   7.890570e+01
  -4.747154e+01  -2.113658e+00
   3.933883e+01  -1.432523e+01
   6.484560e+01   2.463923e+01
   6.345601e+00   1.361069e+02
  -7.743318e+01   1.946560e+02
  -1.864127e+02   3.956759e+01
  -1.449553e+02  -1.163324e+02
  -1.429844e+01  -2.010566e+02
   8.298127e+01  -1.487920e+02
   1.381025e+02   1.239923e+01
   5.381407e+01   1.164330e+02
   1.677537e+01   1.353575e+02
  -4.711363e+01   2.174734e+01
  -9.179451e+01  -5.980513e+01
  -2.162378e+01  -5.153459e+01
  -2.144648e+01  -8.103420e+00
   3.421637e+00  -3.195421e+01
  -7.750633e+01  -7.754884e+01
  -4.261710e+01  -1.514426e+02
   5.840217e+01  -6.079158e+01
   1.265144e+02   2.006227e+01
   1.375615e+02   7.383179e+01
  -2.270335e+00   2.426352e+01
  -9.681821e+01   1.334822e+01
  -1.143284e+02  -4.722965e+00
   1.505216e+01   1.518432e+01
   3.821516e+01   2.283594e+01
  -1.230986e+01  -8.741797e+00
  -2.359358e+01  -1.008978e+01
   2.821447e+01   8.862367e+00
   9.248901e+01  -8.025429e+00
   6.449705e+01   7.429735e+00
   4.305428e+01   9.064290e+01
  -1.275161e+02   1.571793e+02
  -1.668750e+02   6.504245e+01
  -1.581776e+02  -4.845841e+01
   2.617085e+00  -1.821268e+02
   1.263533e+02  -1.713181e+02
   1.372048e+02  -3.202675e+01
   5.926182e+01   4.523670e+01
   7.928922e-01   2.615668e+01
   3.289860e+01  -2.003485e+01
   4.655734e+01  -1.410396e+01
   2.703515e+01   4.717582e+01
   2.007634e+01   7.546207e+01
  -4.521078e+01   7.832874e+01
  -5.584372e+01  -2.891538e+01
  -9.282997e+01  -1.464990e+02
   8.668567e+00  -1.161370e+02
   8.282481e+01  -4.319312e+01
   8.273382e+01   9.349646e+01
   2.840921e+01   9.554432e+01
  -1.096361e+02   1.786067e+01
  -1.234069e+02  -4.842015e+00
  -1.910149e+01  -5.315854e+01
   3.457612e+01  -3.315660e+01
   2.386657e+01  -8.139066e+01
  -1.986487e+01  -5.905290e+00
  -6.685335e+01  -9.185856e+00
   7.811503e+00  -6.139653e+01
   1.240913e+02  -4.412972e+01
   1.109630e+02  -7.566459e+01
   6.320087e+01   8.834017e+00
  -2.596594e+01   1.155976e+02
  -8.751532e+01   1.013482e+02
  -3.222769e+01  -9.572288e+00
  -3.805931e+00  -4.309742e+01
   2.526896e+01  -2.973913e+01
   6.098770e+01  -3.393376e+00
   8.929279e+00   8.029067e+01
  -1.260080e+01  -1.049201e+01
  -1.228586e+01   1.951842e+01
  -4.525199e+01  -2.669787e+01
   7.821021e+00  -9.741985e+00
  -2.299901e+01   1.693854e+01
   2.257933e+01   2.595083e+01
  -7.631663e-01  -5.506405e+01
   3.319130e+00  -6.142003e+01
   3.600007e+01  -2.568080e+01
  -3.907172e-01   1.675613e+01
  -2.840519e+01   5.488702e+01
  -3.865329e+01   4.678619e+01
  -4.374181e+01  -4.520237e+01
   6.103698e+00  -9.611659e+01
   4.348790e+01  -6.252313e+01
   1.095063e+02   1.116869e+01
   5.538997e+01   5.790075e+01
  -3.261428e+01   4.807228e+01
  -5.215650e+01   2.006909e+01
  -5.386373e+01   2.952275e+01
   4.847105e+01   3.399589e+01
   3.232420e+01   2.695248e+00
  -9.882372e+01   2.985672e+01
  -6.778533e+01  -1.075092e+01
