
 $NMID
 id='ANONYMOUS ', fmtdat='(2E16.6)'
 volume=1.0
 tramp=1.0
 $END
   4.179856e+03   1.300758e+02
   2.387005e+03   2.593557e+03
  -6.197929e+02   2.591525e+03
  -1.987164e+03   1.041210e+03
  -9.248944e+02  -5.188327e+02
   5.996613e+02  -5.162299e+02
   8.637986e+02   4.042769e+02
  -1.615104e+01   1.054582e+03
  -8.175653e+02   7.951102e+02
  -9.511957e+02  -7.901948e+01
  -4.543601e+02  -7.995072e+02
   2.083821e+02  -9.403666e+02
   6.516875e+02  -1.173778e+02
   3.396542e+02   6.610217e+02
  -2.851154e+02   7.246030e+02
  -6.056159e+02   1.603523e+01
  -2.778484e+02  -6.874309e+02
   3.154491e+02  -6.440046e+02
   5.931181e+02  -1.186463e+02
   4.466299e+02   3.870147e+02
   1.308240e+01   4.371320e+02
  -2.742924e+02   2.508097e+02
  -2.249104e+02   1.339290e+01
   1.458756e+02  -6.205230e+01
   4.433393e+02   1.593926e+02
   1.577355e+02   4.606032e+02
  -4.852029e+02   4.000511e+02
  -8.771276e+02  -9.227140e+01
  -4.413725e+02  -6.053237e+02
   3.641898e+02  -5.001268e+02
   7.320664e+02   1.873444e+01
   3.321450e+02   4.992585e+02
  -2.885360e+02   5.214807e+02
  -5.821878e+02   1.865797e+02
  -4.092043e+02  -2.210450e+02
  -9.942475e+01  -4.566724e+02
   2.306788e+02  -2.478767e+02
   1.311932e+02   2.400225e+02
  -2.085956e+02   3.616864e+02
  -4.443451e+02  -3.935939e+01
  -2.057111e+02  -6.475256e+02
   3.108390e+02  -6.944708e+02
   5.439940e+02  -1.774540e+01
   2.083236e+02   5.270037e+02
  -2.696965e+02   3.101384e+02
  -3.493004e+02  -3.327576e+02
   8.066120e+01  -5.289889e+02
   5.345877e+02  -1.136473e+02
   6.098227e+02   3.368025e+02
   1.286427e+02   5.743917e+02
  -3.837081e+02   3.482308e+02
  -6.336247e+02  -7.314427e+01
  -3.224694e+02  -3.858232e+02
   1.444396e+02  -3.422716e+02
   4.464939e+02  -4.389370e+01
   2.550115e+02   1.795714e+02
  -1.278086e+02   7.392287e+01
  -1.556962e+02  -1.563565e+02
   1.517238e+02  -1.592662e+02
   3.552082e+02   9.191496e+01
   1.681801e+02   3.276181e+02
  -2.336399e+02   2.550968e+02
  -3.808570e+02   7.921973e+01
  -2.469535e+02  -1.008059e+02
  -3.837953e+00  -2.738351e+02
   2.742047e+02  -3.591597e+02
   3.738391e+02  -2.225751e+02
   2.707939e+02   1.690820e+02
   7.655680e+01   4.329316e+02
  -1.053653e+02   3.788333e+02
  -1.093866e+02   9.637588e+01
  -3.626547e+01   5.403161e+01
  -5.105587e+01   1.204598e+02
  -2.346297e+02   1.581865e+02
  -2.658479e+02  -5.969324e+01
  -1.721816e+02  -2.742132e+02
   7.028158e+01  -2.803993e+02
   2.020579e+02  -3.986445e+01
   1.631907e+02   2.523808e+02
  -1.636946e+01   3.269065e+02
  -3.170418e+02   1.230511e+02
  -3.850662e+02  -2.338617e+02
  -1.919312e+02  -3.815805e+02
   1.216585e+02  -3.190817e+02
   2.360657e+02  -1.407964e+02
   1.695643e+02  -1.025292e+01
   9.994355e+01  -5.322942e+01
   2.102923e+02  -6.279566e+01
   4.242453e+02   4.342599e+01
   3.230894e+02   2.806378e+02
   2.631383e+01   4.285834e+02
  -3.731293e+02   4.349624e+02
  -5.010657e+02   1.821500e+02
  -3.364454e+02  -9.878254e+01
  -6.079890e+01  -2.711464e+02
   1.376541e+02  -2.829096e+02
   7.581073e+01   1.913217e+01
  -1.454942e+02   1.083782e+02
  -1.882579e+02   1.085165e+01
  -5.018809e+01  -1.878999e+02
   1.590555e+02  -1.816370e+02
   1.609930e+02   5.861546e+01
  -9.858026e+00   1.534605e+02
  -1.768894e+02   4.043948e+01
  -1.776075e+02  -2.488113e+02
   4.236952e+00  -3.623361e+02
   2.452653e+02  -1.865562e+02
   3.003176e+02   6.197356e+01
   2.635610e+02   2.554564e+02
   9.639443e+01   2.870954e+02
  -1.372136e+02   1.650784e+02
  -1.593011e+02   5.244256e+01
  -5.570903e+01  -3.777794e+01
   5.066572e+01   4.003196e+01
   3.546242e+01   1.607956e+02
  -1.196100e+02   8.238746e+01
  -1.885335e+02  -1.278841e+01
  -3.211522e+00  -8.719820e+01
   9.945401e+01  -6.386335e+01
   6.416692e+01   9.517943e+01
  -1.425081e+02   9.473957e+01
  -2.985651e+02   1.183186e+01
  -2.650433e+02  -1.611664e+02
  -4.819984e+01  -2.665943e+02
   9.638549e+01  -2.649744e+02
   2.795417e+02  -1.078662e+02
   2.046909e+02   6.302640e+01
  -1.168973e+01   9.459890e+01
  -5.559623e+01  -7.408222e+00
   3.603453e+01  -1.121918e+02
   1.496465e+02  -4.959293e+01
   1.880940e+02   7.168610e+01
   7.035984e+01   2.004224e+02
  -7.504661e+01   1.568652e+02
  -1.612263e+02   5.825578e+01
  -7.499270e+01  -3.084913e+01
   3.354661e+01  -2.496157e+01
   8.183806e+01   7.577169e+01
  -1.036921e+02   1.276511e+02
  -2.029119e+02   4.339799e+01
  -1.807254e+02  -1.388881e+02
  -2.214835e+01  -2.144787e+02
   1.634692e+02  -1.913289e+02
   1.934328e+02  -1.699051e+01
   7.230115e+01   1.234126e+02
  -5.141456e+01   1.379265e+02
  -1.287532e+02   3.298838e+01
  -2.897735e+01  -3.315575e+01
   2.187814e+00  -1.253045e+01
  -5.823078e+01   1.981575e+01
  -9.489951e+01  -4.017624e+00
  -1.016401e+02  -8.138066e+01
  -2.786933e+01  -2.094555e+02
   9.762433e+01  -1.605445e+02
   2.542942e+02  -3.322687e+01
   1.828177e+02   1.642491e+02
   3.464897e+01   2.174014e+02
  -1.371106e+02   1.565960e+02
  -1.582998e+02   4.668887e+01
  -6.837623e+01  -4.139249e+01
  -6.800832e+00  -3.197534e+01
  -5.005907e+01   1.141880e+01
  -1.156192e+02   1.038485e+01
  -3.466400e+01  -5.961814e+01
   2.953230e+01  -9.215640e+01
   9.774914e+01  -3.083160e+01
   9.070193e+01   4.592169e+01
   4.346221e+00   1.176140e+02
  -1.207936e+02   8.431744e+01
  -2.195281e+02  -6.677933e+01
  -8.183129e+01  -2.176536e+02
   1.153094e+02  -2.130896e+02
   2.425908e+02  -8.231680e+01
   2.622451e+02   5.169417e+01
   1.332568e+02   1.766599e+02
  -7.625156e+01   1.630005e+02
  -8.632773e+01   9.158653e+01
  -9.119824e+01   4.809783e+01
  -9.932714e+01   1.022304e+02
  -6.681915e+01   8.857378e+01
  -1.100785e+02  -2.106151e+01
  -1.378810e+02  -1.441113e+02
  -2.252811e+01  -2.154699e+02
   9.425118e+01  -1.752790e+02
   1.737556e+02  -8.672695e+00
   1.311026e+02   1.092178e+02
   1.118844e+01   1.518918e+02
  -8.244418e+01   1.061565e+02
  -7.068657e+01  -4.871601e+00
   2.864175e+01  -5.447111e+01
  -5.692858e+00  -6.200473e+01
  -3.852896e+01  -1.523745e+01
  -9.695931e+01  -9.213561e+00
  -3.117182e+01  -4.492069e+01
   7.279476e+01  -4.020542e+01
   1.470877e+02  -3.348397e+01
   1.557835e+02   2.756966e+01
   3.376865e+01   5.341152e+01
  -1.193415e+02   1.091851e+02
  -1.680131e+02   2.843141e+01
  -3.972114e+01  -8.404874e+01
   4.629244e+01  -5.624257e+01
   3.250313e+01   2.548552e+01
  -1.013976e+01   6.797885e+01
  -5.105449e+01   9.151961e+01
  -6.716669e+01   9.502750e-02
  -4.513408e+00  -3.842272e+01
  -6.255591e+01  -1.012565e+01
  -6.053034e+01   2.961098e+00
  -5.968566e+01  -9.297925e+00
  -2.100882e+01  -5.991736e+01
   3.033569e+01  -1.442728e+02
   1.072896e+02  -1.659605e+02
   1.563017e+02  -2.208905e+01
   1.550540e+02   7.356340e+01
   3.426761e+01   1.700458e+02
  -1.092384e+02   6.300055e+01
  -5.832916e+01  -7.294871e+00
   7.309206e+01  -8.213577e+00
   1.314188e+02   6.279109e+00
   1.042685e+02   1.009066e+02
  -7.190315e+01   1.603945e+02
  -1.799604e+02   5.883149e+01
  -1.588663e+02  -3.490553e+01
  -4.451904e+01  -6.760998e+01
   4.487667e+01  -6.700209e+01
   5.182140e+01  -2.025800e+01
  -2.948943e+01   3.282355e+01
  -1.181533e+02  -2.593695e+01
  -3.208179e+01  -1.191561e+02
   1.022453e+02  -1.483841e+02
   1.851582e+02  -5.486551e+01
   1.483782e+02   9.572908e+01
   1.959647e+01   2.179028e+02
  -1.020947e+02   1.146840e+02
  -1.240349e+02   9.617223e+00
  -1.109425e+01  -1.490757e+02
   1.975189e+01  -1.118237e+02
  -2.334592e+00  -1.454630e+01
   2.381543e+01   6.291488e+01
   1.601270e+01  -3.748742e+00
  -7.662216e+00  -3.775820e+01
   2.118899e+01  -3.671811e+00
   8.610492e+01   8.159017e+01
   3.868292e+01   9.080801e+01
  -6.130533e+01   7.608836e+00
  -1.521876e+02  -2.838697e+01
  -1.515329e+02  -5.000724e+01
  -2.423615e+01  -5.258038e+01
   6.238256e+01   1.973173e+01
   5.862512e+01  -2.831871e+00
   3.812266e+01   8.241997e+00
  -4.351637e-01   3.272169e+01
   4.468374e+00  -1.027727e+00
   9.919064e+00   3.193056e+01
  -2.017019e+01  -6.903651e+00
  -2.081289e+01   7.240668e+00
  -1.007776e+02  -6.241622e+00
  -5.782170e-01  -7.260936e+01
   1.275663e+02  -1.254822e+02
   2.037610e+02  -1.613110e+01
   1.508546e+02   8.459151e+01
   1.439397e+01   1.408653e+02
  -8.341516e+01   1.545796e+02
  -8.909890e+01   4.043242e+01
  -5.289502e+01  -2.573829e+01
  -3.905172e+01  -3.395503e+01
  -1.889895e+01  -3.249008e+01
   2.279283e+01  -1.298869e+01
  -1.444640e+01  -6.672582e+01
  -7.195187e+00  -7.504714e+01
   7.747489e+00  -6.570066e+01
   6.701428e+01  -2.345183e+01
   1.243956e+02   1.193013e+02
   2.743772e+01   1.271253e+02
  -9.381298e+01   2.875045e+01
  -1.210229e+02  -9.410839e+01
  -2.388973e+01  -1.168164e+02
   6.630561e+01  -9.433189e+01
   8.904399e+01   4.292519e+01
   5.772414e+01   7.059512e+01
  -4.190839e+00   1.080089e+02
  -2.943923e+00   1.384768e+01
   2.009106e+01   1.809549e+01
   3.190831e+01  -1.208205e+01
   1.667887e+01   2.012834e+01
  -3.491967e+01   9.504760e+01
  -1.240320e+02   7.386374e+01
  -8.579876e+01  -3.329938e+01
  -1.389343e+01  -1.063762e+02
   6.321450e+01  -1.181318e+02
   5.179739e+01  -2.267576e+01
   2.549782e+01   4.804079e+01
  -1.488489e+01   6.710948e+01
  -2.863547e+01  -3.625595e+01
  -2.932146e+01  -2.899969e+01
   1.781278e+01  -4.782396e+01
   4.168559e+01  -1.439151e+01
   2.307766e+01   4.800201e+01
   1.105730e+01   2.602473e+01
   1.925069e+01  -2.730819e+01
  -1.345939e+01  -2.960740e+01
   8.324440e-01   5.201628e+01
  -4.470437e+01   5.187974e+01
  -7.791498e+00   1.857688e+01
  -9.216307e+00  -4.646439e+01
   1.841540e+01  -4.800055e+01
   7.804170e+01  -4.350004e+01
   4.753323e+01   2.014412e+01
   2.002246e+01   5.197813e+01
  -7.686943e+01   4.532027e+01
  -7.890989e+01   2.881863e+01
  -5.085090e+01  -6.414405e+01
   1.981011e+01  -4.264078e+01
   7.015185e+01  -3.517614e+01
   1.944706e+01  -4.047388e+01
  -3.284464e+01  -3.250192e+01
  -6.806719e+01  -1.253607e+01
   7.024709e+00  -9.315912e+00
   6.287217e+01  -2.760055e+01
