
 $NMID
 id='ANONYMOUS ', fmtdat='(2E16.6)'
 volume=1.0
 tramp=1.0
 $END
   3.944721e+03  -8.351906e+01
   2.442745e+03   2.119570e+03
  -5.178113e+02   2.451799e+03
  -1.877677e+03   9.349932e+02
  -9.020307e+02  -5.490698e+02
   5.261983e+02  -4.794697e+02
   7.965860e+02   3.560330e+02
   6.014226e+00   9.652179e+02
  -7.746390e+02   7.356060e+02
  -8.886555e+02  -9.245749e+01
  -4.161513e+02  -8.097688e+02
   1.854882e+02  -8.124009e+02
   6.036835e+02  -9.539363e+01
   3.195557e+02   6.481707e+02
  -2.038028e+02   6.866888e+02
  -5.680062e+02   9.933644e+00
  -2.989178e+02  -6.838276e+02
   2.757349e+02  -6.361201e+02
   5.488846e+02  -1.436759e+02
   3.885665e+02   2.957661e+02
   1.431789e+01   4.236748e+02
  -2.130011e+02   2.223351e+02
  -1.901452e+02  -1.875751e+01
   1.323533e+02  -2.483896e+01
   3.594088e+02   1.149877e+02
   1.917172e+02   4.160785e+02
  -4.179803e+02   4.215754e+02
  -8.085233e+02  -7.426788e+01
  -3.688333e+02  -4.440529e+02
   2.776784e+02  -4.593097e+02
   6.729546e+02   4.533630e+00
   2.998959e+02   4.362843e+02
  -2.578823e+02   4.946478e+02
  -5.361918e+02   2.095520e+02
  -4.262380e+02  -1.974940e+02
  -8.325935e+01  -4.238862e+02
   1.979866e+02  -2.493417e+02
   1.390752e+02   1.856105e+02
  -2.105960e+02   3.943679e+02
  -4.215894e+02  -2.601466e+01
  -1.969052e+02  -6.297001e+02
   3.260376e+02  -6.506183e+02
   5.965826e+02   1.828879e+01
   2.097660e+02   4.926336e+02
  -2.679911e+02   3.006913e+02
  -3.771652e+02  -3.020224e+02
   7.857684e+01  -5.431910e+02
   5.398191e+02  -8.402315e+01
   5.629849e+02   3.231635e+02
   1.209802e+02   5.533407e+02
  -3.339408e+02   3.636596e+02
  -5.773677e+02  -1.214696e+02
  -3.273444e+02  -3.636165e+02
   1.201472e+02  -3.324049e+02
   4.115538e+02  -5.146128e+01
   2.350436e+02   1.534234e+02
  -1.138905e+02   1.008185e+02
  -1.510479e+02  -1.623664e+02
   1.164163e+02  -1.952162e+02
   2.913579e+02   7.993376e+01
   1.832994e+02   2.184801e+02
  -1.894277e+02   2.410359e+02
  -3.059128e+02   1.066599e+02
  -1.925738e+02  -9.885014e+01
   9.151042e+00  -2.096942e+02
   1.853259e+02  -3.330764e+02
   3.079568e+02  -1.874327e+02
   2.678486e+02   1.391752e+02
   7.274920e+01   3.988919e+02
  -7.857394e+01   3.816807e+02
  -1.023806e+02   1.251272e+02
  -3.557149e+01   1.514936e+01
  -3.727902e+01   5.849803e+01
  -2.124856e+02   1.498769e+02
  -2.332529e+02  -6.124754e+01
  -1.281225e+02  -2.363036e+02
   4.015170e+01  -2.550695e+02
   1.996125e+02  -4.443377e+01
   1.719050e+02   2.200319e+02
  -1.802389e+01   2.442855e+02
  -2.528951e+02   1.113843e+02
  -3.100373e+02  -1.767484e+02
  -1.773963e+02  -3.257927e+02
   8.261306e+01  -3.130997e+02
   2.174686e+02  -1.129677e+02
   1.586277e+02  -1.235933e+00
   6.506895e+01  -4.885478e+01
   1.987087e+02  -5.369543e+01
   3.769168e+02   3.000593e+01
   3.281272e+02   2.824187e+02
   2.825418e+01   4.515331e+02
  -3.838763e+02   3.418478e+02
  -4.707507e+02   1.973481e+02
  -3.362806e+02  -1.103031e+02
  -2.631776e+01  -2.452678e+02
   1.255118e+02  -2.131546e+02
   8.836266e+01  -7.467522e+01
  -7.391144e+01   6.811568e+01
  -2.026200e+02   6.027565e+00
  -6.174109e+01  -1.939079e+02
   1.263470e+02  -1.481354e+02
   1.414697e+02   5.398780e+01
  -6.240176e-01   2.063550e+02
  -1.829872e+02   5.140606e+01
  -1.427860e+02  -2.196850e+02
   1.732208e+01  -3.311555e+02
   2.185769e+02  -1.873000e+02
   2.694003e+02   9.606408e+01
   2.591414e+02   2.190526e+02
   5.286151e+01   2.668411e+02
  -1.161052e+02   1.404757e+02
  -1.955457e+02   6.577536e+00
  -3.717389e+01  -3.233136e+01
   6.342088e+01   7.237587e+01
   3.977110e+00   1.143351e+02
  -1.275803e+02   1.031958e+02
  -1.874148e+02  -2.534681e+01
  -4.113986e+01  -1.014758e+02
   4.663407e+01  -2.273167e+01
   4.460794e+01   9.000942e+01
  -8.493976e+01   9.535224e+01
  -2.630090e+02  -4.116836e+00
  -2.402973e+02  -1.286710e+02
  -9.010959e+01  -2.345972e+02
   2.109329e+02  -2.267728e+02
   2.634221e+02  -1.333231e+02
   1.489227e+02   8.781254e+01
  -3.452375e+01   1.156509e+02
  -1.097868e+02  -1.021293e+01
   1.968228e+01  -9.634850e+01
   1.251664e+02  -4.099213e+01
   2.024444e+02   1.347141e+02
   8.365449e+01   2.379862e+02
  -7.831080e+01   1.679130e+02
  -1.581677e+02   2.551003e+01
  -9.325478e+01  -6.695182e+01
   3.126268e+01  -4.184171e+01
   3.951473e+01   6.123264e+01
  -6.947924e+01   1.298014e+02
  -2.245341e+02   4.517958e+01
  -2.320246e+02  -1.537200e+02
  -2.590639e+01  -2.262417e+02
   1.345623e+02  -1.849489e+02
   1.679490e+02  -2.323960e+01
   6.207131e+01   8.895681e+01
  -5.294672e+01   7.868300e+01
  -8.079162e+01   1.761992e+01
  -3.216717e+01  -3.448887e+01
  -3.342575e+00   1.203419e+01
  -3.187712e+01   2.487144e+01
  -5.272342e+01  -2.232480e+01
  -7.220576e+01  -5.174507e+01
  -2.924222e+01  -1.957365e+02
   1.154997e+02  -1.228965e+02
   2.177571e+02  -5.289698e+00
   1.689946e+02   1.559662e+02
   4.274890e+01   2.428919e+02
  -1.034071e+02   1.689152e+02
  -1.000697e+02   5.635309e+01
  -6.724002e+01  -3.072678e+01
  -5.308499e+01  -3.900510e+01
  -5.789502e+01   2.394600e+01
  -7.434967e+01  -1.002671e+01
  -6.161840e+01  -4.331527e+01
   4.561133e+00  -8.088090e+01
   7.576689e+01  -9.254057e+01
   1.248489e+02   4.946191e+01
   4.921108e+00   7.472336e+01
  -1.315001e+02   6.720770e+01
  -2.154727e+02  -5.063515e+01
  -5.376061e+01  -1.921650e+02
   8.462182e+01  -1.814225e+02
   2.316421e+02  -7.862505e+01
   1.974157e+02   5.760936e+01
   1.226350e+02   1.575834e+02
  -5.835985e+01   1.417136e+02
  -8.533206e+01   7.752105e+01
  -7.329238e+01   8.825085e+01
  -3.922052e+01   8.607445e+01
  -7.594881e+01   7.349635e+01
  -9.977105e+01  -8.103093e+00
  -1.108274e+02  -1.584963e+02
  -2.082443e+01  -2.475216e+02
   1.202412e+02  -1.583883e+02
   1.922406e+02  -3.393971e+01
   1.176932e+02   1.244993e+02
   1.749990e+01   1.875906e+02
  -4.513697e+01   9.415586e+01
  -5.525366e+01  -1.160687e+01
  -1.481401e+01  -2.259966e+01
  -3.472578e-01  -6.736688e+01
  -4.567521e+01  -2.674628e+01
  -9.903199e+01   1.000781e+01
  -3.640095e+01  -3.026626e-01
   5.403428e+01  -5.214457e+01
   1.628906e+02  -2.576155e+01
   9.700286e+01   9.750224e+01
   2.382095e+01   5.318631e+01
  -1.120381e+02   7.598815e+01
  -1.725386e+02   3.011662e+01
  -1.028213e+01  -6.151106e+01
   8.604049e+01  -6.182535e+01
   4.396807e+01   2.428282e+01
  -1.098578e+01   9.105540e+01
  -8.696209e+01   7.275396e+01
  -5.553807e+01   1.281377e+01
  -5.889206e+01  -5.893042e+01
  -8.814620e+01  -4.485868e+01
  -7.695435e+01  -2.515911e+01
  -7.638230e+01  -2.808394e+01
   9.345576e+00  -7.422295e+01
   5.241238e+01  -1.423021e+02
   1.353010e+02  -1.263760e+02
   1.447142e+02  -5.253321e+01
   1.071598e+02   1.231154e+02
   1.641275e+00   1.344859e+02
  -7.456744e+01   6.134884e+01
  -5.414502e+01   9.175725e+00
   7.876703e+01  -4.108025e+01
   7.727990e+01   4.323830e+01
   4.815413e+01   1.496796e+02
  -6.922889e+01   1.070784e+02
  -2.272388e+02   7.452828e+01
  -1.330901e+02  -1.935573e+00
  -6.728021e+01  -7.875728e+01
   5.242556e+01  -5.075525e+01
   2.273867e+01   2.544015e+01
  -3.852548e+01  -1.692528e+00
  -1.056934e+02  -5.286000e+01
   4.671379e+00  -1.098519e+02
   7.530379e+01  -1.182981e+02
   1.724655e+02  -7.855307e+01
   1.165572e+02   9.310243e+01
   4.073255e+01   1.916938e+02
  -5.595674e+01   1.137385e+02
  -7.087033e+01   4.513288e+00
  -4.014530e+01  -1.256399e+02
   4.913412e+00  -8.269440e+01
   7.616433e+01   4.085392e+00
   4.470943e+01   3.452061e+01
   1.605760e+01  -3.817163e+00
   2.810515e+01  -3.432033e+01
  -2.292149e+01   2.362603e+01
   4.001103e+01   8.942153e+01
   3.775683e+01   9.397680e+01
  -9.636220e+01   4.454816e+01
  -1.482360e+02  -1.049984e+01
  -1.455445e+02  -3.579347e+01
   8.741382e+00  -5.973747e+01
   7.324594e+01  -2.558603e+01
   7.123167e+01  -3.407574e+01
   4.535147e+01   2.737934e+01
  -6.567247e+00   2.296530e+01
  -2.263650e+01   2.830335e+01
   3.642972e+01   1.376982e+01
  -5.891859e+00  -2.360915e+01
  -7.774306e+01  -3.154773e+01
  -1.070654e+02  -1.753527e+01
  -1.415769e+01  -6.781437e+01
   1.164269e+02  -9.817807e+01
   1.812571e+02  -8.307343e+01
   9.700120e+01   6.829349e+01
   4.621709e+01   1.509598e+02
  -8.776549e+01   1.256507e+02
  -1.292394e+02   1.168946e+02
  -4.899911e+01  -1.246576e+01
  -9.064487e+00  -4.291837e+01
   1.304322e+01   3.938166e+00
  -2.609608e+01   8.324573e+00
   1.028679e+00  -3.811653e+01
  -2.231319e+01  -1.086307e+02
  -1.536061e+01  -5.334158e+01
   4.488598e+01   2.861944e+01
   3.207268e+01   9.969179e+01
   2.955613e+01   1.033592e+02
  -5.702587e+01  -1.742011e+01
  -8.580822e+01  -7.377521e+01
  -3.122841e+01  -1.326381e+02
   2.395716e+01  -5.769198e+01
   8.884962e+01   3.995296e+01
   8.751568e+00   6.492121e+01
  -1.999449e+01   6.306514e+01
  -6.004252e+01   1.902886e+01
   2.225959e+01   1.223111e+01
   8.367994e+01   1.393441e+01
   6.762758e+01   1.142567e+01
  -7.995858e+01   2.939416e+01
  -1.036266e+02   4.980106e+01
  -8.178483e+01   2.358141e+01
  -2.171149e+01  -1.136149e+02
   3.074639e+01  -1.079953e+02
   6.328252e+01  -2.714206e+01
   9.292314e+00   5.578065e+01
  -6.114839e+01   1.791790e+01
  -1.974376e+01  -5.397037e+00
  -4.214167e+01  -4.430108e+01
  -1.044997e+01  -1.995129e+01
   3.608917e+01  -3.980577e+01
   6.223933e+01  -7.908697e+00
   2.766748e+01  -2.920509e+01
  -1.423387e+01  -1.533799e+01
   4.265322e+00   1.460898e+01
   1.077955e+01   3.681563e+01
  -2.121452e+01   2.616853e+01
  -1.102808e-01   6.691250e+00
  -3.671332e+01  -1.316452e+01
   4.877688e+00  -3.735755e+01
   3.646283e+01  -1.997334e+01
   4.056090e+01   4.411376e+01
   1.979738e+01   7.300198e+01
  -2.628256e+01   1.229983e+01
  -6.205048e+01   9.868579e+00
  -1.677848e+01  -5.641425e+01
   2.360550e+01  -1.318758e+01
   5.246123e+01  -1.546966e+01
   3.694729e+01  -3.353800e+00
  -3.035045e+01  -1.260765e+01
  -1.179389e+01   1.203324e+01
  -5.844851e+00  -4.167552e+01
   9.106565e+01  -5.566821e+01
