
 $NMID
 id='ANONYMOUS ', fmtdat='(2E16.6)'
 volume=1.0
 tramp=1.0
 $END
  -3.657049e+03   1.970248e+02
  -2.177594e+03  -2.062770e+03
   2.812330e+02  -2.304922e+03
   1.486138e+03  -1.058007e+03
   8.402144e+02   2.723039e+02
  -3.595513e+02   3.211168e+02
  -5.463382e+02  -3.453169e+02
   1.096807e+02  -7.109409e+02
   6.076976e+02  -6.284136e+02
   7.595976e+02   1.353981e+01
   3.870826e+02   6.235003e+02
  -9.978631e+01   7.328660e+02
  -4.495077e+02   1.134931e+02
  -2.906043e+02  -4.665601e+02
   1.350859e+02  -6.002847e+02
   4.643625e+02  -4.235033e+01
   2.774871e+02   5.402509e+02
  -2.317017e+02   5.590339e+02
  -4.755018e+02   1.969801e+02
  -3.857487e+02  -2.741879e+02
  -9.029251e+01  -3.859769e+02
   1.592613e+02  -2.272342e+02
   1.618454e+02  -6.566285e+01
  -1.742716e+02   1.795941e+01
  -2.586629e+02  -1.573076e+02
  -6.999874e+01  -3.847918e+02
   4.343680e+02  -2.477158e+02
   7.000716e+02   7.275263e+01
   2.922140e+02   4.173840e+02
  -3.287740e+02   3.442848e+02
  -5.485850e+02  -6.855135e+01
  -2.732988e+02  -4.192033e+02
   2.684354e+02  -3.903567e+02
   4.346372e+02  -1.512853e+02
   3.427234e+02   2.110166e+02
   7.448539e+01   3.310366e+02
  -1.194613e+02   1.854495e+02
  -5.444112e+01  -1.672800e+02
   1.771562e+02  -2.238285e+02
   2.522555e+02   6.480071e+01
   1.123820e+02   4.962430e+02
  -2.504127e+02   5.568790e+02
  -4.327874e+02   1.944417e+00
  -1.973663e+02  -4.148383e+02
   2.050116e+02  -2.252380e+02
   2.588663e+02   2.354903e+02
  -7.936895e+01   4.238618e+02
  -4.920739e+02   9.529557e+01
  -4.808335e+02  -3.564918e+02
  -1.547775e+02  -4.853359e+02
   3.014087e+02  -3.274886e+02
   5.167588e+02   5.608679e+01
   3.018881e+02   3.154815e+02
  -9.588162e+01   2.687476e+02
  -3.211630e+02   7.572302e+01
  -1.866212e+02  -7.723996e+01
   2.574515e+01  -7.142038e+01
   6.566414e+01   1.451627e+02
  -8.683890e+01   1.107784e+02
  -2.634806e+02  -1.063525e+02
  -1.345547e+02  -2.518907e+02
   1.806675e+02  -2.541041e+02
   3.013712e+02  -1.178675e+02
   2.576039e+02   8.468161e+01
  -4.535988e+01   2.753130e+02
  -2.390774e+02   3.193804e+02
  -3.469159e+02   1.732477e+02
  -2.410127e+02  -1.500277e+02
  -4.045555e+01  -4.244313e+02
   4.024502e+01  -3.259830e+02
   1.013451e+02  -1.109855e+02
   1.472647e+01  -2.860008e+01
   7.009067e+01  -1.027644e+02
   2.547806e+02  -8.260041e+01
   2.677234e+02   6.399282e+01
   7.862104e+01   2.545961e+02
  -1.092165e+02   2.386504e+02
  -2.332170e+02  -7.576709e+00
  -1.588406e+02  -2.429768e+02
   5.045552e+01  -2.708488e+02
   2.519504e+02  -7.564506e+01
   3.237360e+02   1.907475e+02
   1.585562e+02   2.999297e+02
  -1.940121e+01   2.723495e+02
  -1.667351e+02   1.252094e+02
  -1.445359e+02   4.551346e+01
  -1.037739e+02   4.139828e+01
  -2.196264e+02  -4.076294e+00
  -3.795688e+02  -6.631695e+01
  -3.006285e+02  -2.816655e+02
   1.465403e+01  -3.927333e+02
   3.905838e+02  -3.778913e+02
   4.098743e+02  -1.185265e+02
   2.442153e+02   6.997036e+01
   9.254626e+00   2.418145e+02
  -8.210918e+01   1.951529e+02
  -3.221012e+01   6.586940e+01
   1.167663e+02  -6.756504e+01
   1.624379e+02  -1.238257e+01
   5.423176e+01   1.351414e+02
  -1.248864e+02   1.615014e+02
  -1.435465e+02  -5.707387e+01
   4.158367e+01  -1.702701e+02
   1.628040e+02  -3.099377e+00
   1.270575e+02   2.602783e+02
  -4.306717e+01   3.206616e+02
  -2.110715e+02   1.694640e+02
  -3.287718e+02  -5.866566e+01
  -3.088529e+02  -2.456010e+02
  -8.943112e+01  -2.678371e+02
   1.197200e+02  -1.343678e+02
   1.205503e+02  -2.393397e+01
  -8.379287e+00   1.848030e+01
  -2.224593e+01  -5.269277e+01
  -1.639393e+01  -1.195050e+02
   1.126503e+02  -8.595119e+01
   1.475799e+02  -1.590991e+01
   2.616991e+01   3.732127e+01
  -1.202723e+02  -2.532625e+01
  -5.364504e+01  -5.199028e+01
   1.693383e+02  -7.176487e+01
   2.265087e+02   7.394381e+00
   2.417293e+02   1.607522e+02
   4.093717e+01   2.701247e+02
  -2.196875e+02   2.295333e+02
  -2.947623e+02   8.340152e+01
  -1.075402e+02  -6.295907e+01
   1.212549e+01  -1.224677e+02
   8.088475e+01   1.771393e+01
  -5.759040e+01   8.018486e+01
  -1.792064e+02   1.673558e+01
  -1.881564e+02  -8.799912e+01
  -6.414108e+01  -1.498625e+02
   8.700591e+01  -1.533918e+02
   1.379970e+02   2.406807e+01
   6.083759e+01   2.669126e+01
  -3.934744e+01   1.846541e-01
  -8.084231e+00  -1.194386e+02
   7.424685e+01  -1.003818e+02
   1.883361e+02  -2.935346e+01
   1.866351e+02   9.713500e+01
   1.160242e+01   1.910273e+02
  -1.168906e+02   1.042930e+02
  -1.497632e+02   2.695544e+01
  -7.156501e+01  -1.310230e+02
   5.658488e+01  -7.316541e+01
   8.147862e+01  -1.565362e+01
   5.066161e+01   4.964817e+01
  -2.793781e+01   3.068119e+01
   1.033449e+01  -5.066926e+01
   8.749205e+01  -1.405225e+01
   1.134421e+02   7.296679e+01
   2.060385e+01   1.834467e+02
  -1.620046e+02   1.459759e+02
  -2.372906e+02   1.614825e+01
  -1.764699e+02  -1.579186e+02
  -6.218302e+01  -2.218283e+02
   6.629196e+01  -1.486793e+02
   1.062594e+02  -3.248041e+01
   8.402481e+01   6.908877e+01
   7.062167e+01   7.788304e+01
   2.065320e+01  -2.532664e+01
   9.878478e+01   2.346673e+00
   6.554780e+01   7.319508e+01
  -3.615789e+01   8.671149e+01
  -8.966376e+01   7.824015e+01
  -1.086044e+02   2.247750e+01
   2.188334e+01  -1.090172e+02
   1.452092e+02  -1.044101e+02
   1.875092e+02   6.572942e+01
   6.540433e+01   1.977017e+02
  -1.009866e+02   2.117686e+02
  -2.180001e+02   7.731722e+01
  -2.345666e+02  -8.395218e+01
  -1.071522e+02  -1.536740e+02
   8.751056e+00  -1.093253e+02
   6.092747e+01  -6.222574e+01
   7.254426e+01  -7.533534e+01
   9.718566e+01  -1.112399e+02
   9.278630e+01  -7.136499e+01
   1.214229e+02   2.240958e+01
   1.080787e+02   1.470810e+02
   1.211651e+01   2.081550e+02
  -9.403851e+01   1.275694e+02
  -1.611974e+02   2.033759e+00
  -1.209842e+02  -1.255051e+02
  -1.105091e+01  -1.483081e+02
   4.119230e+01  -8.728785e+01
   5.300518e+01   3.023981e+01
   3.814331e+00   3.788970e+01
  -2.176272e+01   1.585161e+01
   5.874220e+01  -4.900515e+00
   6.141277e+01   2.073859e+01
   6.577632e+01   1.731187e+01
  -8.321381e+01   4.455914e+01
  -1.870692e+02  -3.776008e+01
  -1.377716e+02  -9.226358e+01
   4.586871e+00  -1.188915e+02
   1.167202e+02  -7.846329e+01
   1.345799e+02  -6.707959e+00
   5.222845e+01   3.316412e+01
  -6.531242e+01   2.732515e+01
  -7.683850e+01  -1.877340e+01
  -4.609001e+01  -6.660496e+01
   7.117420e+01  -5.131094e+01
   6.631625e+01  -1.023330e+01
   6.331403e+01   4.139576e+01
   9.533056e+00   6.091253e+00
   3.942112e+01   1.939265e+00
   3.313366e+01   1.402690e+01
   4.715819e+00   5.589279e+01
  -2.804948e+01   1.180119e+02
  -1.179611e+02   1.222087e+02
  -1.266896e+02   4.462377e+01
  -1.325502e+02  -6.427770e+01
  -3.733572e+01  -1.037395e+02
   7.092621e+01  -4.848693e+01
   6.349436e+01   2.659652e+01
  -5.483861e+01   3.925376e+01
  -1.084007e+02  -3.465973e+01
  -7.628958e+01  -1.072633e+02
   4.822704e+01  -9.166692e+01
   1.979208e+02  -5.858104e+01
   1.438464e+02   1.410063e+01
   5.692591e+01   8.122161e+01
  -5.165544e+01   5.176282e+01
  -9.300049e+01   3.489006e+01
   5.059473e+01  -6.805424e+01
   7.697523e+01   3.531868e+00
   6.190666e+01   7.982953e+01
  -1.115558e+02   1.423523e+02
  -1.219956e+02   8.619602e+01
  -1.448528e+02  -1.099604e+02
  -5.722483e+01  -1.831882e+02
   1.037503e+02  -1.559100e+02
   9.533745e+01   2.575574e-01
   3.589147e+01   1.221235e+02
   4.763362e+00   9.043826e+01
  -6.328204e+01   1.068754e+01
  -5.870132e+01  -2.359976e+01
   3.229039e+00  -1.488628e+01
  -2.765506e+01   2.417696e+01
  -1.467334e+01  -1.524300e+01
  -2.482865e+01  -6.560330e+01
  -2.563224e+01  -9.138490e+01
   7.593545e+01  -4.225315e+01
   1.338919e+02   4.848768e+01
   1.141952e+02   3.214199e+01
   7.384561e+00   1.112543e+01
  -6.637589e+01   4.032103e+01
  -1.079714e+02   4.154118e+01
   6.915617e+00   1.508397e+01
   2.316010e+01  -2.616437e+01
  -1.106402e+01  -6.692433e+01
  -5.267425e+01  -4.212553e+01
   2.420882e+01  -1.201950e+01
   9.386079e+01   1.524260e+01
   8.823957e+01   4.663391e+01
   2.812727e+01   1.176621e+02
  -1.334972e+02   1.242095e+02
  -1.290183e+02   2.206056e+01
  -1.089498e+02  -6.421808e+01
  -5.956033e+01  -1.094444e+02
   2.799236e+01  -1.107267e+02
   8.504246e+01  -6.114676e+01
   7.719456e+01   1.586869e+01
   2.562903e+01   3.522552e+01
  -3.732156e+00   1.400169e+01
   1.612622e+01   2.925386e+01
  -2.297109e-01   2.527727e+01
   4.395631e+01   6.264976e+01
   6.727514e+00   1.146456e+02
  -8.944320e+01  -3.786668e+01
  -4.876821e+01  -5.667622e+01
  -4.009610e+01  -1.091064e+02
   7.438548e+01  -1.943833e+01
   1.240305e+02   5.168342e+01
   2.497210e+01   1.216008e+02
  -4.127330e+01   4.813762e+01
  -1.138089e+02  -2.471932e+01
  -3.586978e+01  -6.306484e+01
   2.455198e+01  -6.961231e+01
   8.817802e+01  -3.428487e+01
  -3.547641e+01  -1.014944e+01
  -3.665724e+01   7.865061e+01
  -2.845591e+01  -2.652611e+01
   4.500863e+01  -6.905362e+01
   1.079770e+02  -4.924154e+01
   7.987060e+01   4.863517e+00
  -3.053461e+01   9.083556e+01
  -3.690979e+01   3.847297e+01
  -5.417175e+01   3.336988e+01
  -7.367245e+00  -5.340608e+01
   1.979173e+01  -6.739558e-01
   5.337968e+01   1.766899e+01
   6.752710e+01   7.355617e+01
  -7.484637e+00   1.266194e+01
  -7.585623e+01   4.375883e+01
  -2.111290e+01  -1.233079e+01
  -7.145660e+00   2.458845e+01
  -5.263145e+00  -2.445906e+01
   2.659711e+01   6.557134e+00
   2.049915e+01  -3.077142e+01
  -7.902011e+00  -4.133211e+01
   2.694810e+01   2.939648e+01
   7.144077e+01   3.835138e+01
   6.039197e+00   5.657956e+01
   3.878776e+00   1.169713e+01
  -8.872246e+01  -2.345539e+01
  -2.873088e+01  -6.952137e+01
   4.875263e+01   6.747396e+00
   6.102222e+01   1.380829e+01
   2.187532e+01   4.392533e+01
  -2.418820e+01   4.001427e+01
  -4.347833e+01  -1.567703e+01
  -2.948675e+01   1.145530e+01
   2.011163e+01  -4.475595e+00
  -4.581525e+00   1.859645e+01
  -3.440546e+01   5.073503e+01
  -5.966347e+01   2.522319e+01
