
 $NMID
 id='ANONYMOUS ', fmtdat='(2E16.6)'
 volume=1.0
 tramp=1.0
 $END
   3.114456e+03   2.002411e+02
   1.821430e+03   1.491257e+03
  -1.118758e+01   2.149088e+03
  -1.336534e+03   1.101529e+03
  -9.106613e+02   1.507664e+02
  -1.622120e+01  -2.071668e+02
   2.930736e+02   7.153035e+01
   5.224379e+00   5.696316e+02
  -3.906658e+02   5.105674e+02
  -5.688239e+02   3.210306e+01
  -3.622135e+02  -4.726958e+02
   1.401057e+01  -5.881985e+02
   2.512512e+02  -1.713646e+02
   2.151665e+02   3.643696e+02
  -6.772782e+01   5.317765e+02
  -3.387323e+02   6.005061e+01
  -2.925046e+02  -4.910133e+02
   1.036349e+02  -6.116131e+02
   4.686985e+02  -1.989682e+02
   3.784269e+02   1.750658e+02
   1.045406e+02   3.011384e+02
  -1.420723e+02   2.297144e+02
  -7.026539e+01   6.274496e+01
   1.393104e+02   9.493840e+01
   2.364588e+02   2.680627e+02
  -6.065541e+00   3.361791e+02
  -3.877908e+02   1.148167e+02
  -5.625275e+02  -1.325044e+02
  -1.927004e+02  -3.512243e+02
   3.214877e+02  -2.430168e+02
   4.463823e+02   1.386459e+02
   1.358112e+02   3.069357e+02
  -2.681220e+02   3.412900e+02
  -4.304770e+02   1.034559e+02
  -2.937279e+02  -1.906638e+02
  -4.240438e+01  -2.714849e+02
   1.617405e+01  -9.568782e+01
  -4.533636e+01   9.192890e+01
  -1.614615e+02   1.446089e+02
  -1.647460e+02  -1.400943e+02
  -4.014053e+01  -4.590467e+02
   2.375081e+02  -4.152808e+02
   3.254138e+02  -1.169796e+01
   1.177676e+02   3.028303e+02
  -1.399518e+02   1.024841e+02
  -1.440230e+02  -2.440687e+02
   8.506826e+01  -3.291769e+02
   4.204450e+02  -3.492280e+01
   4.167126e+02   3.493452e+02
   1.382548e+02   5.065856e+02
  -2.564003e+02   2.493761e+02
  -4.938330e+02  -4.609497e+01
  -3.110874e+02  -2.490846e+02
   5.684630e+01  -2.263628e+02
   2.563708e+02  -9.624417e+01
   1.774725e+02   1.335000e+01
   7.887230e+00   4.945155e+00
  -8.176388e+00  -7.051618e+01
   1.173479e+02  -2.777774e+01
   2.240677e+02   6.049611e+01
   9.087003e+01   1.786765e+02
  -1.262025e+02   2.236780e+02
  -3.051499e+02   1.324108e+02
  -2.285861e+02  -9.308317e+01
   5.098451e+01  -3.022986e+02
   2.883096e+02  -3.614550e+02
   3.225579e+02  -1.351707e+02
   1.809373e+02   1.803997e+02
   3.655792e+01   3.325393e+02
  -6.722387e+01   2.810793e+02
  -4.067201e+01   1.568211e+02
  -5.188541e+01   8.155572e+01
  -1.031622e+02   1.216527e+02
  -2.221466e+02   6.062452e+01
  -2.453408e+02  -1.314104e+02
  -6.022544e+01  -2.718116e+02
   9.107131e+01  -1.855001e+02
   2.011158e+02   5.362015e-02
   1.091006e+02   1.969540e+02
  -6.429800e+01   2.069209e+02
  -2.219870e+02   4.761113e+01
  -2.788443e+02  -1.868015e+02
  -1.577956e+02  -2.883859e+02
   6.745849e+01  -2.579305e+02
   1.371880e+02  -9.921664e+01
   1.661828e+02  -1.144654e+02
   1.587055e+02  -6.488215e+01
   2.666182e+02  -6.090188e+01
   4.099316e+02   9.135307e+01
   2.870433e+02   2.993471e+02
  -5.079062e+01   3.887335e+02
  -3.537196e+02   3.380216e+02
  -4.306150e+02   1.453684e+02
  -2.378208e+02  -1.027099e+02
  -1.046280e+01  -2.323739e+02
   9.253588e+01  -1.941983e+02
   1.463835e+01  -1.565433e+01
  -1.133720e+02   2.844832e+01
  -1.286163e+02  -2.797623e+01
   5.703025e+00  -1.429998e+02
   9.933406e+01  -9.496296e+01
   1.348950e+02   8.688677e+00
  -4.236393e+01   1.261687e+02
  -1.385058e+02  -1.628436e+01
  -9.898049e+01  -1.893913e+02
   8.536319e+01  -2.912190e+02
   2.244382e+02  -1.998043e+02
   3.148531e+02   4.893123e+01
   2.449814e+02   2.716103e+02
   1.803649e+01   2.591066e+02
  -1.043244e+02   1.037155e+02
  -1.355510e+02   1.094600e+01
  -2.736170e+01   2.375495e+01
   3.797887e+01   6.671233e+01
   6.039045e+00   1.324394e+02
  -1.012753e+02   2.095488e+01
  -1.474525e+02  -8.171066e+01
  -4.458278e+01  -3.615596e+01
   1.047596e+02  -1.110325e+01
   2.226413e+01   1.035876e+02
  -1.380490e+02   7.121766e+01
  -2.844617e+02   1.651948e+01
  -2.437856e+02  -1.292502e+02
   1.371547e+01  -2.277411e+02
   2.036421e+02  -2.103406e+02
   2.298617e+02  -8.176936e+01
   1.238508e+02   7.066384e+01
  -2.644319e+01   1.160826e+02
  -7.266656e+01  -3.082957e+01
   4.669868e+01  -7.555611e+01
   1.904158e+02  -1.044724e+01
   1.567749e+02   7.391218e+01
   4.272176e+01   1.960209e+02
  -1.212780e+02   8.999265e+01
  -1.146654e+02   9.020193e+00
  -3.000053e+01  -7.408361e+01
   5.871357e+01   3.774639e+01
  -8.063547e+00   8.728145e+01
  -7.649564e+01   9.337854e+01
  -1.947349e+02   1.976948e+00
  -1.814097e+02  -1.314900e+02
  -6.843898e+00  -1.795264e+02
   1.745701e+02  -1.092338e+02
   1.636644e+02  -2.390042e+01
   5.106228e+01   1.096355e+02
  -4.854241e+01   6.113010e+01
  -5.361411e+01   4.744712e+00
  -1.814945e+01  -2.741100e+01
   3.360668e+01  -6.304820e+00
  -8.331583e+00   1.542370e+01
  -9.142605e+01   2.536199e+01
  -9.515981e+01  -7.719383e+01
   2.767132e+01  -1.755631e+02
   1.262784e+02  -1.293070e+02
   2.085930e+02   1.816074e+01
   1.534396e+02   1.318320e+02
   4.774474e+01   2.368905e+02
  -9.459083e+01   1.580520e+02
  -1.459688e+02   2.478817e+01
  -7.081666e+01  -5.168116e+01
  -3.215325e+01  -4.410580e+01
  -8.580283e+01  -3.365847e+01
  -7.024093e+01  -4.702506e+00
  -3.598729e+01  -4.903401e+01
   3.005039e+01  -7.578157e+01
   1.311483e+02  -6.494728e+01
   1.205164e+02   3.653255e+01
  -2.415296e+01   1.475765e+02
  -1.757534e+02   7.926151e+01
  -1.886128e+02  -6.524474e+01
  -1.079279e+02  -2.266732e+02
   1.229204e+02  -2.329071e+02
   2.508897e+02  -1.061591e+02
   2.301901e+02   9.279074e+01
   6.121163e+01   1.050265e+02
  -2.593448e+01   1.616214e+02
  -6.439480e+01   6.290254e+01
  -7.393741e+01   6.441726e+01
  -5.541720e+01   8.803510e+01
  -9.891813e+01   1.022981e+02
  -1.362404e+02   1.000741e+01
  -9.132808e+01  -1.431349e+02
  -3.163410e+01  -2.164491e+02
   9.035838e+01  -1.559168e+02
   1.268477e+02   1.169493e+00
   1.355216e+02   1.163383e+02
  -2.472519e+01   1.310986e+02
  -8.704867e+01   4.785974e+01
  -9.135143e+01  -1.059550e+01
  -2.483866e+01  -5.928839e+01
  -2.585515e+01  -3.431921e+01
  -8.093378e+00   1.574451e+01
  -1.224748e+02  -3.123476e+01
  -6.264742e+01  -2.023384e+01
   1.073763e+02  -5.001857e+01
   1.598179e+02   5.148049e+01
   1.199895e+02   6.321645e+01
  -4.212810e+01   1.070784e+02
  -1.386671e+02   1.043535e+02
  -1.215736e+02  -1.369674e+01
  -1.102091e+01  -5.955013e+01
   6.262272e+01  -3.521658e+01
   7.372203e+01   2.126850e+01
   9.160637e+00   9.030313e+01
  -4.606310e+01   6.796795e+01
  -6.391025e+01   2.159032e+01
  -6.120275e+01  -2.781250e+01
  -5.520291e+01  -5.327141e+01
  -6.590255e+01  -8.785124e+00
  -6.234116e+01   2.693810e+01
  -1.919670e+01  -6.278392e+01
   4.532733e+00  -1.239073e+02
   1.498601e+02  -1.201889e+02
   1.845339e+02  -2.558330e+01
   1.505479e+02   1.019020e+02
   3.458319e+00   9.726622e+01
  -9.323426e+01   5.529577e+01
  -3.342799e+01  -5.145008e+01
   6.984652e+01  -2.219132e+01
   1.301192e+02   6.003499e+01
   7.934988e+01   7.687415e+01
  -8.684686e+01   8.042929e+01
  -1.823351e+02   5.363324e+01
  -1.572392e+02  -4.946460e+01
  -1.319396e+01  -5.984189e+01
   8.233918e+01  -9.809508e+01
   5.275773e+01   3.725614e+01
  -5.226080e+01   3.417084e+01
  -1.070361e+02  -2.717552e+00
  -4.013490e+01  -1.280141e+02
   7.289636e+01  -1.417211e+02
   1.574489e+02  -9.427235e+01
   1.214207e+02   5.876356e+01
   3.121447e+01   1.864759e+02
  -8.810931e+01   1.602108e+02
  -1.098583e+02  -3.265881e+01
  -9.624924e+01  -9.407687e+01
   4.795386e+01  -1.047043e+02
   5.022219e+01  -5.344114e+01
   4.297199e+01   3.316050e+01
   2.811599e+01  -1.361919e+01
  -1.404670e+01  -5.492627e+01
   1.721933e+01  -6.998233e+00
   5.746245e+01   7.210179e+01
   4.833555e+01   8.739232e+01
  -2.757017e+01   2.486319e+01
  -9.326238e+01  -2.244319e+01
  -1.200431e+02  -7.285387e+01
  -5.301178e+00  -4.914401e+01
   5.838128e+01  -2.462160e+01
   8.130433e+01   1.921749e+01
   2.101429e+01  -4.347627e+01
  -3.308594e+01   2.226319e+01
  -1.613317e+01  -1.425159e+01
   2.168367e+01  -1.836993e+01
  -2.549345e+01   1.513988e+01
  -4.927075e+01   1.351228e+01
  -1.274958e+02   1.702824e+00
  -3.930508e+01  -8.745066e+01
   1.095468e+02  -1.154783e+02
   1.633939e+02  -6.800755e+01
   1.557732e+02   4.453226e+01
   3.471408e+01   1.461655e+02
  -9.254019e+01   1.391224e+02
  -1.079507e+02   2.543199e+01
  -1.229441e+02  -2.327027e+01
  -1.082310e+01  -3.150121e+01
   3.504442e+01  -1.381292e+01
   1.614174e+01  -3.300479e+01
  -4.845753e+01  -6.008086e+01
  -3.633045e+01  -1.027314e+02
   3.291718e+01  -4.554019e+01
   5.873305e+01   5.509524e+01
   8.197303e+01   1.217760e+02
   2.892070e+01   9.769319e+01
  -7.134299e+01   5.296193e+01
  -1.132392e+02  -4.863861e+01
  -5.042498e+01  -8.159976e+01
   6.210544e+01  -5.408171e+01
   1.047595e+02  -1.785257e+01
   4.344467e+01   8.183983e+01
  -2.315021e+01   6.405562e+01
  -4.061757e+01   1.876322e+01
   3.085995e+01   3.583304e+01
   5.482102e+01   1.267461e+01
   1.797665e+01  -6.469507e+00
  -9.928782e+01   1.929813e+01
  -1.123653e+02   2.370062e+01
  -5.340829e+01  -2.773868e+00
   3.764254e+01  -9.570344e+01
   7.120209e+01  -4.911675e+01
   3.944363e+01  -1.170847e+01
  -2.073282e+01   3.812376e+01
  -1.771771e+01   8.169729e+01
  -3.680821e+01  -3.523991e+01
  -3.037961e+01  -5.981895e+01
   2.807221e+01  -4.264041e+01
   5.244385e+01   1.931092e+01
   3.656650e+01   5.345111e+01
   3.523451e+01  -1.525605e+01
   4.929992e+00   1.096258e+01
  -4.828256e-01  -3.275841e+01
   1.209599e+01   2.708017e+01
  -3.057263e+01   3.219367e+01
  -1.145746e+01   4.958511e+01
  -5.344826e+01  -6.539901e+01
  -1.562053e+01  -9.331932e+01
   3.791281e+01  -4.847998e+01
   6.417961e+01   2.724568e+00
   2.543013e+01   7.565971e+01
  -8.925403e+01   5.821278e-01
  -6.740193e+01  -1.435373e+01
  -2.981112e+01  -5.438141e+01
  -2.812492e+00  -4.244426e+01
   6.465439e+01  -2.565338e+01
   1.183323e+01   4.472247e+00
  -6.324097e+01   2.715553e+01
  -1.783878e+01   2.675060e+00
   5.221107e+01  -2.288993e+01
   9.195121e+01  -3.560255e+01
