
 $NMID
 id='ANONYMOUS ', fmtdat='(2E16.6)'
 volume=1.0
 tramp=1.0
 $END
  -3.547863e+03   2.356631e+02
  -2.254780e+03  -1.936634e+03
   1.232800e+02  -2.222016e+03
   1.458180e+03  -1.170638e+03
   8.720257e+02   1.579271e+02
  -1.736559e+02   3.156726e+02
  -5.956352e+02  -2.433041e+02
  -9.979364e+01  -7.305448e+02
   5.278482e+02  -6.510251e+02
   7.397734e+02  -3.923322e+01
   4.272832e+02   6.097267e+02
  -5.836532e+01   6.822891e+02
  -4.308410e+02   1.427468e+02
  -3.201545e+02  -4.917570e+02
   1.654822e+02  -6.128995e+02
   4.876796e+02  -1.918433e+01
   2.925558e+02   5.282405e+02
  -1.243478e+02   6.445863e+02
  -5.100603e+02   2.057028e+02
  -4.173133e+02  -2.540241e+02
  -8.504982e+01  -3.653922e+02
   1.648122e+02  -2.858131e+02
   8.955418e+01  -6.995713e+01
  -1.434815e+02  -2.114816e+00
  -3.170297e+02  -1.999099e+02
  -6.529557e+01  -4.125992e+02
   4.819915e+02  -2.044676e+02
   6.955938e+02   1.172608e+02
   2.931672e+02   3.881844e+02
  -3.103560e+02   3.212854e+02
  -6.577184e+02  -6.252019e+01
  -2.644732e+02  -4.178192e+02
   2.566923e+02  -3.793780e+02
   4.555837e+02  -1.515553e+02
   3.317851e+02   1.732842e+02
   6.106471e+01   3.236168e+02
  -1.199046e+02   2.109153e+02
  -2.556619e+01  -1.810267e+02
   1.470086e+02  -2.034696e+02
   2.748275e+02   7.559592e+01
   9.527412e+01   5.287891e+02
  -2.986290e+02   4.993392e+02
  -4.044024e+02  -1.419753e+01
  -1.450304e+02  -4.091286e+02
   1.859187e+02  -1.952532e+02
   2.994549e+02   2.664834e+02
  -8.789184e+01   4.083806e+02
  -4.793328e+02   1.025526e+02
  -5.192459e+02  -3.685647e+02
  -1.315025e+02  -5.184953e+02
   3.217359e+02  -3.041750e+02
   5.251572e+02   1.210850e+01
   3.929485e+02   2.857213e+02
  -2.908464e+01   2.859005e+02
  -3.223142e+02   7.641736e+01
  -2.319497e+02  -9.612912e+01
   5.600459e+00  -6.901716e+01
   8.883836e+01   6.856426e+01
  -1.210159e+02   1.295163e+02
  -2.515766e+02  -2.043083e+01
  -1.511843e+02  -2.384527e+02
   1.831970e+02  -2.329905e+02
   3.240354e+02  -1.245780e+02
   2.675588e+02   1.072099e+02
  -3.282141e+01   2.799261e+02
  -2.723916e+02   3.372859e+02
  -3.700294e+02   2.222284e+02
  -2.268474e+02  -1.273869e+02
  -5.237083e+01  -3.525024e+02
   8.342443e+01  -3.330124e+02
   6.015187e+01  -1.527860e+02
  -8.351154e+00  -6.957814e+01
   7.934347e+01  -9.234526e+01
   2.360012e+02  -7.046667e+01
   2.724675e+02   8.820291e+01
   1.077226e+02   2.749617e+02
  -7.854730e+01   2.049679e+02
  -2.010612e+02  -1.110217e+00
  -1.443246e+02  -2.248199e+02
  -2.013130e+00  -2.637396e+02
   2.565532e+02  -9.031104e+01
   3.366731e+02   1.854124e+02
   1.655355e+02   2.783360e+02
  -3.704769e+01   2.946853e+02
  -1.742661e+02   1.401727e+02
  -1.588145e+02   5.804699e+01
  -1.522744e+02   5.768574e+01
  -2.438460e+02   6.547409e+01
  -3.898521e+02  -7.756458e+01
  -3.320200e+02  -2.955303e+02
  -1.111426e+01  -4.315753e+02
   3.477216e+02  -3.656039e+02
   4.429933e+02  -1.625572e+02
   3.330940e+02   5.856669e+01
   5.940582e+01   2.291544e+02
  -7.460711e+01   2.050862e+02
  -3.492867e+01   4.677537e+01
   8.207039e+01  -4.238501e+01
   1.526399e+02   1.112454e+01
   1.965580e+01   1.340683e+02
  -1.368066e+02   1.545041e+02
  -1.110979e+02  -5.661599e+01
   7.714987e-01  -1.303146e+02
   1.918123e+02  -2.051779e+01
   1.150674e+02   2.476639e+02
  -1.325474e+01   3.131023e+02
  -2.513874e+02   1.943249e+02
  -3.253142e+02  -6.910565e+01
  -2.673585e+02  -2.411060e+02
  -6.213343e+01  -2.635913e+02
   1.320068e+02  -1.616949e+02
   1.703478e+02  -1.725509e+01
   8.860625e+01   3.181087e+01
  -8.274689e+01  -7.743125e+01
  -2.122558e+01  -1.123464e+02
   1.283325e+02  -9.037754e+01
   1.549089e+02   1.172413e+01
   5.021425e+01   3.351774e+01
  -1.114407e+02   2.751902e+01
  -6.188598e+00  -8.769127e+01
   1.190902e+02  -6.333108e+01
   3.034893e+02  -3.184806e+01
   2.620366e+02   1.551122e+02
   5.456660e+01   2.374855e+02
  -1.896927e+02   2.423650e+02
  -2.314800e+02   1.083107e+02
  -1.584160e+02  -4.817203e+01
   2.479632e+01  -4.545202e+01
   5.309448e+01   1.854323e+01
  -5.686364e+01   7.830698e+01
  -1.823301e+02   3.443544e+01
  -1.834306e+02  -9.484703e+01
  -7.000185e+01  -2.058877e+02
   6.724335e+01  -1.635195e+02
   1.155905e+02  -2.127502e+01
   3.714089e+01   1.534480e+01
  -5.571454e+01   3.197114e+00
  -4.533682e+01  -7.091990e+01
   1.066795e+02  -1.317172e+02
   2.426492e+02  -7.638309e+01
   1.569951e+02   1.201216e+02
  -3.095572e+00   2.063292e+02
  -1.405846e+02   1.518124e+02
  -1.691074e+02  -2.352791e+01
  -6.618720e+01  -9.901341e+01
   5.940992e+01  -9.399332e+01
   4.577789e+01  -6.119973e+01
   1.132330e+01  -2.708598e+01
  -6.457328e+01  -7.103635e+00
   1.060726e+01  -2.860508e+01
   7.178771e+01  -8.097592e-01
   7.988118e+01   9.297481e+01
  -3.908990e+00   1.936251e+02
  -1.464862e+02   1.497970e+02
  -2.312991e+02   1.469286e+01
  -1.992779e+02  -1.378859e+02
  -5.490178e+01  -2.618767e+02
   1.383653e+02  -1.541801e+02
   1.160672e+02  -3.017800e+01
   1.068301e+01   3.333914e+01
   4.459367e+01   5.678273e+01
   3.419184e+01  -2.237779e+01
   7.875200e+01  -7.239520e+00
   4.956169e+01   4.685921e+01
  -9.464728e+00   8.701887e+01
  -1.314218e+02   3.505795e+01
  -9.453276e+01  -7.789402e+01
   8.354796e+01  -1.305362e+02
   1.578791e+02  -8.789706e+01
   2.148529e+02   5.090478e+01
   5.163275e+01   2.144218e+02
  -1.558967e+02   2.501553e+02
  -2.708680e+02   1.134526e+02
  -2.565890e+02  -1.036073e+02
  -1.089175e+02  -1.577079e+02
   1.683491e+01  -1.186135e+02
   8.307075e+01  -9.229576e+01
   7.283860e+01  -7.897809e+01
   4.962196e+01  -7.934583e+01
   1.125270e+02  -6.727702e+01
   1.596618e+02  -1.999757e+01
   1.153857e+02   1.197039e+02
   3.192640e+01   2.290063e+02
  -1.085399e+02   1.458322e+02
  -1.608954e+02  -1.267917e+01
  -1.188730e+02  -1.138390e+02
  -8.842711e+00  -1.440679e+02
   6.498097e+01  -7.370471e+01
   9.040860e+01  -2.827805e+01
  -7.146052e+00   2.294291e+01
  -3.749557e+01   4.269224e+01
   3.259523e+01  -1.777936e+01
   5.682552e+01  -1.157379e+01
   5.311362e+01   4.774775e+00
  -6.533328e+01   4.452570e+01
  -2.064408e+02  -2.334452e+01
  -1.354465e+02  -7.054462e+01
   5.924275e+00  -9.966296e+01
   1.431937e+02  -5.584033e+01
   1.644183e+02   1.638230e+01
   2.834680e+01   2.803028e+01
  -6.636932e+01   5.089197e+01
  -7.657664e+01  -3.555429e+01
  -2.476144e+01  -9.149463e+01
   4.917786e+01  -4.194230e+01
   3.938558e+01  -3.255467e+01
   4.760765e+01   4.470098e+01
   3.191757e+01   6.193063e+01
   5.839604e+01  -1.571313e+01
   5.683898e+01   6.417379e+00
   5.924171e+01   7.501166e+01
  -9.117195e+00   1.603323e+02
  -1.131850e+02   1.364487e+02
  -1.542597e+02   5.585764e+01
  -1.280174e+02  -1.078105e+02
  -6.965373e+00  -1.342528e+02
   8.775701e+01  -6.779034e+01
   7.115768e+01   7.837330e+00
  -7.635783e+01   3.648352e+01
  -1.205874e+02  -3.708069e+01
  -8.811865e+01  -8.519070e+01
   5.832628e+01  -1.125970e+02
   1.915084e+02  -4.877063e+01
   1.316343e+02   6.113098e+01
   4.873740e+01   9.792930e+01
  -7.273692e+01   9.411152e+01
  -2.170432e+01   8.743978e+00
   4.729987e+01  -6.068470e+01
   4.978607e+01   4.909459e+01
   4.124776e+00   1.165628e+02
  -6.813586e+01   1.548557e+02
  -1.404610e+02   7.515259e+01
  -1.400228e+02  -1.016315e+02
   1.962084e-01  -1.736109e+02
   8.091786e+01  -1.507195e+02
   1.104981e+02   1.880907e+01
   5.673886e+01   1.318623e+02
  -2.738537e+01   1.177746e+02
  -4.810859e+01   5.719350e+01
  -7.571750e+01  -8.147809e-01
  -5.107303e+00  -2.878342e+01
   1.067353e+01   4.296714e+01
  -3.631378e+01   2.965407e+01
  -6.018043e+01  -6.511267e+01
  -8.065343e+01  -1.383950e+02
   3.387128e+01  -2.516613e+01
   1.483860e+02   4.414278e+01
   1.502175e+02   7.714472e+01
  -1.542176e+01   9.372165e+01
  -9.602112e+01  -1.199436e+01
  -8.922492e+01   4.346024e+00
  -6.895444e+00   7.331384e+00
   4.591381e+01  -3.988889e+01
   2.337817e+01  -1.680651e+01
  -1.520400e+01   4.520029e+01
   3.062898e-01  -2.166858e+01
   9.691594e+01  -5.100204e+00
   6.708395e+01  -6.909421e+00
   2.290094e+01   5.204681e+01
  -1.084639e+02   1.170395e+02
  -1.694486e+02   4.575346e+01
  -1.149207e+02  -5.092953e+01
  -3.039959e+01  -1.540524e+02
   6.670266e+01  -1.605826e+02
   1.286168e+02  -6.186408e+01
   3.915455e+01  -8.223491e+00
   3.781606e+01   5.008161e+01
   2.282936e+01   1.312996e+01
   5.682775e+01  -2.627503e+00
   4.957001e+01   5.795892e+01
   2.515237e+01   9.676079e+01
  -2.235520e+01   2.218278e+01
  -4.884646e+01  -4.243394e+01
  -7.351129e+01  -9.895404e+01
   1.096795e+01  -9.268135e+01
   9.564048e+01  -7.879549e+00
   5.422344e+01   6.528598e+01
   2.547364e+01   5.363896e+01
  -7.062103e+01   9.476909e+01
  -7.918863e+01  -7.244465e+01
  -5.532214e+01  -3.404243e+01
   3.056204e+01  -6.633142e+01
  -3.190541e+01  -3.610274e+01
  -3.260387e+01   2.976590e+01
  -5.761124e+01   2.816629e+01
  -4.624169e+01   1.685639e+01
   9.106566e+01  -4.486208e+01
   1.368923e+02  -5.463588e+01
   5.139723e+00   3.039670e+01
   1.566200e+01   1.274749e+02
  -5.694423e+01   1.221560e+02
  -7.612211e+01   6.773243e+00
  -7.281375e+00  -5.997003e+01
   8.042460e+00  -8.793814e+01
   2.020237e+01   2.148440e+01
  -1.134432e+01   3.975403e+01
  -2.349124e+01   3.818721e+01
  -6.294016e+01  -2.750131e+01
  -1.816667e+01  -2.322549e+01
   2.202674e+01  -1.227847e+01
  -3.890819e+01   3.083557e+01
   2.407186e+01   2.157189e+01
   1.125354e+01  -2.634048e+01
  -7.209533e+00  -1.092272e+01
   2.536240e+01  -1.915741e+01
   3.390615e+01   3.191208e+01
  -3.775628e+01   6.819432e+01
  -4.397505e+01   5.675407e+01
  -6.614841e+01  -4.356443e+01
  -3.047661e+00  -4.947868e+01
   3.255743e+01  -2.073546e+01
   8.596009e+01  -3.150492e+01
   4.160445e+01   6.606874e+01
   2.787875e+00   5.302367e+01
  -4.744655e+01   2.055544e+01
  -3.193596e+01   7.017370e+00
   3.375680e+01   1.362731e+01
   3.215595e+01   3.157783e+01
  -1.161747e+01   2.092503e+01
  -7.023628e+01  -1.198301e+01
