
 $NMID
 id='ANONYMOUS ', fmtdat='(2E16.6)'
 volume=1.0
 tramp=1.0
 $END
  -3.300437e+03   2.023711e+02
  -2.185791e+03  -1.773143e+03
   2.114195e+02  -2.244700e+03
   1.433311e+03  -1.219935e+03
   9.225725e+02  -6.522497e-01
  -1.182530e+02   3.171303e+02
  -5.045182e+02  -1.394188e+02
  -5.328367e+01  -6.627721e+02
   5.460321e+02  -6.385323e+02
   7.281206e+02  -5.432778e+01
   3.808517e+02   5.911672e+02
  -1.167251e+01   7.291022e+02
  -4.055155e+02   1.620653e+02
  -2.892122e+02  -3.756790e+02
   9.821560e+01  -5.711461e+02
   3.913458e+02  -9.268362e+01
   2.941319e+02   4.931321e+02
  -1.090525e+02   5.845075e+02
  -4.528881e+02   1.890340e+02
  -3.974783e+02  -2.273835e+02
  -1.067284e+02  -3.752235e+02
   1.446537e+02  -2.409339e+02
   1.217166e+02  -3.846116e+01
  -1.072687e+02   1.537259e+01
  -2.769223e+02  -1.744514e+02
  -9.695136e+01  -3.658967e+02
   4.078385e+02  -2.182274e+02
   6.650813e+02   1.017180e+02
   2.818047e+02   3.447123e+02
  -2.893465e+02   2.981300e+02
  -5.596826e+02  -6.336872e+01
  -2.489263e+02  -3.488570e+02
   2.395238e+02  -3.607821e+02
   4.821092e+02  -1.468234e+02
   3.129137e+02   1.567582e+02
   9.697213e+01   3.508478e+02
  -1.001582e+02   1.870320e+02
  -4.128745e+01  -1.243546e+02
   1.675329e+02  -2.661178e+02
   2.543606e+02   7.504994e+01
   8.978285e+01   5.139640e+02
  -2.716842e+02   4.511239e+02
  -3.855397e+02  -3.914472e+01
  -1.562301e+02  -3.379777e+02
   1.782873e+02  -1.703331e+02
   2.300265e+02   2.491767e+02
  -8.024763e+01   3.800704e+02
  -4.248462e+02   7.207017e+01
  -4.803087e+02  -3.243562e+02
  -1.843255e+02  -4.332561e+02
   3.010545e+02  -2.769952e+02
   4.852099e+02   3.776095e+01
   3.928933e+02   2.700268e+02
  -7.330492e+01   2.686646e+02
  -3.397640e+02   9.862667e+01
  -2.511260e+02  -1.029938e+02
   3.968596e+01  -6.141239e+01
   8.881295e+01   3.014837e+01
  -9.557861e+01   1.183923e+02
  -2.485784e+02  -5.378074e+01
  -1.708405e+02  -2.447651e+02
   1.080975e+02  -2.106839e+02
   3.374935e+02  -1.449533e+02
   2.140668e+02   8.798313e+01
  -3.798107e+01   3.142124e+02
  -2.300161e+02   3.243605e+02
  -3.212953e+02   1.711805e+02
  -2.127719e+02  -1.180216e+02
  -3.431761e+01  -3.283348e+02
   4.932730e+01  -3.441892e+02
   6.285542e+01  -1.107102e+02
   1.631180e+01  -7.031856e+01
   6.919805e+01  -9.941669e+01
   2.065256e+02  -7.919706e+01
   2.174763e+02   1.021959e+02
   1.049523e+02   2.447736e+02
  -6.668351e+01   1.997329e+02
  -1.905220e+02  -3.554048e+01
  -1.698423e+02  -1.932169e+02
   2.634053e+01  -2.595969e+02
   1.766728e+02  -9.095011e+01
   2.973988e+02   1.554596e+02
   1.976772e+02   2.722342e+02
  -4.421067e+01   2.805412e+02
  -1.507887e+02   9.997775e+01
  -1.622559e+02   6.957629e+01
  -1.356686e+02   3.448183e+01
  -2.311506e+02   4.226288e+01
  -3.662681e+02  -5.886978e+01
  -3.116572e+02  -2.818393e+02
  -1.642569e+01  -3.816335e+02
   3.188227e+02  -3.867510e+02
   3.834069e+02  -1.482778e+02
   2.989219e+02   6.445609e+01
   3.749362e+01   2.319234e+02
  -1.033307e+02   2.121108e+02
  -4.740340e+01   7.771826e+01
   1.020770e+02  -6.063971e+01
   1.410588e+02  -1.062403e+01
   5.049036e+01   1.938285e+02
  -7.315655e+01   9.968024e+01
  -1.191498e+02  -4.159220e+01
   4.657820e+01  -1.197473e+02
   1.570114e+02   3.240027e+01
   1.335149e+02   2.119444e+02
   2.710447e+00   3.252211e+02
  -1.921861e+02   1.908291e+02
  -2.692674e+02  -7.755197e+01
  -2.428811e+02  -2.023773e+02
  -4.828767e+01  -2.567125e+02
   1.289334e+02  -1.475254e+02
   1.337650e+02  -1.774101e+01
   3.063829e+01   3.329055e+01
  -3.561369e+01  -4.614132e+01
  -2.220388e+01  -5.138257e+01
   9.944453e+01  -6.629307e+01
   1.478729e+02   3.098128e+01
   2.157127e+01   5.937005e+01
  -4.965860e+01   2.970726e+01
  -6.875023e+01  -4.132633e+01
   1.291114e+02  -6.373438e+01
   2.883070e+02   3.646115e+01
   2.267653e+02   1.559609e+02
   1.130050e+01   2.305019e+02
  -1.621790e+02   1.992529e+02
  -2.081372e+02   1.258665e+02
  -1.113763e+02  -7.217111e+01
   5.836701e+01  -4.024829e+01
   4.345990e+01  -1.054510e+01
   8.733704e+00   6.984073e+01
  -1.707885e+02   2.408203e+01
  -1.713353e+02  -9.056553e+01
  -6.017709e+01  -1.762950e+02
   9.300431e+01  -9.869860e+01
   9.425446e+01  -7.265899e+00
   4.028805e+01   3.387145e+01
  -3.302803e+01  -4.850880e+01
  -2.657527e+01  -6.637523e+01
   7.070467e+01  -1.177151e+02
   2.040440e+02  -1.788671e+01
   1.719967e+02   1.008115e+02
   4.636296e+01   2.187695e+02
  -1.320113e+02   1.227979e+02
  -1.717608e+02   2.841333e+01
  -8.783074e+01  -5.066956e+01
   2.678277e+01  -8.216753e+01
   4.782773e+01  -1.719655e+01
   1.602144e+01  -9.502293e-02
  -5.151967e+01   3.370925e+01
   2.297202e+01  -3.004169e+01
   7.770072e+01  -5.872862e+00
   1.221499e+02   6.171480e+01
  -1.449261e+01   1.438426e+02
  -1.329546e+02   1.236614e+02
  -2.229532e+02   6.436750e+01
  -1.557812e+02  -1.134788e+02
  -6.780840e+01  -1.890621e+02
   9.317348e+01  -1.881038e+02
   9.063022e+01  -4.797724e+01
   6.112104e+01  -1.272774e+01
   2.184382e+01   4.466432e+01
   5.561306e+01  -6.270684e+01
   8.930597e+01   1.225611e+01
   6.326890e+01   4.627245e+01
  -1.650786e+01   7.680651e+01
  -1.461705e+02   5.847245e+01
  -1.057969e+02  -2.787712e+01
  -1.600338e+01  -1.177119e+02
   1.246040e+02  -8.777361e+01
   1.702706e+02   6.050593e+01
   8.213240e+01   1.829147e+02
  -1.226817e+02   2.425863e+02
  -2.282139e+02   8.855786e+01
  -2.015051e+02  -8.169457e+01
  -1.137657e+02  -1.430729e+02
   4.762524e+01  -1.422243e+02
   7.630789e+01  -9.360644e+01
   1.056949e+02  -5.945404e+01
   4.402530e+01  -4.459780e+01
   8.573194e+01  -9.090898e+01
   1.459283e+02  -9.507932e+00
   1.107962e+02   1.055308e+02
   3.290401e+01   1.952568e+02
  -9.149771e+01   1.841616e+02
  -1.670392e+02   2.265725e+01
  -1.151048e+02  -8.750928e+01
  -7.225266e+00  -1.406054e+02
   5.901996e+01  -8.857800e+01
   9.620606e+01   1.155124e-03
   1.048720e+01   3.603708e+01
   2.509078e+01   1.960960e+01
   5.235127e+01   5.965912e+01
   9.709130e+01  -1.241741e+01
   3.965733e+01   8.397145e+01
  -3.631108e+01   1.062446e+01
  -1.707499e+02  -9.220724e+00
  -1.313879e+02  -4.818681e+01
  -1.337460e+01  -8.398855e+01
   1.437689e+02  -6.767078e+01
   1.393523e+02  -2.473007e+00
   1.870025e+01   4.806128e+01
  -7.713817e+01   1.767433e+01
  -9.747236e+01  -9.347719e+00
  -2.737275e+01  -4.886702e+01
   1.149801e+01  -1.029147e+02
   8.687798e+01  -2.099270e+00
   4.228485e+01   7.217996e+01
   2.431371e+01   3.932975e+01
   1.288837e+01  -1.436083e+01
   4.842074e+01   1.121194e+01
   8.104223e+01   5.055570e+01
  -1.373761e+01   1.708308e+02
  -1.475796e+02   1.108365e+02
  -1.705464e+02   3.135656e+01
  -7.975154e+01  -1.083019e+02
   1.408343e+01  -1.146968e+02
   8.355957e+01  -6.014806e+01
   6.898081e+01   4.062020e+01
  -5.297798e+01   4.797019e+01
  -1.073209e+02  -1.341259e+01
  -6.314794e+01  -9.591132e+01
   7.665282e+01  -9.049338e+01
   1.168743e+02  -8.343265e+01
   1.423100e+02   1.236315e+00
   4.781519e+01   8.385680e+01
  -5.093084e+01   5.098418e+01
  -4.989477e+01   2.776350e+00
   3.401802e+01  -4.224424e+01
   1.004782e+02   2.692538e+01
   1.381033e+01   7.249434e+01
  -3.948613e+01   1.391846e+02
  -1.191904e+02   6.128934e+01
  -9.973952e+01  -8.917004e+01
  -5.582417e+01  -1.745691e+02
   6.907535e+01  -9.643434e+01
   1.469683e+02  -1.500666e+01
   4.099001e+01   9.872356e+01
  -4.470768e+01   1.141729e+02
  -5.909786e+01   4.423343e+01
  -4.133449e+01   1.858057e+01
   2.544111e+00  -2.586015e+00
  -4.551027e+01   1.812279e+01
  -6.892262e+01  -1.666751e+01
  -3.674273e+01  -5.052249e+01
  -5.537161e+01  -1.085881e+02
   6.349924e+01  -6.093181e+00
   1.645296e+02  -9.627918e-01
   8.496523e+01   8.227136e+01
   1.475449e-01   6.022425e+01
  -7.801015e+01   1.668622e+01
  -5.714927e+01  -5.639043e+00
  -2.170416e+01   3.165846e+01
   3.494476e+01  -1.995049e+01
   3.388508e+01   3.323507e+00
   2.498096e+01  -1.252402e+01
  -6.659968e+00   1.076872e+01
   6.477986e+01   5.830483e+01
   8.580033e+01   1.126893e+01
   2.333970e+01   1.140834e+02
  -1.066110e+02   1.420796e+02
  -1.521998e+02   5.623230e+01
  -1.565533e+02  -4.854167e+01
  -4.846690e+01  -1.254163e+02
   6.637478e+01  -1.636394e+02
   1.201419e+02  -7.675468e+01
   8.018287e+01  -4.321951e+00
   2.216625e+01   6.208541e+01
  -9.339689e+00  -2.020710e+01
  -4.561464e+00   3.218305e+01
   2.602555e+01   6.894281e+00
   3.504173e+01   9.183559e+01
  -1.136960e+01   9.036001e+01
  -1.003895e+02   5.082082e+00
  -8.843469e+01  -7.367799e+01
  -2.901135e+00  -1.259862e+02
   1.433149e+02  -4.674009e+01
   9.762544e+01   6.715319e+01
   5.236049e+01   8.929903e+01
  -7.674195e+01   5.535410e+01
  -1.027866e+02  -1.595034e+01
  -5.827548e+01  -4.572475e+01
   6.433289e+01  -1.010775e+02
   4.439187e+01   1.996583e+01
  -6.968980e+00  -2.317934e+01
  -4.409522e+01   1.390458e+01
  -9.741155e+00  -1.111661e+01
   6.084834e+01  -5.799169e+01
   1.114664e+02  -6.997072e+01
   8.155709e+01   3.641552e+01
   3.376348e+00   6.339856e+01
  -5.515420e+01   6.220139e+01
  -3.616822e+01   2.282180e+01
   4.151991e+01  -1.079959e+01
   4.201854e+01  -2.792989e+01
   4.428744e+01   4.724329e+01
   3.073091e+00   6.606615e+01
  -3.580910e+00  -3.059378e+00
  -3.265480e+01  -1.590595e+01
  -1.170907e+01  -5.000259e+00
  -1.585402e+01   6.641444e+00
  -7.296913e+00   5.133318e+00
   9.592406e+00  -6.999687e+00
   7.599180e+00  -9.670627e+00
  -7.382888e+00  -6.190718e+01
   2.982823e+01  -1.532135e+01
   2.586243e+00   6.784493e+01
   3.953161e+01   8.415000e+01
  -6.574711e+01   8.307666e+00
  -5.808239e+01  -3.158503e+01
  -1.996849e+01  -4.920908e+01
   4.077427e+01  -8.331467e+00
   7.217026e+01  -3.136439e+01
   5.696571e+01   2.534066e+01
  -1.357831e+01   3.080038e+01
  -3.014590e+01   8.571186e+01
   9.948796e+00   1.422473e+01
   1.890885e+01  -1.114142e+00
   2.674551e+01   6.393117e+01
  -6.277205e+01   7.005874e+01
  -8.529897e+01   3.273205e+01
