
 $NMID
 id='ANONYMOUS ', fmtdat='(2E16.6)'
 volume=1.0
 tramp=1.0
 $END
   3.575237e+03  -3.545731e+02
   2.281820e+03   1.904611e+03
  -1.956899e+02   2.370149e+03
  -1.578505e+03   1.166901e+03
  -1.021087e+03  -9.995425e+01
   1.665405e+02  -3.725566e+02
   5.490281e+02   1.891029e+02
   2.322057e+01   7.367129e+02
  -5.547074e+02   6.344363e+02
  -7.416110e+02   2.399917e+01
  -4.005065e+02  -5.738444e+02
   5.833258e+01  -7.273414e+02
   4.326471e+02  -1.432688e+02
   3.220012e+02   5.197142e+02
  -1.239111e+02   5.612694e+02
  -4.659415e+02   8.497285e+01
  -3.163708e+02  -4.977492e+02
   1.610195e+02  -5.878420e+02
   4.964811e+02  -2.532504e+02
   3.860110e+02   2.415490e+02
   1.088682e+02   3.689610e+02
  -1.869550e+02   2.719382e+02
  -1.174360e+02   3.061121e+01
   9.885826e+01  -1.812528e+01
   3.263997e+02   1.998884e+02
   1.179095e+02   3.293681e+02
  -4.285395e+02   2.156730e+02
  -6.645706e+02  -1.388415e+02
  -2.734963e+02  -4.473666e+02
   2.932021e+02  -3.458392e+02
   6.095196e+02   8.415683e+01
   2.337081e+02   3.721183e+02
  -2.049919e+02   4.125624e+02
  -5.237763e+02   1.686713e+02
  -3.478866e+02  -1.751923e+02
  -1.052750e+02  -3.664260e+02
   9.543950e+01  -2.194509e+02
   7.932079e+01   1.368675e+02
  -1.809575e+02   3.118145e+02
  -2.987205e+02  -3.883802e+01
  -5.443662e+01  -5.734608e+02
   2.831242e+02  -4.771625e+02
   4.221181e+02  -4.448655e+00
   1.821916e+02   3.634564e+02
  -2.099688e+02   1.918297e+02
  -3.255160e+02  -2.589761e+02
   3.808629e+01  -4.309785e+02
   4.668602e+02  -1.065276e+02
   5.153614e+02   3.875290e+02
   1.475366e+02   4.731344e+02
  -3.200235e+02   2.513485e+02
  -5.685169e+02  -4.889560e+01
  -3.750399e+02  -2.659567e+02
   1.027344e+02  -2.602959e+02
   3.556743e+02  -1.312530e+02
   2.551762e+02   5.903892e+01
  -7.959051e+01   3.347570e+01
  -1.188020e+02  -1.140888e+02
   8.291748e+01  -1.069131e+02
   2.616380e+02   5.035238e+01
   1.300030e+02   2.073477e+02
  -1.552467e+02   2.030543e+02
  -3.098928e+02   1.494172e+02
  -2.441839e+02  -1.016674e+02
   2.252680e+01  -2.657971e+02
   3.124022e+02  -3.504650e+02
   3.274273e+02  -1.541398e+02
   2.378534e+02   1.533201e+02
   5.216127e+01   3.944773e+02
  -1.459685e+01   3.648348e+02
  -6.204738e+01   1.097623e+02
  -4.095230e+01   5.952671e+01
  -7.884455e+01   1.200911e+02
  -2.281936e+02   8.774836e+01
  -2.474216e+02  -9.007194e+01
  -8.596705e+01  -2.338322e+02
   8.239268e+01  -2.054456e+02
   1.982638e+02   3.258100e+00
   1.431964e+02   2.366267e+02
  -2.265605e+01   2.573104e+02
  -2.130734e+02   8.599890e+01
  -2.681590e+02  -1.900726e+02
  -1.438675e+02  -2.977783e+02
   3.523975e+01  -2.433621e+02
   1.649318e+02  -1.140397e+02
   1.357530e+02  -6.254225e+01
   1.036140e+02  -5.711066e+01
   2.279156e+02  -4.082564e+01
   3.791952e+02   6.700517e+01
   3.123945e+02   2.374513e+02
  -3.642851e+01   4.241822e+02
  -3.375798e+02   3.524334e+02
  -4.577704e+02   1.644432e+02
  -3.030967e+02  -8.360642e+01
   2.309601e+01  -2.462825e+02
   1.365248e+02  -1.843409e+02
   4.023326e+01  -2.730609e+01
  -1.059519e+02   1.108504e+02
  -1.694839e+02  -1.738353e+01
  -2.341545e+01  -1.780833e+02
   1.092585e+02  -8.680452e+01
   1.414665e+02   3.719814e+01
   7.150309e+00   1.278433e+02
  -1.527693e+02   1.528335e+01
  -1.584260e+02  -2.217838e+02
   4.156327e+01  -3.127328e+02
   2.394292e+02  -1.561464e+02
   3.355446e+02   3.018706e+01
   2.487457e+02   2.694751e+02
   7.072137e+01   2.369479e+02
  -7.057871e+01   1.533117e+02
  -1.629601e+02   1.570599e+00
  -2.063075e+01  -1.295469e+01
   5.396584e+01   9.626354e+01
   5.905479e+01   1.028612e+02
  -1.239598e+02   7.641525e+01
  -1.435368e+02  -3.839141e+01
  -1.275604e+01  -9.606607e+01
   9.545911e+01  -1.403739e+01
   6.614788e+01   8.149320e+01
  -1.138840e+02   8.893304e+01
  -2.553499e+02  -3.219699e+01
  -2.641085e+02  -1.316296e+02
  -6.520783e+01  -2.445919e+02
   1.641182e+02  -2.518165e+02
   2.524359e+02  -9.445267e+01
   1.400762e+02   5.626102e+01
  -4.496080e+01   1.066113e+02
  -8.973580e+01  -4.608962e+01
   4.893621e+01  -6.134980e+01
   1.805361e+02  -5.272068e+01
   2.013931e+02   7.011793e+01
   1.052502e+02   2.051418e+02
  -9.403100e+01   1.678208e+02
  -1.460455e+02   1.105376e+01
  -3.874564e+01  -1.393345e+01
   2.873958e+01   3.692359e+01
  -4.513244e-01   8.389753e+01
  -7.871953e+01   1.194986e+02
  -1.648979e+02   7.062873e+00
  -1.761061e+02  -1.121207e+02
  -4.351977e+01  -2.073656e+02
   1.243078e+02  -1.311854e+02
   1.438607e+02  -3.252888e+01
   5.010205e+01   9.040172e+01
  -3.847169e+01   5.899753e+01
  -6.467929e+01   3.745297e+01
  -3.470529e+01  -2.509604e+01
  -3.041515e+00  -9.865157e+00
   2.641728e+00   1.067395e+01
  -3.633617e+01  -1.170156e+01
  -7.899547e+01  -1.167961e+02
  -4.616840e+01  -1.347209e+02
   8.876532e+01  -1.435993e+02
   2.211788e+02  -2.175581e+01
   1.779646e+02   1.371066e+02
   3.590744e+01   2.341927e+02
  -5.603626e+01   1.571753e+02
  -1.098389e+02   6.502747e+01
  -6.723232e+01  -3.580330e+01
  -5.239614e+01  -2.705516e+01
  -9.340599e+01   3.232967e+01
  -8.703249e+01   3.830870e+00
  -2.241700e+01  -4.731130e+01
   1.837809e+01  -1.070996e+02
   1.039033e+02  -5.997543e+01
   9.098870e+01   2.131282e+01
  -1.173958e+01   1.419831e+02
  -1.525964e+02   1.047748e+02
  -2.091682e+02  -9.551443e+01
  -6.459473e+01  -1.946182e+02
   1.195841e+02  -2.514766e+02
   2.509271e+02  -1.254055e+02
   2.440666e+02   6.268526e+01
   7.691641e+01   1.413303e+02
  -4.838098e+01   1.401737e+02
  -7.107989e+01   5.971068e+01
  -2.532516e+01   8.739986e+01
  -4.051833e+01   1.280667e+02
  -1.086884e+02   8.125121e+01
  -9.574555e+01  -3.159305e+01
  -1.360631e+02  -1.430818e+02
  -4.712830e+01  -2.295762e+02
   6.896255e+01  -1.997009e+02
   1.848789e+02  -3.943166e+01
   1.082107e+02   9.136286e+01
   2.305218e+01   1.410831e+02
  -1.047379e+02   6.547556e+01
  -6.550785e+01  -1.631240e+01
   2.159960e+01  -5.334620e+01
   2.737683e+01  -2.787061e+01
  -9.918769e+00  -2.539191e+01
  -7.475123e+01  -1.003066e+01
  -3.909090e+01  -2.852113e+01
   4.307581e+01  -6.440662e+01
   1.812352e+02   5.214787e+01
   1.065484e+02   7.654144e+01
   1.440302e+01   8.550967e+01
  -6.951197e+01   4.872990e+01
  -1.355114e+02   1.523611e+01
  -6.240064e+01  -6.992220e+01
   5.995145e+01  -2.527721e+01
   8.939048e+01   1.306245e+01
   3.070777e+01   7.791049e+01
  -3.111377e+00   7.813446e+01
  -7.794035e+01  -3.163751e+01
  -1.003501e+01  -6.286319e+01
  -5.540756e+01  -4.664179e+01
  -3.099454e+01  -7.495039e+00
  -4.486171e+01   4.954784e+00
  -2.999364e+01  -5.376616e+01
   6.149819e+01  -1.604484e+02
   1.114571e+02  -1.680075e+02
   1.303707e+02  -1.331798e+01
   1.593112e+02   3.862831e+01
   1.596816e+01   1.321493e+02
  -7.922456e+01   2.221520e+01
  -3.610994e+01   2.763116e+01
  -6.557558e+00  -1.626935e+01
   1.117459e+02   1.276421e+01
   2.729762e+01   1.133907e+02
  -4.176080e+01   1.347752e+02
  -1.571503e+02   3.389802e+01
  -1.741121e+02  -4.600628e+01
  -3.833325e+01  -4.508245e+01
   6.548845e+01  -4.007929e+01
   4.810991e+01  -1.463908e+01
  -3.043035e+01   2.852613e+01
  -8.533820e+01  -8.193513e+00
  -1.778606e+01  -1.540990e+02
   7.179547e+01  -1.266211e+02
   1.574764e+02  -1.103090e+02
   1.258935e+02   7.376260e+01
   3.790364e+01   1.954752e+02
  -4.818368e+01   9.750199e+01
  -1.006427e+02   8.658519e+00
  -3.255066e+01  -1.334974e+02
   7.318926e+00  -1.363573e+02
   2.882862e+01  -3.019559e+01
   8.540771e+01  -1.746176e+01
   2.548676e+01   2.751858e+01
   1.164689e+01  -2.691942e+01
   8.067307e+00   5.435409e+00
   4.736885e+01   7.714834e+01
   3.537664e+01   9.519850e+01
  -4.738475e+01   2.930841e+01
  -1.341938e+02  -2.846541e+01
  -1.628380e+02  -8.125449e+01
   1.781497e+01  -5.781258e+01
   7.319393e+01  -2.459443e+01
   8.834655e+01  -1.842681e+01
  -5.255214e+00   1.953566e+01
  -8.831106e+00   3.819788e+01
   7.965927e+00   2.194059e+01
   1.943205e+01   2.239419e+01
   7.881632e+00  -7.198302e+00
  -6.023370e+01  -2.971092e+01
  -7.817719e+01  -2.314033e+00
  -2.112723e+01  -6.549240e+01
   1.240047e+02  -1.153818e+02
   1.990510e+02  -6.442449e+01
   1.283629e+02   4.938845e+01
   5.241822e+01   1.615313e+02
  -8.523389e+01   1.786568e+02
  -8.254205e+01   1.086803e+02
  -7.540573e+01  -1.361001e+01
  -3.155446e+01  -1.156900e+01
  -1.688442e+01  -1.706471e+01
  -7.479240e+00   2.697956e+00
  -1.073908e+01  -4.291903e+01
  -6.316477e+01  -4.940746e+01
   3.004155e+01  -3.518267e+01
   8.566194e+01   3.178893e+01
   9.321912e+01   9.052891e+01
  -5.608230e+00   1.087170e+02
  -4.576261e+01   2.224399e+01
  -1.181047e+02  -5.677040e+01
  -3.404537e+01  -1.013509e+02
   8.516544e+01  -7.181931e+01
   3.746586e+01  -2.600303e+00
   6.852991e+01   4.034738e+01
   2.130998e+00   2.430344e+01
  -2.908055e+01   3.928514e+01
   1.725616e+01  -3.609613e+01
   4.063728e+01  -2.806991e+00
   4.901545e+01   4.360848e+01
  -7.680125e+01   4.223317e+01
  -1.213867e+02   4.892973e+01
  -8.305179e+01   7.305840e-01
   2.818065e+01  -1.172729e+02
   7.003960e+01  -7.003577e+01
   4.631295e+01  -1.566683e+01
  -3.226739e+00   4.544358e+01
  -2.998924e+01   2.210216e+01
  -3.298123e+01  -3.250880e+01
   7.786131e-01  -7.306559e+01
  -1.915968e+01  -3.017539e+01
   6.936695e+00  -2.778376e+01
   3.718376e+01   1.154859e+01
   1.287879e+01  -2.115296e+01
  -3.009313e+01  -1.873451e+01
  -3.626691e+01  -1.821989e+01
   1.500194e+01   1.768836e+01
  -2.119943e+01   5.658513e+01
  -4.812995e+00   1.997359e+01
  -3.465484e+01  -8.080674e-01
   6.498949e+00  -6.075591e+01
   1.360647e+01  -6.479195e+01
   6.755680e+01   5.161242e+00
   8.533060e+01   4.116420e+01
  -3.978755e+01   3.662367e+01
  -9.733047e+01  -2.219485e+01
  -5.782023e+01  -5.482524e+01
   3.454997e+01  -5.327824e+01
   3.413460e+01  -1.469203e+01
   1.742484e+01   6.377052e-01
  -4.537843e+01   3.487504e+01
  -6.036461e+01  -4.136161e+01
   4.744987e+00  -3.643128e+01
   9.972486e+01  -4.383647e+01
