
 $NMID
 id='ANONYMOUS ', fmtdat='(2E16.6)'
 volume=1.0
 tramp=1.0
 $END
  -3.360096e+03   2.140711e+02
  -2.272234e+03  -1.811955e+03
   2.211088e+02  -2.312389e+03
   1.555018e+03  -1.125235e+03
   1.011156e+03   7.730875e+01
  -1.769880e+02   3.198408e+02
  -5.378635e+02  -1.826083e+02
  -3.396025e+01  -6.614930e+02
   5.271423e+02  -6.070722e+02
   6.402866e+02   2.834365e+01
   3.965685e+02   5.633856e+02
  -3.160038e+00   6.696883e+02
  -4.329806e+02   1.149280e+02
  -3.075639e+02  -4.804877e+02
   1.572893e+02  -5.908708e+02
   4.815110e+02  -8.566645e+01
   3.483470e+02   5.465650e+02
  -1.535870e+02   5.838778e+02
  -5.278869e+02   2.127327e+02
  -4.027414e+02  -2.255396e+02
  -5.643224e+01  -3.781437e+02
   1.734508e+02  -2.277822e+02
   1.306968e+02  -3.845434e+01
  -1.027416e+02  -1.967132e+01
  -2.846627e+02  -1.811266e+02
  -9.130942e+01  -3.955233e+02
   4.646189e+02  -2.677754e+02
   6.550706e+02   1.395000e+02
   2.701412e+02   4.244852e+02
  -3.092505e+02   3.007622e+02
  -5.583782e+02  -6.036855e+01
  -2.374899e+02  -4.062628e+02
   2.415997e+02  -3.588095e+02
   4.567486e+02  -1.396162e+02
   3.168683e+02   1.879502e+02
   4.234789e+01   3.585625e+02
  -1.100113e+02   1.846936e+02
  -3.401071e+01  -1.730416e+02
   1.627353e+02  -2.645586e+02
   2.654382e+02   8.870685e+01
   9.743715e+01   5.340886e+02
  -2.377343e+02   4.657072e+02
  -3.643092e+02  -3.184519e+01
  -1.683048e+02  -3.804070e+02
   2.422578e+02  -1.926178e+02
   2.269527e+02   2.802317e+02
  -9.259866e+01   4.392239e+02
  -4.145772e+02   9.035590e+01
  -4.934510e+02  -3.278044e+02
  -1.468400e+02  -4.768391e+02
   2.959775e+02  -2.684774e+02
   5.307051e+02   1.807329e+01
   2.795252e+02   2.827470e+02
  -6.303789e+01   2.390282e+02
  -3.477515e+02   1.053287e+02
  -2.052758e+02  -8.154230e+01
   5.038057e+01  -3.695534e+01
   1.092412e+02   7.173331e+01
  -8.236373e+01   1.215490e+02
  -3.347284e+02  -3.149688e+01
  -1.360187e+02  -2.573906e+02
   1.192867e+02  -2.311786e+02
   3.362421e+02  -9.214327e+01
   2.625287e+02   7.892450e+01
  -2.947614e+01   2.355082e+02
  -2.411838e+02   3.470485e+02
  -3.336979e+02   1.156879e+02
  -2.394563e+02  -1.175561e+02
  -3.949874e+00  -3.353067e+02
   4.362155e+01  -3.084880e+02
   6.962076e+01  -1.119662e+02
   8.918046e+01  -8.070296e+01
   7.413570e+01  -1.214170e+02
   2.550809e+02  -3.209378e+01
   2.570460e+02   8.284392e+01
   1.005377e+02   2.329082e+02
  -1.000501e+02   2.429638e+02
  -1.885724e+02  -5.142824e+01
  -1.515403e+02  -2.375269e+02
   6.014340e+01  -2.155384e+02
   2.447432e+02  -1.068707e+02
   2.808450e+02   1.652647e+02
   1.617891e+02   2.888669e+02
  -7.185037e+01   2.653581e+02
  -1.501321e+02   1.653419e+02
  -1.246754e+02   2.425678e+01
  -7.999829e+01   6.095377e+01
  -2.193710e+02   4.988071e+01
  -3.578689e+02  -9.909083e+01
  -2.503478e+02  -2.950177e+02
   1.080977e+01  -3.901172e+02
   3.563917e+02  -3.375347e+02
   4.305370e+02  -1.607464e+02
   2.521506e+02   7.243016e+01
  -9.372237e+00   2.510614e+02
  -6.749425e+01   2.107830e+02
  -4.552202e+01   3.078628e+01
   1.236149e+02  -8.391683e+01
   1.729014e+02   2.012057e+01
  -3.649515e+00   1.570775e+02
  -1.402337e+02   1.289324e+02
  -1.339635e+02  -5.129655e+01
   3.097188e+01  -1.335465e+02
   1.379280e+02   2.570819e+01
   1.636061e+02   2.394814e+02
  -1.941283e+01   2.860410e+02
  -2.131687e+02   1.876521e+02
  -3.192836e+02  -5.577177e+01
  -2.589695e+02  -2.408112e+02
  -1.248716e+02  -2.663999e+02
   8.112093e+01  -1.716368e+02
   1.507495e+02   1.062082e+01
   3.586767e+01   4.720354e+01
  -3.550873e+01  -4.477065e+01
  -9.344254e+00  -1.022736e+02
   1.329084e+02  -5.990527e+01
   1.809289e+02   4.382464e+00
   2.492916e+01   6.518601e+01
  -8.028109e+01  -2.039140e+01
  -5.223383e+01  -4.921547e+01
   1.346624e+02  -1.024261e+02
   2.548970e+02  -4.847475e+00
   2.545991e+02   1.194171e+02
   3.539777e+01   2.216575e+02
  -1.856930e+02   2.068712e+02
  -2.568779e+02   9.688093e+01
  -1.210052e+02  -5.671425e+01
   4.655608e+01  -3.084939e+01
   7.962676e+01   1.820266e+01
  -5.606676e+01   4.388508e+01
  -1.794772e+02   2.760047e+01
  -2.140245e+02  -5.824417e+01
  -5.331214e+01  -1.951927e+02
   9.579739e+01  -1.108986e+02
   9.645526e+01  -2.499422e+01
   6.061453e+01   4.813601e+01
  -4.405558e+01  -2.798889e+01
  -2.596207e+01  -9.329067e+01
   4.747271e+01  -1.215964e+02
   1.990509e+02  -9.757551e+00
   1.955551e+02   1.084499e+02
   2.072413e+01   1.862204e+02
  -1.591147e+02   1.261331e+02
  -1.510979e+02   1.741243e+01
  -5.283700e+01  -5.595669e+01
   6.011647e+01  -7.359790e+01
   5.854322e+01  -1.731962e+01
   2.099295e+01   1.015682e+00
  -1.105933e+01  -2.913687e+01
   9.020392e+00  -5.323125e+01
   7.460976e+01   1.610054e+01
   1.094586e+02   1.321368e+02
   6.209631e+00   1.785006e+02
  -1.264782e+02   1.457571e+02
  -2.253482e+02  -4.062264e+00
  -1.522133e+02  -1.284128e+02
  -4.922568e+01  -2.035476e+02
   9.130221e+01  -1.366119e+02
   1.384798e+02  -4.213240e+01
   6.095137e+01   3.242039e+01
  -4.207323e+00   5.393697e+01
   4.753120e+01  -3.645626e+01
   8.324715e+01   6.981433e+00
   4.723749e+01   3.674517e+01
  -7.038639e+01   1.096347e+02
  -1.030419e+02   5.445570e+01
  -1.008873e+02  -3.118124e+01
   1.521550e+01  -9.943858e+01
   1.374583e+02  -6.879874e+01
   2.155487e+02   8.107322e+01
   1.067004e+02   2.273246e+02
  -1.584360e+02   1.911909e+02
  -2.721130e+02   1.120904e+02
  -2.157508e+02  -4.896100e+01
  -1.198952e+02  -1.703725e+02
  -2.874330e+01  -1.307403e+02
   7.995408e+01  -7.858127e+01
   4.414677e+01  -1.013479e+02
   6.091998e+01  -9.720309e+01
   6.818123e+01  -8.095842e+01
   1.466613e+02  -3.936230e+00
   9.911198e+01   1.439194e+02
   3.408515e+01   2.111120e+02
  -5.300141e+01   1.649799e+02
  -1.477380e+02  -2.287877e+01
  -1.194536e+02  -1.122860e+02
  -2.965653e+01  -1.291577e+02
   5.922279e+01  -9.140376e+01
   3.357273e+01  -1.048519e+01
   1.623621e+01   6.501886e+01
  -2.428846e+01   7.746772e+01
   3.061607e+01   1.941896e+01
   7.129179e+01   3.539847e+01
   7.806564e+00   2.441670e+01
  -1.010466e+02   1.591669e+00
  -1.512304e+02  -2.435577e+01
  -1.151107e+02  -6.224779e+01
  -9.236402e+00  -1.104807e+02
   1.078796e+02  -5.247413e+01
   1.148729e+02  -2.892671e+01
   4.351263e+01   1.748077e+01
  -4.940093e+01   1.647200e+01
  -4.781294e+01  -6.034784e+01
  -2.220042e+01  -2.434854e+01
   7.642600e+01  -8.329881e+01
   6.832379e+01  -3.511769e+00
   5.906915e+01   2.569894e+01
   2.554441e+01   3.592969e+01
   4.289901e+01  -4.824986e+00
   4.278222e+01  -2.013084e+01
   3.519834e+01   5.970670e+01
  -2.941853e+01   1.576033e+02
  -8.643599e+01   1.417412e+02
  -1.371670e+02   5.663617e+01
  -1.169498e+02  -7.476876e+01
  -3.246736e+01  -1.260759e+02
   4.704152e+01  -6.090163e+01
   7.458595e+01   1.356772e+01
  -7.641933e+01  -1.151229e+01
  -1.268602e+02  -4.055656e+01
  -4.433089e+01  -1.121711e+02
   4.556395e+01  -1.003109e+02
   1.561703e+02  -7.239988e+01
   1.359044e+02   1.881609e+01
   4.803813e+01   8.360068e+01
  -5.533981e+01   7.373510e+01
  -3.906480e+01   2.416669e+01
   3.653257e+01   4.417640e+00
   8.315296e+01   7.278508e+00
   4.513957e+01   1.149747e+02
  -3.413811e+01   1.102136e+02
  -1.332193e+02   1.048187e+02
  -1.243180e+02  -8.660243e+01
  -7.117172e+01  -1.953733e+02
   6.454048e+01  -1.081287e+02
   1.320303e+02   1.770412e+01
   2.560661e+01   9.567634e+01
   2.295335e+00   1.224865e+02
  -7.146721e+01   1.224550e+01
  -8.398069e+01  -6.792493e+01
  -3.924383e+01   4.880610e+00
   2.127824e+01   1.282702e+01
  -2.897622e+01  -4.131921e+01
  -4.022846e+01  -6.568974e+01
  -5.634443e+01  -9.366021e+01
   5.202763e+01  -4.931217e+01
   1.106211e+02  -3.618147e+00
   1.227723e+02   4.459092e+01
   4.460530e+01   6.250709e+01
  -8.798926e+01   4.164701e+01
  -7.855236e+01   3.415501e+01
  -5.990509e+01   2.325502e+01
   5.356014e+01   7.459596e+00
  -3.394468e+00  -2.067498e+01
  -3.520619e+01  -4.646447e+01
   4.185245e+00  -1.741621e+01
   6.243290e+01   2.065798e+01
   1.120222e+02   1.529045e+01
   2.820606e+01   8.046372e+01
  -1.027336e+02   7.642143e+01
  -1.600320e+02   6.760966e+01
  -1.255411e+02  -5.740639e+01
  -9.019773e+01  -1.604002e+02
   2.719358e+01  -1.653266e+02
   9.064006e+01  -9.104233e+01
   6.628557e+01   6.650907e+00
   2.897901e+01   2.407381e+01
  -2.461234e+00   3.507543e+01
   4.220606e+00  -4.648245e+00
   3.626009e+01   1.695511e+01
   1.522632e+01   8.459948e+01
  -2.490487e+01   5.755422e+01
  -8.521892e+01  -1.144501e+01
  -3.097960e+01  -1.084271e+02
  -3.352433e+01  -8.504201e+01
   7.604057e+01  -4.872721e+01
   8.522757e+01   8.657133e+01
   1.567461e+01   1.152157e+02
  -2.788707e+01   5.839493e+01
  -7.535128e+01  -6.037493e+00
  -6.181994e+01  -2.647955e+01
   9.001224e+00  -9.558840e+01
   7.275766e+01  -4.578745e+01
  -2.355347e+01  -1.984951e+01
  -4.855487e+01   3.101802e+01
  -4.230193e+01  -6.486591e+01
   7.272658e+01  -6.368196e+01
   1.073093e+02  -5.127312e+01
   5.615071e+01  -1.200158e+01
   1.336821e+01   2.734768e+01
  -5.184484e+01   5.798616e+01
  -3.533919e+01   1.033003e+01
  -5.196885e+00  -5.322829e+01
   1.958611e+01  -3.610050e+01
   1.504515e+01   2.786732e-01
  -6.698950e+00   3.783288e+01
   4.529087e+00   5.733255e+01
   3.835905e-01  -2.317364e+00
  -7.218574e+00  -2.972061e+01
  -1.710773e+01   2.255994e+01
   2.021918e+01   2.118883e+01
  -2.160574e+01   3.458636e+01
  -6.558772e+00  -5.131492e+01
   2.996445e+01  -3.046464e+01
   6.142046e+01  -2.911776e+00
   3.359312e+01   5.666011e+01
  -3.951225e+00   7.113620e+01
  -5.590846e+01   5.505247e+01
  -9.739122e+00  -1.475602e+01
  -2.936877e+01  -4.772798e+01
   1.070605e+01  -8.981255e+00
   8.175981e+01  -4.388810e+00
   5.468627e+01   3.722135e+01
  -2.259794e+01   2.347182e+01
  -3.766777e+01  -1.604252e+01
  -2.798672e+01  -3.854118e+01
   5.808744e+01   9.707988e+00
   7.905563e+01  -2.863937e+00
  -3.159029e+01   3.361776e+01
  -7.556134e+01   1.506022e+01
