
 $NMID
 id='ANONYMOUS ', fmtdat='(2E16.6)'
 volume=1.0
 tramp=1.0
 $END
   1.891618e+03   8.036662e+01
   1.381969e+03   8.587067e+02
   1.288209e+02   1.257788e+03
  -7.887080e+02   9.368263e+02
  -6.862525e+02   2.896609e+02
  -2.275901e+02  -3.316352e+01
   9.023227e+01   5.066657e+01
  -2.439032e+01   1.576949e+02
  -1.237192e+02   3.052038e+02
  -3.388511e+02   9.917722e+01
  -2.953229e+02  -2.606039e+02
  -9.030027e+01  -3.551333e+02
   1.029845e+02  -1.476088e+02
   1.264342e+02   1.708951e+02
   1.355584e+00   2.998646e+02
  -1.640545e+02   5.407149e+01
  -1.988996e+02  -2.255836e+02
   3.292612e+01  -3.720257e+02
   2.284759e+02  -2.063894e+02
   3.222896e+02   7.374961e+01
   1.359740e+02   1.535988e+02
   1.123971e+01   1.740022e+02
  -1.253691e+01   1.422721e+02
   1.296873e+02   1.261011e+02
   1.372072e+02   2.230844e+02
  -1.046682e+02   1.769787e+02
  -2.918691e+02  -1.563894e+01
  -2.934506e+02  -1.533640e+02
  -4.416042e+01  -1.414344e+02
   2.004671e+02  -6.949927e+01
   2.380434e+02   1.392203e+02
   3.396723e+01   1.811743e+02
  -1.340546e+02   1.648773e+02
  -2.234420e+02   6.941340e+01
  -1.487945e+02  -3.999321e+01
  -5.206969e+01  -1.323230e+02
  -6.983796e+01  -7.378315e+01
  -7.236220e+01   2.265167e+01
  -1.241264e+02   1.525994e+01
  -6.936971e+01  -1.053070e+02
   5.585205e+01  -2.804437e+02
   1.325285e+02  -2.019906e+02
   1.196657e+02  -7.593885e+00
   4.379777e+01   1.092365e+02
  -5.810184e+01   5.728306e+01
  -5.313291e+01  -2.356525e+02
   1.147322e+02  -1.356219e+02
   2.338457e+02   5.731061e+00
   1.932932e+02   2.152613e+02
   9.544806e+01   2.770145e+02
  -2.092909e+02   8.371321e+01
  -3.007001e+02  -5.366852e+01
  -1.460927e+02  -1.442276e+02
  -8.521215e+00  -7.434877e+01
   1.565503e+02  -2.502297e+01
   1.285090e+02  -3.747310e+01
   4.817173e+01   1.357919e+01
   2.240233e+01  -4.553307e+01
   5.988414e+01   4.619408e+00
   9.366834e+01   6.445257e+01
   8.850550e+01   4.370602e+01
  -7.196747e+01   1.875360e+02
  -2.157939e+02   9.610710e+01
  -1.796038e+02  -8.278228e+01
   4.730354e+01  -2.063001e+02
   2.035266e+02  -2.337419e+02
   2.120927e+02  -1.019390e+02
   1.400266e+02   1.063826e+02
   1.113646e+01   1.831473e+02
   1.603968e+01   1.798075e+02
   5.919774e-02   1.045332e+02
  -4.532202e+01   1.031591e+02
  -1.212669e+02   5.536978e+01
  -2.207051e+02   1.758956e+01
  -1.146231e+02  -1.224886e+02
  -5.545815e+01  -1.731464e+02
   6.973789e+01  -1.157291e+02
   1.083623e+02   3.030561e+01
   8.042327e+01   1.801950e+02
  -4.561335e+01   1.187053e+02
  -1.739660e+02  -1.811414e+01
  -1.849979e+02  -1.238794e+02
  -1.274819e+02  -1.443287e+02
  -2.867647e+01  -1.644493e+02
   4.470027e+01  -1.063256e+02
   1.151127e+02  -1.067872e+01
   8.999062e+01  -1.586591e+01
   2.183748e+02  -3.092930e+01
   2.692053e+02   3.921988e+01
   2.044394e+02   1.760415e+02
   6.881338e+00   2.891855e+02
  -2.341475e+02   2.621058e+02
  -3.078576e+02   1.500744e+02
  -1.952001e+02  -7.546007e+01
  -2.610901e+01  -1.632559e+02
   6.888879e+01  -1.237048e+02
   8.105610e+00  -6.221010e+01
  -1.151072e+02  -3.082441e+01
  -6.557855e+01  -4.213141e+01
   4.872224e+01  -9.093827e+01
   8.633501e+01  -3.603569e+01
   2.004201e+01   9.475678e+00
  -3.175572e+01   1.430328e+01
  -1.374067e+02  -3.632332e+01
  -9.876465e+01  -1.891789e+02
  -9.989217e+00  -2.148746e+02
   1.592633e+02  -1.290023e+02
   2.210079e+02   3.325515e+01
   1.849761e+02   1.831470e+02
   4.185270e+01   1.425287e+02
  -1.017650e+02   9.236496e+01
  -7.494135e+01  -1.963927e+01
  -2.864739e+01  -1.733994e+01
  -1.288942e+00   6.999321e+01
  -5.587458e+01   6.752133e+01
  -9.080595e+01   6.756810e+01
  -9.854297e+01  -4.419493e+01
  -2.365100e+01   2.865498e+00
   2.099590e+01   1.305037e+01
   2.415368e+01   7.392454e+01
  -8.706006e+01   4.069178e+01
  -1.858784e+02  -3.485756e+01
  -1.572234e+02  -1.171152e+02
   2.211537e+01  -1.763849e+02
   1.448771e+02  -1.844023e+02
   1.891743e+02  -5.715766e+01
   9.332543e+01   5.184982e+01
  -1.665442e+00   5.516535e+01
   2.800182e+01  -1.120419e+01
   2.681252e+01  -3.615736e+01
   1.041085e+02   2.798296e+01
   1.313106e+02   7.414410e+01
   3.964177e+01   1.199012e+02
  -3.061347e+01   7.811765e+01
  -9.891758e+01   1.833513e+01
  -3.393207e+01   4.721304e+00
   7.214653e+00   5.865599e+01
  -2.324663e+01   2.101985e+01
  -9.912515e+01   5.531162e+01
  -1.656522e+02  -1.122540e+01
  -6.745387e+01  -7.379047e+01
  -1.910631e+01  -1.459795e+02
   9.727165e+01  -7.747203e+01
   9.948642e+01   5.115594e-01
   7.792993e+00   2.087681e+01
  -2.797310e+01   2.541885e+01
  -3.209927e+01   3.428338e+01
  -8.087510e+00  -1.939731e+01
   9.444175e+00   2.603460e+01
  -5.802399e+01  -6.672832e+00
  -3.326357e+01   4.154662e+01
  -5.678450e+01  -3.543738e+01
  -2.577045e+01  -1.126250e+02
   9.194159e+01  -9.367321e+01
   1.687862e+02  -5.994701e+00
   1.198415e+02   7.857468e+01
   1.465376e+01   1.691257e+02
  -5.304458e+01   7.829822e+01
  -5.285848e+01  -1.953707e+00
  -2.027758e+01  -7.798990e+00
  -3.685563e+01  -2.296811e+01
  -4.086898e+01  -7.228532e+00
  -4.841227e+01   1.305214e+01
  -2.619744e+01  -1.645783e+01
   2.196888e+01  -7.863283e+01
   9.247568e+01  -2.399179e+01
   7.229358e+01   3.940709e+01
  -3.630161e+01   9.887872e+01
  -1.567410e+02   4.344562e+01
  -1.368632e+02  -4.829382e+01
  -4.966708e+01  -1.183821e+02
   9.509383e+01  -1.584015e+02
   1.693632e+02  -8.766450e+01
   1.386535e+02   2.651196e+01
   6.266863e+01   1.137202e+02
  -2.607923e+01   5.061666e+01
  -2.393230e+01   7.156411e+01
  -5.781523e+01   6.676348e+01
  -4.777145e+01   2.896565e+01
  -5.876552e+01   6.579770e+01
  -1.260664e+02  -2.666280e-01
  -4.865908e+01  -9.815327e+01
  -2.262166e+01  -1.133378e+02
   5.791549e+01  -6.990660e+01
   1.049083e+02   2.886429e+00
   6.727384e+01   1.189624e+02
  -1.672671e+01   1.279556e+02
  -8.599094e+01   5.727199e+01
  -3.779104e+01  -1.324555e+01
  -5.265180e+00  -4.791167e+01
   5.580484e+01  -9.219529e+00
  -2.618712e+01   2.644393e+00
  -5.767152e+01   8.234877e+00
  -6.826911e+01  -2.034272e+01
   8.026936e+01   2.470572e+00
   1.408254e+02   2.812934e+00
   8.163478e+01   8.418168e+01
  -9.309593e+00   6.249161e+01
  -9.065645e+01   3.772230e+01
  -8.061883e+01  -5.934376e+00
  -1.545763e+01  -3.361624e+01
   2.639263e+01  -2.907996e+01
   5.800939e+01  -3.492037e+01
   1.090738e+01   7.573771e+01
  -2.210225e+01   3.881769e+01
  -5.038770e+01   4.340105e+00
  -6.808955e+01  -5.767111e+01
  -1.542600e+01  -1.661396e+01
  -5.368665e+01  -9.473933e+00
  -3.049515e+01   1.301478e+01
  -1.359281e+01  -2.886153e+01
   9.080915e+00  -1.310215e+02
   8.379198e+01  -9.672592e+01
   1.169930e+02  -6.991911e+01
   8.342903e+01   6.129039e+01
   9.583213e+00   1.103748e+02
  -6.375289e+01   1.707285e+01
  -6.194654e+01   3.698306e+00
   4.109957e+01   7.055747e+00
   9.778420e+01   3.905593e+01
   6.870385e+01   2.222622e+01
  -7.122220e+01   8.898530e+01
  -1.332311e+02   5.838041e+01
  -1.174375e+02  -2.862152e+01
   3.545707e+01  -6.270450e+01
   3.168617e+01  -5.023390e+01
   6.598043e+01   1.716085e+00
   7.512940e-02   2.484024e+01
  -4.223198e+01  -1.329763e+01
  -2.433776e+01  -3.618054e+01
   4.956052e+01  -1.063880e+02
   4.116385e+01  -2.063518e+01
   6.565254e+01   1.798219e+01
   1.131177e+01   1.527559e+02
  -5.150029e+01   9.496215e+01
  -5.765297e+01  -5.356037e+01
  -3.713716e+01  -7.247123e+01
   4.292335e+01  -1.091902e+02
   2.426853e+01  -2.827550e+01
   6.716381e+01   2.862716e+01
   7.363846e+00  -1.089672e+01
   1.445239e+01  -4.000715e+00
   3.212160e+01   1.940864e+01
   4.121999e+01   8.498676e+01
   6.998514e+00   7.370357e+01
  -5.904427e+01   2.068417e+01
  -9.020013e+01  -3.925904e+01
  -9.415531e+01  -4.510366e+01
  -2.845549e+01   1.697225e+01
   6.043069e+01  -2.203173e+00
   9.453106e+01  -3.519364e+00
   2.247432e+01   3.858169e+01
  -2.707357e+01   8.090933e+00
   1.970166e+01   2.510631e+01
   1.816099e+01  -9.598871e+00
  -2.398519e+00  -9.978321e-01
  -3.521804e+01   1.919323e+01
  -5.450768e+01  -5.417446e+00
  -4.596084e+00  -7.951901e+01
   7.580235e+01  -1.058020e+02
   1.024951e+02  -4.736055e+01
   9.799945e+01   3.537208e+01
  -2.014209e+00   9.506058e+01
  -3.380676e+01   8.416763e+01
  -6.608998e+01   4.696436e+01
  -6.340585e+01  -1.364889e+01
  -1.841402e+01  -3.175955e+01
  -1.453018e+01   3.983599e+00
  -3.426731e+01   1.993382e+01
   1.630809e+01  -3.103301e+01
  -3.080321e+01  -5.739299e+01
   1.181373e+01  -5.073438e+01
   5.530518e+01   1.994495e+01
   6.638713e+01   6.243355e+01
   2.349105e+01   5.922549e+01
  -4.834877e+01   2.882427e+01
  -5.291293e+01  -3.402992e+01
  -1.376774e+01  -5.074854e+01
  -1.020697e+00  -2.763661e+01
   6.728705e+01  -5.609775e+00
   4.067146e+01   9.797301e+01
  -1.655471e+01   4.909151e+01
  -2.277782e+01  -3.991916e+01
   9.804746e+00  -1.356725e+01
   5.699616e+01   7.220410e+00
   1.129886e+01   2.742686e+01
  -4.127398e+01   5.512064e+01
  -8.166744e+01   3.791863e+01
  -3.618478e+01  -2.672032e+01
  -2.601061e+01  -5.471419e+01
   1.765607e+01  -6.558055e+01
   6.086848e+01  -1.612393e+01
  -1.465023e+01   3.187770e+01
   8.113338e+00   3.230729e+01
  -1.175751e+01   4.351785e+01
  -4.688459e+01  -2.813396e+01
   5.084196e+00   3.179921e+00
   2.727835e+01  -1.128120e+01
   1.328318e+01   2.636111e+01
   9.740561e+00   1.392270e+01
   2.429313e+01   1.156698e+01
  -1.599960e+01   6.947709e+00
   2.580612e+01   1.143110e+01
   3.363647e+01   2.648806e+01
   1.734313e+00   4.405651e+01
  -2.169111e+01  -2.532572e+01
  -1.660368e+01  -4.667134e+01
   3.430401e+01  -3.206987e+01
   6.034993e+01   3.576569e+01
  -1.069218e+01   4.137605e+01
  -3.712783e+01   3.047231e+01
  -8.917945e+01   2.385398e+00
  -2.416660e+01   8.336047e+00
   2.389373e+01   4.748584e+00
   6.253393e+01  -1.309297e+01
   2.731256e+01  -3.266153e+00
  -5.092510e+00  -1.146923e+01
  -3.452403e+01  -3.195178e+01
   5.921204e+01  -1.964343e+01
   2.617077e+01   1.412431e+01
