
 $NMID
 id='ANONYMOUS ', fmtdat='(2E16.6)'
 volume=1.0
 tramp=1.0
 $END
  -2.720866e+03  -7.812630e+01
  -1.783301e+03  -1.715139e+03
   2.084011e+02  -1.863544e+03
   1.221850e+03  -8.794300e+02
   8.030801e+02   6.891932e+01
  -1.400896e+01   1.296866e+02
  -3.693170e+02  -1.973504e+02
  -4.248485e+01  -5.668502e+02
   4.479137e+02  -4.846614e+02
   5.390068e+02  -7.476809e+01
   3.188707e+02   4.494532e+02
  -2.372277e+01   5.996949e+02
  -3.078478e+02   1.468637e+02
  -2.205915e+02  -3.561528e+02
   1.339526e+02  -4.706677e+02
   3.052973e+02  -8.920147e+01
   2.536875e+02   3.759632e+02
  -5.470295e+01   4.948331e+02
  -3.398393e+02   1.831371e+02
  -3.147574e+02  -1.679866e+02
  -6.640286e+01  -2.753750e+02
   9.448745e+01  -2.319473e+02
   6.852182e+01  -5.225747e+01
  -1.412754e+02  -4.839800e+01
  -2.843768e+02  -1.258124e+02
  -6.938023e+01  -2.587445e+02
   3.633950e+02  -1.215091e+02
   5.487668e+02   1.092741e+02
   1.889382e+02   3.267892e+02
  -2.456720e+02   2.132433e+02
  -4.771818e+02  -6.624844e+01
  -1.443416e+02  -2.864875e+02
   2.045865e+02  -2.919910e+02
   3.542380e+02  -1.228778e+02
   1.986446e+02   1.440997e+02
   3.365471e+01   2.711286e+02
  -4.834185e+01   2.067615e+02
   1.022054e+01  -1.177315e+02
   1.264277e+02  -1.656262e+02
   2.114616e+02   8.572268e+01
   7.587390e+01   4.410547e+02
  -1.884680e+02   4.037240e+02
  -2.494119e+02   4.832687e+00
  -1.243861e+02  -2.802096e+02
   1.694099e+02  -1.333494e+02
   2.220993e+02   1.732133e+02
  -8.023529e+01   3.159824e+02
  -3.664966e+02   5.764786e+01
  -3.799630e+02  -2.907058e+02
  -9.402944e+01  -3.985771e+02
   2.781851e+02  -1.930955e+02
   4.134686e+02   3.970611e+01
   3.119070e+02   2.581024e+02
  -9.466133e+01   2.027802e+02
  -2.510647e+02   1.005089e+02
  -1.905895e+02  -2.381422e+01
  -2.152286e+00  -1.664419e+01
   6.005222e+01   5.948876e+01
  -5.836628e+01   3.359906e+01
  -1.690468e+02  -6.486536e+01
  -1.036698e+02  -1.543654e+02
   1.611142e+02  -2.054941e+02
   2.455462e+02  -2.996394e+01
   1.916098e+02   1.124373e+02
  -3.560635e+01   2.315940e+02
  -2.033471e+02   2.347346e+02
  -2.756899e+02   1.174115e+02
  -1.815503e+02  -1.184428e+02
  -6.047517e+01  -2.964269e+02
   7.340603e+01  -2.538506e+02
   2.800740e+01  -1.210458e+02
   2.205465e+01  -5.615659e+01
   8.214585e+01  -1.153489e+02
   1.991166e+02  -2.485376e+01
   2.008387e+02   9.499713e+01
   4.748080e+01   1.775774e+02
  -6.728056e+01   1.363244e+02
  -1.301488e+02  -4.806284e+01
  -1.139786e+02  -2.100646e+02
   1.866542e+01  -1.848823e+02
   1.815558e+02  -6.791169e+01
   2.420305e+02   1.540106e+02
   1.543852e+02   2.364353e+02
  -5.587193e+01   2.107188e+02
  -1.461210e+02   6.946340e+01
  -1.725019e+02   6.945261e+01
  -1.230376e+02   3.062930e+01
  -2.199512e+02   3.895556e+01
  -2.834787e+02  -8.766722e+01
  -2.287321e+02  -2.310142e+02
   4.483450e+01  -3.054951e+02
   2.554252e+02  -2.836375e+02
   3.886443e+02  -1.381727e+02
   2.143927e+02   6.528839e+01
  -2.075917e+00   2.157319e+02
  -7.250980e+01   1.704153e+02
  -2.246483e+01   1.622947e+01
   8.148150e+01  -6.842545e+01
   1.153577e+02  -1.170934e+00
   5.560767e+01   1.451856e+02
  -1.097593e+02   8.633382e+01
  -1.084652e+02  -4.894132e+01
   1.279524e+01  -1.369177e+02
   1.175914e+02  -2.320104e+01
   1.140605e+02   1.833790e+02
  -1.149313e+00   2.521631e+02
  -1.782405e+02   1.551791e+02
  -2.534142e+02  -1.409841e+01
  -2.067452e+02  -1.910755e+02
  -9.003037e+01  -2.192453e+02
   8.037853e+01  -9.939546e+01
   1.307023e+02  -7.122165e+00
   2.160014e+01   2.875947e+01
  -1.211253e+01  -6.107501e+01
   6.156161e-02  -6.615398e+01
   1.106115e+02  -5.436122e+01
   9.678662e+01  -1.432578e+01
   4.135357e+01   7.992786e+01
  -4.873929e+01   4.453589e+00
  -4.082723e+01  -7.195803e+01
   9.401487e+01  -1.984336e+01
   2.374467e+02   1.392181e+01
   1.732304e+02   1.060647e+02
   1.962900e+01   1.818652e+02
  -1.406712e+02   1.956014e+02
  -1.968693e+02   7.481222e+01
  -1.245773e+02  -5.627101e+01
   7.457397e+00  -4.954846e+01
   4.668867e+01   2.198933e+01
  -1.776249e+01   7.186464e+01
  -1.698446e+02  -9.520094e+00
  -1.425633e+02  -9.960930e+01
  -2.983168e+01  -1.394731e+02
   5.254130e+01  -1.036729e+02
   9.276630e+01  -4.938936e+01
   1.222675e+01   2.345401e+01
   6.351575e+00  -6.450786e+00
  -2.441928e+01  -4.806455e+01
   5.063862e+01  -1.056058e+02
   1.438925e+02  -4.347263e+00
   1.352827e+02   1.182405e+02
  -1.068716e+00   1.689359e+02
  -1.115955e+02   1.199676e+02
  -1.356268e+02  -6.975419e+00
  -4.538132e+01  -9.336411e+01
   2.538890e+01  -3.268661e+01
   7.388540e+01  -1.368550e+01
   3.129142e+01   1.227543e+01
   8.439483e+00   1.145618e+01
   4.123799e+00  -1.996298e+01
   8.025069e+01   1.435704e+01
   7.857669e+01   7.378127e+01
   1.975157e+00   1.257606e+02
  -9.771641e+01   9.600608e+01
  -1.827106e+02   2.981165e+00
  -1.513928e+02  -1.315104e+02
  -5.610051e+01  -2.174773e+02
   9.661773e+01  -1.177204e+02
   9.066192e+01  -2.475277e+01
   5.154623e+01   2.630074e+01
  -1.140884e+01   7.100754e+01
   4.391766e+01  -2.826428e+01
   7.374812e+01  -1.673277e+01
   3.436623e+01   2.978227e+01
  -5.900583e+01   7.693772e+01
  -4.694202e+01   4.878526e+01
  -1.115807e+02   6.353390e+00
  -1.736253e+01  -6.761363e+01
   9.268938e+01  -1.001840e+02
   1.372335e+02   3.265653e+01
   6.277760e+01   1.486067e+02
  -1.122906e+02   1.933698e+02
  -2.327568e+02   9.491420e+01
  -1.860349e+02  -2.616158e+01
  -5.513025e+01  -1.581368e+02
   4.383002e+00  -6.669950e+01
   4.536158e+01  -7.206933e+01
   5.497085e+01  -4.362260e+01
   6.203403e+01  -8.114012e+01
   5.352060e+01  -8.036693e+01
   1.236406e+02   4.216672e+00
   9.910849e+01   1.215755e+02
   2.758272e+01   1.610618e+02
  -1.041549e+02   1.413350e+02
  -1.156312e+02   2.123377e+01
  -1.282495e+02  -1.064999e+02
  -5.342725e+01  -1.117557e+02
   6.449936e+01  -8.713259e+01
   3.605099e+01   1.848237e+01
  -3.438742e+01   3.820167e+01
  -2.110959e+01   1.110199e+01
   4.429546e+01   4.082469e+01
   5.369653e+01  -6.919636e-01
   3.887169e+01   7.334827e+00
  -6.417672e+01   3.166737e+01
  -1.627258e+02  -2.703507e+01
  -1.202601e+02  -7.029458e+01
  -5.493753e+00  -1.224517e+02
   1.021274e+02  -4.797644e+01
   1.069546e+02   1.617328e+01
   5.351165e+01   2.455143e+01
  -4.166991e+01   3.384096e+01
  -6.422122e+01  -3.658883e+01
  -1.884417e+01  -4.648891e+01
   3.856752e+01  -5.730572e+01
  -6.896520e+00  -1.783831e+01
   2.942509e+01   3.730124e+01
   7.462919e+01   4.399672e+01
   7.615803e+01  -3.625247e+00
   2.451189e+01  -7.476565e+00
  -1.804752e+01   3.646278e+01
  -3.223195e+01   1.595947e+02
  -1.489419e+02   1.042465e+02
  -1.359251e+02   7.474425e+01
  -9.202753e+01  -7.609368e+01
   8.098009e+00  -1.129238e+02
   4.166692e+01  -7.215669e+01
   4.068930e+01   4.070352e+01
  -1.902444e+01  -5.899973e+00
  -1.225422e+02  -1.474795e+01
  -7.392082e+01  -6.397426e+01
   5.459639e+01  -9.241935e+01
   1.624479e+02  -2.034974e+01
   1.213583e+02   4.094253e+01
   1.406892e+01   7.329275e+01
  -6.313744e+01   1.711342e+01
  -6.892398e+01   1.404067e+01
   1.161969e+01  -3.224083e+00
   5.638082e+01  -8.700889e+00
   4.303885e+01   6.154656e+01
  -3.967962e+01   1.268010e+02
  -1.353067e+02   3.984078e+01
  -7.914008e+01  -6.040340e+01
   1.507255e+01  -1.490609e+02
   7.207830e+01  -1.138660e+02
   7.378651e+01   1.471116e+00
   3.091006e+01   9.471685e+01
  -4.521300e+01   8.835782e+01
  -1.855515e+01   1.158475e+01
  -5.178819e+01  -2.053624e+01
   3.598756e+00   2.028038e+01
  -2.011989e+01   6.783117e+01
   6.351368e+00  -1.744845e+01
  -6.037865e+01  -7.311676e+01
  -1.433525e+01  -5.157452e+01
   4.108605e+01  -2.891267e+01
   8.676920e+01   3.482607e+01
   1.019887e+02   8.556624e+01
   1.017804e+01   2.898947e+01
  -3.070360e+01   2.315554e+01
  -8.821194e+01  -4.595027e+00
   1.643793e+01  -2.466703e+01
   5.268434e+01  -1.689674e+01
   7.559659e-01   1.475783e+01
  -2.679369e+00  -3.016017e+01
   1.255211e+01   1.650617e+01
   3.139482e+01   1.015937e+01
   9.646176e+01   2.201361e+01
   3.380478e+01   4.870757e+01
  -6.777233e+01   1.180527e+02
  -1.292869e+02   2.311084e+01
  -8.990366e+01  -4.072913e+01
  -1.220760e+01  -1.643880e+02
   9.002444e+01  -1.120938e+02
   1.004616e+02  -6.096925e+01
   5.742028e+01   3.706382e+01
  -1.025505e+00   4.581094e+01
  -1.255592e+00  -1.147328e+01
   5.607977e+00  -1.976095e+01
   3.344782e+01   3.882634e+01
   2.211917e+01   1.609020e+01
   1.420346e+00   5.791676e+01
  -7.016261e+01  -3.186257e+01
  -3.756872e+01  -6.001992e+01
   9.088130e+00  -9.725321e+01
   4.832643e+01  -1.067943e+01
   6.737408e+01   7.819624e+01
   4.661658e+01   7.677140e+01
  -6.220282e+01   6.187223e+01
  -5.966850e+01  -1.176684e+01
  -3.071954e+01  -5.767487e+01
   2.137878e+01  -6.362699e+01
   6.715401e+01  -2.400067e+01
   5.413051e+00   1.492161e+01
  -5.808387e+01  -2.808932e+01
   6.006758e+00  -2.639420e+01
   3.723761e+01  -5.134496e+01
   1.044445e+02  -9.924769e+00
   4.207110e+01   3.240863e+01
  -6.521521e-01   3.601299e+01
  -4.760659e+01   7.035572e+01
  -3.697609e+01   2.238135e+01
  -2.278036e+01  -7.424187e+01
   6.011584e+00  -3.417803e+01
   4.487590e+01  -1.250544e+01
   1.006119e+01   6.761864e+01
   8.884273e+00   2.666223e+01
  -1.947606e+01   9.889462e+00
  -4.741482e+01  -2.564214e+01
  -2.298476e+00  -2.122562e+01
   1.428753e+01   6.884980e+00
  -2.218453e+01   4.405629e+01
  -4.476794e+01  -4.665300e+01
   1.502914e+01  -3.434065e+01
   1.142574e+01   9.430274e+00
   4.013469e+01   1.631804e+01
   2.492133e+01   1.806538e+01
  -3.207705e+01  -7.075545e+00
  -3.563863e+00  -3.766720e+01
  -2.570242e+01  -2.870449e+01
   4.802010e+01  -1.528807e+01
   5.986573e+01  -2.498935e+01
   3.432232e+01   6.584639e+01
  -1.107165e+01   2.618631e+01
  -7.287134e+01   1.744580e+01
  -1.315969e+01  -1.808573e+01
   4.249141e+01  -1.687002e+01
   6.568022e+01   6.794908e+01
  -1.115808e+00   4.575921e+00
  -6.719783e+01   4.504310e+01
