
 $NMID
 id='ANONYMOUS ', fmtdat='(2E16.6)'
 volume=1.0
 tramp=1.0
 $END
  -2.808047e+03  -1.808222e+02
  -1.847648e+03  -1.665675e+03
   3.240531e+02  -2.050013e+03
   1.357732e+03  -9.719462e+02
   8.136988e+02   3.183803e+00
  -7.258161e+01   1.703663e+02
  -3.325247e+02  -8.965811e+01
  -3.614762e+01  -5.201680e+02
   4.201141e+02  -5.362965e+02
   5.920762e+02  -2.652143e+01
   4.433233e+02   5.129583e+02
  -3.443690e+01   5.909658e+02
  -2.794969e+02   1.924504e+02
  -2.624052e+02  -3.657406e+02
   1.082625e+02  -5.009704e+02
   3.557834e+02  -4.233680e+01
   1.986002e+02   4.331175e+02
  -1.154869e+02   5.277225e+02
  -3.953879e+02   1.820345e+02
  -2.993885e+02  -1.920689e+02
  -1.000617e+02  -3.258790e+02
   1.098376e+02  -2.076085e+02
   7.744056e+01  -4.978479e+01
  -1.316033e+02  -4.223226e+01
  -2.545006e+02  -1.447572e+02
  -3.122818e+01  -3.044725e+02
   3.845768e+02  -1.926415e+02
   5.842093e+02   1.159351e+02
   2.027092e+02   3.036311e+02
  -2.984618e+02   2.339181e+02
  -4.956384e+02  -1.399406e+02
  -2.054227e+02  -3.080765e+02
   2.039278e+02  -3.038484e+02
   3.870784e+02  -9.981050e+01
   2.733278e+02   1.352205e+02
   1.016975e+02   2.668874e+02
  -4.634764e+01   1.559399e+02
   1.917067e+01  -1.032014e+02
   1.448357e+02  -1.729485e+02
   1.871362e+02   8.828628e+01
   7.964511e+01   4.304013e+02
  -2.605087e+02   4.424613e+02
  -3.252796e+02  -4.599803e+01
  -1.158573e+02  -3.093054e+02
   1.863992e+02  -1.680597e+02
   2.276041e+02   1.929557e+02
  -9.500449e+01   3.422990e+02
  -4.122752e+02   5.630365e+01
  -4.158911e+02  -2.601502e+02
  -1.053958e+02  -4.011462e+02
   2.728333e+02  -2.157884e+02
   4.321718e+02   3.158621e+01
   3.101226e+02   2.329288e+02
  -8.969088e+01   1.793436e+02
  -2.705431e+02   3.982940e+01
  -2.058609e+02  -3.921600e+01
   6.426812e+01  -4.200435e+01
   7.808929e+01   6.752739e+01
  -8.446439e+01   5.791730e+01
  -1.547602e+02  -2.983403e+01
  -9.841234e+01  -1.776353e+02
   1.324906e+02  -1.938237e+02
   1.881518e+02  -5.769367e+01
   1.760462e+02   8.998475e+01
  -1.193371e+01   1.959415e+02
  -1.878945e+02   3.009366e+02
  -2.778048e+02   1.271238e+02
  -1.683831e+02  -1.314457e+02
  -8.938906e+01  -3.139272e+02
   2.310115e+01  -3.057119e+02
   9.224676e+01  -1.210596e+02
   1.296294e+01  -7.785539e+01
   5.605143e+01  -1.147731e+02
   1.835525e+02  -8.996980e+01
   1.989958e+02   8.590466e+01
   1.099626e+02   1.943229e+02
  -4.914653e+01   1.362915e+02
  -1.539973e+02  -2.252391e+00
  -1.346111e+02  -2.048144e+02
   5.726381e+01  -1.774505e+02
   1.943521e+02  -9.553736e+01
   2.860470e+02   1.423076e+02
   9.737113e+01   2.226272e+02
  -1.212302e+02   2.475385e+02
  -1.614027e+02   1.411778e+02
  -1.097553e+02   3.044954e+01
  -1.050007e+02   4.172017e+01
  -2.056748e+02   5.102290e+01
  -2.923731e+02  -6.420127e+01
  -2.708892e+02  -2.294157e+02
   4.912071e+01  -3.582062e+02
   2.951196e+02  -3.099474e+02
   4.102756e+02  -1.448065e+02
   2.149709e+02   7.780085e+01
   4.175693e+01   2.126934e+02
  -8.917624e+01   1.974853e+02
  -2.972807e+01   2.924033e+01
   7.806526e+01  -5.948294e+01
   1.529925e+02   2.466942e+01
   3.927991e+01   1.329239e+02
  -1.017577e+02   1.139986e+02
  -1.238570e+02  -7.280265e+01
  -3.073013e+01  -1.011363e+02
   1.437508e+02   4.923679e+00
   1.100919e+02   1.548704e+02
  -3.704935e+01   2.497363e+02
  -1.927714e+02   1.636773e+02
  -2.805483e+02  -4.976202e+01
  -2.153193e+02  -2.322504e+02
  -8.908047e+01  -2.350297e+02
   1.088533e+02  -1.391716e+02
   1.395232e+02  -2.582125e+00
   5.787266e+00   4.318077e+01
  -5.608901e+01  -5.479974e+01
   7.358471e+00  -1.120430e+02
   9.501435e+01  -7.529508e+01
   1.230735e+02   2.429182e+00
   4.858085e+01   4.979351e+01
  -8.990300e+01  -5.056791e+01
  -1.542825e+01  -2.732633e+01
   1.123991e+02  -5.863120e+01
   2.599663e+02   3.324176e+01
   1.914360e+02   1.636205e+02
   6.651057e+01   2.153781e+02
  -1.353630e+02   1.879553e+02
  -1.940303e+02   7.577149e+01
  -1.160638e+02  -2.414298e+01
   3.952060e+01  -6.399712e+01
   3.576206e+01  -3.905541e+00
  -2.417261e+01   6.933043e+01
  -1.258847e+02   7.615972e+00
  -1.445288e+02  -9.179101e+01
  -9.051276e+01  -1.569563e+02
   5.362934e+01  -1.335034e+02
   1.246151e+02  -3.209379e+01
   3.940965e+01   3.470521e+01
  -5.295206e+01  -2.453427e+01
  -3.466222e+01  -2.996953e+01
   5.613320e+01  -8.189660e+01
   1.936698e+02   4.151250e+00
   1.004764e+02   1.504630e+02
   5.514880e+01   2.089280e+02
  -1.275157e+02   1.237969e+02
  -1.436987e+02  -1.718875e+01
  -9.514193e+01  -6.716124e+01
   2.748110e+01  -6.494839e+01
   3.814673e+01  -4.417554e+01
   2.949032e+01  -2.038980e+01
   7.913106e+00   1.331644e+00
   3.318072e+01  -3.035941e+01
   4.990834e+01   1.237321e+01
   8.414290e+01   9.656455e+01
  -3.282068e+01   1.698987e+02
  -1.519736e+02   1.288250e+02
  -1.754247e+02  -1.346131e+01
  -1.094763e+02  -1.090777e+02
  -3.128300e+01  -1.842422e+02
   1.087574e+02  -1.409962e+02
   1.348225e+02  -8.001593e+00
   3.177394e+01   4.449885e+01
   5.500687e+01   6.582769e+01
   5.386703e+01  -1.892043e+01
   2.335622e+01  -9.437105e+00
   4.975865e+01   4.290159e+01
  -4.056749e+01   5.883633e+01
  -8.226941e+01   5.909850e+01
  -6.249952e+01  -3.911622e+01
   4.917550e+00  -1.284200e+02
   1.046825e+02  -7.590854e+01
   1.712513e+02   5.104998e+01
   5.820413e+01   1.741138e+02
  -1.194520e+02   1.456075e+02
  -1.895741e+02   5.724681e+01
  -2.071164e+02  -7.935550e+01
  -7.079538e+01  -1.314329e+02
  -1.399791e+01  -5.746578e+01
   6.365619e+01  -7.104281e+01
   5.701663e+01  -5.199904e+01
   3.581556e+01  -9.310626e+01
   1.014214e+02  -4.732461e+01
   1.003235e+02   1.503109e+01
   9.725481e+01   1.264540e+02
   1.466537e+01   1.450708e+02
  -7.667492e+01   1.607787e+02
  -1.461861e+02  -3.649616e+00
  -8.807333e+01  -1.206860e+02
  -1.415924e+01  -1.104015e+02
   4.780072e+01  -7.231437e+01
   4.791925e+01   1.114044e+01
  -2.561953e+01   2.783362e+01
  -3.362974e+01   4.611963e+01
   5.680918e+01   7.331241e+00
   6.102820e+01  -2.021829e-01
   3.665584e+01   3.818681e+01
  -3.650741e+01   2.234035e+01
  -1.070374e+02  -3.422249e+01
  -8.788288e+01  -2.541694e+01
   6.693179e+00  -6.731166e+01
   1.201112e+02  -5.572557e+01
   1.232421e+02  -3.655250e+01
   5.681425e+01   4.760410e+01
  -5.261728e+01   9.417092e+01
  -6.771513e+01  -5.901433e-01
  -3.383011e+01  -9.445591e+01
   4.560734e+01  -5.517150e+01
   4.695340e+01  -2.181478e+01
   1.623876e+01   3.703495e+01
   2.059032e+01   9.745920e+00
   6.927363e+01  -4.240099e+00
   1.172593e+01  -1.101757e+00
   6.435642e+01   3.952134e+01
  -3.663937e+01   1.288519e+02
  -1.138876e+02   1.293130e+02
  -1.196332e+02  -9.042605e-01
  -1.117528e+02  -5.704865e+01
   7.281532e-01  -1.354156e+02
   3.877465e+01  -4.480969e+01
   3.780985e+01  -1.296487e+01
  -4.658345e+01   1.770594e+01
  -1.038060e+02  -4.046247e+01
  -5.611172e+01  -1.041205e+02
   8.583641e+01  -8.082669e+01
   1.474756e+02  -4.680345e+01
   1.494501e+02   3.057663e+01
   7.066592e+01   7.718325e+01
  -5.941992e+01   4.157334e+01
  -8.304914e+01   3.395242e+01
   2.085493e+01   6.318947e+00
   9.707369e+01   2.763142e+01
   4.679277e+01   1.057711e+02
  -8.655502e+01   1.127028e+02
  -9.815727e+01   7.440687e+01
  -1.117679e+02  -9.073074e+01
  -3.254605e+01  -1.529156e+02
   6.611800e+01  -1.078661e+02
   5.013698e+01   8.529054e+00
   9.410984e+01   1.106593e+02
   1.342978e+01   5.648166e+01
  -5.135106e+01   5.357905e+01
  -5.157354e+01  -1.355246e+01
  -4.547415e+01  -4.536628e+00
  -5.989962e+01   3.125170e+01
  -3.120854e+01  -2.041007e+01
  -6.482932e+01  -8.330839e+01
  -1.796841e+01  -1.123828e+02
   1.600882e+01   6.289399e+00
   1.177181e+02   5.336044e+01
   7.789027e+01   6.565761e+01
  -6.958022e+00   4.356518e+01
  -7.669621e+01  -8.757998e+00
  -5.551578e+01   2.696718e+01
   1.598747e+00   1.266186e+01
  -1.619868e-01   2.689969e+01
  -1.890575e+01  -3.959359e+00
  -3.417063e+01   3.469175e+00
   2.118826e+01  -4.572174e+00
   3.365945e+01   1.844360e+01
   7.227757e+01   4.773893e+01
   1.880923e+01   4.061820e+01
  -1.078535e+02   1.103787e+02
  -1.561247e+02   3.500536e+01
  -1.081362e+02  -6.594048e+01
   3.201646e+00  -1.611142e+02
   7.082365e+01  -1.196574e+02
   6.436655e+01  -3.837214e+01
   8.256512e+01   3.562585e+01
   4.681707e+01   1.035638e+01
   2.076163e+01   2.913475e+01
   1.350771e+01  -1.330893e+01
  -1.017490e+01   4.779672e+01
   1.652259e+01   5.852813e+01
   2.824765e+00   5.110574e+01
  -6.653651e+01  -1.358389e+01
  -4.659977e+01  -5.118927e+01
  -8.912860e+00  -1.018852e+02
   3.336961e+01  -1.204268e+01
   1.036009e+02   2.477412e+01
   6.178709e+01   8.614918e+01
  -3.231623e+01   5.247868e+01
  -8.687752e+01   5.891958e+00
  -3.322591e+01  -2.260577e+01
   6.413990e+00  -7.756299e+01
   1.915490e+01  -2.490285e+01
  -1.049065e+00   5.232958e+01
  -7.916801e+01   2.899681e+01
  -5.063771e+01  -2.164166e+01
   1.705263e+01  -5.271511e+01
   8.147077e+01  -8.267481e+01
   4.512504e+01  -6.352939e+00
  -1.381436e+01   7.144293e+01
  -4.862868e+01   9.735077e+01
  -1.528288e+01  -1.843654e+01
   1.689206e+00  -4.678062e+01
   5.035024e+01  -2.852322e+01
   5.168664e+01  -5.325953e-01
   1.747889e+01   2.204561e+01
   3.544549e+01   5.260892e+01
  -2.449691e+01   2.292427e+00
  -6.806994e+01   7.161372e+00
  -1.282259e+01  -1.620612e+00
   3.935878e+01  -2.419144e+01
   3.039717e+01  -2.154761e+01
  -1.085459e+01  -2.802871e+01
   2.071010e+01  -3.790428e+01
   8.449603e+00  -7.728545e+00
   6.143522e+01   1.931702e+01
   1.123352e+01   2.288013e+01
   3.111885e+00   6.990299e+01
  -5.413247e+01  -4.071492e+01
  -2.577247e+01  -2.160645e+01
   8.896948e+01  -2.843985e+01
   5.828582e+01   2.850730e+01
   2.789103e+01   4.596642e+01
  -1.256842e+01   3.095987e+01
  -5.132931e+01  -1.798837e+01
  -1.135456e+01  -1.110958e+01
   9.630458e+01   2.236755e+01
   2.018546e+01  -2.912870e+01
  -2.090386e+01   2.846503e+01
  -9.990355e+01   3.040434e+00
