
 $NMID
 id='ANONYMOUS ', fmtdat='(2E16.6)'
 volume=1.0
 tramp=1.0
 $END
   2.001947e+03  -9.983535e+00
   1.286571e+03   7.823207e+02
   2.312411e+02   1.223932e+03
  -7.710752e+02   9.665520e+02
  -6.990372e+02   3.199253e+02
  -2.457595e+02  -6.452196e+01
   1.856105e+02  -1.405795e+01
   4.937872e+01   2.260279e+02
  -2.699125e+02   3.683063e+02
  -3.200330e+02   1.633757e+02
  -3.167141e+02  -3.038931e+02
  -6.884840e+01  -4.133441e+02
   1.209736e+02  -1.781401e+02
   1.412482e+02   1.633949e+02
  -2.077271e+01   3.418819e+02
  -1.800549e+02   1.047638e+02
  -1.423233e+02  -2.425060e+02
   4.047893e+01  -4.478670e+02
   2.380735e+02  -2.396071e+02
   3.137198e+02   8.749876e+01
   1.104973e+02   2.264168e+02
   1.900524e+01   1.443485e+02
  -4.513230e+01   1.265704e+02
   8.520501e+01   1.190740e+02
   1.074180e+02   1.799405e+02
  -8.768832e+01   1.735530e+02
  -2.840415e+02   2.174521e+01
  -3.382318e+02  -8.474304e+01
  -2.023231e+02  -1.264938e+02
   1.687467e+02  -6.683438e+01
   2.517115e+02   3.620033e+01
   6.876747e+01   1.595198e+02
  -1.302852e+02   1.799188e+02
  -1.873669e+02   6.429948e+01
  -2.057483e+02  -3.187195e+01
  -9.423034e+01  -1.397773e+02
  -2.373229e+01  -1.512729e+02
  -6.058674e+01  -2.378140e+01
  -5.651256e+01  -1.201123e+01
  -3.547099e+01  -1.117626e+02
   2.015745e+01  -2.727997e+02
   7.019897e+01  -2.537081e+02
   1.809883e+02  -1.707487e+01
   1.358349e+02   1.939401e+02
  -5.137102e+01   4.377434e+01
  -3.917571e+01  -9.109310e+01
   7.517015e+01  -1.868026e+02
   2.407804e+02   1.402214e+01
   2.807769e+02   1.997428e+02
   1.315849e+02   2.622034e+02
  -1.723883e+02   1.460168e+02
  -2.933500e+02  -4.055733e+01
  -2.081528e+02  -1.468360e+02
   7.615322e+00  -1.286490e+02
   1.310727e+02  -6.675444e+01
   1.403332e+02   1.156937e+01
   2.285404e+01  -4.059623e+01
   2.863591e+01  -2.224397e+01
   3.085259e+01  -4.259258e+01
   1.094518e+02   3.595803e+01
   1.195100e+02   9.738673e+01
  -8.680667e+01   1.178529e+02
  -2.343553e+02   7.426163e+01
  -1.440868e+02  -7.735700e+01
  -5.426616e+00  -2.044938e+02
   1.720384e+02  -2.268054e+02
   2.431047e+02  -1.028059e+02
   9.429899e+01   8.601258e+01
   5.652758e+01   2.058847e+02
   4.709267e+01   2.154580e+02
   3.834906e+00   1.227873e+02
  -3.037702e+01   1.160165e+02
  -1.220483e+02   8.436294e+01
  -1.535805e+02  -6.410813e+00
  -1.279572e+02  -5.788330e+01
  -3.467126e+01  -1.598258e+02
   6.560432e+01  -1.493841e+02
   1.257974e+02  -7.104128e+00
   1.048470e+02   1.506722e+02
  -3.582211e+01   1.090991e+02
  -1.586430e+02   1.719116e+01
  -1.589157e+02  -9.250454e+01
  -1.061166e+02  -1.673590e+02
  -6.663230e+00  -2.095801e+02
   1.260477e+02  -1.022793e+02
   9.995633e+01  -9.746181e+01
   8.983553e+01  -4.029779e+01
   2.009051e+02   2.338439e+01
   2.071205e+02   4.065131e+01
   1.714016e+02   2.011085e+02
  -4.539957e+01   2.508812e+02
  -2.322678e+02   2.914022e+02
  -2.931426e+02   1.594916e+02
  -1.627101e+02  -4.100935e+01
  -1.779970e+01  -1.168235e+02
   1.091590e+01  -1.458595e+02
   6.028030e-01  -8.131067e+00
  -1.240876e+02   7.093524e+00
  -6.637334e+01  -1.994112e+01
  -2.202808e+00  -1.006853e+02
   6.655277e+01  -6.751975e+01
   7.395623e+01   1.132903e+01
  -1.408128e+01   7.459429e+01
  -9.401683e+01   2.909518e+01
  -1.031651e+02  -1.690598e+02
   1.803588e+01  -1.894729e+02
   1.421033e+02  -9.263157e+01
   2.093791e+02   3.266341e+01
   1.948355e+02   1.314411e+02
   7.782576e+01   1.541911e+02
  -9.991554e+01   7.979349e+01
  -6.799780e+01  -6.195290e+00
  -1.257227e+01   3.752042e+01
   2.426946e+01   5.755096e+01
   1.797760e+01   1.114867e+02
  -7.809227e+01   1.697483e+01
  -8.249642e+01  -4.154296e+01
  -1.070243e+01  -5.584225e+01
   8.309914e+01   3.204131e+01
  -1.376745e+00   5.778973e+01
  -1.022155e+02   2.851499e+01
  -1.939058e+02   1.866803e+01
  -1.680187e+02  -1.443157e+02
   2.603839e+01  -1.705112e+02
   1.306272e+02  -1.479775e+02
   2.009947e+02  -6.119166e+01
   9.513449e+01  -4.712403e+00
  -2.619632e+00   1.179724e+01
  -8.875206e+01  -1.117344e+01
   8.032289e+01  -5.443291e+01
   5.830702e+01   8.289487e+00
   1.331354e+02   6.527009e+01
   3.312940e+01   1.254919e+02
  -3.892455e+01   1.113901e+02
  -7.845119e+01   3.917710e+01
  -4.533461e+01  -1.235394e+01
   3.807492e+01   5.323279e+01
  -1.655850e+00   9.929089e+01
  -5.928252e+01   8.566292e+01
  -1.047713e+02   6.296586e+00
  -1.041675e+02  -1.005195e+02
   3.014214e+01  -1.362794e+02
   7.834533e+01  -4.194524e+01
   1.009804e+02  -1.585934e+01
   3.657798e+00   6.370754e+01
  -3.256078e+01   3.128408e+01
  -1.685716e+01   6.632634e+01
  -5.120702e+01  -3.512443e+00
  -2.511926e+01  -2.433290e+01
  -1.102689e+01  -1.192015e+01
  -7.056136e+01   2.006896e+00
  -6.417848e+01  -7.255618e+01
   8.653413e+00  -9.797809e+01
   8.153681e+01  -1.034242e+02
   1.540477e+02   2.777686e+01
   1.421325e+02   1.291784e+02
  -1.421818e+01   1.967807e+02
  -1.195159e+01   1.207572e+02
  -7.861367e+01   3.071700e+01
  -7.649198e+01  -9.842967e+00
  -1.311015e+00  -2.106054e+01
  -5.654731e+01   4.380049e+01
  -7.266248e+01  -1.250243e+01
  -4.349868e+01  -3.757739e+01
   1.005723e+01  -4.489684e+01
   1.077296e+02  -6.715521e+01
   5.775225e+01   5.933329e+01
  -2.579412e+01   8.977439e+01
  -1.143342e+02   4.775568e+01
  -1.492597e+02  -6.497147e+01
  -4.084487e+01  -1.603469e+02
   1.014196e+02  -1.745909e+02
   1.510242e+02  -3.219866e+01
   1.538217e+02   7.404711e+01
   6.389147e+01   1.211581e+02
  -3.479659e+01   7.944704e+01
  -4.240549e+01   6.224564e+01
  -1.306032e+01   7.136477e+01
  -2.017058e+01   6.322661e+01
  -8.388645e+01   5.433025e+01
  -8.879482e+01  -2.137723e+01
  -8.782502e+01  -8.238973e+01
  -2.351146e+01  -1.433195e+02
   6.600390e+01  -1.313158e+02
   7.581810e+01  -2.991119e+01
   4.820492e+01   9.379925e+01
   3.036728e+01   1.115746e+02
  -4.203359e+01   3.246344e+01
  -2.579230e+01  -2.315056e+01
   4.016683e+01  -6.855995e+00
  -1.176053e+00  -1.866901e+01
  -1.485540e+01  -6.784053e+00
  -6.031419e+01  -1.516832e+01
  -3.799250e+01  -3.990848e+01
   5.943651e+01  -2.046591e+01
   1.305392e+02  -3.036075e+01
   9.505934e+01   8.280403e+01
  -4.563164e+01   4.832609e+01
  -7.515012e+01   3.561570e+01
  -1.248141e+02   3.304498e+01
  -9.830756e+00  -2.808353e+00
   2.374144e+01  -3.615358e+01
   4.386238e+01   3.623623e+00
   1.212865e+01   2.488094e+01
  -1.794104e+01  -1.694809e+01
  -8.370059e+01  -2.449567e+01
  -3.065566e+01  -2.958877e+01
  -2.902787e+01  -3.196103e+01
  -2.767414e+01  -5.905867e+00
  -2.796895e+01  -8.934576e+00
  -1.344023e+01  -6.240204e+01
   2.304769e+00  -7.997463e+01
   1.133935e+02  -8.399638e+01
   1.334539e+02   2.275974e+01
   1.294580e+02   5.751269e+01
  -1.356695e+01   9.564753e+01
  -4.549863e+01   5.627824e+01
   9.706935e+00   2.504587e+01
   1.740218e+01  -9.084886e+00
   1.046881e+02   2.181768e+01
   5.002115e+01   4.909785e+01
  -7.571022e+01   9.520660e+01
  -1.116102e+02   3.329290e+01
  -9.492283e+01  -5.385222e+01
  -7.151118e+00  -5.503833e+01
   2.596548e+01  -4.336818e+01
   7.319358e+01  -1.400725e+01
  -1.576119e+01   3.757975e+00
  -1.738200e+01   8.043418e+00
   5.600000e+00  -8.667738e+01
   2.350147e+01  -1.059901e+02
   1.031993e+02  -7.940751e+01
   9.770164e+01   4.649288e+01
  -2.589457e+00   1.272148e+02
  -1.509914e+01   1.098723e+02
  -4.755404e+01   6.192462e+00
  -5.261300e+01  -1.142226e+02
  -1.038614e+01  -5.576649e+01
   1.795034e+01  -2.909318e+01
   4.058065e+00   4.775414e+01
   1.033418e+01   3.461302e+01
  -5.341815e+00  -1.195430e+01
  -1.243054e+01  -7.588583e-01
   4.288851e+01   7.169388e+01
   2.560814e+01   3.603756e+01
  -7.055800e+01   7.616065e+00
  -8.669430e+01  -4.397506e+01
  -7.848598e+01  -7.147545e+01
   3.135618e+01  -1.706029e+01
   3.870091e+01   1.067747e+01
   8.944273e+01  -6.026210e+01
   3.374414e+01  -1.999710e+01
  -2.276881e+00   1.984741e+01
  -6.633245e+00  -1.025693e+01
  -5.373239e+00  -3.278481e+01
   1.845587e+01  -3.308645e+01
  -3.278723e+01  -3.309272e+00
  -5.218223e+01  -1.693008e+01
  -2.288676e+00  -8.353089e+01
   1.177417e+02  -8.997988e+01
   1.305875e+02  -5.442279e+01
   1.204516e+02   2.449825e+01
   1.767938e+00   1.311801e+02
  -2.098704e+01   1.247304e+02
  -5.483822e+01   6.648041e+01
  -7.022493e+01  -1.249623e+00
  -3.670509e+01   1.615471e+01
   1.300976e+01   2.431298e+01
  -1.089946e+01  -1.338111e+01
  -3.515618e+01  -3.735851e+00
  -4.722206e+00  -8.169373e+01
   1.621061e+01  -7.745775e+01
   4.512877e+01   7.994872e+00
   5.324542e+01   6.982707e+01
   2.052369e+00   8.037310e+01
  -8.471319e+01   1.702907e+01
  -6.716143e+01  -4.570370e+01
  -3.062753e+01  -8.421600e+01
   5.489729e+01  -9.445267e+01
   5.533305e+01  -1.849955e+00
   2.000929e+01   5.642604e+01
  -3.019751e+01   3.635601e+01
  -2.561728e+01   2.405451e+01
   2.629317e+01  -1.648887e+01
   6.380615e+01  -1.959735e+01
   8.274328e+00   3.391411e+01
  -5.461270e+01   7.015250e+01
  -1.070850e+02   5.202418e+01
  -1.884097e+01  -4.577852e+01
  -1.103743e+01  -7.512613e+01
   2.405220e+01  -5.114721e+01
   1.616217e+01  -5.484325e+00
   1.786067e+01   2.846759e+01
  -3.196981e+01   4.987159e+01
  -4.488020e+01  -8.867061e+00
  -4.354026e+01  -3.787353e+01
   1.355026e+01  -3.402947e+01
   2.347530e-01  -5.428864e+01
   3.041957e+01   1.196740e+01
   2.633395e+01   1.482111e+01
  -3.991040e+01  -1.960154e+01
   3.912379e+01  -2.661579e+00
  -2.289399e+01   1.964126e+01
  -1.004839e+01   4.009579e+01
   5.634521e+00   1.521988e+01
   4.204577e-01  -3.413533e+01
  -1.872798e+01  -3.002843e+01
   6.562811e+01  -1.835742e+01
   8.106559e+01  -4.413017e+00
  -1.578544e+01   5.710719e+01
  -3.256166e+01  -3.611635e+00
  -1.831660e+01   7.527367e+00
  -7.650178e+01  -1.343253e+01
   4.291097e+01  -3.171684e+01
   7.280300e+01  -4.736439e+01
   2.057202e+01   8.788307e+00
  -2.857283e+01  -1.168744e+01
  -5.138777e+01   4.710944e+01
   2.989587e+01  -2.241460e+01
   1.729583e+01  -1.305980e+01
