
 $NMID
 id='ANONYMOUS ', fmtdat='(2E16.6)'
 volume=1.0
 tramp=1.0
 $END
  -2.667799e+03   8.104040e+01
  -1.969955e+03  -1.376663e+03
   1.320348e+02  -1.803299e+03
   1.211031e+03  -9.608890e+02
   8.707163e+02   1.380166e+01
  -9.660459e+01   2.612539e+02
  -4.465999e+02  -8.727201e+01
  -1.041059e+02  -5.529505e+02
   4.243892e+02  -5.140893e+02
   5.349645e+02  -7.181631e+01
   3.073172e+02   4.562923e+02
  -2.553527e+01   5.671347e+02
  -3.086894e+02   1.601558e+02
  -2.642691e+02  -4.167974e+02
   1.148046e+02  -4.937492e+02
   3.269514e+02  -7.294676e+01
   2.147468e+02   4.126292e+02
  -1.136194e+02   4.913644e+02
  -3.725111e+02   2.230720e+02
  -3.209555e+02  -1.812411e+02
  -6.125788e+01  -2.970780e+02
   1.054031e+02  -1.649089e+02
   8.191052e+01  -2.061340e+01
  -1.041401e+02  -3.141524e+01
  -2.395818e+02  -1.718111e+02
  -5.941707e+01  -2.968331e+02
   3.309419e+02  -1.809422e+02
   5.355803e+02   1.294849e+02
   1.862445e+02   3.046922e+02
  -3.006720e+02   2.353722e+02
  -4.723528e+02  -3.635013e+01
  -1.969521e+02  -3.059843e+02
   1.874725e+02  -3.180003e+02
   3.784866e+02  -1.131669e+02
   2.627995e+02   1.215068e+02
   6.122631e+01   2.989702e+02
  -3.952899e+01   1.840772e+02
  -9.038454e+00  -9.737060e+01
   1.103337e+02  -2.448109e+02
   1.964721e+02   3.931234e+01
   6.642554e+01   4.161963e+02
  -1.616824e+02   4.085289e+02
  -2.646110e+02   3.014037e+00
  -7.538384e+01  -2.525860e+02
   1.516063e+02  -1.504325e+02
   1.347126e+02   2.126550e+02
  -7.569701e+01   3.047211e+02
  -3.655158e+02   5.770581e+01
  -4.206526e+02  -3.021620e+02
  -1.270283e+02  -3.741680e+02
   2.315636e+02  -2.267689e+02
   4.142732e+02   7.366680e+01
   2.787341e+02   1.965884e+02
  -4.258933e+01   2.007934e+02
  -2.493473e+02   5.466177e+01
  -1.993227e+02  -2.836302e+01
   2.247039e+01  -2.569801e+01
   7.827434e+00   7.783833e+01
  -8.532902e+01   4.568898e+01
  -2.060199e+02  -3.955371e+01
  -9.328567e+01  -1.643559e+02
   8.719993e+01  -1.904902e+02
   2.537515e+02  -6.495113e+01
   1.616141e+02   1.053811e+02
  -2.171810e+01   2.091507e+02
  -2.438891e+02   2.677672e+02
  -2.798964e+02   1.676759e+02
  -2.001487e+02  -7.057178e+01
  -7.367156e+01  -2.741120e+02
   5.105657e+01  -2.679985e+02
   4.605258e+01  -1.329718e+02
   3.941326e+01  -2.623024e+01
   9.731845e+01  -7.414999e+01
   1.763428e+02  -4.195252e+01
   1.816390e+02   9.790044e+01
   6.534084e+01   2.021158e+02
  -5.752574e+01   1.472632e+02
  -1.236451e+02  -3.151696e+01
  -1.322143e+02  -1.619377e+02
   4.092863e+01  -1.689470e+02
   2.013992e+02  -6.872402e+01
   2.465382e+02   9.305181e+01
   1.698120e+02   2.533227e+02
  -7.521989e+01   1.996765e+02
  -1.289722e+02   1.365894e+02
  -1.044339e+02   2.288842e+01
  -9.149685e+01   3.295624e+01
  -1.618987e+02   1.869047e+01
  -2.828134e+02  -9.393468e+01
  -2.469511e+02  -1.997786e+02
   4.741212e+01  -3.277213e+02
   2.931092e+02  -3.019694e+02
   3.711848e+02  -1.185000e+02
   2.438919e+02   4.081264e+01
   1.258880e+01   1.963333e+02
  -5.172077e+01   1.356494e+02
  -2.062957e+01   6.441897e+01
   1.050754e+02  -7.726149e+01
   1.124521e+02   1.302194e+01
   6.369138e+01   1.557595e+02
  -1.040128e+02   9.368491e+01
  -1.057360e+02  -6.362352e+01
  -7.971664e+00  -1.341245e+02
   1.862314e+02  -2.143131e+01
   1.266854e+02   1.615938e+02
  -1.299949e+01   2.952988e+02
  -1.677478e+02   1.830811e+02
  -2.247332e+02  -6.096598e+01
  -2.045980e+02  -2.295076e+02
  -1.027889e+02  -1.866790e+02
   7.926844e+01  -9.265540e+01
   1.202653e+02  -1.665037e+01
   6.610918e+01   2.864870e+01
  -3.347250e+01  -4.124436e+01
  -3.408634e+01  -4.706856e+01
   1.055095e+02  -8.551731e+01
   1.626966e+02   2.619041e+01
   2.355948e+01   9.324252e+01
  -3.999366e+01  -3.289106e+01
  -3.424922e+01  -6.285971e+01
   1.046332e+02  -8.519518e+01
   2.241717e+02  -5.246941e-01
   1.951584e+02   1.142945e+02
  -8.038552e+00   1.582448e+02
  -1.360247e+02   1.563941e+02
  -2.051161e+02   1.042156e+02
  -1.307573e+02  -4.869018e+01
   1.642240e+00  -4.032012e+01
   5.451397e+01   1.763083e+01
  -5.453708e+01   1.015859e+02
  -1.681316e+02   3.052871e+01
  -1.660954e+02  -7.022718e+01
  -6.797255e+01  -1.826160e+02
   6.023885e+01  -9.221945e+01
   1.126679e+02  -4.661076e+00
   4.229142e+01   8.006722e+00
  -5.400019e+01  -1.659148e+01
  -2.362747e+01  -7.073391e+01
   7.699180e+01  -9.672904e+01
   1.665788e+02   1.352874e+01
   1.335863e+02   9.049822e+01
   2.389869e+01   1.418971e+02
  -1.295417e+02   1.005308e+02
  -1.308637e+02   4.346545e+01
  -1.815137e+01  -9.984803e+01
   5.850243e+01  -8.643701e+01
   6.997953e+01  -7.957974e+00
   1.385000e+01   6.976448e+00
  -3.222198e+01   2.137208e+01
   6.531743e+00  -1.175676e+01
   5.315361e+01   7.200332e+01
   6.024096e+01   6.111294e+01
  -1.453348e+01   1.291447e+02
  -1.335855e+02   1.449929e+02
  -2.101677e+02  -3.927963e+00
  -1.516152e+02  -1.012020e+02
  -1.753076e+01  -1.843797e+02
   8.969799e+01  -1.121780e+02
   1.118478e+02   1.305759e+01
   4.709279e+01   3.620816e+01
   2.202598e+01   8.475053e+00
   2.658232e+01   2.680826e+01
   1.011358e+02   6.803974e+00
   1.406263e+01   3.008726e+01
  -5.171164e+01   7.040216e+01
  -1.240724e+02   4.252243e+01
  -6.021642e+01  -4.956978e+01
   1.190664e+01  -5.751111e+01
   1.271269e+02  -6.481828e+01
   2.036763e+02   7.447898e+01
   6.205794e+01   1.499685e+02
  -1.277159e+02   2.001938e+02
  -1.889307e+02   6.458448e+01
  -1.739199e+02  -3.852158e+01
  -8.531445e+01  -1.269144e+02
   4.320554e+01  -8.293089e+01
   3.801821e+01  -3.567480e+01
   8.483615e+01  -3.616706e+01
   3.367767e+01  -7.440211e+01
   5.089387e+01  -5.128904e+01
   9.620797e+01   3.093561e+01
   1.103174e+02   8.436180e+01
   2.752215e+01   1.613854e+02
  -7.116751e+01   1.393668e+02
  -1.477865e+02   1.568627e+01
  -1.064076e+02  -6.960725e+01
  -2.198779e+01  -1.068873e+02
   6.686109e+01  -5.305835e+01
   4.673389e+01  -1.950319e+01
   4.154660e+01   5.970904e+01
  -4.322753e+00   4.164042e+01
   5.393110e+01   3.358719e+01
   8.541144e+01  -1.445348e+01
   3.674055e+01  -3.035519e+00
  -5.599862e+01   3.010328e+01
  -1.169043e+02  -2.278687e+01
  -1.249472e+02  -4.274404e+01
  -1.133257e+00  -6.581441e+01
   1.032259e+02  -1.581611e+01
   8.906803e+01  -5.060168e+01
   1.987102e+01   4.327146e+01
  -1.802619e+01   2.777103e+01
  -2.911183e+01  -3.778048e+01
   7.456137e+00  -8.488897e+01
  -3.106761e+01  -7.650951e+01
   4.695747e+01   4.311722e+00
   2.281099e+01   9.030666e+00
   4.828970e+01   6.140762e+01
   5.166241e+01   1.557574e+01
   7.434616e+01   7.518855e+00
   5.823229e+01   6.120761e+01
  -4.637508e+01   1.326371e+02
  -1.256999e+02   1.037329e+02
  -6.236295e+01   2.433819e+01
  -8.427346e+01  -4.376619e+01
   3.726565e+00  -1.070353e+02
   6.315799e+01  -4.860273e+01
   8.945291e+01  -2.618940e+01
  -4.479676e+01   4.652384e+01
  -1.293471e+02  -1.180397e+01
  -4.562400e+01  -6.816843e+01
   5.686305e+01  -7.845765e+01
   1.094290e+02  -9.356687e+00
   8.999705e+01   6.188797e+01
   6.344864e-01   8.237976e+01
  -4.730147e+01   6.049633e+01
  -5.290784e+01   3.650677e+00
   8.105529e-01  -4.151707e+01
   7.836208e+01   2.427125e+01
   3.690359e+01   6.698448e+01
  -7.447079e+01   1.307313e+02
  -1.063252e+02   7.326661e+01
  -7.605759e+01  -5.131105e+01
  -3.465810e+01  -1.531574e+02
   4.616829e+01  -7.210703e+01
   7.825411e+01  -3.230599e+01
   5.694278e+01   9.186024e+01
   2.625491e+01   8.072886e+01
  -3.197976e+01   2.311190e+00
  -2.032475e+01  -2.492811e+01
  -3.505065e+01   1.638075e+01
   8.293133e+00  -2.929002e+01
  -6.392025e+01  -2.697443e+01
  -5.310657e+01  -7.761404e+01
  -1.342058e+01  -7.884547e+01
   1.745450e+01  -6.323949e+01
   7.287587e+01  -2.253889e-01
   6.996910e+01   5.107806e+01
   3.148533e+01   8.610289e+00
  -7.541149e+01   4.188562e+01
  -8.504100e+01  -8.189343e+00
   9.613785e+00  -4.741672e-01
   4.377060e+01  -1.946876e+01
   1.458132e+01  -1.561598e+01
  -1.880654e+01   1.445537e+01
   3.492717e+00  -4.436805e+00
   4.645848e+01  -1.242203e+01
   3.741659e+01   6.154996e+01
   1.253329e+01   4.269716e+01
  -7.500211e+01   8.088273e+01
  -1.247040e+02   1.567741e+01
  -1.445597e+02  -3.941139e+01
  -1.116887e+01  -1.055897e+02
   5.142920e+01  -1.422192e+02
   8.560256e+01  -5.276386e+01
   5.194492e+01   1.811556e+01
   3.231916e+01   4.232145e+01
   1.963800e+01   3.647754e+00
   2.817093e+01  -5.174883e+01
   1.882047e+01   3.878218e+01
   2.895373e+01   7.121873e+01
  -3.011230e+01   6.165492e+01
  -7.541964e+01  -2.729393e+01
  -5.212276e+01  -6.721463e+01
   3.664474e+00  -7.121295e+01
   7.356951e+01  -3.673140e+00
   8.140997e+01   6.893092e+01
   4.289728e+01   8.049732e+01
  -6.087475e+01   9.667951e+01
  -9.834521e+01  -1.410078e+01
  -5.045573e+01  -3.168325e+01
   2.781228e+01  -2.363122e+01
   2.475010e+01  -2.443726e+01
  -4.302926e+01   1.375335e+01
  -4.671809e+01   2.807979e+01
   3.118984e+01  -1.342167e+01
   3.222240e+01  -3.341048e+01
   1.083367e+02  -3.368739e+01
   2.864662e+01   4.230650e+01
  -5.637954e+00   3.655133e+01
  -3.260540e+01   5.482518e+01
  -6.146793e+01   1.736705e+01
   8.227791e+00  -5.159129e+01
   4.247289e+01  -7.389899e+01
   3.970169e+01  -4.714672e-01
  -1.202502e+01   2.291385e+01
   1.933647e+01   3.138980e+01
   5.900936e-01  -1.499753e+01
  -4.670890e+01  -1.525852e+01
  -2.418622e+01  -3.125051e+00
  -1.935391e+01   1.516779e+01
   1.453997e+00   7.998060e+00
  -3.694476e+00  -5.671876e+01
   1.576401e+01  -3.997503e+01
  -3.663218e-01  -2.431165e+01
   1.999651e+01   3.450060e+01
  -1.798891e+01   2.036078e+00
  -4.156065e+01   7.934830e+00
  -1.027522e+01  -2.385975e+01
  -7.071248e+01  -2.461425e+01
   6.038740e+01  -2.091604e+01
   4.053031e+01  -4.763441e+00
   4.079926e+01   3.242399e-01
  -3.216819e+00   3.575809e+01
  -3.959647e+01   1.830869e+01
  -3.461451e+01   7.381343e+00
   4.109638e+01  -1.613710e+01
   1.424860e+01   2.535986e+01
  -9.278371e+00   1.002485e+01
  -3.434166e+01  -2.493162e+00
