
 $NMID
 id='ANONYMOUS ', fmtdat='(2E16.6)'
 volume=1.0
 tramp=1.0
 $END
   1.902516e+07   9.845858e+05
   1.224009e+07   8.917063e+06
  -2.200331e+05   1.165763e+07
  -8.125276e+06   8.102185e+06
  -6.935473e+06   1.223544e+06
  -6.081148e+05  -3.367026e+06
   3.866815e+06  -2.036258e+06
   3.169380e+06   2.964159e+06
  -6.982699e+05   5.555596e+06
  -3.605788e+06   2.570156e+06
  -3.183818e+06  -2.643754e+06
  -3.320924e+05  -4.270758e+06
   2.021094e+06  -7.790115e+05
   1.605187e+06   3.670870e+06
  -1.107967e+06   4.227612e+06
  -3.273207e+06   4.444936e+05
  -2.432128e+06  -3.865751e+06
   9.316856e+05  -4.866295e+06
   3.803400e+06  -2.177081e+06
   3.731461e+06   1.383356e+06
   1.316746e+06   2.874539e+06
  -5.870680e+05   1.974614e+06
  -5.181708e+04   8.423434e+05
   1.818261e+06   1.408577e+06
   2.110092e+06   3.124096e+06
  -6.059366e+05   3.714749e+06
  -4.397522e+06   1.938718e+06
  -5.673456e+06  -9.934936e+05
  -2.933113e+06  -2.783223e+06
   1.395762e+06  -2.266188e+06
   3.269162e+06  -1.592774e+05
   1.211119e+06   1.756383e+06
  -2.238227e+06   1.878083e+06
  -3.453942e+06  -9.165408e+04
  -1.609931e+06  -2.587227e+06
   8.990922e+05  -3.217300e+06
   1.567213e+06  -1.219071e+06
   4.065918e+05   1.302557e+06
  -7.116946e+05   1.498095e+06
  -4.928694e+05  -7.921348e+05
   6.712540e+05  -2.681486e+06
   1.576534e+06  -1.742867e+06
   1.407034e+06   9.765193e+05
   1.822987e+05   2.273530e+06
  -1.235742e+06   6.775634e+05
  -1.481563e+06  -1.948132e+06
   1.991155e+05  -2.722988e+06
   2.737898e+06  -8.616014e+05
   3.724226e+06   1.844036e+06
   1.801368e+06   3.083164e+06
  -1.575602e+06   2.095237e+06
  -3.395240e+06  -8.904547e+03
  -2.193684e+06  -1.453774e+06
   5.133107e+05  -1.296270e+06
   2.008283e+06  -7.021059e+04
   1.194053e+06   8.604930e+05
  -5.846451e+05   6.331210e+05
  -1.258859e+06  -3.640122e+05
  -2.337686e+05  -1.014336e+06
   1.131675e+06  -6.370427e+05
   1.090990e+06   3.907249e+05
  -5.116729e+05   1.018956e+06
  -1.926193e+06   4.494001e+05
  -1.319251e+06  -1.124916e+06
   1.144946e+06  -2.495187e+06
   3.354987e+06  -2.309954e+06
   3.476747e+06  -3.290827e+05
   1.791282e+06   2.142507e+06
   7.552761e+04   3.361652e+06
  -5.047359e+05   2.826089e+06
  -3.919619e+05   1.637057e+06
  -6.440521e+05   1.056536e+06
  -1.528555e+06   1.009898e+06
  -2.330216e+06   4.155716e+05
  -2.203606e+06  -1.106267e+06
  -9.532438e+05  -2.404922e+06
   7.892833e+05  -2.011396e+06
   1.894494e+06   4.559700e+04
   1.472742e+06   2.040736e+06
  -2.917401e+05   2.247556e+06
  -2.044236e+06   6.150821e+05
  -2.366407e+06  -1.347238e+06
  -1.147782e+06  -2.167565e+06
   3.430518e+05  -1.695515e+06
   8.930406e+05  -8.864674e+05
   6.584527e+05  -6.031636e+05
   8.034379e+05  -7.867741e+05
   1.893643e+06  -6.912949e+05
   2.974854e+06   2.506731e+05
   2.504799e+06   1.794385e+06
   1.741096e+05   2.973991e+06
  -2.444326e+06   2.825612e+06
  -3.286280e+06   1.232288e+06
  -1.846430e+06  -7.939170e+05
   3.200125e+05  -1.808331e+06
   1.214695e+06  -1.192614e+06
   3.651030e+05   2.052585e+05
  -9.511266e+05   8.749624e+05
  -1.271806e+06   2.205535e+05
  -4.274526e+05  -8.054757e+05
   5.445953e+05  -8.389763e+05
   6.181045e+05   2.171920e+05
  -2.800175e+05   9.751841e+05
  -1.307282e+06   1.690955e+05
  -1.414844e+06  -1.748764e+06
  -1.694011e+05  -2.928152e+06
   1.774065e+06  -2.054052e+06
   2.998390e+06   2.653226e+05
   2.472402e+06   2.146221e+06
   5.947894e+05   2.307108e+06
  -1.065400e+06   1.146846e+06
  -1.281601e+06   6.361685e+04
  -3.692412e+05  -3.522923e+04
   2.811323e+05   5.453088e+05
  -1.872218e+05   8.646079e+05
  -1.174027e+06   4.118390e+05
  -1.390472e+06  -4.348061e+05
  -4.012773e+05  -8.732104e+05
   8.022081e+05  -4.992156e+05
   8.455684e+05   2.990709e+05
  -4.820921e+05   6.908331e+05
  -1.869016e+06   1.625272e+05
  -1.778451e+06  -9.724739e+05
  -7.912353e+04  -1.778811e+06
   1.753315e+06  -1.502580e+06
   2.120594e+06  -2.996653e+05
   8.863468e+05   8.277022e+05
  -6.010154e+05   9.407863e+05
  -9.514912e+05   9.571318e+04
  -3.699972e+04  -6.931278e+05
   1.082497e+06  -5.123393e+05
   1.299790e+06   4.686693e+05
   4.532384e+05   1.198513e+06
  -6.392739e+05   9.252905e+05
  -9.892976e+05   1.722275e+04
  -3.631680e+05  -4.946707e+05
   4.752451e+05  -7.952573e+04
   5.014786e+05   7.489494e+05
  -4.757903e+05   1.028290e+06
  -1.514998e+06   3.411777e+05
  -1.484456e+06  -8.126206e+05
  -2.910197e+05  -1.512221e+06
   9.910704e+05  -1.226190e+06
   1.252381e+06  -2.425459e+05
   4.596860e+05   5.994526e+05
  -4.400216e+05   6.553423e+05
  -5.852591e+05   5.546478e+04
  -1.683301e+04  -4.658889e+05
   5.181601e+05  -3.731312e+05
   4.194057e+05   8.947140e+04
  -1.572589e+05   2.200942e+05
  -4.812622e+05  -2.668680e+05
  -1.582936e+04  -8.434526e+05
   9.654872e+05  -7.227901e+05
   1.558048e+06   2.650903e+05
   1.096274e+06   1.435096e+06
  -1.523871e+05   1.865232e+06
  -1.229030e+06   1.223923e+06
  -1.421584e+06   3.773351e+04
  -8.865305e+05  -8.020434e+05
  -3.291078e+05  -8.317827e+05
  -1.893621e+05  -3.832902e+05
  -2.543139e+05  -1.608110e+05
  -3.618566e+04  -4.337915e+05
   5.818966e+05  -7.213800e+05
   1.127724e+06  -3.744617e+05
   9.597611e+05   5.709214e+05
  -6.570931e+04   1.281706e+06
  -1.307600e+06   9.545226e+05
  -1.774272e+06  -3.099279e+05
  -9.761054e+05  -1.537678e+06
   5.800326e+05  -1.772623e+06
   1.781076e+06  -9.105947e+05
   1.857091e+06   2.970136e+05
   9.844229e+05   9.864395e+05
  -3.309191e+03   9.269176e+05
  -4.361628e+05   5.939487e+05
  -3.358285e+05   5.555064e+05
  -2.167795e+05   8.202851e+05
  -4.579281e+05   8.439124e+05
  -8.887247e+05   1.996553e+05
  -9.735342e+05  -8.315313e+05
  -4.046239e+05  -1.443062e+06
   4.913150e+05  -1.090481e+06
   9.894903e+05  -4.014936e+04
   6.660576e+05   8.821849e+05
  -1.548589e+05   1.038081e+06
  -7.146092e+05   4.659911e+05
  -5.876049e+05  -2.778847e+05
  -7.671767e+04  -6.690574e+05
   1.856142e+05  -6.150585e+05
  -2.846576e+04  -3.989071e+05
  -2.901700e+05  -3.018576e+05
  -2.075797e+04  -3.105051e+05
   7.913432e+05  -1.885408e+05
   1.453823e+06   2.026724e+05
   1.221963e+06   7.033170e+05
   1.052851e+05   9.790277e+05
  -1.042665e+06   8.171507e+05
  -1.323730e+06   3.119445e+05
  -6.749788e+05  -1.912089e+05
   1.279076e+05  -3.454788e+05
   3.364142e+05  -9.815585e+04
  -3.420345e+04   2.141975e+05
  -3.934099e+05   1.663374e+05
  -3.436778e+05  -2.630299e+05
  -6.252916e+04  -5.898504e+05
   4.972194e+04  -3.763368e+05
  -1.155249e+05   1.629772e+05
  -3.079359e+05   3.379982e+05
  -2.337907e+05  -1.597291e+05
   1.688612e+05  -7.949814e+05
   6.745826e+05  -7.839422e+05
   8.817674e+05  -4.153860e+04
   4.932529e+05   7.033761e+05
  -3.189916e+05   7.416245e+05
  -8.699631e+05   1.267150e+05
  -5.377375e+05  -4.779126e+05
   4.977067e+05  -5.186491e+05
   1.263287e+06  -5.298149e+03
   9.399553e+05   6.140340e+05
  -2.344593e+05   8.582529e+05
  -1.169893e+06   5.536546e+05
  -1.055816e+06  -4.204100e+04
  -1.722905e+05  -4.207784e+05
   4.773414e+05  -2.687903e+05
   2.500644e+05   1.844043e+05
  -5.094458e+05   3.372279e+05
  -8.935938e+05  -1.604610e+05
  -3.945106e+05  -9.573227e+05
   5.955265e+05  -1.255147e+06
   1.208314e+06  -5.872826e+05
   9.558903e+05   6.359398e+05
   1.316406e+05   1.410271e+06
  -5.756060e+05   1.063788e+06
  -7.351848e+05  -5.802950e+04
  -4.139189e+05  -9.079810e+05
   6.356308e+04  -8.059654e+05
   4.012479e+05  -1.083937e+05
   4.377690e+05   3.089278e+05
   2.129574e+05   1.319746e+05
   4.042492e+03  -9.949133e+04
   9.036401e+04   1.732991e+05
   3.441085e+05   7.243675e+05
   2.491145e+05   8.512790e+05
  -4.343400e+05   3.193009e+05
  -1.157308e+06  -3.672744e+05
  -1.085875e+06  -6.487341e+05
  -1.522420e+05  -5.198658e+05
   7.470491e+05  -3.133376e+05
   7.931502e+05  -1.705160e+05
   2.057763e+05  -6.208045e+03
  -1.471580e+05   1.656017e+05
   7.235273e+04   2.054700e+05
   3.116082e+05   1.290986e+05
  -3.148309e+03   1.109506e+05
  -6.273059e+05   1.386308e+05
  -7.944808e+05  -5.285877e+04
  -1.706085e+05  -5.255548e+05
   7.645382e+05  -8.370010e+05
   1.250439e+06  -4.820199e+05
   9.539055e+05   4.139063e+05
   1.525366e+05   1.106234e+06
  -5.824729e+05   1.013676e+06
  -8.155967e+05   3.296314e+05
  -5.182771e+05  -2.451347e+05
  -5.352279e+04  -2.774551e+05
   1.458366e+05   7.701939e+03
  -2.744433e+04   8.023758e+04
  -2.731122e+05  -2.548118e+05
  -2.202234e+05  -6.239110e+05
   1.692359e+05  -4.991988e+05
   5.446095e+05   1.706646e+05
   4.968120e+05   8.121504e+05
  -3.681402e+04   7.884388e+05
  -6.457637e+05   8.649816e+04
  -7.560227e+05  -6.600619e+05
  -1.865929e+05  -8.410619e+05
   5.780014e+05  -4.388201e+05
   8.128262e+05   1.054454e+05
   3.419125e+05   4.164439e+05
  -2.283901e+05   4.297108e+05
  -2.202345e+05   2.535416e+05
   2.772972e+05   4.164174e+04
   5.236405e+05  -6.106191e+03
   7.721142e+04   2.237341e+05
  -6.459936e+05   5.206973e+05
  -9.019509e+05   4.572921e+05
  -4.953417e+05  -8.433004e+04
   9.768198e+04  -6.331389e+05
   3.652602e+05  -6.114859e+05
   2.467094e+05  -5.213239e+04
  -1.128893e+04   4.065457e+05
  -2.095443e+05   2.847659e+05
  -2.757841e+05  -1.955625e+05
  -1.730682e+05  -4.521097e+05
   7.144518e+04  -2.583999e+05
   2.978195e+05   7.527830e+04
   3.320019e+05   1.719268e+05
   1.822865e+05   3.062792e+04
   1.720102e+04  -5.730723e+04
  -5.718883e+04   8.967696e+04
  -1.021912e+05   3.253354e+05
  -2.029280e+05   3.433133e+05
  -3.029535e+05   2.372398e+04
  -2.465465e+05  -3.955403e+05
   2.764698e+04  -5.183132e+05
   3.606082e+05  -1.973685e+05
   4.561172e+05   2.809726e+05
   1.456424e+05   4.785817e+05
  -3.749333e+05   2.589393e+05
  -6.330857e+05  -1.118640e+05
  -3.381516e+05  -3.028184e+05
   2.361229e+05  -2.444116e+05
   4.780503e+05  -9.117710e+04
   1.333193e+05   5.460305e+03
  -3.541505e+05  -1.314047e+04
  -3.484901e+05  -1.418099e+05
   2.022243e+05  -2.743542e+05
   6.905170e+05  -1.946998e+05
