
 $NMID
 id='ANONYMOUS ', fmtdat='(2E16.6)'
 volume=1.0
 tramp=1.0
 $END
  -6.006078e+07  -6.756313e+05
  -3.549099e+07  -3.813615e+07
   8.850346e+06  -4.072799e+07
   2.982078e+07  -1.473119e+07
   1.726311e+07   8.269112e+06
  -3.929654e+06   9.869439e+06
  -1.038242e+07  -1.821885e+06
  -2.479464e+06  -1.051157e+07
   6.962757e+06  -9.501658e+06
   1.026744e+07  -1.698637e+06
   7.241068e+06   6.629625e+06
   7.369089e+05   8.974048e+06
  -4.192073e+06   2.891490e+06
  -2.616630e+06  -5.558004e+06
   4.137232e+06  -6.617826e+06
   8.281954e+06   1.678096e+06
   4.446334e+06   1.088255e+07
  -4.255896e+06   1.238927e+07
  -1.079836e+07   6.125742e+06
  -1.148393e+07  -2.233066e+06
  -7.099983e+06  -8.022205e+06
  -7.475368e+05  -9.379432e+06
   3.332903e+06  -6.604321e+06
   2.394666e+06  -2.775067e+06
  -8.797528e+05  -1.947939e+06
  -3.196116e+05  -4.100597e+06
   5.426001e+06  -4.542519e+06
   9.939602e+06  -5.749447e+05
   7.371828e+06   4.286583e+06
   4.274634e+05   5.316888e+06
  -3.692368e+06   2.801373e+06
  -2.581993e+06   2.518918e+05
   3.496336e+05  -7.547968e+05
   2.029633e+06  -5.314303e+05
   2.190193e+06   1.236890e+06
   8.596791e+05   3.914178e+06
  -1.827456e+06   4.098483e+06
  -3.549583e+06   3.963324e+04
  -1.972074e+06  -3.858278e+06
   8.169720e+05  -2.260974e+06
   4.507763e+05   2.345087e+06
  -2.543619e+06   2.277999e+06
  -2.478980e+06  -3.456793e+06
   2.825151e+06  -6.478185e+06
   7.591597e+06  -9.369785e+05
   5.399478e+06   7.515561e+06
  -2.224549e+06   9.090671e+06
  -7.918827e+06   2.467206e+06
  -7.144064e+06  -4.795374e+06
  -1.705070e+06  -6.307036e+06
   3.690506e+06  -2.666831e+06
   5.350157e+06   1.783868e+06
   2.332018e+06   3.719366e+06
  -2.656244e+06   2.228113e+06
  -4.746348e+06  -1.107680e+06
  -1.962005e+06  -2.940497e+06
   1.851838e+06  -1.412239e+06
   1.742689e+06   1.120458e+06
  -1.526142e+06   8.605036e+05
  -2.579168e+06  -2.086602e+06
   8.919831e+05  -3.778857e+06
   5.116018e+06  -1.913513e+06
   5.617807e+06   1.652325e+06
   2.338351e+06   4.306362e+06
  -1.919361e+06   5.483662e+06
  -5.166778e+06   4.993735e+06
  -6.427635e+06   1.813083e+06
  -4.807014e+06  -3.274248e+06
  -9.549587e+05  -6.411182e+06
   2.075439e+06  -4.887739e+06
   1.934087e+06  -1.100527e+06
   8.997790e+04   4.408739e+05
  -2.408919e+05  -9.430470e+05
   1.475345e+06  -1.914631e+06
   2.825741e+06  -3.902793e+05
   2.101520e+06   1.837285e+06
   1.128486e+05   2.107928e+06
  -1.466608e+06   2.133572e+05
  -1.634191e+06  -2.053168e+06
  -3.588871e+03  -2.958893e+06
   2.820907e+06  -1.723034e+06
   4.639686e+06   1.197117e+06
   3.384320e+06   3.932311e+06
  -4.795186e+04   4.481291e+06
  -2.453169e+06   2.881440e+06
  -2.419922e+06   1.155700e+06
  -1.948730e+06   6.236107e+05
  -3.031518e+06   3.906196e+05
  -4.432412e+06  -8.862476e+05
  -3.501686e+06  -2.898250e+06
  -5.359576e+04  -4.201537e+06
   3.305908e+06  -3.915057e+06
   4.238911e+06  -2.136256e+06
   2.706821e+06   3.955403e+05
   3.243239e+05   2.248650e+06
  -1.086204e+06   1.982322e+06
  -5.796582e+05  -1.776022e+04
   1.104456e+06  -1.327659e+06
   1.966859e+06  -3.862368e+05
   9.575351e+05   1.252942e+06
  -5.197010e+05   1.121727e+06
  -3.821902e+05  -4.163116e+05
   1.178563e+06  -6.209046e+05
   1.881013e+06   1.516846e+06
   4.518391e+05   3.688775e+06
  -1.891438e+06   3.379317e+06
  -3.302420e+06   8.817074e+05
  -3.250802e+06  -1.656606e+06
  -2.134890e+06  -2.831426e+06
  -3.713408e+05  -2.601253e+06
   1.263585e+06  -1.456957e+06
   1.590577e+06  -2.218089e+05
   5.003744e+05   5.519683e+04
  -3.490425e+05  -7.750873e+05
   4.655477e+05  -1.382347e+06
   1.996149e+06  -5.596008e+05
   2.078522e+06   9.803050e+05
   3.470864e+05   1.483383e+06
  -1.218242e+06   5.478257e+05
  -8.651284e+05  -4.891204e+05
   9.035595e+05  -4.604716e+05
   2.173401e+06   4.405386e+05
   1.664821e+06   1.423797e+06
  -3.397566e+05   1.947827e+06
  -2.377696e+06   1.592945e+06
  -2.822099e+06   2.095758e+05
  -1.221588e+06  -1.333558e+06
   9.792765e+05  -1.547736e+06
   1.632843e+06  -1.742032e+05
   2.067371e+05   1.126113e+06
  -1.569428e+06   7.308759e+05
  -1.735043e+06  -8.513834e+05
  -2.742581e+05  -1.699225e+06
   1.167154e+06  -9.381441e+05
   1.267644e+06   3.913466e+05
   2.007285e+05   8.203382e+05
  -8.376479e+05   3.394008e+04
  -7.423706e+05  -1.095875e+06
   6.042655e+05  -1.450092e+06
   2.055480e+06  -5.304728e+05
   2.065508e+06   1.102653e+06
   3.529909e+05   2.131837e+06
  -1.516941e+06   1.650267e+06
  -1.773325e+06   1.648566e+05
  -4.790164e+05  -9.065357e+05
   6.983402e+05  -7.964570e+05
   6.255189e+05  -6.602513e+04
  -1.496059e+05   3.267942e+05
  -4.757622e+05   1.596363e+05
  -5.807147e+04  -6.190530e+04
   4.919721e+05   1.419581e+05
   4.969129e+05   7.426931e+05
  -2.674179e+05   1.216069e+06
  -1.440720e+06   8.767715e+05
  -2.115767e+06  -4.700201e+05
  -1.458914e+06  -2.013303e+06
   2.672957e+05  -2.454416e+06
   1.669330e+06  -1.376527e+06
   1.688698e+06   1.873162e+05
   8.074403e+05   9.037330e+05
   2.919294e+05   6.007450e+05
   5.160147e+05   1.874637e+05
   6.773871e+05   3.453588e+05
   8.546368e+04   8.089076e+05
  -9.253637e+05   8.926623e+05
  -1.473714e+06   2.768987e+05
  -1.020506e+06  -7.499102e+05
   3.076715e+05  -1.444546e+06
   1.771865e+06  -1.030095e+06
   2.264283e+06   5.453669e+05
   1.090769e+06   2.169838e+06
  -1.110024e+06   2.393798e+06
  -2.637495e+06   9.760172e+05
  -2.365026e+06  -7.571628e+05
  -8.937231e+05  -1.386597e+06
   2.595751e+05  -9.149829e+05
   3.763776e+05  -4.685967e+05
   3.552181e+04  -7.679582e+05
   9.949951e+04  -1.363673e+06
   7.157755e+05  -1.327239e+06
   1.341606e+06  -3.102213e+05
   1.351006e+06   1.120437e+06
   5.370673e+05   1.936664e+06
  -6.540268e+05   1.451685e+06
  -1.305347e+06  -3.420215e+04
  -7.930010e+05  -1.340272e+06
   4.527181e+05  -1.418280e+06
   1.226341e+06  -3.580205e+05
   8.189495e+05   7.778480e+05
  -1.809692e+05   1.123851e+06
  -6.075386e+05   7.817705e+05
  -1.141657e+05   4.039208e+05
   4.435901e+05   3.388218e+05
   5.981170e+04   3.867623e+05
  -1.190086e+06   1.872235e+05
  -2.118097e+06  -3.850330e+05
  -1.628783e+06  -1.101674e+06
   9.317723e+04  -1.483913e+06
   1.673340e+06  -1.143859e+06
   1.883567e+06  -2.279413e+05
   8.303929e+05   5.585227e+05
  -2.911548e+05   5.938415e+05
  -5.329259e+05   9.160133e+03
  -3.722616e+04  -4.528997e+05
   4.418167e+05  -2.626663e+05
   4.897358e+05   3.550117e+05
   2.769937e+05   7.302755e+05
   1.191130e+05   4.863318e+05
   1.386282e+05  -7.253307e+04
   2.662194e+05  -2.653647e+05
   2.705161e+05   2.449955e+05
  -1.449458e+05   9.905980e+05
  -9.343583e+05   1.076889e+06
  -1.426452e+06   1.792647e+05
  -8.911115e+05  -9.420715e+05
   4.394395e+05  -1.184126e+06
   1.307044e+06  -3.566756e+05
   7.432674e+05   5.837209e+05
  -7.343718e+05   6.418953e+05
  -1.600448e+06  -1.441679e+05
  -9.635811e+05  -9.062390e+05
   5.441805e+05  -9.705016e+05
   1.525221e+06  -4.119037e+05
   1.220215e+06   2.424106e+05
   1.091524e+05   5.175326e+05
  -6.702585e+05   2.458360e+05
  -3.983625e+05  -3.166355e+05
   5.855632e+05  -5.409912e+05
   1.206743e+06   7.027116e+04
   7.026083e+05   1.196070e+06
  -5.799634e+05   1.740756e+06
  -1.500886e+06   9.103819e+05
  -1.271138e+06  -7.706662e+05
  -1.897774e+05  -1.815659e+06
   7.690540e+05  -1.285309e+06
   9.310609e+05   2.173032e+05
   3.952208e+05   1.221281e+06
  -2.714511e+05   9.624409e+05
  -5.831010e+05   6.284838e+04
  -4.426920e+05  -3.841401e+05
  -1.354135e+05  -1.327905e+05
  -6.190308e+04   8.725798e+04
  -3.225529e+05  -3.236053e+05
  -5.215482e+05  -9.972529e+05
  -1.442636e+05  -1.091997e+06
   7.724469e+05  -3.856973e+05
   1.487027e+06   4.897493e+05
   1.255998e+06   8.664249e+05
   1.752024e+05   7.196739e+05
  -8.412813e+05   4.201219e+05
  -9.908346e+05   1.619391e+05
  -3.926043e+05  -7.681391e+04
   1.379529e+05  -2.313231e+05
   7.603815e+04  -1.893031e+05
  -2.281151e+05  -7.649386e+04
  -6.645012e+04  -1.334310e+05
   6.310740e+05  -2.513710e+05
   1.070998e+06   5.589305e+03
   4.979120e+05   7.146907e+05
  -8.236861e+05   1.220492e+06
  -1.763855e+06   7.929008e+05
  -1.488327e+06  -4.218992e+05
  -2.911081e+05  -1.426269e+06
   7.990202e+05  -1.412426e+06
   1.072600e+06  -5.736617e+05
   6.608187e+05   2.148596e+05
   1.538431e+05   3.665348e+05
  -3.443348e+04   9.339927e+04
   9.673097e+04   1.288493e+04
   2.842107e+05   3.891355e+05
   2.310991e+05   8.248040e+05
  -1.756245e+05   7.013162e+05
  -6.854854e+05  -9.435571e+04
  -7.787375e+05  -9.410989e+05
  -1.665111e+05  -1.056600e+06
   7.408184e+05  -2.956095e+05
   1.069616e+06   6.941602e+05
   3.846448e+05   1.113116e+06
  -7.196454e+05   7.239511e+05
  -1.162412e+06  -6.298112e+04
  -5.672474e+05  -6.547522e+05
   2.957216e+05  -7.319282e+05
   4.233439e+05  -3.845200e+05
  -2.118670e+05   6.681643e+03
  -6.514629e+05   4.699070e+04
  -1.636691e+05  -3.219377e+05
   8.415879e+05  -6.862808e+05
   1.318731e+06  -5.194724e+05
   8.178639e+05   2.132722e+05
  -9.420808e+04   9.027347e+05
  -5.986585e+05   8.898643e+05
  -4.751896e+05   1.952226e+05
  -7.757148e+04  -4.713877e+05
   2.353540e+05  -4.669973e+05
   3.570607e+05   1.120366e+05
   2.662832e+05   5.866982e+05
  -4.270392e+04   4.702678e+05
  -4.005065e+05  -2.790603e+04
  -4.987857e+05  -3.115257e+05
  -2.477905e+05  -1.214893e+05
   5.446279e+04   1.828128e+05
   8.490926e+04   1.056560e+05
  -6.628690e+04  -3.360019e+05
  -2.616804e+04  -6.034057e+05
   3.004459e+05  -2.941027e+05
   5.200159e+05   3.392758e+05
   2.310429e+05   6.539935e+05
  -3.952998e+05   3.418673e+05
  -7.050011e+05  -2.561284e+05
  -2.816856e+05  -5.680112e+05
   5.277542e+05  -3.808873e+05
   9.240074e+05   5.518482e+04
   5.022144e+05   3.819556e+05
  -2.977311e+05   4.393684e+05
  -6.614837e+05   2.722789e+05
  -2.865365e+05   2.629546e+04
   3.091164e+05  -1.038018e+05
   3.989961e+05   1.805742e+04
  -1.338684e+05   2.713545e+05
  -6.975473e+05   2.829117e+05
