
 $NMID
 id='ANONYMOUS ', fmtdat='(2E16.6)'
 volume=1.0
 tramp=1.0
 $END
  -5.701083e+07   1.099669e+06
  -3.516962e+07  -3.489871e+07
   6.834343e+06  -3.899725e+07
   2.797265e+07  -1.532100e+07
   1.704600e+07   7.047412e+06
  -3.264501e+06   9.637949e+06
  -1.014434e+07  -1.196075e+06
  -2.932397e+06  -1.002883e+07
   6.344114e+06  -9.585055e+06
   9.868657e+06  -2.101566e+06
   7.129940e+06   6.188608e+06
   8.879656e+05   8.647501e+06
  -3.951863e+06   2.814317e+06
  -2.602880e+06  -5.438145e+06
   3.850134e+06  -6.633595e+06
   8.045376e+06   1.289768e+06
   4.625913e+06   1.031054e+07
  -3.688307e+06   1.201714e+07
  -1.012445e+07   6.143896e+06
  -1.093986e+07  -1.845715e+06
  -6.872649e+06  -7.375337e+06
  -9.791604e+05  -8.732709e+06
   2.783014e+06  -6.317046e+06
   1.970797e+06  -2.932187e+06
  -9.087122e+05  -2.193132e+06
  -1.971174e+05  -4.076316e+06
   5.313281e+06  -4.349496e+06
   9.593141e+06  -5.633654e+05
   7.095152e+06   4.027323e+06
   3.779325e+05   4.991347e+06
  -3.579582e+06   2.560768e+06
  -2.360832e+06   1.104397e+05
   6.279171e+05  -7.476719e+05
   2.171819e+06  -3.539557e+05
   2.063079e+06   1.385940e+06
   6.890627e+05   3.809343e+06
  -1.703529e+06   3.875244e+06
  -3.212176e+06   6.370417e+04
  -1.839876e+06  -3.542778e+06
   6.303797e+05  -2.007571e+06
   2.900083e+05   2.350877e+06
  -2.490909e+06   2.290299e+06
  -2.528424e+06  -3.237173e+06
   2.395407e+06  -6.330983e+06
   7.091359e+06  -1.234602e+06
   5.361136e+06   6.916416e+06
  -1.777864e+06   8.718856e+06
  -7.474185e+06   2.575144e+06
  -7.052477e+06  -4.467485e+06
  -1.862632e+06  -6.129316e+06
   3.547059e+06  -2.740890e+06
   5.339771e+06   1.590012e+06
   2.453262e+06   3.585063e+06
  -2.461029e+06   2.276280e+06
  -4.618480e+06  -8.998185e+05
  -2.013942e+06  -2.763448e+06
   1.727513e+06  -1.415443e+06
   1.758090e+06   1.058756e+06
  -1.401324e+06   9.838364e+05
  -2.629465e+06  -1.796109e+06
   5.436870e+05  -3.626782e+06
   4.718794e+06  -2.086208e+06
   5.464618e+06   1.312829e+06
   2.424289e+06   4.034009e+06
  -1.760450e+06   5.305894e+06
  -4.974405e+06   4.857517e+06
  -6.176099e+06   1.796811e+06
  -4.617963e+06  -3.091261e+06
  -9.906320e+05  -6.176510e+06
   1.892498e+06  -4.841504e+06
   1.867160e+06  -1.246269e+06
   2.393513e+05   3.381245e+05
  -5.109476e+04  -8.520829e+05
   1.514722e+06  -1.720077e+06
   2.719237e+06  -2.475918e+05
   1.958680e+06   1.880179e+06
   5.276958e+02   2.076078e+06
  -1.519651e+06   1.409200e+05
  -1.615980e+06  -2.100831e+06
   2.275330e+04  -2.919715e+06
   2.744942e+06  -1.652300e+06
   4.467067e+06   1.151484e+06
   3.279829e+06   3.728332e+06
   3.957553e+04   4.263266e+06
  -2.252518e+06   2.800921e+06
  -2.268688e+06   1.201683e+06
  -1.889645e+06   6.971014e+05
  -2.997343e+06   4.566307e+05
  -4.393752e+06  -8.091494e+05
  -3.493136e+06  -2.825976e+06
  -8.436788e+04  -4.161440e+06
   3.264700e+06  -3.882083e+06
   4.190034e+06  -2.083053e+06
   2.635862e+06   4.252278e+05
   2.615960e+05   2.205788e+06
  -1.094720e+06   1.913550e+06
  -5.554313e+05  -3.081480e+04
   1.098139e+06  -1.299042e+06
   1.926479e+06  -3.930073e+05
   9.323918e+05   1.209252e+06
  -5.288100e+05   1.103342e+06
  -4.185191e+05  -4.251210e+05
   1.143028e+06  -7.079826e+05
   1.945438e+06   1.367171e+06
   6.275937e+05   3.631509e+06
  -1.741554e+06   3.501022e+06
  -3.299487e+06   1.064133e+06
  -3.349325e+06  -1.580020e+06
  -2.207839e+06  -2.867045e+06
  -3.800635e+05  -2.637418e+06
   1.267198e+06  -1.445616e+06
   1.580279e+06  -2.066821e+05
   4.965710e+05   5.292380e+04
  -3.517563e+05  -7.664119e+05
   4.326361e+05  -1.366222e+06
   1.947753e+06  -5.789114e+05
   2.067412e+06   9.288722e+05
   3.763887e+05   1.457059e+06
  -1.202894e+06   5.612682e+05
  -8.828360e+05  -4.905814e+05
   9.000564e+05  -5.051506e+05
   2.214121e+06   4.015710e+05
   1.712950e+06   1.436562e+06
  -3.225872e+05   1.987231e+06
  -2.375000e+06   1.616865e+06
  -2.810447e+06   2.260987e+05
  -1.222954e+06  -1.302549e+06
   9.416933e+05  -1.524639e+06
   1.590883e+06  -1.901173e+05
   2.052260e+05   1.094360e+06
  -1.544732e+06   7.303417e+05
  -1.734277e+06  -8.254820e+05
  -3.042067e+05  -1.694799e+06
   1.148203e+06  -9.702260e+05
   1.282847e+06   3.583570e+05
   2.292443e+05   8.157784e+05
  -8.197275e+05   5.001580e+04
  -7.375070e+05  -1.075918e+06
   5.962168e+05  -1.432717e+06
   2.033071e+06  -5.255177e+05
   2.046236e+06   1.085743e+06
   3.618383e+05   2.108525e+06
  -1.487807e+06   1.648757e+06
  -1.759901e+06   1.833158e+05
  -4.920082e+05  -8.974535e+05
   6.873366e+05  -8.025817e+05
   6.322905e+05  -5.936053e+04
  -1.501698e+05   3.546711e+05
  -5.047377e+05   1.731480e+05
  -9.175811e+04  -9.068889e+04
   4.895528e+05   9.399032e+04
   5.243696e+05   7.152249e+05
  -2.378448e+05   1.215165e+06
  -1.421834e+06   8.864416e+05
  -2.103718e+06  -4.529581e+05
  -1.456192e+06  -1.988968e+06
   2.584705e+05  -2.442126e+06
   1.665147e+06  -1.389184e+06
   1.703466e+06   1.759946e+05
   8.223838e+05   9.265062e+05
   2.764667e+05   6.406284e+05
   4.770564e+05   1.961735e+05
   6.544545e+05   3.154663e+05
   9.474272e+04   7.841160e+05
  -9.096897e+05   9.001222e+05
  -1.475877e+06   2.919726e+05
  -1.032810e+06  -7.567119e+05
   3.001727e+05  -1.464905e+06
   1.767302e+06  -1.044416e+06
   2.262376e+06   5.333106e+05
   1.107280e+06   2.153716e+06
  -1.071928e+06   2.392008e+06
  -2.608785e+06   1.003218e+06
  -2.374573e+06  -7.268072e+05
  -9.235628e+05  -1.390341e+06
   2.533336e+05  -9.448423e+05
   4.040277e+05  -4.793781e+05
   6.316065e+04  -7.398800e+05
   9.729092e+04  -1.324371e+06
   6.906562e+05  -1.308735e+06
   1.317403e+06  -3.144285e+05
   1.339281e+06   1.106578e+06
   5.367488e+05   1.920601e+06
  -6.471584e+05   1.441922e+06
  -1.300986e+06  -2.625223e+04
  -8.041720e+05  -1.321719e+06
   4.273918e+05  -1.418037e+06
   1.209526e+06  -3.900885e+05
   8.315359e+05   7.390969e+05
  -1.456359e+05   1.112691e+06
  -5.772434e+05   7.974432e+05
  -1.077978e+05   4.179943e+05
   4.335652e+05   3.375602e+05
   5.626592e+04   3.843005e+05
  -1.174275e+06   1.990380e+05
  -2.095473e+06  -3.617212e+05
  -1.626452e+06  -1.079042e+06
   6.432816e+04  -1.471377e+06
   1.635682e+06  -1.147795e+06
   1.869713e+06  -2.487709e+05
   8.451154e+05   5.341918e+05
  -2.726556e+05   5.860339e+05
  -5.287783e+05   2.302392e+04
  -3.985238e+04  -4.331606e+05
   4.421991e+05  -2.544103e+05
   4.846015e+05   3.497276e+05
   2.590995e+05   7.190574e+05
   1.045915e+05   4.745367e+05
   1.458029e+05  -8.213956e+04
   2.836875e+05  -2.702784e+05
   2.735398e+05   2.425993e+05
  -1.517679e+05   9.847555e+05
  -9.218181e+05   1.069698e+06
  -1.391139e+06   1.832354e+05
  -8.689591e+05  -9.219909e+05
   4.237709e+05  -1.162356e+06
   1.276782e+06  -3.494624e+05
   7.341070e+05   5.809008e+05
  -7.251805e+05   6.454238e+05
  -1.602456e+06  -1.336380e+05
  -9.834783e+05  -9.059055e+05
   5.301962e+05  -9.883810e+05
   1.531935e+06  -4.334793e+05
   1.234521e+06   2.343133e+05
   1.158466e+05   5.226661e+05
  -6.679508e+05   2.549359e+05
  -3.945442e+05  -3.052897e+05
   5.828190e+05  -5.264926e+05
   1.189680e+06   7.777023e+04
   6.822510e+05   1.183345e+06
  -5.854310e+05   1.713243e+06
  -1.490188e+06   8.911570e+05
  -1.259354e+06  -7.688326e+05
  -1.869355e+05  -1.805969e+06
   7.678275e+05  -1.286827e+06
   9.350021e+05   2.064236e+05
   4.061637e+05   1.218573e+06
  -2.598233e+05   9.731308e+05
  -5.791865e+05   7.159071e+04
  -4.489635e+05  -3.896259e+05
  -1.433659e+05  -1.420840e+05
  -5.937188e+04   9.281544e+04
  -3.103422e+05  -3.039815e+05
  -5.161167e+05  -9.836507e+05
  -1.565396e+05  -1.096050e+06
   7.538849e+05  -3.964524e+05
   1.480860e+06   4.865933e+05
   1.262176e+06   8.674165e+05
   1.783500e+05   7.135144e+05
  -8.456672e+05   4.105236e+05
  -9.913693e+05   1.637711e+05
  -3.853230e+05  -6.358297e+04
   1.403135e+05  -2.261759e+05
   6.665097e+04  -2.027334e+05
  -2.355941e+05  -9.185935e+04
  -6.022039e+04  -1.299563e+05
   6.378498e+05  -2.354656e+05
   1.059009e+06   8.138275e+03
   4.761169e+05   6.943131e+05
  -8.249523e+05   1.195386e+06
  -1.735084e+06   7.834230e+05
  -1.455657e+06  -4.154075e+05
  -2.822849e+05  -1.414530e+06
   7.863408e+05  -1.399813e+06
   1.058305e+06  -5.604333e+05
   6.529533e+05   2.220136e+05
   1.470004e+05   3.597924e+05
  -4.070598e+04   7.726389e+04
   9.751856e+04   8.798104e+02
   2.909845e+05   3.861378e+05
   2.348489e+05   8.219272e+05
  -1.751888e+05   6.912629e+05
  -6.769548e+05  -1.044239e+05
  -7.588474e+05  -9.376176e+05
  -1.513121e+05  -1.037495e+06
   7.348227e+05  -2.753929e+05
   1.049075e+06   6.980017e+05
   3.731070e+05   1.098211e+06
  -7.101363e+05   7.069787e+05
  -1.144309e+06  -6.259350e+04
  -5.607366e+05  -6.362762e+05
   2.852775e+05  -7.148399e+05
   4.078253e+05  -3.852456e+05
  -2.188354e+05  -5.351051e+03
  -6.481022e+05   4.248081e+04
  -1.596552e+05  -3.145911e+05
   8.361428e+05  -6.820882e+05
   1.304067e+06  -5.299625e+05
   8.055231e+05   1.952961e+05
  -9.189547e+04   8.901079e+05
  -5.810003e+05   8.841964e+05
  -4.544597e+05   1.924611e+05
  -6.744475e+04  -4.684174e+05
   2.318461e+05  -4.553269e+05
   3.480648e+05   1.221051e+05
   2.618029e+05   5.813848e+05
  -3.935009e+04   4.550322e+05
  -3.937617e+05  -3.224124e+04
  -4.954827e+05  -2.996503e+05
  -2.497597e+05  -1.140513e+05
   5.387759e+04   1.697557e+05
   9.487604e+04   8.777834e+04
  -4.662651e+04  -3.306295e+05
  -1.226778e+04  -5.736075e+05
   2.924628e+05  -2.680241e+05
   4.933863e+05   3.403734e+05
   2.088335e+05   6.383502e+05
  -3.942638e+05   3.299554e+05
  -6.872350e+05  -2.571036e+05
  -2.705881e+05  -5.642281e+05
   5.194750e+05  -3.776196e+05
   9.067573e+05   5.634852e+04
   4.942270e+05   3.774363e+05
  -2.905266e+05   4.273843e+05
  -6.469761e+05   2.613881e+05
  -2.747341e+05   2.943382e+04
   3.126614e+05  -8.656853e+04
   3.924661e+05   3.309315e+04
  -1.470711e+05   2.697950e+05
  -7.071740e+05   2.691921e+05
