
 $NMID
 id='ANONYMOUS ', fmtdat='(2E16.6)'
 volume=1.0
 tramp=1.0
 $END
  -5.731345e+07   6.664293e+05
  -3.484857e+07  -3.537799e+07
   7.321353e+06  -3.901580e+07
   2.807980e+07  -1.499259e+07
   1.681982e+07   7.252994e+06
  -3.400232e+06   9.551154e+06
  -1.002758e+07  -1.329557e+06
  -2.775900e+06  -9.984072e+06
   6.361329e+06  -9.424164e+06
   9.813562e+06  -1.990059e+06
   7.113735e+06   6.212553e+06
   8.925095e+05   8.646976e+06
  -3.980479e+06   2.834387e+06
  -2.648383e+06  -5.388368e+06
   3.815223e+06  -6.559863e+06
   8.000512e+06   1.354952e+06
   4.554809e+06   1.032748e+07
  -3.764623e+06   1.199017e+07
  -1.019470e+07   6.101212e+06
  -1.100502e+07  -1.918236e+06
  -6.887246e+06  -7.502616e+06
  -8.840852e+05  -8.851208e+06
   2.941669e+06  -6.305726e+06
   2.050765e+06  -2.777791e+06
  -9.734250e+05  -2.040422e+06
  -3.127815e+05  -4.062810e+06
   5.267919e+06  -4.452318e+06
   9.629115e+06  -6.548964e+05
   7.151749e+06   4.030765e+06
   4.135471e+05   5.081129e+06
  -3.594595e+06   2.674875e+06
  -2.457807e+06   1.655071e+05
   4.889003e+05  -8.101923e+05
   2.116066e+06  -4.929992e+05
   2.148741e+06   1.296789e+06
   7.981809e+05   3.835231e+06
  -1.718129e+06   3.931953e+06
  -3.316490e+06   3.782481e+04
  -1.872390e+06  -3.635884e+06
   7.218381e+05  -2.067629e+06
   3.977753e+05   2.349965e+06
  -2.444228e+06   2.290876e+06
  -2.488963e+06  -3.243211e+06
   2.476999e+06  -6.277177e+06
   7.147026e+06  -1.110538e+06
   5.313496e+06   7.015128e+06
  -1.878615e+06   8.721502e+06
  -7.517190e+06   2.536247e+06
  -7.022470e+06  -4.457887e+06
  -1.841666e+06  -6.073733e+06
   3.507867e+06  -2.709346e+06
   5.272147e+06   1.567427e+06
   2.406702e+06   3.536975e+06
  -2.469994e+06   2.232364e+06
  -4.595503e+06  -9.273979e+05
  -1.979804e+06  -2.764876e+06
   1.737574e+06  -1.402568e+06
   1.737313e+06   1.040764e+06
  -1.397955e+06   9.180681e+05
  -2.549765e+06  -1.846923e+06
   6.577138e+05  -3.590580e+06
   4.767313e+06  -1.987420e+06
   5.422797e+06   1.383580e+06
   2.372883e+06   4.048022e+06
  -1.755531e+06   5.320734e+06
  -4.946987e+06   4.907240e+06
  -6.188473e+06   1.837439e+06
  -4.663320e+06  -3.095896e+06
  -1.021165e+06  -6.184908e+06
   1.877857e+06  -4.802110e+06
   1.824463e+06  -1.186920e+06
   1.565858e+05   3.447231e+05
  -1.290831e+05  -9.197496e+05
   1.490876e+06  -1.819260e+06
   2.759948e+06  -3.315130e+05
   2.039666e+06   1.836386e+06
   7.809249e+04   2.089831e+06
  -1.492268e+06   2.076081e+05
  -1.651527e+06  -2.032939e+06
  -3.065929e+04  -2.909956e+06
   2.733557e+06  -1.695773e+06
   4.502176e+06   1.117583e+06
   3.310092e+06   3.740504e+06
   2.914188e+04   4.291379e+06
  -2.282995e+06   2.801629e+06
  -2.278857e+06   1.175844e+06
  -1.867068e+06   6.774871e+05
  -2.957160e+06   4.670642e+05
  -4.359145e+06  -7.663973e+05
  -3.491002e+06  -2.767755e+06
  -1.328986e+05  -4.124419e+06
   3.186391e+06  -3.900092e+06
   4.139614e+06  -2.144201e+06
   2.650536e+06   3.772147e+05
   3.147500e+05   2.208121e+06
  -1.060383e+06   1.942397e+06
  -5.631316e+05  -2.037134e+04
   1.072300e+06  -1.314510e+06
   1.914553e+06  -4.103360e+05
   9.446468e+05   1.204052e+06
  -5.040670e+05   1.110074e+06
  -4.074097e+05  -4.019383e+05
   1.115654e+06  -6.747490e+05
   1.888500e+06   1.370142e+06
   5.946465e+05   3.568935e+06
  -1.702445e+06   3.408136e+06
  -3.208315e+06   1.028795e+06
  -3.280252e+06  -1.518338e+06
  -2.207545e+06  -2.766976e+06
  -4.243690e+05  -2.583897e+06
   1.229103e+06  -1.456593e+06
   1.566637e+06  -2.356693e+05
   4.930896e+05   4.569136e+04
  -3.580268e+05  -7.550458e+05
   4.219731e+05  -1.358668e+06
   1.933166e+06  -5.875073e+05
   2.054606e+06   9.077851e+05
   3.790954e+05   1.439948e+06
  -1.183808e+06   5.668081e+05
  -8.741761e+05  -4.656432e+05
   8.734911e+05  -4.948505e+05
   2.170436e+06   3.676769e+05
   1.700051e+06   1.375748e+06
  -2.843712e+05   1.949873e+06
  -2.317061e+06   1.628375e+06
  -2.776821e+06   2.619255e+05
  -1.224567e+06  -1.280370e+06
   9.262184e+05  -1.526044e+06
   1.584881e+06  -1.996321e+05
   2.158318e+05   1.092788e+06
  -1.525825e+06   7.438012e+05
  -1.724070e+06  -7.980367e+05
  -3.158709e+05  -1.666540e+06
   1.120526e+06  -9.613066e+05
   1.261437e+06   3.436148e+05
   2.274755e+05   7.990119e+05
  -8.141275e+05   5.305173e+04
  -7.457529e+05  -1.060729e+06
   5.719316e+05  -1.432680e+06
   2.011912e+06  -5.519625e+05
   2.046704e+06   1.049861e+06
   3.851708e+05   2.087021e+06
  -1.455989e+06   1.650381e+06
  -1.739206e+06   2.004736e+05
  -4.943949e+05  -8.804483e+05
   6.695048e+05  -8.005754e+05
   6.227898e+05  -7.381234e+04
  -1.362958e+05   3.413729e+05
  -4.807164e+05   1.800453e+05
  -8.364219e+04  -6.861657e+04
   4.767341e+05   1.058760e+05
   5.130616e+05   7.044341e+05
  -2.274187e+05   1.199798e+06
  -1.396861e+06   8.926472e+05
  -2.089498e+06  -4.218016e+05
  -1.469955e+06  -1.952856e+06
   2.202951e+05  -2.422650e+06
   1.622067e+06  -1.395668e+06
   1.678682e+06   1.469100e+05
   8.270977e+05   8.892926e+05
   2.990386e+05   6.147263e+05
   4.935832e+05   1.900530e+05
   6.561974e+05   3.183172e+05
   9.790053e+04   7.823904e+05
  -8.893390e+05   8.989554e+05
  -1.450150e+06   3.077237e+05
  -1.030041e+06  -7.250836e+05
   2.709022e+05  -1.443123e+06
   1.728587e+06  -1.055647e+06
   2.244367e+06   4.943159e+05
   1.121189e+06   2.114216e+06
  -1.035868e+06   2.376446e+06
  -2.569243e+06   1.018865e+06
  -2.350046e+06  -6.893238e+05
  -9.248325e+05  -1.351321e+06
   2.309598e+05  -9.244311e+05
   3.771961e+05  -4.818979e+05
   4.368473e+04  -7.504251e+05
   8.265393e+04  -1.327682e+06
   6.752484e+05  -1.308675e+06
   1.306856e+06  -3.265902e+05
   1.345355e+06   1.079722e+06
   5.603339e+05   1.896924e+06
  -6.202855e+05   1.439622e+06
  -1.287129e+06  -8.066335e+03
  -8.091045e+05  -1.298886e+06
   4.093775e+05  -1.404354e+06
   1.189986e+06  -3.891022e+05
   8.214489e+05   7.307182e+05
  -1.425204e+05   1.100252e+06
  -5.669792e+05   7.854042e+05
  -9.932809e+04   4.078140e+05
   4.384553e+05   3.289863e+05
   6.316788e+04   3.807805e+05
  -1.162055e+06   2.084593e+05
  -2.083027e+06  -3.366141e+05
  -1.622966e+06  -1.049413e+06
   5.345255e+04  -1.455454e+06
   1.613146e+06  -1.153412e+06
   1.846237e+06  -2.660620e+05
   8.334632e+05   5.212391e+05
  -2.691640e+05   5.836585e+05
  -5.213832e+05   2.495764e+04
  -4.155448e+04  -4.355352e+05
   4.344728e+05  -2.626523e+05
   4.862170e+05   3.409141e+05
   2.737725e+05   7.150714e+05
   1.152971e+05   4.754870e+05
   1.377059e+05  -8.101753e+04
   2.673431e+05  -2.735562e+05
   2.727540e+05   2.355544e+05
  -1.315564e+05   9.801177e+05
  -9.000427e+05   1.073893e+06
  -1.386691e+06   1.959607e+05
  -8.802924e+05  -9.099800e+05
   4.103956e+05  -1.162651e+06
   1.270964e+06  -3.641561e+05
   7.391029e+05   5.649911e+05
  -7.092989e+05   6.471210e+05
  -1.583744e+06  -1.089940e+05
  -9.792488e+05  -8.750732e+05
   5.097739e+05  -9.757653e+05
   1.500073e+06  -4.468096e+05
   1.216869e+06   2.111988e+05
   1.216334e+05   5.112619e+05
  -6.552528e+05   2.591014e+05
  -3.946587e+05  -3.007827e+05
   5.714511e+05  -5.361874e+05
   1.186532e+06   5.690322e+04
   7.008818e+05   1.168100e+06
  -5.530158e+05   1.716936e+06
  -1.466869e+06   9.125729e+05
  -1.263002e+06  -7.420081e+05
  -2.147923e+05  -1.787295e+06
   7.375399e+05  -1.284571e+06
   9.241113e+05   1.920425e+05
   4.171229e+05   1.196906e+06
  -2.431015e+05   9.596870e+05
  -5.713401e+05   7.612270e+04
  -4.490156e+05  -3.739595e+05
  -1.427002e+05  -1.324293e+05
  -5.708001e+04   8.989475e+04
  -3.132490e+05  -3.061967e+05
  -5.266288e+05  -9.707941e+05
  -1.690302e+05  -1.076873e+06
   7.444371e+05  -3.964393e+05
   1.474559e+06   4.585593e+05
   1.260361e+06   8.345258e+05
   1.858778e+05   7.044656e+05
  -8.293021e+05   4.253183e+05
  -9.768679e+05   1.781365e+05
  -3.824822e+05  -6.347253e+04
   1.349524e+05  -2.287278e+05
   6.373214e+04  -1.939182e+05
  -2.344677e+05  -7.868310e+04
  -6.372677e+04  -1.302203e+05
   6.270457e+05  -2.518903e+05
   1.052941e+06  -8.627203e+03
   4.877551e+05   6.916264e+05
  -7.999792e+05   1.207057e+06
  -1.716581e+06   8.023358e+05
  -1.459071e+06  -3.954674e+05
  -3.045638e+05  -1.400712e+06
   7.617080e+05  -1.400304e+06
   1.045723e+06  -5.749040e+05
   6.542502e+05   2.069411e+05
   1.530389e+05   3.575359e+05
  -3.955310e+04   8.528937e+04
   9.363458e+04   4.188535e+03
   2.907870e+05   3.767403e+05
   2.440368e+05   8.091805e+05
  -1.636934e+05   6.907349e+05
  -6.768801e+05  -8.915122e+04
  -7.741300e+05  -9.197737e+05
  -1.698657e+05  -1.034612e+06
   7.286333e+05  -2.922431e+05
   1.058793e+06   6.749073e+05
   3.894962e+05   1.088309e+06
  -6.977013e+05   7.164551e+05
  -1.140218e+06  -4.629100e+04
  -5.642830e+05  -6.288326e+05
   2.778742e+05  -7.168535e+05
   4.031766e+05  -3.843909e+05
  -2.159630e+05   4.997725e+03
  -6.424746e+05   5.427458e+04
  -1.634251e+05  -3.123149e+05
   8.183611e+05  -6.893610e+05
   1.284565e+06  -5.387293e+05
   8.014169e+05   1.896273e+05
  -7.930037e+04   8.866381e+05
  -5.681645e+05   8.829820e+05
  -4.555271e+05   1.949608e+05
  -7.838088e+04  -4.653733e+05
   2.253959e+05  -4.584409e+05
   3.521582e+05   1.123556e+05
   2.695917e+05   5.736095e+05
  -3.572845e+04   4.564350e+05
  -3.936808e+05  -2.470776e+04
  -4.940126e+05  -2.936218e+05
  -2.465325e+05  -1.113040e+05
   5.373630e+04   1.726432e+05
   8.737182e+04   9.078220e+04
  -5.904197e+04  -3.324727e+05
  -2.171854e+04  -5.825823e+05
   2.934020e+05  -2.795171e+05
   5.052740e+05   3.331676e+05
   2.236475e+05   6.389016e+05
  -3.871205e+05   3.378524e+05
  -6.917122e+05  -2.457564e+05
  -2.811332e+05  -5.571956e+05
   5.114383e+05  -3.819290e+05
   9.051799e+05   4.332428e+04
   4.976089e+05   3.683704e+05
  -2.855438e+05   4.311962e+05
  -6.437337e+05   2.711546e+05
  -2.755650e+05   3.000523e+04
   3.097177e+05  -9.903134e+04
   3.945269e+05   2.095222e+04
  -1.355026e+05   2.726652e+05
  -6.933781e+05   2.860673e+05
