
 $NMID
 id='ANONYMOUS ', fmtdat='(2E16.6)'
 volume=1.0
 tramp=1.0
 $END
  -5.536445e+07   1.399190e+06
  -3.431993e+07  -3.332743e+07
   6.208170e+06  -3.768297e+07
   2.678511e+07  -1.528698e+07
   1.654313e+07   6.343568e+06
  -2.941218e+06   9.315769e+06
  -9.787595e+06  -8.511911e+05
  -3.095022e+06  -9.579424e+06
   5.855839e+06  -9.490195e+06
   9.503885e+06  -2.290107e+06
   7.060229e+06   5.963799e+06
   9.919777e+05   8.500779e+06
  -3.880494e+06   2.777871e+06
  -2.713017e+06  -5.383884e+06
   3.580025e+06  -6.631854e+06
   7.827972e+06   1.087339e+06
   4.663703e+06   9.964310e+06
  -3.420796e+06   1.174751e+07
  -9.804815e+06   6.068952e+06
  -1.066818e+07  -1.767444e+06
  -6.659555e+06  -7.179866e+06
  -8.985012e+05  -8.424176e+06
   2.631281e+06  -6.003192e+06
   1.657997e+06  -2.787669e+06
  -1.159215e+06  -2.245870e+06
  -2.694781e+05  -4.184936e+06
   5.324742e+06  -4.419281e+06
   9.567655e+06  -6.291016e+05
   7.027473e+06   3.951264e+06
   3.009285e+05   4.959154e+06
  -3.662616e+06   2.544375e+06
  -2.405392e+06  -9.945499e+03
   7.058938e+05  -9.595131e+05
   2.347642e+06  -4.623999e+05
   2.184235e+06   1.470174e+06
   6.862938e+05   3.906559e+06
  -1.711523e+06   3.809973e+06
  -3.116769e+06  -5.645300e+04
  -1.712717e+06  -3.508542e+06
   6.844205e+05  -1.839791e+06
   3.173856e+05   2.475112e+06
  -2.419465e+06   2.358242e+06
  -2.522132e+06  -3.087621e+06
   2.183140e+06  -6.132341e+06
   6.762020e+06  -1.226820e+06
   5.214113e+06   6.651113e+06
  -1.630339e+06   8.440202e+06
  -7.252160e+06   2.568449e+06
  -7.010984e+06  -4.248868e+06
  -2.002221e+06  -5.969303e+06
   3.401971e+06  -2.805652e+06
   5.308917e+06   1.385284e+06
   2.537100e+06   3.421138e+06
  -2.320845e+06   2.260520e+06
  -4.512315e+06  -7.849026e+05
  -2.017389e+06  -2.637857e+06
   1.659186e+06  -1.401263e+06
   1.772232e+06   9.852036e+05
  -1.262032e+06   9.939141e+05
  -2.533106e+06  -1.605049e+06
   4.259259e+05  -3.397470e+06
   4.456639e+06  -2.042401e+06
   5.281889e+06   1.150271e+06
   2.417710e+06   3.853356e+06
  -1.682095e+06   5.247899e+06
  -4.902733e+06   4.885075e+06
  -6.110979e+06   1.830747e+06
  -4.574761e+06  -3.047086e+06
  -1.044624e+06  -6.107399e+06
   1.734392e+06  -4.810121e+06
   1.728345e+06  -1.317796e+06
   2.314764e+05   2.016164e+05
   4.387639e+04  -9.564865e+05
   1.619397e+06  -1.747822e+06
   2.799965e+06  -2.168578e+05
   2.019129e+06   1.948293e+06
   6.871700e+03   2.162373e+06
  -1.596753e+06   2.016824e+05
  -1.723484e+06  -2.099767e+06
  -3.228478e+04  -2.954871e+06
   2.744395e+06  -1.679677e+06
   4.460457e+06   1.126312e+06
   3.256336e+06   3.668334e+06
   5.319092e+04   4.174806e+06
  -2.177519e+06   2.736988e+06
  -2.174052e+06   1.196526e+06
  -1.818143e+06   7.462995e+05
  -2.957277e+06   5.522553e+05
  -4.397639e+06  -6.822794e+05
  -3.563505e+06  -2.728323e+06
  -1.968871e+05  -4.166372e+06
   3.185688e+06  -3.982982e+06
   4.187149e+06  -2.182986e+06
   2.672409e+06   4.054392e+05
   2.833181e+05   2.248071e+06
  -1.095875e+06   1.949975e+06
  -5.633664e+05  -3.461374e+04
   1.086124e+06  -1.332777e+06
   1.916395e+06  -4.317021e+05
   9.418119e+05   1.195564e+06
  -5.156845e+05   1.131403e+06
  -4.541531e+05  -3.947409e+05
   1.062255e+06  -7.551907e+05
   1.927496e+06   1.228279e+06
   7.646195e+05   3.511420e+06
  -1.520442e+06   3.528494e+06
  -3.175867e+06   1.233761e+06
  -3.411615e+06  -1.401502e+06
  -2.365624e+06  -2.790054e+06
  -4.923369e+05  -2.657669e+06
   1.243943e+06  -1.497640e+06
   1.596498e+06  -2.454936e+05
   5.003787e+05   4.008778e+04
  -3.741964e+05  -7.585386e+05
   3.946795e+05  -1.366082e+06
   1.920717e+06  -6.189102e+05
   2.079010e+06   8.650109e+05
   4.173744e+05   1.432171e+06
  -1.183589e+06   5.987259e+05
  -9.140312e+05  -4.564076e+05
   8.616403e+05  -5.502772e+05
   2.235250e+06   2.967345e+05
   1.798592e+06   1.369415e+06
  -2.321541e+05   2.018148e+06
  -2.331620e+06   1.712316e+06
  -2.816610e+06   3.126308e+05
  -1.255050e+06  -1.266993e+06
   9.074090e+05  -1.536389e+06
   1.576829e+06  -2.181305e+05
   2.194642e+05   1.089869e+06
  -1.529942e+06   7.688346e+05
  -1.759615e+06  -7.721981e+05
  -3.664695e+05  -1.680969e+06
   1.102109e+06  -1.013376e+06
   1.289870e+06   3.012547e+05
   2.633583e+05   7.964656e+05
  -8.095658e+05   6.959754e+04
  -7.633625e+05  -1.060109e+06
   5.664405e+05  -1.454188e+06
   2.032724e+06  -5.770754e+05
   2.082424e+06   1.040565e+06
   4.178399e+05   2.104768e+06
  -1.443295e+06   1.691096e+06
  -1.755226e+06   2.363512e+05
  -5.229538e+05  -8.798671e+05
   6.617538e+05  -8.267881e+05
   6.437978e+05  -8.204094e+04
  -1.216797e+05   3.724100e+05
  -5.044767e+05   2.146648e+05
  -1.258942e+05  -7.514938e+04
   4.638980e+05   6.590841e+04
   5.418325e+05   6.785036e+05
  -1.936214e+05   1.214051e+06
  -1.395645e+06   9.294501e+05
  -2.122961e+06  -3.949048e+05
  -1.514733e+06  -1.957452e+06
   1.910801e+05  -2.464345e+06
   1.629021e+06  -1.455693e+06
   1.723052e+06   1.116575e+05
   8.792023e+05   9.079490e+05
   3.205172e+05   6.620665e+05
   4.807339e+05   2.124523e+05
   6.428512e+05   3.038773e+05
   1.060832e+05   7.743023e+05
  -8.806753e+05   9.286604e+05
  -1.471644e+06   3.466279e+05
  -1.074600e+06  -7.261257e+05
   2.417995e+05  -1.489974e+06
   1.741144e+06  -1.110764e+06
   2.292307e+06   4.659963e+05
   1.179398e+06   2.124344e+06
  -9.972193e+05   2.422611e+06
  -2.575909e+06   1.083418e+06
  -2.403367e+06  -6.443031e+05
  -9.880519e+05  -1.356860e+06
   2.045249e+05  -9.677116e+05
   3.950995e+05  -5.187395e+05
   6.897689e+04  -7.584943e+05
   8.315336e+04  -1.326082e+06
   6.613299e+05  -1.320047e+06
   1.309968e+06  -3.433180e+05
   1.373548e+06   1.079532e+06
   5.904823e+05   1.918023e+06
  -6.133669e+05   1.468427e+06
  -1.307972e+06   1.342218e+04
  -8.442214e+05  -1.296320e+06
   3.796224e+05  -1.428193e+06
   1.182321e+06  -4.306424e+05
   8.406641e+05   6.993988e+05
  -1.085124e+05   1.100707e+06
  -5.376924e+05   8.079997e+05
  -8.439160e+04   4.259187e+05
   4.439689e+05   3.338747e+05
   6.575091e+04   3.878594e+05
  -1.166477e+06   2.304280e+05
  -2.104030e+06  -3.081402e+05
  -1.659845e+06  -1.033545e+06
   1.828630e+04  -1.464346e+06
   1.601253e+06  -1.185643e+06
   1.862030e+06  -3.065640e+05
   8.585756e+05   4.953877e+05
  -2.563801e+05   5.851634e+05
  -5.225591e+05   4.136233e+04
  -4.104953e+04  -4.278114e+05
   4.445262e+05  -2.679296e+05
   4.948535e+05   3.400481e+05
   2.701821e+05   7.265234e+05
   1.074172e+05   4.818884e+05
   1.406154e+05  -9.541446e+04
   2.805637e+05  -2.951137e+05
   2.829669e+05   2.335662e+05
  -1.291258e+05   1.001629e+06
  -8.984471e+05   1.097795e+06
  -1.384623e+06   2.055427e+05
  -8.850185e+05  -9.124709e+05
   4.015282e+05  -1.169058e+06
   1.273369e+06  -3.694317e+05
   7.542873e+05   5.693009e+05
  -7.070728e+05   6.691291e+05
  -1.616048e+06  -8.077701e+04
  -1.027533e+06  -8.710816e+05
   4.883115e+05  -1.011033e+06
   1.521477e+06  -4.967044e+05
   1.253310e+06   1.862216e+05
   1.388175e+05   5.214940e+05
  -6.598265e+05   2.796099e+05
  -3.990079e+05  -2.948858e+05
   5.811718e+05  -5.430095e+05
   1.203229e+06   5.583210e+04
   7.101163e+05   1.183518e+06
  -5.588555e+05   1.742772e+06
  -1.486947e+06   9.322356e+05
  -1.290356e+06  -7.450533e+05
  -2.369020e+05  -1.816833e+06
   7.343880e+05  -1.322938e+06
   9.446222e+05   1.733420e+05
   4.496201e+05   1.209841e+06
  -2.212246e+05   9.865579e+05
  -5.754691e+05   9.049948e+04
  -4.712580e+05  -3.772268e+05
  -1.581576e+05  -1.368157e+05
  -5.252480e+04   9.575170e+04
  -3.054663e+05  -2.990522e+05
  -5.405919e+05  -9.766265e+05
  -1.987641e+05  -1.095256e+06
   7.356710e+05  -4.147505e+05
   1.506395e+06   4.489148e+05
   1.304200e+06   8.333267e+05
   1.989920e+05   7.108891e+05
  -8.493860e+05   4.403580e+05
  -9.951146e+05   1.969193e+05
  -3.797173e+05  -5.280198e+04
   1.390399e+05  -2.326294e+05
   4.888766e+04  -2.049940e+05
  -2.536367e+05  -8.559072e+04
  -6.041283e+04  -1.323692e+05
   6.499086e+05  -2.566782e+05
   1.067464e+06  -1.550702e+04
   4.811678e+05   6.943725e+05
  -8.136895e+05   1.225108e+06
  -1.724906e+06   8.220788e+05
  -1.467529e+06  -3.945492e+05
  -3.177715e+05  -1.421882e+06
   7.552321e+05  -1.425126e+06
   1.055609e+06  -5.845217e+05
   6.684460e+05   2.117638e+05
   1.527284e+05   3.611443e+05
  -5.170440e+04   7.808531e+04
   9.067195e+04  -6.689196e+03
   3.060431e+05   3.754036e+05
   2.618862e+05   8.193502e+05
  -1.622227e+05   6.998933e+05
  -6.908430e+05  -9.369845e+04
  -7.862843e+05  -9.358020e+05
  -1.667868e+05  -1.046998e+06
   7.452874e+05  -2.899248e+05
   1.076695e+06   6.877882e+05
   3.967013e+05   1.100397e+06
  -7.036551e+05   7.237400e+05
  -1.151231e+06  -4.002750e+04
  -5.712627e+05  -6.234487e+05
   2.740515e+05  -7.179151e+05
   3.942478e+05  -3.914513e+05
  -2.316444e+05   1.941173e+03
  -6.551242e+05   5.907594e+04
  -1.646105e+05  -3.130237e+05
   8.244399e+05  -7.095545e+05
   1.288692e+06  -5.690700e+05
   8.032658e+05   1.746892e+05
  -7.312892e+04   8.959884e+05
  -5.574073e+05   8.970648e+05
  -4.479098e+05   1.934470e+05
  -7.711467e+04  -4.768278e+05
   2.268128e+05  -4.606793e+05
   3.590379e+05   1.220714e+05
   2.772197e+05   5.803282e+05
  -3.487100e+04   4.533640e+05
  -3.993301e+05  -2.644261e+04
  -5.005263e+05  -2.855898e+05
  -2.514015e+05  -1.036600e+05
   5.064530e+04   1.657693e+05
   8.982607e+04   7.296932e+04
  -4.702059e+04  -3.439412e+05
  -5.259390e+03  -5.782659e+05
   3.020281e+05  -2.655096e+05
   5.005362e+05   3.469071e+05
   2.125216e+05   6.479734e+05
  -3.957049e+05   3.406590e+05
  -6.966438e+05  -2.508008e+05
  -2.843650e+05  -5.677014e+05
   5.124074e+05  -3.906871e+05
   9.124727e+05   4.099526e+04
   5.050339e+05   3.698260e+05
  -2.859069e+05   4.316937e+05
  -6.478306e+05   2.704615e+05
  -2.704692e+05   3.126697e+04
   3.259475e+05  -9.366127e+04
   4.053570e+05   3.081392e+04
  -1.457269e+05   2.854144e+05
  -7.184362e+05   2.955373e+05
