
 $NMID
 id='ANONYMOUS ', fmtdat='(2E16.6)'
 volume=1.0
 tramp=1.0
 $END
  -3.390684e+07  -3.927166e+05
  -2.006046e+07  -2.147243e+07
   5.054951e+06  -2.304589e+07
   1.701514e+07  -8.420590e+06
   9.907077e+06   4.789533e+06
  -2.276602e+06   5.959225e+06
  -6.154160e+06  -7.426294e+05
  -1.693354e+06  -6.074628e+06
   3.885615e+06  -5.750430e+06
   5.986096e+06  -1.111110e+06
   4.243200e+06   3.999150e+06
   3.086571e+05   5.411650e+06
  -2.677747e+06   1.691354e+06
  -1.735885e+06  -3.356663e+06
   2.274929e+06  -3.939169e+06
   4.703491e+06   9.244100e+05
   2.446708e+06   6.172119e+06
  -2.559299e+06   6.878577e+06
  -6.182891e+06   3.191387e+06
  -6.396889e+06  -1.517944e+06
  -3.817626e+06  -4.646244e+06
  -2.499375e+05  -5.276461e+06
   1.986932e+06  -3.649251e+06
   1.391965e+06  -1.490155e+06
  -5.229148e+05  -1.072660e+06
  -2.235393e+05  -2.373452e+06
   3.126380e+06  -2.676465e+06
   5.828188e+06  -3.576704e+05
   4.370478e+06   2.584415e+06
   2.230848e+05   3.298044e+06
  -2.312770e+06   1.780570e+06
  -1.636411e+06   1.039324e+05
   2.357486e+05  -5.691386e+05
   1.260308e+06  -2.988029e+05
   1.186268e+06   8.879951e+05
   2.572765e+05   2.367674e+06
  -1.233411e+06   2.245259e+06
  -2.044628e+06  -1.932184e+05
  -1.060450e+06  -2.308317e+06
   4.925016e+05  -1.235798e+06
   2.482549e+05   1.406956e+06
  -1.453218e+06   1.281699e+06
  -1.447879e+06  -2.022014e+06
   1.505133e+06  -3.715784e+06
   4.229879e+06  -5.750659e+05
   3.104998e+06   4.176360e+06
  -1.135162e+06   5.085044e+06
  -4.418800e+06   1.427609e+06
  -4.090233e+06  -2.637658e+06
  -1.020077e+06  -3.575829e+06
   2.133818e+06  -1.607604e+06
   3.141084e+06   9.763303e+05
   1.370029e+06   2.244085e+06
  -1.586110e+06   1.451726e+06
  -2.833953e+06  -5.944517e+05
  -1.193675e+06  -1.810291e+06
   1.087350e+06  -9.274232e+05
   1.080108e+06   6.767083e+05
  -8.375586e+05   6.275758e+05
  -1.550282e+06  -1.111122e+06
   3.684265e+05  -2.178368e+06
   2.813835e+06  -1.133947e+06
   3.164747e+06   9.321756e+05
   1.304491e+06   2.427086e+06
  -1.151459e+06   3.026856e+06
  -2.992139e+06   2.713576e+06
  -3.647783e+06   9.370168e+05
  -2.669913e+06  -1.919506e+06
  -4.627225e+05  -3.699684e+06
   1.262122e+06  -2.814900e+06
   1.178667e+06  -5.956834e+05
   9.448200e+04   3.304478e+05
  -1.509078e+05  -4.920620e+05
   8.157612e+05  -1.117652e+06
   1.641732e+06  -2.487375e+05
   1.263639e+06   1.108083e+06
   6.313421e+04   1.321947e+06
  -9.394651e+05   1.840553e+05
  -1.038951e+06  -1.222852e+06
  -8.888027e+03  -1.779013e+06
   1.671630e+06  -1.005774e+06
   2.664818e+06   7.389192e+05
   1.866122e+06   2.292302e+06
  -1.028285e+05   2.527638e+06
  -1.417931e+06   1.555804e+06
  -1.352379e+06   5.838798e+05
  -1.075250e+06   3.362208e+05
  -1.692061e+06   2.440150e+05
  -2.491322e+06  -4.823297e+05
  -1.986126e+06  -1.647998e+06
  -5.505437e+04  -2.405433e+06
   1.870091e+06  -2.245351e+06
   2.457761e+06  -1.221855e+06
   1.609211e+06   2.484827e+05
   1.938578e+05   1.337249e+06
  -6.911605e+05   1.183590e+06
  -4.084583e+05  -1.373540e+04
   6.293890e+05  -8.231010e+05
   1.189967e+06  -2.725281e+05
   5.959557e+05   7.547306e+05
  -3.291968e+05   7.440413e+05
  -3.108812e+05  -1.893910e+05
   5.958767e+05  -4.307309e+05
   1.067905e+06   7.374885e+05
   3.159565e+05   2.051714e+06
  -1.010669e+06   1.978587e+06
  -1.855983e+06   5.708095e+05
  -1.877441e+06  -9.385795e+05
  -1.259963e+06  -1.656116e+06
  -2.295783e+05  -1.513081e+06
   7.440246e+05  -8.258023e+05
   9.461768e+05  -1.052540e+05
   2.962195e+05   4.949497e+04
  -2.326345e+05  -4.391871e+05
   2.237042e+05  -8.158186e+05
   1.146563e+06  -3.728048e+05
   1.258720e+06   5.272275e+05
   2.798325e+05   8.875660e+05
  -6.816452e+05   4.100554e+05
  -5.639765e+05  -2.094569e+05
   4.275204e+05  -2.802204e+05
   1.211511e+06   1.792889e+05
   9.893448e+05   7.663834e+05
  -1.451111e+05   1.127680e+06
  -1.353176e+06   9.517432e+05
  -1.648445e+06   1.348907e+05
  -7.308378e+05  -7.881612e+05
   5.648119e+05  -9.239832e+05
   9.709597e+05  -1.142810e+05
   1.523907e+05   6.695300e+05
  -9.010257e+05   4.634713e+05
  -1.036441e+06  -4.658463e+05
  -2.049981e+05  -1.005451e+06
   6.643631e+05  -6.065918e+05
   7.822149e+05   1.744117e+05
   1.945973e+05   4.843559e+05
  -4.356569e+05   8.860039e+04
  -4.437500e+05  -5.566696e+05
   2.912322e+05  -8.032755e+05
   1.135988e+06  -3.204188e+05
   1.180522e+06   6.085318e+05
   2.190008e+05   1.224548e+06
  -8.730029e+05   9.694603e+05
  -1.058006e+06   1.021376e+05
  -3.262773e+05  -5.545550e+05
   3.887486e+05  -5.176868e+05
   4.080351e+05  -7.867672e+04
  -1.121773e+04   1.985473e+05
  -2.349003e+05   1.424601e+05
  -5.987182e+04   1.208346e+04
   2.218642e+05   8.913383e+04
   2.449844e+05   3.913187e+05
  -1.483489e+05   6.512074e+05
  -7.944468e+05   4.817793e+05
  -1.186137e+06  -2.567509e+05
  -8.259127e+05  -1.135748e+06
   1.587072e+05  -1.413803e+06
   9.725296e+05  -8.137600e+05
   9.945195e+05   1.058677e+05
   4.839943e+05   5.635099e+05
   1.616862e+05   4.099249e+05
   2.554156e+05   1.434695e+05
   3.311598e+05   1.835351e+05
   1.078339e+04   4.186241e+05
  -5.243678e+05   4.673137e+05
  -8.040329e+05   1.342909e+05
  -5.485142e+05  -4.278566e+05
   1.759447e+05  -8.064743e+05
   9.845882e+05  -5.731925e+05
   1.275900e+06   3.025567e+05
   6.440235e+05   1.215111e+06
  -5.889322e+05   1.361711e+06
  -1.482170e+06   5.853789e+05
  -1.374785e+06  -4.005917e+05
  -5.607555e+05  -7.946828e+05
   1.211742e+05  -5.580201e+05
   2.357570e+05  -2.981900e+05
   6.553992e+04  -4.394391e+05
   8.619874e+04  -7.610049e+05
   4.092763e+05  -7.435147e+05
   7.564291e+05  -1.715738e+05
   7.697492e+05   6.431813e+05
   3.106017e+05   1.111492e+06
  -3.740185e+05   8.397420e+05
  -7.528818e+05   1.022241e+02
  -4.679435e+05  -7.438359e+05
   2.309956e+05  -8.082702e+05
   6.670628e+05  -2.370002e+05
   4.567533e+05   3.939273e+05
  -7.169065e+04   6.091347e+05
  -2.968332e+05   4.494985e+05
  -4.614858e+04   2.545722e+05
   2.297853e+05   2.105106e+05
   1.375281e+04   2.182253e+05
  -6.558339e+05   9.469594e+04
  -1.164812e+06  -2.210481e+05
  -9.212586e+05  -6.080179e+05
   1.414503e+04  -8.164851e+05
   9.142499e+05  -6.417643e+05
   1.069338e+06  -1.547574e+05
   4.897051e+05   2.765865e+05
  -1.545825e+05   3.150917e+05
  -2.893683e+05   1.448922e+04
   1.265540e+04  -2.329498e+05
   2.834015e+05  -1.279827e+05
   2.687457e+05   2.200612e+05
   1.101170e+05   4.340931e+05
   3.266024e+04   2.860726e+05
   8.169256e+04  -5.141291e+04
   1.594178e+05  -1.718497e+05
   1.324706e+05   1.231126e+05
  -1.102641e+05   5.484445e+05
  -5.165136e+05   5.856416e+05
  -7.527176e+05   7.317796e+04
  -4.567976e+05  -5.354306e+05
   2.552147e+05  -6.345092e+05
   7.233449e+05  -1.560877e+05
   4.117782e+05   3.537680e+05
  -4.206101e+05   3.652048e+05
  -9.285304e+05  -8.222007e+04
  -5.810843e+05  -5.165601e+05
   2.907675e+05  -5.713814e+05
   8.803014e+05  -2.681197e+05
   7.214612e+05   1.181415e+05
   7.841401e+04   3.032715e+05
  -3.780796e+05   1.605852e+05
  -2.203132e+05  -1.649626e+05
   3.458968e+05  -2.915109e+05
   6.851006e+05   6.642729e+04
   3.651014e+05   7.013707e+05
  -3.851556e+05   9.822155e+05
  -8.921371e+05   4.839783e+05
  -7.219031e+05  -4.730956e+05
  -8.365005e+04  -1.055645e+06
   4.543840e+05  -7.491742e+05
   5.359146e+05   1.087740e+05
   2.423200e+05   6.948651e+05
  -1.226060e+05   5.635913e+05
  -3.168104e+05   4.842930e+04
  -2.742617e+05  -2.214187e+05
  -1.068557e+05  -7.959292e+04
  -2.803959e+04   6.071139e+04
  -1.466450e+05  -1.690407e+05
  -2.826692e+05  -5.702651e+05
  -1.111149e+05  -6.379549e+05
   4.110706e+05  -2.235895e+05
   8.594564e+05   2.952883e+05
   7.446396e+05   5.084728e+05
   9.454332e+04   4.061607e+05
  -5.153992e+05   2.287083e+05
  -5.792147e+05   9.405450e+04
  -2.001950e+05  -3.386911e+04
   9.480767e+04  -1.332386e+05
   1.903378e+04  -1.241296e+05
  -1.599830e+05  -5.701289e+04
  -2.555872e+04  -7.175496e+04
   3.957542e+05  -1.250067e+05
   6.081120e+05   2.061893e+04
   2.296921e+05   4.097788e+05
  -5.184141e+05   6.742326e+05
  -1.000091e+06   4.098871e+05
  -8.066759e+05  -2.818974e+05
  -1.345461e+05  -8.266392e+05
   4.641213e+05  -7.838346e+05
   6.147030e+05  -2.918138e+05
   3.774250e+05   1.437208e+05
   7.190469e+04   2.056848e+05
  -4.692927e+04   3.408407e+04
   4.288740e+04  -1.259681e+04
   1.729862e+05   2.124517e+05
   1.414589e+05   4.712520e+05
  -1.095960e+05   3.961226e+05
  -3.993710e+05  -7.766349e+04
  -4.214627e+05  -5.696756e+05
  -4.840329e+04  -6.089234e+05
   4.516442e+05  -1.312928e+05
   5.962781e+05   4.433118e+05
   1.831026e+05   6.429038e+05
  -4.283798e+05   3.797447e+05
  -6.467950e+05  -6.120777e+04
  -2.961629e+05  -3.567605e+05
   1.735145e+05  -3.826064e+05
   2.157034e+05  -2.093148e+05
  -1.522518e+05  -1.442820e+04
  -3.792282e+05   1.139123e+04
  -7.695959e+04  -1.811837e+05
   4.920705e+05  -3.868170e+05
   7.379421e+05  -3.023829e+05
   4.369371e+05   1.122668e+05
  -6.973697e+04   5.066347e+05
  -3.310474e+05   4.888627e+05
  -2.459032e+05   8.120654e+04
  -2.089565e+04  -2.841770e+05
   1.481840e+05  -2.465525e+05
   2.046538e+05   9.699269e+04
   1.392700e+05   3.410689e+05
  -3.951494e+04   2.447249e+05
  -2.293702e+05  -3.310441e+04
  -2.727946e+05  -1.678501e+05
  -1.394734e+05  -5.787562e+04
   1.547790e+04   8.443003e+04
   4.550109e+04   1.871673e+04
   2.758757e+03  -2.123917e+05
   4.779056e+04  -3.197345e+05
   1.964526e+05  -1.159246e+05
   2.589638e+05   2.363931e+05
   7.440842e+04   3.843465e+05
  -2.457778e+05   1.759867e+05
  -3.812127e+05  -1.762033e+05
  -1.384193e+05  -3.395132e+05
   2.993561e+05  -2.047594e+05
   5.122629e+05   5.786837e+04
   2.745350e+05   2.272465e+05
  -1.780708e+05   2.285945e+05
  -3.790848e+05   1.219196e+05
  -1.456889e+05   3.608126e+03
   2.102422e+05  -3.718546e+04
   2.440196e+05   4.580443e+04
  -1.034967e+05   1.745395e+05
  -4.452979e+05   1.531783e+05
