
 $NMID
 id='ANONYMOUS ', fmtdat='(2E16.6)'
 volume=1.0
 tramp=1.0
 $END
   5.187914e+07   1.945859e+06
   3.059002e+07   3.249100e+07
  -7.330223e+06   3.476181e+07
  -2.577519e+07   1.358025e+07
  -1.557699e+07  -6.109675e+06
   2.895411e+06  -8.669172e+06
   9.329030e+06   8.218556e+05
   2.870876e+06   9.150424e+06
  -5.791271e+06   9.141007e+06
  -9.171376e+06   2.023174e+06
  -6.439716e+06  -6.121501e+06
  -4.218988e+05  -8.311573e+06
   3.924716e+06  -2.327351e+06
   2.327842e+06   5.619150e+06
  -3.758880e+06   6.460404e+06
  -7.438868e+06  -1.274740e+06
  -4.009150e+06  -9.712986e+06
   3.803231e+06  -1.101951e+07
   9.604333e+06  -5.172083e+06
   9.883022e+06   2.392299e+06
   5.627178e+06   7.127132e+06
   2.360263e+05   7.696845e+06
  -2.541015e+06   5.247651e+06
  -1.185817e+06   2.722525e+06
   1.252433e+06   2.760146e+06
  -2.186366e+05   4.413216e+06
  -5.811493e+06   3.845164e+06
  -9.476100e+06  -2.857079e+05
  -6.427990e+06  -4.411386e+06
   3.390390e+05  -4.721830e+06
   3.982939e+06  -1.944454e+06
   2.264480e+06   5.435903e+05
  -1.220504e+06   1.123181e+06
  -2.802244e+06   1.443463e+05
  -2.074577e+06  -1.989489e+06
  -1.086223e+05  -4.064435e+06
   2.016671e+06  -3.418313e+06
   2.714596e+06   4.742454e+05
   1.116940e+06   3.387574e+06
  -7.371813e+05   1.359540e+06
   8.279140e+04  -2.710721e+06
   2.595328e+06  -2.258571e+06
   2.322261e+06   3.028526e+06
  -2.170012e+06   5.704071e+06
  -6.168380e+06   8.926327e+05
  -4.476794e+06  -6.419889e+06
   1.887499e+06  -7.796861e+06
   6.984480e+06  -2.007397e+06
   6.620110e+06   4.491858e+06
   1.765015e+06   5.973618e+06
  -3.472164e+06   2.682300e+06
  -5.267997e+06  -1.539722e+06
  -2.477617e+06  -3.453627e+06
   2.251529e+06  -2.119342e+06
   4.299695e+06   9.181839e+05
   1.861950e+06   2.586633e+06
  -1.638028e+06   1.256225e+06
  -1.750476e+06  -1.048880e+06
   1.114566e+06  -1.039896e+06
   2.393995e+06   1.384653e+06
  -2.731418e+05   3.037668e+06
  -4.069842e+06   1.789513e+06
  -4.946540e+06  -1.173285e+06
  -2.178224e+06  -3.713254e+06
   2.006956e+06  -4.958788e+06
   5.248063e+06  -4.390304e+06
   6.115635e+06  -1.269481e+06
   4.128664e+06   3.348659e+06
   5.411449e+05   6.045243e+06
  -1.906047e+06   4.678424e+06
  -1.690962e+06   1.415197e+06
  -3.770612e+05   2.763690e+04
  -4.569793e+05   9.843450e+05
  -1.997852e+06   1.437542e+06
  -2.862565e+06  -2.596135e+05
  -1.773988e+06  -2.329022e+06
   3.369880e+05  -2.274821e+06
   1.800769e+06  -2.245235e+04
   1.644036e+06   2.388137e+06
  -2.446359e+05   3.030813e+06
  -2.906047e+06   1.390904e+06
  -4.264653e+06  -1.538752e+06
  -2.825934e+06  -3.811054e+06
   2.613595e+05  -3.956794e+06
   2.214020e+06  -2.431516e+06
   2.087868e+06  -1.053210e+06
   1.804455e+06  -7.141748e+05
   3.016065e+06  -4.366130e+05
   4.409474e+06   9.354760e+05
   3.444134e+06   2.987705e+06
  -7.581446e+04   4.261360e+06
  -3.555680e+06   3.831861e+06
  -4.468876e+06   1.854898e+06
  -2.661060e+06  -7.052015e+05
  -1.057951e+04  -2.334056e+06
   1.337356e+06  -1.849770e+06
   5.552146e+05   1.127271e+05
  -1.234190e+06   1.259448e+06
  -1.957061e+06   2.929402e+05
  -8.250876e+05  -1.261748e+06
   6.433811e+05  -1.116371e+06
   5.032652e+05   4.319484e+05
  -1.046657e+06   8.136135e+05
  -1.909135e+06  -1.148733e+06
  -7.645600e+05  -3.498578e+06
   1.527996e+06  -3.635175e+06
   3.259719e+06  -1.322366e+06
   3.537217e+06   1.520022e+06
   2.388935e+06   3.070996e+06
   3.580326e+05   2.843432e+06
  -1.412265e+06   1.451839e+06
  -1.670443e+06   1.109221e+05
  -5.094731e+05  -7.671617e+04
   3.323221e+05   8.002548e+05
  -4.703559e+05   1.344597e+06
  -1.954846e+06   5.007229e+05
  -2.045984e+06  -9.794205e+05
  -3.557993e+05  -1.459023e+06
   1.241222e+06  -5.462685e+05
   9.441691e+05   5.305904e+05
  -8.994222e+05   5.743267e+05
  -2.335075e+06  -3.830833e+05
  -1.850211e+06  -1.538081e+06
   3.339346e+05  -2.126651e+06
   2.524619e+06  -1.644891e+06
   2.919367e+06  -1.390815e+05
   1.193398e+06   1.359154e+06
  -1.012813e+06   1.470785e+06
  -1.580342e+06   1.083318e+05
  -1.257060e+05  -1.101816e+06
   1.608267e+06  -6.711259e+05
   1.753557e+06   8.907216e+05
   3.010815e+05   1.745584e+06
  -1.168069e+06   1.008006e+06
  -1.318469e+06  -3.467954e+05
  -2.551857e+05  -8.206142e+05
   8.091117e+05  -2.600997e+04
   6.966192e+05   1.129949e+06
  -6.924303e+05   1.439110e+06
  -2.123077e+06   4.313789e+05
  -2.048451e+06  -1.218120e+06
  -2.803209e+05  -2.175604e+06
   1.578288e+06  -1.630854e+06
   1.807455e+06  -1.375605e+05
   4.926925e+05   9.293500e+05
  -7.266708e+05   8.127526e+05
  -6.892376e+05   3.318600e+04
   1.354297e+05  -4.203634e+05
   5.737532e+05  -2.265638e+05
   1.951194e+05   1.073559e+05
  -4.411895e+05  -3.168457e+04
  -5.366817e+05  -6.840374e+05
   2.445382e+05  -1.225933e+06
   1.481607e+06  -8.671945e+05
   2.147464e+06   5.450607e+05
   1.412593e+06   2.107429e+06
  -3.704095e+05   2.521586e+06
  -1.781677e+06   1.410863e+06
  -1.795759e+06  -2.129178e+05
  -8.852266e+05  -1.029690e+06
  -2.890311e+05  -7.799399e+05
  -4.320796e+05  -2.939716e+05
  -5.919906e+05  -3.325122e+05
  -5.215814e+04  -7.686493e+05
   9.526444e+05  -9.020876e+05
   1.546328e+06  -2.787771e+05
   1.087100e+06   8.326849e+05
  -3.328654e+05   1.555424e+06
  -1.871575e+06   1.047334e+06
  -2.336652e+06  -6.316162e+05
  -1.086389e+06  -2.256156e+06
   1.154259e+06  -2.416682e+06
   2.692432e+06  -9.616267e+05
   2.443820e+06   7.903021e+05
   9.755487e+05   1.465847e+06
  -2.526965e+05   1.030581e+06
  -4.814134e+05   5.449045e+05
  -1.858481e+05   7.595842e+05
  -2.045080e+05   1.311423e+06
  -7.566698e+05   1.279254e+06
  -1.346452e+06   2.526341e+05
  -1.322459e+06  -1.207067e+06
  -4.644107e+05  -2.010878e+06
   7.388377e+05  -1.462034e+06
   1.347760e+06   7.111507e+04
   7.880431e+05   1.372058e+06
  -4.593642e+05   1.438888e+06
  -1.212615e+06   3.988425e+05
  -8.158842e+05  -7.208034e+05
   1.466266e+05  -1.095367e+06
   5.610686e+05  -8.037958e+05
   9.947154e+04  -4.529425e+05
  -4.214368e+05  -3.832610e+05
  -3.367341e+04  -4.061612e+05
   1.196622e+06  -1.627799e+05
   2.114091e+06   4.512456e+05
   1.631333e+06   1.160490e+06
  -8.957249e+04   1.481934e+06
  -1.689683e+06   1.097398e+06
  -1.921533e+06   2.064046e+05
  -8.618761e+05  -5.303118e+05
   2.859394e+05  -5.654825e+05
   5.303113e+05  -2.334067e+04
   2.841874e+03   4.160661e+05
  -4.867633e+05   2.342801e+05
  -4.783167e+05  -3.841396e+05
  -1.944740e+05  -7.689971e+05
  -4.757974e+04  -5.002389e+05
  -1.570896e+05   1.080725e+05
  -3.352715e+05   3.053926e+05
  -2.802542e+05  -2.571650e+05
   2.197293e+05  -1.026897e+06
   9.979662e+05  -1.056928e+06
   1.397831e+06  -9.682521e+04
   8.075999e+05   9.959920e+05
  -4.919989e+05   1.142697e+06
  -1.308783e+06   2.616226e+05
  -7.270274e+05  -6.472044e+05
   7.663204e+05  -6.433121e+05
   1.668500e+06   1.828674e+05
   1.033977e+06   9.646701e+05
  -5.470139e+05   1.032241e+06
  -1.611446e+06   4.431885e+05
  -1.304193e+06  -2.618293e+05
  -1.200827e+05  -5.547741e+05
   6.959632e+05  -2.550092e+05
   3.800996e+05   3.206513e+05
  -6.481213e+05   4.989587e+05
  -1.225311e+06  -1.667747e+05
  -6.139214e+05  -1.274714e+06
   7.317995e+05  -1.732588e+06
   1.607960e+06  -8.257952e+05
   1.267857e+06   8.714304e+05
   1.050086e+05   1.891309e+06
  -8.548040e+05   1.322666e+06
  -9.672864e+05  -2.290381e+05
  -3.946293e+05  -1.277541e+06
   2.762453e+05  -1.017010e+06
   5.926370e+05  -6.314217e+04
   4.753474e+05   4.296351e+05
   1.724023e+05   1.620569e+05
   5.401597e+04  -1.022280e+05
   2.647140e+05   3.114380e+05
   4.742699e+05   1.036501e+06
   1.486613e+05   1.149697e+06
  -7.591660e+05   3.816523e+05
  -1.520987e+06  -5.737513e+05
  -1.304489e+06  -9.564595e+05
  -1.562870e+05  -7.413350e+05
   9.265492e+05  -3.850001e+05
   1.047198e+06  -1.361708e+05
   3.710248e+05   6.721781e+04
  -1.680184e+05   2.254861e+05
  -4.267741e+04   2.230999e+05
   2.785784e+05   1.249832e+05
   4.175402e+04   1.408030e+05
  -7.139553e+05   2.008113e+05
  -1.093653e+06  -7.220764e+04
  -4.040775e+05  -7.397968e+05
   9.514545e+05  -1.177466e+06
   1.813929e+06  -6.969036e+05
   1.442966e+06   5.269735e+05
   2.071351e+05   1.487876e+06
  -8.760927e+05   1.398810e+06
  -1.125769e+06   5.022792e+05
  -6.721165e+05  -2.837121e+05
  -1.181249e+05  -3.805734e+05
   7.926749e+04  -5.757793e+04
  -8.790134e+04   1.880396e+04
  -2.990139e+05  -4.029395e+05
  -2.168515e+05  -8.630567e+05
   2.247499e+05  -7.000543e+05
   7.047742e+05   1.675138e+05
   7.175788e+05   1.036321e+06
   6.285152e+04   1.080982e+06
  -7.992578e+05   2.135916e+05
  -1.040832e+06  -8.108462e+05
  -3.060452e+05  -1.156748e+06
   7.797784e+05  -6.696628e+05
   1.165613e+06   1.355384e+05
   5.267348e+05   6.653476e+05
  -3.318853e+05   6.937094e+05
  -4.140615e+05   3.691364e+05
   2.589473e+05   2.788606e+04
   6.825960e+05  -5.444225e+03
   1.376959e+05   3.286224e+05
  -9.018376e+05   6.679079e+05
  -1.350539e+06   5.044171e+05
  -7.915092e+05  -2.205134e+05
   1.451632e+05  -9.049908e+05
   6.207886e+05  -8.715799e+05
   4.500752e+05  -1.510089e+05
   2.886389e+04   5.029897e+05
  -2.710837e+05   4.425150e+05
  -3.573766e+05  -1.734200e+05
  -2.360989e+05  -6.176545e+05
   7.380808e+04  -4.434957e+05
   4.056618e+05   6.702019e+04
   4.865873e+05   3.170732e+05
   2.516698e+05   1.133513e+05
  -3.123163e+04  -1.567951e+05
  -9.108322e+04  -4.910912e+04
  -8.608885e+03   3.655461e+05
  -7.632983e+04   5.658155e+05
  -3.380399e+05   2.100532e+05
  -4.560810e+05  -4.153789e+05
  -1.309054e+05  -6.795893e+05
   4.417119e+05  -3.070135e+05
   6.797525e+05   3.236133e+05
   2.356152e+05   6.116897e+05
  -5.500550e+05   3.586736e+05
  -9.198577e+05  -1.211617e+05
  -4.831151e+05  -4.188906e+05
   3.251209e+05  -4.052585e+05
   6.778413e+05  -2.086278e+05
   2.635154e+05  -9.938941e+03
  -3.618748e+05   5.058242e+04
  -4.189652e+05  -8.776562e+04
   1.924992e+05  -2.923343e+05
   7.906965e+05  -2.412980e+05
