
 $NMID
 id='ANONYMOUS ', fmtdat='(2E16.6)'
 volume=1.0
 tramp=1.0
 $END
   7.725510e+06   2.294258e+06
   4.308708e+06   4.397141e+06
  -8.529624e+05   4.596490e+06
  -3.914171e+06   3.008915e+06
  -3.142230e+06   3.587325e+05
  -1.773778e+05  -1.464318e+06
   1.844791e+06  -8.164323e+05
   1.333095e+06   1.458411e+06
  -6.024707e+05   2.542840e+06
  -1.761069e+06   9.836501e+05
  -1.177725e+06  -1.452272e+06
   2.461295e+05  -1.971242e+06
   9.935704e+05  -1.150716e+05
   4.221855e+05   1.904670e+06
  -8.184125e+05   1.909673e+06
  -1.467789e+06   4.679706e+03
  -7.711257e+05  -1.867924e+06
   7.824221e+05  -2.033798e+06
   1.816751e+06  -5.699267e+05
   1.418267e+06   1.006686e+06
   1.507126e+05   1.351643e+06
  -5.376098e+05   6.290362e+05
   2.647646e+04   1.747322e+05
   9.531428e+05   8.101144e+05
   8.211228e+05   1.803130e+06
  -6.821938e+05   1.787055e+06
  -2.336781e+06   4.574560e+05
  -2.570707e+06  -1.086038e+06
  -1.026149e+06  -1.602418e+06
   9.838398e+05  -8.803291e+05
   1.633827e+06   3.298325e+05
   3.897869e+05   1.073530e+06
  -1.367983e+06   7.824526e+05
  -1.778324e+06  -3.862892e+05
  -5.461401e+05  -1.497587e+06
   8.170488e+05  -1.499826e+06
   8.875120e+05  -3.472122e+05
  -4.428364e+04   7.470493e+05
  -6.065138e+05   5.889983e+05
  -1.638848e+05  -5.679318e+05
   6.273049e+05  -1.294496e+06
   9.086690e+05  -7.039813e+05
   5.670729e+05   5.154664e+05
   2.581707e+03   9.758724e+05
  -4.172261e+05   2.075356e+05
  -3.936567e+05  -8.839071e+05
   2.727779e+05  -1.077445e+06
   1.235514e+06  -1.075207e+05
   1.548316e+06   1.145156e+06
   6.186293e+05   1.573212e+06
  -8.926455e+05   8.772792e+05
  -1.613841e+06  -2.440510e+05
  -9.558214e+05  -8.338627e+05
   2.870732e+05  -5.599222e+05
   8.955851e+05   1.029023e+05
   4.843099e+05   4.538394e+05
  -2.983596e+05   2.291085e+05
  -5.751688e+05  -2.662582e+05
  -9.728919e+04  -5.326532e+05
   5.609364e+05  -3.261111e+05
   5.878875e+05   1.524062e+05
  -1.596694e+05   4.202024e+05
  -8.492996e+05   1.311531e+05
  -5.109842e+05  -5.529113e+05
   7.724858e+05  -1.018701e+06
   1.817556e+06  -7.351269e+05
   1.648533e+06   2.184682e+05
   5.736612e+05   1.192039e+06
  -3.096813e+05   1.562778e+06
  -4.482545e+05   1.280051e+06
  -2.813940e+05   8.035880e+05
  -4.402721e+05   5.323409e+05
  -9.303454e+05   3.698088e+05
  -1.240491e+06  -6.698085e+04
  -9.763793e+05  -8.178347e+05
  -2.093760e+05  -1.314487e+06
   6.161998e+05  -9.302292e+05
   9.608204e+05   2.065730e+05
   5.426512e+05   1.154762e+06
  -3.646444e+05   1.067844e+06
  -1.047480e+06   7.363052e+04
  -9.660639e+05  -8.990826e+05
  -2.811099e+05  -1.118518e+06
   3.420471e+05  -7.016678e+05
   4.655445e+05  -2.774302e+05
   3.124483e+05  -2.166345e+05
   4.264092e+05  -3.253207e+05
   9.629314e+05  -1.832684e+05
   1.403719e+06   3.733553e+05
   1.045745e+06   1.082274e+06
  -1.818218e+05   1.452168e+06
  -1.446816e+06   1.142971e+06
  -1.717775e+06   2.767529e+05
  -8.153144e+05  -5.834401e+05
   3.527963e+05  -8.573098e+05
   7.225960e+05  -4.525743e+05
   1.548821e+05   1.439062e+05
  -5.498119e+05   3.313066e+05
  -6.272994e+05  -1.384258e+04
  -1.174684e+05  -4.237898e+05
   3.502164e+05  -3.577650e+05
   2.983840e+05   1.566553e+05
  -1.918052e+05   4.753169e+05
  -6.433465e+05   3.362397e+04
  -5.848047e+05  -9.227660e+05
   9.875954e+04  -1.458619e+06
   1.010717e+06  -9.113108e+05
   1.463114e+06   3.500105e+05
   1.053009e+06   1.270875e+06
   9.502119e+04   1.195720e+06
  -6.299597e+05   4.629265e+05
  -6.340684e+05  -9.234831e+04
  -1.759871e+05  -5.068807e+04
   8.746073e+04   2.889487e+05
  -1.619403e+05   3.932993e+05
  -5.908125e+05   9.123097e+04
  -6.261413e+05  -3.229171e+05
  -1.221107e+05  -4.478009e+05
   4.295420e+05  -1.733711e+05
   3.940744e+05   2.192166e+05
  -2.868871e+05   3.101306e+05
  -9.362182e+05  -6.559269e+04
  -8.042858e+05  -6.304946e+05
   1.063439e+05  -8.892027e+05
   9.886389e+05  -5.862314e+05
   1.058652e+06   4.142359e+04
   3.529475e+05   4.743923e+05
  -3.716432e+05   3.897537e+05
  -4.563167e+05  -4.326062e+04
   5.254495e+04  -3.321082e+05
   5.682350e+05  -1.473284e+05
   5.884465e+05   3.380389e+05
   1.236644e+05   6.197392e+05
  -3.824535e+05   4.028421e+05
  -4.840549e+05  -6.540627e+04
  -1.424772e+05  -2.667465e+05
   2.298450e+05   2.584702e+03
   1.715811e+05   4.065359e+05
  -3.275112e+05   4.529758e+05
  -7.667867e+05   2.323604e+04
  -6.434713e+05  -5.310781e+05
  -3.704510e+03  -7.572543e+05
   5.865701e+05  -5.042009e+05
   6.267155e+05  -9.284712e+03
   1.737640e+05   3.289658e+05
  -2.694261e+05   2.810831e+05
  -2.958656e+05  -2.636163e+04
   2.740449e+04  -2.398978e+05
   2.948217e+05  -1.477814e+05
   2.163548e+05   8.398926e+04
  -8.473541e+04   1.101733e+05
  -2.150886e+05  -1.580459e+05
   5.815377e+04  -4.076238e+05
   5.296678e+05  -2.660898e+05
   7.315905e+05   2.675316e+05
   4.010842e+05   7.946298e+05
  -2.429439e+05   8.942777e+05
  -7.085753e+05   4.926348e+05
  -7.029837e+05  -1.022773e+05
  -3.730805e+05  -4.778334e+05
  -9.034646e+04  -4.554767e+05
  -4.646401e+04  -2.174942e+05
  -9.484393e+04  -9.671446e+04
   2.409730e+04  -2.049828e+05
   3.431716e+05  -3.000845e+05
   5.840045e+05  -8.758268e+04
   4.250493e+05   3.661870e+05
  -1.404919e+05   6.279985e+05
  -7.223454e+05   3.538853e+05
  -8.383793e+05  -3.084073e+05
  -3.416983e+05  -8.323734e+05
   4.313500e+05  -8.069279e+05
   9.387316e+05  -2.884102e+05
   8.798163e+05   3.002121e+05
   4.051076e+05   5.667015e+05
  -7.594258e+04   4.632909e+05
  -2.747481e+05   2.622912e+05
  -2.313864e+05   2.386720e+05
  -1.889808e+05   3.680978e+05
  -2.962103e+05   3.598165e+05
  -4.441406e+05   1.333470e+04
  -3.947315e+05  -4.934827e+05
  -6.410767e+04  -7.384126e+05
   3.392449e+05  -4.851571e+05
   4.852825e+05   6.788547e+04
   2.464077e+05   4.833892e+05
  -1.607156e+05   4.888114e+05
  -3.787657e+05   1.713041e+05
  -2.581750e+05  -1.725179e+05
   1.292734e+04  -3.225144e+05
   1.320171e+05  -2.830821e+05
   1.640611e+04  -2.016210e+05
  -1.111684e+05  -1.761890e+05
   1.971752e+04  -1.541251e+05
   3.965991e+05  -2.137863e+04
   6.808929e+05   2.278370e+05
   5.293425e+05   4.477100e+05
  -2.956704e+04   4.781136e+05
  -5.706781e+05   2.988279e+05
  -6.672460e+05   3.749922e+04
  -3.130464e+05  -1.425028e+05
   8.922063e+04  -1.506255e+05
   1.690142e+05  -2.167305e+04
  -3.991616e+04   9.433063e+04
  -2.100472e+05   4.323448e+04
  -1.416940e+05  -1.593549e+05
   3.163257e+04  -2.951962e+05
   6.634027e+04  -1.793389e+05
  -7.161811e+04   7.461902e+04
  -1.865442e+05   1.438325e+05
  -1.006909e+05  -9.790997e+04
   1.584532e+05  -3.741344e+05
   3.988623e+05  -3.178612e+05
   4.226082e+05   6.638611e+04
   1.656274e+05   3.876300e+05
  -2.230601e+05   3.233223e+05
  -4.290012e+05  -2.626419e+04
  -2.165880e+05  -2.840850e+05
   2.867510e+05  -2.084148e+05
   6.180763e+05   1.072380e+05
   4.124190e+05   3.810449e+05
  -1.831945e+05   4.026396e+05
  -6.208034e+05   1.751035e+05
  -5.170073e+05  -1.096384e+05
  -5.009139e+04  -2.220764e+05
   2.552906e+05  -9.135584e+04
   1.018538e+05   1.098788e+05
  -2.827490e+05   1.135224e+05
  -4.193818e+05  -1.661335e+05
  -9.670307e+04  -5.053813e+05
   4.138714e+05  -5.531945e+05
   6.463012e+05  -1.694707e+05
   4.066541e+05   4.002910e+05
  -6.611589e+04   7.006071e+05
  -3.774731e+05   4.698615e+05
  -3.540074e+05  -9.002961e+04
  -1.241850e+05  -4.789688e+05
   9.725025e+04  -3.904070e+05
   2.030259e+05  -1.905614e+04
   1.902789e+05   1.914346e+05
   9.754341e+04   8.531039e+04
   8.721253e+03  -4.977919e+04
   1.959784e+04   8.910957e+04
   9.811394e+04   3.827052e+05
   5.061725e+04   4.383470e+05
  -2.326103e+05   1.166818e+05
  -5.313285e+05  -2.849255e+05
  -4.762712e+05  -4.149818e+05
  -2.733811e+04  -2.657062e+05
   3.984450e+05  -8.384229e+04
   4.040329e+05  -1.277065e+04
   9.569019e+04   1.260138e+04
  -8.917060e+04   6.665670e+04
   2.349214e+04   1.097857e+05
   1.474696e+05   9.508949e+04
  -1.462335e+04   5.438546e+04
  -3.263261e+05   7.317696e+03
  -3.811221e+05  -1.014468e+05
  -2.356149e+04  -2.711106e+05
   4.569181e+05  -3.327614e+05
   6.486985e+05  -1.131513e+05
   4.171955e+05   2.946344e+05
  -3.104418e+04   5.541344e+05
  -3.756666e+05   4.368951e+05
  -4.277793e+05   7.983664e+04
  -2.309073e+05  -1.714269e+05
   2.871523e+03  -1.401268e+05
   7.692143e+04   2.115854e+04
  -1.809076e+04   4.130677e+04
  -1.125744e+05  -1.469030e+05
  -5.227105e+04  -3.238583e+05
   1.303130e+05  -2.257961e+05
   2.510027e+05   1.384757e+05
   1.623661e+05   4.466032e+05
  -9.921950e+04   3.801328e+05
  -3.271694e+05  -2.449953e+04
  -3.047338e+05  -3.981949e+05
  -7.873306e+03  -4.267220e+05
   3.237383e+05  -1.546652e+05
   3.825037e+05   1.293174e+05
   1.232748e+05   2.300797e+05
  -1.512027e+05   1.814894e+05
  -1.251972e+05   1.009339e+05
   1.375782e+05   4.803342e+04
   2.571962e+05   4.669565e+04
   1.446544e+04   1.150369e+05
  -3.628241e+05   1.941792e+05
  -4.757911e+05   1.429648e+05
  -2.265520e+05  -8.266965e+04
   1.072755e+05  -2.965793e+05
   2.294047e+05  -2.605759e+05
   1.189927e+05   2.686466e+03
  -4.654319e+04   1.997025e+05
  -1.300231e+05   1.157247e+05
  -1.168030e+05  -1.265210e+05
  -4.116934e+04  -2.364953e+05
   6.084216e+04  -1.140379e+05
   1.378787e+05   6.695767e+04
   1.432278e+05   1.108563e+05
   8.551904e+04   2.836386e+04
   1.696306e+04  -2.205736e+04
  -3.536121e+04   4.754272e+04
  -8.773870e+04   1.531185e+05
  -1.425955e+05   1.427963e+05
  -1.541348e+05  -2.688216e+04
  -7.600124e+04  -2.229981e+05
   7.198982e+04  -2.514444e+05
   1.971326e+05  -5.974281e+04
   1.922093e+05   1.835721e+05
   2.335335e+04   2.491362e+05
  -2.050666e+05   8.995414e+04
  -2.944722e+05  -1.165765e+05
  -1.345369e+05  -1.793255e+05
   1.381702e+05  -9.253422e+04
   2.401017e+05   5.807291e+03
   5.993850e+04   1.644014e+04
  -1.778561e+05  -4.366984e+04
  -1.593686e+05  -1.078893e+05
   1.289721e+05  -1.188839e+05
   3.628548e+05  -3.057755e+04
