
 $NMID
 id='ANONYMOUS ', fmtdat='(2E16.6)'
 volume=1.0
 tramp=1.0
 $END
   5.243993e+07   1.013216e+06
   3.137799e+07   3.280918e+07
  -7.178297e+06   3.548876e+07
  -2.609946e+07   1.368959e+07
  -1.572898e+07  -6.502389e+06
   3.052964e+06  -8.822578e+06
   9.424701e+06   1.060404e+06
   2.723750e+06   9.311057e+06
  -5.978530e+06   9.010763e+06
  -9.236237e+06   1.898674e+06
  -6.469775e+06  -6.027773e+06
  -5.126657e+05  -8.195529e+06
   3.828986e+06  -2.419599e+06
   2.289571e+06   5.389773e+06
  -3.773477e+06   6.293964e+06
  -7.470175e+06  -1.321315e+06
  -4.053614e+06  -9.716589e+06
   3.747971e+06  -1.107398e+07
   9.574685e+06  -5.338087e+06
   9.996517e+06   2.165573e+06
   5.925410e+06   7.042219e+06
   5.036144e+05   7.895770e+06
  -2.595263e+06   5.546014e+06
  -1.533093e+06   2.758296e+06
   9.893392e+05   2.458058e+06
  -1.076880e+05   4.103723e+06
  -5.442856e+06   3.844717e+06
  -9.195514e+06  -2.894276e+04
  -6.450024e+06  -4.166647e+06
   6.218298e+04  -4.659525e+06
   3.678959e+06  -2.083780e+06
   2.197922e+06   2.614975e+05
  -9.535377e+05   8.714439e+05
  -2.425357e+06   1.595952e+05
  -1.945140e+06  -1.689590e+06
  -2.920652e+05  -3.798341e+06
   1.842093e+06  -3.474233e+06
   2.821464e+06   2.325618e+05
   1.366575e+06   3.334434e+06
  -6.529637e+05   1.593834e+06
  -2.845157e+04  -2.446436e+06
   2.501928e+06  -2.160880e+06
   2.311396e+06   3.055248e+06
  -2.257451e+06   5.794895e+06
  -6.393582e+06   9.773420e+05
  -4.671868e+06  -6.469886e+06
   1.847607e+06  -7.943818e+06
   6.994497e+06  -2.125359e+06
   6.548138e+06   4.420679e+06
   1.675802e+06   5.885021e+06
  -3.438369e+06   2.580760e+06
  -5.122070e+06  -1.590335e+06
  -2.347719e+06  -3.447480e+06
   2.301992e+06  -2.104516e+06
   4.299967e+06   9.293383e+05
   1.845397e+06   2.608760e+06
  -1.639681e+06   1.271031e+06
  -1.686476e+06  -1.047629e+06
   1.228742e+06  -9.825151e+05
   2.429640e+06   1.551330e+06
  -4.003661e+05   3.222264e+06
  -4.250373e+06   1.843538e+06
  -5.020929e+06  -1.246798e+06
  -2.185327e+06  -3.765199e+06
   1.890722e+06  -4.922744e+06
   5.007196e+06  -4.375936e+06
   5.949646e+06  -1.381116e+06
   4.161360e+06   3.167408e+06
   6.443196e+05   5.906860e+06
  -1.903695e+06   4.582102e+06
  -1.749550e+06   1.280395e+06
  -3.232914e+05  -1.512496e+05
  -2.356536e+05   8.615000e+05
  -1.726415e+06   1.466776e+06
  -2.681510e+06  -7.313283e+04
  -1.745882e+06  -2.073625e+06
   2.191476e+05  -2.094561e+06
   1.614553e+06  -3.375681e+04
   1.531769e+06   2.213057e+06
  -1.881863e+05   2.874638e+06
  -2.753164e+06   1.415281e+06
  -4.184331e+06  -1.370742e+06
  -2.884246e+06  -3.677166e+06
   1.606543e+05  -3.955855e+06
   2.181244e+06  -2.493621e+06
   2.114044e+06  -1.066734e+06
   1.799822e+06  -6.627245e+05
   2.922162e+06  -3.869908e+05
   4.249078e+06   9.163743e+05
   3.309763e+06   2.873310e+06
  -6.964877e+04   4.078628e+06
  -3.371633e+06   3.671284e+06
  -4.224387e+06   1.820961e+06
  -2.544679e+06  -5.987900e+05
  -8.198151e+04  -2.193219e+06
   1.212225e+06  -1.790347e+06
   5.329400e+05   8.081365e+04
  -1.152450e+06   1.214223e+06
  -1.883848e+06   2.986880e+05
  -8.272787e+05  -1.206971e+06
   5.899631e+05  -1.061708e+06
   4.436520e+05   4.277757e+05
  -1.076032e+06   7.315548e+05
  -1.862736e+06  -1.238436e+06
  -6.353275e+05  -3.471611e+06
   1.638971e+06  -3.454245e+06
   3.212714e+06  -1.120332e+06
   3.326828e+06   1.563606e+06
   2.179305e+06   2.931822e+06
   3.042493e+05   2.669321e+06
  -1.326309e+06   1.376726e+06
  -1.576265e+06   1.210838e+05
  -4.859456e+05  -7.200753e+04
   3.175876e+05   7.648792e+05
  -4.578718e+05   1.305122e+06
  -1.896269e+06   4.917557e+05
  -1.977262e+06  -9.563714e+05
  -3.328989e+05  -1.418755e+06
   1.194047e+06  -5.166117e+05
   8.785853e+05   5.136639e+05
  -8.844572e+05   5.128321e+05
  -2.205621e+06  -4.204785e+05
  -1.704810e+06  -1.480558e+06
   3.574357e+05  -1.994445e+06
   2.407131e+06  -1.537676e+06
   2.780100e+06  -1.251183e+05
   1.147771e+06   1.309051e+06
  -9.693537e+05   1.432201e+06
  -1.535030e+06   1.190456e+05
  -1.411258e+05  -1.063163e+06
   1.538185e+06  -6.506258e+05
   1.675701e+06   8.615227e+05
   2.650230e+05   1.674707e+06
  -1.141023e+06   9.425903e+05
  -1.258548e+06  -3.628955e+05
  -2.236977e+05  -7.991143e+05
   7.886397e+05  -2.498683e+04
   6.747256e+05   1.079528e+06
  -6.496213e+05   1.377618e+06
  -2.019952e+06   4.247850e+05
  -1.960852e+06  -1.152191e+06
  -2.729174e+05  -2.079839e+06
   1.513324e+06  -1.561801e+06
   1.731468e+06  -1.246998e+05
   4.622507e+05   8.946048e+05
  -6.997431e+05   7.711554e+05
  -6.422436e+05   3.084076e+04
   1.473963e+05  -3.770812e+05
   5.315049e+05  -1.838354e+05
   1.404119e+05   1.047961e+05
  -4.522506e+05  -6.271407e+04
  -5.063952e+05  -6.858888e+05
   2.527840e+05  -1.180044e+06
   1.421765e+06  -8.246600e+05
   2.050144e+06   5.211747e+05
   1.352281e+06   2.009191e+06
  -3.504039e+05   2.398562e+06
  -1.697725e+06   1.326189e+06
  -1.695158e+06  -2.213842e+05
  -8.095859e+05  -9.688629e+05
  -2.556375e+05  -6.988955e+05
  -4.296150e+05  -2.451604e+05
  -5.963017e+05  -3.201420e+05
  -5.913691e+04  -7.507663e+05
   9.179819e+05  -8.575177e+05
   1.471279e+06  -2.497030e+05
   1.013453e+06   7.922753e+05
  -3.358785e+05   1.461098e+06
  -1.783790e+06   9.812879e+05
  -2.218287e+06  -6.067585e+05
  -1.024436e+06  -2.157040e+06
   1.119329e+06  -2.311480e+06
   2.585734e+06  -9.073082e+05
   2.324190e+06   7.776716e+05
   8.972793e+05   1.405009e+06
  -2.651151e+05   9.574209e+05
  -4.437176e+05   4.878619e+05
  -1.374448e+05   7.185568e+05
  -1.688719e+05   1.268995e+06
  -7.215279e+05   1.239302e+06
  -1.293287e+06   2.513996e+05
  -1.267064e+06  -1.144178e+06
  -4.485008e+05  -1.912792e+06
   6.980323e+05  -1.393252e+06
   1.282783e+06   7.111924e+04
   7.487292e+05   1.318854e+06
  -4.534302e+05   1.377754e+06
  -1.181031e+06   3.649685e+05
  -7.887250e+05  -7.183924e+05
   1.568891e+05  -1.067917e+06
   5.635166e+05  -7.693969e+05
   1.087486e+05  -4.226638e+05
  -4.060084e+05  -3.567604e+05
  -3.559679e+04  -3.833457e+05
   1.150925e+06  -1.553163e+05
   2.030505e+06   4.295357e+05
   1.558575e+06   1.113185e+06
  -9.778797e+04   1.429881e+06
  -1.627918e+06   1.059251e+06
  -1.841212e+06   1.882063e+05
  -8.208838e+05  -5.296099e+05
   2.785490e+05  -5.527173e+05
   5.139815e+05  -1.462683e+04
   1.408248e+04   4.091702e+05
  -4.545276e+05   2.265930e+05
  -4.591742e+05  -3.638769e+05
  -2.034944e+05  -7.228065e+05
  -6.291513e+04  -4.712730e+05
  -1.502705e+05   9.024923e+04
  -3.083782e+05   2.727692e+05
  -2.641640e+05  -2.472524e+05
   1.999961e+05  -9.700495e+05
   9.484763e+05  -1.012004e+06
   1.349330e+06  -1.117976e+05
   7.920940e+05   9.412945e+05
  -4.622753e+05   1.106114e+06
  -1.254044e+06   2.721134e+05
  -6.951717e+05  -6.083059e+05
   7.341423e+05  -6.113804e+05
   1.583290e+06   1.834000e+05
   9.628521e+05   9.271903e+05
  -5.405249e+05   9.725352e+05
  -1.534303e+06   3.975388e+05
  -1.228366e+06  -2.645015e+05
  -1.047034e+05  -5.256764e+05
   6.662004e+05  -2.356112e+05
   3.696157e+05   3.088721e+05
  -6.051464e+05   4.832221e+05
  -1.165162e+06  -1.417731e+05
  -6.023650e+05  -1.200685e+06
   6.707011e+05  -1.653037e+06
   1.515368e+06  -8.001670e+05
   1.207484e+06   8.183298e+05
   1.061218e+05   1.793212e+06
  -8.114583e+05   1.249507e+06
  -9.190959e+05  -2.279281e+05
  -3.659984e+05  -1.217787e+06
   2.778013e+05  -9.617998e+05
   5.691924e+05  -5.564694e+04
   4.407691e+05   4.071580e+05
   1.507921e+05   1.523360e+05
   5.680574e+04  -9.445071e+04
   2.721821e+05   3.000879e+05
   4.606575e+05   9.862923e+05
   1.279730e+05   1.092830e+06
  -7.387007e+05   3.653868e+05
  -1.444062e+06  -5.419370e+05
  -1.227399e+06  -9.092132e+05
  -1.490681e+05  -7.076135e+05
   8.667006e+05  -3.668200e+05
   9.911508e+05  -1.260407e+05
   3.650379e+05   6.821216e+04
  -1.538499e+05   2.150376e+05
  -5.650515e+04   2.079514e+05
   2.473268e+05   1.127972e+05
   4.612159e+04   1.312824e+05
  -6.594348e+05   1.956588e+05
  -1.040643e+06  -5.925074e+04
  -4.108028e+05  -6.991324e+05
   8.824689e+05  -1.129171e+06
   1.729472e+06  -6.837409e+05
   1.391329e+06   4.816298e+05
   2.087136e+05   1.409153e+06
  -8.299393e+05   1.339361e+06
  -1.065809e+06   4.929948e+05
  -6.357660e+05  -2.584218e+05
  -1.207942e+05  -3.599410e+05
   5.939551e+04  -6.138060e+04
  -9.089338e+04   8.678195e+03
  -2.796084e+05  -3.880762e+05
  -2.035262e+05  -8.208376e+05
   2.065154e+05  -6.690542e+05
   6.652151e+05   1.460597e+05
   6.938790e+05   9.692022e+05
   8.231995e+04   1.025064e+06
  -7.461253e+05   2.195733e+05
  -9.951247e+05  -7.507430e+05
  -3.066767e+05  -1.096523e+06
   7.328914e+05  -6.509396e+05
   1.114972e+06   1.170453e+05
   5.147422e+05   6.381140e+05
  -3.100080e+05   6.748346e+05
  -4.032853e+05   3.588366e+05
   2.315718e+05   2.297536e+04
   6.446422e+05  -9.966522e+03
   1.377795e+05   3.132511e+05
  -8.542806e+05   6.373401e+05
  -1.295035e+06   4.783524e+05
  -7.693090e+05  -2.134029e+05
   1.310276e+05  -8.660305e+05
   5.963428e+05  -8.396913e+05
   4.383989e+05  -1.586350e+05
   3.598546e+04   4.706868e+05
  -2.511418e+05   4.287825e+05
  -3.370947e+05  -1.509978e+05
  -2.294551e+05  -5.848682e+05
   6.203630e+04  -4.323150e+05
   3.852381e+05   5.603795e+04
   4.703108e+05   3.063557e+05
   2.416082e+05   1.140333e+05
  -3.883201e+04  -1.570758e+05
  -9.142939e+04  -6.603042e+04
   9.081793e+03   3.357811e+05
  -4.228697e+04   5.462816e+05
  -3.073888e+05   2.221878e+05
  -4.488276e+05  -3.739717e+05
  -1.495892e+05  -6.383246e+05
   4.104229e+05  -2.989550e+05
   6.542292e+05   2.936594e+05
   2.326049e+05   5.735626e+05
  -5.240053e+05   3.466131e+05
  -8.809539e+05  -1.027014e+05
  -4.651302e+05  -3.941898e+05
   3.045760e+05  -3.962906e+05
   6.437884e+05  -2.143200e+05
   2.596665e+05  -1.510048e+04
  -3.277585e+05   5.716915e+04
  -3.902354e+05  -6.826575e+04
   1.719015e+05  -2.681651e+05
   7.315477e+05  -2.303716e+05
