
 $NMID
 id='ANONYMOUS ', fmtdat='(2E16.6)'
 volume=1.0
 tramp=1.0
 $END
  -2.037967e+07  -3.299512e+06
  -1.079348e+07  -1.306451e+07
   3.638838e+06  -1.283928e+07
   1.016416e+07  -5.264333e+06
   6.160384e+06   1.782033e+06
  -9.230141e+05   3.285834e+06
  -3.719614e+06   1.404815e+05
  -1.488710e+06  -3.511983e+06
   2.084365e+06  -4.113084e+06
   3.729759e+06  -1.067999e+06
   2.577091e+06   2.840959e+06
  -1.147335e+05   3.756951e+06
  -1.890390e+06   7.231378e+05
  -1.011909e+06  -2.914141e+06
   1.602968e+06  -3.069373e+06
   3.039733e+06   4.816647e+05
   1.501076e+06   4.087391e+06
  -1.803046e+06   4.449680e+06
  -4.116113e+06   1.698659e+06
  -3.837756e+06  -1.596391e+06
  -1.605785e+06  -3.203376e+06
   5.647744e+05  -2.750081e+06
   9.646914e+05  -1.495228e+06
  -2.771100e+05  -1.066489e+06
  -1.087171e+06  -1.870092e+06
   3.964951e+05  -2.549818e+06
   3.310030e+06  -1.548664e+06
   4.602295e+06   7.984079e+05
   2.599174e+06   2.466577e+06
  -8.218949e+05   2.113769e+06
  -2.383888e+06   4.510430e+05
  -1.086210e+06  -8.989077e+05
   1.149721e+06  -1.024572e+06
   2.038723e+06   2.182930e+04
   1.123108e+06   1.548340e+06
  -4.349110e+05   2.299920e+06
  -1.272763e+06   1.269572e+06
  -8.708836e+05  -7.749512e+05
   1.363295e+05  -1.537885e+06
   4.970531e+05  -2.168542e+04
  -3.276352e+05   1.734389e+06
  -1.323831e+06   1.142824e+06
  -9.766041e+05  -1.230474e+06
   7.444515e+05  -2.176394e+06
   2.070412e+06  -1.517114e+05
   1.389484e+06   2.595373e+06
  -9.244485e+05   2.915221e+06
  -2.909212e+06   5.228103e+05
  -2.903444e+06  -2.096538e+06
  -8.945078e+05  -2.725329e+06
   1.563132e+06  -1.330202e+06
   2.537389e+06   5.801544e+05
   1.306087e+06   1.495574e+06
  -8.543707e+05   9.143385e+05
  -1.802257e+06  -3.944360e+05
  -7.993710e+05  -1.057514e+06
   6.965044e+05  -4.851149e+05
   8.744691e+05   4.640832e+05
  -2.206722e+05   5.723468e+05
  -9.275505e+05  -2.152615e+05
  -1.692040e+05  -8.630539e+05
   1.301254e+06  -6.113277e+05
   1.897693e+06   3.563689e+05
   8.707429e+05   1.452305e+06
  -1.146630e+06   2.131897e+06
  -2.782161e+06   1.810307e+06
  -2.941416e+06   2.162429e+05
  -1.614398e+06  -1.847254e+06
   6.853921e+04  -2.847152e+06
   8.507604e+05  -2.164884e+06
   5.970118e+05  -8.874127e+05
   2.915335e+05  -4.083240e+05
   7.092774e+05  -6.739364e+05
   1.465100e+06  -5.059401e+05
   1.601487e+06   5.666702e+05
   7.755694e+05   1.578547e+06
  -4.417985e+05   1.360317e+06
  -1.185408e+06  -4.150609e+04
  -9.195710e+05  -1.425093e+06
   2.663509e+05  -1.625636e+06
   1.579525e+06  -4.950588e+05
   1.947971e+06   1.069010e+06
   1.009656e+06   1.921572e+06
  -3.725357e+05   1.649171e+06
  -1.016256e+06   8.539085e+05
  -8.194307e+05   3.933361e+05
  -7.733421e+05   4.025198e+05
  -1.483568e+06   2.691545e+05
  -2.204524e+06  -4.773827e+05
  -1.719607e+06  -1.547387e+06
   8.896212e+04  -2.202975e+06
   1.949007e+06  -1.934648e+06
   2.448978e+06  -8.045689e+05
   1.371289e+06   5.687085e+05
  -1.860303e+05   1.298009e+06
  -8.685851e+05   8.934144e+05
  -2.842556e+05  -1.279781e+05
   7.179670e+05  -6.196326e+05
   9.938143e+05  -9.067988e+04
   3.290077e+05   6.632762e+05
  -4.078422e+05   5.883376e+05
  -3.489565e+05  -1.984027e+05
   3.815731e+05  -5.275192e+05
   9.059065e+05   2.884639e+05
   5.906019e+05   1.540904e+06
  -4.247969e+05   1.935453e+06
  -1.496612e+06   9.907901e+05
  -1.954503e+06  -5.782488e+05
  -1.447943e+06  -1.638848e+06
  -2.401675e+05  -1.596723e+06
   8.046711e+05  -7.627909e+05
   9.163870e+05  -2.626574e+03
   2.663239e+05   4.940230e+04
  -1.662137e+05  -4.203505e+05
   2.372072e+05  -6.516632e+05
   9.592373e+05  -2.139609e+05
   1.009640e+06   4.836115e+05
   1.903164e+05   7.117414e+05
  -6.359428e+05   2.890786e+05
  -5.453939e+05  -2.709702e+05
   4.156683e+05  -3.763356e+05
   1.273908e+06   9.707328e+04
   1.094793e+06   7.979420e+05
  -1.090387e+05   1.193811e+06
  -1.346373e+06   9.093829e+05
  -1.545385e+06   5.876101e+04
  -5.915468e+05  -6.981756e+05
   5.387678e+05  -6.957698e+05
   7.681988e+05  -5.620577e+03
   7.539181e+03   5.522420e+05
  -8.419125e+05   3.133932e+05
  -9.066247e+05  -4.585832e+05
  -1.918892e+05  -9.008471e+05
   5.649629e+05  -5.643827e+05
   6.916990e+05   1.218428e+05
   1.744049e+05   3.998706e+05
  -3.860381e+05   1.015431e+04
  -3.329734e+05  -5.926620e+05
   3.995311e+05  -7.358417e+05
   1.127558e+06  -1.750351e+05
   1.045623e+06   6.811664e+05
   1.123443e+05   1.133785e+06
  -8.276231e+05   8.260000e+05
  -9.351215e+05   6.748889e+04
  -2.680805e+05  -4.776548e+05
   3.761061e+05  -4.315045e+05
   3.999856e+05  -1.158089e+04
  -3.222378e+04   2.771826e+05
  -3.408769e+05   1.888044e+05
  -2.080924e+05  -5.418220e+04
   1.583742e+05  -5.596497e+04
   2.879258e+05   2.859150e+05
  -9.459363e+04   6.152312e+05
  -7.649697e+05   4.452892e+05
  -1.115711e+06  -3.043289e+05
  -7.074246e+05  -1.121151e+06
   2.285065e+05  -1.333848e+06
   9.560152e+05  -7.663454e+05
   9.824438e+05   9.075549e+04
   5.316239e+05   5.846256e+05
   1.842462e+05   5.189729e+05
   1.786637e+05   2.386271e+05
   2.327820e+05   1.697345e+05
  -1.667783e+03   3.598884e+05
  -4.867009e+05   4.684061e+05
  -8.208241e+05   1.665362e+05
  -6.131176e+05  -4.531097e+05
   1.499420e+05  -8.638100e+05
   9.951259e+05  -5.698399e+05
   1.242422e+06   3.458378e+05
   5.748193e+05   1.183388e+06
  -5.863572e+05   1.242859e+06
  -1.382327e+06   5.015968e+05
  -1.292315e+06  -3.854659e+05
  -5.746240e+05  -7.670211e+05
   8.975831e+04  -6.000200e+05
   2.972516e+05  -3.533101e+05
   1.987735e+05  -4.063682e+05
   1.805924e+05  -6.410927e+05
   4.092768e+05  -6.186689e+05
   6.870688e+05  -9.507052e+04
   6.673289e+05   6.630963e+05
   2.094552e+05   1.071516e+06
  -4.185733e+05   7.619903e+05
  -7.134618e+05  -4.347168e+04
  -4.074249e+05  -7.043649e+05
   2.196172e+05  -7.393259e+05
   5.848273e+05  -2.355559e+05
   3.990891e+05   3.129729e+05
  -4.583553e+04   5.205965e+05
  -2.356738e+05   4.127095e+05
  -2.566563e+04   2.603437e+05
   2.056902e+05   2.254264e+05
   4.317383e+03   2.217335e+05
  -6.060714e+05   7.329591e+04
  -1.069853e+06  -2.589228e+05
  -8.380440e+05  -6.101474e+05
   3.077197e+04  -7.393431e+05
   8.576986e+05  -5.307737e+05
   9.917191e+05  -1.095804e+05
   4.525044e+05   2.315189e+05
  -1.406584e+05   2.626890e+05
  -2.598017e+05   2.539864e+04
   2.895483e+04  -1.873352e+05
   2.806724e+05  -1.081158e+05
   2.389557e+05   2.126043e+05
   4.947548e+04   4.280988e+05
  -2.253605e+04   2.745886e+05
   8.371173e+04  -8.470404e+04
   2.071104e+05  -1.989142e+05
   1.510052e+05   1.321526e+05
  -1.493125e+05   5.556092e+05
  -5.404786e+05   5.338502e+05
  -6.926829e+05  -6.968859e+03
  -3.604962e+05  -5.478574e+05
   2.841282e+05  -5.547396e+05
   6.724320e+05  -7.070512e+04
   3.688633e+05   3.681622e+05
  -4.015460e+05   3.344891e+05
  -8.930032e+05  -9.394013e+04
  -5.873178e+05  -5.029739e+05
   2.552627e+05  -5.655606e+05
   8.589424e+05  -2.739760e+05
   7.194421e+05   1.181043e+05
   7.987648e+04   3.015706e+05
  -3.630964e+05   1.450028e+05
  -1.801452e+05  -1.639115e+05
   3.745446e+05  -2.362790e+05
   6.470582e+05   1.411725e+05
   2.671379e+05   7.084507e+05
  -4.665128e+05   8.962411e+05
  -8.937526e+05   3.838766e+05
  -6.580549e+05  -5.012860e+05
  -1.919904e+04  -1.017427e+06
   4.729749e+05  -7.122900e+05
   5.141345e+05   1.083613e+05
   2.180297e+05   6.769126e+05
  -1.223530e+05   5.517103e+05
  -3.024179e+05   3.857913e+04
  -2.743552e+05  -2.378182e+05
  -1.209724e+05  -9.373697e+04
  -1.750669e+04   6.104804e+04
  -8.951997e+04  -1.562515e+05
  -2.180417e+05  -5.530867e+05
  -9.807534e+04  -6.154787e+05
   3.675311e+05  -1.909372e+05
   8.066510e+05   3.305153e+05
   7.132234e+05   5.248463e+05
   7.405966e+04   3.889188e+05
  -5.302686e+05   1.905372e+05
  -5.691055e+05   6.836765e+04
  -1.678758e+05  -2.801568e+04
   1.058986e+05  -1.157933e+05
  -1.168439e+04  -1.299939e+05
  -1.873432e+05  -8.567614e+04
  -5.421090e+03  -8.023702e+04
   4.265993e+05  -8.524069e+04
   5.773252e+05   7.221685e+04
   1.432552e+05   4.041183e+05
  -5.697988e+05   5.897493e+05
  -9.576250e+05   3.011650e+05
  -7.126253e+05  -3.393164e+05
  -6.510874e+04  -8.043974e+05
   4.866618e+05  -7.110477e+05
   6.121864e+05  -2.176281e+05
   3.603137e+05   1.849880e+05
   3.858679e+04   2.067166e+05
  -7.949219e+04   1.199110e+04
   3.076140e+04  -3.174456e+04
   1.663361e+05   2.061311e+05
   1.124743e+05   4.608101e+05
  -1.434056e+05   3.608299e+05
  -3.827439e+05  -1.283263e+05
  -3.407603e+05  -5.953097e+05
   3.214359e+04  -5.789066e+05
   4.577751e+05  -6.393662e+04
   5.286161e+05   4.895637e+05
   1.123273e+05   6.238738e+05
  -4.399859e+05   3.124648e+05
  -6.004119e+05  -1.117924e+05
  -2.405172e+05  -3.442393e+05
   1.947600e+05  -3.281526e+05
   2.001234e+05  -1.746043e+05
  -1.714070e+05  -2.827307e+04
  -3.723511e+05  -1.654144e+04
  -5.335410e+04  -1.732829e+05
   4.938994e+05  -3.392495e+05
   6.976277e+05  -2.577331e+05
   3.791294e+05   1.148496e+05
  -1.029546e+05   4.653577e+05
  -3.236138e+05   4.311723e+05
  -2.139689e+05   4.100942e+04
   1.150377e+04  -2.843443e+05
   1.634520e+05  -2.121766e+05
   1.924691e+05   1.293826e+05
   1.065794e+05   3.358293e+05
  -6.194075e+04   2.085839e+05
  -2.149867e+05  -5.833657e+04
  -2.376939e+05  -1.613051e+05
  -1.278261e+05  -4.792768e+04
  -5.611261e+03   6.350210e+04
   3.905222e+04  -1.933778e+04
   5.104819e+04  -2.197924e+05
   1.174273e+05  -2.761672e+05
   2.122012e+05  -5.278625e+04
   1.990359e+05   2.734468e+05
   1.516290e+03   3.777582e+05
  -2.597728e+05   1.402964e+05
  -3.369872e+05  -2.115734e+05
  -9.711118e+04  -3.454401e+05
   2.930356e+05  -1.714698e+05
   4.707903e+05   1.031714e+05
   2.379546e+05   2.368351e+05
  -1.865729e+05   1.852978e+05
  -3.621912e+05   6.555366e+04
  -1.178490e+05  -9.913464e+03
   2.304375e+05   6.538986e+02
   2.390414e+05   8.834657e+04
  -1.331952e+05   1.750754e+05
  -4.708095e+05   1.146558e+05
