
 $NMID
 id='ANONYMOUS ', fmtdat='(2E16.6)'
 volume=1.0
 tramp=1.0
 $END
  -3.212981e+07  -2.012930e+06
  -1.904221e+07  -1.878483e+07
   3.607714e+06  -2.075895e+07
   1.530054e+07  -9.828702e+06
   1.017402e+07   1.978433e+06
  -9.474565e+05   5.396974e+06
  -5.957810e+06   7.169549e+05
  -2.857529e+06  -5.423359e+06
   2.829482e+06  -6.804896e+06
   5.794917e+06  -2.185568e+06
   4.393590e+06   4.078202e+06
   2.930588e+05   5.847424e+06
  -2.795096e+06   1.368353e+06
  -1.846238e+06  -4.405037e+06
   2.203274e+06  -5.005101e+06
   4.877614e+06   3.496237e+05
   2.917083e+06   6.215022e+06
  -2.210108e+06   7.236439e+06
  -6.169858e+06   3.250446e+06
  -6.169721e+06  -1.892862e+06
  -2.979668e+06  -4.657753e+06
   3.582198e+05  -4.309946e+06
   1.171691e+06  -2.579979e+06
  -5.226031e+05  -1.841546e+06
  -1.739082e+06  -2.879658e+06
   4.303533e+05  -3.938239e+06
   4.922470e+06  -2.674530e+06
   7.143528e+06   7.384442e+05
   4.289248e+06   3.460427e+06
  -9.759259e+05   3.262607e+06
  -3.536137e+06   8.927502e+05
  -1.657502e+06  -1.238988e+06
   1.746402e+06  -1.565173e+06
   3.121808e+06  -4.083619e+04
   1.796010e+06   2.291807e+06
  -4.691634e+05   3.529416e+06
  -1.765190e+06   2.097026e+06
  -1.374289e+06  -9.868649e+05
  -1.968251e+04  -2.290920e+06
   6.370608e+05  -1.057873e+05
  -4.018139e+05   2.656147e+06
  -1.966033e+06   1.904326e+06
  -1.713253e+06  -1.814071e+06
   8.547819e+05  -3.582776e+06
   3.239807e+06  -6.455511e+05
   2.590681e+06   3.807542e+06
  -9.910127e+05   4.715457e+06
  -4.449604e+06   1.232149e+06
  -4.787945e+06  -2.941466e+06
  -1.699891e+06  -4.198315e+06
   2.325546e+06  -2.259313e+06
   4.061349e+06   6.626570e+05
   2.228279e+06   2.241821e+06
  -1.229212e+06   1.572304e+06
  -2.887034e+06  -3.788501e+05
  -1.410274e+06  -1.562046e+06
   1.016456e+06  -8.560805e+05
   1.422123e+06   6.426402e+05
  -3.200112e+05   9.725010e+05
  -1.578076e+06  -2.296183e+05
  -4.499075e+05  -1.433821e+06
   1.976152e+06  -1.236051e+06
   3.089272e+06   2.861837e+05
   1.592027e+06   2.179106e+06
  -1.519974e+06   3.443546e+06
  -4.101245e+06   3.092354e+06
  -4.511166e+06   6.665598e+05
  -2.699589e+06  -2.639393e+06
  -2.216186e+05  -4.407472e+06
   1.098425e+06  -3.501231e+06
   9.049124e+05  -1.484934e+06
   4.925016e+05  -6.212037e+05
   1.050906e+06  -1.011129e+06
   2.166970e+06  -8.472847e+05
   2.454880e+06   7.387249e+05
   1.286289e+06   2.338380e+06
  -5.820867e+05   2.093728e+06
  -1.819273e+06  -3.833520e+03
  -1.516635e+06  -2.137884e+06
   2.720656e+05  -2.526793e+06
   2.371628e+06  -9.130143e+05
   3.101818e+06   1.429632e+06
   1.788255e+06   2.832057e+06
  -3.457105e+05   2.594743e+06
  -1.449206e+06   1.477958e+06
  -1.240177e+06   7.462536e+05
  -1.192822e+06   7.219570e+05
  -2.306873e+06   5.566920e+05
  -3.489534e+06  -5.443724e+05
  -2.822081e+06  -2.256828e+06
  -5.415115e+04  -3.436035e+06
   2.859495e+06  -3.169230e+06
   3.713473e+06  -1.453654e+06
   2.150370e+06   7.499570e+05
  -1.797475e+05   1.997092e+06
  -1.249186e+06   1.442669e+06
  -4.393868e+05  -1.651286e+05
   1.052032e+06  -1.014050e+06
   1.528230e+06  -2.373619e+05
   5.764479e+05   9.834892e+05
  -5.757303e+05   9.371351e+05
  -5.546918e+05  -2.945889e+05
   5.800856e+05  -8.727776e+05
   1.496501e+06   3.826569e+05
   1.087757e+06   2.409866e+06
  -5.323227e+05   3.119354e+06
  -2.320843e+06   1.686773e+06
  -3.131559e+06  -7.722805e+05
  -2.378149e+06  -2.467778e+06
  -4.853915e+05  -2.472090e+06
   1.187359e+06  -1.246635e+06
   1.416366e+06  -7.971135e+04
   4.187363e+05   5.286399e+04
  -2.936224e+05  -6.385623e+05
   3.059681e+05  -1.038810e+06
   1.470851e+06  -4.285776e+05
   1.621687e+06   6.571247e+05
   3.661134e+05   1.092981e+06
  -9.643570e+05   5.029284e+05
  -8.651535e+05  -3.853785e+05
   6.371176e+05  -6.215219e+05
   2.008777e+06   6.578153e+04
   1.763841e+06   1.177127e+06
  -9.065249e+04   1.875560e+06
  -2.029869e+06   1.522221e+06
  -2.400664e+06   2.206518e+05
  -9.870032e+05  -1.031696e+06
   7.651218e+05  -1.133501e+06
   1.190582e+06  -8.980929e+04
   6.729160e+04   8.488641e+05
  -1.277391e+06   5.610905e+05
  -1.452812e+06  -6.359178e+05
  -3.755825e+05  -1.393116e+06
   8.403974e+05  -9.319995e+05
   1.096108e+06   1.346834e+05
   3.069139e+05   6.139646e+05
  -6.007329e+05   5.088021e+04
  -5.665288e+05  -8.917945e+05
   5.590226e+05  -1.173484e+06
   1.734191e+06  -3.653131e+05
   1.681042e+06   9.677774e+05
   2.735922e+05   1.752362e+06
  -1.215045e+06   1.359533e+06
  -1.451583e+06   1.885592e+05
  -4.598795e+05  -7.211567e+05
   5.487624e+05  -7.026985e+05
   6.153226e+05  -4.627258e+04
  -4.225782e+04   4.338262e+05
  -5.247529e+05   3.067719e+05
  -3.185891e+05  -8.733700e+04
   2.636737e+05  -1.061084e+05
   4.857929e+05   4.317347e+05
  -9.603251e+04   9.772951e+05
  -1.157491e+06   7.605182e+05
  -1.763510e+06  -3.801242e+05
  -1.196098e+06  -1.683736e+06
   2.440847e+05  -2.093000e+06
   1.429013e+06  -1.269877e+06
   1.540651e+06   6.703985e+04
   8.672330e+05   8.746955e+05
   3.117528e+05   7.911456e+05
   2.893710e+05   3.436150e+05
   3.846192e+05   2.347040e+05
   3.629796e+04   5.628020e+05
  -7.229833e+05   7.753690e+05
  -1.272641e+06   3.235875e+05
  -9.894262e+05  -6.649129e+05
   1.738107e+05  -1.362280e+06
   1.509889e+06  -9.670380e+05
   1.963519e+06   4.394338e+05
   9.932138e+05   1.798959e+06
  -8.095584e+05   1.991040e+06
  -2.115674e+06   9.015731e+05
  -2.050747e+06  -4.972008e+05
  -9.551566e+05  -1.157869e+06
   1.030134e+05  -9.449874e+05
   4.415748e+05  -5.631494e+05
   2.692245e+05  -6.335020e+05
   2.144190e+05  -1.007006e+06
   5.770131e+05  -1.001253e+06
   1.058975e+06  -2.115232e+05
   1.092973e+06   9.718726e+05
   4.156234e+05   1.646376e+06
  -5.857867e+05   1.218014e+06
  -1.113833e+06  -9.285070e+03
  -6.960580e+05  -1.064766e+06
   2.805070e+05  -1.175461e+06
   9.005582e+05  -4.212455e+05
   6.605694e+05   4.563181e+05
  -2.292312e+04   8.249380e+05
  -3.370769e+05   6.723185e+05
  -2.367653e+04   4.099349e+05
   3.379364e+05   3.308206e+05
   2.499824e+04   3.437701e+05
  -9.402352e+05   1.688518e+05
  -1.690895e+06  -3.083901e+05
  -1.358513e+06  -8.798440e+05
  -1.669985e+04  -1.160563e+06
   1.289450e+06  -9.062081e+05
   1.538378e+06  -2.555660e+05
   7.312072e+05   3.272300e+05
  -1.935507e+05   4.258141e+05
  -4.069576e+05   6.270133e+04
   2.201313e+04  -2.939081e+05
   4.246783e+05  -1.908639e+05
   3.906808e+05   3.088569e+05
   1.143976e+05   6.544568e+05
  -9.656345e+03   4.222887e+05
   1.281129e+05  -1.367852e+05
   3.103102e+05  -3.188128e+05
   2.465779e+05   1.963907e+05
  -1.876353e+05   8.739088e+05
  -7.959704e+05   8.761793e+05
  -1.076915e+06   5.588801e+04
  -6.092500e+05  -8.141634e+05
   3.890898e+05  -8.890013e+05
   1.035201e+06  -1.738616e+05
   6.032947e+05   5.394173e+05
  -5.981456e+05   5.558167e+05
  -1.399887e+06  -7.473272e+04
  -9.547924e+05  -7.427598e+05
   3.575054e+05  -9.063710e+05
   1.322064e+06  -4.931842e+05
   1.131634e+06   1.314885e+05
   1.465624e+05   4.651605e+05
  -5.556714e+05   2.552238e+05
  -2.961981e+05  -2.382917e+05
   5.581264e+05  -3.963511e+05
   1.012580e+06   1.627858e+05
   4.744103e+05   1.071489e+06
  -6.439986e+05   1.426093e+06
  -1.350677e+06   6.706199e+05
  -1.062778e+06  -7.220613e+05
  -1.144155e+05  -1.578208e+06
   6.789909e+05  -1.145329e+06
   8.119847e+05   1.285186e+05
   3.939401e+05   1.038731e+06
  -1.501075e+05   8.717070e+05
  -4.700408e+05   8.529713e+04
  -4.432621e+05  -3.507325e+05
  -1.920856e+05  -1.394921e+05
  -2.397156e+04   9.748049e+04
  -1.577486e+05  -2.301775e+05
  -3.872381e+05  -8.391839e+05
  -2.005711e+05  -9.529627e+05
   5.586620e+05  -3.331764e+05
   1.280586e+06   4.469298e+05
   1.150186e+06   7.612629e+05
   1.484329e+05   5.996308e+05
  -8.058107e+05   3.363538e+05
  -8.798109e+05   1.513512e+05
  -2.676787e+05  -2.686867e+04
   1.532945e+05  -1.872232e+05
  -2.442431e+04  -2.054795e+05
  -2.926273e+05  -1.223023e+05
  -1.521303e+04  -1.220416e+05
   6.510638e+05  -1.627745e+05
   9.012030e+05   6.247781e+04
   2.607878e+05   6.076203e+05
  -8.294837e+05   9.598078e+05
  -1.459187e+06   5.540517e+05
  -1.135158e+06  -4.584740e+05
  -1.689024e+05  -1.241247e+06
   6.949315e+05  -1.147675e+06
   9.288873e+05  -3.909733e+05
   5.714714e+05   2.568720e+05
   7.802038e+04   3.154499e+05
  -1.172176e+05   2.162804e+04
   4.978052e+04  -5.213068e+04
   2.761529e+05   3.095945e+05
   2.122078e+05   7.082524e+05
  -1.906321e+05   5.712608e+05
  -6.004748e+05  -1.667447e+05
  -5.766630e+05  -8.904371e+05
  -2.217048e+03  -8.953591e+05
   6.984470e+05  -1.368587e+05
   8.578987e+05   7.113939e+05
   2.290025e+05   9.556636e+05
  -6.523730e+05   5.231664e+05
  -9.412298e+05  -1.196309e+05
  -4.072573e+05  -5.127780e+05
   2.702349e+05  -5.282199e+05
   2.966913e+05  -2.924809e+05
  -2.648395e+05  -3.319676e+04
  -5.783772e+05   4.801461e+03
  -9.920982e+04  -2.633400e+05
   7.387206e+05  -5.681985e+05
   1.066607e+06  -4.618012e+05
   6.041951e+05   1.428635e+05
  -1.181993e+05   7.314804e+05
  -4.656530e+05   7.019279e+05
  -3.273171e+05   8.814352e+04
  -5.357304e+03  -4.390562e+05
   2.328279e+05  -3.435013e+05
   3.053952e+05   1.830157e+05
   1.940288e+05   5.115751e+05
  -7.399617e+04   3.295343e+05
  -3.367560e+05  -7.131231e+04
  -3.862944e+05  -2.299032e+05
  -2.053130e+05  -6.460759e+04
   9.424090e+02   9.823236e+04
   6.612279e+04  -3.046356e+04
   6.090991e+04  -3.381759e+05
   1.503771e+05  -4.319414e+05
   3.156677e+05  -1.005474e+05
   3.293404e+05   3.994660e+05
   3.696792e+04   5.781285e+05
  -3.882395e+05   2.384843e+05
  -5.393253e+05  -2.957043e+05
  -1.791218e+05  -5.250086e+05
   4.402635e+05  -2.925818e+05
   7.385290e+05   1.168029e+05
   3.897984e+05   3.459981e+05
  -2.704253e+05   3.047226e+05
  -5.528159e+05   1.354330e+05
  -1.844954e+05  -1.416121e+03
   3.518677e+05  -1.507517e+04
   3.725686e+05   1.165472e+05
  -1.930950e+05   2.776403e+05
  -7.179036e+05   2.114081e+05
