
 $NMID
 id='ANONYMOUS ', fmtdat='(2E16.6)'
 volume=1.0
 tramp=1.0
 $END
  -4.355060e+07   3.061674e+06
  -2.914954e+07  -2.344772e+07
   2.029915e+06  -2.958390e+07
   2.011431e+07  -1.486878e+07
   1.426750e+07   2.627748e+06
  -1.084943e+06   7.714122e+06
  -8.209018e+06   9.133435e+05
  -3.976937e+06  -7.424401e+06
   3.700277e+06  -9.020934e+06
   7.708129e+06  -3.124161e+06
   6.193578e+06   4.724242e+06
   1.082827e+06   7.334543e+06
  -3.257286e+06   2.240786e+06
  -2.591169e+06  -5.076024e+06
   2.602542e+06  -6.385847e+06
   6.590508e+06   1.221193e+05
   4.541285e+06   7.930663e+06
  -2.079842e+06   9.875399e+06
  -7.674000e+06   5.279128e+06
  -8.483323e+06  -1.269087e+06
  -5.095168e+06  -5.473170e+06
  -7.483149e+05  -6.084578e+06
   1.268808e+06  -4.334613e+06
   3.037666e+04  -2.696774e+06
  -1.682097e+06  -3.018360e+06
   1.123891e+05  -4.362550e+06
   5.295624e+06  -3.750850e+06
   8.610453e+06  -1.710367e+05
   5.885166e+06   3.527467e+06
  -3.081784e+05   4.061101e+06
  -3.706998e+06   1.673034e+06
  -1.950471e+06  -7.888216e+05
   1.622024e+06  -1.397873e+06
   3.121110e+06  -1.427983e+05
   2.054614e+06   2.154355e+06
   1.953126e+04   3.889249e+06
  -1.644810e+06   2.969584e+06
  -2.033697e+06  -4.751065e+05
  -8.565894e+05  -2.729224e+06
   4.647939e+05  -7.615599e+05
  -1.620667e+05   2.782692e+06
  -2.240361e+06   2.381361e+06
  -2.416004e+06  -2.318623e+06
   9.797232e+05  -5.107059e+06
   4.764840e+06  -1.510456e+06
   4.314759e+06   4.809763e+06
  -6.862756e+05   6.687475e+06
  -5.724295e+06   2.350047e+06
  -6.363557e+06  -3.312142e+06
  -2.338517e+06  -5.218077e+06
   2.843325e+06  -2.907959e+06
   5.075287e+06   7.321507e+05
   2.801369e+06   2.823492e+06
  -1.625013e+06   2.178179e+06
  -3.856371e+06  -2.699765e+05
  -1.973008e+06  -2.003737e+06
   1.262100e+06  -1.261345e+06
   1.767181e+06   7.571588e+05
  -6.726140e+05   1.232681e+06
  -2.303388e+06  -5.783384e+05
  -5.024340e+05  -2.419657e+06
   2.942735e+06  -2.067852e+06
   4.350920e+06   2.442001e+05
   2.353950e+06   2.867634e+06
  -1.410675e+06   4.523633e+06
  -4.513138e+06   4.274449e+06
  -5.395587e+06   1.483201e+06
  -3.781953e+06  -2.744930e+06
  -8.794387e+05  -5.375949e+06
   1.186285e+06  -4.471368e+06
   1.296855e+06  -1.726471e+06
   5.622250e+05  -3.631938e+05
   7.913307e+05  -9.730070e+05
   2.056701e+06  -1.225366e+06
   2.720479e+06   3.764344e+05
   1.678598e+06   2.320200e+06
  -3.828992e+05   2.271665e+06
  -1.907909e+06   7.207603e+04
  -1.792926e+06  -2.298154e+06
   7.987715e+04  -2.917770e+06
   2.634223e+06  -1.390296e+06
   3.913417e+06   1.215451e+06
   2.691485e+06   3.191095e+06
   4.446048e+04   3.395457e+06
  -1.655001e+06   2.229139e+06
  -1.631120e+06   1.152397e+06
  -1.530991e+06   9.254067e+05
  -2.783405e+06   7.570456e+05
  -4.229358e+06  -4.514700e+05
  -3.511429e+06  -2.509101e+06
  -2.862456e+05  -4.052869e+06
   3.107866e+06  -3.912792e+06
   4.154190e+06  -2.017483e+06
   2.537258e+06   5.889479e+05
   4.329060e+04   2.240927e+06
  -1.227653e+06   1.784777e+06
  -5.161399e+05  -1.093476e+05
   1.112577e+06  -1.265364e+06
   1.802062e+06  -4.204988e+05
   8.216983e+05   1.102316e+06
  -5.702942e+05   1.112070e+06
  -5.998924e+05  -3.670507e+05
   8.177628e+05  -1.008741e+06
   1.948315e+06   6.362084e+05
   1.300255e+06   3.097232e+06
  -8.256335e+05   3.764840e+06
  -2.917338e+06   1.879709e+06
  -3.683194e+06  -9.814739e+05
  -2.729238e+06  -2.809796e+06
  -6.162972e+05  -2.798980e+06
   1.276339e+06  -1.504751e+06
   1.610137e+06  -2.021888e+05
   4.930917e+05   3.389122e+04
  -3.849773e+05  -7.340407e+05
   3.027469e+05  -1.289530e+06
   1.757416e+06  -6.392689e+05
   2.007566e+06   7.047756e+05
   4.961703e+05   1.320245e+06
  -1.124967e+06   6.438156e+05
  -9.955706e+05  -4.290598e+05
   7.860817e+05  -7.095164e+05
   2.345578e+06   8.363169e+04
   2.020638e+06   1.335836e+06
  -9.407661e+04   2.154858e+06
  -2.303032e+06   1.841271e+06
  -2.795314e+06   3.860007e+05
  -1.246424e+06  -1.170607e+06
   8.185010e+05  -1.438639e+06
   1.439342e+06  -2.261447e+05
   1.816819e+05   1.004796e+06
  -1.466526e+06   7.595534e+05
  -1.754881e+06  -6.810155e+05
  -4.830428e+05  -1.643422e+06
   9.966061e+05  -1.118442e+06
   1.313272e+06   1.594845e+05
   3.638549e+05   7.475092e+05
  -7.379090e+05   1.059409e+05
  -7.417203e+05  -1.009730e+06
   5.584011e+05  -1.414893e+06
   1.992928e+06  -5.594371e+05
   2.039073e+06   1.007812e+06
   4.416473e+05   2.044381e+06
  -1.354802e+06   1.685091e+06
  -1.709146e+06   2.994530e+05
  -5.704530e+05  -8.391104e+05
   6.175544e+05  -8.517713e+05
   6.868252e+05  -8.038908e+04
  -7.606848e+04   4.718073e+05
  -5.825119e+05   3.144052e+05
  -2.839546e+05  -1.148108e+05
   3.879833e+05  -9.051396e+04
   6.039798e+05   5.500912e+05
  -8.767851e+04   1.185736e+06
  -1.330093e+06   9.622364e+05
  -2.095427e+06  -3.396061e+05
  -1.514869e+06  -1.896138e+06
   1.561902e+05  -2.452619e+06
   1.605349e+06  -1.533040e+06
   1.782852e+06   3.365278e+04
   9.882372e+05   9.639131e+05
   3.451070e+05   8.239498e+05
   3.770829e+05   3.000057e+05
   5.344393e+05   2.395206e+05
   1.076024e+05   6.894127e+05
  -8.211298e+05   9.526760e+05
  -1.473770e+06   4.213610e+05
  -1.150183e+06  -7.279038e+05
   1.720417e+05  -1.570678e+06
   1.718289e+06  -1.188055e+06
   2.309158e+06   4.103348e+05
   1.252012e+06   2.066139e+06
  -8.631703e+05   2.407823e+06
  -2.468516e+06   1.174909e+06
  -2.433604e+06  -5.126339e+05
  -1.123453e+06  -1.332919e+06
   1.291979e+05  -1.073654e+06
   4.688745e+05  -6.104267e+05
   1.958131e+05  -7.233268e+05
   1.238433e+05  -1.216768e+06
   6.038884e+05  -1.249276e+06
   1.241603e+06  -3.398294e+05
   1.348371e+06   1.054249e+06
   5.961990e+05   1.890397e+06
  -5.991346e+05   1.456910e+06
  -1.302462e+06   4.822946e+04
  -8.805374e+05  -1.229217e+06
   2.866629e+05  -1.415234e+06
   1.091018e+06  -5.299677e+05
   8.425878e+05   5.542558e+05
   6.359813e+02   1.027634e+06
  -4.130353e+05   8.310443e+05
  -3.783332e+04   4.700486e+05
   4.198956e+05   3.458673e+05
   5.556086e+04   3.907097e+05
  -1.112152e+06   2.612155e+05
  -2.030547e+06  -2.480667e+05
  -1.655480e+06  -9.604821e+05
  -7.348772e+04  -1.401803e+06
   1.483814e+06  -1.177182e+06
   1.810777e+06  -3.796664e+05
   8.883963e+05   3.905328e+05
  -2.054687e+05   5.428282e+05
  -4.950545e+05   8.690054e+04
  -2.378605e+04  -3.653094e+05
   4.632106e+05  -2.505938e+05
   4.815095e+05   3.309106e+05
   2.062767e+05   7.266996e+05
   4.840110e+04   4.727763e+05
   1.501291e+05  -1.411815e+05
   3.309030e+05  -3.467652e+05
   2.959331e+05   2.210512e+05
  -1.512829e+05   1.010410e+06
  -8.701052e+05   1.082406e+06
  -1.282177e+06   1.823572e+05
  -8.054774e+05  -8.859337e+05
   3.774024e+05  -1.096438e+06
   1.201819e+06  -3.185971e+05
   7.385086e+05   5.751684e+05
  -6.752801e+05   6.851471e+05
  -1.633261e+06  -2.599142e+04
  -1.118872e+06  -8.410193e+05
   4.106831e+05  -1.069566e+06
   1.528507e+06  -6.035669e+05
   1.309968e+06   1.256580e+05
   1.771701e+05   5.346780e+05
  -6.454378e+05   3.181523e+05
  -3.786395e+05  -2.637457e+05
   5.980796e+05  -5.067178e+05
   1.179298e+06   9.425594e+04
   6.484779e+05   1.184949e+06
  -6.093340e+05   1.695956e+06
  -1.495808e+06   8.844610e+05
  -1.278363e+06  -7.551013e+05
  -2.368898e+05  -1.816462e+06
   7.247878e+05  -1.355957e+06
   9.577393e+05   1.233417e+05
   5.025721e+05   1.198138e+06
  -1.582213e+05   1.021931e+06
  -5.569994e+05   1.212544e+05
  -5.125802e+05  -3.859395e+05
  -2.032237e+05  -1.551285e+05
  -3.524946e+04   1.122422e+05
  -2.428337e+05  -2.551671e+05
  -5.214235e+05  -9.502692e+05
  -2.614186e+05  -1.104909e+06
   6.649637e+05  -4.360822e+05
   1.510964e+06   4.383352e+05
   1.356929e+06   8.254742e+05
   2.109644e+05   6.949290e+05
  -8.877870e+05   4.326105e+05
  -1.007935e+06   2.184202e+05
  -3.416543e+05  -1.733266e+04
   1.546065e+05  -2.249045e+05
  -4.611065e+03  -2.382225e+05
  -3.075517e+05  -1.226179e+05
  -3.703623e+04  -1.320976e+05
   7.048427e+05  -2.267709e+05
   1.049313e+06  -8.305453e+02
   3.932283e+05   6.675922e+05
  -8.567085e+05   1.174005e+06
  -1.664050e+06   7.787587e+05
  -1.378361e+06  -4.144148e+05
  -2.917254e+05  -1.416766e+06
   7.293495e+05  -1.395506e+06
   1.039875e+06  -5.401552e+05
   6.671846e+05   2.433272e+05
   1.263209e+05   3.538155e+05
  -9.767997e+04   3.683622e+04
   7.567981e+04  -4.852854e+04
   3.328967e+05   3.573896e+05
   2.835008e+05   8.142922e+05
  -1.711460e+05   6.795559e+05
  -6.911099e+05  -1.337046e+05
  -7.391462e+05  -9.619980e+05
  -1.014584e+05  -1.023471e+06
   7.664102e+05  -2.273395e+05
   1.040767e+06   7.317560e+05
   3.543357e+05   1.083045e+06
  -7.023672e+05   6.728015e+05
  -1.110312e+06  -5.473847e+04
  -5.371799e+05  -5.765037e+05
   2.628162e+05  -6.600700e+05
   3.439125e+05  -3.803337e+05
  -2.773232e+05  -2.402564e+04
  -6.611562e+05   4.740801e+04
  -1.460543e+05  -2.984160e+05
   8.184865e+05  -7.082535e+05
   1.238443e+06  -6.045296e+05
   7.494440e+05   1.287269e+05
  -7.638237e+04   8.663426e+05
  -5.071160e+05   8.715942e+05
  -3.891879e+05   1.598957e+05
  -4.583233e+04  -4.899594e+05
   2.321261e+05  -4.268575e+05
   3.526086e+05   1.672795e+05
   2.652817e+05   5.762227e+05
  -4.327481e+04   4.057734e+05
  -3.908535e+05  -4.719018e+04
  -4.823934e+05  -2.506861e+05
  -2.514198e+05  -7.492217e+04
   3.085200e+04   1.258777e+05
   9.666547e+04  -1.396962e+03
   2.137909e+04  -3.624288e+05
   8.080071e+04  -5.116555e+05
   3.188905e+05  -1.749521e+05
   4.268802e+05   3.925267e+05
   1.256848e+05   6.397697e+05
  -4.136605e+05   3.099480e+05
  -6.540010e+05  -2.781598e+05
  -2.530623e+05  -5.787637e+05
   4.942015e+05  -3.791184e+05
   8.729581e+05   6.223648e+04
   4.841493e+05   3.678182e+05
  -2.808678e+05   3.912808e+05
  -6.248626e+05   2.236110e+05
  -2.307955e+05   2.650863e+04
   3.691206e+05  -4.793638e+04
   4.146833e+05   8.641705e+04
  -1.906917e+05   3.075379e+05
  -7.801419e+05   2.787545e+05
