
 $NMID
 id='ANONYMOUS ', fmtdat='(2E16.6)'
 volume=1.0
 tramp=1.0
 $END
   1.990710e+07  -8.797882e+05
   1.411141e+07   8.191472e+06
   1.125127e+06   1.253167e+07
  -8.103774e+06   9.493885e+06
  -7.629532e+06   1.830831e+06
  -9.627239e+05  -3.696510e+06
   4.174231e+06  -2.472034e+06
   3.682990e+06   3.077947e+06
  -4.764265e+05   6.096187e+06
  -3.772176e+06   3.027060e+06
  -3.537479e+06  -2.562118e+06
  -5.992817e+05  -4.460586e+06
   2.025356e+06  -9.302942e+05
   1.816573e+06   3.794373e+06
  -9.990893e+05   4.580238e+06
  -3.508512e+06   7.224249e+05
  -2.891166e+06  -3.931964e+06
   5.988108e+05  -5.246355e+06
   3.793198e+06  -2.615115e+06
   3.959308e+06   1.089442e+06
   1.616612e+06   2.760734e+06
  -2.977732e+05   2.012149e+06
   1.971602e+05   1.000890e+06
   2.001994e+06   1.619262e+06
   2.224670e+06   3.309645e+06
  -5.698508e+05   3.881438e+06
  -4.493499e+06   2.139578e+06
  -5.911915e+06  -7.960713e+05
  -3.175696e+06  -2.704895e+06
   1.319482e+06  -2.324682e+06
   3.332532e+06  -2.253844e+05
   1.217071e+06   1.782249e+06
  -2.378445e+06   1.938553e+06
  -3.616665e+06  -1.035227e+05
  -1.677825e+06  -2.680409e+06
   8.759705e+05  -3.328067e+06
   1.516181e+06  -1.308417e+06
   3.846287e+05   1.243994e+06
  -6.408960e+05   1.473740e+06
  -4.081459e+05  -8.227122e+05
   6.833533e+05  -2.789064e+06
   1.609385e+06  -1.895068e+06
   1.591230e+06   9.568961e+05
   4.021455e+05   2.497716e+06
  -1.261430e+06   9.838972e+05
  -1.798567e+06  -1.856075e+06
  -9.051518e+04  -2.930991e+06
   2.789876e+06  -1.149247e+06
   4.055144e+06   1.740681e+06
   2.070835e+06   3.212893e+06
  -1.598274e+06   2.311563e+06
  -3.639009e+06   1.243737e+05
  -2.420668e+06  -1.485356e+06
   4.775270e+05  -1.454714e+06
   2.151722e+06  -2.163621e+05
   1.350276e+06   8.512302e+05
  -5.712006e+05   7.233004e+05
  -1.359254e+06  -3.428933e+05
  -2.603359e+05  -1.134783e+06
   1.285871e+06  -7.532150e+05
   1.295056e+06   4.638547e+05
  -4.740789e+05   1.260857e+06
  -2.093581e+06   6.550102e+05
  -1.529104e+06  -1.114429e+06
   1.046768e+06  -2.665585e+06
   3.385000e+06  -2.545759e+06
   3.587073e+06  -5.112978e+05
   1.953627e+06   2.105214e+06
   2.484025e+05   3.493469e+06
  -4.024208e+05   3.038828e+06
  -4.049455e+05   1.792106e+06
  -7.234723e+05   1.104198e+06
  -1.601938e+06   1.015650e+06
  -2.389624e+06   4.337105e+05
  -2.274736e+06  -1.111367e+06
  -1.013294e+06  -2.473352e+06
   7.997037e+05  -2.092904e+06
   1.985920e+06   3.754863e+04
   1.580755e+06   2.119787e+06
  -2.461519e+05   2.356401e+06
  -2.096307e+06   7.055734e+05
  -2.498372e+06  -1.292861e+06
  -1.304131e+06  -2.170315e+06
   2.258259e+05  -1.769870e+06
   8.427892e+05  -1.002622e+06
   6.568865e+05  -7.132165e+05
   8.370959e+05  -8.862682e+05
   1.991639e+06  -8.021348e+05
   3.156219e+06   1.595945e+05
   2.704445e+06   1.808559e+06
   2.768550e+05   3.129160e+06
  -2.484984e+06   3.041927e+06
  -3.402155e+06   1.381422e+06
  -1.937091e+06  -7.751335e+05
   2.942930e+05  -1.881381e+06
   1.229832e+06  -1.266070e+06
   3.792895e+05   2.026429e+05
  -9.696933e+05   9.399814e+05
  -1.326830e+06   2.783090e+05
  -4.782076e+05  -8.190877e+05
   5.495844e+05  -8.894500e+05
   6.625271e+05   2.282088e+05
  -2.916422e+05   1.067543e+06
  -1.439007e+06   2.253655e+05
  -1.595535e+06  -1.852309e+06
  -2.461006e+05  -3.160527e+06
   1.878970e+06  -2.253024e+06
   3.214889e+06   2.203801e+05
   2.662905e+06   2.233772e+06
   6.728982e+05   2.427762e+06
  -1.091472e+06   1.230100e+06
  -1.340931e+06   9.790777e+04
  -3.896169e+05  -2.629850e+04
   3.130149e+05   5.664470e+05
  -1.627486e+05   9.224701e+05
  -1.221382e+06   4.833221e+05
  -1.489849e+06  -4.079533e+05
  -4.598837e+05  -9.135515e+05
   8.338363e+05  -5.538868e+05
   9.020686e+05   3.008656e+05
  -5.050912e+05   7.518707e+05
  -1.988124e+06   2.128767e+05
  -1.904924e+06  -1.000344e+06
  -1.177972e+05  -1.887484e+06
   1.817787e+06  -1.632449e+06
   2.229302e+06  -3.752661e+05
   9.645073e+05   8.432222e+05
  -5.933500e+05   1.012544e+06
  -9.950185e+05   1.418314e+05
  -6.601404e+04  -7.210326e+05
   1.121716e+06  -5.741969e+05
   1.389171e+06   4.555006e+05
   5.154483e+05   1.260506e+06
  -6.570560e+05   1.004530e+06
  -1.056576e+06   4.518269e+04
  -4.031202e+05  -5.208014e+05
   4.998219e+05  -1.053632e+05
   5.521501e+05   7.702914e+05
  -4.683398e+05   1.093398e+06
  -1.580552e+06   4.026899e+05
  -1.584568e+06  -8.092856e+05
  -3.533787e+05  -1.583209e+06
   1.006530e+06  -1.325217e+06
   1.316260e+06  -2.949658e+05
   5.050020e+05   6.224825e+05
  -4.470346e+05   7.062808e+05
  -6.147151e+05   6.868547e+04
  -1.962777e+04  -4.972148e+05
   5.485097e+05  -3.994600e+05
   4.428097e+05   1.023936e+05
  -1.756714e+05   2.484346e+05
  -5.294821e+05  -2.717029e+05
  -4.491925e+04  -8.978013e+05
   9.980095e+05  -7.937135e+05
   1.650552e+06   2.330039e+05
   1.197348e+06   1.478168e+06
  -1.087998e+05   1.968557e+06
  -1.268117e+06   1.323783e+06
  -1.504053e+06   7.222609e+04
  -9.494665e+05  -8.339076e+05
  -3.497606e+05  -8.728510e+05
  -1.962822e+05  -3.882347e+05
  -2.761897e+05  -1.480966e+05
  -5.934534e+04  -4.530175e+05
   5.939419e+05  -7.812117e+05
   1.184384e+06  -4.250653e+05
   1.025767e+06   5.837242e+05
  -4.285100e+04   1.359334e+06
  -1.357838e+06   1.042550e+06
  -1.880249e+06  -2.795822e+05
  -1.075267e+06  -1.597654e+06
   5.578373e+05  -1.893875e+06
   1.856139e+06  -1.019010e+06
   1.976128e+06   2.633687e+05
   1.067180e+06   1.026127e+06
   1.063008e+04   9.860209e+05
  -4.554440e+05   6.297293e+05
  -3.376701e+05   5.771841e+05
  -1.946835e+05   8.604304e+05
  -4.494516e+05   9.040095e+05
  -9.268010e+05   2.411219e+05
  -1.047582e+06  -8.449190e+05
  -4.667084e+05  -1.506284e+06
   4.860646e+05  -1.160639e+06
   1.043022e+06  -6.981550e+04
   7.321488e+05   9.122935e+05
  -1.315105e+05   1.105785e+06
  -7.480665e+05   5.218825e+05
  -6.419072e+05  -2.730562e+05
  -1.096082e+05  -7.120505e+05
   1.783221e+05  -6.665171e+05
  -3.653938e+04  -4.251541e+05
  -3.109678e+05  -3.072107e+05
  -2.940095e+04  -3.247668e+05
   8.290715e+05  -2.261484e+05
   1.538690e+06   1.646789e+05
   1.311452e+06   7.047523e+05
   1.461202e+05   1.035413e+06
  -1.070505e+06   8.998667e+05
  -1.390468e+06   3.706504e+05
  -7.275366e+05  -1.839305e+05
   1.191185e+05  -3.713387e+05
   3.556242e+05  -1.164303e+05
  -2.352197e+04   2.224333e+05
  -4.076701e+05   1.826046e+05
  -3.689265e+05  -2.656691e+05
  -7.956904e+04  -6.110277e+05
   4.285341e+04  -3.898502e+05
  -1.227098e+05   1.744731e+05
  -3.221287e+05   3.589482e+05
  -2.517703e+05  -1.629385e+05
   1.581831e+05  -8.378333e+05
   6.859833e+05  -8.447568e+05
   9.204804e+05  -7.814701e+04
   5.380351e+05   7.165155e+05
  -3.067583e+05   7.889150e+05
  -9.034339e+05   1.630750e+05
  -5.767844e+05  -4.865661e+05
   5.105723e+05  -5.624401e+05
   1.334685e+06  -3.828431e+04
   1.010178e+06   6.305425e+05
  -2.286155e+05   9.189445e+05
  -1.227833e+06   6.148282e+05
  -1.119535e+06  -2.136709e+04
  -1.916796e+05  -4.425944e+05
   4.988108e+05  -2.978131e+05
   2.708056e+05   1.840894e+05
  -5.229094e+05   3.650084e+05
  -9.385253e+05  -1.433893e+05
  -4.381496e+05  -9.888820e+05
   5.888887e+05  -1.328065e+06
   1.249460e+06  -6.469154e+05
   1.020140e+06   6.422263e+05
   1.755692e+05   1.479058e+06
  -5.806613e+05   1.135438e+06
  -7.805254e+05  -4.184922e+04
  -4.617869e+05  -9.494378e+05
   4.804189e+04  -8.571691e+05
   4.220341e+05  -1.274611e+05
   4.684114e+05   3.182488e+05
   2.264053e+05   1.388334e+05
   3.085896e+03  -1.071311e+05
   1.029979e+05   1.713879e+05
   3.833675e+05   7.495085e+05
   2.848250e+05   8.958532e+05
  -4.488015e+05   3.558553e+05
  -1.227628e+06  -3.558677e+05
  -1.160897e+06  -6.592849e+05
  -1.758981e+05  -5.434648e+05
   7.771890e+05  -3.444137e+05
   8.321314e+05  -1.992199e+05
   2.192685e+05  -1.728828e+04
  -1.498500e+05   1.759556e+05
   7.902692e+04   2.211673e+05
   3.281002e+05   1.347308e+05
  -9.722485e+02   1.140036e+05
  -6.537777e+05   1.551012e+05
  -8.344053e+05  -3.292818e+04
  -1.939839e+05  -5.370971e+05
   7.768797e+05  -8.936956e+05
   1.295200e+06  -5.455642e+05
   1.009041e+06   4.001826e+05
   1.893940e+05   1.155750e+06
  -5.815137e+05   1.083180e+06
  -8.431551e+05   3.686576e+05
  -5.475986e+05  -2.447321e+05
  -6.372607e+04  -2.870105e+05
   1.499403e+05   1.066860e+04
  -3.119306e+04   8.790852e+04
  -2.966100e+05  -2.633162e+05
  -2.490909e+05  -6.524537e+05
   1.626397e+05  -5.276652e+05
   5.723798e+05   1.661508e+05
   5.393814e+05   8.359076e+05
  -1.692675e+04   8.216190e+05
  -6.698768e+05   1.038443e+05
  -8.061057e+05  -6.709658e+05
  -2.192018e+05  -8.738800e+05
   5.901262e+05  -4.753390e+05
   8.544744e+05   8.508799e+04
   3.749442e+05   4.235970e+05
  -2.217794e+05   4.575268e+05
  -2.222326e+05   2.778733e+05
   2.907944e+05   4.244790e+04
   5.491191e+05  -1.920327e+04
   8.826565e+04   2.306315e+05
  -6.650758e+05   5.650466e+05
  -9.389151e+05   5.112322e+05
  -5.268576e+05  -6.816131e+04
   8.266318e+04  -6.669984e+05
   3.636005e+05  -6.575981e+05
   2.525480e+05  -6.722509e+04
  -3.504400e+03   4.243950e+05
  -2.090027e+05   3.033724e+05
  -2.896581e+05  -1.987632e+05
  -1.940051e+05  -4.692278e+05
   6.300662e+04  -2.712983e+05
   3.124354e+05   7.085523e+04
   3.571105e+05   1.689749e+05
   1.957650e+05   2.664391e+04
   1.247038e+04  -5.735493e+04
  -6.655581e+04   9.693909e+04
  -1.027994e+05   3.372558e+05
  -1.988260e+05   3.545259e+05
  -3.078004e+05   2.858513e+04
  -2.623748e+05  -4.019777e+05
   1.674411e+04  -5.353215e+05
   3.708015e+05  -2.140911e+05
   4.825983e+05   2.791354e+05
   1.636042e+05   4.959329e+05
  -3.855080e+05   2.838876e+05
  -6.649725e+05  -9.690275e+04
  -3.631377e+05  -3.069572e+05
   2.369695e+05  -2.626761e+05
   4.941119e+05  -1.098699e+05
   1.387011e+05  -2.244449e+03
  -3.684780e+05  -1.069225e+04
  -3.638822e+05  -1.424400e+05
   2.091065e+05  -2.891076e+05
   7.204484e+05  -2.152689e+05
