
 $NMID
 id='ANONYMOUS ', fmtdat='(2E16.6)'
 volume=1.0
 tramp=1.0
 $END
   1.188889e+07   1.716526e+06
   7.006875e+06   6.502700e+06
  -1.079248e+06   7.351432e+06
  -5.684576e+06   4.369382e+06
  -4.309867e+06   5.452540e+04
  -2.684990e+04  -2.274678e+06
   2.586717e+06  -1.010894e+06
   1.773716e+06   2.087608e+06
  -7.980945e+05   3.413180e+06
  -2.435358e+06   1.332828e+06
  -1.862087e+06  -1.913706e+06
   7.402043e+04  -2.761281e+06
   1.417568e+06  -4.213033e+05
   8.986949e+05   2.350747e+06
  -8.857575e+05   2.526823e+06
  -2.024805e+06   3.851259e+04
  -1.199229e+06  -2.532008e+06
   9.610649e+05  -2.864850e+06
   2.526579e+06  -1.000394e+06
   2.224922e+06   1.166428e+06
   6.346025e+05   1.936722e+06
  -5.345250e+05   1.283393e+06
  -2.331373e+05   5.525458e+05
   8.666629e+05   8.605220e+05
   1.075616e+06   1.855315e+06
  -4.784392e+05   2.167054e+06
  -2.704738e+06   1.030244e+06
  -3.450843e+06  -8.084836e+05
  -1.762394e+06  -1.886479e+06
   8.987887e+05  -1.472894e+06
   2.037274e+06  -9.781225e+04
   7.534659e+05   1.054121e+06
  -1.347789e+06   1.044570e+06
  -2.023498e+06  -1.836600e+05
  -8.157463e+05  -1.635290e+06
   7.390985e+05  -1.927367e+06
   1.085465e+06  -6.659155e+05
   2.770913e+05   8.683311e+05
  -4.612878e+05   9.700850e+05
  -2.943435e+05  -4.344106e+05
   4.839627e+05  -1.563075e+06
   1.024564e+06  -9.415779e+05
   8.004081e+05   7.250113e+05
  -5.037548e+04   1.424325e+06
  -8.624251e+05   3.187830e+05
  -8.447268e+05  -1.314677e+06
   2.706580e+05  -1.672137e+06
   1.726081e+06  -3.911941e+05
   2.155960e+06   1.291425e+06
   9.072491e+05   1.944145e+06
  -1.081132e+06   1.189226e+06
  -2.054022e+06  -1.956370e+05
  -1.218012e+06  -1.060373e+06
   4.504956e+05  -8.260148e+05
   1.292360e+06   7.993482e+04
   6.966873e+05   6.752352e+05
  -4.203562e+05   4.111004e+05
  -7.642126e+05  -3.082820e+05
  -6.385179e+04  -6.494705e+05
   7.412611e+05  -2.794276e+05
   6.104472e+05   3.573315e+05
  -4.151299e+05   5.792430e+05
  -1.199296e+06   1.008143e+05
  -7.058029e+05  -7.867759e+05
   8.462251e+05  -1.421823e+06
   2.142224e+06  -1.183837e+06
   2.113839e+06  -5.338525e+03
   9.796155e+05   1.401947e+06
  -1.454462e+05   2.062937e+06
  -5.117385e+05   1.675347e+06
  -3.723407e+05   8.953346e+05
  -4.182458e+05   5.147132e+05
  -8.833983e+05   5.083170e+05
  -1.351371e+06   1.934733e+05
  -1.273325e+06  -6.965956e+05
  -5.112564e+05  -1.464545e+06
   5.274765e+05  -1.201214e+06
   1.140476e+06   7.149419e+04
   8.209091e+05   1.279169e+06
  -2.644207e+05   1.358341e+06
  -1.274311e+06   2.998421e+05
  -1.383712e+06  -9.291520e+05
  -5.836508e+05  -1.396753e+06
   3.243505e+05  -1.029811e+06
   6.219987e+05  -4.726869e+05
   4.451400e+05  -2.865072e+05
   5.129109e+05  -4.000538e+05
   1.141279e+06  -3.118170e+05
   1.733943e+06   2.943895e+05
   1.388820e+06   1.188548e+06
  -3.183776e+04   1.772308e+06
  -1.570585e+06   1.561667e+06
  -2.016751e+06   5.875557e+05
  -1.094604e+06  -5.514721e+05
   2.496729e+05  -1.079678e+06
   7.966868e+05  -6.858825e+05
   2.472579e+05   1.340693e+05
  -5.991579e+05   5.083088e+05
  -8.009129e+05   9.581830e+04
  -2.467235e+05  -5.218411e+05
   3.711495e+05  -5.210747e+05
   3.868857e+05   1.339886e+05
  -1.897107e+05   5.759302e+05
  -7.676184e+05   5.462429e+04
  -7.345793e+05  -1.097268e+06
   5.452381e+04  -1.732003e+06
   1.140515e+06  -1.107796e+06
   1.740144e+06   3.220952e+05
   1.349528e+06   1.393656e+06
   2.437635e+05   1.388756e+06
  -6.895737e+05   6.235594e+05
  -7.761419e+05  -2.861972e+04
  -2.216483e+05  -4.704677e+04
   1.552820e+05   3.346063e+05
  -1.381964e+05   5.186247e+05
  -7.268502e+05   2.105904e+05
  -8.378358e+05  -3.182933e+05
  -2.279984e+05  -5.605113e+05
   4.932169e+05  -2.994802e+05
   5.112639e+05   1.832172e+05
  -2.781924e+05   3.797007e+05
  -1.084314e+06   2.801944e+04
  -1.004067e+06  -6.338537e+05
   2.188762e+04  -1.047573e+06
   1.102087e+06  -8.142621e+05
   1.282714e+06  -7.967095e+04
   4.998567e+05   5.494038e+05
  -4.084919e+05   5.527394e+05
  -5.944683e+05   1.746382e+04
  -8.255241e+03  -4.299420e+05
   6.691929e+05  -2.739793e+05
   7.658112e+05   3.339445e+05
   2.253831e+05   7.460774e+05
  -4.257841e+05   5.405231e+05
  -6.085902e+05  -2.291528e+04
  -2.211682e+05  -3.186679e+05
   2.684354e+05  -5.426782e+04
   2.713186e+05   4.358246e+05
  -3.035935e+05   5.750858e+05
  -8.941760e+05   1.400198e+05
  -8.409324e+05  -5.409042e+05
  -1.072598e+05  -9.129310e+05
   6.513634e+05  -6.894834e+05
   7.742951e+05  -8.344085e+04
   2.644515e+05   3.949571e+05
  -2.880363e+05   3.936251e+05
  -3.684960e+05   2.587759e+04
  -2.130804e+04  -2.727094e+05
   2.979472e+05  -2.133687e+05
   2.438134e+05   4.474406e+04
  -7.903018e+04   1.054312e+05
  -2.465323e+05  -1.735118e+05
   3.644539e+04  -4.784482e+05
   5.941060e+05  -3.689420e+05
   8.972655e+05   2.277314e+05
   5.755737e+05   8.951396e+05
  -1.821692e+05   1.099058e+06
  -7.916504e+05   6.715816e+05
  -8.488971e+05  -4.862867e+04
  -4.886192e+05  -5.312200e+05
  -1.529332e+05  -5.248531e+05
  -8.413061e+04  -2.465567e+05
  -1.235790e+05  -1.063644e+05
   1.813597e+04  -2.434339e+05
   3.791805e+05  -3.754783e+05
   6.634662e+05  -1.510520e+05
   5.170607e+05   3.802157e+05
  -1.030804e+05   7.367944e+05
  -8.032795e+05   4.884851e+05
  -1.021580e+06  -2.651064e+05
  -5.078761e+05  -9.441726e+05
   4.133931e+05  -1.015300e+06
   1.088259e+06  -4.592815e+05
   1.088931e+06   2.560196e+05
   5.479272e+05   6.290140e+05
  -3.673423e+04   5.542372e+05
  -2.879325e+05   3.382349e+05
  -2.359230e+05   3.165156e+05
  -1.779533e+05   4.741041e+05
  -3.146696e+05   4.743359e+05
  -5.339893e+05   7.332360e+04
  -5.362468e+05  -5.393015e+05
  -1.727106e+05  -8.743368e+05
   3.417566e+05  -6.260173e+05
   5.888358e+05   1.562301e+04
   3.553783e+05   5.455597e+05
  -1.337131e+05   6.040406e+05
  -4.330576e+05   2.483662e+05
  -3.265361e+05  -1.783924e+05
  -1.996102e+04  -3.868928e+05
   1.234865e+05  -3.522586e+05
  -4.270308e+03  -2.439879e+05
  -1.478487e+05  -1.989846e+05
   1.113823e+04  -1.827188e+05
   4.679057e+05  -6.553147e+04
   8.314456e+05   1.931447e+05
   6.830764e+05   4.670810e+05
   2.742503e+04   5.711301e+05
  -6.421822e+05   4.272197e+05
  -7.951087e+05   1.279820e+05
  -3.929806e+05  -1.316211e+05
   9.033872e+04  -1.889958e+05
   1.973953e+05  -4.280259e+04
  -4.572126e+04   1.175648e+05
  -2.533576e+05   7.090266e+04
  -1.861902e+05  -1.802215e+05
   8.498227e+03  -3.596323e+05
   5.918496e+04  -2.249939e+05
  -7.565666e+04   9.204229e+04
  -1.962767e+05   1.912039e+05
  -1.186861e+05  -9.791032e+04
   1.478857e+05  -4.522384e+05
   4.284252e+05  -4.176867e+05
   5.004994e+05   2.986763e+04
   2.391394e+05   4.394308e+05
  -2.273096e+05   4.079064e+05
  -5.140146e+05   1.468549e+04
  -2.901386e+05  -3.162696e+05
   3.204453e+05  -2.804613e+05
   7.501520e+05   5.954392e+04
   5.329983e+05   4.065450e+05
  -1.739290e+05   4.979343e+05
  -7.181912e+05   2.796164e+05
  -6.272481e+05  -6.817619e+04
  -8.690654e+04  -2.583201e+05
   2.923434e+05  -1.428129e+05
   1.366573e+05   1.153997e+05
  -3.206360e+05   1.698596e+05
  -5.198130e+05  -1.459539e+05
  -1.757225e+05  -5.921579e+05
   4.318162e+05  -7.110223e+05
   7.563687e+05  -2.768800e+05
   5.332825e+05   4.344856e+05
   3.410822e+02   8.467029e+05
  -3.964212e+05   6.051146e+05
  -4.312054e+05  -6.477428e+04
  -2.055784e+05  -5.536551e+05
   6.389786e+04  -4.754272e+05
   2.349474e+05  -4.863864e+04
   2.509020e+05   2.022851e+05
   1.302481e+05   8.752063e+04
   4.648149e+03  -6.219786e+04
   3.163883e+04   1.030039e+05
   1.632128e+05   4.457275e+05
   1.163580e+05   5.188687e+05
  -2.618127e+05   1.672060e+05
  -6.697868e+05  -2.785063e+05
  -6.190599e+05  -4.394608e+05
  -6.186895e+04  -3.124130e+05
   4.688712e+05  -1.457876e+05
   4.807396e+05  -6.295183e+04
   1.126951e+05   4.339194e+03
  -1.009877e+05   9.216125e+04
   4.100927e+04   1.289660e+05
   1.881648e+05   9.343967e+04
  -1.113575e+04   6.343871e+04
  -3.893055e+05   4.672701e+04
  -4.659095e+05  -7.545504e+04
  -5.660987e+04  -3.217278e+05
   5.098703e+05  -4.516688e+05
   7.615166e+05  -2.083192e+05
   5.297706e+05   3.074426e+05
   2.540363e+04   6.658920e+05
  -3.966375e+05   5.617843e+05
  -4.990118e+05   1.426448e+05
  -2.946983e+05  -1.762146e+05
  -1.300764e+04  -1.652218e+05
   9.557479e+04   1.676223e+04
  -1.467439e+04   5.213231e+04
  -1.519976e+05  -1.593388e+05
  -1.036734e+05  -3.783364e+05
   1.269397e+05  -2.860754e+05
   3.174206e+05   1.341507e+05
   2.481155e+05   5.158568e+05
  -7.579729e+04   4.684450e+05
  -3.975495e+05   8.233180e+03
  -4.115282e+05  -4.437144e+05
  -5.660453e+04  -5.099171e+05
   3.702275e+05  -2.197732e+05
   4.696123e+05   1.113253e+05
   1.710785e+05   2.572968e+05
  -1.584097e+05   2.302228e+05
  -1.332188e+05   1.346132e+05
   1.732871e+05   4.357621e+04
   3.121632e+05   2.711842e+04
   2.852040e+04   1.356031e+05
  -4.110391e+05   2.746387e+05
  -5.493124e+05   2.271504e+05
  -2.774155e+05  -7.238972e+04
   9.470118e+04  -3.668999e+05
   2.428112e+05  -3.357628e+05
   1.407058e+05  -6.722168e+03
  -3.412006e+04   2.457148e+05
  -1.433622e+05   1.512607e+05
  -1.549428e+05  -1.404531e+05
  -7.582637e+04  -2.779654e+05
   6.127037e+04  -1.414691e+05
   1.733364e+05   6.489967e+04
   1.830232e+05   1.149167e+05
   1.047506e+05   2.326365e+04
   1.920834e+04  -2.679014e+04
  -3.503153e+04   6.440427e+04
  -8.921698e+04   1.962727e+05
  -1.596679e+05   1.873621e+05
  -1.914024e+05  -1.767821e+04
  -1.151435e+05  -2.623858e+05
   6.119269e+04  -3.112208e+05
   2.303437e+05  -9.304894e+04
   2.493332e+05   1.995426e+05
   5.550120e+04   2.957082e+05
  -2.336912e+05   1.298621e+05
  -3.640731e+05  -1.067662e+05
  -1.810756e+05  -1.990196e+05
   1.552934e+05  -1.255810e+05
   2.891021e+05  -1.891001e+04
   7.293962e+04   1.496128e+04
  -2.215043e+05  -3.065917e+04
  -2.065725e+05  -1.123037e+05
   1.411273e+05  -1.605572e+05
   4.340307e+05  -8.079811e+04
