
 $NMID
 id='ANONYMOUS ', fmtdat='(2E16.6)'
 volume=1.0
 tramp=1.0
 $END
  -4.595635e+07  -3.663048e+06
  -2.571479e+07  -2.911987e+07
   7.391688e+06  -2.995413e+07
   2.259838e+07  -1.157678e+07
   1.334054e+07   5.061356e+06
  -2.492972e+06   7.377580e+06
  -7.989592e+06  -4.975423e+05
  -2.610312e+06  -7.818108e+06
   4.832269e+06  -8.154957e+06
   7.985477e+06  -1.889500e+06
   5.724454e+06   5.623629e+06
   2.937261e+05   7.620978e+06
  -3.699592e+06   1.994621e+06
  -2.260955e+06  -5.296269e+06
   3.232494e+06  -5.947270e+06
   6.529861e+06   1.124654e+06
   3.451277e+06   8.679501e+06
  -3.553238e+06   9.739058e+06
  -8.723584e+06   4.336901e+06
  -8.773623e+06  -2.573673e+06
  -4.609107e+06  -6.690085e+06
   3.392728e+05  -6.751521e+06
   2.415793e+06  -4.200437e+06
   6.106734e+05  -2.126632e+06
  -1.672054e+06  -2.698969e+06
   1.567409e+05  -4.427847e+06
   5.695079e+06  -3.644988e+06
   8.989540e+06   4.601591e+05
   5.835412e+06   4.305592e+06
  -6.605001e+05   4.476201e+06
  -4.066855e+06   1.731145e+06
  -2.299165e+06  -8.378072e+05
   1.287184e+06  -1.528335e+06
   3.028219e+06  -3.535025e+05
   2.222741e+06   2.111656e+06
   3.062314e+03   4.116520e+06
  -2.095141e+06   3.073275e+06
  -2.432388e+06  -8.467359e+05
  -6.672166e+05  -3.264105e+06
   9.405159e+05  -9.362064e+05
  -5.926493e+04   2.854198e+06
  -2.381323e+06   2.194850e+06
  -2.048570e+06  -2.658419e+06
   1.893865e+06  -4.871861e+06
   5.229067e+06  -4.911083e+05
   3.641397e+06   5.788853e+06
  -1.870460e+06   6.739621e+06
  -6.282379e+06   1.578518e+06
  -6.010107e+06  -4.071890e+06
  -1.725665e+06  -5.379113e+06
   3.075183e+06  -2.534379e+06
   4.844444e+06   1.220652e+06
   2.374514e+06   3.002555e+06
  -1.927987e+06   1.864093e+06
  -3.810874e+06  -8.175238e+05
  -1.655141e+06  -2.266399e+06
   1.467438e+06  -1.089949e+06
   1.643255e+06   8.972606e+05
  -7.938494e+05   9.225076e+05
  -1.957561e+06  -1.031333e+06
   2.032309e+05  -2.352263e+06
   3.409024e+06  -1.371358e+06
   4.236800e+06   1.015476e+06
   1.872185e+06   3.243699e+06
  -1.947754e+06   4.527500e+06
  -5.014877e+06   4.060999e+06
  -5.751243e+06   1.055543e+06
  -3.732399e+06  -3.273112e+06
  -4.030674e+05  -5.641718e+06
   1.654503e+06  -4.287527e+06
   1.338197e+06  -1.398781e+06
   2.905438e+05  -3.081028e+05
   6.357868e+05  -1.193780e+06
   2.179278e+06  -1.412862e+06
   2.922419e+06   3.790022e+05
   1.781855e+06   2.414286e+06
  -3.484126e+05   2.353777e+06
  -1.867890e+06   1.263058e+05
  -1.728840e+06  -2.295890e+06
   2.014272e+05  -2.950121e+06
   2.819596e+06  -1.294957e+06
   4.011634e+06   1.567332e+06
   2.504325e+06   3.629354e+06
  -3.923754e+05   3.587259e+06
  -2.069837e+06   2.085845e+06
  -1.834943e+06   8.877541e+05
  -1.578495e+06   6.999050e+05
  -2.778682e+06   5.065351e+05
  -4.150201e+06  -7.698625e+05
  -3.312141e+06  -2.739587e+06
  -2.931587e+04  -4.045577e+06
   3.324592e+06  -3.738277e+06
   4.298698e+06  -1.842863e+06
   2.598275e+06   7.068657e+05
  -3.381424e+03   2.320190e+06
  -1.330992e+06   1.808601e+06
  -5.471567e+05  -1.302687e+05
   1.184319e+06  -1.233511e+06
   1.846709e+06  -2.956071e+05
   7.635748e+05   1.202670e+06
  -6.122898e+05   1.104329e+06
  -5.315414e+05  -3.484727e+05
   8.342454e+05  -8.119091e+05
   1.691865e+06   8.715840e+05
   8.611110e+05   3.060522e+06
  -1.095085e+06   3.399330e+06
  -2.829196e+06   1.473780e+06
  -3.400269e+06  -1.162876e+06
  -2.497398e+06  -2.791278e+06
  -4.995356e+05  -2.734813e+06
   1.331025e+06  -1.447525e+06
   1.624490e+06  -1.414325e+05
   4.890555e+05   6.113153e+04
  -3.367716e+05  -7.512406e+05
   4.135194e+05  -1.255916e+06
   1.814274e+06  -4.894221e+05
   1.925876e+06   8.631607e+05
   3.710756e+05   1.337773e+06
  -1.148789e+06   5.545152e+05
  -9.391347e+05  -4.520652e+05
   7.791611e+05  -6.003095e+05
   2.226277e+06   2.105642e+05
   1.878578e+06   1.354992e+06
  -1.826946e+05   2.055847e+06
  -2.341091e+06   1.680274e+06
  -2.780194e+06   2.255356e+05
  -1.153296e+06  -1.251998e+06
   9.404884e+05  -1.386783e+06
   1.475939e+06  -1.060439e+05
   1.126862e+05   1.043950e+06
  -1.515271e+06   6.662612e+05
  -1.683110e+06  -7.860760e+05
  -3.596168e+05  -1.626531e+06
   1.034324e+06  -1.001151e+06
   1.242578e+06   2.489750e+05
   2.831753e+05   7.374688e+05
  -7.448091e+05   3.488156e+04
  -6.775279e+05  -1.061283e+06
   6.395259e+05  -1.389099e+06
   2.027185e+06  -4.524722e+05
   1.981573e+06   1.123968e+06
   3.150963e+05   2.063125e+06
  -1.453338e+06   1.583299e+06
  -1.704818e+06   1.847476e+05
  -5.014052e+05  -8.553667e+05
   6.571972e+05  -7.961222e+05
   6.765031e+05  -6.347251e+04
  -7.464477e+04   4.235542e+05
  -5.388842e+05   2.869942e+05
  -2.501495e+05  -6.114758e+04
   3.546544e+05  -3.879980e+03
   5.133140e+05   5.876655e+05
  -1.812589e+05   1.145986e+06
  -1.375271e+06   8.629574e+05
  -2.057408e+06  -4.617062e+05
  -1.396299e+06  -1.975383e+06
   2.847667e+05  -2.424886e+06
   1.649047e+06  -1.421793e+06
   1.729931e+06   1.165172e+05
   9.303036e+05   9.527077e+05
   3.565211e+05   7.858495e+05
   4.196400e+05   3.310957e+05
   5.258606e+05   3.195722e+05
   4.361124e+04   7.133084e+05
  -8.697664e+05   8.822714e+05
  -1.460350e+06   3.309635e+05
  -1.091899e+06  -7.520196e+05
   2.350352e+05  -1.509945e+06
   1.745519e+06  -1.073131e+06
   2.255264e+06   5.264501e+05
   1.108760e+06   2.105331e+06
  -1.013529e+06   2.311869e+06
  -2.508155e+06   9.904795e+05
  -2.343349e+06  -6.487895e+05
  -1.011629e+06  -1.337670e+06
   1.609605e+05  -1.008181e+06
   4.436334e+05  -5.882055e+05
   2.088427e+05  -7.655211e+05
   2.094683e+05  -1.248518e+06
   7.005795e+05  -1.212932e+06
   1.271152e+06  -2.559384e+05
   1.289929e+06   1.128960e+06
   4.926662e+05   1.915275e+06
  -6.732004e+05   1.419891e+06
  -1.287768e+06  -2.467862e+04
  -7.848249e+05  -1.269806e+06
   3.811880e+05  -1.365320e+06
   1.099279e+06  -4.173023e+05
   7.599418e+05   6.287843e+05
  -1.026925e+05   1.002894e+06
  -4.747133e+05   7.569398e+05
  -5.609490e+04   4.379076e+05
   4.123789e+05   3.698324e+05
   4.052311e+04   3.946854e+05
  -1.122823e+06   1.799020e+05
  -2.007508e+06  -3.852455e+05
  -1.577541e+06  -1.055229e+06
   3.968033e+04  -1.382271e+06
   1.566594e+06  -1.061640e+06
   1.807684e+06  -2.548693e+05
   8.204240e+05   4.473678e+05
  -2.587600e+05   5.234508e+05
  -4.878127e+05   4.133652e+04
   1.152292e+04  -3.874847e+05
   4.744213e+05  -2.390253e+05
   4.640623e+05   3.593773e+05
   1.878350e+05   7.563074e+05
   3.798571e+04   4.966214e+05
   1.372753e+05  -1.250087e+05
   3.142575e+05  -3.341531e+05
   2.763092e+05   2.329508e+05
  -1.896479e+05   1.004702e+06
  -9.306482e+05   1.030228e+06
  -1.320344e+06   8.985664e+04
  -7.711892e+05  -9.558224e+05
   4.601289e+05  -1.084035e+06
   1.248658e+06  -2.478536e+05
   7.143611e+05   6.117279e+05
  -7.072314e+05   6.346476e+05
  -1.600715e+06  -1.111333e+05
  -1.039618e+06  -8.652153e+05
   4.586257e+05  -1.002320e+06
   1.510063e+06  -5.033312e+05
   1.261694e+06   1.824697e+05
   1.458481e+05   5.234469e+05
  -6.474633e+05   2.709476e+05
  -3.585063e+05  -2.959477e+05
   6.281099e+05  -4.916935e+05
   1.189705e+06   1.482572e+05
   6.061724e+05   1.232241e+06
  -6.905156e+05   1.690122e+06
  -1.545955e+06   8.255874e+05
  -1.243866e+06  -8.138832e+05
  -1.499062e+05  -1.819826e+06
   7.763173e+05  -1.303699e+06
   9.262733e+05   1.764269e+05
   4.256367e+05   1.200632e+06
  -2.096090e+05   9.779649e+05
  -5.540365e+05   7.961157e+04
  -4.843834e+05  -3.913404e+05
  -1.897729e+05  -1.430116e+05
  -3.892888e+04   9.954553e+04
  -2.302073e+05  -2.995826e+05
  -4.696947e+05  -9.845092e+05
  -1.951680e+05  -1.087241e+06
   6.934102e+05  -3.716473e+05
   1.478604e+06   5.089244e+05
   1.295366e+06   8.690279e+05
   1.683045e+05   7.017489e+05
  -8.971270e+05   4.046567e+05
  -1.002753e+06   1.688204e+05
  -3.365081e+05  -5.641309e+04
   1.632329e+05  -2.242487e+05
   8.622557e+03  -2.094518e+05
  -2.996510e+05  -1.075585e+05
  -3.656661e+04  -1.417991e+05
   7.089441e+05  -2.200519e+05
   1.054765e+06   5.153211e+04
   3.732419e+05   7.219755e+05
  -9.156273e+05   1.157217e+06
  -1.725087e+06   6.860517e+05
  -1.383218e+06  -5.047330e+05
  -2.284371e+05  -1.435105e+06
   8.096233e+05  -1.353321e+06
   1.081016e+06  -4.944965e+05
   6.644479e+05   2.660714e+05
   1.132354e+05   3.696883e+05
  -1.018801e+05   5.939701e+04
   6.647824e+04  -2.839428e+04
   3.010014e+05   3.666001e+05
   2.362342e+05   8.176229e+05
  -2.075336e+05   6.769508e+05
  -6.960639e+05  -1.552710e+05
  -7.121505e+05  -1.002847e+06
  -6.122881e+04  -1.053457e+06
   7.908277e+05  -2.140976e+05
   1.026869e+06   7.791962e+05
   3.064075e+05   1.114874e+06
  -7.498227e+05   6.495077e+05
  -1.118871e+06  -1.179306e+05
  -4.995086e+05  -6.239690e+05
   3.167261e+05  -6.557978e+05
   3.775608e+05  -3.470932e+05
  -2.724367e+05  -1.372536e+04
  -6.631633e+05   2.116204e+04
  -1.308954e+05  -3.145443e+05
   8.503957e+05  -6.646511e+05
   1.261916e+06  -5.159381e+05
   7.375598e+05   1.950111e+05
  -1.268288e+05   8.678500e+05
  -5.684263e+05   8.323204e+05
  -4.225144e+05   1.283822e+05
  -3.539697e+04  -4.978471e+05
   2.621154e+05  -4.247864e+05
   3.611668e+05   1.737173e+05
   2.385223e+05   5.916254e+05
  -7.724363e+04   4.174259e+05
  -3.966047e+05  -6.308834e+04
  -4.605694e+05  -2.880456e+05
  -2.364108e+05  -9.397752e+04
   1.553386e+04   1.443507e+05
   6.768249e+04   2.014808e+04
   1.386438e+04  -3.796736e+05
   1.061630e+05  -5.540611e+05
   3.540280e+05  -1.888810e+05
   4.421794e+05   4.256307e+05
   1.146382e+05   6.763943e+05
  -4.328968e+05   3.035493e+05
  -6.590163e+05  -3.161035e+05
  -2.367619e+05  -5.966089e+05
   5.189050e+05  -3.505483e+05
   8.841849e+05   1.119451e+05
   4.693703e+05   3.971501e+05
  -3.140212e+05   3.850276e+05
  -6.555853e+05   1.970651e+05
  -2.431315e+05   2.435689e+03
   3.749518e+05  -5.780485e+04
   4.263896e+05   8.771755e+04
  -1.846418e+05   3.075993e+05
  -7.798046e+05   2.673126e+05
