
 $NMID
 id='ANONYMOUS ', fmtdat='(2E16.6)'
 volume=1.0
 tramp=1.0
 $END
  -2.461185e+07   2.340285e+05
  -1.676746e+07  -1.135156e+07
  -2.841680e+05  -1.569190e+07
   1.064400e+07  -1.067464e+07
   9.176218e+06  -1.220208e+06
   6.805637e+05   4.533993e+06
  -5.122410e+06   2.388382e+06
  -3.960257e+06  -4.002167e+06
   1.112955e+06  -7.016562e+06
   4.704840e+06  -3.191830e+06
   4.088864e+06   3.223090e+06
   5.268292e+05   5.276773e+06
  -2.423102e+06   1.085550e+06
  -1.948258e+06  -4.415029e+06
   1.458158e+06  -5.216375e+06
   4.231019e+06  -5.541023e+05
   3.195657e+06   4.902120e+06
  -1.058519e+06   6.267619e+06
  -4.738585e+06   3.001952e+06
  -4.826237e+06  -1.419290e+06
  -2.029497e+06  -3.443562e+06
   3.375762e+05  -2.660084e+06
   7.426296e+03  -1.450874e+06
  -1.937915e+06  -1.958868e+06
  -2.295520e+06  -3.714584e+06
   7.281099e+05  -4.340378e+06
   5.162029e+06  -2.372903e+06
   6.822461e+06   1.021404e+06
   3.701909e+06   3.228464e+06
  -1.457876e+06   2.724628e+06
  -3.758565e+06   2.799273e+05
  -1.374259e+06  -1.923436e+06
   2.621883e+06  -2.017368e+06
   3.959314e+06   2.124140e+05
   1.811718e+06   2.983216e+06
  -1.002463e+06   3.730848e+06
  -1.761062e+06   1.570948e+06
  -5.646337e+05  -1.331190e+06
   6.198364e+05  -1.760028e+06
   4.467656e+05   7.619831e+05
  -8.027754e+05   3.074621e+06
  -1.924566e+06   2.088713e+06
  -1.802969e+06  -1.269632e+06
  -1.842642e+05  -3.042494e+06
   1.806357e+06  -1.062906e+06
   2.159352e+06   2.459220e+06
  -1.268969e+05   3.638183e+06
  -3.455719e+06   1.268292e+06
  -4.660017e+06  -2.265223e+06
  -2.188496e+06  -3.850568e+06
   1.991822e+06  -2.556353e+06
   4.182122e+06   9.666706e+04
   2.658519e+06   1.878336e+06
  -7.083678e+05   1.660719e+06
  -2.567668e+06   9.473284e+04
  -1.521246e+06  -1.119504e+06
   7.367346e+05  -8.311439e+05
   1.534177e+06   4.761655e+05
   1.505876e+05   1.268249e+06
  -1.545000e+06   6.399371e+05
  -1.316350e+06  -7.559611e+05
   8.375862e+05  -1.438799e+06
   2.572266e+06  -5.329690e+05
   1.723523e+06   1.483514e+06
  -1.315564e+06   3.110325e+06
  -3.983945e+06   2.871799e+06
  -4.197951e+06   5.207277e+05
  -2.276555e+06  -2.492551e+06
  -1.964636e+05  -4.088718e+06
   6.525350e+05  -3.498699e+06
   6.063025e+05  -1.957589e+06
   8.178808e+05  -1.123471e+06
   1.728494e+06  -1.073470e+06
   2.639881e+06  -4.818360e+05
   2.538038e+06   1.241955e+06
   1.107325e+06   2.770752e+06
  -9.194634e+05   2.316428e+06
  -2.194352e+06  -9.958034e+04
  -1.698481e+06  -2.428317e+06
   3.453689e+05  -2.665783e+06
   2.414304e+06  -7.740110e+05
   2.874561e+06   1.530720e+06
   1.503465e+06   2.576573e+06
  -3.034196e+05   2.128813e+06
  -1.069708e+06   1.201676e+06
  -8.614374e+05   8.028241e+05
  -1.033466e+06   9.495116e+05
  -2.320241e+06   8.050233e+05
  -3.604477e+06  -3.323864e+05
  -3.012199e+06  -2.185167e+06
  -1.862277e+05  -3.577739e+06
   2.939998e+06  -3.369830e+06
   3.909110e+06  -1.469410e+06
   2.186166e+06   9.157387e+05
  -3.619461e+05   2.117783e+06
  -1.414649e+06   1.415358e+06
  -4.289399e+05  -2.295018e+05
   1.127312e+06  -1.040606e+06
   1.532783e+06  -2.715676e+05
   5.344114e+05   9.587566e+05
  -6.453196e+05   9.904507e+05
  -7.184779e+05  -2.899658e+05
   4.154848e+05  -1.161495e+06
   1.647416e+06  -1.029637e+05
   1.659014e+06   2.238494e+06
   4.168923e+04   3.566075e+06
  -2.269108e+06   2.381691e+06
  -3.599241e+06  -4.440495e+05
  -2.875160e+06  -2.634012e+06
  -6.498774e+05  -2.755395e+06
   1.277201e+06  -1.352425e+06
   1.520531e+06  -6.889100e+04
   4.421640e+05   4.496849e+04
  -3.326962e+05  -6.576318e+05
   2.319133e+05  -1.054101e+06
   1.429578e+06  -5.030973e+05
   1.688930e+06   5.419306e+05
   4.772767e+05   1.072255e+06
  -9.754971e+05   5.908708e+05
  -9.978695e+05  -3.798564e+05
   6.159359e+05  -8.078808e+05
   2.246723e+06  -1.299722e+05
   2.085560e+06   1.213893e+06
   3.824131e+04   2.123392e+06
  -2.127645e+06   1.762490e+06
  -2.545719e+06   3.318234e+05
  -1.065982e+06  -1.006999e+06
   7.223093e+05  -1.144247e+06
   1.156205e+06  -1.260670e+05
   5.670774e+04   8.329280e+05
  -1.302631e+06   6.125897e+05
  -1.560472e+06  -5.821865e+05
  -5.194891e+05  -1.456148e+06
   8.010571e+05  -1.099158e+06
   1.198051e+06   1.137640e+04
   4.222106e+05   6.148746e+05
  -5.825804e+05   9.624061e+04
  -6.016961e+05  -9.011346e+05
   5.716924e+05  -1.228404e+06
   1.812423e+06  -4.018328e+05
   1.774093e+06   9.801146e+05
   3.396865e+05   1.818023e+06
  -1.204122e+06   1.468055e+06
  -1.511866e+06   2.766918e+05
  -5.427854e+05  -7.316226e+05
   5.401067e+05  -7.808749e+05
   6.917947e+05  -5.507199e+04
  -5.588281e+03   5.480366e+05
  -6.249850e+05   4.140117e+05
  -4.704711e+05  -1.287692e+05
   2.242768e+05  -2.500397e+05
   5.821470e+05   3.505464e+05
   3.968665e+02   1.026179e+06
  -1.172201e+06   8.585854e+05
  -1.867947e+06  -3.336557e+05
  -1.303948e+06  -1.729819e+06
   2.012411e+05  -2.230075e+06
   1.491487e+06  -1.441558e+06
   1.699126e+06  -1.243806e+04
   1.026463e+06   9.729585e+05
   3.573001e+05   9.757422e+05
   2.239456e+05   4.307602e+05
   3.269531e+05   1.869285e+05
   5.174975e+04   5.301627e+05
  -7.127725e+05   8.607750e+05
  -1.359460e+06   4.253279e+05
  -1.128441e+06  -7.009410e+05
   1.121235e+05  -1.527115e+06
   1.582967e+06  -1.119046e+06
   2.119185e+06   3.958679e+05
   1.148926e+06   1.861541e+06
  -7.240834e+05   2.131097e+06
  -2.161050e+06   1.073543e+06
  -2.227711e+06  -3.936812e+05
  -1.149785e+06  -1.208833e+06
   3.877361e+04  -1.101697e+06
   5.287639e+05  -6.803026e+05
   3.820214e+05  -6.453638e+05
   2.433591e+05  -9.857800e+05
   5.509336e+05  -1.021204e+06
   1.070788e+06  -2.411668e+05
   1.161109e+06   9.999462e+05
   4.732755e+05   1.729227e+06
  -5.956876e+05   1.299927e+06
  -1.186323e+06   3.514106e+04
  -7.915039e+05  -1.072856e+06
   2.050156e+05  -1.252464e+06
   8.842147e+05  -5.490983e+05
   7.198849e+05   3.574940e+05
   8.109130e+04   8.253878e+05
  -2.479245e+05   7.473111e+05
   1.725471e+04   4.767207e+05
   3.450528e+05   3.573433e+05
   2.297501e+04   3.686583e+05
  -9.578680e+05   2.216233e+05
  -1.751539e+06  -2.521209e+05
  -1.462674e+06  -8.592473e+05
  -1.132974e+05  -1.191063e+06
   1.266021e+06  -9.841661e+05
   1.599629e+06  -3.577994e+05
   8.147928e+05   2.532636e+05
  -1.564841e+05   4.245692e+05
  -4.128540e+05   1.117356e+05
   3.087738e+04  -2.615969e+05
   4.655207e+05  -1.947037e+05
   4.109472e+05   3.160598e+05
   7.848507e+04   6.945293e+05
  -5.281370e+04   4.408751e+05
   1.448071e+05  -1.854075e+05
   3.708344e+05  -3.853709e+05
   2.773063e+05   1.964680e+05
  -2.067637e+05   9.420899e+05
  -8.132440e+05   9.352776e+05
  -1.063030e+06   6.024848e+04
  -5.972905e+05  -8.351076e+05
   3.795583e+05  -8.955856e+05
   1.041271e+06  -1.613967e+05
   6.385346e+05   5.715370e+05
  -6.050894e+05   6.167275e+05
  -1.512535e+06  -1.513229e+04
  -1.107181e+06  -7.585918e+05
   3.070197e+05  -1.024892e+06
   1.415172e+06  -6.337887e+05
   1.259840e+06   7.652717e+04
   1.943604e+05   5.072073e+05
  -5.794055e+05   3.130540e+05
  -3.041188e+05  -2.234409e+05
   6.026789e+05  -4.002825e+05
   1.061916e+06   1.901707e+05
   4.706499e+05   1.135751e+06
  -7.070575e+05   1.490849e+06
  -1.437860e+06   6.953459e+05
  -1.134730e+06  -7.636111e+05
  -1.447210e+05  -1.683215e+06
   7.021401e+05  -1.260441e+06
   8.819120e+05   8.474760e+04
   4.798772e+05   1.096097e+06
  -9.713470e+04   9.649824e+05
  -4.866769e+05   1.240782e+05
  -5.121621e+05  -3.772049e+05
  -2.436489e+05  -1.633502e+05
  -1.058716e+04   1.188778e+05
  -1.216905e+05  -2.043516e+05
  -4.107240e+05  -8.677803e+05
  -2.793395e+05  -1.025407e+06
   5.340266e+05  -3.845369e+05
   1.377990e+06   4.503334e+05
   1.283072e+06   7.922208e+05
   1.776711e+05   6.254377e+05
  -8.871301e+05   3.625398e+05
  -9.488403e+05   1.914346e+05
  -2.561885e+05   6.218192e+03
   1.735647e+05  -1.950221e+05
  -7.192990e+04  -2.489907e+05
  -3.572631e+05  -1.595044e+05
   1.424736e+03  -1.288243e+05
   7.371001e+05  -1.558545e+05
   9.474274e+05   6.522250e+04
   2.153599e+05   6.189764e+05
  -9.053997e+05   9.924022e+05
  -1.497750e+06   5.791735e+05
  -1.143784e+06  -4.858914e+05
  -1.766847e+05  -1.317550e+06
   7.028725e+05  -1.211907e+06
   9.712341e+05  -3.945843e+05
   6.113935e+05   2.922521e+05
   6.620440e+04   3.284506e+05
  -1.611716e+05  -1.148262e+04
   4.181466e+04  -9.173173e+04
   3.223336e+05   3.128617e+05
   2.548396e+05   7.499318e+05
  -2.018769e+05   5.953982e+05
  -6.419711e+05  -2.026531e+05
  -5.881931e+05  -9.621579e+05
   3.798309e+04  -9.335940e+05
   7.585767e+05  -1.032774e+05
   8.944569e+05   7.822240e+05
   2.237880e+05   1.000891e+06
  -6.858025e+05   5.257301e+05
  -9.721136e+05  -1.247122e+05
  -4.159401e+05  -5.012657e+05
   2.691514e+05  -5.203543e+05
   2.703583e+05  -3.094981e+05
  -3.200292e+05  -5.520696e+04
  -6.219914e+05   3.430022e+03
  -9.493807e+04  -2.668422e+05
   7.756562e+05  -6.164291e+05
   1.092146e+06  -5.399438e+05
   6.045481e+05   1.034236e+05
  -1.171496e+05   7.579965e+05
  -4.443446e+05   7.372174e+05
  -2.980608e+05   7.353202e+04
   1.453415e+04  -4.782534e+05
   2.466287e+05  -3.418117e+05
   3.213887e+05   2.282761e+05
   2.047567e+05   5.395374e+05
  -7.918748e+04   3.130742e+05
  -3.526478e+05  -8.816734e+04
  -4.022424e+05  -2.102095e+05
  -2.214270e+05  -4.221711e+04
  -1.226122e+04   7.091160e+04
   7.910328e+04  -9.485794e+04
   1.177511e+05  -3.742900e+05
   2.228552e+05  -4.043293e+05
   3.456346e+05  -3.601901e+04
   2.942671e+05   4.564354e+05
  -2.393978e+04   6.061592e+05
  -4.246884e+05   2.339236e+05
  -5.435161e+05  -3.288661e+05
  -1.722976e+05  -5.658251e+05
   4.503084e+05  -3.098893e+05
   7.565213e+05   1.300577e+05
   4.039130e+05   3.612882e+05
  -2.784355e+05   2.959310e+05
  -5.672263e+05   1.146609e+05
  -1.639089e+05  -1.077080e+03
   4.092842e+05   1.869104e+04
   4.047726e+05   1.656392e+05
  -2.404685e+05   3.155846e+05
  -8.139635e+05   2.193639e+05
