
 $NMID
 id='ANONYMOUS ', fmtdat='(2E16.6)'
 volume=1.0
 tramp=1.0
 $END
   5.631940e+06   1.579518e+06
   2.396911e+06   4.458698e+06
  -1.833055e+06   3.606714e+06
  -3.174897e+06   6.662590e+05
  -1.437773e+06  -1.185974e+06
   6.043084e+05  -8.357560e+05
   9.422537e+05   4.146179e+05
  -1.224919e+04   1.054943e+06
  -8.896613e+05   7.420016e+05
  -1.016734e+06  -8.398668e+04
  -5.194710e+05  -8.120107e+05
   1.594666e+05  -8.733498e+05
   4.714586e+05  -1.632819e+05
   1.064831e+05   6.054365e+05
  -5.602074e+05   5.353687e+05
  -7.447234e+05  -3.603560e+05
  -1.517085e+05  -1.141632e+06
   7.107523e+05  -1.067292e+06
   1.173183e+06  -3.062381e+05
   1.023222e+06   5.036483e+05
   4.585211e+05   9.328973e+05
  -1.687437e+05   8.911730e+05
  -4.680791e+05   5.306970e+05
  -2.762914e+05   2.121904e+05
   4.119133e+04   2.299981e+05
  -8.526801e+04   4.106385e+05
  -6.469007e+05   2.872510e+05
  -9.656283e+05  -2.121081e+05
  -5.859597e+05  -6.011816e+05
   1.071895e+05  -5.106410e+05
   4.318419e+05  -1.586722e+05
   2.468652e+05   5.665582e+04
  -7.294591e+04   6.881508e+04
  -2.252316e+05  -1.081384e+04
  -1.760704e+05  -1.905342e+05
   3.163283e+04  -4.015109e+05
   2.819183e+05  -3.363439e+05
   3.255027e+05   9.331808e+04
   7.739789e+04   4.107470e+05
  -1.313101e+05   1.798780e+05
   2.822864e+04  -2.446518e+05
   3.053368e+05  -1.562308e+05
   1.513216e+05   3.882174e+05
  -4.211650e+05   5.431008e+05
  -7.299503e+05  -9.660693e+04
  -3.184058e+05  -8.390950e+05
   4.337323e+05  -7.997834e+05
   8.092595e+05  -3.301337e+04
   5.620357e+05   6.375294e+05
   8.575502e+03   6.481924e+05
  -4.208291e+05   1.664755e+05
  -4.730389e+05  -3.028376e+05
  -1.362263e+05  -4.143962e+05
   3.049661e+05  -1.478108e+05
   4.234686e+05   2.218600e+05
   1.149843e+05   3.267233e+05
  -2.102530e+05   8.742232e+04
  -1.410071e+05  -1.512158e+05
   1.618515e+05  -5.001020e+04
   1.960369e+05   2.521647e+05
  -1.663995e+05   3.306052e+05
  -5.221837e+05   5.759661e+04
  -4.908412e+05  -2.895215e+05
  -1.169445e+05  -4.636774e+05
   3.244760e+05  -4.722373e+05
   6.267694e+05  -3.411249e+05
   6.607741e+05  -3.346752e+03
   3.690858e+05   4.380508e+05
  -7.661808e+04   6.367100e+05
  -3.202866e+05   4.178528e+05
  -2.112069e+05   6.553765e+04
  -5.256194e+03  -3.595305e+04
  -1.547674e+04   9.605924e+04
  -2.010081e+05   1.364179e+05
  -2.824340e+05  -4.757402e+04
  -1.485596e+05  -2.405820e+05
   5.258378e+04  -2.090683e+05
   1.539737e+05   2.183006e+04
   1.054518e+05   2.476492e+05
  -8.001942e+04   2.876404e+05
  -3.177244e+05   8.844976e+04
  -4.106225e+05  -2.391538e+05
  -2.176808e+05  -4.622422e+05
   1.202976e+05  -4.216240e+05
   3.039444e+05  -2.090539e+05
   2.565165e+05  -5.021602e+04
   2.021316e+05  -1.382338e+04
   3.039342e+05   3.762474e+04
   4.071144e+05   1.989004e+05
   2.650497e+05   3.713353e+05
  -1.039321e+05   4.098296e+05
  -4.246995e+05   2.936992e+05
  -4.690487e+05   9.335930e+04
  -2.503990e+05  -1.131841e+05
   3.238482e+04  -2.269567e+05
   1.602286e+05  -1.610045e+05
   5.476497e+04   1.835917e+04
  -1.432692e+05   9.886953e+04
  -1.999494e+05  -1.431456e+04
  -5.827065e+04  -1.454187e+05
   8.139274e+04  -9.490962e+04
   2.894653e+04   5.099410e+04
  -1.281341e+05   3.497918e+04
  -1.462525e+05  -1.871778e+05
   4.202189e+04  -3.665454e+05
   2.622019e+05  -2.868468e+05
   3.434799e+05  -1.160187e+04
   2.801474e+05   2.409722e+05
   1.400816e+05   3.346144e+05
  -3.087418e+04   2.668453e+05
  -1.624951e+05   1.088029e+05
  -1.611364e+05  -2.128718e+04
  -4.723482e+04  -1.845477e+04
   1.377941e+04   8.453023e+04
  -8.015446e+04   1.215250e+05
  -2.067468e+05   2.663761e+03
  -1.761022e+05  -1.475952e+05
   3.713318e+03  -1.521879e+05
   1.326321e+05  -2.208347e+04
   7.304063e+04   7.067911e+04
  -9.981717e+04   2.434626e+04
  -2.035333e+05  -9.710740e+04
  -1.290822e+05  -1.834231e+05
   8.278674e+04  -1.842583e+05
   2.742922e+05  -9.501076e+04
   2.808672e+05   5.284843e+04
   8.406409e+04   1.606550e+05
  -1.345602e+05   1.235892e+05
  -1.614010e+05  -2.561167e+04
   1.011459e+04  -1.136462e+05
   1.713745e+05  -2.976668e+04
   1.470204e+05   1.274076e+05
  -1.602421e+04   1.728488e+05
  -1.372705e+05   6.289333e+04
  -1.142778e+05  -6.936557e+04
   2.580895e+02  -8.490020e+04
   8.164092e+04   1.803343e+04
   4.327437e+04   1.257982e+05
  -9.718073e+04   1.249830e+05
  -2.140098e+05  -2.798793e+03
  -1.717990e+05  -1.615927e+05
   2.133577e+04  -2.164294e+05
   1.901040e+05  -1.211147e+05
   1.767638e+05   2.954616e+04
   2.365324e+04   1.005582e+05
  -8.860753e+04   5.976570e+04
  -6.352998e+04  -1.044908e+04
   2.296705e+04  -3.001703e+04
   5.264599e+04  -4.475411e+03
   6.818369e+03   9.058469e+03
  -4.357833e+04  -2.359232e+04
  -3.062790e+04  -8.353445e+04
   5.617381e+04  -1.116238e+05
   1.628082e+05  -4.840000e+04
   1.938771e+05   1.007532e+05
   8.941096e+04   2.340483e+05
  -9.035493e+04   2.324236e+05
  -1.992339e+05   9.165846e+04
  -1.612484e+05  -6.177806e+04
  -5.663985e+04  -1.109650e+05
  -1.240037e+04  -6.933111e+04
  -4.320781e+04  -3.308126e+04
  -5.535371e+04  -5.001307e+04
   1.258417e+04  -7.972110e+04
   1.129141e+05  -6.343860e+04
   1.515951e+05   1.048773e+04
   8.127370e+04   1.005089e+05
  -6.725077e+04   1.347032e+05
  -2.001631e+05   5.526592e+04
  -2.071995e+05  -1.121983e+05
  -5.061170e+04  -2.399693e+05
   1.692653e+05  -2.046082e+05
   2.817462e+05  -2.755344e+04
   2.118879e+05   1.342645e+05
   5.305358e+04   1.591278e+05
  -4.864704e+04   8.466390e+04
  -5.085146e+04   3.713076e+04
  -2.592476e+04   7.285377e+04
  -4.606690e+04   1.283167e+05
  -1.036510e+05   1.095592e+05
  -1.379155e+05  -5.005936e+03
  -1.018681e+05  -1.445651e+05
  -1.373075e+03  -2.027827e+05
   1.019715e+05  -1.242278e+05
   1.265623e+05   3.726939e+04
   4.286341e+04   1.507843e+05
  -8.001193e+04   1.266205e+05
  -1.279785e+05   4.651096e+03
  -6.002266e+04  -9.501791e+04
   4.514046e+04  -1.040833e+05
   7.788245e+04  -6.118433e+04
   2.119991e+04  -3.737377e+04
  -3.388505e+04  -4.488930e+04
   4.546437e+03  -3.934424e+04
   1.202872e+05   1.238627e+04
   1.955551e+05   9.220290e+04
   1.300933e+05   1.493221e+05
  -4.648334e+04   1.416934e+05
  -1.914997e+05   6.773677e+04
  -1.892775e+05  -2.609030e+04
  -6.724330e+04  -7.477289e+04
   4.303550e+04  -4.973900e+04
   5.197316e+04   1.226305e+04
  -8.333529e+03   4.399713e+04
  -5.027410e+04   1.357983e+04
  -3.821132e+04  -4.734738e+04
  -6.618783e+03  -7.830283e+04
   2.234659e+03  -5.018606e+04
  -1.580754e+04   4.206164e+03
  -3.415153e+04   1.958178e+04
  -2.028466e+04  -3.091294e+04
   4.073341e+04  -9.297117e+04
   1.191469e+05  -8.031177e+04
   1.421252e+05   2.017073e+04
   6.080493e+04   1.147186e+05
  -7.346684e+04   1.028032e+05
  -1.355255e+05  -3.155954e+02
  -5.680932e+04  -7.664839e+04
   8.814556e+04  -4.365279e+04
   1.529271e+05   5.548676e+04
   7.183664e+04   1.137903e+05
  -7.764594e+04   8.171108e+04
  -1.603493e+05   1.730952e+03
  -1.139598e+05  -5.511353e+04
   2.419139e+03  -5.380240e+04
   7.184903e+04  -6.992134e+03
   3.027984e+04   4.082810e+04
  -7.162109e+04   3.660706e+04
  -1.153452e+05  -3.935986e+04
  -3.585061e+04  -1.350822e+05
   1.033187e+05  -1.535098e+05
   1.704910e+05  -4.828305e+04
   1.034191e+05   1.089406e+05
  -2.948281e+04   1.822071e+05
  -1.090213e+05   1.057317e+05
  -8.558487e+04  -4.501180e+04
  -7.258898e+03  -1.296943e+05
   5.101981e+04  -8.767315e+04
   5.841190e+04   8.666963e+03
   3.373896e+04   4.955338e+04
   1.040487e+04   1.707909e+04
   8.119737e+03  -7.234682e+03
   2.202493e+04   3.907570e+04
   2.430101e+04   1.105823e+05
  -1.376409e+04   1.108371e+05
  -8.445419e+04   1.789690e+04
  -1.323002e+05  -8.696084e+04
  -1.006271e+05  -1.178738e+05
   1.640419e+03  -7.465069e+04
   9.384626e+04  -1.845487e+04
   1.013096e+05   1.007635e+04
   3.578541e+04   1.708466e+04
  -1.981481e+04   1.871164e+04
  -1.163202e+04   1.727635e+04
   2.103075e+04   1.439693e+04
   2.553777e+03   1.469130e+04
  -6.907576e+04   7.083833e+03
  -1.040092e+05  -2.905184e+04
  -2.828149e+04  -8.206440e+04
   1.131919e+05  -9.624664e+04
   1.918631e+05  -3.025633e+04
   1.324602e+05   8.047592e+04
  -9.730425e+03   1.466961e+05
  -1.147528e+05   1.163369e+05
  -1.193986e+05   2.693168e+04
  -5.866576e+04  -3.900086e+04
  -4.894161e+03  -3.961309e+04
   6.454295e+03  -7.283095e+03
  -9.028489e+03  -3.015478e+03
  -1.800166e+04  -4.531058e+04
  -1.132559e+03  -8.663588e+04
   3.577092e+04  -6.340801e+04
   6.423840e+04   2.805348e+04
   5.016487e+04   1.127010e+05
  -1.273392e+04   1.068177e+05
  -8.020364e+04   8.066597e+03
  -8.520643e+04  -9.663873e+04
  -7.446607e+03  -1.183158e+05
   8.912846e+04  -5.074886e+04
   1.110142e+05   3.695756e+04
   3.767313e+04   7.794414e+04
  -4.776974e+04   6.267172e+04
  -5.057706e+04   2.636671e+04
   2.152510e+04   5.598173e+03
   6.488200e+04   1.286465e+04
   7.208574e+03   3.540977e+04
  -1.001775e+05   4.472647e+04
  -1.417298e+05   1.666641e+04
  -7.345037e+04  -4.139937e+04
   3.299173e+04  -8.507893e+04
   8.096880e+04  -7.080169e+04
   5.036702e+04  -6.173486e+03
  -5.494911e+03   4.814349e+04
  -3.525669e+04   3.874628e+04
  -3.157066e+04  -2.113045e+04
  -1.028650e+04  -6.417763e+04
   1.653431e+04  -4.390274e+04
   3.810780e+04   1.363966e+04
   4.028161e+04   4.290649e+04
   2.110040e+04   1.790727e+04
  -3.152906e+02  -1.850190e+04
  -5.947731e+03  -1.129463e+04
  -3.691596e+03   3.455811e+04
  -1.459916e+04   5.803290e+04
  -3.698111e+04   1.910586e+04
  -4.029096e+04  -4.732300e+04
  -3.782840e+03  -6.940225e+04
   4.779418e+04  -2.229937e+04
   6.117218e+04   4.392290e+04
   1.188011e+04   6.294059e+04
  -6.121329e+04   2.310264e+04
  -8.794214e+04  -3.001300e+04
  -3.855941e+04  -5.043169e+04
   4.040853e+04  -3.432437e+04
   7.114490e+04  -8.365134e+03
   2.794261e+04   4.911455e+03
  -3.345891e+04   9.564793e+02
  -3.836800e+04  -1.332760e+04
   2.112867e+04  -2.312062e+04
   7.655787e+04  -8.588402e+03
