
 $NMID
 id='ANONYMOUS ', fmtdat='(2E16.6)'
 volume=1.0
 tramp=1.0
 $END
   3.898643e+07  -2.351723e+05
   2.478206e+07   2.158660e+07
  -2.807737e+06   2.578340e+07
  -1.817652e+07   1.294525e+07
  -1.270663e+07  -2.066509e+06
   9.052931e+05  -6.764699e+06
   7.350855e+06  -1.053619e+06
   3.713065e+06   6.595665e+06
  -3.256713e+06   8.376068e+06
  -6.999719e+06   2.893447e+06
  -5.514731e+06  -4.616712e+06
  -6.821397e+05  -6.933013e+06
   3.196668e+06  -1.828794e+06
   2.338233e+06   5.081805e+06
  -2.483889e+06   6.060532e+06
  -5.966075e+06  -1.803493e+05
  -3.900064e+06  -7.346358e+06
   2.217700e+06  -8.891404e+06
   7.192717e+06  -4.375548e+06
   7.548596e+06   1.738754e+06
   4.038030e+06   5.277797e+06
   8.577807e+04   5.259879e+06
  -1.183507e+06   3.428597e+06
   4.935987e+05   2.382859e+06
   1.931177e+06   3.287941e+06
  -3.665823e+05   4.512428e+06
  -5.543245e+06   3.335552e+06
  -8.363370e+06  -4.476649e+05
  -5.281933e+06  -3.768083e+06
   8.321349e+05  -3.829928e+06
   3.946473e+06  -1.234409e+06
   1.896251e+06   1.234132e+06
  -1.947286e+06   1.682762e+06
  -3.491878e+06   5.866640e+04
  -2.065913e+06  -2.513610e+06
   3.628556e+05  -4.016413e+06
   1.868554e+06  -2.594276e+06
   1.684376e+06   8.942680e+05
   3.060117e+05   2.619398e+06
  -5.976357e+05   2.965260e+05
   3.807476e+05  -2.991814e+06
   2.251848e+06  -2.296923e+06
   2.174657e+06   2.127740e+06
  -8.653252e+05   4.488827e+06
  -4.014074e+06   1.119952e+06
  -3.507052e+06  -4.417988e+06
   8.494829e+05  -5.851585e+06
   5.273433e+06  -1.822848e+06
   5.868914e+06   3.282299e+06
   2.178190e+06   4.964760e+06
  -2.714117e+06   2.769314e+06
  -4.866471e+06  -6.867223e+05
  -2.718183e+06  -2.646823e+06
   1.447930e+06  -1.979690e+06
   3.519496e+06   3.121814e+05
   1.787334e+06   1.838333e+06
  -1.179507e+06   1.101794e+06
  -1.707560e+06  -7.295515e+05
   4.457739e+05  -1.203196e+06
   2.023677e+06   3.001631e+05
   6.106187e+05   1.904840e+06
  -2.433964e+06   1.723917e+06
  -3.841982e+06  -2.001369e+05
  -2.073017e+06  -2.586203e+06
   1.583734e+06  -4.170488e+06
   4.625039e+06  -3.844695e+06
   5.250751e+06  -1.057646e+06
   3.351684e+06   2.900198e+06
   5.192024e+05   5.173251e+06
  -1.182198e+06   4.223898e+06
  -1.118204e+06   1.772635e+06
  -6.026305e+05   6.226765e+05
  -1.109637e+06   1.090925e+06
  -2.364670e+06   1.041837e+06
  -2.794134e+06  -7.064558e+05
  -1.546608e+06  -2.586067e+06
   5.870820e+05  -2.379533e+06
   2.060302e+06  -1.697106e+04
   1.788791e+06   2.428187e+06
  -2.226014e+05   2.932353e+06
  -2.697762e+06   1.181362e+06
  -3.695912e+06  -1.475701e+06
  -2.299242e+06  -3.205820e+06
   2.045515e+05  -3.112349e+06
   1.621436e+06  -1.897741e+06
   1.473264e+06  -9.921201e+05
   1.424329e+06  -8.985056e+05
   2.715447e+06  -7.196508e+05
   4.126368e+06   5.285563e+05
   3.386951e+06   2.555456e+06
   1.729760e+05   4.018647e+06
  -3.226959e+06   3.789033e+06
  -4.251379e+06   1.824235e+06
  -2.509158e+06  -7.663558e+05
   1.212425e+05  -2.291003e+06
   1.369076e+06  -1.712629e+06
   5.096861e+05   1.633858e+05
  -1.179393e+06   1.213780e+06
  -1.780587e+06   3.402009e+05
  -7.271309e+05  -1.118262e+06
   6.323738e+05  -1.100420e+06
   6.416412e+05   3.512822e+05
  -7.143244e+05   1.040858e+06
  -1.839040e+06  -4.695304e+05
  -1.339526e+06  -2.896758e+06
   6.395625e+05  -3.721188e+06
   2.774739e+06  -1.996962e+06
   3.696537e+06   8.926206e+05
   2.794104e+06   2.850599e+06
   6.026202e+05   2.861968e+06
  -1.340288e+06   1.478723e+06
  -1.635786e+06   1.376788e+05
  -4.900303e+05  -4.856089e+04
   3.629652e+05   7.379117e+05
  -3.232375e+05   1.239347e+06
  -1.718398e+06   5.647978e+05
  -1.937228e+06  -7.225440e+05
  -4.664606e+05  -1.284301e+06
   1.119531e+06  -6.174582e+05
   1.012397e+06   4.376191e+05
  -7.546159e+05   7.353188e+05
  -2.357032e+06  -5.696548e+04
  -2.065706e+06  -1.353089e+06
   8.558606e+04  -2.188550e+06
   2.336817e+06  -1.819976e+06
   2.797444e+06  -3.232032e+05
   1.193728e+06   1.179298e+06
  -8.506322e+05   1.364974e+06
  -1.397939e+06   1.599740e+05
  -1.208015e+05  -9.885801e+05
   1.473806e+06  -7.011435e+05
   1.722216e+06   7.053044e+05
   4.708263e+05   1.630185e+06
  -9.769801e+05   1.112809e+06
  -1.297248e+06  -1.433284e+05
  -3.713470e+05  -7.254806e+05
   7.104205e+05  -8.414476e+04
   6.954690e+05   1.021928e+06
  -6.094524e+05   1.386432e+06
  -2.006556e+06   4.846427e+05
  -1.992793e+06  -1.071654e+06
  -3.769487e+05  -2.039118e+06
   1.380737e+06  -1.630756e+06
   1.696470e+06  -2.624156e+05
   5.569670e+05   8.364710e+05
  -6.257373e+05   8.372295e+05
  -7.089137e+05   6.576049e+04
   5.632824e+04  -5.014848e+05
   6.072532e+05  -3.493306e+05
   3.492626e+05   1.116003e+05
  -3.355596e+05   1.253295e+05
  -5.901631e+05  -5.110533e+05
   8.987992e+04  -1.158085e+06
   1.334924e+06  -9.249344e+05
   2.072673e+06   3.910414e+05
   1.449972e+06   1.928169e+06
  -2.232858e+05   2.446707e+06
  -1.637555e+06   1.513671e+06
  -1.797971e+06  -4.979426e+04
  -1.013317e+06  -1.001202e+06
  -3.584298e+05  -8.958942e+05
  -3.447887e+05  -3.650721e+05
  -4.760140e+05  -2.518670e+05
  -7.182847e+04  -6.626971e+05
   8.274065e+05  -9.291790e+05
   1.480593e+06  -4.055062e+05
   1.161113e+06   7.544959e+05
  -1.813783e+05   1.590153e+06
  -1.740344e+06   1.164015e+06
  -2.301992e+06  -4.608163e+05
  -1.209045e+06  -2.078909e+06
   8.941656e+05  -2.360652e+06
   2.458201e+06  -1.117382e+06
   2.415300e+06   5.359971e+05
   1.133340e+06   1.340710e+06
  -1.161242e+05   1.101160e+06
  -5.021963e+05   6.462270e+05
  -2.744396e+05   7.289177e+05
  -1.978851e+05   1.182883e+06
  -6.363795e+05   1.197732e+06
  -1.231684e+06   2.883543e+05
  -1.306139e+06  -1.095962e+06
  -5.358920e+05  -1.905206e+06
   6.443246e+05  -1.436739e+06
   1.300906e+06  -1.945888e+04
   8.471127e+05   1.229877e+06
  -2.993171e+05   1.390352e+06
  -1.059574e+06   5.194362e+05
  -8.034494e+05  -5.271442e+05
   2.982944e+03  -9.844083e+05
   3.891427e+05  -8.080655e+05
   2.724382e+04  -4.794046e+05
  -4.034923e+05  -3.693730e+05
  -4.002365e+04  -3.969038e+05
   1.098551e+06  -2.292357e+05
   1.991952e+06   3.033365e+05
   1.617020e+06   9.895391e+05
   5.346555e+04   1.369521e+06
  -1.483493e+06   1.110805e+06
  -1.797416e+06   3.427066e+05
  -8.724416e+05  -3.747837e+05
   2.114342e+05  -5.132336e+05
   4.811747e+05  -8.417218e+04
  -5.325259e+03   3.465545e+05
  -4.831652e+05   2.335441e+05
  -4.661741e+05  -3.463063e+05
  -1.595840e+05  -7.474345e+05
  -9.353692e+03  -4.830927e+05
  -1.507503e+05   1.562373e+05
  -3.534200e+05   3.663865e+05
  -2.929349e+05  -2.242023e+05
   1.908080e+05  -1.016933e+06
   8.997270e+05  -1.048263e+06
   1.257885e+06  -1.154831e+05
   7.454127e+05   9.188485e+05
  -4.172218e+05   1.056719e+06
  -1.198202e+06   2.496419e+05
  -7.181758e+05  -6.058792e+05
   6.846360e+05  -6.669730e+05
   1.635809e+06   5.381240e+04
   1.126366e+06   8.521473e+05
  -4.060875e+05   1.069521e+06
  -1.537515e+06   5.997307e+05
  -1.322216e+06  -1.344563e+05
  -1.779533e+05  -5.407005e+05
   6.457736e+05  -3.111763e+05
   3.584685e+05   2.684724e+05
  -6.294235e+05   4.788348e+05
  -1.178595e+06  -1.509941e+05
  -5.900815e+05  -1.221633e+06
   6.931403e+05  -1.674286e+06
   1.541579e+06  -8.237636e+05
   1.256633e+06   8.045775e+05
   1.801650e+05   1.830997e+06
  -7.611306e+05   1.349303e+06
  -9.538286e+05  -1.327027e+05
  -4.848188e+05  -1.204991e+06
   1.608593e+05  -1.023426e+06
   5.505608e+05  -1.126158e+05
   5.197648e+05   3.997822e+05
   2.196205e+05   1.612748e+05
   2.941623e+04  -1.148343e+05
   2.039466e+05   2.581038e+05
   4.813437e+05   9.638402e+05
   2.531285e+05   1.110215e+06
  -6.505481e+05   4.124216e+05
  -1.502915e+06  -4.831171e+05
  -1.354950e+06  -8.594459e+05
  -1.915510e+05  -6.961309e+05
   9.210938e+05  -4.099766e+05
   1.019968e+06  -1.978345e+05
   3.216052e+05   2.134093e+04
  -1.696809e+05   2.206616e+05
   2.345828e+04   2.426035e+05
   3.321016e+05   1.375472e+05
   2.399302e+04   1.378314e+05
  -7.411660e+05   2.035509e+05
  -1.049127e+06  -4.127099e+04
  -3.351726e+05  -6.879457e+05
   9.228324e+05  -1.139469e+06
   1.679624e+06  -7.017267e+05
   1.339981e+06   4.830943e+05
   2.370736e+05   1.434245e+06
  -7.717751e+05   1.361988e+06
  -1.062915e+06   4.895470e+05
  -6.672077e+05  -2.777728e+05
  -1.041891e+05  -3.610829e+05
   1.241436e+05  -2.618304e+04
  -6.439021e+04   5.972301e+04
  -3.300070e+05  -3.577201e+05
  -2.661937e+05  -8.207650e+05
   2.003962e+05  -6.705962e+05
   6.967715e+05   1.714537e+05
   6.981027e+05   1.007609e+06
   4.019770e+04   1.033232e+06
  -7.957832e+05   1.836564e+05
  -1.015650e+06  -7.908431e+05
  -3.020920e+05  -1.099374e+06
   7.349618e+05  -6.334352e+05
   1.099876e+06   1.030125e+05
   4.996867e+05   5.838329e+05
  -2.906799e+05   6.301996e+05
  -3.400077e+05   3.577984e+05
   2.997396e+05   3.480725e+04
   6.696441e+05  -2.323051e+04
   1.274833e+05   3.018944e+05
  -8.421249e+05   6.835492e+05
  -1.236986e+06   5.723819e+05
  -7.195790e+05  -1.448665e+05
   1.106319e+05  -8.565465e+05
   5.219629e+05  -8.403234e+05
   3.791950e+05  -1.249729e+05
   2.080246e+04   5.038965e+05
  -2.545747e+05   4.091562e+05
  -3.542039e+05  -1.975835e+05
  -2.427601e+05  -5.874411e+05
   6.792479e+04  -3.892396e+05
   3.913088e+05   6.922169e+04
   4.632408e+05   2.567887e+05
   2.449751e+05   7.216602e+04
  -1.235879e+04  -1.155518e+05
  -8.660040e+04   2.805617e+04
  -5.592261e+04   3.823325e+05
  -1.420863e+05   5.007484e+05
  -3.481283e+05   1.337823e+05
  -3.959216e+05  -4.380904e+05
  -7.115635e+04  -6.584474e+05
   4.374206e+05  -2.894499e+05
   6.362427e+05   3.180015e+05
   2.256645e+05   5.988373e+05
  -5.032346e+05   3.573048e+05
  -8.630319e+05  -1.052731e+05
  -4.660378e+05  -3.875372e+05
   2.995808e+05  -3.675349e+05
   6.338743e+05  -1.826628e+05
   2.181682e+05  -1.047580e+04
  -3.967181e+05   2.649472e+04
  -4.269571e+05  -1.195877e+05
   2.145417e+05  -3.191152e+05
   8.186819e+05  -2.595598e+05
