
 $NMID
 id='ANONYMOUS ', fmtdat='(2E16.6)'
 volume=1.0
 tramp=1.0
 $END
  -2.549367e+07  -7.386073e+05
  -1.570114e+07  -1.426491e+07
   2.172368e+06  -1.654996e+07
   1.187483e+07  -8.351952e+06
   8.240119e+06   1.183896e+06
  -5.504218e+05   4.347569e+06
  -4.780608e+06   8.085174e+05
  -2.503595e+06  -4.259423e+06
   2.059455e+06  -5.592560e+06
   4.587939e+06  -1.952775e+06
   3.608781e+06   3.152126e+06
   3.596132e+05   4.676834e+06
  -2.202096e+06   1.135404e+06
  -1.570449e+06  -3.529817e+06
   1.646795e+06  -4.108388e+06
   3.916735e+06   1.212885e+05
   2.509088e+06   4.877046e+06
  -1.553711e+06   5.830853e+06
  -4.810938e+06   2.741900e+06
  -4.923220e+06  -1.355394e+06
  -2.444855e+06  -3.597823e+06
   1.757614e+05  -3.368373e+06
   7.957946e+05  -2.048220e+06
  -5.477142e+05  -1.512436e+06
  -1.473911e+06  -2.359180e+06
   3.062753e+05  -3.205432e+06
   3.934451e+06  -2.218729e+06
   5.748662e+06   4.848715e+05
   3.483977e+06   2.691982e+06
  -7.565758e+05   2.603728e+06
  -2.843603e+06   7.332461e+05
  -1.325448e+06  -1.013622e+06
   1.452077e+06  -1.304733e+06
   2.567835e+06  -5.114044e+04
   1.470672e+06   1.862432e+06
  -3.603195e+05   2.852079e+06
  -1.374072e+06   1.682417e+06
  -1.059647e+06  -7.791781e+05
  -2.211415e+04  -1.797586e+06
   4.798112e+05  -4.196610e+04
  -3.142865e+05   2.168834e+06
  -1.552637e+06   1.583573e+06
  -1.430267e+06  -1.399572e+06
   5.453991e+05  -2.893337e+06
   2.515391e+06  -6.386090e+05
   2.159345e+06   2.926167e+06
  -6.324360e+05   3.769797e+06
  -3.501401e+06   1.098306e+06
  -3.921714e+06  -2.239722e+06
  -1.485843e+06  -3.344076e+06
   1.821935e+06  -1.889879e+06
   3.308696e+06   4.294342e+05
   1.870301e+06   1.755238e+06
  -9.355945e+05   1.306055e+06
  -2.325529e+06  -2.190907e+05
  -1.178967e+06  -1.210380e+06
   7.886421e+05  -7.126434e+05
   1.168880e+06   4.867411e+05
  -2.189569e+05   8.211945e+05
  -1.295323e+06  -1.002168e+05
  -4.604010e+05  -1.125184e+06
   1.500902e+06  -1.072113e+06
   2.479490e+06   1.097885e+05
   1.346460e+06   1.684943e+06
  -1.142227e+06   2.784281e+06
  -3.237504e+06   2.552429e+06
  -3.600094e+06   6.141519e+05
  -2.197191e+06  -2.060796e+06
  -2.602230e+05  -3.527254e+06
   7.953841e+05  -2.850676e+06
   6.933591e+05  -1.249297e+06
   4.167935e+05  -5.346982e+05
   8.748229e+05  -8.239478e+05
   1.756840e+06  -6.881710e+05
   1.988634e+06   5.881180e+05
   1.056672e+06   1.890031e+06
  -4.624336e+05   1.707255e+06
  -1.492342e+06   1.270110e+04
  -1.266330e+06  -1.723402e+06
   1.846927e+05  -2.051070e+06
   1.897396e+06  -7.667826e+05
   2.508412e+06   1.100830e+06
   1.477201e+06   2.228168e+06
  -2.200411e+05   2.066698e+06
  -1.109577e+06   1.206268e+06
  -9.610326e+05   6.357594e+05
  -9.427580e+05   6.226000e+05
  -1.857054e+06   5.070220e+05
  -2.836375e+06  -3.646148e+05
  -2.330122e+06  -1.769152e+06
  -1.101719e+05  -2.783042e+06
   2.259897e+06  -2.618635e+06
   2.982846e+06  -1.234027e+06
   1.746254e+06   5.802881e+05
  -1.255613e+05   1.618547e+06
  -9.940768e+05   1.178887e+06
  -3.556174e+05  -1.313626e+05
   8.376716e+05  -8.370265e+05
   1.231013e+06  -2.193140e+05
   4.793631e+05   7.818984e+05
  -4.562140e+05   7.678959e+05
  -4.652756e+05  -2.328746e+05
   4.489397e+05  -7.391247e+05
   1.237026e+06   2.521556e+05
   9.630993e+05   1.926065e+06
  -3.462401e+05   2.568925e+06
  -1.854617e+06   1.449784e+06
  -2.577554e+06  -5.560291e+05
  -1.990405e+06  -1.970996e+06
  -4.395447e+05  -2.008052e+06
   9.437676e+05  -1.030949e+06
   1.147301e+06  -8.535341e+04
   3.399986e+05   3.556804e+04
  -2.505692e+05  -5.126888e+05
   2.241941e+05  -8.469644e+05
   1.178828e+06  -3.776206e+05
   1.327625e+06   4.966195e+05
   3.219238e+05   8.782071e+05
  -7.737273e+05   4.291900e+05
  -7.156044e+05  -2.992180e+05
   5.052557e+05  -5.275860e+05
   1.642747e+06   8.415207e+03
   1.465304e+06   9.280651e+05
  -3.670661e+04   1.534703e+06
  -1.622749e+06   1.277810e+06
  -1.944816e+06   2.239034e+05
  -8.195762e+05  -8.156157e+05
   5.954313e+05  -9.294160e+05
   9.576925e+05  -9.576031e+04
   6.847128e+04   6.831307e+05
  -1.024211e+06   4.781447e+05
  -1.191987e+06  -4.868784e+05
  -3.352015e+05  -1.125519e+06
   6.639238e+05  -7.789266e+05
   8.973056e+05   8.432248e+04
   2.661180e+05   4.942603e+05
  -4.847564e+05   5.649714e+04
  -4.765939e+05  -7.106454e+05
   4.311926e+05  -9.608270e+05
   1.398336e+06  -3.270636e+05
   1.379304e+06   7.534904e+05
   2.545552e+05   1.414671e+06
  -9.581731e+05   1.125378e+06
  -1.173706e+06   1.812593e+05
  -3.883534e+05  -5.774301e+05
   4.326929e+05  -5.824253e+05
   5.020067e+05  -4.618496e+04
  -2.622388e+04   3.608549e+05
  -4.277297e+05   2.628969e+05
  -2.690121e+05  -7.111924e+04
   2.106409e+05  -1.020066e+05
   4.080910e+05   3.351126e+05
  -5.373585e+04   7.950109e+05
  -9.224985e+05   6.405851e+05
  -1.437058e+06  -2.739222e+05
  -1.000894e+06  -1.341881e+06
   1.602488e+05  -1.702261e+06
   1.138621e+06  -1.059201e+06
   1.256139e+06   2.562862e+04
   7.223824e+05   7.008477e+05
   2.628979e+05   6.460627e+05
   2.321480e+05   2.756979e+05
   3.115112e+05   1.766765e+05
   4.174778e+04   4.502357e+05
  -5.694602e+05   6.438412e+05
  -1.027780e+06   2.891517e+05
  -8.180011e+05  -5.232665e+05
   1.150410e+05  -1.113887e+06
   1.208174e+06  -8.157223e+05
   1.602719e+06   3.196308e+05
   8.425491e+05   1.441122e+06
  -6.146047e+05   1.632244e+06
  -1.697538e+06   7.757212e+05
  -1.677572e+06  -3.620041e+05
  -8.028886e+05  -9.256713e+05
   6.611217e+04  -7.765903e+05
   3.553089e+05  -4.676126e+05
   2.139782e+05  -5.130012e+05
   1.563631e+05  -8.131040e+05
   4.460150e+05  -8.194831e+05
   8.515451e+05  -1.912256e+05
   9.025012e+05   7.677862e+05
   3.662644e+05   1.327312e+06
  -4.535653e+05   9.979682e+05
  -9.047459e+05   1.355442e+04
  -5.869685e+05  -8.492219e+05
   2.018613e+05  -9.603311e+05
   7.210530e+05  -3.654871e+05
   5.479852e+05   3.504658e+05
   3.969999e+03   6.685082e+05
  -2.554014e+05   5.562729e+05
  -1.100217e+04   3.369373e+05
   2.777514e+05   2.622843e+05
   2.551580e+04   2.779120e+05
  -7.571632e+05   1.564265e+05
  -1.374075e+06  -2.153081e+05
  -1.119000e+06  -6.860784e+05
  -4.073305e+04  -9.405202e+05
   1.023493e+06  -7.602440e+05
   1.242971e+06  -2.390983e+05
   6.037322e+05   2.479570e+05
  -1.454355e+05   3.476748e+05
  -3.286626e+05   6.131036e+04
   1.205449e+04  -2.341179e+05
   3.415838e+05  -1.599451e+05
   3.212520e+05   2.429385e+05
   9.989035e+04   5.266485e+05
  -4.002354e+03   3.402697e+05
   1.032973e+05  -1.154595e+05
   2.505927e+05  -2.656976e+05
   2.046476e+05   1.540521e+05
  -1.383462e+05   7.114832e+05
  -6.280530e+05   7.245010e+05
  -8.656357e+05   6.600057e+04
  -5.042560e+05  -6.457268e+05
   2.966191e+05  -7.241386e+05
   8.306715e+05  -1.578217e+05
   4.971835e+05   4.270772e+05
  -4.743057e+05   4.626985e+05
  -1.139165e+06  -3.430422e+04
  -7.931678e+05  -5.871706e+05
   2.717519e+05  -7.468332e+05
   1.067536e+06  -4.284677e+05
   9.253056e+05   8.557412e+04
   1.286222e+05   3.768002e+05
  -4.468964e+05   2.192343e+05
  -2.442735e+05  -1.858602e+05
   4.458196e+05  -3.284580e+05
   8.215660e+05   1.163185e+05
   3.992779e+05   8.592062e+05
  -4.997859e+05   1.163125e+06
  -1.083135e+06   5.634620e+05
  -8.729747e+05  -5.679482e+05
  -1.193569e+05  -1.277940e+06
   5.317955e+05  -9.425932e+05
   6.631030e+05   8.787875e+04
   3.407300e+05   8.367879e+05
  -1.042476e+05   7.138679e+05
  -3.797095e+05   7.979014e+04
  -3.677897e+05  -2.787768e+05
  -1.603938e+05  -1.125149e+05
  -1.739093e+04   8.098829e+04
  -1.295926e+05  -1.793731e+05
  -3.279826e+05  -6.719958e+05
  -1.821328e+05  -7.722781e+05
   4.440195e+05  -2.832560e+05
   1.046778e+06   3.404465e+05
   9.490913e+05   5.992412e+05
   1.317876e+05   4.831500e+05
  -6.498425e+05   2.846207e+05
  -7.124466e+05   1.385045e+05
  -2.163879e+05  -1.385919e+04
   1.219606e+05  -1.534153e+05
  -2.532912e+04  -1.698669e+05
  -2.415346e+05  -9.809967e+04
  -1.320927e+04  -9.793186e+04
   5.275465e+05  -1.395412e+05
   7.304979e+05   3.564390e+04
   2.174324e+05   4.839271e+05
  -6.574963e+05   7.880105e+05
  -1.169061e+06   4.733947e+05
  -9.223519e+05  -3.509120e+05
  -1.565738e+05  -1.002627e+06
   5.415663e+05  -9.416548e+05
   7.442812e+05  -3.308102e+05
   4.668312e+05   2.003923e+05
   6.742883e+04   2.532403e+05
  -9.607736e+04   1.561231e+04
   3.993938e+04  -4.614169e+04
   2.314884e+05   2.461988e+05
   1.856658e+05   5.713566e+05
  -1.448589e+05   4.652071e+05
  -4.887048e+05  -1.274668e+05
  -4.791472e+05  -7.125942e+05
  -1.371329e+04  -7.226698e+05
   5.634364e+05  -1.183003e+05
   7.041819e+05   5.639940e+05
   1.998794e+05   7.687556e+05
  -5.184649e+05   4.323020e+05
  -7.624501e+05  -8.058366e+04
  -3.385790e+05  -4.050046e+05
   2.075486e+05  -4.299588e+05
   2.323175e+05  -2.433813e+05
  -2.171326e+05  -2.558554e+04
  -4.689177e+05   1.281319e+04
  -8.427217e+04  -2.103594e+05
   5.891585e+05  -4.734237e+05
   8.554528e+05  -3.963432e+05
   4.907110e+05   1.011465e+05
  -8.277550e+04   5.933744e+05
  -3.619447e+05   5.772721e+05
  -2.592871e+05   7.694791e+04
  -9.426180e+03  -3.557163e+05
   1.821861e+05  -2.802902e+05
   2.488516e+05   1.457699e+05
   1.654236e+05   4.109702e+05
  -5.337024e+04   2.653646e+05
  -2.731446e+05  -5.313865e+04
  -3.172538e+05  -1.772682e+05
  -1.685350e+05  -4.721174e+04
   2.581557e+03   7.661585e+04
   5.599669e+04  -3.006711e+04
   4.842900e+04  -2.741612e+05
   1.176625e+05  -3.459906e+05
   2.523360e+05  -8.083313e+04
   2.678800e+05   3.187389e+05
   3.477949e+04   4.648643e+05
  -3.108853e+05   1.975258e+05
  -4.389185e+05  -2.309144e+05
  -1.519225e+05  -4.223743e+05
   3.506163e+05  -2.446564e+05
   5.978754e+05   8.220128e+04
   3.208074e+05   2.732341e+05
  -2.125718e+05   2.494547e+05
  -4.431718e+05   1.170744e+05
  -1.470759e+05   2.938037e+03
   2.862904e+05  -1.397288e+04
   3.028829e+05   9.195960e+04
  -1.554108e+05   2.283176e+05
  -5.818890e+05   1.805043e+05
