
 $NMID
 id='ANONYMOUS ', fmtdat='(2E16.6)'
 volume=1.0
 tramp=1.0
 $END
  -4.074474e+07   2.267694e+06
  -2.685989e+07  -2.202240e+07
   2.156123e+06  -2.741685e+07
   1.874298e+07  -1.379426e+07
   1.322082e+07   2.329726e+06
  -9.841557e+05   7.127239e+06
  -7.604034e+06   9.379379e+05
  -3.754910e+06  -6.860212e+06
   3.366967e+06  -8.474281e+06
   7.174163e+06  -2.963333e+06
   5.803668e+06   4.486004e+06
   9.858001e+05   6.948424e+06
  -3.119297e+06   2.072247e+06
  -2.485695e+06  -4.860211e+06
   2.407726e+06  -6.056443e+06
   6.152975e+06   1.077095e+05
   4.224140e+06   7.446120e+06
  -1.999377e+06   9.238135e+06
  -7.246297e+06   4.865618e+06
  -7.941134e+06  -1.329183e+06
  -4.645898e+06  -5.235174e+06
  -5.292249e+05  -5.664189e+06
   1.229023e+06  -3.911449e+06
  -1.219351e+05  -2.442080e+06
  -1.754341e+06  -2.919333e+06
   1.013776e+05  -4.254283e+06
   5.139359e+06  -3.581707e+06
   8.251740e+06  -8.527418e+04
   5.549843e+06   3.432171e+06
  -4.103185e+05   3.890208e+06
  -3.645672e+06   1.559137e+06
  -1.914120e+06  -8.597086e+05
   1.596307e+06  -1.477984e+06
   3.103690e+06  -1.970986e+05
   2.042078e+06   2.136098e+06
  -2.002530e+04   3.805505e+06
  -1.638226e+06   2.789448e+06
  -1.903781e+06  -5.818777e+05
  -6.937231e+05  -2.633415e+06
   5.221148e+05  -6.209003e+05
  -1.550171e+05   2.752703e+06
  -2.127023e+06   2.292691e+06
  -2.261209e+06  -2.161910e+06
   9.020756e+05  -4.725841e+06
   4.379739e+06  -1.325584e+06
   3.937178e+06   4.528676e+06
  -6.993413e+05   6.206207e+06
  -5.386574e+06   2.138220e+06
  -6.007271e+06  -3.131309e+06
  -2.243857e+06  -4.917161e+06
   2.664426e+06  -2.775769e+06
   4.813795e+06   6.404691e+05
   2.683531e+06   2.627557e+06
  -1.499661e+06   2.036807e+06
  -3.612020e+06  -2.528481e+05
  -1.850150e+06  -1.867406e+06
   1.186739e+06  -1.173680e+06
   1.685503e+06   6.999840e+05
  -5.675291e+05   1.158881e+06
  -2.108784e+06  -4.745067e+05
  -4.906948e+05  -2.157646e+06
   2.687376e+06  -1.873494e+06
   4.028406e+06   2.152317e+05
   2.188764e+06   2.668049e+06
  -1.375236e+06   4.277337e+06
  -4.344808e+06   4.054112e+06
  -5.158093e+06   1.363629e+06
  -3.561434e+06  -2.668498e+06
  -7.963402e+05  -5.124560e+06
   1.100063e+06  -4.234513e+06
   1.164191e+06  -1.667372e+06
   5.172346e+05  -4.331168e+05
   8.214349e+05  -1.011490e+06
   2.060948e+06  -1.185827e+06
   2.670200e+06   4.071399e+05
   1.633887e+06   2.289958e+06
  -3.809122e+05   2.235887e+06
  -1.877196e+06   9.679074e+04
  -1.764384e+06  -2.215494e+06
   7.402247e+04  -2.818463e+06
   2.546711e+06  -1.318535e+06
   3.736784e+06   1.206653e+06
   2.517576e+06   3.068278e+06
  -9.637118e+03   3.202745e+06
  -1.581706e+06   2.064469e+06
  -1.520794e+06   1.066235e+06
  -1.428052e+06   8.900165e+05
  -2.643419e+06   7.474492e+05
  -4.041465e+06  -4.059169e+05
  -3.372673e+06  -2.382879e+06
  -2.961926e+05  -3.884973e+06
   2.971715e+06  -3.774032e+06
   4.003087e+06  -1.949433e+06
   2.452494e+06   5.817937e+05
   3.232716e+04   2.179985e+06
  -1.199502e+06   1.723641e+06
  -5.004689e+05  -1.135424e+05
   1.073408e+06  -1.221800e+06
   1.724813e+06  -4.036998e+05
   7.786382e+05   1.060174e+06
  -5.500057e+05   1.077766e+06
  -5.904820e+05  -3.347799e+05
   7.376807e+05  -9.768028e+05
   1.828928e+06   5.477218e+05
   1.279981e+06   2.891415e+06
  -6.913623e+05   3.589656e+06
  -2.718566e+06   1.861107e+06
  -3.539874e+06  -8.629713e+05
  -2.679175e+06  -2.660396e+06
  -6.333207e+05  -2.694427e+06
   1.223382e+06  -1.460471e+06
   1.555214e+06  -2.012094e+05
   4.739983e+05   3.000259e+04
  -3.737608e+05  -7.019698e+05
   2.833270e+05  -1.229044e+06
   1.673390e+06  -6.127029e+05
   1.917286e+06   6.602070e+05
   4.821197e+05   1.252286e+06
  -1.071166e+06   6.252658e+05
  -9.664610e+05  -3.981205e+05
   7.322412e+05  -6.954351e+05
   2.250853e+06   3.839827e+04
   1.970995e+06   1.252529e+06
  -5.387371e+04   2.076251e+06
  -2.194286e+06   1.795753e+06
  -2.682403e+06   3.921156e+05
  -1.197840e+06  -1.113108e+06
   7.815945e+05  -1.373887e+06
   1.372572e+06  -2.140844e+05
   1.695365e+05   9.630250e+05
  -1.403976e+06   7.334307e+05
  -1.685877e+06  -6.387049e+05
  -4.814416e+05  -1.566784e+06
   9.351373e+05  -1.082838e+06
   1.255417e+06   1.317383e+05
   3.591263e+05   7.048374e+05
  -7.008793e+05   1.029941e+05
  -7.139626e+05  -9.662289e+05
   5.328364e+05  -1.362258e+06
   1.915065e+06  -5.451320e+05
   1.963452e+06   9.605272e+05
   4.336185e+05   1.959682e+06
  -1.288548e+06   1.622515e+06
  -1.635149e+06   2.994200e+05
  -5.547074e+05  -7.973980e+05
   5.841482e+05  -8.222977e+05
   6.652984e+05  -8.495131e+04
  -5.760403e+04   4.598090e+05
  -5.574107e+05   3.221966e+05
  -2.919245e+05  -9.821643e+04
   3.523361e+05  -9.647250e+04
   5.789098e+05   5.094717e+05
  -7.088189e+04   1.130763e+06
  -1.267222e+06   9.315766e+05
  -2.013310e+06  -3.129331e+05
  -1.464657e+06  -1.812826e+06
   1.346496e+05  -2.359606e+06
   1.528934e+06  -1.490683e+06
   1.716043e+06   1.009062e+04
   9.721646e+05   9.181557e+05
   3.538945e+05   8.039210e+05
   3.637216e+05   3.039814e+05
   5.008617e+05   2.317956e+05
   1.000891e+05   6.558803e+05
  -7.781774e+05   9.192161e+05
  -1.410858e+06   4.211846e+05
  -1.119112e+06  -6.879934e+05
   1.433220e+05  -1.515027e+06
   1.639686e+06  -1.159152e+06
   2.223511e+06   3.758072e+05
   1.219075e+06   1.971846e+06
  -8.075246e+05   2.311271e+06
  -2.353894e+06   1.144248e+06
  -2.338285e+06  -4.658343e+05
  -1.099673e+06  -1.263528e+06
   1.022054e+05  -1.037699e+06
   4.465338e+05  -6.055217e+05
   1.989788e+05  -7.063155e+05
   1.259472e+05  -1.166955e+06
   5.760898e+05  -1.195527e+06
   1.188556e+06  -3.279045e+05
   1.300490e+06   1.008151e+06
   5.830449e+05   1.814969e+06
  -5.688278e+05   1.404710e+06
  -1.250964e+06   5.636534e+04
  -8.524326e+05  -1.170117e+06
   2.611624e+05  -1.355573e+06
   1.031117e+06  -5.172905e+05
   8.019960e+05   5.162198e+05
   9.479811e+03   9.737527e+05
  -3.801508e+05   7.938048e+05
  -2.572853e+04   4.527792e+05
   4.054286e+05   3.340409e+05
   5.510888e+04   3.772440e+05
  -1.062392e+06   2.557837e+05
  -1.945764e+06  -2.288055e+05
  -1.593398e+06  -9.099505e+05
  -8.119342e+04  -1.336365e+06
   1.413300e+06  -1.131186e+06
   1.731311e+06  -3.778087e+05
   8.513108e+05   3.593096e+05
  -1.941912e+05   5.158023e+05
  -4.699164e+05   8.807432e+04
  -1.783896e+04  -3.477909e+05
   4.480252e+05  -2.441478e+05
   4.637239e+05   3.164678e+05
   1.971791e+05   7.046775e+05
   4.324431e+04   4.596963e+05
   1.405418e+05  -1.417723e+05
   3.166471e+05  -3.450820e+05
   2.864223e+05   2.089659e+05
  -1.411556e+05   9.770614e+05
  -8.310190e+05   1.043861e+06
  -1.227281e+06   1.717129e+05
  -7.716082e+05  -8.537695e+05
   3.617921e+05  -1.049873e+06
   1.154278e+06  -3.027985e+05
   7.138503e+05   5.518898e+05
  -6.424526e+05   6.624305e+05
  -1.570229e+06  -9.446890e+03
  -1.088047e+06  -7.930606e+05
   3.774884e+05  -1.030935e+06
   1.460193e+06  -6.001836e+05
   1.262325e+06   1.032258e+05
   1.782773e+05   5.118426e+05
  -6.153172e+05   3.122654e+05
  -3.616909e+05  -2.510571e+05
   5.781089e+05  -4.898772e+05
   1.138037e+06   8.971235e+04
   6.261065e+05   1.143613e+06
  -5.861634e+05   1.637722e+06
  -1.441164e+06   8.570785e+05
  -1.235665e+06  -7.222395e+05
  -2.384098e+05  -1.748620e+06
   6.868152e+05  -1.312479e+06
   9.200671e+05   1.078281e+05
   4.945781e+05   1.145688e+06
  -1.379258e+05   9.829320e+05
  -5.315575e+05   1.210380e+05
  -5.004538e+05  -3.659989e+05
  -2.023013e+05  -1.458988e+05
  -3.032792e+04   1.082366e+05
  -2.259157e+05  -2.462040e+05
  -5.036332e+05  -9.119640e+05
  -2.644696e+05  -1.058255e+06
   6.300186e+05  -4.194141e+05
   1.457599e+06   4.124514e+05
   1.315885e+06   7.822061e+05
   2.067941e+05   6.658207e+05
  -8.569499e+05   4.245351e+05
  -9.690302e+05   2.191587e+05
  -3.227011e+05  -1.504435e+04
   1.497614e+05  -2.182488e+05
  -1.349450e+04  -2.276089e+05
  -3.050953e+05  -1.148338e+05
  -3.435169e+04  -1.291358e+05
   6.853174e+05  -2.247357e+05
   1.010638e+06  -3.786547e+03
   3.724231e+05   6.464707e+05
  -8.271460e+05   1.135209e+06
  -1.597281e+06   7.503434e+05
  -1.324150e+06  -4.012382e+05
  -2.862699e+05  -1.365163e+06
   6.951599e+05  -1.343621e+06
   1.001371e+06  -5.209303e+05
   6.468781e+05   2.335649e+05
   1.207123e+05   3.418870e+05
  -1.016644e+05   3.651949e+04
   6.755840e+04  -4.953919e+04
   3.234984e+05   3.384383e+05
   2.791783e+05   7.805326e+05
  -1.636813e+05   6.546716e+05
  -6.702037e+05  -1.284407e+05
  -7.156996e+05  -9.291971e+05
  -9.561063e+04  -9.892330e+05
   7.445713e+05  -2.196865e+05
   1.007565e+06   7.062361e+05
   3.421646e+05   1.043681e+06
  -6.773274e+05   6.475182e+05
  -1.067697e+06  -5.144583e+04
  -5.135609e+05  -5.512872e+05
   2.536676e+05  -6.312876e+05
   3.257402e+05  -3.628729e+05
  -2.736666e+05  -1.978913e+04
  -6.382735e+05   4.891209e+04
  -1.394414e+05  -2.870404e+05
   7.841427e+05  -6.862973e+05
   1.182105e+06  -5.880143e+05
   7.138640e+05   1.205567e+05
  -7.165949e+04   8.327411e+05
  -4.814867e+05   8.357961e+05
  -3.718551e+05   1.480083e+05
  -4.532362e+04  -4.757348e+05
   2.247252e+05  -4.100298e+05
   3.441279e+05   1.637460e+05
   2.573964e+05   5.543504e+05
  -4.441409e+04   3.877124e+05
  -3.779279e+05  -4.586062e+04
  -4.614212e+05  -2.373380e+05
  -2.400657e+05  -6.822081e+04
   2.510763e+04   1.193458e+05
   8.706170e+04  -9.081207e+03
   2.295214e+04  -3.570540e+05
   8.854804e+04  -4.952067e+05
   3.158430e+05  -1.638424e+05
   4.110396e+05   3.863974e+05
   1.162707e+05   6.227065e+05
  -4.011175e+05   2.998289e+05
  -6.303170e+05  -2.705373e+05
  -2.452880e+05  -5.599445e+05
   4.734080e+05  -3.653775e+05
   8.397771e+05   6.046237e+04
   4.664786e+05   3.533296e+05
  -2.715675e+05   3.745180e+05
  -6.029083e+05   2.127385e+05
  -2.191122e+05   2.285807e+04
   3.632690e+05  -4.807955e+04
   4.058041e+05   8.501145e+04
  -1.839847e+05   3.033469e+05
  -7.569942e+05   2.769878e+05
