
 $NMID
 id='ANONYMOUS ', fmtdat='(2E16.6)'
 volume=1.0
 tramp=1.0
 $END
  -2.745735e+07   2.654887e+06
  -1.874037e+07  -1.397293e+07
   6.048230e+05  -1.848036e+07
   1.215579e+07  -9.948944e+06
   8.980740e+06   1.030274e+06
  -3.898699e+05   4.817026e+06
  -5.084509e+06   9.557159e+05
  -2.811960e+06  -4.471246e+06
   1.933903e+06  -5.886098e+06
   4.738359e+06  -2.285476e+06
   4.087530e+06   2.869821e+06
   8.898430e+05   4.714937e+06
  -2.075751e+06   1.493710e+06
  -1.877249e+06  -3.269481e+06
   1.410350e+06  -4.233398e+06
   4.164768e+06  -1.489486e+05
   3.107924e+06   4.905708e+06
  -1.056716e+06   6.321447e+06
  -4.764578e+06   3.505194e+06
  -5.413726e+06  -6.963663e+05
  -3.255391e+06  -3.431275e+06
  -4.696466e+05  -3.785786e+06
   7.029070e+05  -2.611476e+06
  -2.569005e+05  -1.620892e+06
  -1.378460e+06  -1.983716e+06
  -6.678907e+04  -2.977599e+06
   3.460192e+06  -2.628064e+06
   5.683290e+06  -2.900640e+05
   3.890647e+06   2.203522e+06
  -2.145943e+05   2.686082e+06
  -2.508488e+06   1.164299e+06
  -1.362772e+06  -5.884059e+05
   1.087566e+06  -1.140715e+06
   2.199429e+06  -2.591612e+05
   1.510735e+06   1.450781e+06
   8.395889e+04   2.663585e+06
  -1.065402e+06   1.943321e+06
  -1.297224e+06  -4.005612e+05
  -4.974539e+05  -1.791472e+06
   3.694792e+05  -3.815301e+05
  -2.411581e+04   1.949282e+06
  -1.382502e+06   1.659422e+06
  -1.608942e+06  -1.380615e+06
   4.313016e+05  -3.206068e+06
   2.869234e+06  -1.013152e+06
   2.770388e+06   2.933889e+06
  -2.802657e+05   4.195443e+06
  -3.583424e+06   1.602977e+06
  -4.204621e+06  -1.931290e+06
  -1.719765e+06  -3.275332e+06
   1.714246e+06  -2.003094e+06
   3.322221e+06   2.464337e+05
   1.945059e+06   1.683536e+06
  -9.327247e+05   1.433967e+06
  -2.457509e+06  -4.430111e+04
  -1.321981e+06  -1.196099e+06
   7.649161e+05  -8.328715e+05
   1.184311e+06   4.132606e+05
  -3.110132e+05   8.139800e+05
  -1.426785e+06  -2.068677e+05
  -4.298622e+05  -1.389327e+06
   1.712857e+06  -1.337440e+06
   2.714642e+06  -7.546791e+03
   1.570734e+06   1.720509e+06
  -8.144981e+05   2.964143e+06
  -2.870329e+06   2.916536e+06
  -3.501818e+06   1.082020e+06
  -2.508830e+06  -1.737547e+06
  -6.968066e+05  -3.490836e+06
   5.953950e+05  -2.935075e+06
   7.084974e+05  -1.202929e+06
   3.393996e+05  -3.622385e+05
   5.737404e+05  -7.602139e+05
   1.430835e+06  -8.836977e+05
   1.884304e+06   2.229550e+05
   1.209794e+06   1.563157e+06
  -2.019018e+05   1.584714e+06
  -1.320135e+06   1.386005e+05
  -1.313361e+06  -1.481629e+06
  -4.112639e+04  -1.958991e+06
   1.723976e+06  -9.844559e+05
   2.607028e+06   7.298494e+05
   1.805040e+06   2.033430e+06
   7.655013e+04   2.178414e+06
  -1.014178e+06   1.439494e+06
  -9.883966e+05   7.698893e+05
  -9.357967e+05   6.665275e+05
  -1.788726e+06   6.166494e+05
  -2.798265e+06  -1.316715e+05
  -2.411609e+06  -1.522236e+06
  -3.438617e+05  -2.673294e+06
   1.924675e+06  -2.715275e+06
   2.710675e+06  -1.483373e+06
   1.720654e+06   3.315712e+05
   8.638751e+04   1.519128e+06
  -7.840443e+05   1.233582e+06
  -3.513214e+05  -6.694896e+04
   7.049184e+05  -8.825524e+05
   1.175727e+06  -3.360556e+05
   5.672813e+05   7.069638e+05
  -3.469011e+05   7.677819e+05
  -4.282531e+05  -2.040919e+05
   4.536532e+05  -7.079589e+05
   1.265889e+06   2.815479e+05
   1.003503e+06   1.915872e+06
  -3.047272e+05   2.499455e+06
  -1.779662e+06   1.412268e+06
  -2.483489e+06  -4.391150e+05
  -1.972578e+06  -1.736370e+06
  -5.470002e+05  -1.848510e+06
   7.977793e+05  -1.057610e+06
   1.073476e+06  -1.928519e+05
   3.290292e+05   3.921736e+03
  -2.837191e+05  -4.716818e+05
   1.507223e+05  -8.544808e+05
   1.128744e+06  -4.790418e+05
   1.342665e+06   3.836900e+05
   3.786916e+05   8.420285e+05
  -7.155979e+05   4.717874e+05
  -6.876935e+05  -2.371137e+05
   4.726798e+05  -5.140617e+05
   1.559765e+06  -6.930381e+04
   1.421893e+06   7.879866e+05
   4.922629e+04   1.443583e+06
  -1.451010e+06   1.328903e+06
  -1.841802e+06   3.702892e+05
  -8.657817e+05  -7.242719e+05
   4.920353e+05  -9.715006e+05
   9.361943e+05  -1.922678e+05
   1.463726e+05   6.584954e+05
  -9.442679e+05   5.554079e+05
  -1.187759e+06  -3.781731e+05
  -3.943313e+05  -1.062658e+06
   6.001246e+05  -7.856379e+05
   8.709372e+05   3.814384e+04
   2.776216e+05   4.694514e+05
  -4.770162e+05   9.559272e+04
  -5.262759e+05  -6.426125e+05
   3.220560e+05  -9.609820e+05
   1.306863e+06  -4.435202e+05
   1.391770e+06   5.960603e+05
   3.692075e+05   1.339041e+06
  -8.311364e+05   1.166912e+06
  -1.118071e+06   2.672901e+05
  -4.138919e+05  -5.291400e+05
   3.724729e+05  -5.905334e+05
   4.607107e+05  -8.404562e+04
  -1.727037e+04   3.246016e+05
  -3.754793e+05   2.517039e+05
  -2.161198e+05  -5.381310e+04
   2.306334e+05  -8.509658e+04
   4.179293e+05   3.231725e+05
  -4.216873e+03   7.808310e+05
  -8.405874e+05   6.901705e+05
  -1.403309e+06  -1.434431e+05
  -1.077498e+06  -1.201426e+06
   8.090517e+03  -1.638698e+06
   1.002808e+06  -1.091097e+06
   1.190352e+06  -6.050177e+04
   7.146836e+05   6.009086e+05
   2.814219e+05   5.526947e+05
   2.606241e+05   2.065759e+05
   3.470732e+05   1.435037e+05
   8.954377e+04   4.464066e+05
  -5.026157e+05   6.639448e+05
  -9.603745e+05   3.463372e+05
  -8.045128e+05  -4.343638e+05
   3.859063e+04  -1.057171e+06
   1.091353e+06  -8.652613e+05
   1.553685e+06   1.778396e+05
   9.169877e+05   1.317804e+06
  -4.709731e+05   1.625156e+06
  -1.581925e+06   8.778171e+05
  -1.634290e+06  -2.315524e+05
  -8.137727e+05  -8.304628e+05
   2.582513e+04  -7.259909e+05
   2.886072e+05  -4.435114e+05
   1.211642e+05  -4.996720e+05
   5.229287e+04  -8.090735e+05
   3.565044e+05  -8.432293e+05
   8.087615e+05  -2.667387e+05
   9.350823e+05   6.523377e+05
   4.679386e+05   1.235876e+06
  -3.441456e+05   9.929109e+05
  -8.636691e+05   8.520274e+04
  -6.319821e+05  -7.758998e+05
   1.283167e+05  -9.448293e+05
   6.877008e+05  -3.972208e+05
   5.689227e+05   3.213680e+05
   4.435932e+04   6.665865e+05
  -2.276453e+05   5.603586e+05
   2.470547e+03   3.154692e+05
   2.920693e+05   2.187460e+05
   5.116013e+04   2.601074e+05
  -7.232874e+05   2.146886e+05
  -1.350772e+06  -8.900404e+04
  -1.133989e+06  -5.704195e+05
  -1.064155e+05  -9.166935e+05
   9.335344e+05  -8.295074e+05
   1.181297e+06  -3.254689e+05
   6.006148e+05   2.119919e+05
  -1.151264e+05   3.602320e+05
  -3.194094e+05   7.920423e+04
  -2.139110e+04  -2.376892e+05
   3.036110e+05  -1.849122e+05
   3.316340e+05   2.029380e+05
   1.582176e+05   4.839659e+05
   4.271466e+04   3.189072e+05
   9.116727e+04  -1.061518e+05
   2.080575e+05  -2.552559e+05
   2.062418e+05   1.334842e+05
  -6.400980e+04   6.837057e+05
  -5.380645e+05   7.513068e+05
  -8.400142e+05   1.574955e+05
  -5.599017e+05  -5.660586e+05
   2.149661e+05  -7.358101e+05
   7.874863e+05  -2.454114e+05
   5.138511e+05   3.581829e+05
  -4.195198e+05   4.817304e+05
  -1.087800e+06   5.287369e+04
  -7.863543e+05  -5.060431e+05
   2.186012e+05  -7.283867e+05
   9.873287e+05  -4.740880e+05
   8.796244e+05   2.125067e+04
   1.443818e+05   3.477880e+05
  -4.132544e+05   2.399136e+05
  -2.573804e+05  -1.602796e+05
   3.857048e+05  -3.588175e+05
   7.923258e+05   2.479485e+04
   4.713578e+05   7.730379e+05
  -3.527705e+05   1.155569e+06
  -9.709986e+05   6.430842e+05
  -8.820296e+05  -4.578448e+05
  -2.273634e+05  -1.203797e+06
   4.277648e+05  -9.357556e+05
   6.405175e+05   3.883383e+04
   3.860398e+05   7.740688e+05
  -5.590572e+04   6.859095e+05
  -3.620427e+05   1.037902e+05
  -3.625629e+05  -2.348764e+05
  -1.486106e+05  -9.326429e+04
  -1.561215e+04   7.636381e+04
  -1.602659e+05  -1.626347e+05
  -3.794944e+05  -6.136507e+05
  -2.247363e+05  -7.224386e+05
   4.171987e+05  -3.116349e+05
   1.025025e+06   2.334326e+05
   9.426551e+05   4.931278e+05
   1.670660e+05   4.529225e+05
  -5.814317e+05   3.257839e+05
  -6.639162e+05   1.880203e+05
  -2.208191e+05   1.535980e+03
   9.723026e+04  -1.567900e+05
  -2.163447e+04  -1.571069e+05
  -2.199682e+05  -6.875925e+04
  -2.711767e+04  -8.918026e+04
   4.712876e+05  -1.805909e+05
   7.000891e+05  -3.702480e+04
   2.753091e+05   4.368282e+05
  -5.374371e+05   8.152221e+05
  -1.079024e+06   5.722350e+05
  -9.281136e+05  -2.356205e+05
  -2.453228e+05  -9.369822e+05
   4.339223e+05  -9.535899e+05
   6.765496e+05  -3.936887e+05
   4.578991e+05   1.407291e+05
   9.410912e+04   2.333389e+05
  -7.327427e+04   2.841135e+04
   4.266574e+04  -3.847418e+04
   2.370908e+05   2.211360e+05
   2.222697e+05   5.301244e+05
  -9.149262e+04   4.589164e+05
  -4.707438e+05  -6.743142e+04
  -5.275897e+05  -6.220147e+05
  -9.693098e+04  -6.836138e+05
   5.119348e+05  -1.761075e+05
   7.233008e+05   4.576212e+05
   2.712944e+05   7.120682e+05
  -4.484438e+05   4.701199e+05
  -7.403536e+05  -1.060838e+02
  -3.719742e+05  -3.626721e+05
   1.550161e+05  -4.430712e+05
   2.106024e+05  -2.606300e+05
  -1.939190e+05  -3.697631e+03
  -4.415379e+05   5.616735e+04
  -1.052925e+05  -1.939470e+05
   5.189843e+05  -5.033475e+05
   7.945485e+05  -4.496814e+05
   4.944907e+05   5.774670e+04
  -2.141337e+04   5.783652e+05
  -3.023290e+05   5.932348e+05
  -2.505889e+05   1.117478e+05
  -4.709544e+04  -3.301148e+05
   1.428091e+05  -2.905897e+05
   2.457521e+05   1.040279e+05
   1.973235e+05   3.754072e+05
  -1.928889e+04   2.680757e+05
  -2.639614e+05  -1.983563e+04
  -3.260044e+05  -1.469282e+05
  -1.677660e+05  -3.719202e+04
   1.904625e+04   8.040909e+04
   5.759192e+04  -1.373179e+04
   6.289467e+03  -2.519645e+05
   5.105753e+04  -3.460667e+05
   2.175104e+05  -1.204684e+05
   2.963708e+05   2.585854e+05
   9.764047e+04   4.304237e+05
  -2.695898e+05   2.211044e+05
  -4.452898e+05  -1.682928e+05
  -1.886407e+05  -3.812825e+05
   3.146672e+05  -2.687970e+05
   5.829858e+05   1.475903e+04
   3.347264e+05   2.290740e+05
  -1.762306e+05   2.668803e+05
  -4.109479e+05   1.654516e+05
  -1.490940e+05   2.185964e+04
   2.542506e+05  -4.535750e+04
   2.869780e+05   4.723059e+04
  -1.184150e+05   2.197611e+05
  -5.190035e+05   2.203300e+05
