
 $NMID
 id='ANONYMOUS ', fmtdat='(2E16.6)'
 volume=1.0
 tramp=1.0
 $END
   2.808620e+07   1.317401e+06
   1.719551e+07   1.569062e+07
  -2.407644e+06   1.811275e+07
  -1.313116e+07   9.358990e+06
  -9.244928e+06  -1.077869e+06
   4.921020e+05  -4.823052e+06
   5.356081e+06  -1.065234e+06
   2.925608e+06   4.716701e+06
  -2.232560e+06   6.389507e+06
  -5.139344e+06   2.273951e+06
  -4.012072e+06  -3.591623e+06
  -3.228848e+05  -5.302223e+06
   2.509557e+06  -1.201618e+06
   1.733169e+06   4.103916e+06
  -1.880376e+06   4.708580e+06
  -4.387708e+06  -1.098567e+05
  -2.781299e+06  -5.470423e+06
   1.780473e+06  -6.502256e+06
   5.394867e+06  -2.965410e+06
   5.414170e+06   1.643869e+06
   2.544913e+06   4.034822e+06
  -3.206094e+05   3.609711e+06
  -8.032281e+05   2.135123e+06
   8.233611e+05   1.753667e+06
   1.739783e+06   2.886781e+06
  -4.819045e+05   3.756325e+06
  -4.637705e+06   2.404437e+06
  -6.562503e+06  -7.645244e+05
  -3.843037e+06  -3.164943e+06
   1.025677e+06  -2.898609e+06
   3.339088e+06  -6.738608e+05
   1.465091e+06   1.318123e+06
  -1.841970e+06   1.553933e+06
  -3.102728e+06  -3.564210e+04
  -1.663664e+06  -2.300383e+06
   5.725682e+05  -3.324259e+06
   1.638886e+06  -1.819866e+06
   1.077501e+06   9.959283e+05
  -1.353700e+05   1.996878e+06
  -5.391667e+05  -1.100778e+05
   4.784046e+05  -2.566809e+06
   1.822954e+06  -1.812595e+06
   1.616309e+06   1.559607e+06
  -5.461572e+05   3.209772e+06
  -2.672693e+06   7.082190e+05
  -2.311235e+06  -3.217073e+06
   7.116855e+05  -4.132410e+06
   3.901263e+06  -1.156289e+06
   4.423392e+06   2.579523e+06
   1.694769e+06   3.827800e+06
  -2.088938e+06   2.171509e+06
  -3.809937e+06  -4.880388e+05
  -2.174692e+06  -2.004652e+06
   1.021847e+06  -1.485398e+06
   2.611461e+06   2.409143e+05
   1.338747e+06   1.349568e+06
  -8.796830e+05   7.905846e+05
  -1.349639e+06  -5.611952e+05
   1.890740e+05  -9.791216e+05
   1.466932e+06   6.893650e+03
   6.302152e+05   1.178943e+06
  -1.567665e+06   1.205263e+06
  -2.755065e+06  -6.931433e+04
  -1.514785e+06  -1.862616e+06
   1.366515e+06  -3.121331e+06
   3.788284e+06  -2.817046e+06
   4.119302e+06  -5.803428e+05
   2.405527e+06   2.419618e+06
   1.955032e+05   4.021847e+06
  -9.198340e+05   3.257090e+06
  -7.758104e+05   1.495521e+06
  -5.411903e+05   6.949854e+05
  -1.142449e+06   9.480401e+05
  -2.127577e+06   6.925661e+05
  -2.297692e+06  -8.130345e+05
  -1.145339e+06  -2.279616e+06
   6.284393e+05  -1.996850e+06
   1.781617e+06   3.331304e+04
   1.447968e+06   2.062619e+06
  -2.763888e+05   2.382245e+06
  -2.216218e+06   8.110968e+05
  -2.826479e+06  -1.357005e+06
  -1.591897e+06  -2.572372e+06
   3.113467e+05  -2.300345e+06
   1.255954e+06  -1.308831e+06
   1.063489e+06  -7.090561e+05
   1.073974e+06  -7.258367e+05
   2.151739e+06  -5.738451e+05
   3.273990e+06   4.616606e+05
   2.667297e+06   2.087690e+06
   7.534889e+04   3.230928e+06
  -2.685586e+06   2.990434e+06
  -3.503067e+06   1.347829e+06
  -2.005650e+06  -7.414512e+05
   2.155660e+05  -1.884498e+06
   1.203864e+06  -1.331264e+06
   4.051981e+05   1.700753e+05
  -9.987002e+05   9.470511e+05
  -1.423199e+06   2.260808e+05
  -5.243381e+05  -9.094620e+05
   5.546314e+05  -8.825742e+05
   5.550044e+05   2.756485e+05
  -5.041539e+05   8.819579e+05
  -1.432211e+06  -2.427308e+05
  -1.146929e+06  -2.206826e+06
   3.659727e+05  -3.012834e+06
   2.154881e+06  -1.732785e+06
   3.026486e+06   6.483099e+05
   2.325704e+06   2.343257e+06
   4.844665e+05   2.369480e+06
  -1.128726e+06   1.182049e+06
  -1.342183e+06   6.818597e+04
  -3.949433e+05  -4.817069e+04
   2.812624e+05   5.994254e+05
  -2.687024e+05   9.700797e+05
  -1.359523e+06   4.143968e+05
  -1.524345e+06  -5.869672e+05
  -3.653685e+05  -1.013369e+06
   9.015844e+05  -4.872076e+05
   8.362415e+05   3.600152e+05
  -5.901759e+05   6.224579e+05
  -1.927386e+06  -1.922994e+04
  -1.715806e+06  -1.109390e+06
   5.852757e+04  -1.805106e+06
   1.916017e+06  -1.469378e+06
   2.268862e+06  -2.266630e+05
   9.352941e+05   9.559245e+05
  -7.033673e+05   1.055788e+06
  -1.099437e+06   9.040867e+04
  -5.862403e+04  -7.857616e+05
   1.195610e+06  -5.318568e+05
   1.376506e+06   5.819706e+05
   3.809279e+05   1.312794e+06
  -7.753670e+05   9.059125e+05
  -1.044927e+06  -9.854062e+04
  -3.120256e+05  -5.730548e+05
   5.551623e+05  -5.756144e+04
   5.341371e+05   8.329979e+05
  -5.252351e+05   1.103839e+06
  -1.632650e+06   3.452339e+05
  -1.584197e+06  -9.065313e+05
  -2.669088e+05  -1.646575e+06
   1.130598e+06  -1.288551e+06
   1.365519e+06  -1.934876e+05
   4.461525e+05   6.748592e+05
  -5.103830e+05   6.714973e+05
  -5.909595e+05   4.321214e+04
   3.227584e+04  -4.315569e+05
   5.138512e+05  -3.095515e+05
   3.325762e+05   9.318380e+04
  -2.371390e+05   1.335496e+05
  -4.751792e+05  -3.834015e+05
   6.787257e+04  -9.213761e+05
   1.081996e+06  -7.290546e+05
   1.665059e+06   3.459622e+05
   1.135295e+06   1.579785e+06
  -2.212808e+05   1.979405e+06
  -1.347640e+06   1.219350e+06
  -1.471492e+06  -4.719294e+04
  -8.423559e+05  -8.399358e+05
  -2.977261e+05  -7.810046e+05
  -2.519249e+05  -3.402249e+05
  -3.439581e+05  -2.066399e+05
  -3.709947e+04  -5.155874e+05
   6.716795e+05  -7.406351e+05
   1.205758e+06  -3.228525e+05
   9.522920e+05   6.296459e+05
  -1.502942e+05   1.306862e+06
  -1.424587e+06   9.330325e+05
  -1.863262e+06  -4.025972e+05
  -9.578337e+05  -1.691143e+06
   7.367282e+05  -1.885020e+06
   1.981566e+06  -8.761491e+05
   1.949996e+06   4.424348e+05
   9.327828e+05   1.092521e+06
  -8.339281e+04   9.170410e+05
  -4.336893e+05   5.503473e+05
  -2.786208e+05   5.903919e+05
  -2.077076e+05   9.306764e+05
  -5.320542e+05   9.352606e+05
  -9.882583e+05   2.020937e+05
  -1.031038e+06  -9.129268e+05
  -3.970123e+05  -1.552241e+06
   5.498782e+05  -1.151423e+06
   1.053762e+06   4.108111e+02
   6.686119e+05   9.942042e+05
  -2.452652e+05   1.112036e+06
  -8.355369e+05   4.213546e+05
  -6.289673e+05  -4.021445e+05
  -2.519231e+03  -7.683292e+05
   2.938013e+05  -6.437645e+05
   1.353026e+04  -3.976959e+05
  -3.151723e+05  -3.145189e+05
  -2.202906e+04  -3.256211e+05
   8.793412e+05  -1.681994e+05
   1.587141e+06   2.762754e+05
   1.287353e+06   8.163458e+05
   3.676831e+04   1.087730e+06
  -1.195649e+06   8.598685e+05
  -1.446837e+06   2.592901e+05
  -7.004353e+05  -2.885224e+05
   1.716459e+05  -3.957880e+05
   3.804655e+05  -6.947578e+04
  -2.264475e+04   2.652990e+05
  -4.049809e+05   1.772622e+05
  -3.675747e+05  -2.896997e+05
  -9.630889e+04  -6.179128e+05
   2.021750e+04  -3.966349e+05
  -1.238438e+05   1.385459e+05
  -3.043329e+05   3.114484e+05
  -2.365039e+05  -1.832275e+05
   1.809811e+05  -8.285625e+05
   7.461954e+05  -8.277530e+05
   9.982262e+05  -5.173960e+04
   5.622911e+05   7.628368e+05
  -3.608371e+05   8.278236e+05
  -9.641533e+05   1.571272e+05
  -5.683121e+05  -5.105778e+05
   5.593492e+05  -5.305412e+05
   1.329378e+06   5.843974e+04
   9.232814e+05   6.975618e+05
  -3.228959e+05   8.713882e+05
  -1.254071e+06   4.895072e+05
  -1.083610e+06  -1.121084e+05
  -1.466478e+05  -4.434340e+05
   5.234931e+05  -2.501837e+05
   2.771959e+05   2.185607e+05
  -5.303572e+05   3.682311e+05
  -9.529496e+05  -1.599919e+05
  -4.379616e+05  -1.012487e+06
   6.168375e+05  -1.340017e+06
   1.278191e+06  -6.265655e+05
   1.004021e+06   6.837901e+05
   1.101936e+05   1.493305e+06
  -6.399172e+05   1.091480e+06
  -7.722123e+05  -1.109238e+05
  -3.848841e+05  -9.812754e+05
   1.291465e+05  -8.334936e+05
   4.416861e+05  -8.783025e+04
   4.279972e+05   3.339581e+05
   1.905770e+05   1.363620e+05
   1.947109e+04  -9.590793e+04
   1.379864e+05   2.076241e+05
   3.641961e+05   7.880693e+05
   2.032402e+05   9.048115e+05
  -5.146410e+05   3.216698e+05
  -1.213549e+06  -4.193917e+05
  -1.100072e+06  -7.185305e+05
  -1.439233e+05  -5.643314e+05
   7.696523e+05  -3.169577e+05
   8.354173e+05  -1.483316e+05
   2.464839e+05   1.724709e+04
  -1.478014e+05   1.754934e+05
   3.334764e+04   2.021179e+05
   2.870950e+05   1.238529e+05
   9.921993e+03   1.149579e+05
  -6.262769e+05   1.477746e+05
  -8.490351e+05  -6.057830e+04
  -2.305618e+05  -5.675802e+05
   7.913586e+05  -8.982626e+05
   1.367221e+06  -5.187068e+05
   1.056633e+06   4.346302e+05
   1.562709e+05   1.172892e+06
  -6.504718e+05   1.081590e+06
  -8.745376e+05   3.626373e+05
  -5.402575e+05  -2.486491e+05
  -6.912757e+04  -2.964472e+05
   1.192258e+05  -1.146375e+04
  -4.490921e+04   5.804444e+04
  -2.674492e+05  -2.896083e+05
  -2.061075e+05  -6.694568e+05
   1.810912e+05  -5.366350e+05
   5.677287e+05   1.650552e+05
   5.368847e+05   8.462507e+05
  -9.368970e+03   8.413088e+05
  -6.637496e+05   1.174493e+05
  -8.046735e+05  -6.802221e+05
  -2.097884e+05  -8.997868e+05
   6.154336e+05  -4.857684e+05
   8.824288e+05   1.141521e+05
   3.802194e+05   4.747195e+05
  -2.516624e+05   4.889325e+05
  -2.701732e+05   2.759861e+05
   2.592244e+05   3.720475e+04
   5.483002e+05  -2.810690e+03
   9.081072e+04   2.457924e+05
  -6.971884e+05   5.384745e+05
  -9.995388e+05   4.464158e+05
  -5.621634e+05  -1.242053e+05
   1.110185e+05  -6.864036e+05
   4.292721e+05  -6.607863e+05
   2.972524e+05  -7.833113e+04
  -8.996177e+02   4.174654e+05
  -2.202779e+05   3.185058e+05
  -2.870220e+05  -1.817002e+05
  -1.819477e+05  -4.828288e+05
   7.032512e+04  -3.022868e+05
   3.166629e+05   7.104307e+04
   3.629485e+05   2.097765e+05
   1.949641e+05   5.516346e+04
   2.114791e+03  -8.460951e+04
  -6.542408e+04   4.359120e+04
  -7.124521e+04   3.223936e+05
  -1.575775e+05   3.939101e+05
  -3.001156e+05   7.713644e+04
  -2.965376e+05  -3.852202e+05
  -1.854724e+04  -5.436510e+05
   3.700668e+05  -2.196742e+05
   5.016918e+05   2.837579e+05
   1.636920e+05   4.981868e+05
  -4.124188e+05   2.754927e+05
  -6.907425e+05  -1.130601e+05
  -3.651865e+05  -3.261367e+05
   2.537212e+05  -2.807507e+05
   5.174591e+05  -1.199621e+05
   1.665847e+05   1.258198e+03
  -3.406531e+05   4.688982e+03
  -3.534427e+05  -1.211278e+05
   1.918237e+05  -2.664715e+05
   6.910940e+05  -1.963241e+05
