
 $NMID
 id='ANONYMOUS ', fmtdat='(2E16.6)'
 volume=1.0
 tramp=1.0
 $END
   4.628562e+07   4.853041e+06
   2.562732e+07   2.908861e+07
  -7.391838e+06   2.975506e+07
  -2.271900e+07   1.211685e+07
  -1.376066e+07  -4.386458e+06
   2.198793e+06  -7.461370e+06
   8.231259e+06  -9.527204e+02
   3.093075e+06   7.874259e+06
  -4.682989e+06   8.807416e+06
  -8.208326e+06   2.263783e+06
  -5.876518e+06  -5.946845e+06
  -1.395238e+05  -8.064099e+06
   3.955574e+06  -1.879857e+06
   2.350212e+06   5.909393e+06
  -3.355994e+06   6.497549e+06
  -6.743706e+06  -1.018849e+06
  -3.568363e+06  -8.942931e+06
   3.676917e+06  -9.997522e+06
   8.981039e+06  -4.253037e+06
   8.807761e+06   2.951195e+06
   4.259804e+06   6.917200e+06
  -6.903604e+05   6.528719e+06
  -2.246638e+06   3.861080e+06
   1.954982e+04   2.289101e+06
   2.097818e+06   3.432920e+06
  -4.561657e+05   5.097847e+06
  -6.536049e+06   3.668849e+06
  -9.717579e+06  -9.884967e+05
  -5.936501e+06  -4.853218e+06
   1.180599e+06  -4.641751e+06
   4.694784e+06  -1.443338e+06
   2.389957e+06   1.387801e+06
  -1.908854e+06   1.929780e+06
  -3.800951e+06   2.007866e+05
  -2.417142e+06  -2.757666e+06
   4.097820e+05  -4.654758e+06
   2.432595e+06  -3.021011e+06
   2.227946e+06   1.246442e+06
   2.456418e+05   3.367062e+06
  -1.017620e+06   5.246656e+05
   3.507144e+05  -3.383058e+06
   2.658049e+06  -2.428348e+06
   2.172733e+06   2.699260e+06
  -1.733005e+06   4.945430e+06
  -4.983052e+06   4.974375e+05
  -3.498900e+06  -5.803904e+06
   1.891771e+06  -6.729267e+06
   6.434537e+06  -1.483798e+06
   6.365088e+06   4.332104e+06
   1.953342e+06   5.760365e+06
  -3.275265e+06   2.816838e+06
  -5.314869e+06  -1.202967e+06
  -2.708017e+06  -3.162341e+06
   1.909533e+06  -1.992751e+06
   3.963863e+06   8.038020e+05
   1.766560e+06   2.308701e+06
  -1.509540e+06   1.114996e+06
  -1.822656e+06  -9.506275e+05
   6.428246e+05  -1.114464e+06
   2.047640e+06   7.460805e+05
   1.103866e+05   2.171623e+06
  -3.181608e+06   1.432171e+06
  -4.299023e+06  -8.566868e+05
  -1.976125e+06  -3.251774e+06
   2.202082e+06  -4.721380e+06
   5.596514e+06  -4.171076e+06
   6.198660e+06  -8.710669e+05
   3.758277e+06   3.670459e+06
   2.176674e+05   6.045614e+06
  -1.728430e+06   4.624804e+06
  -1.327747e+06   1.721030e+06
  -4.658143e+05   6.148667e+05
  -1.092603e+06   1.368947e+06
  -2.719922e+06   1.317630e+06
  -3.278213e+06  -7.787494e+05
  -1.807022e+06  -2.958412e+06
   6.332137e+05  -2.714960e+06
   2.265349e+06  -4.327022e+04
   1.934909e+06   2.730218e+06
  -3.557322e+05   3.315089e+06
  -3.176348e+06   1.254440e+06
  -4.241475e+06  -1.927502e+06
  -2.462166e+06  -3.954673e+06
   5.578425e+05  -3.678270e+06
   2.158453e+06  -2.052995e+06
   1.839870e+06  -9.221762e+05
   1.659769e+06  -8.288164e+05
   3.065335e+06  -5.973386e+05
   4.586719e+06   8.653729e+05
   3.646298e+06   3.073776e+06
  -2.597823e+04   4.517547e+06
  -3.812771e+06   4.110732e+06
  -4.891805e+06   1.900211e+06
  -2.861111e+06  -9.536912e+05
   1.737765e+05  -2.626841e+06
   1.616085e+06  -1.935872e+06
   5.948604e+05   2.003907e+05
  -1.385520e+06   1.334677e+06
  -2.042841e+06   2.771618e+05
  -7.726417e+05  -1.339959e+06
   7.489528e+05  -1.223683e+06
   6.607078e+05   3.933650e+05
  -8.436674e+05   1.010189e+06
  -1.886374e+06  -7.495269e+05
  -1.137484e+06  -3.270594e+06
   9.892997e+05  -3.904057e+06
   3.092633e+06  -1.890927e+06
   3.926874e+06   1.190801e+06
   2.923705e+06   3.211749e+06
   5.606822e+05   3.164483e+06
  -1.552903e+06   1.607578e+06
  -1.845606e+06   9.988623e+04
  -5.466286e+05  -7.839969e+04
   3.666915e+05   8.467990e+05
  -4.587143e+05   1.372277e+06
  -1.987548e+06   5.128205e+05
  -2.117741e+06  -9.528349e+05
  -4.175402e+05  -1.469163e+06
   1.287299e+06  -6.179436e+05
   1.090205e+06   5.216719e+05
  -8.557261e+05   7.354907e+05
  -2.558559e+06  -1.870410e+05
  -2.194846e+06  -1.554819e+06
   1.874514e+05  -2.379968e+06
   2.669780e+06  -1.902026e+06
   3.135022e+06  -2.202649e+05
   1.264503e+06   1.398970e+06
  -1.059655e+06   1.495427e+06
  -1.606381e+06   8.164621e+04
  -8.029554e+04  -1.145458e+06
   1.701134e+06  -7.096215e+05
   1.878431e+06   8.884181e+05
   4.185383e+05   1.827014e+06
  -1.143231e+06   1.151409e+06
  -1.405963e+06  -2.473177e+05
  -3.460031e+05  -8.174524e+05
   8.115989e+05  -3.746029e+04
   7.316624e+05   1.194378e+06
  -7.527480e+05   1.538803e+06
  -2.284917e+06   4.551178e+05
  -2.192225e+06  -1.303816e+06
  -3.154616e+05  -2.310746e+06
   1.640224e+06  -1.748161e+06
   1.907179e+06  -1.937661e+05
   5.646746e+05   9.600338e+05
  -7.432539e+05   8.939667e+05
  -7.875558e+05   5.351542e+04
   7.102356e+04  -5.250333e+05
   6.515173e+05  -3.619619e+05
   3.582913e+05   8.976744e+04
  -3.602327e+05   6.911100e+04
  -5.925393e+05  -6.127609e+05
   1.816801e+05  -1.274475e+06
   1.542360e+06  -9.570213e+05
   2.300042e+06   5.449518e+05
   1.529582e+06   2.236746e+06
  -3.641575e+05   2.726407e+06
  -1.884739e+06   1.601510e+06
  -1.977047e+06  -1.358258e+05
  -1.078918e+06  -1.121625e+06
  -3.981831e+05  -9.702054e+05
  -4.197628e+05  -4.263275e+05
  -5.351000e+05  -3.449240e+05
  -3.251660e+04  -7.661290e+05
   9.732938e+05  -9.860771e+05
   1.655784e+06  -3.762263e+05
   1.251695e+06   8.723488e+05
  -2.652939e+05   1.736100e+06
  -1.984281e+06   1.207876e+06
  -2.542584e+06  -6.213071e+05
  -1.235630e+06  -2.377127e+06
   1.138599e+06  -2.579077e+06
   2.806273e+06  -1.099387e+06
   2.643462e+06   7.279759e+05
   1.173005e+06   1.522202e+06
  -1.690358e+05   1.183155e+06
  -5.477519e+05   6.981671e+05
  -3.141430e+05   8.459992e+05
  -2.880566e+05   1.355177e+06
  -7.955655e+05   1.319154e+06
  -1.410666e+06   2.554908e+05
  -1.418088e+06  -1.295465e+06
  -5.125771e+05  -2.163163e+06
   7.888170e+05  -1.582556e+06
   1.451754e+06   4.305040e+04
   8.721511e+05   1.422032e+06
  -4.205764e+05   1.525875e+06
  -1.208052e+06   4.897837e+05
  -8.421595e+05  -6.609229e+05
   9.035493e+04  -1.094863e+06
   4.962172e+05  -8.528424e+05
   5.190239e+04  -5.131339e+05
  -4.458458e+05  -4.328754e+05
  -3.209276e+04  -4.477205e+05
   1.246405e+06  -1.903039e+05
   2.223506e+06   4.555259e+05
   1.754134e+06   1.195898e+06
  -3.606005e+04   1.530939e+06
  -1.741047e+06   1.156498e+06
  -2.023660e+06   2.773437e+05
  -9.285872e+05  -4.763336e+05
   2.815911e+05  -5.646706e+05
   5.384268e+05  -5.599216e+04
  -3.089532e+04   4.077228e+05
  -5.497545e+05   2.501414e+05
  -5.086157e+05  -4.126659e+05
  -1.641741e+05  -8.589896e+05
  -3.251212e+03  -5.581603e+05
  -1.613870e+05   1.594442e+05
  -3.856309e+05   3.954158e+05
  -3.133438e+05  -2.626539e+05
   2.471237e+05  -1.134601e+06
   1.062302e+06  -1.135044e+06
   1.446519e+06  -5.900507e+04
   8.114150e+05   1.086438e+06
  -5.350215e+05   1.179620e+06
  -1.383353e+06   2.257832e+05
  -7.847281e+05  -7.107566e+05
   7.988583e+05  -7.066779e+05
   1.812231e+06   1.382258e+05
   1.195504e+06   9.867551e+05
  -5.049154e+05   1.147122e+06
  -1.719459e+06   5.821475e+05
  -1.446462e+06  -2.073913e+05
  -1.701687e+05  -6.004915e+05
   7.310812e+05  -3.082637e+05
   3.883452e+05   3.289883e+05
  -7.297019e+05   5.240115e+05
  -1.329895e+06  -2.141248e+05
  -6.265184e+05  -1.407842e+06
   8.445768e+05  -1.871012e+06
   1.770395e+06  -8.729298e+05
   1.379514e+06   9.539033e+05
   1.254511e+05   2.058541e+06
  -9.032416e+05   1.468970e+06
  -1.047607e+06  -1.980036e+05
  -4.766602e+05  -1.360432e+06
   2.305344e+05  -1.115869e+06
   6.190737e+05  -9.112053e+04
   5.573230e+05   4.573831e+05
   2.322165e+05   1.744591e+05
   3.832705e+04  -1.188859e+05
   2.234349e+05   3.241283e+05
   4.976291e+05   1.111387e+06
   2.232474e+05   1.236831e+06
  -7.592065e+05   4.123618e+05
  -1.659721e+06  -6.055311e+05
  -1.466543e+06  -1.008537e+06
  -1.788112e+05  -7.889545e+05
   1.040712e+06  -4.321237e+05
   1.142354e+06  -1.767388e+05
   3.606774e+05   5.550998e+04
  -1.972141e+05   2.456985e+05
   1.035441e+04   2.511056e+05
   3.615496e+05   1.453314e+05
   2.738505e+04   1.612574e+05
  -8.317889e+05   2.182917e+05
  -1.181985e+06  -9.045466e+04
  -3.631725e+05  -8.127241e+05
   1.082505e+06  -1.261575e+06
   1.936956e+06  -7.127118e+05
   1.508742e+06   6.131752e+05
   2.114372e+05   1.624084e+06
  -9.349248e+05   1.495232e+06
  -1.225869e+06   5.121339e+05
  -7.440525e+05  -3.310260e+05
  -1.069428e+05  -4.172493e+05
   1.382154e+05  -4.597659e+04
  -6.842974e+04   4.986789e+04
  -3.436744e+05  -4.127183e+05
  -2.572994e+05  -9.269258e+05
   2.551965e+05  -7.504963e+05
   7.832113e+05   2.107958e+05
   7.585647e+05   1.162640e+06
   1.307574e+04   1.180965e+06
  -9.087278e+05   1.937195e+05
  -1.124594e+06  -9.255431e+05
  -2.994164e+05  -1.258742e+06
   8.621923e+05  -6.918767e+05
   1.242004e+06   1.670999e+05
   5.332126e+05   6.951691e+05
  -3.685697e+05   7.063492e+05
  -4.116310e+05   3.776657e+05
   3.285496e+05   3.380299e+04
   7.523291e+05  -2.726804e+03
   1.315753e+05   3.516484e+05
  -9.737235e+05   7.295597e+05
  -1.414091e+06   5.684597e+05
  -8.029236e+05  -2.170392e+05
   1.659345e+05  -9.633364e+05
   6.387977e+05  -9.141404e+05
   4.531414e+05  -1.188660e+05
   1.356147e+04   5.693840e+05
  -3.088679e+05   4.577716e+05
  -4.010088e+05  -2.258956e+05
  -2.496080e+05  -6.720802e+05
   1.015072e+05  -4.475157e+05
   4.426363e+05   9.055014e+04
   5.045535e+05   3.203604e+05
   2.644981e+05   9.845067e+04
  -4.614763e+03  -1.450533e+05
  -7.861299e+04   1.023675e+04
  -5.649611e+04   4.375837e+05
  -1.737604e+05   5.928209e+05
  -4.128524e+05   1.627538e+05
  -4.551846e+05  -5.130939e+05
  -7.276961e+04  -7.634492e+05
   5.047402e+05  -3.182871e+05
   7.170831e+05   3.858076e+05
   2.386686e+05   6.848622e+05
  -5.860661e+05   3.779982e+05
  -9.777488e+05  -1.578135e+05
  -5.108576e+05  -4.590861e+05
   3.619396e+05  -4.084690e+05
   7.348578e+05  -1.847426e+05
   2.561263e+05   5.661953e+03
  -4.454150e+05   3.521736e+04
  -4.841907e+05  -1.352677e+05
   2.368164e+05  -3.536054e+05
   9.160538e+05  -2.757085e+05
