
 $NMID
 id='ANONYMOUS ', fmtdat='(2E16.6)'
 volume=1.0
 tramp=1.0
 $END
  -4.897959e+07  -8.826013e+05
  -2.903694e+07  -3.042529e+07
   6.722283e+06  -3.286505e+07
   2.399473e+07  -1.273904e+07
   1.436068e+07   5.855388e+06
  -2.770954e+06   8.075835e+06
  -8.552691e+06  -8.739124e+05
  -2.560193e+06  -8.448423e+06
   5.296459e+06  -8.310408e+06
   8.427982e+06  -1.851849e+06
   6.116631e+06   5.534337e+06
   6.352012e+05   7.660447e+06
  -3.588381e+06   2.338488e+06
  -2.336903e+06  -4.967100e+06
   3.306495e+06  -5.882842e+06
   6.888871e+06   1.149842e+06
   3.845468e+06   8.973772e+06
  -3.397784e+06   1.031511e+07
  -8.920435e+06   5.031373e+06
  -9.400393e+06  -2.012583e+06
  -5.558515e+06  -6.658136e+06
  -3.785552e+05  -7.433037e+06
   2.516844e+06  -5.075024e+06
   1.350051e+06  -2.352057e+06
  -1.172751e+06  -2.157500e+06
  -1.158726e+05  -3.919865e+06
   5.055179e+06  -3.843650e+06
   8.713773e+06  -2.080791e+05
   6.166658e+06   3.832502e+06
  -4.076427e+03   4.493646e+06
  -3.511999e+06   2.140426e+06
  -2.223071e+06  -2.202564e+05
   7.614756e+05  -1.028521e+06
   2.321820e+06  -4.064019e+05
   2.033938e+06   1.523060e+06
   4.459912e+05   3.685006e+06
  -1.737993e+06   3.339978e+06
  -2.751662e+06  -2.936760e+05
  -1.293023e+06  -3.234908e+06
   7.471529e+05  -1.490445e+06
   1.973178e+05   2.380186e+06
  -2.249171e+06   2.101667e+06
  -2.161208e+06  -2.787247e+06
   2.060236e+06  -5.310052e+06
   5.909947e+06  -8.180336e+05
   4.321625e+06   6.039351e+06
  -1.721254e+06   7.357681e+06
  -6.514134e+06   2.011108e+06
  -6.157907e+06  -3.983797e+06
  -1.685526e+06  -5.384480e+06
   3.091697e+06  -2.467386e+06
   4.750569e+06   1.310474e+06
   2.245289e+06   3.083743e+06
  -2.077906e+06   1.950023e+06
  -3.980068e+06  -8.022089e+05
  -1.733938e+06  -2.375212e+06
   1.504601e+06  -1.193045e+06
   1.587158e+06   9.070544e+05
  -1.061733e+06   8.631683e+05
  -2.153297e+06  -1.393526e+06
   4.203450e+05  -2.866093e+06
   3.907231e+06  -1.627862e+06
   4.599200e+06   1.130748e+06
   2.028965e+06   3.454544e+06
  -1.699577e+06   4.654465e+06
  -4.626570e+06   4.254268e+06
  -5.591907e+06   1.422488e+06
  -3.991146e+06  -2.941169e+06
  -7.288167e+05  -5.549958e+06
   1.650721e+06  -4.283762e+06
   1.513767e+06  -1.197394e+06
   2.069100e+05   6.872270e+04
   1.772408e+05  -9.554990e+05
   1.646928e+06  -1.534206e+06
   2.626752e+06  -3.960538e+04
   1.802278e+06   1.925670e+06
  -8.499565e+04   2.045868e+06
  -1.531774e+06   1.664714e+05
  -1.572480e+06  -1.988690e+06
   5.238870e+04  -2.724730e+06
   2.573203e+06  -1.431963e+06
   4.006096e+06   1.202877e+06
   2.781920e+06   3.433338e+06
  -1.245545e+05   3.726375e+06
  -2.038599e+06   2.339862e+06
  -1.950967e+06   9.899048e+05
  -1.627911e+06   6.433552e+05
  -2.684551e+06   4.549693e+05
  -3.980495e+06  -7.081669e+05
  -3.187740e+06  -2.561050e+06
  -9.169616e+04  -3.809906e+06
   3.013565e+06  -3.574457e+06
   3.912082e+06  -1.888675e+06
   2.448521e+06   4.709936e+05
   1.757759e+05   2.097208e+06
  -1.085988e+06   1.761061e+06
  -5.181842e+05  -5.684402e+04
   1.036448e+06  -1.194554e+06
   1.753913e+06  -3.449802e+05
   8.142414e+05   1.116209e+06
  -5.049727e+05   1.033899e+06
  -4.267776e+05  -3.497555e+05
   9.270481e+05  -6.824442e+05
   1.683918e+06   1.079249e+06
   6.643981e+05   3.127126e+06
  -1.343667e+06   3.176369e+06
  -2.841387e+06   1.137238e+06
  -3.107264e+06  -1.272021e+06
  -2.174667e+06  -2.584120e+06
  -4.287394e+05  -2.464627e+06
   1.182261e+06  -1.355704e+06
   1.481833e+06  -1.869493e+05
   4.586275e+05   4.729338e+04
  -3.266371e+05  -6.996848e+05
   3.854266e+05  -1.225157e+06
   1.751058e+06  -5.141977e+05
   1.865226e+06   8.207413e+05
   3.554662e+05   1.297953e+06
  -1.083909e+06   5.253874e+05
  -8.375349e+05  -4.241590e+05
   7.761944e+05  -4.999728e+05
   2.042001e+06   2.797885e+05
   1.653160e+06   1.270299e+06
  -2.224078e+05   1.856544e+06
  -2.163694e+06   1.540672e+06
  -2.587026e+06   2.362684e+05
  -1.117044e+06  -1.177947e+06
   8.630115e+05  -1.369871e+06
   1.432976e+06  -1.551633e+05
   1.648463e+05   9.966688e+05
  -1.413549e+06   6.660896e+05
  -1.591112e+06  -7.335488e+05
  -3.160072e+05  -1.534985e+06
   1.006215e+06  -9.137065e+05
   1.167306e+06   2.785540e+05
   2.362964e+05   7.172088e+05
  -7.281988e+05   4.273386e+04
  -6.672079e+05  -9.854210e+05
   5.570217e+05  -1.315799e+06
   1.877570e+06  -4.774616e+05
   1.881856e+06   1.002605e+06
   3.358554e+05   1.933172e+06
  -1.350981e+06   1.514526e+06
  -1.606433e+06   1.859095e+05
  -4.668483e+05  -8.076343e+05
   6.147611e+05  -7.451759e+05
   5.991246e+05  -6.786363e+04
  -1.023874e+05   3.471555e+05
  -4.683300e+05   2.079103e+05
  -1.402938e+05  -6.077698e+04
   3.981728e+05   5.726808e+04
   4.784909e+05   6.119779e+05
  -1.935853e+05   1.097338e+06
  -1.292022e+06   8.212782e+05
  -1.934002e+06  -4.055734e+05
  -1.343433e+06  -1.825257e+06
   2.255879e+05  -2.258043e+06
   1.518306e+06  -1.313768e+06
   1.584229e+06   1.214200e+05
   8.135359e+05   8.515773e+05
   3.033983e+05   6.391687e+05
   4.319767e+05   2.319747e+05
   5.607102e+05   2.973584e+05
   6.998283e+04   7.031620e+05
  -8.212452e+05   8.322831e+05
  -1.355476e+06   2.961588e+05
  -9.842554e+05  -6.861984e+05
   2.375153e+05  -1.370850e+06
   1.615846e+06  -9.916310e+05
   2.095182e+06   4.700051e+05
   1.042321e+06   1.963209e+06
  -9.520119e+05   2.188896e+06
  -2.366733e+06   9.420340e+05
  -2.186918e+06  -6.213895e+05
  -8.977662e+05  -1.250564e+06
   1.855860e+05  -8.933959e+05
   3.757823e+05  -4.911153e+05
   1.034290e+05  -7.057444e+05
   1.240190e+05  -1.206751e+06
   6.365808e+05  -1.183148e+06
   1.202841e+06  -2.789951e+05
   1.233532e+06   1.022314e+06
   4.991876e+05   1.772687e+06
  -5.952608e+05   1.334262e+06
  -1.198403e+06  -1.136901e+04
  -7.458995e+05  -1.196551e+06
   3.678325e+05  -1.292932e+06
   1.071604e+06  -3.747109e+05
   7.412648e+05   6.398606e+05
  -1.161505e+05   9.864529e+05
  -4.907378e+05   7.201534e+05
  -7.426715e+04   3.912954e+05
   3.992918e+05   3.224460e+05
   5.042068e+04   3.607222e+05
  -1.067332e+06   1.842964e+05
  -1.911486e+06  -3.303241e+05
  -1.495175e+06  -9.771557e+05
   4.270591e+04  -1.326013e+06
   1.482582e+06  -1.040283e+06
   1.703471e+06  -2.467419e+05
   7.710614e+05   4.547391e+05
  -2.463322e+05   5.204218e+05
  -4.723879e+05   3.006381e+04
  -1.802909e+04  -3.881380e+05
   4.206840e+05  -2.372727e+05
   4.455691e+05   3.243184e+05
   2.233085e+05   6.831838e+05
   7.842875e+04   4.519507e+05
   1.278980e+05  -9.282952e+04
   2.662965e+05  -2.787174e+05
   2.550234e+05   2.189230e+05
  -1.444354e+05   9.234843e+05
  -8.494111e+05   9.839671e+05
  -1.266143e+06   1.415519e+05
  -7.788127e+05  -8.654418e+05
   4.008594e+05  -1.053117e+06
   1.175964e+06  -2.954262e+05
   6.804449e+05   5.436286e+05
  -6.589009e+05   5.992981e+05
  -1.482220e+06  -9.923026e+04
  -9.371908e+05  -8.089053e+05
   4.529270e+05  -9.197097e+05
   1.399626e+06  -4.410234e+05
   1.150726e+06   1.828196e+05
   1.238251e+05   4.803057e+05
  -6.061815e+05   2.469834e+05
  -3.535245e+05  -2.776610e+05
   5.538219e+05  -4.833010e+05
   1.107159e+06   8.660494e+04
   6.185157e+05   1.112763e+06
  -5.659601e+05   1.591392e+06
  -1.396647e+06   8.198340e+05
  -1.171382e+06  -7.170843e+05
  -1.785073e+05  -1.677958e+06
   6.994794e+05  -1.205777e+06
   8.615281e+05   1.711175e+05
   3.937965e+05   1.115119e+06
  -2.113397e+05   9.003910e+05
  -5.248621e+05   7.267859e+04
  -4.326257e+05  -3.536730e+05
  -1.515389e+05  -1.262822e+05
  -4.558346e+04   8.743032e+04
  -2.594831e+05  -2.831472e+05
  -4.701252e+05  -9.090674e+05
  -1.700291e+05  -1.005943e+06
   6.727164e+05  -3.600723e+05
   1.376401e+06   4.438331e+05
   1.189529e+06   7.877955e+05
   1.673346e+05   6.550257e+05
  -7.985514e+05   3.906201e+05
  -9.196768e+05   1.643820e+05
  -3.381992e+05  -5.644576e+04
   1.362420e+05  -2.120857e+05
   3.709287e+04  -1.861688e+05
  -2.442109e+05  -8.329155e+04
  -4.876375e+04  -1.259950e+05
   6.160802e+05  -2.242803e+05
   9.819232e+05   1.367237e+04
   4.109669e+05   6.567877e+05
  -7.887321e+05   1.107761e+06
  -1.602133e+06   7.048793e+05
  -1.331479e+06  -4.096842e+05
  -2.568227e+05  -1.318572e+06
   7.264720e+05  -1.287561e+06
   9.878577e+05  -5.059674e+05
   6.142654e+05   2.146858e+05
   1.274843e+05   3.379052e+05
  -6.152883e+04   7.018021e+04
   7.607023e+04  -8.570623e+03
   2.751573e+05   3.461431e+05
   2.256691e+05   7.562163e+05
  -1.683943e+05   6.385117e+05
  -6.387251e+05  -1.073395e+05
  -6.995009e+05  -8.883420e+05
  -1.179494e+05  -9.721190e+05
   7.035132e+05  -2.439466e+05
   9.764138e+05   6.678454e+05
   3.325653e+05   1.024512e+06
  -6.699731e+05   6.430144e+05
  -1.054584e+06  -6.957954e+04
  -5.008989e+05  -5.836795e+05
   2.737966e+05  -6.444871e+05
   3.651382e+05  -3.433769e+05
  -2.237822e+05  -1.336562e+03
  -6.068964e+05   3.894398e+04
  -1.400076e+05  -2.920202e+05
   7.737045e+05  -6.342863e+05
   1.186597e+06  -4.947533e+05
   7.216954e+05   1.782155e+05
  -9.106577e+04   8.191965e+05
  -5.283719e+05   8.034300e+05
  -4.120400e+05   1.556843e+05
  -5.752116e+04  -4.467262e+05
   2.240882e+05  -4.147221e+05
   3.327383e+05   1.279457e+05
   2.401929e+05   5.412460e+05
  -4.937247e+04   4.104807e+05
  -3.684010e+05  -3.724211e+04
  -4.473587e+05  -2.708072e+05
  -2.255668e+05  -9.656181e+04
   3.486988e+04   1.501452e+05
   7.263068e+04   5.697572e+04
  -2.779776e+04  -3.291866e+05
   2.930190e+04  -5.334019e+05
   2.979929e+05  -2.263318e+05
   4.479503e+05   3.466144e+05
   1.672968e+05   6.110756e+05
  -3.784304e+05   3.026101e+05
  -6.329000e+05  -2.557780e+05
  -2.459837e+05  -5.345571e+05
   4.790299e+05  -3.443481e+05
   8.358298e+05   6.597611e+04
   4.534280e+05   3.538276e+05
  -2.769625e+05   3.844124e+05
  -6.047672e+05   2.249161e+05
  -2.443761e+05   1.717422e+04
   3.143567e+05  -7.776915e+04
   3.810140e+05   4.430623e+04
  -1.442596e+05   2.686349e+05
  -6.792703e+05   2.618066e+05
