
 $NMID
 id='ANONYMOUS ', fmtdat='(2E16.6)'
 volume=1.0
 tramp=1.0
 $END
   3.406371e+07  -3.272398e+05
   2.096089e+07   2.043463e+07
  -3.837660e+06   2.299889e+07
  -1.646725e+07   9.563223e+06
  -1.029451e+07  -3.621999e+06
   1.690294e+06  -5.736496e+06
   6.090754e+06   3.247712e+05
   2.085324e+06   5.890874e+06
  -3.529879e+06   6.074403e+06
  -5.912541e+06   1.549171e+06
  -4.384567e+06  -3.790920e+06
  -5.403401e+05  -5.390961e+06
   2.485731e+06  -1.653139e+06
   1.699087e+06   3.550978e+06
  -2.244844e+06   4.285798e+06
  -4.881062e+06  -6.278188e+05
  -2.898494e+06  -6.214644e+06
   2.153773e+06  -7.299796e+06
   6.117002e+06  -3.677035e+06
   6.550510e+06   1.245742e+06
   3.932583e+06   4.499660e+06
   3.978224e+05   5.073363e+06
  -1.551096e+06   3.535093e+06
  -7.594399e+05   1.766785e+06
   8.885810e+05   1.672477e+06
   4.524928e+04   2.840202e+06
  -3.609085e+06   2.720026e+06
  -6.164017e+06   1.676276e+05
  -4.347779e+06  -2.649974e+06
   3.143625e+04  -3.110914e+06
   2.505596e+06  -1.443462e+06
   1.515695e+06   2.322517e+05
  -6.837256e+05   7.566210e+05
  -1.755345e+06   2.255489e+05
  -1.421309e+06  -1.164442e+06
  -2.527168e+05  -2.616659e+06
   1.190002e+06  -2.313636e+06
   1.828985e+06   2.025560e+05
   8.747550e+05   2.196690e+06
  -4.559283e+05   9.591867e+05
  -7.791395e+04  -1.735016e+06
   1.595048e+06  -1.540303e+06
   1.593353e+06   1.909505e+06
  -1.276465e+06   3.783862e+06
  -4.043272e+06   7.463925e+05
  -3.130873e+06  -4.086580e+06
   1.014495e+06  -5.165517e+06
   4.507986e+06  -1.530198e+06
   4.438860e+06   2.712000e+06
   1.317808e+06   3.812321e+06
  -2.165990e+06   1.832903e+06
  -3.443177e+06  -8.420918e+05
  -1.688487e+06  -2.160608e+06
   1.415746e+06  -1.435212e+06
   2.826277e+06   4.781496e+05
   1.279163e+06   1.634470e+06
  -1.035041e+06   8.676895e+05
  -1.158537e+06  -6.255835e+05
   7.110542e+05  -6.850399e+05
   1.584989e+06   8.684746e+05
  -1.374651e+05   2.004973e+06
  -2.638734e+06   1.270468e+06
  -3.258781e+06  -6.438660e+05
  -1.520302e+06  -2.365046e+06
   1.136902e+06  -3.294610e+06
   3.243797e+06  -3.038240e+06
   3.929235e+06  -1.044890e+06
   2.813837e+06   2.032467e+06
   5.623698e+05   3.908742e+06
  -1.094087e+06   3.083369e+06
  -1.052868e+06   9.368989e+05
  -2.102184e+05   2.737388e+03
  -2.123328e+05   6.614453e+05
  -1.215040e+06   1.035458e+06
  -1.864361e+06  -2.951637e+04
  -1.250336e+06  -1.417351e+06
   1.109638e+05  -1.474791e+06
   1.141593e+06  -9.164360e+04
   1.141973e+06   1.463592e+06
  -4.273391e+04   1.960682e+06
  -1.828815e+06   1.013142e+06
  -2.828476e+06  -8.389115e+05
  -1.977204e+06  -2.383156e+06
   3.777866e+04  -2.596016e+06
   1.372634e+06  -1.662073e+06
   1.334389e+06  -7.451806e+05
   1.146397e+06  -5.089993e+05
   1.928326e+06  -3.754795e+05
   2.872460e+06   4.567514e+05
   2.320020e+06   1.807865e+06
   9.864989e+04   2.745719e+06
  -2.150950e+06   2.593668e+06
  -2.808577e+06   1.362291e+06
  -1.746299e+06  -3.492725e+05
  -1.046989e+05  -1.504201e+06
   7.884815e+05  -1.247996e+06
   3.652958e+05   5.010161e+04
  -7.479130e+05   8.587151e+05
  -1.254839e+06   2.569101e+05
  -5.808232e+05  -7.893854e+05
   3.719374e+05  -7.426488e+05
   3.312445e+05   2.595787e+05
  -6.536088e+05   5.430158e+05
  -1.258375e+06  -7.024437e+05
  -5.802007e+05  -2.235184e+06
   8.869427e+05  -2.365537e+06
   2.050595e+06  -9.257485e+05
   2.303940e+06   8.683293e+05
   1.624411e+06   1.879224e+06
   3.280225e+05   1.803412e+06
  -8.524817e+05   9.836097e+05
  -1.068842e+06   1.338890e+05
  -3.301160e+05  -3.158300e+04
   2.416973e+05   5.038347e+05
  -2.604001e+05   8.845878e+05
  -1.247869e+06   3.886327e+05
  -1.352174e+06  -5.667774e+05
  -2.745731e+05  -9.312323e+05
   7.818184e+05  -3.930547e+05
   6.221109e+05   3.075502e+05
  -5.582930e+05   3.924641e+05
  -1.504617e+06  -1.709928e+05
  -1.231658e+06  -9.192481e+05
   1.430088e+05  -1.368593e+06
   1.562131e+06  -1.140443e+06
   1.870702e+06  -1.899981e+05
   8.144221e+05   8.363923e+05
  -6.050159e+05   9.858717e+05
  -1.019734e+06   1.233773e+05
  -1.211657e+05  -7.097143e+05
   1.013532e+06  -4.890744e+05
   1.158032e+06   5.147163e+05
   2.488346e+05   1.111578e+06
  -7.193552e+05   6.822350e+05
  -8.568077e+05  -1.836472e+05
  -1.870577e+05  -5.204866e+05
   5.233831e+05  -4.379979e+04
   4.902292e+05   7.038882e+05
  -3.929904e+05   9.525808e+05
  -1.350920e+06   3.552703e+05
  -1.362444e+06  -7.107589e+05
  -2.565051e+05  -1.390879e+06
   9.605367e+05  -1.103694e+06
   1.158069e+06  -1.486278e+05
   3.463228e+05   5.818265e+05
  -4.405294e+05   5.467384e+05
  -4.400624e+05   4.654346e+04
   7.241190e+04  -2.696334e+05
   3.546116e+05  -1.628349e+05
   1.216020e+05   5.686214e+04
  -2.857235e+05  -1.397117e+04
  -3.639258e+05  -4.255184e+05
   1.185771e+05  -7.959613e+05
   9.230525e+05  -6.081034e+05
   1.399966e+06   2.754997e+05
   9.829911e+05   1.305905e+06
  -1.489540e+05   1.633273e+06
  -1.093907e+06   9.657770e+05
  -1.156519e+06  -7.566661e+04
  -5.998608e+05  -6.247170e+05
  -2.142240e+05  -4.807942e+05
  -2.950682e+05  -1.693624e+05
  -3.975184e+05  -1.968093e+05
  -6.032526e+04  -4.959294e+05
   5.815189e+05  -6.113730e+05
   9.810715e+05  -2.313474e+05
   7.239064e+05   4.933457e+05
  -1.597088e+05   1.005086e+06
  -1.163759e+06   7.361165e+05
  -1.521980e+06  -3.235560e+05
  -7.749553e+05  -1.412234e+06
   6.615998e+05  -1.593530e+06
   1.699710e+06  -7.086767e+05
   1.595067e+06   4.264680e+05
   6.716638e+05   9.060986e+05
  -1.279379e+05   6.642451e+05
  -2.841096e+05   3.632204e+05
  -8.522356e+04   4.982598e+05
  -8.320054e+04   8.564289e+05
  -4.440652e+05   8.522795e+05
  -8.597126e+05   2.102635e+05
  -8.942875e+05  -7.293330e+05
  -3.703953e+05  -1.276517e+06
   4.227934e+05  -9.664685e+05
   8.684393e+05  -1.055917e+03
   5.531260e+05   8.562322e+05
  -2.484077e+05   9.405436e+05
  -7.684708e+05   2.934686e+05
  -5.483560e+05  -4.414818e+05
   6.144973e+04  -7.116809e+05
   3.379661e+05  -5.339936e+05
   4.973194e+04  -2.915942e+05
  -2.858292e+05  -2.303059e+05
  -3.695423e+04  -2.593196e+05
   7.650710e+05  -1.455425e+05
   1.377393e+06   2.172324e+05
   1.089307e+06   6.903825e+05
  -9.535851e+03   9.577659e+05
  -1.052239e+06   7.653135e+05
  -1.228967e+06   1.973306e+05
  -5.700792e+05  -3.150740e+05
   1.664390e+05  -3.752814e+05
   3.406920e+05  -3.136831e+04
   1.707539e+04   2.704217e+05
  -3.031783e+05   1.688399e+05
  -3.214499e+05  -2.300910e+05
  -1.560335e+05  -4.873131e+05
  -5.169137e+04  -3.206390e+05
  -9.578851e+04   7.259994e+04
  -2.007751e+05   2.061864e+05
  -1.885376e+05  -1.550358e+05
   1.022589e+05  -6.669136e+05
   6.040370e+05  -7.156948e+05
   9.000148e+05  -1.133853e+05
   5.588986e+05   6.125527e+05
  -2.765963e+05   7.554372e+05
  -8.354024e+05   2.174072e+05
  -4.911137e+05  -3.891925e+05
   4.704914e+05  -4.395054e+05
   1.076515e+06   6.010487e+04
   6.934575e+05   5.828227e+05
  -3.176487e+05   6.785246e+05
  -1.017357e+06   3.370064e+05
  -8.433393e+05  -1.237383e+05
  -9.519772e+04  -3.508722e+05
   4.383014e+05  -1.867314e+05
   2.566882e+05   1.941736e+05
  -3.976389e+05   3.461888e+05
  -7.947808e+05  -6.090052e+04
  -4.437673e+05  -7.970549e+05
   4.051709e+05  -1.142181e+06
   1.002845e+06  -5.909801e+05
   8.463450e+05   5.135140e+05
   1.356104e+05   1.210808e+06
  -5.014304e+05   8.783594e+05
  -6.282893e+05  -1.147292e+05
  -2.966642e+05  -8.063528e+05
   1.436893e+05  -6.607545e+05
   3.790685e+05  -6.027876e+04
   3.187456e+05   2.578654e+05
   1.143991e+05   9.649385e+04
   3.186425e+04  -6.653482e+04
   1.843234e+05   1.934202e+05
   3.428326e+05   6.502495e+05
   1.336013e+05   7.320333e+05
  -4.774999e+05   2.707308e+05
  -9.971862e+05  -3.141795e+05
  -8.693364e+05  -5.671401e+05
  -1.263568e+05  -4.711432e+05
   5.790902e+05  -2.814049e+05
   6.667093e+05  -1.242090e+05
   2.424249e+05   3.201389e+04
  -9.908024e+04   1.514039e+05
  -2.202673e+04   1.424568e+05
   1.809029e+05   6.761606e+04
   3.331825e+04   8.912415e+04
  -4.485037e+05   1.569325e+05
  -7.061640e+05  -6.190428e+03
  -2.907900e+05  -4.627710e+05
   5.667092e+05  -7.937178e+05
   1.143506e+06  -5.148468e+05
   9.507021e+05   2.860490e+05
   1.881051e+05   9.485347e+05
  -5.137182e+05   9.313675e+05
  -7.060423e+05   3.656027e+05
  -4.423183e+05  -1.561337e+05
  -9.109533e+04  -2.407886e+05
   4.667059e+04  -4.253742e+04
  -5.619713e+04   1.285932e+04
  -2.050250e+05  -2.486991e+05
  -1.693047e+05  -5.466143e+05
   1.187820e+05  -4.590282e+05
   4.591390e+05   7.993514e+04
   5.011187e+05   6.387388e+05
   8.267547e+04   6.938878e+05
  -5.050508e+05   1.695699e+05
  -7.000317e+05  -4.811543e+05
  -2.404281e+05  -7.331408e+05
   4.771035e+05  -4.609583e+05
   7.558163e+05   4.447539e+04
   3.638204e+05   4.110834e+05
  -1.891238e+05   4.605968e+05
  -2.554291e+05   2.523046e+05
   1.649765e+05   6.817380e+03
   4.379047e+05  -2.885190e+04
   1.011639e+05   2.069909e+05
  -5.554287e+05   4.615125e+05
  -8.515907e+05   3.703367e+05
  -5.187959e+05  -1.160261e+05
   6.068239e+04  -5.880883e+05
   3.701750e+05  -5.830889e+05
   2.870285e+05  -1.145395e+05
   3.848100e+04   3.215186e+05
  -1.580953e+05   2.958325e+05
  -2.364768e+05  -9.607751e+04
  -1.745305e+05  -3.884622e+05
   3.134317e+04  -2.901279e+05
   2.635936e+05   2.736684e+04
   3.246295e+05   1.881397e+05
   1.654525e+05   6.527686e+04
  -2.646791e+04  -1.019108e+05
  -5.926720e+04  -3.222114e+04
   1.151541e+04   2.346683e+05
  -2.453250e+04   3.704693e+05
  -2.093819e+05   1.521170e+05
  -3.122509e+05  -2.484800e+05
  -1.132147e+05  -4.328927e+05
   2.718684e+05  -2.149209e+05
   4.507594e+05   1.821558e+05
   1.752047e+05   3.839818e+05
  -3.413707e+05   2.506830e+05
  -5.974524e+05  -4.378310e+04
  -3.265088e+05  -2.518817e+05
   1.948193e+05  -2.741539e+05
   4.294716e+05  -1.607551e+05
   1.710401e+05  -1.576544e+04
  -2.286988e+05   4.838267e+04
  -2.722332e+05  -3.820982e+04
   1.104933e+05  -1.939107e+05
   4.959427e+05  -1.849232e+05
