
 $NMID
 id='ANONYMOUS ', fmtdat='(2E16.6)'
 volume=1.0
 tramp=1.0
 $END
  -4.644052e+07  -1.348453e+06
  -2.740571e+07  -2.850876e+07
   6.209579e+06  -3.084004e+07
   2.255840e+07  -1.244743e+07
   1.374251e+07   4.981584e+06
  -2.382731e+06   7.636508e+06
  -8.161532e+06  -4.493309e+05
  -2.756241e+06  -7.932942e+06
   4.795398e+06  -8.245404e+06
   8.031905e+06  -2.036782e+06
   5.907219e+06   5.375527e+06
   5.729382e+05   7.503865e+06
  -3.542066e+06   2.165518e+06
  -2.335415e+06  -5.049466e+06
   3.114200e+06  -5.914496e+06
   6.615785e+06   9.651486e+05
   3.758632e+06   8.586919e+06
  -3.206385e+06   9.900525e+06
  -8.545499e+06   4.746412e+06
  -8.914805e+06  -2.090002e+06
  -5.060566e+06  -6.421258e+06
  -1.430304e+05  -6.887135e+06
   2.272709e+06  -4.554664e+06
   8.428279e+05  -2.260661e+06
  -1.457127e+06  -2.451367e+06
  -7.892298e+02  -4.146042e+06
   5.276512e+06  -3.737345e+06
   8.717629e+06   3.369408e+04
   5.937715e+06   3.921967e+06
  -3.024708e+05   4.386081e+06
  -3.726639e+06   1.905888e+06
  -2.205058e+06  -5.407269e+05
   1.069709e+06  -1.287748e+06
   2.690593e+06  -3.706663e+05
   2.107184e+06   1.815906e+06
   2.251994e+05   3.847766e+06
  -1.840575e+06   3.149934e+06
  -2.498790e+06  -5.391952e+05
  -9.716475e+05  -3.146218e+06
   7.864315e+05  -1.151794e+06
   6.193842e+04   2.605026e+06
  -2.261337e+06   2.163913e+06
  -2.128517e+06  -2.628713e+06
   1.808291e+06  -5.039190e+06
   5.403622e+06  -7.751358e+05
   4.005208e+06   5.691696e+06
  -1.603786e+06   6.930732e+06
  -6.230668e+06   1.876027e+06
  -6.066161e+06  -3.855538e+06
  -1.791888e+06  -5.282426e+06
   3.000304e+06  -2.534611e+06
   4.775277e+06   1.157037e+06
   2.353169e+06   2.962216e+06
  -1.925114e+06   1.923022e+06
  -3.846025e+06  -7.161793e+05
  -1.715614e+06  -2.244946e+06
   1.436913e+06  -1.148728e+06
   1.616667e+06   8.642135e+05
  -8.822654e+05   9.240316e+05
  -2.062415e+06  -1.113485e+06
   2.028408e+05  -2.555091e+06
   3.521420e+06  -1.565728e+06
   4.358340e+06   9.377347e+05
   1.991721e+06   3.238202e+06
  -1.721982e+06   4.537041e+06
  -4.695363e+06   4.151852e+06
  -5.560287e+06   1.289840e+06
  -3.824986e+06  -3.001561e+06
  -6.310618e+05  -5.496019e+06
   1.549739e+06  -4.260566e+06
   1.380813e+06  -1.336866e+06
   2.751957e+05  -1.486294e+05
   4.358107e+05  -1.057349e+06
   1.897913e+06  -1.444335e+06
   2.738891e+06   1.713196e+05
   1.773793e+06   2.149583e+06
  -2.181763e+05   2.184007e+06
  -1.702791e+06   1.483880e+05
  -1.661912e+06  -2.122488e+06
   1.009607e+05  -2.812570e+06
   2.647505e+06  -1.367589e+06
   3.957613e+06   1.322140e+06
   2.638246e+06   3.430897e+06
  -1.975011e+05   3.582083e+06
  -1.968045e+06   2.199142e+06
  -1.831503e+06   9.629191e+05
  -1.568652e+06   7.029597e+05
  -2.699054e+06   5.260080e+05
  -4.037750e+06  -6.672700e+05
  -3.257433e+06  -2.577094e+06
  -1.136229e+05  -3.892268e+06
   3.095963e+06  -3.663047e+06
   4.046583e+06  -1.889140e+06
   2.498253e+06   5.648218e+05
   9.556723e+04   2.185517e+06
  -1.184133e+06   1.770699e+06
  -5.250589e+05  -9.205545e+04
   1.089428e+06  -1.212968e+06
   1.776628e+06  -3.388778e+05
   7.899497e+05   1.134250e+06
  -5.471846e+05   1.064213e+06
  -4.900602e+05  -3.443638e+05
   8.572395e+05  -7.739549e+05
   1.702711e+06   9.123732e+05
   8.355367e+05   3.048089e+06
  -1.135036e+06   3.307008e+06
  -2.797146e+06   1.374074e+06
  -3.268303e+06  -1.150305e+06
  -2.370400e+06  -2.649188e+06
  -4.950407e+05  -2.585838e+06
   1.232514e+06  -1.404801e+06
   1.538683e+06  -1.773152e+05
   4.700682e+05   4.794296e+04
  -3.388373e+05  -7.155180e+05
   3.753853e+05  -1.233820e+06
   1.754756e+06  -5.231493e+05
   1.890382e+06   8.037799e+05
   3.819189e+05   1.300108e+06
  -1.101107e+06   5.530104e+05
  -8.937402e+05  -4.260948e+05
   7.644087e+05  -5.683811e+05
   2.133447e+06   2.069010e+05
   1.782988e+06   1.285321e+06
  -1.728528e+05   1.955840e+06
  -2.218094e+06   1.632983e+06
  -2.660763e+06   2.645706e+05
  -1.141412e+06  -1.187014e+06
   8.721964e+05  -1.373915e+06
   1.433784e+06  -1.489728e+05
   1.483792e+05   1.005641e+06
  -1.442369e+06   6.787356e+05
  -1.635397e+06  -7.302404e+05
  -3.607132e+05  -1.565817e+06
   9.985806e+05  -9.705323e+05
   1.204159e+06   2.408873e+05
   2.729031e+05   7.196305e+05
  -7.284502e+05   5.172703e+04
  -6.804955e+05  -1.004661e+06
   5.760364e+05  -1.348131e+06
   1.929597e+06  -4.848541e+05
   1.927822e+06   1.029661e+06
   3.488562e+05   1.976162e+06
  -1.368336e+06   1.554647e+06
  -1.639307e+06   2.069953e+05
  -4.929179e+05  -8.191089e+05
   6.213796e+05  -7.747417e+05
   6.356408e+05  -7.038349e+04
  -8.294554e+04   3.921897e+05
  -5.049175e+05   2.567663e+05
  -2.043948e+05  -6.455396e+04
   3.722579e+05   9.543749e+03
   5.063646e+05   5.819289e+05
  -1.647632e+05   1.115818e+06
  -1.309775e+06   8.552977e+05
  -1.985183e+06  -4.024847e+05
  -1.383179e+06  -1.865765e+06
   2.237070e+05  -2.326274e+06
   1.556236e+06  -1.380520e+06
   1.650956e+06   9.581189e+04
   8.801509e+05   8.911117e+05
   3.323956e+05   7.133565e+05
   4.168971e+05   2.766488e+05
   5.377989e+05   2.922839e+05
   6.755888e+04   6.961165e+05
  -8.248034e+05   8.634243e+05
  -1.394551e+06   3.330963e+05
  -1.043165e+06  -7.022533e+05
   2.145225e+05  -1.438466e+06
   1.655523e+06  -1.049988e+06
   2.166728e+06   4.654672e+05
   1.097255e+06   2.004484e+06
  -9.402986e+05   2.247480e+06
  -2.403373e+06   9.956773e+05
  -2.260397e+06  -5.968623e+05
  -9.711402e+05  -1.275468e+06
   1.592358e+05  -9.541131e+05
   4.073153e+05  -5.438796e+05
   1.533258e+05  -7.259944e+05
   1.508913e+05  -1.211954e+06
   6.441128e+05  -1.193498e+06
   1.219977e+06  -2.813082e+05
   1.263517e+06   1.050486e+06
   5.144767e+05   1.822503e+06
  -6.123796e+05   1.373467e+06
  -1.234563e+06  -1.294628e+03
  -7.779920e+05  -1.211756e+06
   3.501158e+05  -1.325043e+06
   1.069711e+06  -4.143491e+05
   7.565383e+05   6.116246e+05
  -8.803687e+04   9.868520e+05
  -4.633506e+05   7.436514e+05
  -5.846984e+04   4.162417e+05
   4.046793e+05   3.383846e+05
   4.895617e+04   3.737520e+05
  -1.081568e+06   1.970936e+05
  -1.945378e+06  -3.258522e+05
  -1.538174e+06  -9.856479e+05
   1.745425e+04  -1.343223e+06
   1.492986e+06  -1.063599e+06
   1.738083e+06  -2.750615e+05
   7.998463e+05   4.328872e+05
  -2.399611e+05   5.196363e+05
  -4.754745e+05   4.473610e+04
  -8.644249e+03  -3.798442e+05
   4.415431e+05  -2.394088e+05
   4.542927e+05   3.327771e+05
   2.081675e+05   7.093455e+05
   5.973896e+04   4.673454e+05
   1.320382e+05  -1.121672e+05
   2.890606e+05  -3.094103e+05
   2.677496e+05   2.200867e+05
  -1.555518e+05   9.580929e+05
  -8.686725e+05   1.009858e+06
  -1.274598e+06   1.321360e+05
  -7.755114e+05  -8.900774e+05
   4.107200e+05  -1.061404e+06
   1.193295e+06  -2.827072e+05
   6.972506e+05   5.647764e+05
  -6.689343e+05   6.218248e+05
  -1.532992e+06  -8.366799e+04
  -9.967828e+05  -8.198014e+05
   4.378950e+05  -9.645717e+05
   1.441499e+06  -4.917083e+05
   1.204218e+06   1.651781e+05
   1.415477e+05   4.983958e+05
  -6.193602e+05   2.670462e+05
  -3.564098e+05  -2.779629e+05
   5.805787e+05  -4.878543e+05
   1.138109e+06   1.048125e+05
   6.171777e+05   1.154263e+06
  -6.059716e+05   1.630335e+06
  -1.449017e+06   8.297246e+05
  -1.205581e+06  -7.456845e+05
  -1.830167e+05  -1.732880e+06
   7.179548e+05  -1.255560e+06
   8.912384e+05   1.592987e+05
   4.236382e+05   1.144933e+06
  -1.951026e+05   9.386164e+05
  -5.342263e+05   8.450028e+04
  -4.616117e+05  -3.661547e+05
  -1.731731e+05  -1.343478e+05
  -4.038425e+04   9.478214e+04
  -2.438625e+05  -2.814273e+05
  -4.767479e+05  -9.316398e+05
  -1.967027e+05  -1.038933e+06
   6.697558e+05  -3.744970e+05
   1.422210e+06   4.556680e+05
   1.245612e+06   8.087164e+05
   1.756520e+05   6.703475e+05
  -8.385375e+05   4.024363e+05
  -9.531113e+05   1.773088e+05
  -3.340844e+05  -4.854391e+04
   1.468308e+05  -2.170698e+05
   1.818411e+04  -2.002349e+05
  -2.731433e+05  -9.555741e+04
  -4.260359e+04  -1.315877e+05
   6.570767e+05  -2.244526e+05
   1.009075e+06   2.084871e+04
   3.923635e+05   6.747587e+05
  -8.333482e+05   1.128644e+06
  -1.637056e+06   7.084149e+05
  -1.345489e+06  -4.361130e+05
  -2.551518e+05  -1.361794e+06
   7.439409e+05  -1.317839e+06
   1.017904e+06  -5.061017e+05
   6.360349e+05   2.329207e+05
   1.222192e+05   3.483070e+05
  -8.179464e+04   6.116692e+04
   7.093580e+04  -2.230521e+04
   2.922632e+05   3.499699e+05
   2.397953e+05   7.785190e+05
  -1.788325e+05   6.532324e+05
  -6.624246e+05  -1.250889e+05
  -7.073176e+05  -9.301023e+05
  -9.717475e+04  -1.000063e+06
   7.378280e+05  -2.311235e+05
   9.982211e+05   7.077743e+05
   3.271949e+05   1.054921e+06
  -6.949298e+05   6.461461e+05
  -1.076088e+06  -7.993636e+04
  -5.027440e+05  -5.891217e+05
   2.826659e+05  -6.452291e+05
   3.609385e+05  -3.479060e+05
  -2.480771e+05  -7.803313e+03
  -6.295479e+05   3.627173e+04
  -1.372097e+05  -2.977035e+05
   7.976716e+05  -6.537575e+05
   1.206728e+06  -5.193372e+05
   7.241123e+05   1.720250e+05
  -9.759455e+04   8.360644e+05
  -5.305657e+05   8.177555e+05
  -4.074454e+05   1.456175e+05
  -4.912762e+04  -4.676990e+05
   2.354555e+05  -4.168958e+05
   3.439507e+05   1.482148e+05
   2.433770e+05   5.584694e+05
  -5.693178e+04   4.081021e+05
  -3.787982e+05  -4.638884e+04
  -4.536011e+05  -2.691853e+05
  -2.311899e+05  -9.004240e+04
   2.682989e+04   1.426338e+05
   7.299412e+04   3.302130e+04
  -6.071965e+03  -3.503668e+05
   6.407483e+04  -5.330594e+05
   3.189884e+05  -2.034255e+05
   4.397679e+05   3.782695e+05
   1.420980e+05   6.334806e+05
  -3.989823e+05   3.028051e+05
  -6.404908e+05  -2.764329e+05
  -2.436703e+05  -5.578914e+05
   4.894118e+05  -3.503473e+05
   8.509798e+05   7.829834e+04
   4.608104e+05   3.663460e+05
  -2.870419e+05   3.826910e+05
  -6.196999e+05   2.143632e+05
  -2.389940e+05   1.354273e+04
   3.423474e+05  -6.685443e+04
   3.999416e+05   6.470311e+04
  -1.634408e+05   2.875940e+05
  -7.239962e+05   2.676796e+05
