
 $NMID
 id='ANONYMOUS ', fmtdat='(2E16.6)'
 volume=1.0
 tramp=1.0
 $END
  -1.238791e+07   1.929153e+06
  -9.769926e+06  -3.676440e+06
  -2.123028e+06  -7.718958e+06
   4.286449e+06  -7.139732e+06
   5.037112e+06  -2.279790e+06
   1.213702e+06   2.264741e+06
  -2.529707e+06   2.171679e+06
  -2.843197e+06  -1.644828e+06
  -2.839077e+05  -4.194560e+06
   2.221141e+06  -2.444105e+06
   2.499358e+06   1.370531e+06
   7.269473e+05   2.877548e+06
  -1.191828e+06   6.982327e+05
  -1.385025e+06  -2.471361e+06
   3.598482e+05  -3.208014e+06
   2.284971e+06  -8.247611e+05
   2.264402e+06   2.366758e+06
   6.556591e+04   3.557208e+06
  -2.260333e+06   2.036450e+06
  -2.604379e+06  -4.226798e+05
  -1.138755e+06  -1.599016e+06
   5.533347e+04  -1.119175e+06
  -4.390967e+05  -5.164363e+05
  -1.740721e+06  -1.110804e+06
  -1.775897e+06  -2.389325e+06
   3.069741e+05  -2.780786e+06
   3.055050e+06  -1.585519e+06
   4.014436e+06   3.503309e+05
   2.164223e+06   1.627249e+06
  -8.723591e+05   1.472352e+06
  -2.254494e+06   1.357963e+05
  -8.075426e+05  -1.289872e+06
   1.723709e+06  -1.488502e+06
   2.650320e+06  -3.352412e+04
   1.315682e+06   1.880697e+06
  -4.883387e+05   2.368063e+06
  -9.422583e+05   9.177144e+05
  -1.712054e+05  -8.381717e+05
   4.744306e+05  -9.091602e+05
   2.687679e+05   7.081520e+05
  -4.321411e+05   2.024635e+06
  -1.032844e+06   1.426394e+06
  -1.163282e+06  -4.677366e+05
  -5.683196e+05  -1.597374e+06
   5.742052e+05  -8.088260e+05
   1.229443e+06   9.672930e+05
   3.159887e+05   1.835558e+06
  -1.715740e+06   9.124021e+05
  -2.850973e+06  -9.297187e+05
  -1.656271e+06  -2.078852e+06
   9.281138e+05  -1.710699e+06
   2.517086e+06  -3.499085e+05
   1.835576e+06   8.161535e+05
  -1.207024e+05   1.003583e+06
  -1.379042e+06   3.429807e+05
  -9.921660e+05  -3.938634e+05
   2.842200e+05  -4.883532e+05
   9.592915e+05   1.258851e+05
   3.272251e+05   7.936687e+05
  -8.276984e+05   7.380601e+05
  -1.058895e+06  -1.137975e+05
   7.506220e+04  -9.206717e+05
   1.340059e+06  -7.053277e+05
   1.147072e+06   5.825831e+05
  -5.649783e+05   1.867458e+06
  -2.219712e+06   1.913279e+06
  -2.421410e+06   5.067012e+05
  -1.388732e+06  -1.338169e+06
  -3.476109e+05  -2.345956e+06
   3.350906e+04  -2.130950e+06
   1.299675e+05  -1.379391e+06
   5.230463e+05  -9.262279e+05
   1.217935e+06  -7.909876e+05
   1.738356e+06  -3.105350e+05
   1.624601e+06   7.843222e+05
   7.526407e+05   1.733512e+06
  -5.233726e+05   1.490044e+06
  -1.414778e+06   2.646348e+04
  -1.192079e+06  -1.436535e+06
   7.972571e+04  -1.643436e+06
   1.410165e+06  -5.489189e+05
   1.742009e+06   7.913573e+05
   9.669805e+05   1.389558e+06
  -4.921554e+04   1.162045e+06
  -4.682347e+05   7.089606e+05
  -3.679880e+05   5.582604e+05
  -5.278885e+05   6.996583e+05
  -1.363358e+06   6.788680e+05
  -2.231847e+06   5.090759e+04
  -1.994987e+06  -1.132854e+06
  -3.414658e+05  -2.184718e+06
   1.619788e+06  -2.249345e+06
   2.330673e+06  -1.105993e+06
   1.364568e+06   4.759198e+05
  -1.600930e+05   1.322424e+06
  -8.048008e+05   9.149013e+05
  -2.445363e+05  -1.270675e+05
   6.415108e+05  -6.764736e+05
   8.824160e+05  -2.471409e+05
   3.468178e+05   5.242151e+05
  -3.356979e+05   6.211991e+05
  -4.670993e+05  -1.353175e+05
   1.421941e+05  -7.795441e+05
   1.010652e+06  -2.722712e+05
   1.277488e+06   1.199396e+06
   3.995666e+05   2.255157e+06
  -1.206912e+06   1.758930e+06
  -2.330793e+06   4.421391e+04
  -2.032610e+06  -1.459670e+06
  -5.970146e+05  -1.704724e+06
   7.187949e+05  -9.245805e+05
   9.379498e+05  -1.323046e+05
   2.751478e+05  -6.474640e+03
  -2.375739e+05  -3.811786e+05
   6.959035e+04  -6.370179e+05
   8.107983e+05  -3.858208e+05
   1.038610e+06   1.994377e+05
   3.590599e+05   5.884319e+05
  -5.509876e+05   4.041781e+05
  -6.346028e+05  -1.849051e+05
   3.426611e+05  -5.645961e+05
   1.421534e+06  -2.417038e+05
   1.410700e+06   6.352027e+05
   1.708096e+05   1.345544e+06
  -1.211529e+06   1.242703e+06
  -1.548054e+06   3.745609e+05
  -7.134694e+05  -5.278090e+05
   3.539482e+05  -7.177900e+05
   6.636103e+05  -1.477748e+05
   6.623220e+04   4.814409e+05
  -7.526792e+05   4.414075e+05
  -9.882700e+05  -2.488917e+05
  -4.279606e+05  -8.500734e+05
   3.994051e+05  -7.360149e+05
   7.284818e+05  -9.121600e+04
   3.013808e+05   3.308358e+05
  -3.442256e+05   7.603134e+04
  -4.075190e+05  -5.332689e+05
   3.026222e+05  -7.905801e+05
   1.106031e+06  -3.419213e+05
   1.149185e+06   5.052935e+05
   3.195511e+05   1.093285e+06
  -6.362526e+05   9.759838e+05
  -8.985800e+05   2.801418e+05
  -3.809158e+05  -3.954085e+05
   2.750708e+05  -5.034167e+05
   4.180060e+05  -6.757752e+04
   1.851209e+04   3.548541e+05
  -3.908078e+05   3.000538e+05
  -3.277157e+05  -7.434651e+04
   1.247525e+05  -2.047761e+05
   4.075495e+05   1.660120e+05
   8.119178e+04   6.452440e+05
  -6.745812e+05   6.148624e+05
  -1.182322e+06  -9.062132e+04
  -9.147054e+05  -9.913151e+05
  -1.769390e+04  -1.395612e+06
   8.293319e+05  -9.994521e+05
   1.063853e+06  -1.310637e+05
   7.237047e+05   5.424880e+05
   2.965263e+05   6.083319e+05
   1.552625e+05   2.715019e+05
   2.026293e+05   9.213045e+04
   7.041249e+04   3.238613e+05
  -3.847030e+05   5.974686e+05
  -8.376356e+05   3.673634e+05
  -7.750434e+05  -3.751621e+05
  -3.590476e+04  -9.851040e+05
   9.254647e+05  -8.118941e+05
   1.352826e+06   1.129251e+05
   8.343085e+05   1.082868e+06
  -3.067805e+05   1.362895e+06
  -1.260357e+06   8.073716e+05
  -1.407547e+06  -8.785855e+04
  -8.068090e+05  -6.724829e+05
  -5.592325e+04  -7.015925e+05
   2.981661e+05  -4.718112e+05
   2.187004e+05  -4.211981e+05
   9.758060e+04  -6.097993e+05
   2.705081e+05  -6.550134e+05
   6.394359e+05  -2.125774e+05
   7.767708e+05   5.479467e+05
   3.971985e+05   1.040782e+06
  -2.900236e+05   8.388479e+05
  -7.311677e+05   9.506038e+04
  -5.580482e+05  -6.099515e+05
   3.934856e+04  -7.862954e+05
   5.017230e+05  -4.051211e+05
   4.671462e+05   1.604344e+05
   1.129037e+05   4.970912e+05
  -9.402874e+04   4.789141e+05
   4.769427e+04   2.974851e+05
   2.394234e+05   2.030842e+05
   3.952606e+04   2.325215e+05
  -5.789910e+05   2.031546e+05
  -1.101839e+06  -4.415745e+04
  -9.610757e+05  -4.387766e+05
  -1.477943e+05  -7.245103e+05
   7.157057e+05  -6.838148e+05
   9.617028e+05  -3.269452e+05
   5.200666e+05   9.453982e+04
  -6.623857e+04   2.689729e+05
  -2.471943e+05   1.007989e+05
   8.316786e+02  -1.610282e+05
   2.763543e+05  -1.550084e+05
   2.767764e+05   1.663681e+05
   9.051731e+04   4.289142e+05
  -1.007913e+04   2.773409e+05
   7.968276e+04  -1.330632e+05
   2.166221e+05  -2.699267e+05
   1.927372e+05   1.109247e+05
  -7.261566e+04   6.105576e+05
  -4.537955e+05   6.339638e+05
  -6.559747e+05   9.544370e+04
  -4.169598e+05  -4.860270e+05
   1.817375e+05  -5.754901e+05
   6.343590e+05  -1.607024e+05
   4.339844e+05   3.153940e+05
  -3.325020e+05   4.245354e+05
  -9.433229e+05   9.521362e+04
  -7.482242e+05  -3.964538e+05
   1.153112e+05  -6.638683e+05
   8.395170e+05  -4.963473e+05
   7.939645e+05  -3.851580e+04
   1.566570e+05   3.036551e+05
  -3.380400e+05   2.320237e+05
  -1.976876e+05  -1.194006e+05
   3.551403e+05  -2.824777e+05
   6.714933e+05   5.839157e+04
   3.577755e+05   6.794476e+05
  -3.507446e+05   9.691132e+05
  -8.510967e+05   5.210981e+05
  -7.542781e+05  -4.020423e+05
  -1.990589e+05  -1.037619e+06
   3.544953e+05  -8.323588e+05
   5.547507e+05  -7.481541e+03
   3.714509e+05   6.507369e+05
   3.777928e+03   6.078124e+05
  -2.948838e+05   1.078318e+05
  -3.454961e+05  -2.039885e+05
  -1.642020e+05  -8.738325e+04
   3.867369e+03   7.457397e+04
  -8.158712e+04  -1.186531e+05
  -3.067930e+05  -5.116761e+05
  -2.430361e+05  -6.170621e+05
   3.011721e+05  -2.716190e+05
   8.851185e+05   1.909477e+05
   8.527724e+05   4.087272e+05
   1.516537e+05   3.774807e+05
  -5.318711e+05   2.839149e+05
  -5.790180e+05   1.816792e+05
  -1.558309e+05   2.187229e+04
   9.555548e+04  -1.313548e+05
  -6.752959e+04  -1.513546e+05
  -2.382466e+05  -8.005178e+04
  -4.044629e+03  -8.330990e+04
   4.555826e+05  -1.429962e+05
   5.929753e+05  -1.618201e+04
   1.653486e+05   3.726227e+05
  -5.048889e+05   6.716629e+05
  -8.915170e+05   4.502783e+05
  -7.372044e+05  -2.333653e+05
  -1.922213e+05  -8.096297e+05
   3.607106e+05  -7.971217e+05
   5.819710e+05  -3.030801e+05
   4.005462e+05   1.477778e+05
   5.833164e+04   2.021339e+05
  -1.067809e+05   1.202740e+03
   1.821481e+04  -6.255180e+04
   2.215768e+05   1.732114e+05
   2.054000e+05   4.499409e+05
  -9.086831e+04   3.802663e+05
  -4.125954e+05  -9.049189e+04
  -4.222566e+05  -5.647112e+05
  -2.965434e+04  -5.821584e+05
   4.678569e+05  -1.081504e+05
   6.045568e+05   4.334186e+05
   1.997128e+05   6.085156e+05
  -3.949905e+05   3.675945e+05
  -6.112154e+05  -1.866342e+04
  -2.865089e+05  -2.848608e+05
   1.373212e+05  -3.370039e+05
   1.469573e+05  -2.058873e+05
  -2.068352e+05  -1.262788e+04
  -3.886746e+05   4.141167e+04
  -7.493020e+04  -1.598852e+05
   4.427760e+05  -4.323809e+05
   6.401600e+05  -4.059688e+05
   3.773050e+05   2.397100e+04
  -2.549967e+04   4.764600e+05
  -2.266067e+05   4.837078e+05
  -1.781738e+05   6.104984e+04
  -2.020915e+04  -3.004991e+05
   1.331974e+05  -2.268850e+05
   2.159379e+05   1.245337e+05
   1.609806e+05   3.229059e+05
  -3.136852e+04   1.969424e+05
  -2.247229e+05  -3.411693e+04
  -2.608944e+05  -1.031376e+05
  -1.396768e+05  -9.814523e+03
  -6.148518e+03   4.292346e+04
   4.122169e+04  -6.937898e+04
   5.365331e+04  -2.435586e+05
   1.206468e+05  -2.636338e+05
   2.163092e+05  -3.895117e+04
   2.085503e+05   2.702591e+05
   1.780772e+04   3.808606e+05
  -2.516741e+05   1.713868e+05
  -3.575734e+05  -1.733577e+05
  -1.415066e+05  -3.434330e+05
   2.600378e+05  -2.203515e+05
   4.771410e+05   3.577391e+04
   2.725670e+05   1.996362e+05
  -1.551548e+05   1.984153e+05
  -3.446791e+05   1.034151e+05
  -9.908568e+04   9.063722e+03
   2.594340e+05  -1.176511e+04
   2.637258e+05   8.059666e+04
  -1.319629e+05   2.136901e+05
  -4.965554e+05   1.886482e+05
