
 $NMID
 id='ANONYMOUS ', fmtdat='(2E16.6)'
 volume=1.0
 tramp=1.0
 $END
   2.893984e+06   4.116815e+05
   3.940003e+05   3.640802e+06
  -2.439873e+06   2.206522e+06
  -2.135176e+06  -1.439888e+06
   2.503138e+05  -2.562031e+06
   1.361645e+06  -5.961675e+05
   3.372440e+05   1.139911e+06
  -8.864484e+05   6.939264e+05
  -9.415964e+05  -5.574117e+05
  -3.884675e+05  -8.632370e+05
  -2.608407e+04  -4.033812e+05
   1.821914e+05  -1.415226e+05
   3.238962e+05  -2.444137e+05
   1.702546e+05  -4.063258e+05
  -1.081599e+05  -5.491045e+05
   2.074415e+04  -5.761602e+05
   4.840526e+05  -2.725540e+05
   6.468794e+05   1.708426e+05
   4.299191e+05   2.943598e+05
   3.734686e+05   2.236829e+05
   4.609659e+05   5.174644e+05
  -9.670158e+02   9.795749e+05
  -1.000310e+06   6.610980e+05
  -1.418504e+06  -5.508759e+05
  -5.901831e+05  -1.380366e+06
   6.234473e+05  -8.509927e+05
   9.779076e+05   3.195804e+05
   3.700894e+05   7.648178e+05
  -3.911622e+05   2.264048e+05
  -7.013160e+05  -5.172266e+05
  -4.237277e+05  -8.951174e+05
   3.542821e+05  -8.559043e+05
   1.137150e+06  -3.787296e+05
   1.126085e+06   4.084525e+05
   2.381321e+05   8.708857e+05
  -4.583636e+05   5.044307e+05
  -9.551988e+04  -1.860071e+05
   6.803022e+05  -2.455099e+05
   6.480161e+05   3.735534e+05
  -1.452806e+05   8.165331e+05
  -5.836852e+05   6.584788e+05
  -3.258323e+05   3.621945e+05
  -2.003958e+05   2.884630e+05
  -6.217078e+05   1.371375e+05
  -8.476185e+05  -2.954638e+05
  -3.157127e+05  -5.847510e+05
   3.193012e+05  -3.844298e+05
   2.176702e+05  -5.753461e+04
  -3.318759e+05  -8.630471e+04
  -4.402762e+05  -3.301441e+05
   4.497547e+04  -3.778350e+05
   5.164759e+05  -2.288421e+05
   5.928357e+05  -1.107108e+05
   4.054011e+05   1.967812e+04
   1.214341e+05   2.568919e+05
  -1.540879e+05   3.520565e+05
  -1.662811e+05   1.140929e+05
   1.661683e+05  -7.088772e+04
   3.573675e+05   2.349181e+05
  -6.449145e+04   6.760242e+05
  -6.934532e+05   5.080090e+05
  -6.870011e+05  -2.146100e+05
  -5.638122e+04  -6.169553e+05
   2.792198e+05  -2.806858e+05
  -1.151677e+05   1.924630e+05
  -5.542778e+05   1.639082e+05
  -3.617047e+05  -1.644085e+05
   9.760208e+04  -2.828280e+05
   1.049238e+05  -2.372277e+05
  -2.279928e+05  -3.964523e+05
  -1.863660e+05  -6.919508e+05
   3.961342e+05  -6.708366e+05
   9.070460e+05  -1.865279e+05
   8.344044e+05   4.194832e+05
   3.181295e+05   7.681336e+05
  -2.164351e+05   7.222861e+05
  -5.102816e+05   3.090295e+05
  -4.722866e+05  -2.647929e+05
  -1.357934e+05  -5.750739e+05
   2.388547e+05  -3.403982e+05
   3.183925e+05   1.632278e+05
   9.374539e+04   3.745855e+05
  -9.827857e+04   1.555428e+05
  -3.575980e+04  -8.941306e+04
   1.260080e+05  -3.014869e+04
   1.252592e+05   1.943304e+05
  -9.324196e+04   2.861645e+05
  -4.021114e+05   1.684304e+05
  -6.035148e+05  -8.285053e+04
  -4.661296e+05  -3.915197e+05
   7.444954e+04  -5.923362e+05
   6.540129e+05  -4.550526e+05
   7.182474e+05  -1.321755e+04
   1.985390e+05   3.397194e+05
  -3.178255e+05   3.017574e+05
  -3.051944e+05   3.923327e+04
   6.437677e+04  -9.076859e+04
   2.594159e+05  -1.800841e+04
   1.222798e+05   7.088487e+04
  -7.525291e+04   7.365342e+04
  -1.350206e+05   1.539773e+04
  -9.221843e+04  -1.138344e+05
   5.032093e+04  -2.657860e+05
   3.257341e+05  -1.873551e+05
   5.126238e+05   2.773122e+05
   2.541036e+05   7.728540e+05
  -3.861805e+05   7.117740e+05
  -8.262610e+05   4.914230e+04
  -6.386417e+05  -5.721302e+05
  -7.661968e+04  -6.041780e+05
   2.879305e+05  -2.204719e+05
   2.512139e+05   4.179611e+04
   6.614897e+04  -4.207057e+03
   3.444876e+02  -1.186353e+05
   7.156825e+04  -9.579364e+04
   1.586578e+05   1.365319e+04
   1.497906e+05   8.710406e+04
   3.396085e+03   7.667061e+04
  -1.679577e+05  -2.678835e+04
  -1.231913e+05  -1.734552e+05
   2.138369e+05  -1.986298e+05
   5.339695e+05   2.276462e+04
   4.371127e+05   3.479014e+05
  -4.755986e+04   4.683289e+05
  -4.519456e+05   2.796006e+05
  -4.276933e+05  -1.003144e+03
  -1.180066e+05  -1.240132e+05
   1.031582e+05  -6.964952e+04
   7.476215e+04   2.578137e+04
  -8.676540e+04   5.825177e+04
  -2.106880e+05  -1.500650e+03
  -2.050963e+05  -1.272074e+05
  -6.328459e+04  -2.159175e+05
   1.138624e+05  -1.551851e+05
   1.576875e+05   6.994705e+03
   2.210862e+04   6.491138e+04
  -1.085372e+05  -7.836245e+04
  -2.430679e+04  -2.463200e+05
   2.260741e+05  -2.043422e+05
   3.761869e+05   3.793387e+04
   2.606832e+05   2.593436e+05
  -1.229314e+04   3.020654e+05
  -2.100809e+05   1.918523e+05
  -2.038459e+05   3.440385e+04
  -4.377370e+04  -7.349401e+04
   1.042494e+05  -5.844358e+04
   8.665320e+04   6.379679e+04
  -8.991390e+04   1.420723e+05
  -2.287698e+05   4.462844e+04
  -1.463490e+05  -1.314780e+05
   8.356341e+04  -1.464546e+05
   1.862945e+05   5.344347e+04
   1.849406e+04   2.326656e+05
  -2.516870e+05   1.586577e+05
  -3.477889e+05  -1.181543e+05
  -1.851136e+05  -3.552697e+05
   9.191653e+04  -3.895439e+05
   2.927610e+05  -2.326342e+05
   3.228869e+05   8.767519e+03
   2.067093e+05   1.975389e+05
   6.106731e+04   2.216939e+05
   1.100016e+04   1.068354e+05
   5.246275e+04   3.037017e+04
   3.376691e+04   1.083828e+05
  -1.416252e+05   2.069983e+05
  -3.302638e+05   1.016060e+05
  -2.816159e+05  -1.867841e+05
   3.903281e+04  -3.643747e+05
   3.675133e+05  -2.159644e+05
   4.169947e+05   1.359879e+05
   1.608133e+05   3.855663e+05
  -1.893396e+05   3.637209e+05
  -4.043655e+05   1.396695e+05
  -3.892486e+05  -1.105649e+05
  -1.955027e+05  -2.464916e+05
   3.094580e+04  -2.279139e+05
   1.457590e+05  -1.316140e+05
   1.234966e+05  -8.676671e+04
   7.479051e+04  -1.291690e+05
   1.053402e+05  -1.423697e+05
   1.781387e+05  -7.580982e+03
   1.651272e+05   2.123363e+05
   2.083461e+04   3.173948e+05
  -1.509822e+05   1.993186e+05
  -2.080855e+05  -4.112219e+04
  -1.086702e+05  -2.138893e+05
   6.114852e+04  -2.177811e+05
   1.658009e+05  -8.889242e+04
   1.308011e+05   6.518347e+04
   1.075090e+04   1.482312e+05
  -5.728043e+04   1.358263e+05
  -5.466880e+03   8.639666e+04
   6.842051e+04   7.057632e+04
   9.163200e+03   7.942274e+04
  -1.864274e+05   3.765225e+04
  -3.302198e+05  -8.119063e+04
  -2.475891e+05  -1.993322e+05
   1.934658e+04  -2.214392e+05
   2.536811e+05  -1.391201e+05
   2.854966e+05  -2.128676e+04
   1.375011e+05   6.204681e+04
  -3.054296e+04   7.546525e+04
  -8.240702e+04   2.133389e+04
  -1.342919e+04  -4.531359e+04
   7.076649e+04  -4.097183e+04
   7.365284e+04   4.837585e+04
   1.034709e+04   1.190848e+05
  -1.922620e+04   6.898970e+04
   3.693109e+04  -4.752759e+04
   1.071056e+05  -6.653759e+04
   7.951284e+04   6.618444e+04
  -5.859572e+04   2.027296e+05
  -1.986682e+05   1.694392e+05
  -2.193260e+05  -1.757205e+04
  -9.388649e+04  -1.742435e+05
   9.113888e+04  -1.603613e+05
   1.918682e+05  -1.448891e+04
   1.072396e+05   1.119539e+05
  -1.155922e+05   1.057879e+05
  -2.778095e+05  -2.314213e+04
  -2.005140e+05  -1.636379e+05
   6.986411e+04  -1.960307e+05
   2.801898e+05  -9.432599e+04
   2.377656e+05   4.642374e+04
   2.258051e+04   9.978482e+04
  -1.148544e+05   3.498924e+04
  -4.160201e+04  -5.471439e+04
   1.281774e+05  -5.144291e+04
   1.854051e+05   6.967384e+04
   5.259391e+04   2.146401e+05
  -1.565794e+05   2.453324e+05
  -2.636703e+05   9.511088e+04
  -1.864092e+05  -1.524501e+05
   3.262152e+03  -3.021425e+05
   1.533506e+05  -2.149870e+05
   1.642405e+05   3.651703e+04
   6.081586e+04   2.187826e+05
  -5.452844e+04   1.787334e+05
  -1.036187e+05   5.809149e+03
  -8.148889e+04  -9.143761e+04
  -3.142359e+04  -4.337338e+04
  -2.862630e+03   1.783313e+04
  -1.962758e+04  -3.985401e+04
  -5.055580e+04  -1.630282e+05
  -1.923065e+04  -1.876320e+05
   1.070067e+05  -5.724304e+04
   2.342294e+05   1.097025e+05
   2.126721e+05   1.725288e+05
   2.354490e+04   1.215556e+05
  -1.633098e+05   4.835138e+04
  -1.774344e+05   1.325138e+04
  -5.310043e+04  -1.667717e+03
   2.944692e+04  -2.572057e+04
  -1.028956e+04  -4.781798e+04
  -6.017370e+04  -4.747310e+04
   5.830652e+03  -3.172370e+04
   1.385573e+05  -9.639131e+03
   1.709253e+05   3.712398e+04
   2.903684e+04   1.129628e+05
  -1.788326e+05   1.541543e+05
  -2.799453e+05   7.672106e+04
  -1.995824e+05  -1.024406e+05
  -7.515508e+03  -2.408681e+05
   1.559947e+05  -2.121290e+05
   1.906347e+05  -5.348543e+04
   1.058256e+05   7.302308e+04
   1.928861e+03   6.668289e+04
  -2.798720e+04  -7.154657e+03
   1.475292e+04  -1.581133e+04
   5.102942e+04   7.086518e+04
   2.057873e+04   1.461761e+05
  -5.580203e+04   9.748177e+04
  -1.061063e+05  -5.803435e+04
  -7.656449e+04  -1.830409e+05
   2.553160e+04  -1.581849e+05
   1.292100e+05  -1.126108e+03
   1.398975e+05   1.526909e+05
   2.355887e+04   1.818075e+05
  -1.312757e+05   8.479704e+04
  -1.770188e+05  -4.103434e+04
  -6.962211e+04  -1.059515e+05
   6.292158e+04  -9.563043e+04
   6.492269e+04  -4.967828e+04
  -5.080996e+04  -1.178878e+04
  -1.144840e+05  -1.035228e+04
  -1.625334e+04  -5.024762e+04
   1.521446e+05  -9.340280e+04
   2.123567e+05  -7.320737e+04
   1.119410e+05   2.913379e+04
  -3.428623e+04   1.324506e+05
  -9.591072e+04   1.283241e+05
  -5.754555e+04   1.561113e+04
   9.590735e+03  -8.233962e+04
   4.845058e+04  -6.055737e+04
   5.130326e+04   4.267182e+04
   2.713002e+04   1.010588e+05
  -1.651736e+04   5.744842e+04
  -5.900437e+04  -2.174830e+04
  -6.977392e+04  -4.683336e+04
  -4.116306e+04  -1.268155e+04
  -8.871810e+02   1.452024e+04
   2.104751e+04  -9.788109e+03
   2.658082e+04  -5.745534e+04
   3.706788e+04  -6.456207e+04
   5.294612e+04  -4.314815e+03
   4.425102e+04   7.792535e+04
  -9.578308e+03   1.021210e+05
  -7.795459e+04   3.503453e+04
  -9.345906e+04  -6.567593e+04
  -2.088584e+04  -1.044315e+05
   8.944881e+04  -4.944137e+04
   1.351170e+05   3.620056e+04
   6.540335e+04   7.244328e+04
  -5.338560e+04   4.817209e+04
  -9.915648e+04   1.221498e+04
  -2.947232e+04   2.622226e+03
   6.437197e+04   1.637200e+04
   6.008672e+04   3.544277e+04
  -4.952460e+04   4.320454e+04
  -1.431964e+05   1.613093e+04
