
 $NMID
 id='ANONYMOUS ', fmtdat='(2E16.6)'
 volume=1.0
 tramp=1.0
 $END
  -2.728557e+07   7.871735e+05
  -1.796318e+07  -1.391220e+07
   8.969080e+05  -1.780921e+07
   1.213924e+07  -1.016063e+07
   9.218106e+06   3.431923e+05
  -8.542242e+04   4.790953e+06
  -5.217635e+06   1.464674e+06
  -3.248256e+06  -4.432695e+06
   1.750250e+06  -6.463938e+06
   4.894366e+06  -2.613987e+06
   4.157383e+06   3.225997e+06
   6.603985e+05   5.150262e+06
  -2.351656e+06   1.329825e+06
  -1.932142e+06  -3.908642e+06
   1.546097e+06  -4.749121e+06
   4.309205e+06  -2.120501e+05
   3.102896e+06   5.144428e+06
  -1.277383e+06   6.469327e+06
  -5.032637e+06   3.262415e+06
  -5.350180e+06  -1.213039e+06
  -2.736257e+06  -3.698136e+06
   2.243105e+04  -3.476262e+06
   5.569893e+05  -2.146319e+06
  -9.521379e+05  -1.747715e+06
  -1.836238e+06  -2.784241e+06
   2.930049e+05  -3.692268e+06
   4.382265e+06  -2.582033e+06
   6.418216e+06   3.678877e+05
   3.920747e+06   2.827708e+06
  -8.221664e+05   2.839746e+06
  -3.193142e+06   8.138584e+05
  -1.456507e+06  -1.213301e+06
   1.768585e+06  -1.592693e+06
   3.052004e+06  -8.520671e+04
   1.719418e+06   2.184672e+06
  -4.042275e+05   3.262535e+06
  -1.472255e+06   1.850171e+06
  -1.060258e+06  -8.827386e+05
   1.554061e+04  -1.901364e+06
   4.782846e+05   1.029726e+05
  -3.610113e+05   2.527966e+06
  -1.686141e+06   1.880918e+06
  -1.699989e+06  -1.412845e+06
   2.781662e+05  -3.194499e+06
   2.529088e+06  -9.349155e+05
   2.488929e+06   2.927709e+06
  -3.688125e+05   4.070157e+06
  -3.700934e+06   1.400736e+06
  -4.490367e+06  -2.232463e+06
  -1.907874e+06  -3.651013e+06
   1.916916e+06  -2.268455e+06
   3.781026e+06   2.427393e+05
   2.276181e+06   1.842602e+06
  -8.925966e+05   1.542549e+06
  -2.574506e+06  -4.751784e+04
  -1.415215e+06  -1.228517e+06
   7.979683e+05  -8.369794e+05
   1.364070e+06   4.691394e+05
  -1.221376e+05   1.004629e+06
  -1.476804e+06   1.166840e+05
  -7.565626e+05  -1.130658e+06
   1.423433e+06  -1.332673e+06
   2.715000e+06  -1.487015e+05
   1.625306e+06   1.711170e+06
  -1.134762e+06   3.120352e+06
  -3.525698e+06   2.958548e+06
  -3.968430e+06   8.070097e+05
  -2.474075e+06  -2.199204e+06
  -4.331560e+05  -3.901421e+06
   6.960508e+05  -3.256629e+06
   6.881243e+05  -1.540884e+06
   5.329008e+05  -7.122453e+05
   1.094705e+06  -9.538077e+05
   2.036214e+06  -7.532791e+05
   2.263126e+06   6.892685e+05
   1.216329e+06   2.167415e+06
  -5.245337e+05   1.975684e+06
  -1.750133e+06   4.602183e+04
  -1.522579e+06  -1.951365e+06
   1.443723e+05  -2.342558e+06
   2.111241e+06  -9.094144e+05
   2.820767e+06   1.157486e+06
   1.700459e+06   2.396680e+06
  -1.488785e+05   2.246692e+06
  -1.123577e+06   1.356587e+06
  -9.869824e+05   7.733372e+05
  -1.013330e+06   7.856878e+05
  -2.080870e+06   6.895024e+05
  -3.236266e+06  -2.651385e+05
  -2.731552e+06  -1.895368e+06
  -2.528780e+05  -3.161228e+06
   2.466951e+06  -3.072398e+06
   3.352154e+06  -1.502644e+06
   1.992292e+06   6.184712e+05
  -1.174607e+05   1.846315e+06
  -1.104777e+06   1.358694e+06
  -4.017201e+05  -1.433308e+05
   9.243213e+05  -9.776707e+05
   1.377372e+06  -3.038567e+05
   5.637350e+05   8.537397e+05
  -4.950927e+05   8.925129e+05
  -5.636885e+05  -2.437826e+05
   4.487656e+05  -9.086965e+05
   1.440768e+06   1.434856e+05
   1.275457e+06   2.111353e+06
  -1.866791e+05   3.009449e+06
  -2.039595e+06   1.843604e+06
  -3.027391e+06  -4.741827e+05
  -2.414070e+06  -2.189740e+06
  -5.978800e+05  -2.305759e+06
   1.045097e+06  -1.216840e+06
   1.310596e+06  -1.364650e+05
   3.900878e+05   2.568424e+04
  -3.088714e+05  -5.711925e+05
   2.044594e+05  -9.655180e+05
   1.304416e+06  -4.866688e+05
   1.529326e+06   4.839408e+05
   4.209665e+05   9.717880e+05
  -8.550533e+05   5.295385e+05
  -8.408349e+05  -3.090121e+05
   5.491411e+05  -6.472985e+05
   1.900465e+06  -8.430834e+04
   1.747144e+06   1.004147e+06
   3.674996e+04   1.781091e+06
  -1.803451e+06   1.546288e+06
  -2.213429e+06   3.462534e+05
  -9.719775e+05  -8.830035e+05
   6.249148e+05  -1.073017e+06
   1.068274e+06  -1.544597e+05
   1.027104e+05   7.615371e+05
  -1.139582e+06   5.873598e+05
  -1.383204e+06  -4.929666e+05
  -4.492875e+05  -1.269268e+06
   7.114418e+05  -9.372434e+05
   1.035451e+06   3.599588e+04
   3.425295e+05   5.460805e+05
  -5.380332e+05   8.966338e+04
  -5.672349e+05  -7.841127e+05
   4.543838e+05  -1.106580e+06
   1.578332e+06  -4.248345e+05
   1.599429e+06   8.011934e+05
   3.523190e+05   1.597797e+06
  -1.035841e+06   1.326394e+06
  -1.329215e+06   2.670707e+05
  -4.775654e+05  -6.374281e+05
   4.625534e+05  -6.879238e+05
   5.772895e+05  -7.318548e+04
  -1.107825e+04   4.278734e+05
  -4.924963e+05   3.293414e+05
  -3.328314e+05  -8.125454e+04
   2.298877e+05  -1.501931e+05
   4.925073e+05   3.501245e+05
  -1.430546e+04   9.097860e+05
  -1.021227e+06   7.745178e+05
  -1.650664e+06  -2.484896e+05
  -1.198028e+06  -1.485865e+06
   1.103731e+05  -1.952358e+06
   1.258167e+06  -1.269998e+06
   1.449834e+06  -3.192364e+04
   8.718595e+05   7.850680e+05
   3.278421e+05   7.563982e+05
   2.580136e+05   3.192963e+05
   3.465974e+05   1.785438e+05
   6.608485e+04   5.011687e+05
  -6.192703e+05   7.640889e+05
  -1.168068e+06   3.809750e+05
  -9.681515e+05  -5.710859e+05
   8.032781e+04  -1.293876e+06
   1.349423e+06  -9.918994e+05
   1.849364e+06   2.954695e+05
   1.032180e+06   1.606969e+06
  -6.170595e+05   1.890123e+06
  -1.894940e+06   9.704481e+05
  -1.940169e+06  -3.268298e+05
  -9.774008e+05  -1.025320e+06
   3.467946e+04  -9.092541e+05
   4.018071e+05  -5.623178e+05
   2.445287e+05  -5.872613e+05
   1.512602e+05  -9.179812e+05
   4.671268e+05  -9.446613e+05
   9.552295e+05  -2.529289e+05
   1.058718e+06   8.380339e+05
   4.725284e+05   1.499051e+06
  -4.766439e+05   1.157439e+06
  -1.033345e+06   5.695110e+04
  -7.113360e+05  -9.376743e+05
   1.778345e+05  -1.105553e+06
   7.968993e+05  -4.636977e+05
   6.428131e+05   3.561167e+05
   4.929884e+04   7.542320e+05
  -2.504590e+05   6.514265e+05
   7.952197e+03   3.935961e+05
   3.242902e+05   2.915194e+05
   3.806207e+04   3.179727e+05
  -8.524202e+05   2.139646e+05
  -1.569569e+06  -1.827518e+05
  -1.306898e+06  -7.293277e+05
  -9.877997e+04  -1.064664e+06
   1.121776e+06  -9.095118e+05
   1.404809e+06  -3.351455e+05
   7.062706e+05   2.429738e+05
  -1.442133e+05   3.973181e+05
  -3.699422e+05   9.055276e+04
   6.788082e+03  -2.589979e+05
   3.880314e+05  -1.942511e+05
   3.757649e+05   2.639375e+05
   1.249715e+05   5.987149e+05
  -3.970482e+02   3.876059e+05
   1.162100e+05  -1.434223e+05
   2.852336e+05  -3.208305e+05
   2.417158e+05   1.676716e+05
  -1.353826e+05   8.210887e+05
  -6.863462e+05   8.504278e+05
  -9.711050e+05   1.055234e+05
  -5.893201e+05  -7.144529e+05
   3.067956e+05  -8.286131e+05
   9.326808e+05  -2.055279e+05
   5.833663e+05   4.701620e+05
  -5.197605e+05   5.512915e+05
  -1.308659e+06   1.423719e+04
  -9.458639e+05  -6.371302e+05
   2.699827e+05  -8.758087e+05
   1.207151e+06  -5.493350e+05
   1.071788e+06   5.252883e+04
   1.680157e+05   4.285233e+05
  -5.004061e+05   2.746720e+05
  -2.834196e+05  -1.975982e+05
   4.995375e+05  -3.869518e+05
   9.401265e+05   1.068712e+05
   4.806549e+05   9.670665e+05
  -5.337575e+05   1.342821e+06
  -1.218436e+06   6.799883e+05
  -1.019694e+06  -6.170399e+05
  -1.870785e+05  -1.457933e+06
   5.702580e+05  -1.105093e+06
   7.647428e+05   6.669224e+04
   4.311513e+05   9.426416e+05
  -8.152804e+04   8.266793e+05
  -4.284432e+05   1.108713e+05
  -4.380621e+05  -3.062266e+05
  -1.948270e+05  -1.254588e+05
  -1.388207e+04   9.621501e+04
  -1.454598e+05  -1.926663e+05
  -3.989013e+05  -7.514995e+05
  -2.490337e+05  -8.782745e+05
   4.856034e+05  -3.455004e+05
   1.212153e+06   3.465466e+05
   1.118268e+06   6.474560e+05
   1.717317e+05   5.454177e+05
  -7.387281e+05   3.499333e+05
  -8.120835e+05   1.898640e+05
  -2.423584e+05  -1.538407e+03
   1.357730e+05  -1.791927e+05
  -4.411860e+04  -1.992891e+05
  -2.883835e+05  -1.091949e+05
  -1.483321e+04  -1.112861e+05
   6.068845e+05  -1.750945e+05
   8.341395e+05   1.439206e+04
   2.538676e+05   5.403827e+05
  -7.278498e+05   9.192224e+05
  -1.309169e+06   5.812332e+05
  -1.055052e+06  -3.679914e+05
  -2.144653e+05  -1.140364e+06
   5.786251e+05  -1.094210e+06
   8.360132e+05  -4.005002e+05
   5.414404e+05   2.161973e+05
   8.263943e+04   2.856966e+05
  -1.164748e+05   1.462892e+04
   4.177261e+04  -6.110350e+04
   2.788206e+05   2.699157e+05
   2.382622e+05   6.455607e+05
  -1.486111e+05   5.344291e+05
  -5.637368e+05  -1.330054e+05
  -5.685770e+05  -8.002284e+05
  -3.400275e+04  -8.221905e+05
   6.430461e+05  -1.475648e+05
   8.221478e+05   6.244241e+05
   2.523613e+05   8.689247e+05
  -5.759066e+05   5.069937e+05
  -8.690510e+05  -6.448038e+04
  -3.979592e+05  -4.425085e+05
   2.186623e+05  -4.907815e+05
   2.480442e+05  -2.858492e+05
  -2.569094e+05  -2.504668e+04
  -5.371220e+05   3.110086e+04
  -1.018180e+05  -2.350886e+05
   6.545737e+05  -5.648234e+05
   9.554294e+05  -4.932140e+05
   5.572148e+05   8.875669e+04
  -7.162275e+04   6.775624e+05
  -3.833019e+05   6.710939e+05
  -2.842324e+05   9.316673e+04
  -1.974623e+04  -4.087325e+05
   1.982317e+05  -3.225290e+05
   2.893476e+05   1.642535e+05
   2.035965e+05   4.631121e+05
  -5.174896e+04   2.981484e+05
  -3.131992e+05  -5.327607e+04
  -3.673243e+05  -1.846338e+05
  -1.949300e+05  -4.279583e+04
   2.962717e+03   8.105549e+04
   6.434746e+04  -4.847557e+04
   5.561446e+04  -3.182495e+05
   1.344020e+05  -3.895448e+05
   2.878484e+05  -8.796538e+04
   3.071845e+05   3.611218e+05
   4.428959e+04   5.289290e+05
  -3.507673e+05   2.332963e+05
  -5.044513e+05  -2.512112e+05
  -1.853599e+05  -4.790334e+05
   3.886959e+05  -2.919784e+05
   6.809885e+05   7.376732e+04
   3.745443e+05   2.995953e+05
  -2.323596e+05   2.874104e+05
  -4.985950e+05   1.441700e+05
  -1.619338e+05   8.685596e+03
   3.335909e+05  -1.981777e+04
   3.514339e+05   1.020814e+05
  -1.760271e+05   2.706695e+05
  -6.684786e+05   2.265762e+05
