
 $NMID
 id='ANONYMOUS ', fmtdat='(2E16.6)'
 volume=1.0
 tramp=1.0
 $END
  -3.689755e+06   4.384799e+06
  -5.408467e+06   1.239303e+06
  -3.307588e+06  -2.888789e+06
   3.868097e+05  -4.154970e+06
   2.170014e+06  -1.829168e+06
   1.059809e+06   1.032563e+06
  -9.457306e+05   1.428795e+06
  -1.634243e+06  -3.589499e+05
  -7.210750e+05  -1.828388e+06
   6.115499e+05  -1.460997e+06
   1.223902e+06  -3.479757e+03
   7.821218e+05   9.039733e+05
  -2.224695e+05   5.010650e+05
  -8.066045e+05  -6.272437e+05
  -3.080862e+05  -1.288931e+06
   8.194122e+05  -7.870705e+05
   1.371005e+06   4.585200e+05
   7.614982e+05   1.352508e+06
  -3.348200e+05   1.256178e+06
  -9.159048e+05   5.406683e+05
  -8.042678e+05  -4.737493e+04
  -5.559284e+05  -2.602563e+05
  -5.744515e+05  -3.585291e+05
  -7.225233e+05  -5.401211e+05
  -6.377456e+05  -7.372996e+05
  -1.175298e+05  -8.444312e+05
   6.802637e+05  -7.941032e+05
   1.211355e+06  -4.812146e+05
   9.480155e+05   5.681745e+04
   6.620203e+04   4.371248e+05
  -5.319188e+05   2.725680e+05
  -2.249230e+05  -2.511335e+05
   5.329802e+05  -4.804323e+05
   8.244861e+05  -8.695200e+04
   4.553737e+05   5.198651e+05
   1.968748e+04   7.150536e+05
  -7.677521e+04   3.774498e+05
  -3.531690e+04  -6.443960e+04
  -7.707825e+04  -1.471798e+05
  -8.209857e+04   1.984190e+05
  -2.872520e+04   6.092084e+05
  -2.018695e+05   5.915618e+05
  -5.964688e+05   3.831517e+03
  -6.214965e+05  -6.792049e+05
   7.799615e+04  -7.577343e+05
   8.485344e+05  -9.011815e+04
   7.017929e+05   6.705969e+05
  -3.443466e+05   7.715930e+05
  -1.175340e+06   1.604382e+05
  -9.078740e+05  -5.523084e+05
   1.359356e+05  -7.821538e+05
   9.228847e+05  -4.398085e+05
   8.313161e+05   1.459960e+05
   1.098136e+05   5.266659e+05
  -5.192479e+05   4.254694e+05
  -5.258820e+05  -1.559564e+04
  -1.050555e+04  -2.919975e+05
   3.907659e+05  -6.287379e+04
   1.718080e+05   3.832581e+05
  -4.195499e+05   4.261948e+05
  -6.281870e+05  -9.346853e+04
  -1.336352e+05  -6.313072e+05
   5.243184e+05  -5.848427e+05
   6.289032e+05   3.107053e+04
   1.364379e+05   6.768342e+05
  -4.148713e+05   8.669849e+05
  -6.396690e+05   5.125766e+05
  -6.031973e+05  -1.351496e+05
  -4.758312e+05  -6.785637e+05
  -2.704464e+05  -8.130185e+05
   7.208120e+03  -5.703216e+05
   2.379754e+05  -2.851466e+05
   3.527580e+05  -1.921040e+05
   4.220003e+05  -1.460347e+05
   4.623074e+05   9.672913e+04
   3.277101e+05   4.271357e+05
  -5.197409e+04   4.663814e+05
  -4.441785e+05   9.134994e+04
  -5.007157e+05  -3.681538e+05
  -1.444908e+05  -5.247172e+05
   3.425253e+05  -3.336751e+05
   6.050569e+05  -1.698997e+04
   5.201980e+05   2.332602e+05
   2.461605e+05   3.540182e+05
   3.018982e+04   3.557002e+05
  -4.330788e+04   3.146471e+05
  -1.307517e+05   3.349710e+05
  -4.050656e+05   3.884307e+05
  -7.479648e+05   2.668771e+05
  -7.898515e+05  -1.611993e+05
  -3.454639e+05  -6.845695e+05
   2.901030e+05  -8.873718e+05
   6.158422e+05  -5.784578e+05
   4.519977e+05  -1.583309e+03
   7.301799e+04   3.949798e+05
  -1.475605e+05   3.528837e+05
  -8.642142e+04  -1.407429e+02
   1.203734e+05  -2.800343e+05
   2.589598e+05  -2.046827e+05
   1.907115e+05   1.066644e+05
  -3.929653e+04   2.409960e+05
  -1.836195e+05  -9.980399e+03
  -3.264371e+03  -3.295838e+05
   4.124692e+05  -2.192555e+05
   6.350180e+05   3.537312e+05
   3.285272e+05   8.494484e+05
  -3.445965e+05   7.651671e+05
  -8.508883e+05   1.888468e+05
  -8.100779e+05  -3.638343e+05
  -3.298539e+05  -5.279497e+05
   1.532211e+05  -3.590589e+05
   2.900765e+05  -1.263497e+05
   9.341007e+04  -2.766931e+04
  -1.229078e+05  -9.684805e+04
  -6.793615e+04  -2.277377e+05
   2.175281e+05  -2.463672e+05
   3.936106e+05  -6.930381e+04
   2.176607e+05   1.652125e+05
  -1.315600e+05   2.107936e+05
  -2.326999e+05   4.381081e+03
   7.247857e+04  -2.262429e+05
   4.705271e+05  -2.009860e+05
   5.280646e+05   1.080558e+05
   1.648687e+05   4.482210e+05
  -2.955091e+05   5.295090e+05
  -4.831706e+05   2.789181e+05
  -3.090123e+05  -9.847898e+04
   1.798822e+04  -2.877738e+05
   2.014471e+05  -1.477132e+05
   9.316637e+04   1.372136e+05
  -1.913249e+05   2.341832e+05
  -3.661543e+05   2.568309e+04
  -2.422528e+05  -2.577186e+05
   6.954500e+04  -3.130110e+05
   2.615073e+05  -1.134715e+05
   1.583359e+05   9.059711e+04
  -9.189563e+04   7.969139e+04
  -1.845816e+05  -1.122239e+05
   9.170796e+03  -2.707160e+05
   3.096644e+05  -2.182827e+05
   4.193270e+05   4.156082e+04
   2.222535e+05   3.240537e+05
  -1.072801e+05   3.979363e+05
  -2.823655e+05   1.934922e+05
  -1.843463e+05  -1.001162e+05
   3.523164e+04  -2.077640e+05
   1.325769e+05  -6.525051e+04
   3.320989e+04   1.176811e+05
  -1.090330e+05   1.228104e+05
  -1.071226e+05  -1.782174e+04
   4.381747e+04  -8.997573e+04
   1.655875e+05   2.458456e+04
   9.050130e+04   2.142287e+05
  -1.627011e+05   2.685334e+05
  -3.944153e+05   8.724790e+04
  -3.962915e+05  -2.306447e+05
  -1.393007e+05  -4.576059e+05
   1.900808e+05  -4.138085e+05
   3.546411e+05  -1.345558e+05
   2.851779e+05   1.388150e+05
   1.252321e+05   1.919346e+05
   5.021057e+04   6.508240e+04
   7.234857e+04  -9.961406e+03
   5.862926e+04   9.269706e+04
  -7.694335e+04   2.337234e+05
  -2.487797e+05   1.883260e+05
  -2.801688e+05  -7.051865e+04
  -8.464769e+04  -3.286084e+05
   2.361682e+05  -3.480696e+05
   4.542368e+05  -8.624221e+04
   3.843719e+05   2.779196e+05
   4.264283e+04   4.886671e+05
  -3.389794e+05   4.049057e+05
  -4.909114e+05   1.089698e+05
  -3.411428e+05  -1.641961e+05
  -7.190184e+04  -2.433862e+05
   7.452564e+04  -1.746022e+05
   3.594248e+04  -1.329358e+05
  -4.010720e+04  -1.933211e+05
   1.083444e+04  -2.434718e+05
   1.819002e+05  -1.402049e+05
   3.054340e+05   9.875236e+04
   2.318615e+05   2.987518e+05
  -1.119721e+04   3.013863e+05
  -2.324584e+05   1.052071e+05
  -2.517173e+05  -1.442976e+05
  -7.088722e+04  -2.725163e+05
   1.321993e+05  -2.015295e+05
   1.882951e+05  -3.669330e+03
   1.033407e+05   1.607988e+05
   2.266185e+04   1.846414e+05
   4.148071e+04   1.046885e+05
   9.053622e+04   4.459400e+04
   2.925552e+04   7.138982e+04
  -1.698585e+05   1.265212e+05
  -3.614633e+05   9.962326e+04
  -3.612222e+05  -4.618191e+04
  -1.342198e+05  -2.265090e+05
   1.552276e+05  -3.040369e+05
   2.888924e+05  -2.115461e+05
   1.970744e+05  -2.449010e+04
   1.343102e+04   9.652821e+04
  -7.534577e+04   6.252090e+04
  -1.823872e+04  -4.608354e+04
   7.997919e+04  -7.117108e+04
   1.064858e+05   2.923501e+04
   6.041033e+04   1.252436e+05
   1.727581e+04   8.321811e+04
   2.282608e+04  -5.180640e+04
   5.635791e+04  -1.021820e+05
   6.922434e+04   2.040575e+04
   2.311508e+04   1.993398e+05
  -8.401545e+04   2.440504e+05
  -1.865904e+05   9.937513e+04
  -1.725880e+05  -1.060994e+05
  -5.088301e+03  -1.979341e+05
   1.780321e+05  -1.127658e+05
   1.675630e+05   6.340950e+04
  -7.050782e+04   1.748638e+05
  -3.099258e+05   1.181086e+05
  -2.925585e+05  -7.294015e+04
  -2.007255e+04  -2.436843e+05
   2.450336e+05  -2.466851e+05
   2.687352e+05  -8.251213e+04
   8.085791e+04   9.123688e+04
  -9.161695e+04   1.133738e+05
  -7.730916e+04  -1.271184e+04
   8.515148e+04  -1.172393e+05
   2.150431e+05  -4.207458e+04
   1.716557e+05   1.801919e+05
  -2.578560e+04   3.368659e+05
  -2.265485e+05   2.413114e+05
  -2.811244e+05  -6.363101e+04
  -1.583979e+05  -3.221428e+05
   4.453243e+04  -3.086641e+05
   1.878724e+05  -5.590394e+04
   1.867364e+05   1.834628e+05
   5.955385e+04   2.082645e+05
  -8.640315e+04   6.708474e+04
  -1.336244e+05  -4.044076e+04
  -6.419452e+04  -2.004107e+04
   7.930344e+03   2.893191e+04
  -3.586338e+04  -1.770714e+04
  -1.486158e+05  -1.333019e+05
  -1.424557e+05  -1.887028e+05
   6.818590e+04  -1.280006e+05
   3.089035e+05  -1.852698e+04
   3.225031e+05   6.252494e+04
   8.601249e+04   1.094016e+05
  -1.522225e+05   1.347121e+05
  -1.767986e+05   1.121034e+05
  -4.895455e+04   2.951801e+04
   2.009729e+04  -4.983661e+04
  -3.683186e+04  -5.485209e+04
  -8.488420e+04  -1.511734e+04
  -5.426883e+03  -2.219805e+04
   1.375029e+05  -7.664019e+04
   1.871911e+05  -5.999908e+04
   8.105544e+04   9.213992e+04
  -1.021659e+05   2.541894e+05
  -2.381463e+05   2.306731e+05
  -2.493048e+05  -1.156503e+03
  -1.330652e+05  -2.433150e+05
   3.939098e+04  -2.915479e+05
   1.542078e+05  -1.472351e+05
   1.384567e+05   1.501788e+04
   3.482430e+04   5.512247e+04
  -3.426430e+04  -9.302009e+02
   3.806720e+03  -2.839135e+04
   9.275045e+04   3.728834e+04
   1.112990e+05   1.290363e+05
   7.883227e+03   1.285719e+05
  -1.369964e+05   4.507873e+03
  -1.810499e+05  -1.420474e+05
  -5.883089e+04  -1.767844e+05
   1.377235e+05  -6.858677e+04
   2.276076e+05   8.742168e+04
   1.174480e+05   1.737023e+05
  -8.954719e+04   1.497759e+05
  -1.941809e+05   5.222875e+04
  -1.203792e+05  -5.679757e+04
   5.591340e+03  -1.159508e+05
   2.082006e+04  -8.508760e+04
  -7.166683e+04   5.225580e+03
  -1.222725e+05   4.582053e+04
  -3.818016e+04  -4.172813e+04
   1.046670e+05  -1.820414e+05
   1.709449e+05  -2.010785e+05
   1.251903e+05  -3.817999e+04
   3.826144e+04   1.545296e+05
  -2.152625e+04   1.818549e+05
  -4.192642e+04   3.899492e+04
  -2.826633e+04  -9.427853e+04
   1.982722e+04  -8.131684e+04
   7.553363e+04   2.598492e+04
   8.073443e+04   8.905449e+04
   1.233742e+04   6.062896e+04
  -7.308646e+04   8.018956e+03
  -9.700473e+04  -3.708143e+03
  -5.022004e+04   1.252635e+04
   4.548393e+03   7.255357e+03
   1.715045e+04  -3.418416e+04
   5.522715e+03  -7.817274e+04
   1.730593e+04  -7.900855e+04
   5.825713e+04  -1.991739e+04
   7.868009e+04   6.584049e+04
   3.107504e+04   1.113816e+05
  -6.518841e+04   7.277798e+04
  -1.239343e+05  -2.251313e+04
  -7.190635e+04  -9.667983e+04
   6.149151e+04  -9.602219e+04
   1.516829e+05  -3.380772e+04
   1.049729e+05   3.764376e+04
  -2.699255e+04   7.505651e+04
  -9.508821e+04   6.283951e+04
  -2.701427e+04   1.615198e+04
   8.284285e+04  -1.746259e+04
   8.817237e+04   9.550149e+03
  -3.118589e+04   7.905077e+04
  -1.502211e+05   9.751098e+04
