
 $NMID
 id='ANONYMOUS ', fmtdat='(2E16.6)'
 volume=1.0
 tramp=1.0
 $END
   1.900488e+07   1.718756e+06
   1.201560e+07   9.291667e+06
  -5.422144e+05   1.166744e+07
  -8.449820e+06   7.954798e+06
  -7.106923e+06   1.077271e+06
  -5.449063e+05  -3.434057e+06
   4.011739e+06  -1.977227e+06
   3.153249e+06   3.113165e+06
  -8.953548e+05   5.651711e+06
  -3.752761e+06   2.505138e+06
  -3.112632e+06  -2.799470e+06
  -1.540546e+05  -4.340872e+06
   2.074697e+06  -6.891491e+05
   1.466542e+06   3.815077e+06
  -1.295001e+06   4.270288e+06
  -3.333611e+06   3.467801e+05
  -2.321041e+06  -3.993663e+06
   1.115032e+06  -4.879100e+06
   3.907519e+06  -2.041311e+06
   3.678091e+06   1.548970e+06
   1.174331e+06   2.923916e+06
  -6.731139e+05   1.907617e+06
  -2.736689e+04   8.152498e+05
   1.849392e+06   1.539845e+06
   2.019009e+06   3.324959e+06
  -8.096978e+05   3.769990e+06
  -4.577506e+06   1.751036e+06
  -5.713206e+06  -1.288457e+06
  -2.831326e+06  -2.955576e+06
   1.544620e+06  -2.212340e+06
   3.340536e+06   2.209245e+04
   1.130676e+06   1.874200e+06
  -2.412560e+06   1.819208e+06
  -3.549113e+06  -2.759550e+05
  -1.511678e+06  -2.742537e+06
   1.093416e+06  -3.238134e+06
   1.647851e+06  -1.143722e+06
   3.121205e+05   1.353180e+06
  -8.192708e+05   1.461185e+06
  -4.471275e+05  -8.679210e+05
   8.324508e+05  -2.714389e+06
   1.687508e+06  -1.709638e+06
   1.396604e+06   1.036441e+06
   1.319699e+05   2.309402e+06
  -1.228507e+06   6.654906e+05
  -1.410754e+06  -1.987191e+06
   2.803597e+05  -2.722692e+06
   2.783362e+06  -7.602063e+05
   3.706748e+06   2.020786e+06
   1.715371e+06   3.213502e+06
  -1.690706e+06   2.076640e+06
  -3.468439e+06  -1.439408e+05
  -2.189178e+06  -1.571231e+06
   5.604442e+05  -1.305237e+06
   2.038466e+06  -2.129991e+03
   1.185164e+06   9.130885e+05
  -6.119214e+05   6.188776e+05
  -1.271699e+06  -4.233157e+05
  -2.091262e+05  -1.062271e+06
   1.189618e+06  -6.359347e+05
   1.139394e+06   4.266357e+05
  -5.186200e+05   1.034355e+06
  -1.967215e+06   4.099607e+05
  -1.303648e+06  -1.176987e+06
   1.270685e+06  -2.473978e+06
   3.517823e+06  -2.185649e+06
   3.540322e+06  -1.679860e+05
   1.705441e+06   2.255178e+06
  -7.915102e+04   3.412094e+06
  -6.263722e+05   2.858726e+06
  -4.672110e+05   1.673595e+06
  -7.257383e+05   1.065592e+06
  -1.636099e+06   9.525570e+05
  -2.410708e+06   2.918724e+05
  -2.190752e+06  -1.254346e+06
  -8.449684e+05  -2.512028e+06
   9.161631e+05  -2.018008e+06
   1.943385e+06   1.437567e+05
   1.409195e+06   2.162672e+06
  -4.075961e+05   2.280748e+06
  -2.111268e+06   5.233764e+05
  -2.335036e+06  -1.485691e+06
  -1.056398e+06  -2.246795e+06
   4.224741e+05  -1.689563e+06
   9.309500e+05  -8.518995e+05
   6.821345e+05  -5.897203e+05
   8.502281e+05  -7.755068e+05
   1.964120e+06  -6.261490e+05
   3.025186e+06   3.867250e+05
   2.475883e+06   1.943889e+06
   4.198955e+04   3.044697e+06
  -2.627983e+06   2.770925e+06
  -3.413839e+06   1.099052e+06
  -1.842960e+06  -9.033494e+05
   4.205833e+05  -1.830193e+06
   1.300420e+06  -1.154464e+06
   3.609789e+05   2.290100e+05
  -1.013475e+06   8.467057e+05
  -1.306037e+06   1.663082e+05
  -3.957174e+05  -8.387695e+05
   5.977334e+05  -8.304882e+05
   6.267480e+05   2.516689e+05
  -3.263734e+05   9.947981e+05
  -1.351036e+06   1.314607e+05
  -1.386539e+06  -1.845358e+06
  -5.665112e+04  -3.016264e+06
   1.907952e+06  -2.040812e+06
   3.065881e+06   4.008998e+05
   2.438081e+06   2.314667e+06
   5.018719e+05   2.392204e+06
  -1.144163e+06   1.121776e+06
  -1.312841e+06   2.960804e+03
  -3.755393e+05  -5.310842e+04
   2.622219e+05   5.698121e+05
  -2.280977e+05   8.730928e+05
  -1.213792e+06   3.679829e+05
  -1.399764e+06  -5.035674e+05
  -3.728779e+05  -9.082240e+05
   8.417789e+05  -4.745105e+05
   8.531113e+05   3.454339e+05
  -5.244124e+05   6.895648e+05
  -1.923928e+06   8.410309e+04
  -1.779772e+06  -1.078994e+06
  -2.803624e+02  -1.827912e+06
   1.863166e+06  -1.457742e+06
   2.181455e+06  -2.090506e+05
   8.675783e+05   8.842483e+05
  -6.544378e+05   9.307031e+05
  -9.722326e+05   5.473477e+04
  -4.734023e+03  -7.067239e+05
   1.128151e+06  -4.729067e+05
   1.307089e+06   5.370426e+05
   4.111614e+05   1.246175e+06
  -6.943914e+05   9.202737e+05
  -1.014165e+06  -2.434672e+04
  -3.518358e+05  -5.219877e+05
   4.873124e+05  -6.081970e+04
   4.769056e+05   7.871276e+05
  -5.341230e+05   1.027173e+06
  -1.562887e+06   2.769980e+05
  -1.477644e+06  -8.989433e+05
  -2.275771e+05  -1.557391e+06
   1.067564e+06  -1.207189e+06
   1.290454e+06  -1.915493e+05
   4.436398e+05   6.333616e+05
  -4.792977e+05   6.503262e+05
  -6.021782e+05   2.859059e+04
   4.281961e+03  -4.808124e+05
   5.509301e+05  -3.594730e+05
   4.294323e+05   1.143067e+05
  -1.701887e+05   2.237283e+05
  -4.828074e+05  -2.917065e+05
   1.966306e+04  -8.629522e+05
   1.018954e+06  -6.949965e+05
   1.579500e+06   3.422300e+05
   1.053383e+06   1.516299e+06
  -2.423707e+05   1.899097e+06
  -1.313806e+06   1.195861e+06
  -1.457583e+06  -2.639219e+04
  -8.714525e+05  -8.646039e+05
  -2.963019e+05  -8.714979e+05
  -1.709591e+05  -4.026152e+05
  -2.492658e+05  -1.730044e+05
  -1.746344e+04  -4.421767e+05
   6.269745e+05  -7.113159e+05
   1.171150e+06  -3.320648e+05
   9.565976e+05   6.296819e+05
  -1.260777e+05   1.310407e+06
  -1.381494e+06   9.167825e+05
  -1.799919e+06  -3.987143e+05
  -9.281923e+05  -1.616338e+06
   6.716273e+05  -1.785195e+06
   1.860493e+06  -8.509419e+05
   1.886414e+06   3.868905e+05
   9.645232e+05   1.055177e+06
  -4.560379e+04   9.516315e+05
  -4.773008e+05   5.888578e+05
  -3.734391e+05   5.493551e+05
  -2.604872e+05   8.239242e+05
  -5.050743e+05   8.390653e+05
  -9.153120e+05   1.627409e+05
  -9.551553e+05  -8.946172e+05
  -3.459678e+05  -1.493027e+06
   5.529440e+05  -1.091073e+06
   1.013339e+06   4.371994e+03
   6.410736e+05   9.310863e+05
  -2.038773e+05   1.054166e+06
  -7.502080e+05   4.469377e+05
  -5.890263e+05  -3.067297e+05
  -5.138479e+04  -6.860317e+05
   2.146478e+05  -6.219442e+05
  -1.143537e+04  -4.110426e+05
  -2.813849e+05  -3.223672e+05
  -6.190611e+03  -3.183351e+05
   8.161334e+05  -1.570047e+05
   1.474400e+06   2.728761e+05
   1.216322e+06   7.738789e+05
   6.524015e+04   1.004347e+06
  -1.100030e+06   7.869027e+05
  -1.366585e+06   2.594530e+05
  -6.829444e+05  -2.239377e+05
   1.448236e+05  -3.461312e+05
   3.479863e+05  -8.631035e+04
  -4.499667e+04   2.149890e+05
  -4.103920e+05   1.506823e+05
  -3.384983e+05  -2.845757e+05
  -3.389909e+04  -6.051500e+05
   7.049794e+04  -3.813594e+05
  -1.265705e+05   1.626051e+05
  -3.329461e+05   3.321692e+05
  -2.319854e+05  -1.740108e+05
   2.109499e+05  -8.046300e+05
   7.253063e+05  -7.691565e+05
   8.993948e+05  -1.109606e+03
   4.684809e+05   7.404091e+05
  -3.594182e+05   7.406714e+05
  -8.921249e+05   8.747282e+04
  -5.264537e+05  -5.138413e+05
   5.322016e+05  -5.074985e+05
   1.292546e+06   5.243905e+04
   9.351812e+05   6.718049e+05
  -2.780302e+05   8.689426e+05
  -1.223137e+06   5.143013e+05
  -1.079681e+06  -9.125858e+04
  -1.574295e+05  -4.390256e+05
   5.004310e+05  -2.536760e+05
   2.464885e+05   1.989736e+05
  -5.367831e+05   3.192006e+05
  -9.044893e+05  -2.072161e+05
  -3.559200e+05  -9.964310e+05
   6.690859e+05  -1.252591e+06
   1.262443e+06  -5.415182e+05
   9.464581e+05   6.952447e+05
   6.805276e+04   1.447547e+06
  -6.384625e+05   1.061328e+06
  -7.496189e+05  -9.239142e+04
  -3.821643e+05  -9.476533e+05
   1.011717e+05  -8.225897e+05
   4.148830e+05  -9.310073e+04
   4.341746e+05   3.371077e+05
   2.127826e+05   1.460177e+05
   8.393759e+03  -1.022393e+05
   8.247640e+04   1.792226e+05
   3.171453e+05   7.554457e+05
   2.165232e+05   8.827554e+05
  -4.567497e+05   3.073185e+05
  -1.165759e+06  -4.296172e+05
  -1.081112e+06  -7.145047e+05
  -1.316597e+05  -5.380797e+05
   7.795308e+05  -2.843586e+05
   8.193335e+05  -1.374818e+05
   2.096615e+05   1.746640e+03
  -1.586600e+05   1.618871e+05
   6.576177e+04   2.151089e+05
   3.138576e+05   1.484734e+05
  -9.260131e+03   1.129992e+05
  -6.492527e+05   1.105066e+05
  -8.087167e+05  -9.180855e+04
  -1.468338e+05  -5.433534e+05
   8.218047e+05  -8.171924e+05
   1.298181e+06  -4.328169e+05
   9.521394e+05   4.677725e+05
   1.028925e+05   1.137363e+06
  -6.419173e+05   1.007797e+06
  -8.481198e+05   2.970662e+05
  -5.177670e+05  -2.760554e+05
  -4.077849e+04  -2.855694e+05
   1.498466e+05   1.664432e+04
  -3.174892e+04   8.230526e+04
  -2.682217e+05  -2.729638e+05
  -1.964464e+05  -6.480887e+05
   1.966017e+05  -5.014193e+05
   5.481532e+05   2.014878e+05
   4.675678e+05   8.538847e+05
  -7.680600e+04   8.025907e+05
  -6.641519e+05   5.558527e+04
  -7.398712e+05  -7.113963e+05
  -1.497686e+05  -8.673623e+05
   6.108636e+05  -4.194975e+05
   8.242079e+05   1.461845e+05
   3.291165e+05   4.397807e+05
  -2.527093e+05   4.265333e+05
  -2.351971e+05   2.488721e+05
   2.827534e+05   5.699413e+04
   5.355587e+05   1.891547e+04
   6.787590e+04   2.316142e+05
  -6.845622e+05   5.017281e+05
  -9.420238e+05   4.265770e+05
  -5.009026e+05  -1.074087e+05
   1.294934e+05  -6.414312e+05
   4.001500e+05  -6.073800e+05
   2.522413e+05  -4.109821e+04
  -3.191746e+04   4.151041e+05
  -2.274261e+05   2.799441e+05
  -2.719562e+05  -2.143653e+05
  -1.551957e+05  -4.699702e+05
   8.500366e+04  -2.590022e+05
   3.003271e+05   9.160584e+04
   3.309461e+05   1.899816e+05
   1.851567e+05   3.890908e+04
   2.055428e+04  -5.618257e+04
  -6.367739e+04   9.144469e+04
  -1.223263e+05   3.276180e+05
  -2.258622e+05   3.381340e+05
  -3.103966e+05   6.674804e+03
  -2.303271e+05  -4.166930e+05
   5.559805e+04  -5.272573e+05
   3.781643e+05  -1.834738e+05
   4.511728e+05   3.091756e+05
   1.250938e+05   4.960559e+05
  -3.946618e+05   2.467552e+05
  -6.401844e+05  -1.445062e+05
  -3.306264e+05  -3.251520e+05
   2.522604e+05  -2.373247e+05
   4.916102e+05  -6.927140e+04
   1.345872e+05   1.161966e+04
  -3.623463e+05  -3.214621e+04
  -3.492301e+05  -1.633727e+05
   2.213895e+05  -2.711612e+05
   7.168620e+05  -1.652195e+05
