
 $NMID
 id='ANONYMOUS ', fmtdat='(2E16.6)'
 volume=1.0
 tramp=1.0
 $END
   2.030817e+07   1.364759e+06
   1.306058e+07   9.613828e+06
  -2.811985e+05   1.246700e+07
  -8.829812e+06   8.702258e+06
  -7.571910e+06   1.322185e+06
  -6.655827e+05  -3.656930e+06
   4.243392e+06  -2.206700e+06
   3.443516e+06   3.254025e+06
  -8.269919e+05   6.059594e+06
  -3.950748e+06   2.764345e+06
  -3.386034e+06  -2.913909e+06
  -2.636526e+05  -4.627049e+06
   2.195679e+06  -7.813097e+05
   1.649044e+06   4.039545e+06
  -1.286313e+06   4.589996e+06
  -3.552238e+06   4.502845e+05
  -2.573485e+06  -4.206966e+06
   1.071692e+06  -5.233892e+06
   4.117273e+06  -2.272264e+06
   3.957033e+06   1.561626e+06
   1.321731e+06   3.084488e+06
  -6.668649e+05   2.045302e+06
  -1.425570e+03   8.728199e+05
   2.011815e+06   1.609139e+06
   2.226369e+06   3.508194e+06
  -7.828684e+05   4.040797e+06
  -4.845014e+06   1.968392e+06
  -6.122766e+06  -1.247322e+06
  -3.085753e+06  -3.087572e+06
   1.598772e+06  -2.390746e+06
   3.563218e+06  -4.688238e+04
   1.243731e+06   1.975937e+06
  -2.539063e+06   1.991717e+06
  -3.794308e+06  -2.204830e+05
  -1.670279e+06  -2.894168e+06
   1.097138e+06  -3.476408e+06
   1.729471e+06  -1.255048e+06
   3.582342e+05   1.433697e+06
  -8.412130e+05   1.572350e+06
  -4.914211e+05  -9.177381e+05
   8.311670e+05  -2.914137e+06
   1.763218e+06  -1.862768e+06
   1.516058e+06   1.073710e+06
   1.977264e+05   2.465351e+06
  -1.294356e+06   7.461599e+05
  -1.555587e+06  -2.083336e+06
   2.304017e+05  -2.913537e+06
   2.950700e+06  -8.787439e+05
   4.003896e+06   2.071244e+06
   1.905326e+06   3.392406e+06
  -1.758579e+06   2.255891e+06
  -3.707454e+06  -7.558756e+04
  -2.373490e+06  -1.628745e+06
   5.685286e+05  -1.407435e+06
   2.176490e+06  -5.006177e+04
   1.286780e+06   9.472335e+05
  -6.387298e+05   6.749781e+05
  -1.367257e+06  -4.237066e+05
  -2.460888e+05  -1.131899e+06
   1.259584e+06  -7.073037e+05
   1.230779e+06   4.327011e+05
  -5.284254e+05   1.121872e+06
  -2.092662e+06   4.864407e+05
  -1.421353e+06  -1.225389e+06
   1.297876e+06  -2.668288e+06
   3.702861e+06  -2.410824e+06
   3.772032e+06  -2.597106e+05
   1.869613e+06   2.365446e+06
  -6.808989e+03   3.641250e+06
  -6.032239e+05   3.066239e+06
  -4.623308e+05   1.798823e+06
  -7.535598e+05   1.153085e+06
  -1.726638e+06   1.050018e+06
  -2.565644e+06   3.620071e+05
  -2.363572e+06  -1.291598e+06
  -9.547278e+05  -2.662220e+06
   9.351580e+05  -2.172600e+06
   2.077663e+06   1.126985e+05
   1.550689e+06   2.278393e+06
  -3.853240e+05   2.442747e+06
  -2.240636e+06   6.046984e+05
  -2.523415e+06  -1.532359e+06
  -1.177768e+06  -2.371401e+06
   4.104044e+05  -1.810910e+06
   9.714900e+05  -9.309801e+05
   7.136138e+05  -6.468009e+05
   8.905742e+05  -8.481563e+05
   2.083311e+06  -7.128004e+05
   3.238301e+06   3.449248e+05
   2.686327e+06   2.019669e+06
   1.124089e+05   3.249151e+06
  -2.743681e+06   3.015731e+06
  -3.618875e+06   1.247924e+06
  -1.985828e+06  -9.236951e+05
   4.093025e+05  -1.961752e+06
   1.362320e+06  -1.259632e+06
   3.897994e+05   2.367984e+05
  -1.063201e+06   9.257259e+05
  -1.390227e+06   2.062949e+05
  -4.407158e+05  -8.860757e+05
   6.201633e+05  -8.990113e+05
   6.749514e+05   2.558628e+05
  -3.274871e+05   1.070662e+06
  -1.442138e+06   1.708917e+05
  -1.523376e+06  -1.940847e+06
  -1.269187e+05  -3.221640e+06
   1.993973e+06  -2.222574e+06
   3.283430e+06   3.607779e+05
   2.653672e+06   2.418506e+06
   5.878865e+05   2.543111e+06
  -1.196566e+06   1.222348e+06
  -1.400916e+06   3.180169e+04
  -4.019187e+05  -4.839097e+04
   2.925076e+05   6.025862e+05
  -2.239672e+05   9.373037e+05
  -1.287476e+06   4.200542e+05
  -1.505674e+06  -5.064822e+05
  -4.182481e+05  -9.616056e+05
   8.885886e+05  -5.252162e+05
   9.186513e+05   3.506444e+05
  -5.452879e+05   7.485479e+05
  -2.053137e+06   1.321095e+05
  -1.924143e+06  -1.113572e+06
  -4.011513e+04  -1.952061e+06
   1.957252e+06  -1.597288e+06
   2.324077e+06  -2.711984e+05
   9.456811e+05   9.246082e+05
  -6.776601e+05   1.007885e+06
  -1.036301e+06   8.018092e+04
  -2.069167e+04  -7.540372e+05
   1.193796e+06  -5.297360e+05
   1.407339e+06   5.445010e+05
   4.664205e+05   1.321628e+06
  -7.214562e+05   9.980585e+05
  -1.083750e+06  -3.840353e+03
  -3.871935e+05  -5.500518e+05
   5.192152e+05  -7.606645e+04
   5.268123e+05   8.297009e+05
  -5.473064e+05   1.108396e+06
  -1.662096e+06   3.303448e+05
  -1.597142e+06  -9.267822e+05
  -2.774234e+05  -1.657357e+06
   1.112830e+06  -1.312289e+06
   1.373294e+06  -2.329481e+05
   4.874576e+05   6.665498e+05
  -4.975944e+05   7.048466e+05
  -6.422901e+05   4.329362e+04
  -5.519495e+03  -5.139899e+05
   5.809784e+05  -3.957818e+05
   4.611952e+05   1.134586e+05
  -1.772722e+05   2.434318e+05
  -5.226068e+05  -3.006115e+05
   1.480688e+03  -9.219911e+05
   1.072272e+06  -7.647480e+05
   1.693717e+06   3.302112e+05
   1.158067e+06   1.595141e+06
  -2.168116e+05   2.032452e+06
  -1.376341e+06   1.305464e+06
  -1.556737e+06   3.699457e+03
  -9.489312e+05  -9.042161e+05
  -3.345690e+05  -9.239431e+05
  -1.907107e+05  -4.254850e+05
  -2.700866e+05  -1.783926e+05
  -2.898590e+04  -4.713354e+05
   6.533455e+05  -7.734265e+05
   1.243002e+06  -3.805810e+05
   1.035118e+06   6.511823e+05
  -1.058130e+05   1.401933e+06
  -1.454626e+06   1.009365e+06
  -1.930295e+06  -3.858381e+05
  -1.026762e+06  -1.705118e+06
   6.773143e+05  -1.920982e+06
   1.967437e+06  -9.498994e+05
   2.022709e+06   3.714571e+05
   1.052987e+06   1.105744e+06
  -2.820828e+04   1.017307e+06
  -4.970926e+05   6.387734e+05
  -3.865219e+05   5.938175e+05
  -2.594037e+05   8.847052e+05
  -5.201726e+05   9.068378e+05
  -9.732482e+05   1.941800e+05
  -1.039251e+06  -9.336976e+05
  -4.022437e+05  -1.585981e+06
   5.661482e+05  -1.176773e+06
   1.081913e+06  -1.766518e+04
   7.051743e+05   9.798278e+05
  -1.942167e+05   1.130152e+06
  -7.913424e+05   4.942100e+05
  -6.362939e+05  -3.142022e+05
  -7.053891e+04  -7.316207e+05
   2.153773e+05  -6.693342e+05
  -2.102593e+04  -4.387943e+05
  -3.073157e+05  -3.376774e+05
  -1.363845e+04  -3.395227e+05
   8.676701e+05  -1.859605e+05
   1.579924e+06   2.581807e+05
   1.315708e+06   7.990774e+05
   9.224185e+04   1.071061e+06
  -1.156587e+06   8.648041e+05
  -1.453262e+06   3.073509e+05
  -7.345247e+05  -2.240567e+05
   1.466073e+05  -3.728607e+05
   3.697294e+05  -1.000347e+05
  -4.289838e+04   2.301706e+05
  -4.345309e+05   1.696637e+05
  -3.675228e+05  -2.961420e+05
  -4.940007e+04  -6.446709e+05
   6.689707e+04  -4.081782e+05
  -1.317563e+05   1.763666e+05
  -3.484413e+05   3.617092e+05
  -2.516406e+05  -1.805828e+05
   2.073875e+05  -8.633231e+05
   7.570183e+05  -8.371687e+05
   9.596652e+05  -2.169100e+04
   5.164149e+05   7.793794e+05
  -3.667916e+05   7.985066e+05
  -9.497950e+05   1.133943e+05
  -5.731165e+05  -5.367202e+05
   5.568772e+05  -5.535637e+05
   1.381007e+06   2.753943e+04
   1.013221e+06   6.969198e+05
  -2.778271e+05   9.340865e+05
  -1.294788e+06   5.759579e+05
  -1.154827e+06  -7.389066e+04
  -1.776593e+05  -4.653738e+05
   5.287880e+05  -2.819011e+05
   2.676486e+05   2.068094e+05
  -5.657070e+05   3.523730e+05
  -9.696835e+05  -2.011690e+05
  -4.017054e+05  -1.055287e+06
   6.863364e+05  -1.351206e+06
   1.335174e+06  -6.055858e+05
   1.025330e+06   7.211357e+05
   1.044770e+05   1.543427e+06
  -6.582599e+05   1.146898e+06
  -8.024438e+05  -8.211368e+04
  -4.289088e+05  -1.003354e+06
   9.001866e+04  -8.806784e+05
   4.409603e+05  -1.086920e+05
   4.708453e+05   3.505332e+05
   2.302748e+05   1.515109e+05
   6.804085e+03  -1.094249e+05
   9.217802e+04   1.890088e+05
   3.552421e+05   7.991638e+05
   2.505116e+05   9.378338e+05
  -4.807783e+05   3.385336e+05
  -1.253722e+06  -4.329067e+05
  -1.169703e+06  -7.391299e+05
  -1.524980e+05  -5.714344e+05
   8.257145e+05  -3.203784e+05
   8.716000e+05  -1.647135e+05
   2.239850e+05  -3.061500e+03
  -1.657589e+05   1.761365e+05
   7.478004e+04   2.285092e+05
   3.381126e+05   1.519590e+05
  -7.394595e+03   1.206754e+05
  -6.903970e+05   1.318493e+05
  -8.650608e+05  -8.009195e+04
  -1.687272e+05  -5.760771e+05
   8.588631e+05  -8.899047e+05
   1.375646e+06  -4.908384e+05
   1.026238e+06   4.777311e+05
   1.348466e+05   1.211447e+06
  -6.626880e+05   1.089887e+06
  -8.983471e+05   3.357942e+05
  -5.585078e+05  -2.832678e+05
  -4.984071e+04  -3.037274e+05
   1.600935e+05   1.481399e+04
  -3.232706e+04   8.870721e+04
  -2.924512e+05  -2.855875e+05
  -2.239962e+05  -6.875470e+05
   1.987048e+05  -5.394244e+05
   5.892414e+05   2.030601e+05
   5.175779e+05   9.008153e+05
  -6.427471e+04   8.578302e+05
  -7.072425e+05   7.369379e+04
  -8.049571e+05  -7.428201e+05
  -1.789841e+05  -9.221216e+05
   6.423918e+05  -4.611059e+05
   8.827393e+05   1.376238e+05
   3.612276e+05   4.618449e+05
  -2.599219e+05   4.608168e+05
  -2.454260e+05   2.711363e+05
   3.029002e+05   5.494598e+04
   5.719396e+05   8.445666e+03
   7.761551e+04   2.455528e+05
  -7.195746e+05   5.505855e+05
  -9.961989e+05   4.763869e+05
  -5.371965e+05  -1.031951e+05
   1.239111e+05  -6.873743e+05
   4.134709e+05  -6.573509e+05
   2.679966e+05  -4.976423e+04
  -2.506228e+04   4.435405e+05
  -2.363423e+05   3.037035e+05
  -2.946564e+05  -2.228207e+05
  -1.759918e+05  -4.980920e+05
   8.471733e+04  -2.781768e+05
   3.224012e+05   9.114060e+04
   3.575998e+05   1.953199e+05
   1.986586e+05   3.741119e+04
   2.046076e+04  -6.023293e+04
  -6.645700e+04   9.905705e+04
  -1.235734e+05   3.519253e+05
  -2.333012e+05   3.651831e+05
  -3.305515e+05   1.370593e+04
  -2.545783e+05  -4.392365e+05
   4.780627e+04  -5.633631e+05
   3.993896e+05  -2.039786e+05
   4.880937e+05   3.197996e+05
   1.443161e+05   5.264889e+05
  -4.156835e+05   2.721550e+05
  -6.862489e+05  -1.399082e+05
  -3.600126e+05  -3.396187e+05
   2.637437e+05  -2.588183e+05
   5.228223e+05  -8.482376e+04
   1.437985e+05   9.187378e+03
  -3.872039e+05  -2.670264e+04
  -3.759623e+05  -1.668389e+05
   2.305456e+05  -2.940096e+05
   7.614461e+05  -1.916627e+05
