
 $NMID
 id='ANONYMOUS ', fmtdat='(2E16.6)'
 volume=1.0
 tramp=1.0
 $END
  -5.277626e+07  -4.466104e+05
  -3.137330e+07  -3.257590e+07
   7.095177e+06  -3.538368e+07
   2.562302e+07  -1.372192e+07
   1.527183e+07   6.281008e+06
  -3.004127e+06   8.621686e+06
  -9.093267e+06  -9.707455e+05
  -2.704425e+06  -9.001301e+06
   5.603336e+06  -8.819825e+06
   8.959745e+06  -1.986489e+06
   6.604420e+06   5.845850e+06
   7.926998e+05   8.164601e+06
  -3.819028e+06   2.566533e+06
  -2.597634e+06  -5.223917e+06
   3.432166e+06  -6.265793e+06
   7.357255e+06   1.188009e+06
   4.198263e+06   9.555945e+06
  -3.526407e+06   1.106783e+07
  -9.508971e+06   5.504634e+06
  -1.014845e+07  -2.035095e+06
  -6.097101e+06  -7.127860e+06
  -4.729508e+05  -8.067652e+06
   2.754836e+06  -5.491286e+06
   1.515058e+06  -2.404486e+06
  -1.316473e+06  -2.121523e+06
  -2.969307e+05  -4.147220e+06
   5.273240e+06  -4.279226e+06
   9.322201e+06  -4.563935e+05
   6.700469e+06   3.991680e+06
   1.109888e+05   4.877878e+06
  -3.713698e+06   2.446500e+06
  -2.456508e+06  -1.300015e+05
   6.531431e+05  -1.133954e+06
   2.383020e+06  -5.886258e+05
   2.248900e+06   1.478047e+06
   6.454297e+05   3.911238e+06
  -1.793141e+06   3.646267e+06
  -3.040078e+06  -2.656226e+05
  -1.485307e+06  -3.513480e+06
   8.441075e+05  -1.686711e+06
   3.517789e+05   2.510837e+06
  -2.321478e+06   2.272603e+06
  -2.315615e+06  -2.960678e+06
   2.209493e+06  -5.685078e+06
   6.393218e+06  -8.721689e+05
   4.705995e+06   6.494577e+06
  -1.809238e+06   7.931427e+06
  -6.983312e+06   2.237957e+06
  -6.622985e+06  -4.155057e+06
  -1.857890e+06  -5.680991e+06
   3.238298e+06  -2.645084e+06
   5.029094e+06   1.322727e+06
   2.384594e+06   3.224469e+06
  -2.219927e+06   2.071454e+06
  -4.253135e+06  -8.327609e+05
  -1.850003e+06  -2.523488e+06
   1.609355e+06  -1.286901e+06
   1.683089e+06   9.360286e+05
  -1.143573e+06   8.757203e+05
  -2.264131e+06  -1.529919e+06
   5.255726e+05  -3.073380e+06
   4.225789e+06  -1.727423e+06
   4.912782e+06   1.209119e+06
   2.181854e+06   3.683498e+06
  -1.722403e+06   5.013710e+06
  -4.824276e+06   4.664675e+06
  -5.948152e+06   1.659431e+06
  -4.358012e+06  -3.064151e+06
  -9.020335e+05  -5.914028e+06
   1.689279e+06  -4.558102e+06
   1.568153e+06  -1.231063e+06
   1.368170e+05   9.981811e+04
   7.645908e+04  -1.072119e+06
   1.687719e+06  -1.760221e+06
   2.826821e+06  -1.769171e+05
   2.022136e+06   1.968028e+06
   1.499863e+04   2.180398e+06
  -1.593607e+06   2.544153e+05
  -1.726902e+06  -2.030153e+06
  -3.332471e+04  -2.889358e+06
   2.704880e+06  -1.608894e+06
   4.323703e+06   1.176897e+06
   3.061020e+06   3.622278e+06
  -7.100714e+04   4.010306e+06
  -2.163236e+06   2.543164e+06
  -2.080373e+06   1.070618e+06
  -1.711033e+06   6.925324e+05
  -2.821336e+06   5.335381e+05
  -4.223279e+06  -6.547710e+05
  -3.433465e+06  -2.626493e+06
  -1.991845e+05  -4.023313e+06
   3.080479e+06  -3.869492e+06
   4.084245e+06  -2.128589e+06
   2.624782e+06   4.156712e+05
   2.720072e+05   2.227294e+06
  -1.092963e+06   1.914543e+06
  -5.586373e+05  -4.512916e+04
   1.062912e+06  -1.302063e+06
   1.855541e+06  -4.068816e+05
   8.964297e+05   1.174121e+06
  -5.031580e+05   1.110466e+06
  -4.474859e+05  -3.535932e+05
   9.670521e+05  -7.097119e+05
   1.771489e+06   1.143778e+06
   7.170954e+05   3.282663e+06
  -1.372473e+06   3.320316e+06
  -2.942258e+06   1.206221e+06
  -3.258920e+06  -1.266231e+06
  -2.338435e+06  -2.629719e+06
  -5.271683e+05  -2.564013e+06
   1.200057e+06  -1.468288e+06
   1.557981e+06  -2.471846e+05
   4.843612e+05   3.720320e+04
  -3.639419e+05  -7.319105e+05
   3.851795e+05  -1.308351e+06
   1.849990e+06  -5.825339e+05
   1.990777e+06   8.338618e+05
   3.962713e+05   1.368984e+06
  -1.136336e+06   5.801586e+05
  -8.914118e+05  -4.225706e+05
   7.998723e+05  -5.362910e+05
   2.140815e+06   2.415258e+05
   1.762670e+06   1.276752e+06
  -1.802663e+05   1.944687e+06
  -2.229874e+06   1.679175e+06
  -2.719520e+06   3.196527e+05
  -1.207318e+06  -1.220130e+06
   8.866321e+05  -1.475162e+06
   1.521261e+06  -1.947989e+05
   2.006919e+05   1.060308e+06
  -1.480762e+06   7.431134e+05
  -1.696704e+06  -7.364194e+05
  -3.647143e+05  -1.607514e+06
   1.040143e+06  -9.769450e+05
   1.230219e+06   2.737148e+05
   2.565911e+05   7.518965e+05
  -7.764855e+05   6.159715e+04
  -7.383175e+05  -1.027107e+06
   5.483679e+05  -1.413322e+06
   1.972800e+06  -5.646526e+05
   2.020791e+06   1.005059e+06
   4.080081e+05   2.034584e+06
  -1.388736e+06   1.634005e+06
  -1.689207e+06   2.339091e+05
  -5.073833e+05  -8.413132e+05
   6.320096e+05  -8.002182e+05
   6.284579e+05  -9.040820e+04
  -9.498492e+04   3.610878e+05
  -4.755978e+05   2.326552e+05
  -1.403057e+05  -4.531912e+04
   4.170276e+05   6.539349e+04
   5.104035e+05   6.360664e+05
  -1.793501e+05   1.159045e+06
  -1.340067e+06   9.012006e+05
  -2.052916e+06  -3.728056e+05
  -1.471662e+06  -1.889040e+06
   1.716362e+05  -2.387718e+06
   1.558529e+06  -1.423258e+06
   1.663219e+06   8.315464e+04
   8.753543e+05   8.598824e+05
   3.459722e+05   6.458111e+05
   4.781582e+05   2.274104e+05
   6.082091e+05   3.071375e+05
   9.256051e+04   7.457118e+05
  -8.412841e+05   8.976220e+05
  -1.413230e+06   3.508824e+05
  -1.052996e+06  -6.842575e+05
   2.065079e+05  -1.440408e+06
   1.668786e+06  -1.089992e+06
   2.220290e+06   4.325562e+05
   1.151807e+06   2.040190e+06
  -9.496011e+05   2.334007e+06
  -2.473138e+06   1.052986e+06
  -2.315990e+06  -5.990460e+05
  -9.709654e+05  -1.286361e+06
   1.693821e+05  -9.336636e+05
   3.683012e+05  -5.250472e+05
   7.651215e+04  -7.582982e+05
   9.564686e+04  -1.289530e+06
   6.444993e+05  -1.271294e+06
   1.267180e+06  -3.282550e+05
   1.334361e+06   1.043947e+06
   5.798379e+05   1.857220e+06
  -5.888412e+05   1.426718e+06
  -1.264041e+06   2.147671e+04
  -8.175258e+05  -1.243974e+06
   3.575163e+05  -1.371877e+06
   1.122696e+06  -4.143596e+05
   7.944499e+05   6.656238e+05
  -1.058798e+05   1.045746e+06
  -5.061953e+05   7.668391e+05
  -6.895781e+04   4.083430e+05
   4.338372e+05   3.264980e+05
   6.618692e+04   3.781028e+05
  -1.122678e+06   2.226871e+05
  -2.030241e+06  -2.965623e+05
  -1.604893e+06  -9.907992e+05
   1.517118e+04  -1.402521e+06
   1.543271e+06  -1.139318e+06
   1.790805e+06  -3.033298e+05
   8.196819e+05   4.649003e+05
  -2.502407e+05   5.581622e+05
  -4.974132e+05   4.095825e+04
  -3.014075e+04  -4.143827e+05
   4.341349e+05  -2.648434e+05
   4.798998e+05   3.291895e+05
   2.628096e+05   7.153191e+05
   1.019304e+05   4.774224e+05
   1.281357e+05  -9.790069e+04
   2.643762e+05  -3.006628e+05
   2.750265e+05   2.216701e+05
  -1.188099e+05   9.779980e+05
  -8.671130e+05   1.065872e+06
  -1.341903e+06   1.883424e+05
  -8.556259e+05  -8.937343e+05
   3.947316e+05  -1.129274e+06
   1.239439e+06  -3.504131e+05
   7.359098e+05   5.516748e+05
  -6.780786e+05   6.490678e+05
  -1.561018e+06  -6.287293e+04
  -1.002880e+06  -8.218108e+05
   4.532707e+05  -9.741191e+05
   1.455990e+06  -4.987099e+05
   1.210823e+06   1.598789e+05
   1.424389e+05   4.996167e+05
  -6.316495e+05   2.750560e+05
  -3.826039e+05  -2.860737e+05
   5.688888e+05  -5.318125e+05
   1.174587e+06   5.382418e+04
   6.931796e+05   1.156579e+06
  -5.441511e+05   1.702095e+06
  -1.447829e+06   9.126150e+05
  -1.258453e+06  -7.189487e+05
  -2.403775e+05  -1.763056e+06
   6.991626e+05  -1.289252e+06
   9.102828e+05   1.576041e+05
   4.447425e+05   1.162332e+06
  -1.991420e+05   9.504526e+05
  -5.519143e+05   8.986861e+04
  -4.639773e+05  -3.568198e+05
  -1.603865e+05  -1.251050e+05
  -4.657537e+04   9.113862e+04
  -2.869552e+05  -2.973186e+05
  -5.247972e+05  -9.473898e+05
  -2.046151e+05  -1.052091e+06
   7.042440e+05  -3.956732e+05
   1.463970e+06   4.259873e+05
   1.273106e+06   7.920068e+05
   1.952557e+05   6.861514e+05
  -8.259721e+05   4.389035e+05
  -9.622492e+05   2.005243e+05
  -3.605230e+05  -5.375894e+04
   1.360646e+05  -2.289796e+05
   3.727273e+04  -1.916919e+05
  -2.567052e+05  -7.418019e+04
  -5.816843e+04  -1.324085e+05
   6.382658e+05  -2.611456e+05
   1.038298e+06  -1.712834e+04
   4.614122e+05   6.857343e+05
  -7.949153e+05   1.199173e+06
  -1.674703e+06   7.949190e+05
  -1.425822e+06  -3.917802e+05
  -3.143668e+05  -1.383426e+06
   7.289794e+05  -1.382157e+06
   1.028833e+06  -5.684977e+05
   6.560900e+05   2.038403e+05
   1.476686e+05   3.542067e+05
  -5.980313e+04   8.195978e+04
   7.968471e+04  -6.824909e+03
   2.978290e+05   3.570106e+05
   2.594780e+05   7.902454e+05
  -1.577588e+05   6.812021e+05
  -6.787709e+05  -8.936377e+04
  -7.709479e+05  -9.144071e+05
  -1.598983e+05  -1.026198e+06
   7.345828e+05  -2.858848e+05
   1.055325e+06   6.708247e+05
   3.860102e+05   1.072943e+06
  -6.881981e+05   7.037294e+05
  -1.118558e+06  -4.035430e+04
  -5.481503e+05  -6.055247e+05
   2.716098e+05  -6.935330e+05
   3.797414e+05  -3.729604e+05
  -2.321579e+05   9.791192e+03
  -6.383209e+05   6.157514e+04
  -1.579924e+05  -3.054689e+05
   7.965404e+05  -6.927114e+05
   1.239114e+06  -5.532122e+05
   7.698028e+05   1.719401e+05
  -7.138743e+04   8.694466e+05
  -5.377931e+05   8.639937e+05
  -4.363877e+05   1.780629e+05
  -7.812309e+04  -4.689535e+05
   2.239229e+05  -4.476717e+05
   3.570273e+05   1.202734e+05
   2.711417e+05   5.639006e+05
  -4.020803e+04   4.392088e+05
  -3.911798e+05  -2.613672e+04
  -4.804856e+05  -2.756988e+05
  -2.396328e+05  -9.754407e+04
   4.190534e+04   1.619031e+05
   7.485432e+04   6.478034e+04
  -4.689538e+04  -3.470121e+05
   8.476001e+03  -5.729521e+05
   3.088776e+05  -2.572489e+05
   4.918693e+05   3.498149e+05
   2.035611e+05   6.430233e+05
  -3.888478e+05   3.345094e+05
  -6.803829e+05  -2.487353e+05
  -2.795933e+05  -5.559245e+05
   4.963839e+05  -3.784886e+05
   8.879091e+05   4.283374e+04
   4.910390e+05   3.598902e+05
  -2.821147e+05   4.176363e+05
  -6.346216e+05   2.595142e+05
  -2.609772e+05   2.455765e+04
   3.267429e+05  -9.778342e+04
   4.042892e+05   2.927324e+04
  -1.386566e+05   2.873324e+05
  -7.026978e+05   3.010881e+05
