
 $NMID
 id='ANONYMOUS ', fmtdat='(2E16.6)'
 volume=1.0
 tramp=1.0
 $END
  -4.698588e+07  -8.708994e+05
  -2.815166e+07  -2.817325e+07
   5.646661e+06  -3.112656e+07
   2.251004e+07  -1.320097e+07
   1.408485e+07   4.475526e+06
  -2.131615e+06   7.760518e+06
  -8.303492e+06  -9.671517e+04
  -3.116384e+06  -7.941804e+06
   4.589958e+06  -8.640532e+06
   8.122299e+06  -2.359823e+06
   6.126663e+06   5.411672e+06
   6.861895e+05   7.717840e+06
  -3.621217e+06   2.218567e+06
  -2.503962e+06  -5.265525e+06
   3.049813e+06  -6.230269e+06
   6.763089e+06   7.943509e+05
   4.012264e+06   8.674109e+06
  -3.070931e+06   1.014499e+07
  -8.616952e+06   4.934233e+06
  -9.052575e+06  -2.066428e+06
  -5.106408e+06  -6.465555e+06
  -1.448633e+05  -6.865327e+06
   2.144636e+06  -4.503955e+06
   5.614351e+05  -2.338805e+06
  -1.699377e+06  -2.705677e+06
   9.631687e+03  -4.438687e+06
   5.557600e+06  -3.904472e+06
   9.072733e+06   3.653550e+04
   6.114429e+06   4.033490e+06
  -4.062647e+05   4.499762e+06
  -3.958203e+06   1.903797e+06
  -2.281217e+06  -7.039341e+05
   1.273314e+06  -1.487299e+06
   2.998480e+06  -3.935305e+05
   2.254447e+06   2.023392e+06
   1.685040e+05   4.087699e+06
  -1.918315e+06   3.203771e+06
  -2.464533e+06  -6.469753e+05
  -8.876115e+05  -3.201020e+06
   8.107403e+05  -1.024191e+06
   2.091359e+04   2.831027e+06
  -2.332823e+06   2.322343e+06
  -2.245276e+06  -2.616838e+06
   1.659669e+06  -5.135653e+06
   5.337333e+06  -8.829477e+05
   4.095117e+06   5.666214e+06
  -1.488275e+06   7.012839e+06
  -6.302098e+06   1.982820e+06
  -6.330384e+06  -3.852425e+06
  -2.007756e+06  -5.423884e+06
   3.038479e+06  -2.725496e+06
   5.010251e+06   1.049516e+06
   2.561319e+06   2.985932e+06
  -1.888154e+06   2.022033e+06
  -3.944843e+06  -6.345659e+05
  -1.816754e+06  -2.237845e+06
   1.438695e+06  -1.195358e+06
   1.714583e+06   8.520678e+05
  -8.072650e+05   1.014442e+06
  -2.124170e+06  -9.708970e+05
   4.213172e+04  -2.499708e+06
   3.430429e+06  -1.662949e+06
   4.429531e+06   7.962391e+05
   2.111408e+06   3.223545e+06
  -1.734362e+06   4.688706e+06
  -4.864564e+06   4.338657e+06
  -5.752152e+06   1.355967e+06
  -3.937224e+06  -3.096815e+06
  -6.894428e+05  -5.683167e+06
   1.492741e+06  -4.453695e+06
   1.350095e+06  -1.497033e+06
   3.312409e+05  -2.777943e+05
   5.857296e+05  -1.154479e+06
   2.090620e+06  -1.472944e+06
   2.908807e+06   2.582870e+05
   1.855521e+06   2.333788e+06
  -2.720210e+05   2.348108e+06
  -1.863372e+06   1.639093e+05
  -1.806596e+06  -2.261701e+06
   9.226159e+04  -2.977001e+06
   2.775096e+06  -1.426437e+06
   4.111838e+06   1.381149e+06
   2.722078e+06   3.527992e+06
  -1.861405e+05   3.653533e+06
  -1.973766e+06   2.246934e+06
  -1.827926e+06   1.020969e+06
  -1.594022e+06   7.908445e+05
  -2.814980e+06   6.263118e+05
  -4.249877e+06  -6.151466e+05
  -3.470078e+06  -2.647850e+06
  -1.853154e+05  -4.099156e+06
   3.219537e+06  -3.907803e+06
   4.261168e+06  -2.024102e+06
   2.634368e+06   6.036675e+05
   8.510914e+04   2.320233e+06
  -1.260116e+06   1.864153e+06
  -5.498766e+05  -1.067054e+05
   1.145936e+06  -1.287232e+06
   1.856597e+06  -3.756108e+05
   8.257283e+05   1.177695e+06
  -5.768758e+05   1.131095e+06
  -5.490871e+05  -3.503342e+05
   8.465028e+05  -8.704895e+05
   1.802914e+06   8.352572e+05
   1.012309e+06   3.125986e+06
  -1.023114e+06   3.541072e+06
  -2.877869e+06   1.604694e+06
  -3.515471e+06  -1.088386e+06
  -2.614641e+06  -2.767021e+06
  -5.864261e+05  -2.755449e+06
   1.292458e+06  -1.507455e+06
   1.631139e+06  -2.009635e+05
   4.968224e+05   4.335817e+04
  -3.693722e+05  -7.491763e+05
   3.675619e+05  -1.295311e+06
   1.821869e+06  -5.755262e+05
   1.994672e+06   8.001488e+05
   4.313939e+05   1.349397e+06
  -1.148337e+06   6.058102e+05
  -9.666641e+05  -4.337557e+05
   7.848949e+05  -6.404659e+05
   2.278495e+06   1.482236e+05
   1.946758e+06   1.325814e+06
  -1.277386e+05   2.096117e+06
  -2.319509e+06   1.782690e+06
  -2.809161e+06   3.284911e+05
  -1.219920e+06  -1.224726e+06
   8.927022e+05  -1.445840e+06
   1.491001e+06  -1.735433e+05
   1.601184e+05   1.048974e+06
  -1.508228e+06   7.340450e+05
  -1.738431e+06  -7.358369e+05
  -4.225677e+05  -1.643574e+06
   1.022909e+06  -1.056825e+06
   1.278569e+06   2.134227e+05
   3.144252e+05   7.471684e+05
  -7.582404e+05   6.835573e+04
  -7.294232e+05  -1.048189e+06
   5.926665e+05  -1.429804e+06
   2.032220e+06  -5.353468e+05
   2.047829e+06   1.060805e+06
   3.983978e+05   2.077448e+06
  -1.412957e+06   1.661329e+06
  -1.723028e+06   2.510344e+05
  -5.395539e+05  -8.521826e+05
   6.398722e+05  -8.315841e+05
   6.802545e+05  -8.294800e+04
  -7.233922e+04   4.343489e+05
  -5.440905e+05   2.994840e+05
  -2.482050e+05  -6.904558e+04
   3.763635e+05  -2.234540e+04
   5.528724e+05   5.840727e+05
  -1.403587e+05   1.176729e+06
  -1.363429e+06   9.286092e+05
  -2.102667e+06  -3.903055e+05
  -1.489181e+06  -1.947205e+06
   1.996276e+05  -2.464504e+06
   1.623566e+06  -1.496786e+06
   1.758845e+06   6.320234e+04
   9.658271e+05   9.387417e+05
   3.709759e+05   7.795334e+05
   4.293239e+05   3.060912e+05
   5.527088e+05   2.936192e+05
   7.966013e+04   7.212291e+05
  -8.501247e+05   9.293829e+05
  -1.471635e+06   3.865674e+05
  -1.129582e+06  -7.276064e+05
   1.921464e+05  -1.540258e+06
   1.733710e+06  -1.149152e+06
   2.304017e+06   4.531061e+05
   1.201267e+06   2.096785e+06
  -9.423859e+05   2.387773e+06
  -2.511165e+06   1.100806e+06
  -2.404622e+06  -5.773766e+05
  -1.069774e+06  -1.330178e+06
   1.393198e+05  -1.030146e+06
   4.350306e+05  -6.004873e+05
   1.766368e+05  -7.684097e+05
   1.539487e+05  -1.267265e+06
   6.578933e+05  -1.258621e+06
   1.276484e+06  -3.118840e+05
   1.347559e+06   1.092172e+06
   5.697760e+05   1.918940e+06
  -6.282463e+05   1.460878e+06
  -1.306187e+06   2.113599e+04
  -8.453104e+05  -1.260466e+06
   3.367404e+05  -1.403751e+06
   1.108712e+06  -4.688201e+05
   8.063483e+05   6.116197e+05
  -6.223442e+04   1.030731e+06
  -4.579545e+05   7.950391e+05
  -4.686619e+04   4.483684e+05
   4.295126e+05   3.555682e+05
   5.549496e+04   3.960678e+05
  -1.132624e+06   2.278803e+05
  -2.051003e+06  -3.097550e+05
  -1.640457e+06  -1.010550e+06
  -1.432361e+04  -1.409988e+06
   1.546757e+06  -1.142481e+06
   1.826578e+06  -3.264802e+05
   8.557728e+05   4.283855e+05
  -2.391077e+05   5.449074e+05
  -4.970206e+05   6.140113e+04
  -9.928165e+03  -3.913900e+05
   4.679091e+05  -2.570550e+05
   4.831014e+05   3.448188e+05
   2.189112e+05   7.501234e+05
   5.885223e+04   4.940935e+05
   1.387649e+05  -1.292553e+05
   3.099319e+05  -3.425624e+05
   2.892696e+05   2.269074e+05
  -1.550866e+05   1.019694e+06
  -9.020862e+05   1.078744e+06
  -1.331312e+06   1.507818e+05
  -8.190633e+05  -9.298255e+05
   4.182370e+05  -1.116662e+06
   1.248885e+06  -3.049791e+05
   7.437097e+05   5.901819e+05
  -6.940017e+05   6.699038e+05
  -1.626769e+06  -5.742350e+04
  -1.082797e+06  -8.471077e+05
   4.352386e+05  -1.036332e+06
   1.518949e+06  -5.598968e+05
   1.286677e+06   1.463431e+05
   1.639017e+05   5.274865e+05
  -6.491055e+05   2.977320e+05
  -3.769319e+05  -2.848062e+05
   6.125656e+05  -5.187574e+05
   1.203993e+06   1.031450e+05
   6.585626e+05   1.216348e+06
  -6.299859e+05   1.728301e+06
  -1.526472e+06   8.903896e+05
  -1.285355e+06  -7.755688e+05
  -2.174928e+05  -1.833136e+06
   7.409285e+05  -1.345546e+06
   9.474870e+05   1.473847e+05
   4.735546e+05   1.203885e+06
  -1.819561e+05   1.001917e+06
  -5.609576e+05   1.018293e+05
  -5.016595e+05  -3.822732e+05
  -1.937336e+05  -1.422479e+05
  -3.802108e+04   1.033841e+05
  -2.499708e+05  -2.886447e+05
  -5.135882e+05  -9.763366e+05
  -2.337432e+05  -1.098119e+06
   6.913928e+05  -4.078326e+05
   1.513363e+06   4.614201e+05
   1.339756e+06   8.370921e+05
   1.970274e+05   7.046451e+05
  -8.898053e+05   4.373486e+05
  -1.009067e+06   2.049669e+05
  -3.469782e+05  -4.147425e+04
   1.555454e+05  -2.308663e+05
   6.152955e+03  -2.168758e+05
  -3.012846e+05  -1.028261e+05
  -4.282822e+04  -1.395068e+05
   7.036164e+05  -2.428356e+05
   1.066527e+06   1.146747e+04
   4.085799e+05   7.069471e+05
  -8.764218e+05   1.198958e+06
  -1.714911e+06   7.635504e+05
  -1.415997e+06  -4.493775e+05
  -2.841325e+05  -1.438931e+06
   7.663210e+05  -1.400459e+06
   1.069885e+06  -5.418551e+05
   6.776710e+05   2.437929e+05
   1.293760e+05   3.668155e+05
  -9.504223e+04   5.975962e+04
   7.116800e+04  -3.168133e+04
   3.187548e+05   3.629859e+05
   2.682838e+05   8.202038e+05
  -1.828050e+05   6.910964e+05
  -7.045716e+05  -1.307329e+05
  -7.541758e+05  -9.816388e+05
  -1.042897e+05  -1.055536e+06
   7.837675e+05  -2.442298e+05
   1.061783e+06   7.449115e+05
   3.530482e+05   1.111059e+06
  -7.284102e+05   6.849389e+05
  -1.134249e+06  -7.363129e+04
  -5.335018e+05  -6.098529e+05
   2.901358e+05  -6.769793e+05
   3.691211e+05  -3.703079e+05
  -2.715691e+05  -8.315331e+03
  -6.678219e+05   4.513184e+04
  -1.458026e+05  -3.113604e+05
   8.351346e+05  -7.030400e+05
   1.261570e+06  -5.716296e+05
   7.587734e+05   1.655475e+05
  -9.333623e+04   8.818320e+05
  -5.426433e+05   8.677954e+05
  -4.200581e+05   1.524739e+05
  -5.320579e+04  -4.978716e+05
   2.455004e+05  -4.390200e+05
   3.663498e+05   1.604732e+05
   2.632263e+05   5.878852e+05
  -5.739745e+04   4.248840e+05
  -4.009140e+05  -4.789331e+04
  -4.801170e+05  -2.732674e+05
  -2.454381e+05  -8.713142e+04
   2.588023e+04   1.441742e+05
   7.718590e+04   2.064641e+04
   4.931388e+02  -3.760233e+05
   7.750030e+04  -5.558453e+05
   3.403220e+05  -2.041890e+05
   4.590601e+05   4.046069e+05
   1.435763e+05   6.698050e+05
  -4.224739e+05   3.212263e+05
  -6.754197e+05  -2.899995e+05
  -2.604828e+05  -5.904476e+05
   5.107717e+05  -3.753519e+05
   8.961186e+05   7.609708e+04
   4.894041e+05   3.819993e+05
  -2.989884e+05   4.020121e+05
  -6.506271e+05   2.266185e+05
  -2.460303e+05   1.580573e+04
   3.705443e+05  -6.835154e+04
   4.275263e+05   7.277915e+04
  -1.767157e+05   3.118780e+05
  -7.746952e+05   2.918960e+05
