
 $NMID
 id='ANONYMOUS ', fmtdat='(2E16.6)'
 volume=1.0
 tramp=1.0
 $END
  -4.334914e+07   2.531727e+06
  -2.863225e+07  -2.367865e+07
   2.423655e+06  -2.935615e+07
   2.012900e+07  -1.447957e+07
   1.406790e+07   2.800325e+06
  -1.187476e+06   7.620529e+06
  -8.118858e+06   7.907644e+05
  -3.831610e+06  -7.390227e+06
   3.757967e+06  -8.868566e+06
   7.660344e+06  -2.997290e+06
   6.101020e+06   4.748806e+06
   1.013484e+06   7.287171e+06
  -3.259852e+06   2.202974e+06
  -2.541084e+06  -5.041992e+06
   2.627794e+06  -6.289983e+06
   6.526013e+06   1.996161e+05
   4.416080e+06   7.915992e+06
  -2.173779e+06   9.775286e+06
  -7.684261e+06   5.161006e+06
  -8.430235e+06  -1.353926e+06
  -5.016801e+06  -5.515506e+06
  -6.626081e+05  -6.084479e+06
   1.347181e+06  -4.290501e+06
   8.215484e+04  -2.628512e+06
  -1.660567e+06  -2.959702e+06
   1.124765e+05  -4.321305e+06
   5.270501e+06  -3.708312e+06
   8.555219e+06  -1.258141e+05
   5.827834e+06   3.550508e+06
  -3.270762e+05   4.054868e+06
  -3.694818e+06   1.665077e+06
  -1.958320e+06  -7.796693e+05
   1.575765e+06  -1.390076e+06
   3.077605e+06  -1.581396e+05
   2.046098e+06   2.125166e+06
   2.174114e+04   3.865725e+06
  -1.661080e+06   2.951453e+06
  -2.048088e+06  -4.946884e+05
  -8.391216e+05  -2.744598e+06
   4.956870e+05  -7.728924e+05
  -1.503279e+05   2.757335e+06
  -2.228804e+06   2.343077e+06
  -2.365146e+06  -2.324265e+06
   1.043343e+06  -5.043900e+06
   4.761722e+06  -1.419381e+06
   4.227061e+06   4.842540e+06
  -7.708528e+05   6.633224e+06
  -5.715239e+06   2.271178e+06
  -6.276394e+06  -3.339138e+06
  -2.267797e+06  -5.180887e+06
   2.834552e+06  -2.850291e+06
   5.007909e+06   7.643223e+05
   2.739914e+06   2.811387e+06
  -1.634711e+06   2.133594e+06
  -3.817544e+06  -3.101888e+05
  -1.929920e+06  -2.006239e+06
   1.266529e+06  -1.236832e+06
   1.740078e+06   7.610817e+05
  -6.782115e+05   1.196213e+06
  -2.256235e+06  -6.115565e+05
  -4.405579e+05  -2.396073e+06
   2.955565e+06  -1.996060e+06
   4.303684e+06   3.032179e+05
   2.295176e+06   2.871520e+06
  -1.436947e+06   4.481672e+06
  -4.505654e+06   4.218390e+06
  -5.370237e+06   1.438749e+06
  -3.744084e+06  -2.756963e+06
  -8.365539e+05  -5.344406e+06
   1.211660e+06  -4.414127e+06
   1.289362e+06  -1.682439e+06
   5.348772e+05  -3.518931e+05
   7.674478e+05  -9.786934e+05
   2.041781e+06  -1.229313e+06
   2.707515e+06   3.693369e+05
   1.670665e+06   2.301021e+06
  -3.743215e+05   2.253559e+06
  -1.883557e+06   7.585725e+04
  -1.769261e+06  -2.273360e+06
   8.741590e+04  -2.890362e+06
   2.621331e+06  -1.370665e+06
   3.883503e+06   1.228141e+06
   2.653476e+06   3.193046e+06
   1.225502e+04   3.379138e+06
  -1.671276e+06   2.198835e+06
  -1.632455e+06   1.121583e+06
  -1.520510e+06   8.984021e+05
  -2.755579e+06   7.297116e+05
  -4.181153e+06  -4.715631e+05
  -3.461048e+06  -2.501581e+06
  -2.638709e+05  -4.011408e+06
   3.092364e+06  -3.860135e+06
   4.122293e+06  -1.984778e+06
   2.516363e+06   5.905192e+05
   4.074282e+04   2.223665e+06
  -1.221874e+06   1.769047e+06
  -5.133836e+05  -1.093395e+05
   1.106277e+06  -1.250400e+06
   1.787540e+06  -4.070864e+05
   8.097144e+05   1.098894e+06
  -5.672669e+05   1.100183e+06
  -5.879247e+05  -3.621701e+05
   8.121340e+05  -9.826096e+05
   1.909662e+06   6.503970e+05
   1.251702e+06   3.065419e+06
  -8.411838e+05   3.698316e+06
  -2.882781e+06   1.826921e+06
  -3.623190e+06  -9.873987e+05
  -2.681971e+06  -2.779744e+06
  -6.005165e+05  -2.764783e+06
   1.267106e+06  -1.484980e+06
   1.594561e+06  -1.958268e+05
   4.877727e+05   3.560152e+04
  -3.774277e+05  -7.279269e+05
   3.082879e+05  -1.274318e+06
   1.744527e+06  -6.216366e+05
   1.981460e+06   7.101192e+05
   4.814769e+05   1.308713e+06
  -1.115559e+06   6.304303e+05
  -9.807777e+05  -4.265544e+05
   7.779980e+05  -6.933300e+05
   2.312184e+06   9.341203e+04
   1.988161e+06   1.323871e+06
  -1.005325e+05   2.124738e+06
  -2.282455e+06   1.809748e+06
  -2.765672e+06   3.697522e+05
  -1.226852e+06  -1.165168e+06
   8.195687e+05  -1.420656e+06
   1.428071e+06  -2.149815e+05
   1.749930e+05   9.978481e+05
  -1.455435e+06   7.449635e+05
  -1.731660e+06  -6.823123e+05
  -4.683242e+05  -1.625616e+06
   9.898528e+05  -1.097787e+06
   1.294561e+06   1.652828e+05
   3.536464e+05   7.394675e+05
  -7.312690e+05   9.948553e+04
  -7.295365e+05  -1.003412e+06
   5.586527e+05  -1.398678e+06
   1.975187e+06  -5.459188e+05
   2.014142e+06   1.006200e+06
   4.276567e+05   2.025132e+06
  -1.348685e+06   1.660353e+06
  -1.691597e+06   2.875519e+05
  -5.592572e+05  -8.319920e+05
   6.144260e+05  -8.388257e+05
   6.787971e+05  -7.829449e+04
  -7.547875e+04   4.628858e+05
  -5.729251e+05   3.085602e+05
  -2.776380e+05  -1.095338e+05
   3.820420e+05  -8.235357e+04
   5.907946e+05   5.479660e+05
  -9.427008e+04   1.170828e+06
  -1.320148e+06   9.448613e+05
  -2.071273e+06  -3.454373e+05
  -1.490571e+06  -1.882862e+06
   1.643001e+05  -2.425464e+06
   1.592299e+06  -1.508642e+06
   1.760351e+06   3.993536e+04
   9.731347e+05   9.529740e+05
   3.421267e+05   8.117980e+05
   3.768514e+05   2.986607e+05
   5.289499e+05   2.432481e+05
   1.018063e+05   6.845476e+05
  -8.166347e+05   9.375633e+05
  -1.457652e+06   4.099135e+05
  -1.133605e+06  -7.222462e+05
   1.753868e+05  -1.549630e+06
   1.702819e+06  -1.166920e+06
   2.281383e+06   4.150337e+05
   1.228192e+06   2.048190e+06
  -8.661575e+05   2.376173e+06
  -2.446760e+06   1.148765e+06
  -2.401866e+06  -5.182057e+05
  -1.102908e+06  -1.319827e+06
   1.307227e+05  -1.057258e+06
   4.618577e+05  -6.019464e+05
   1.940455e+05  -7.191125e+05
   1.286094e+05  -1.207189e+06
   6.051118e+05  -1.234185e+06
   1.231412e+06  -3.301969e+05
   1.330350e+06   1.049075e+06
   5.823967e+05   1.872982e+06
  -5.985380e+05   1.439282e+06
  -1.288059e+06   4.215094e+04
  -8.642620e+05  -1.219993e+06
   2.912181e+05  -1.397147e+06
   1.081002e+06  -5.157125e+05
   8.279168e+05   5.548734e+05
  -7.559228e+03   1.015730e+06
  -4.140561e+05   8.169967e+05
  -3.908976e+04   4.626417e+05
   4.151357e+05   3.440044e+05
   5.392275e+04   3.869591e+05
  -1.101830e+06   2.523780e+05
  -2.008416e+06  -2.559479e+05
  -1.632781e+06  -9.580258e+05
  -6.390934e+04  -1.386372e+06
   1.475332e+06  -1.156673e+06
   1.792291e+06  -3.661644e+05
   8.741647e+05   3.913266e+05
  -2.075474e+05   5.360847e+05
  -4.896163e+05   8.240582e+04
  -2.106143e+04  -3.635163e+05
   4.591725e+05  -2.472271e+05
   4.753425e+05   3.296659e+05
   2.031245e+05   7.213723e+05
   4.745315e+04   4.696867e+05
   1.476189e+05  -1.382720e+05
   3.260336e+05  -3.419476e+05
   2.913693e+05   2.197267e+05
  -1.524590e+05   9.995238e+05
  -8.657802e+05   1.067520e+06
  -1.272353e+06   1.738447e+05
  -7.951074e+05  -8.820814e+05
   3.797231e+05  -1.084662e+06
   1.193281e+06  -3.104091e+05
   7.292060e+05   5.719276e+05
  -6.708997e+05   6.743008e+05
  -1.614021e+06  -3.235471e+04
  -1.101030e+06  -8.344155e+05
   4.104903e+05  -1.053339e+06
   1.511491e+06  -5.893489e+05
   1.292677e+06   1.289543e+05
   1.728101e+05   5.283153e+05
  -6.390696e+05   3.111927e+05
  -3.733978e+05  -2.635712e+05
   5.940367e+05  -5.005802e+05
   1.168050e+06   9.706269e+04
   6.390075e+05   1.176221e+06
  -6.087878e+05   1.678306e+06
  -1.484074e+06   8.712509e+05
  -1.262724e+06  -7.516451e+05
  -2.279985e+05  -1.798053e+06
   7.212469e+05  -1.337980e+06
   9.455388e+05   1.262908e+05
   4.914307e+05   1.186122e+06
  -1.607705e+05   1.008039e+06
  -5.511799e+05   1.167760e+05
  -5.049963e+05  -3.823624e+05
  -1.998853e+05  -1.525775e+05
  -3.526901e+04   1.100759e+05
  -2.397763e+05  -2.560175e+05
  -5.123565e+05  -9.431722e+05
  -2.534766e+05  -1.092256e+06
   6.606395e+05  -4.267729e+05
   1.493027e+06   4.391319e+05
   1.338147e+06   8.203156e+05
   2.055812e+05   6.883893e+05
  -8.791487e+05   4.260962e+05
  -9.971465e+05   2.123698e+05
  -3.379953e+05  -2.020878e+04
   1.535713e+05  -2.225735e+05
  -3.264487e+03  -2.335113e+05
  -3.034858e+05  -1.200885e+05
  -3.674845e+04  -1.314372e+05
   6.975845e+05  -2.240530e+05
   1.039021e+06   2.966112e+03
   3.881978e+05   6.648317e+05
  -8.520054e+05   1.160933e+06
  -1.651769e+06   7.641643e+05
  -1.365016e+06  -4.166742e+05
  -2.841742e+05  -1.403575e+06
   7.279214e+05  -1.378218e+06
   1.032284e+06  -5.314692e+05
   6.601052e+05   2.423422e+05
   1.242021e+05   3.513712e+05
  -9.670512e+04   3.831021e+04
   7.433609e+04  -4.632714e+04
   3.269846e+05   3.545194e+05
   2.769748e+05   8.062201e+05
  -1.720196e+05   6.724849e+05
  -6.843425e+05  -1.337156e+05
  -7.297800e+05  -9.549653e+05
  -9.779939e+04  -1.015251e+06
   7.601819e+05  -2.243350e+05
   1.029195e+06   7.274944e+05
   3.473788e+05   1.074334e+06
  -6.986334e+05   6.644318e+05
  -1.099743e+06  -5.874912e+04
  -5.290901e+05  -5.743188e+05
   2.641206e+05  -6.532885e+05
   3.431309e+05  -3.740673e+05
  -2.738452e+05  -2.292096e+04
  -6.544685e+05   4.502954e+04
  -1.435396e+05  -2.966071e+05
   8.124768e+05  -6.977546e+05
   1.227761e+06  -5.916031e+05
   7.411902e+05   1.325189e+05
  -7.929776e+04   8.577097e+05
  -5.066999e+05   8.599061e+05
  -3.879428e+05   1.561448e+05
  -4.474015e+04  -4.854131e+05
   2.319078e+05  -4.224920e+05
   3.496136e+05   1.657938e+05
   2.606374e+05   5.714567e+05
  -4.526340e+04   4.027139e+05
  -3.872917e+05  -4.776759e+04
  -4.759466e+05  -2.510521e+05
  -2.477488e+05  -7.571945e+04
   2.954008e+04   1.261488e+05
   9.355288e+04   6.165198e+02
   2.025594e+04  -3.598257e+05
   8.133685e+04  -5.098215e+05
   3.180513e+05  -1.746526e+05
   4.239790e+05   3.906431e+05
   1.240410e+05   6.358798e+05
  -4.107151e+05   3.064350e+05
  -6.478549e+05  -2.779340e+05
  -2.494089e+05  -5.740542e+05
   4.910428e+05  -3.731811e+05
   8.650131e+05   6.513693e+04
   4.781918e+05   3.662079e+05
  -2.804332e+05   3.870166e+05
  -6.208039e+05   2.196130e+05
  -2.295463e+05   2.450948e+04
   3.654927e+05  -4.838074e+04
   4.111938e+05   8.534020e+04
  -1.880657e+05   3.042267e+05
  -7.717615e+05   2.750754e+05
