
 $NMID
 id='ANONYMOUS ', fmtdat='(2E16.6)'
 volume=1.0
 tramp=1.0
 $END
  -4.514446e+07  -2.088614e+05
  -2.778786e+07  -2.668120e+07
   4.795313e+06  -3.020465e+07
   2.172428e+07  -1.325588e+07
   1.400412e+07   4.098704e+06
  -1.893960e+06   7.671424e+06
  -8.239977e+06   7.252527e+04
  -3.231570e+06  -7.791115e+06
   4.459450e+06  -8.604219e+06
   7.972199e+06  -2.429351e+06
   5.957919e+06   5.219674e+06
   6.480866e+05   7.480083e+06
  -3.468894e+06   2.122565e+06
  -2.348174e+06  -5.167644e+06
   3.023576e+06  -6.132535e+06
   6.626060e+06   6.908205e+05
   3.980659e+06   8.393804e+06
  -2.882712e+06   9.872461e+06
  -8.258180e+06   4.839518e+06
  -8.682587e+06  -1.897785e+06
  -4.938520e+06  -6.081826e+06
  -2.905791e+05  -6.495521e+06
   1.856595e+06  -4.405471e+06
   4.621011e+05  -2.501709e+06
  -1.519217e+06  -2.829056e+06
   1.830898e+05  -4.295533e+06
   5.431783e+06  -3.619195e+06
   8.718770e+06   1.694170e+05
   5.839105e+06   3.898644e+06
  -4.317473e+05   4.225161e+06
  -3.794169e+06   1.681157e+06
  -2.060331e+06  -7.448012e+05
   1.423447e+06  -1.323467e+06
   2.958874e+06  -1.660384e+05
   2.038817e+06   2.076957e+06
   2.473663e+03   3.902474e+06
  -1.832334e+06   3.020261e+06
  -2.241239e+06  -5.747998e+05
  -8.267732e+05  -2.961953e+06
   6.427462e+05  -9.215502e+05
  -1.386739e+05   2.722746e+06
  -2.329057e+06   2.236064e+06
  -2.230441e+06  -2.536596e+06
   1.503779e+06  -5.065848e+06
   5.112240e+06  -1.040122e+06
   4.048415e+06   5.356662e+06
  -1.300644e+06   6.804059e+06
  -6.049134e+06   1.978338e+06
  -6.167873e+06  -3.755728e+06
  -1.958513e+06  -5.338794e+06
   3.008727e+06  -2.675482e+06
   4.945595e+06   1.066998e+06
   2.535813e+06   2.975227e+06
  -1.827441e+06   2.024661e+06
  -3.860437e+06  -5.826512e+05
  -1.808112e+06  -2.176085e+06
   1.382920e+06  -1.178853e+06
   1.687529e+06   8.576471e+05
  -8.000163e+05   1.078201e+06
  -2.182537e+06  -8.834876e+05
  -1.164872e+05  -2.495889e+06
   3.271604e+06  -1.759648e+06
   4.362597e+06   6.819088e+05
   2.117737e+06   3.113583e+06
  -1.689988e+06   4.514710e+06
  -4.746383e+06   4.116854e+06
  -5.545883e+06   1.248989e+06
  -3.743809e+06  -2.988597e+06
  -6.177484e+05  -5.487157e+06
   1.480736e+06  -4.366060e+06
   1.383954e+06  -1.525099e+06
   4.428382e+05  -2.604057e+05
   6.674957e+05  -1.003299e+06
   2.040394e+06  -1.276575e+06
   2.741648e+06   3.658681e+05
   1.669963e+06   2.310167e+06
  -3.750707e+05   2.240460e+06
  -1.832678e+06   5.622071e+04
  -1.684211e+06  -2.283940e+06
   1.713729e+05  -2.887952e+06
   2.697858e+06  -1.313857e+06
   3.923480e+06   1.384904e+06
   2.589997e+06   3.396910e+06
  -1.649125e+05   3.499083e+06
  -1.870196e+06   2.177401e+06
  -1.761418e+06   1.024737e+06
  -1.580461e+06   7.875813e+05
  -2.782050e+06   5.807297e+05
  -4.155810e+06  -6.686154e+05
  -3.348935e+06  -2.652442e+06
  -9.801235e+04  -4.013850e+06
   3.231331e+06  -3.739521e+06
   4.190152e+06  -1.857358e+06
   2.520965e+06   6.541633e+05
   3.858766e+03   2.234052e+06
  -1.267353e+06   1.756483e+06
  -5.205674e+05  -1.174055e+05
   1.145258e+06  -1.219015e+06
   1.813256e+06  -3.353781e+05
   7.805921e+05   1.147086e+06
  -5.946691e+05   1.081992e+06
  -5.443429e+05  -3.745556e+05
   8.653983e+05  -8.858465e+05
   1.827603e+06   8.156507e+05
   1.013024e+06   3.124301e+06
  -1.068335e+06   3.555309e+06
  -2.926856e+06   1.584943e+06
  -3.491176e+06  -1.160514e+06
  -2.510407e+06  -2.827721e+06
  -4.906449e+05  -2.738047e+06
   1.306533e+06  -1.434970e+06
   1.594506e+06  -1.479679e+05
   4.848985e+05   5.396179e+04
  -3.461624e+05  -7.409781e+05
   3.734792e+05  -1.263206e+06
   1.784369e+06  -5.410199e+05
   1.946350e+06   8.093578e+05
   4.105066e+05   1.332013e+06
  -1.138793e+06   5.753254e+05
  -9.443276e+05  -4.575054e+05
   7.996554e+05  -6.291341e+05
   2.262120e+06   2.024493e+05
   1.890993e+06   1.375592e+06
  -1.877251e+05   2.076350e+06
  -2.329462e+06   1.696484e+06
  -2.762904e+06   2.569791e+05
  -1.173979e+06  -1.219509e+06
   8.881852e+05  -1.394845e+06
   1.451554e+06  -1.518471e+05
   1.389505e+05   1.016601e+06
  -1.486047e+06   6.868601e+05
  -1.692808e+06  -7.557256e+05
  -3.858905e+05  -1.631178e+06
   1.033355e+06  -1.030972e+06
   1.266906e+06   2.326616e+05
   3.043390e+05   7.486318e+05
  -7.409961e+05   6.101650e+04
  -6.905594e+05  -1.034943e+06
   6.096882e+05  -1.378723e+06
   1.993257e+06  -4.740866e+05
   1.974208e+06   1.080896e+06
   3.459164e+05   2.038816e+06
  -1.415858e+06   1.599174e+06
  -1.696171e+06   2.125683e+05
  -5.157599e+05  -8.505074e+05
   6.464418e+05  -8.050769e+05
   6.705349e+05  -5.763812e+04
  -9.189198e+04   4.370822e+05
  -5.598266e+05   2.755298e+05
  -2.480044e+05  -9.975284e+04
   3.843718e+05  -3.560038e+04
   5.482380e+05   5.835688e+05
  -1.553197e+05   1.158792e+06
  -1.355771e+06   8.835105e+05
  -2.049807e+06  -4.279246e+05
  -1.412856e+06  -1.936539e+06
   2.550895e+05  -2.407255e+06
   1.635158e+06  -1.430367e+06
   1.733795e+06   1.099787e+05
   9.205944e+05   9.637564e+05
   3.206949e+05   7.894251e+05
   3.897313e+05   3.031486e+05
   5.319996e+05   2.803429e+05
   7.072010e+04   6.997248e+05
  -8.539271e+05   8.960135e+05
  -1.459011e+06   3.444190e+05
  -1.090244e+06  -7.521494e+05
   2.343978e+05  -1.516745e+06
   1.733463e+06  -1.086765e+06
   2.248737e+06   5.010762e+05
   1.133460e+06   2.085728e+06
  -9.696260e+05   2.326516e+06
  -2.486623e+06   1.033325e+06
  -2.356433e+06  -6.201744e+05
  -1.025855e+06  -1.345418e+06
   1.718795e+05  -1.023080e+06
   4.605108e+05  -5.726535e+05
   1.987108e+05  -7.249524e+05
   1.714842e+05  -1.219145e+06
   6.607884e+05  -1.214953e+06
   1.249185e+06  -2.808817e+05
   1.289702e+06   1.096797e+06
   5.110193e+05   1.888580e+06
  -6.492566e+05   1.412251e+06
  -1.281473e+06  -9.610650e+03
  -8.058247e+05  -1.253189e+06
   3.558927e+05  -1.375180e+06
   1.102006e+06  -4.508700e+05
   7.928589e+05   6.064370e+05
  -6.786407e+04   1.014851e+06
  -4.606996e+05   7.847610e+05
  -5.975624e+04   4.475684e+05
   4.064200e+05   3.565589e+05
   4.228394e+04   3.873264e+05
  -1.112502e+06   2.031677e+05
  -1.998130e+06  -3.410348e+05
  -1.586532e+06  -1.023562e+06
   5.900947e+03  -1.385724e+06
   1.529900e+06  -1.091879e+06
   1.799591e+06  -2.849735e+05
   8.427472e+05   4.360490e+05
  -2.375036e+05   5.297455e+05
  -4.914179e+05   5.479621e+04
  -6.567603e+03  -3.748897e+05
   4.635200e+05  -2.346634e+05
   4.632326e+05   3.471881e+05
   1.883945e+05   7.299031e+05
   4.058410e+04   4.752665e+05
   1.464697e+05  -1.252130e+05
   3.235668e+05  -3.237945e+05
   2.792111e+05   2.301349e+05
  -1.819206e+05   9.897623e+05
  -9.051480e+05   1.032782e+06
  -1.292314e+06   1.246995e+05
  -7.725311e+05  -9.165008e+05
   4.256505e+05  -1.077155e+06
   1.214956e+06  -2.707497e+05
   7.090296e+05   5.947219e+05
  -6.954458e+05   6.423754e+05
  -1.597737e+06  -9.666114e+04
  -1.048213e+06  -8.668443e+05
   4.542499e+05  -1.017572e+06
   1.515083e+06  -5.155781e+05
   1.267196e+06   1.796157e+05
   1.478249e+05   5.264410e+05
  -6.463330e+05   2.794342e+05
  -3.635112e+05  -2.824460e+05
   6.085122e+05  -4.851718e+05
   1.166248e+06   1.324225e+05
   6.059187e+05   1.197363e+06
  -6.590168e+05   1.661171e+06
  -1.509347e+06   8.244970e+05
  -1.233328e+06  -7.910803e+05
  -1.642958e+05  -1.797310e+06
   7.634305e+05  -1.299797e+06
   9.303361e+05   1.664207e+05
   4.374510e+05   1.195437e+06
  -2.035325e+05   9.863723e+05
  -5.534875e+05   9.009208e+04
  -4.825973e+05  -3.933647e+05
  -1.870276e+05  -1.520582e+05
  -4.067744e+04   1.040197e+05
  -2.373274e+05  -2.758167e+05
  -4.783169e+05  -9.625922e+05
  -2.038485e+05  -1.089124e+06
   6.831284e+05  -3.923568e+05
   1.468827e+06   4.904917e+05
   1.293142e+06   8.601766e+05
   1.772680e+05   6.941137e+05
  -8.835161e+05   3.978222e+05
  -9.957555e+05   1.738229e+05
  -3.396254e+05  -4.113273e+04
   1.583988e+05  -2.187067e+05
   1.170930e+04  -2.224125e+05
  -2.912106e+05  -1.193420e+05
  -3.608932e+04  -1.340144e+05
   6.946565e+05  -2.082750e+05
   1.038249e+06   3.799175e+04
   3.766232e+05   6.867639e+05
  -8.846809e+05   1.138026e+06
  -1.684518e+06   7.058347e+05
  -1.361234e+06  -4.656370e+05
  -2.381477e+05  -1.409612e+06
   7.793043e+05  -1.349432e+06
   1.052095e+06  -4.995692e+05
   6.511824e+05   2.587093e+05
   1.154401e+05   3.573990e+05
  -9.268499e+04   4.566101e+04
   7.497332e+04  -3.493730e+04
   3.068856e+05   3.652962e+05
   2.432883e+05   8.111742e+05
  -1.946602e+05   6.674999e+05
  -6.794397e+05  -1.498433e+05
  -7.033360e+05  -9.748053e+05
  -7.167973e+04  -1.022982e+06
   7.654445e+05  -2.094993e+05
   1.008660e+06   7.548144e+05
   3.144354e+05   1.087602e+06
  -7.225973e+05   6.458123e+05
  -1.100779e+06  -9.736486e+04
  -5.088841e+05  -6.009746e+05
   2.921451e+05  -6.503057e+05
   3.643174e+05  -3.583047e+05
  -2.656561e+05  -2.412939e+04
  -6.527257e+05   2.457376e+04
  -1.346726e+05  -3.042102e+05
   8.339796e+05  -6.658345e+05
   1.248516e+06  -5.357533e+05
   7.389043e+05   1.700339e+05
  -1.105198e+05   8.562751e+05
  -5.450794e+05   8.386611e+05
  -4.045335e+05   1.432351e+05
  -3.420415e+04  -4.847377e+05
   2.471989e+05  -4.187883e+05
   3.468314e+05   1.696467e+05
   2.412723e+05   5.794217e+05
  -6.130305e+04   4.082744e+05
  -3.868670e+05  -5.801086e+04
  -4.653629e+05  -2.740063e+05
  -2.416558e+05  -8.905952e+04
   2.537814e+04   1.351875e+05
   8.603849e+04   1.651098e+04
   1.912305e+04  -3.594508e+05
   8.865892e+04  -5.230495e+05
   3.266833e+05  -1.800979e+05
   4.249399e+05   4.011861e+05
   1.160474e+05   6.453652e+05
  -4.186160e+05   2.975017e+05
  -6.447414e+05  -2.976351e+05
  -2.346267e+05  -5.804551e+05
   5.057927e+05  -3.549021e+05
   8.672149e+05   9.427692e+04
   4.666566e+05   3.830732e+05
  -2.966038e+05   3.821268e+05
  -6.331576e+05   2.034265e+05
  -2.366746e+05   1.415001e+04
   3.613219e+05  -4.688046e+04
   4.089055e+05   8.866142e+04
  -1.880509e+05   2.957847e+05
  -7.679614e+05   2.546622e+05
