
 $NMID
 id='ANONYMOUS ', fmtdat='(2E16.6)'
 volume=1.0
 tramp=1.0
 $END
  -4.890730e+07  -8.177475e+05
  -2.937823e+07  -2.996280e+07
   6.239272e+06  -3.281904e+07
   2.392884e+07  -1.327895e+07
   1.471332e+07   5.404057e+06
  -2.543816e+06   8.186378e+06
  -8.749016e+06  -5.647774e+05
  -2.887359e+06  -8.508239e+06
   5.212037e+06  -8.702112e+06
   8.555881e+06  -2.102251e+06
   6.201931e+06   5.623219e+06
   5.916389e+05   7.825896e+06
  -3.658890e+06   2.285232e+06
  -2.350036e+06  -5.236869e+06
   3.364805e+06  -6.162255e+06
   7.011412e+06   1.036868e+06
   3.977517e+06   9.047893e+06
  -3.346203e+06   1.044488e+07
  -8.941259e+06   5.064866e+06
  -9.368425e+06  -2.062795e+06
  -5.440918e+06  -6.624496e+06
  -3.468723e+05  -7.258124e+06
   2.314934e+06  -4.965195e+06
   1.044094e+06  -2.532833e+06
  -1.293540e+06  -2.543348e+06
   6.917310e+04  -4.183835e+06
   5.395597e+06  -3.795542e+06
   8.965059e+06   3.160738e+04
   6.175430e+06   4.020933e+06
  -2.180803e+05   4.491482e+06
  -3.736901e+06   1.955221e+06
  -2.186059e+06  -4.648043e+05
   1.099102e+06  -1.134621e+06
   2.652397e+06  -2.507596e+05
   2.043021e+06   1.823115e+06
   2.183936e+05   3.860048e+06
  -1.839839e+06   3.279530e+06
  -2.592868e+06  -4.155832e+05
  -1.119625e+06  -3.199453e+06
   7.011923e+05  -1.294266e+06
   1.430600e+04   2.579228e+06
  -2.380598e+06   2.197690e+06
  -2.246687e+06  -2.793209e+06
   1.921786e+06  -5.391797e+06
   5.778003e+06  -9.380498e+05
   4.331836e+06   5.959909e+06
  -1.624903e+06   7.366471e+06
  -6.535901e+06   2.032596e+06
  -6.334222e+06  -4.068659e+06
  -1.807465e+06  -5.567065e+06
   3.191695e+06  -2.608339e+06
   4.986013e+06   1.307311e+06
   2.413007e+06   3.174829e+06
  -2.064934e+06   2.037636e+06
  -4.061280e+06  -7.669047e+05
  -1.806284e+06  -2.388118e+06
   1.513696e+06  -1.217451e+06
   1.672908e+06   9.383068e+05
  -1.009829e+06   9.898441e+05
  -2.255565e+06  -1.244509e+06
   2.083840e+05  -2.833538e+06
   3.783555e+06  -1.742850e+06
   4.660554e+06   1.001440e+06
   2.120585e+06   3.440749e+06
  -1.779395e+06   4.722417e+06
  -4.847478e+06   4.275438e+06
  -5.744755e+06   1.344407e+06
  -3.977872e+06  -3.071415e+06
  -6.553264e+05  -5.692686e+06
   1.676054e+06  -4.445055e+06
   1.537421e+06  -1.365550e+06
   3.319386e+05  -4.986319e+04
   4.012311e+05  -9.720757e+05
   1.863089e+06  -1.432460e+06
   2.731833e+06   1.638829e+05
   1.757478e+06   2.158831e+06
  -2.460664e+05   2.172537e+06
  -1.703563e+06   8.803881e+04
  -1.629700e+06  -2.201004e+06
   1.432243e+05  -2.870784e+06
   2.712437e+06  -1.392428e+06
   4.070668e+06   1.349961e+06
   2.755629e+06   3.535910e+06
  -1.646558e+05   3.739397e+06
  -2.038896e+06   2.334777e+06
  -1.940153e+06   1.030286e+06
  -1.672969e+06   7.135497e+05
  -2.822192e+06   4.923752e+05
  -4.175009e+06  -7.605335e+05
  -3.325445e+06  -2.719041e+06
  -4.835927e+04  -4.016710e+06
   3.243740e+06  -3.713758e+06
   4.167169e+06  -1.878335e+06
   2.538422e+06   5.928521e+05
   7.825214e+04   2.211209e+06
  -1.214535e+06   1.789818e+06
  -5.309341e+05  -9.168093e+04
   1.129487e+06  -1.225514e+06
   1.837926e+06  -3.295243e+05
   8.117832e+05   1.170977e+06
  -5.747532e+05   1.075167e+06
  -4.868102e+05  -3.854810e+05
   9.513973e+05  -7.879285e+05
   1.808243e+06   1.025370e+06
   8.058679e+05   3.253525e+06
  -1.324138e+06   3.443456e+06
  -3.007600e+06   1.331572e+06
  -3.362292e+06  -1.318779e+06
  -2.343568e+06  -2.811176e+06
  -4.267436e+05  -2.665762e+06
   1.289334e+06  -1.411588e+06
   1.574276e+06  -1.538416e+05
   4.826088e+05   5.795149e+04
  -3.360659e+05  -7.442499e+05
   4.068864e+05  -1.277904e+06
   1.827739e+06  -5.230326e+05
   1.951872e+06   8.661492e+05
   3.745552e+05   1.362236e+06
  -1.151940e+06   5.499547e+05
  -9.050910e+05  -4.681688e+05
   8.235677e+05  -5.643178e+05
   2.203335e+06   2.878771e+05
   1.788236e+06   1.386331e+06
  -2.465288e+05   2.009161e+06
  -2.326952e+06   1.623918e+06
  -2.746065e+06   2.157535e+05
  -1.161477e+06  -1.247357e+06
   9.161102e+05  -1.413266e+06
   1.487141e+06  -1.428835e+05
   1.476951e+05   1.037049e+06
  -1.497169e+06   6.776915e+05
  -1.676138e+06  -7.885079e+05
  -3.339711e+05  -1.632537e+06
   1.067293e+06  -9.809674e+05
   1.247889e+06   2.867380e+05
   2.635322e+05   7.619585e+05
  -7.598248e+05   4.574435e+04
  -6.876244e+05  -1.045139e+06
   6.120605e+05  -1.376300e+06
   1.989563e+06  -4.670592e+05
   1.965663e+06   1.090431e+06
   3.255044e+05   2.042330e+06
  -1.440904e+06   1.580516e+06
  -1.698219e+06   1.808118e+05
  -4.908020e+05  -8.601692e+05
   6.600332e+05  -7.864374e+05
   6.494043e+05  -5.395847e+04
  -1.103423e+05   3.981411e+05
  -5.294924e+05   2.340220e+05
  -1.887819e+05  -8.820235e+04
   4.097645e+05   2.065521e+04
   5.199786e+05   6.266197e+05
  -1.962293e+05   1.158158e+06
  -1.370192e+06   8.578031e+05
  -2.038213e+06  -4.524707e+05
  -1.390747e+06  -1.945875e+06
   2.762416e+05  -2.387251e+06
   1.635745e+06  -1.381749e+06
   1.696591e+06   1.457601e+05
   8.675658e+05   9.410038e+05
   3.023222e+05   7.267517e+05
   4.194140e+05   2.695314e+05
   5.645250e+05   3.009502e+05
   6.736818e+04   7.229154e+05
  -8.711735e+05   8.753682e+05
  -1.446513e+06   3.075435e+05
  -1.048982e+06  -7.504825e+05
   2.652656e+05  -1.473213e+06
   1.730771e+06  -1.040854e+06
   2.219170e+06   5.267247e+05
   1.087884e+06   2.092335e+06
  -1.018069e+06   2.306579e+06
  -2.506558e+06   9.809878e+05
  -2.322060e+06  -6.722132e+05
  -9.622140e+05  -1.347890e+06
   2.033151e+05  -9.762521e+05
   4.342861e+05  -5.313768e+05
   1.550468e+05  -7.272243e+05
   1.595838e+05  -1.244250e+06
   6.792468e+05  -1.225798e+06
   1.262349e+06  -2.745229e+05
   1.281167e+06   1.100737e+06
   4.954888e+05   1.882423e+06
  -6.544762e+05   1.399714e+06
  -1.271476e+06  -2.771270e+04
  -7.803571e+05  -1.268962e+06
   3.914409e+05  -1.366153e+06
   1.127116e+06  -4.078246e+05
   7.839041e+05   6.553084e+05
  -1.091940e+05   1.032061e+06
  -5.040781e+05   7.688636e+05
  -7.840689e+04   4.282308e+05
   4.088830e+05   3.504309e+05
   4.345973e+04   3.825028e+05
  -1.122113e+06   1.858412e+05
  -2.003618e+06  -3.671766e+05
  -1.568841e+06  -1.046699e+06
   4.357189e+04  -1.395612e+06
   1.561230e+06  -1.078819e+06
   1.802647e+06  -2.487710e+05
   8.237489e+05   4.731203e+05
  -2.549034e+05   5.390989e+05
  -4.972540e+05   3.634365e+04
  -1.166627e+04  -3.928557e+05
   4.533670e+05  -2.357911e+05
   4.618118e+05   3.491007e+05
   2.053461e+05   7.225751e+05
   5.871390e+04   4.730634e+05
   1.430384e+05  -1.069997e+05
   3.050399e+05  -3.001124e+05
   2.708805e+05   2.336906e+05
  -1.772881e+05   9.755688e+05
  -9.107967e+05   1.024111e+06
  -1.315663e+06   1.271298e+05
  -7.888526e+05  -9.191808e+05
   4.339082e+05  -1.090390e+06
   1.228599e+06  -2.812057e+05
   7.046278e+05   5.900434e+05
  -7.032017e+05   6.276154e+05
  -1.576520e+06  -1.229962e+05
  -1.002196e+06  -8.755004e+05
   4.829539e+05  -9.861400e+05
   1.502056e+06  -4.656005e+05
   1.235061e+06   2.061359e+05
   1.301827e+05   5.180227e+05
  -6.470525e+05   2.603642e+05
  -3.663055e+05  -2.919775e+05
   5.983271e+05  -4.899646e+05
   1.161968e+06   1.228426e+05
   6.158170e+05   1.187062e+06
  -6.421624e+05   1.657344e+06
  -1.494736e+06   8.257156e+05
  -1.221485e+06  -7.856499e+05
  -1.539634e+05  -1.780696e+06
   7.661863e+05  -1.271983e+06
   9.166573e+05   1.870223e+05
   4.090548e+05   1.190818e+06
  -2.289028e+05   9.643990e+05
  -5.554440e+05   7.611031e+04
  -4.613761e+05  -3.894417e+05
  -1.684173e+05  -1.457851e+05
  -4.712603e+04   9.733734e+04
  -2.563508e+05  -2.885845e+05
  -4.761706e+05  -9.644301e+05
  -1.745143e+05  -1.077172e+06
   7.034770e+05  -3.789442e+05
   1.450705e+06   4.966029e+05
   1.258014e+06   8.616665e+05
   1.682295e+05   6.939566e+05
  -8.632466e+05   3.917108e+05
  -9.827301e+05   1.595608e+05
  -3.500079e+05  -5.416805e+04
   1.523606e+05  -2.182722e+05
   3.199115e+04  -2.094365e+05
  -2.682832e+05  -1.074676e+05
  -4.330378e+04  -1.325374e+05
   6.691150e+05  -2.124429e+05
   1.034030e+06   3.716981e+04
   4.008644e+05   6.897884e+05
  -8.656434e+05   1.139828e+06
  -1.692079e+06   7.069687e+05
  -1.376563e+06  -4.592565e+05
  -2.381898e+05  -1.398346e+06
   7.867682e+05  -1.343250e+06
   1.048959e+06  -5.053959e+05
   6.434724e+05   2.482151e+05
   1.219785e+05   3.565583e+05
  -7.519949e+04   5.844924e+04
   8.034333e+04  -1.982989e+04
   2.930225e+05   3.699403e+05
   2.295493e+05   8.065435e+05
  -1.924886e+05   6.670451e+05
  -6.713397e+05  -1.376193e+05
  -7.078635e+05  -9.587334e+05
  -8.930182e+04  -1.020521e+06
   7.505732e+05  -2.253183e+05
   1.007016e+06   7.363526e+05
   3.212099e+05   1.083877e+06
  -7.182699e+05   6.538483e+05
  -1.103618e+06  -9.590447e+04
  -5.137165e+05  -6.134009e+05
   2.953752e+05  -6.629595e+05
   3.798919e+05  -3.577961e+05
  -2.465263e+05  -1.688412e+04
  -6.441441e+05   2.514956e+04
  -1.386081e+05  -3.066909e+05
   8.311252e+05  -6.558549e+05
   1.257099e+06  -5.129083e+05
   7.504700e+05   1.871527e+05
  -1.119608e+05   8.577143e+05
  -5.610010e+05   8.375794e+05
  -4.212647e+05   1.525828e+05
  -4.224257e+04  -4.750541e+05
   2.443919e+05  -4.252371e+05
   3.441155e+05   1.537488e+05
   2.403532e+05   5.761678e+05
  -5.895232e+04   4.205047e+05
  -3.854388e+05  -5.191471e+04
  -4.664254e+05  -2.855022e+05
  -2.393329e+05  -9.942552e+04
   3.207236e+04   1.476197e+05
   8.395887e+04   4.290567e+04
  -2.957692e+03  -3.482494e+05
   5.910807e+04  -5.394041e+05
   3.169728e+05  -2.081671e+05
   4.438700e+05   3.821487e+05
   1.423095e+05   6.410573e+05
  -4.091735e+05   3.030132e+05
  -6.514639e+05  -2.875668e+05
  -2.402946e+05  -5.715204e+05
   5.087423e+05  -3.533326e+05
   8.717625e+05   8.945992e+04
   4.675925e+05   3.819470e+05
  -2.966539e+05   3.911969e+05
  -6.352385e+05   2.151552e+05
  -2.482473e+05   1.517156e+04
   3.421686e+05  -5.997984e+04
   4.003199e+05   7.047290e+04
  -1.722742e+05   2.835167e+05
  -7.398349e+05   2.533189e+05
