
 $NMID
 id='ANONYMOUS ', fmtdat='(2E16.6)'
 volume=1.0
 tramp=1.0
 $END
  -5.561124e+07   8.515767e+05
  -3.423277e+07  -3.376295e+07
   6.523607e+06  -3.781615e+07
   2.709340e+07  -1.519389e+07
   1.666214e+07   6.480801e+06
  -3.010356e+06   9.371585e+06
  -9.886945e+06  -9.050738e+05
  -3.074259e+06  -9.691338e+06
   5.991578e+06  -9.560002e+06
   9.616237e+06  -2.244634e+06
   7.042935e+06   6.088562e+06
   8.881796e+05   8.581780e+06
  -3.937762e+06   2.736869e+06
  -2.653142e+06  -5.490034e+06
   3.697302e+06  -6.676145e+06
   7.885248e+06   1.160295e+06
   4.600991e+06   1.008320e+07
  -3.560540e+06   1.179466e+07
  -9.921021e+06   5.997627e+06
  -1.068767e+07  -1.896006e+06
  -6.593100e+06  -7.266215e+06
  -8.222242e+05  -8.433849e+06
   2.656408e+06  -5.997753e+06
   1.648970e+06  -2.845211e+06
  -1.132224e+06  -2.355411e+06
  -1.683223e+05  -4.243393e+06
   5.457589e+06  -4.346121e+06
   9.647461e+06  -4.654973e+05
   7.006318e+06   4.079108e+06
   2.109533e+05   4.967734e+06
  -3.734163e+06   2.464990e+06
  -2.389210e+06  -7.946328e+04
   7.949434e+05  -9.504392e+05
   2.417006e+06  -3.815540e+05
   2.156254e+06   1.562662e+06
   5.876953e+05   3.950268e+06
  -1.776199e+06   3.789527e+06
  -3.089911e+06  -1.012892e+05
  -1.652874e+06  -3.521166e+06
   6.810243e+05  -1.805061e+06
   2.399700e+05   2.514418e+06
  -2.489375e+06   2.351738e+06
  -2.519081e+06  -3.135775e+06
   2.233792e+06  -6.164371e+06
   6.786875e+06  -1.197525e+06
   5.176638e+06   6.717718e+06
  -1.705588e+06   8.468453e+06
  -7.315769e+06   2.506794e+06
  -7.025601e+06  -4.370999e+06
  -1.958766e+06  -6.062864e+06
   3.477429e+06  -2.803942e+06
   5.366192e+06   1.464264e+06
   2.540802e+06   3.495704e+06
  -2.357873e+06   2.267703e+06
  -4.544230e+06  -8.329317e+05
  -2.014720e+06  -2.679361e+06
   1.683788e+06  -1.395881e+06
   1.785667e+06   1.020831e+06
  -1.276476e+06   1.016135e+06
  -2.561031e+06  -1.615371e+06
   4.157395e+05  -3.418397e+06
   4.480891e+06  -2.038655e+06
   5.316421e+06   1.189165e+06
   2.407877e+06   3.900376e+06
  -1.766985e+06   5.260387e+06
  -5.022830e+06   4.840876e+06
  -6.181802e+06   1.746092e+06
  -4.549707e+06  -3.133924e+06
  -9.591221e+05  -6.168821e+06
   1.810833e+06  -4.844961e+06
   1.769718e+06  -1.338298e+06
   2.670637e+05   1.918842e+05
   1.009231e+05  -9.438269e+05
   1.678910e+06  -1.699706e+06
   2.818239e+06  -1.394651e+05
   1.980118e+06   2.020660e+06
  -5.744420e+04   2.184720e+06
  -1.633989e+06   1.571936e+05
  -1.704253e+06  -2.173799e+06
   2.779503e+04  -2.990601e+06
   2.798753e+06  -1.639795e+06
   4.469711e+06   1.212647e+06
   3.218865e+06   3.737548e+06
   3.532561e+02   4.193534e+06
  -2.215993e+06   2.725095e+06
  -2.197814e+06   1.187604e+06
  -1.848873e+06   7.406413e+05
  -3.006461e+06   5.197852e+05
  -4.444231e+06  -7.579940e+05
  -3.565247e+06  -2.820800e+06
  -1.287015e+05  -4.224606e+06
   3.298863e+06  -3.976074e+06
   4.278963e+06  -2.126020e+06
   2.688496e+06   4.665112e+05
   2.326380e+05   2.275892e+06
  -1.149201e+06   1.943283e+06
  -5.657628e+05  -4.787499e+04
   1.125343e+06  -1.326286e+06
   1.944921e+06  -4.047349e+05
   9.293199e+05   1.221161e+06
  -5.463697e+05   1.134647e+06
  -4.613994e+05  -4.121177e+05
   1.087222e+06  -7.666123e+05
   1.951674e+06   1.252315e+06
   7.495033e+05   3.571379e+06
  -1.581317e+06   3.583705e+06
  -3.251848e+06   1.231761e+06
  -3.459840e+06  -1.473810e+06
  -2.362752e+06  -2.886915e+06
  -4.499632e+05  -2.714936e+06
   1.291494e+06  -1.493745e+06
   1.622434e+06  -2.157798e+05
   5.063835e+05   4.965436e+04
  -3.663699e+05  -7.751514e+05
   4.186866e+05  -1.376630e+06
   1.951278e+06  -5.976196e+05
   2.093140e+06   9.057573e+05
   4.039495e+05   1.456857e+06
  -1.209645e+06   5.889806e+05
  -9.230611e+05  -4.811664e+05
   8.852696e+05  -5.519600e+05
   2.272919e+06   3.362267e+05
   1.809579e+06   1.428166e+06
  -2.713257e+05   2.053010e+06
  -2.399127e+06   1.698998e+06
  -2.862747e+06   2.677907e+05
  -1.251145e+06  -1.303176e+06
   9.412626e+05  -1.538445e+06
   1.596075e+06  -1.962998e+05
   2.028761e+05   1.103465e+06
  -1.562018e+06   7.521039e+05
  -1.772055e+06  -8.114258e+05
  -3.468426e+05  -1.713164e+06
   1.134715e+06  -1.015424e+06
   1.307991e+06   3.233764e+05
   2.588279e+05   8.133315e+05
  -8.193966e+05   5.959212e+04
  -7.542503e+05  -1.085654e+06
   6.000120e+05  -1.461487e+06
   2.068841e+06  -5.467536e+05
   2.090082e+06   1.091300e+06
   3.868137e+05   2.139374e+06
  -1.490631e+06   1.689629e+06
  -1.783788e+06   2.110017e+05
  -5.173819e+05  -9.015267e+05
   6.850929e+05  -8.284945e+05
   6.564189e+05  -6.955167e+04
  -1.312842e+05   3.817098e+05
  -5.226397e+05   2.104738e+05
  -1.328180e+05  -8.579402e+04
   4.703521e+05   6.527750e+04
   5.436939e+05   6.937350e+05
  -2.131415e+05   1.229068e+06
  -1.430246e+06   9.194091e+05
  -2.144977e+06  -4.370241e+05
  -1.500288e+06  -2.010036e+06
   2.384899e+05  -2.495163e+06
   1.680581e+06  -1.449456e+06
   1.750345e+06   1.440874e+05
   8.776817e+05   9.438340e+05
   3.080679e+05   6.864808e+05
   4.749786e+05   2.255581e+05
   6.424196e+05   3.133650e+05
   9.558694e+04   7.826260e+05
  -9.083125e+05   9.277237e+05
  -1.501006e+06   3.269099e+05
  -1.079138e+06  -7.592789e+05
   2.727754e+05  -1.512198e+06
   1.787611e+06  -1.097422e+06
   2.317560e+06   5.138215e+05
   1.160799e+06   2.175398e+06
  -1.049645e+06   2.440616e+06
  -2.629488e+06   1.057560e+06
  -2.430134e+06  -6.931880e+05
  -9.835713e+05  -1.397668e+06
   2.254609e+05  -9.850892e+05
   4.172859e+05  -5.205504e+05
   8.970597e+04  -7.615328e+05
   1.079821e+05  -1.335769e+06
   6.902513e+05  -1.323913e+06
   1.330889e+06  -3.252082e+05
   1.371422e+06   1.118383e+06
   5.633007e+05   1.954399e+06
  -6.486288e+05   1.476831e+06
  -1.327083e+06  -9.291357e+03
  -8.352579e+05  -1.327955e+06
   4.068193e+05  -1.443042e+06
   1.205391e+06  -4.222226e+05
   8.438375e+05   7.176078e+05
  -1.229052e+05   1.113645e+06
  -5.547981e+05   8.142147e+05
  -9.273326e+04   4.340260e+05
   4.420192e+05   3.467798e+05
   5.858140e+04   3.942451e+05
  -1.185122e+06   2.147070e+05
  -2.125230e+06  -3.469679e+05
  -1.665151e+06  -1.075452e+06
   3.957680e+04  -1.483922e+06
   1.639475e+06  -1.174908e+06
   1.893281e+06  -2.808111e+05
   8.660055e+05   5.141154e+05
  -2.670223e+05   5.878217e+05
  -5.306269e+05   3.522222e+04
  -3.458608e+04  -4.306814e+05
   4.562091e+05  -2.615914e+05
   4.947913e+05   3.532949e+05
   2.566851e+05   7.395776e+05
   9.694311e+04   4.881398e+05
   1.464038e+05  -9.606078e+04
   2.943360e+05  -2.947728e+05
   2.833843e+05   2.419469e+05
  -1.515093e+05   1.012570e+06
  -9.297103e+05   1.095813e+06
  -1.401408e+06   1.841471e+05
  -8.765012e+05  -9.378462e+05
   4.256730e+05  -1.174480e+06
   1.292515e+06  -3.499425e+05
   7.527785e+05   5.913194e+05
  -7.284717e+05   6.667315e+05
  -1.639470e+06  -1.104798e+05
  -1.030767e+06  -9.041742e+05
   5.122741e+05  -1.021238e+06
   1.555811e+06  -4.797996e+05
   1.271938e+06   2.114397e+05
   1.323323e+05   5.332741e+05
  -6.747567e+05   2.733721e+05
  -3.988595e+05  -3.042217e+05
   5.991582e+05  -5.369372e+05
   1.216171e+06   8.072758e+04
   6.940619e+05   1.211351e+06
  -6.008558e+05   1.751978e+06
  -1.524078e+06   9.139149e+05
  -1.292947e+06  -7.800652e+05
  -2.054967e+05  -1.846345e+06
   7.703409e+05  -1.329159e+06
   9.566450e+05   1.915877e+05
   4.358618e+05   1.236195e+06
  -2.409629e+05   9.998201e+05
  -5.851389e+05   8.298102e+04
  -4.723943e+05  -3.932108e+05
  -1.594678e+05  -1.441444e+05
  -5.472494e+04   9.751376e+04
  -3.021611e+05  -3.046147e+05
  -5.292911e+05  -9.983598e+05
  -1.835679e+05  -1.116708e+06
   7.507271e+05  -4.098934e+05
   1.519156e+06   4.834305e+05
   1.309251e+06   8.710216e+05
   1.893046e+05   7.240287e+05
  -8.712271e+05   4.285220e+05
  -1.013941e+06   1.813314e+05
  -3.831239e+05  -5.766778e+04
   1.459504e+05  -2.322749e+05
   5.180349e+04  -2.104021e+05
  -2.570504e+05  -9.531306e+04
  -5.750439e+04  -1.345229e+05
   6.655992e+05  -2.444159e+05
   1.080997e+06   4.795112e+03
   4.708476e+05   7.087808e+05
  -8.487966e+05   1.222353e+06
  -1.759711e+06   8.002465e+05
  -1.474882e+06  -4.260583e+05
  -2.938180e+05  -1.446373e+06
   7.904778e+05  -1.429617e+06
   1.078966e+06  -5.706185e+05
   6.724650e+05   2.290190e+05
   1.468065e+05   3.677429e+05
  -5.492119e+04   7.449085e+04
   9.265296e+04  -7.725150e+03
   3.050826e+05   3.863483e+05
   2.511649e+05   8.360520e+05
  -1.775702e+05   7.050716e+05
  -6.972362e+05  -1.102371e+05
  -7.759374e+05  -9.634611e+05
  -1.464963e+05  -1.061195e+06
   7.601000e+05  -2.757412e+05
   1.075061e+06   7.188939e+05
   3.795288e+05   1.120797e+06
  -7.253879e+05   7.176524e+05
  -1.163672e+06  -6.195337e+04
  -5.669980e+05  -6.393303e+05
   2.890019e+05  -7.199012e+05
   4.041227e+05  -3.904058e+05
  -2.363997e+05  -5.336927e+03
  -6.651851e+05   4.657021e+04
  -1.604124e+05  -3.190950e+05
   8.489664e+05  -7.037195e+05
   1.315835e+06  -5.558341e+05
   8.097064e+05   1.882367e+05
  -9.041366e+04   9.052729e+05
  -5.787256e+05   8.991125e+05
  -4.535869e+05   1.877540e+05
  -6.700529e+04  -4.845091e+05
   2.378819e+05  -4.607432e+05
   3.598119e+05   1.327520e+05
   2.694721e+05   5.929912e+05
  -4.286135e+04   4.561740e+05
  -4.031917e+05  -3.522368e+04
  -5.021804e+05  -2.966451e+05
  -2.538385e+05  -1.083881e+05
   4.847255e+04   1.662745e+05
   9.249434e+04   7.203411e+04
  -3.692638e+04  -3.482664e+05
   7.980992e+03  -5.799959e+05
   3.091295e+05  -2.581180e+05
   4.954508e+05   3.611695e+05
   1.988219e+05   6.576360e+05
  -4.075677e+05   3.355944e+05
  -6.983056e+05  -2.675581e+05
  -2.754409e+05  -5.804715e+05
   5.255755e+05  -3.862808e+05
   9.214742e+05   5.876489e+04
   5.039047e+05   3.837500e+05
  -2.964710e+05   4.302420e+05
  -6.591569e+05   2.601469e+05
  -2.725687e+05   2.760061e+04
   3.329540e+05  -8.492606e+04
   4.089975e+05   4.217602e+04
  -1.562501e+05   2.862297e+05
  -7.366231e+05   2.829815e+05
