
 $NMID
 id='ANONYMOUS ', fmtdat='(2E16.6)'
 volume=1.0
 tramp=1.0
 $END
   5.228201e+07  -3.369518e+05
   3.168621e+07   3.255048e+07
  -6.897198e+06   3.566090e+07
  -2.581794e+07   1.350362e+07
  -1.538409e+07  -6.822457e+06
   3.195856e+06  -8.743058e+06
   9.201480e+06   1.333668e+06
   2.442887e+06   9.195963e+06
  -5.951714e+06   8.554844e+06
  -9.011967e+06   1.714775e+06
  -6.427056e+06  -5.717139e+06
  -7.307985e+05  -7.867707e+06
   3.628277e+06  -2.550778e+06
   2.322304e+06   4.911030e+06
  -3.575602e+06   5.927653e+06
  -7.306304e+06  -1.314333e+06
  -4.071929e+06  -9.465427e+06
   3.529292e+06  -1.091375e+07
   9.331709e+06  -5.501135e+06
   1.001256e+07   1.793943e+06
   6.257684e+06   6.848835e+06
   8.062794e+05   8.080084e+06
  -2.703489e+06   5.792333e+06
  -1.953375e+06   2.582368e+06
   7.726135e+05   1.863334e+06
   2.152005e+05   3.639451e+06
  -4.786677e+06   3.954245e+06
  -8.705674e+06   5.063659e+05
  -6.455201e+06  -3.700148e+06
  -3.683671e+05  -4.585515e+06
   3.230099e+06  -2.381891e+06
   2.186243e+06  -1.666121e+05
  -4.495260e+05   6.456243e+05
  -1.867621e+06   3.694750e+05
  -1.876328e+06  -1.172679e+06
  -6.807227e+05  -3.430967e+06
   1.564722e+06  -3.554555e+06
   3.006359e+06  -6.462346e+04
   1.710939e+06   3.285641e+06
  -6.237873e+05   1.908424e+06
  -3.163513e+05  -2.084010e+06
   2.253074e+06  -2.036201e+06
   2.245112e+06   2.991069e+06
  -2.320233e+06   5.739784e+06
  -6.561979e+06   1.000870e+06
  -4.829834e+06  -6.430963e+06
   1.764369e+06  -7.965877e+06
   6.869590e+06  -2.268860e+06
   6.346471e+06   4.135386e+06
   1.594658e+06   5.562634e+06
  -3.239512e+06   2.417679e+06
  -4.782341e+06  -1.513874e+06
  -2.140591e+06  -3.272770e+06
   2.287761e+06  -2.021103e+06
   4.189513e+06   8.916214e+05
   1.782654e+06   2.549718e+06
  -1.597603e+06   1.267316e+06
  -1.565068e+06  -9.771459e+05
   1.315115e+06  -8.344109e+05
   2.345587e+06   1.733710e+06
  -6.253404e+05   3.326788e+06
  -4.394455e+06   1.810686e+06
  -4.964403e+06  -1.314003e+06
  -2.139289e+06  -3.726258e+06
   1.637668e+06  -4.816204e+06
   4.522314e+06  -4.391900e+06
   5.619560e+06  -1.612243e+06
   4.204621e+06   2.832477e+06
   8.699586e+05   5.615003e+06
  -1.775033e+06   4.349919e+06
  -1.709896e+06   1.052875e+06
  -1.602878e+05  -3.568570e+05
   1.277351e+05   7.820985e+05
  -1.325467e+06   1.606768e+06
  -2.459852e+06   2.793974e+05
  -1.797214e+06  -1.655495e+06
  -4.209251e+04  -1.857190e+06
   1.329800e+06  -1.460666e+05
   1.439653e+06   1.859824e+06
  -1.554558e+04   2.620267e+06
  -2.480680e+06   1.501469e+06
  -4.058020e+06  -1.046116e+06
  -2.975494e+06  -3.412585e+06
  -4.556132e+03  -3.901537e+06
   2.094177e+06  -2.542526e+06
   2.093988e+06  -1.059481e+06
   1.718993e+06  -5.915432e+05
   2.696444e+06  -3.745222e+05
   3.941866e+06   7.638659e+05
   3.119053e+06   2.562121e+06
   5.333678e+04   3.734071e+06
  -2.940364e+06   3.472342e+06
  -3.762394e+06   1.872221e+06
  -2.378167e+06  -3.699738e+05
  -2.556607e+05  -1.982265e+06
   9.742414e+05  -1.732031e+06
   5.046222e+05   2.209081e+04
  -9.846542e+05   1.168531e+06
  -1.738162e+06   3.454223e+05
  -8.424346e+05  -1.098219e+06
   4.705234e+05  -9.901395e+05
   3.570663e+05   3.803322e+05
  -1.044218e+06   5.963290e+05
  -1.718908e+06  -1.292374e+06
  -4.825878e+05  -3.281570e+06
   1.636388e+06  -3.083123e+06
   2.965047e+06  -8.660813e+05
   2.951404e+06   1.460061e+06
   1.929519e+06   2.557889e+06
   3.246129e+05   2.341697e+06
  -1.133295e+06   1.290856e+06
  -1.414303e+06   1.865232e+05
  -4.448364e+05  -4.943407e+04
   3.113268e+05   6.890746e+05
  -4.024548e+05   1.227693e+06
  -1.761925e+06   5.070111e+05
  -1.851657e+06  -8.556556e+05
  -3.218206e+05  -1.315228e+06
   1.083085e+06  -4.933286e+05
   7.795447e+05   4.415660e+05
  -8.100377e+05   4.305316e+05
  -1.962085e+06  -3.843056e+05
  -1.504284e+06  -1.286478e+06
   3.042669e+05  -1.758542e+06
   2.128288e+06  -1.426647e+06
   2.515770e+06  -1.873817e+05
   1.089718e+06   1.179376e+06
  -8.588065e+05   1.370681e+06
  -1.439222e+06   1.617525e+05
  -1.830647e+05  -9.904622e+05
   1.391329e+06  -6.495376e+05
   1.548211e+06   7.527733e+05
   2.545454e+05   1.518310e+06
  -1.038481e+06   8.512286e+05
  -1.140833e+06  -3.385604e+05
  -1.910152e+05  -7.333523e+05
   7.406156e+05  -3.727256e+04
   6.588654e+05   9.703857e+05
  -5.383513e+05   1.284955e+06
  -1.825217e+06   4.668451e+05
  -1.832608e+06  -9.807911e+05
  -3.148637e+05  -1.893646e+06
   1.345022e+06  -1.470310e+06
   1.578693e+06  -1.517504e+05
   4.319260e+05   8.076044e+05
  -6.211520e+05   7.128886e+05
  -5.614968e+05   5.314993e+04
   1.371247e+05  -3.049588e+05
   4.405046e+05  -1.452996e+05
   6.571842e+04   7.230234e+04
  -4.415592e+05  -1.045884e+05
  -4.570206e+05  -6.533827e+05
   2.279044e+05  -1.086792e+06
   1.280384e+06  -7.846110e+05
   1.882889e+06   4.167019e+05
   1.296955e+06   1.789659e+06
  -2.408592e+05   2.185019e+06
  -1.493584e+06   1.230205e+06
  -1.515125e+06  -1.682322e+05
  -7.232760e+05  -8.217231e+05
  -2.476756e+05  -5.553522e+05
  -4.402381e+05  -1.698144e+05
  -5.949856e+05  -2.937456e+05
  -8.047113e+04  -7.109603e+05
   8.217343e+05  -7.989430e+05
   1.318666e+06  -2.498447e+05
   9.140491e+05   6.768684e+05
  -2.771552e+05   1.299112e+06
  -1.583843e+06   9.215059e+05
  -2.019744e+06  -4.877371e+05
  -9.765480e+05  -1.933949e+06
   9.795207e+05  -2.136004e+06
   2.345880e+06  -8.789555e+05
   2.116275e+06   6.692509e+05
   8.078261e+05   1.245050e+06
  -2.340887e+05   8.311766e+05
  -3.519016e+05   4.200417e+05
  -4.518779e+04   6.693329e+05
  -8.859299e+04   1.198028e+06
  -6.292279e+05   1.175748e+06
  -1.187168e+06   2.769343e+05
  -1.198069e+06  -9.966301e+05
  -4.746943e+05  -1.722691e+06
   5.841654e+05  -1.289762e+06
   1.163791e+06   3.029444e+04
   7.108781e+05   1.190832e+06
  -3.961201e+05   1.266810e+06
  -1.090438e+06   3.329885e+05
  -7.382088e+05  -6.790317e+05
   1.467504e+05  -1.000315e+06
   5.312889e+05  -7.063428e+05
   1.012864e+05  -3.676966e+05
  -3.901092e+05  -3.023361e+05
  -5.066389e+04  -3.438980e+05
   1.056222e+06  -1.706030e+05
   1.880558e+06   3.368686e+05
   1.451459e+06   9.772168e+05
  -7.251420e+04   1.320809e+06
  -1.479243e+06   1.021180e+06
  -1.677248e+06   2.090551e+05
  -7.489297e+05  -4.905407e+05
   2.520062e+05  -5.269985e+05
   4.749357e+05  -1.368177e+04
   3.480542e+04   3.949287e+05
  -3.946991e+05   2.289730e+05
  -4.339949e+05  -3.154204e+05
  -2.371695e+05  -6.457064e+05
  -9.870821e+04  -4.274737e+05
  -1.283125e+05   6.839280e+04
  -2.474415e+05   2.369849e+05
  -2.424136e+05  -2.185585e+05
   1.352644e+05  -8.803500e+05
   8.306109e+05  -9.560303e+05
   1.256951e+06  -1.606794e+05
   7.834641e+05   8.319525e+05
  -3.863658e+05   1.046395e+06
  -1.152422e+06   3.134373e+05
  -6.574410e+05  -5.212244e+05
   6.533791e+05  -5.732577e+05
   1.430176e+06   1.287043e+05
   8.671569e+05   8.135679e+05
  -4.835086e+05   8.746539e+05
  -1.368028e+06   3.729650e+05
  -1.096273e+06  -2.174601e+05
  -9.867356e+04  -4.654532e+05
   5.987883e+05  -2.220606e+05
   3.537802e+05   2.780015e+05
  -5.218032e+05   4.742727e+05
  -1.068041e+06  -6.866462e+04
  -6.146297e+05  -1.061915e+06
   5.234552e+05  -1.538205e+06
   1.335773e+06  -7.995130e+05
   1.126722e+06   6.900286e+05
   1.631951e+05   1.616443e+06
  -6.900788e+05   1.145864e+06
  -8.333764e+05  -1.918818e+05
  -3.546417e+05  -1.091104e+06
   2.405234e+05  -8.646213e+05
   5.195731e+05  -5.895210e+04
   3.966200e+05   3.475377e+05
   1.235866e+05   1.242283e+05
   5.478552e+04  -8.065685e+04
   2.826616e+05   2.791812e+05
   4.610139e+05   8.847413e+05
   1.310624e+05   9.783752e+05
  -6.826022e+05   3.488234e+05
  -1.323216e+06  -4.397589e+05
  -1.121498e+06  -7.784130e+05
  -1.562483e+05  -6.402460e+05
   7.536477e+05  -3.673185e+05
   8.854576e+05  -1.423335e+05
   3.478154e+05   6.265473e+04
  -1.245980e+05   2.033397e+05
  -6.504077e+04   1.761691e+05
   2.057448e+05   7.718531e+04
   5.616708e+04   1.170621e+05
  -5.660843e+05   2.140371e+05
  -9.499715e+05  -8.519052e+03
  -4.333402e+05  -6.276471e+05
   7.375554e+05  -1.074541e+06
   1.562126e+06  -7.001946e+05
   1.311842e+06   3.752290e+05
   2.521207e+05   1.267613e+06
  -7.103491e+05   1.253312e+06
  -9.511178e+05   5.035358e+05
  -5.847699e+05  -1.966783e+05
  -1.334395e+05  -3.237748e+05
   3.269851e+04  -7.479889e+04
  -8.774521e+04  -5.970603e+03
  -2.561064e+05  -3.473847e+05
  -2.058488e+05  -7.359562e+05
   1.578715e+05  -6.206458e+05
   6.065943e+05   9.056211e+04
   6.828018e+05   8.391220e+05
   1.395499e+05   9.330562e+05
  -6.575578e+05   2.521711e+05
  -9.422681e+05  -6.231222e+05
  -3.355378e+05  -9.865590e+05
   6.385337e+05  -6.365253e+05
   1.028639e+06   5.806608e+04
   5.027741e+05   5.766133e+05
  -2.596330e+05   6.449993e+05
  -3.715538e+05   3.436786e+05
   1.915242e+05   1.231152e+03
   5.796635e+05  -3.799854e+04
   1.437728e+05   2.839414e+05
  -7.503975e+05   6.084475e+05
  -1.172584e+06   4.660732e+05
  -7.249593e+05  -1.830267e+05
   8.467854e+04  -7.995900e+05
   5.280290e+05  -7.912864e+05
   4.143791e+05  -1.732500e+05
   6.305753e+04   4.187092e+05
  -2.088116e+05   4.107272e+05
  -3.130974e+05  -1.052947e+05
  -2.341483e+05  -5.215794e+05
   3.660721e+04  -4.124836e+05
   3.537594e+05   2.770408e+04
   4.437193e+05   2.735338e+05
   2.224442e+05   1.057443e+05
  -4.890682e+04  -1.568992e+05
  -8.193444e+04  -8.666589e+04
   4.893000e+04   2.958037e+05
   1.724614e+04   5.228857e+05
  -2.629275e+05   2.494850e+05
  -4.499776e+05  -3.027135e+05
  -1.946621e+05  -5.749169e+05
   3.524036e+05  -2.981906e+05
   6.197446e+05   2.297710e+05
   2.445716e+05   5.051170e+05
  -4.679615e+05   3.374975e+05
  -8.161217e+05  -5.120555e+04
  -4.436146e+05  -3.396240e+05
   2.625724e+05  -3.860433e+05
   5.832871e+05  -2.369163e+05
   2.503475e+05  -2.514860e+04
  -2.765237e+05   8.292086e+04
  -3.516158e+05  -2.419246e+04
   1.267118e+05  -2.399115e+05
   6.271357e+05  -2.427991e+05
