
 $NMID
 id='ANONYMOUS ', fmtdat='(2E16.6)'
 volume=1.0
 tramp=1.0
 $END
  -4.323927e+07   2.442191e+05
  -2.600056e+07  -2.702457e+07
   5.884217e+06  -2.942096e+07
   2.128302e+07  -1.095454e+07
   1.251616e+07   5.749247e+06
  -2.712742e+06   7.147867e+06
  -7.489506e+06  -1.190694e+06
  -1.905897e+06  -7.532901e+06
   4.895849e+06  -6.914994e+06
   7.365499e+06  -1.342903e+06
   5.291063e+06   4.681230e+06
   6.413129e+05   6.446728e+06
  -2.980803e+06   2.133491e+06
  -1.951980e+06  -3.962935e+06
   2.894656e+06  -4.808085e+06
   5.978345e+06   1.108659e+06
   3.330582e+06   7.776347e+06
  -2.912447e+06   8.966125e+06
  -7.696709e+06   4.540167e+06
  -8.293712e+06  -1.466200e+06
  -5.210426e+06  -5.688675e+06
  -6.522316e+05  -6.745636e+06
   2.323174e+06  -4.795406e+06
   1.695247e+06  -2.021101e+06
  -6.564615e+05  -1.382497e+06
  -2.853223e+05  -2.942957e+06
   3.843163e+06  -3.338454e+06
   7.143074e+06  -5.412354e+05
   5.358851e+06   2.991556e+06
   3.767611e+05   3.822784e+06
  -2.619806e+06   2.066210e+06
  -1.857359e+06   2.176378e+05
   2.348146e+05  -5.469874e+05
   1.448120e+06  -4.122172e+05
   1.592738e+06   8.570051e+05
   6.721960e+05   2.804011e+06
  -1.263387e+06   2.973888e+06
  -2.558199e+06   7.359099e+04
  -1.469875e+06  -2.754604e+06
   5.624370e+05  -1.641262e+06
   3.579292e+05   1.679115e+06
  -1.799716e+06   1.669278e+06
  -1.824557e+06  -2.457309e+06
   1.957079e+06  -4.694828e+06
   5.455009e+06  -7.637450e+05
   3.977413e+06   5.345350e+06
  -1.492325e+06   6.569736e+06
  -5.669112e+06   1.872064e+06
  -5.197277e+06  -3.361787e+06
  -1.302487e+06  -4.514324e+06
   2.620997e+06  -1.961935e+06
   3.867573e+06   1.217688e+06
   1.720602e+06   2.645820e+06
  -1.884693e+06   1.634021e+06
  -3.427835e+06  -7.398921e+05
  -1.446384e+06  -2.091932e+06
   1.315470e+06  -1.038506e+06
   1.266253e+06   7.841825e+05
  -1.088563e+06   6.349686e+05
  -1.878905e+06  -1.473178e+06
   6.007350e+05  -2.730467e+06
   3.661124e+06  -1.436608e+06
   4.061670e+06   1.123224e+06
   1.733556e+06   3.070865e+06
  -1.312479e+06   3.969295e+06
  -3.653038e+06   3.658009e+06
  -4.601361e+06   1.385856e+06
  -3.500775e+06  -2.295314e+06
  -7.677877e+05  -4.600163e+06
   1.432870e+06  -3.539926e+06
   1.377222e+06  -8.121626e+05
   6.674215e+04   3.181134e+05
  -1.897891e+05  -6.767043e+05
   1.034533e+06  -1.399406e+06
   2.027974e+06  -3.202086e+05
   1.537108e+06   1.292114e+06
   1.109033e+05   1.513953e+06
  -1.049795e+06   1.739030e+05
  -1.201077e+06  -1.453142e+06
  -4.126222e+04  -2.127011e+06
   2.006638e+06  -1.276072e+06
   3.353420e+06   8.016206e+05
   2.484918e+06   2.786971e+06
   2.107551e+04   3.225935e+06
  -1.730519e+06   2.103979e+06
  -1.727643e+06   8.604575e+05
  -1.393688e+06   4.713868e+05
  -2.174122e+06   3.180627e+05
  -3.197264e+06  -5.816938e+05
  -2.553625e+06  -2.039276e+06
  -9.178607e+04  -3.019311e+06
   2.326134e+06  -2.856476e+06
   3.019593e+06  -1.590799e+06
   1.951784e+06   2.486899e+05
   2.634699e+05   1.612627e+06
  -7.547894e+05   1.440025e+06
  -4.173189e+05  -4.985697e+03
   7.766871e+05  -9.688771e+05
   1.409292e+06  -3.026598e+05
   7.047572e+05   8.890378e+05
  -3.587796e+05   8.131378e+05
  -2.790881e+05  -2.940177e+05
   8.397455e+05  -4.591993e+05
   1.369566e+06   1.069377e+06
   3.678586e+05   2.646176e+06
  -1.319282e+06   2.449616e+06
  -2.361723e+06   6.716103e+05
  -2.354810e+06  -1.150425e+06
  -1.568674e+06  -2.006233e+06
  -3.000555e+05  -1.863496e+06
   8.891356e+05  -1.063422e+06
   1.140310e+06  -1.801998e+05
   3.603484e+05   3.328107e+04
  -2.607024e+05  -5.526619e+05
   3.175426e+05  -9.996622e+05
   1.428310e+06  -4.273014e+05
   1.506397e+06   6.789155e+05
   2.677638e+05   1.062055e+06
  -8.686940e+05   4.089715e+05
  -6.274906e+05  -3.403053e+05
   6.434335e+05  -3.414052e+05
   1.566391e+06   2.895630e+05
   1.213401e+06   1.001373e+06
  -2.195145e+05   1.403036e+06
  -1.688091e+06   1.174604e+06
  -2.025416e+06   1.864764e+05
  -8.948911e+05  -9.432711e+05
   6.846645e+05  -1.125278e+06
   1.172054e+06  -1.457892e+05
   1.630676e+05   8.072742e+05
  -1.118913e+06   5.453615e+05
  -1.257683e+06  -5.900818e+05
  -2.181920e+05  -1.217563e+06
   8.270572e+05  -6.883353e+05
   9.155305e+05   2.657028e+05
   1.540884e+05   5.869816e+05
  -6.018902e+05   3.476088e+04
  -5.476329e+05  -7.783873e+05
   4.157554e+05  -1.050155e+06
   1.470696e+06  -4.077143e+05
   1.498819e+06   7.661702e+05
   2.808375e+05   1.527864e+06
  -1.069488e+06   1.205346e+06
  -1.272432e+06   1.408159e+05
  -3.555401e+05  -6.454493e+05
   4.918175e+05  -5.811223e+05
   4.484485e+05  -5.564429e+04
  -1.032945e+05   2.360640e+05
  -3.391121e+05   1.204869e+05
  -4.170263e+04  -4.304908e+04
   3.554038e+05   9.683872e+04
   3.659497e+05   5.279483e+05
  -1.772373e+05   8.772785e+05
  -1.024425e+06   6.482978e+05
  -1.526629e+06  -3.109485e+05
  -1.074259e+06  -1.428500e+06
   1.607235e+05  -1.767365e+06
   1.181907e+06  -1.010264e+06
   1.215473e+06   1.131596e+05
   5.914478e+05   6.384488e+05
   2.178641e+05   4.269479e+05
   3.741381e+05   1.278555e+05
   4.917385e+05   2.401742e+05
   7.158830e+04   5.807507e+05
  -6.538311e+05   6.531484e+05
  -1.055340e+06   2.175478e+05
  -7.426360e+05  -5.255733e+05
   2.026930e+05  -1.041453e+06
   1.260055e+06  -7.626127e+05
   1.634070e+06   3.630601e+05
   8.112716e+05   1.545515e+06
  -7.677610e+05   1.734388e+06
  -1.883331e+06   7.345715e+05
  -1.708903e+06  -5.143919e+05
  -6.592911e+05  -9.847647e+05
   1.749094e+05  -6.600785e+05
   2.637551e+05  -3.412872e+05
   1.497939e+04  -5.529531e+05
   5.401285e+04  -9.821029e+05
   4.978653e+05  -9.633446e+05
   9.606136e+05  -2.400589e+05
   9.854592e+05   7.880597e+05
   4.108183e+05   1.385080e+06
  -4.514552e+05   1.051757e+06
  -9.385058e+05  -7.987399e+03
  -5.867741e+05  -9.533124e+05
   3.076824e+05  -1.024938e+06
   8.769991e+05  -2.722466e+05
   5.981575e+05   5.493380e+05
  -1.164437e+05   8.101475e+05
  -4.272349e+05   5.691764e+05
  -7.699622e+04   2.913649e+05
   3.233446e+05   2.377892e+05
   4.803722e+04   2.772019e+05
  -8.531198e+05   1.495458e+05
  -1.527470e+06  -2.500007e+05
  -1.184590e+06  -7.712211e+05
   4.857595e+04  -1.067775e+06
   1.188593e+06  -8.433434e+05
   1.350849e+06  -1.874996e+05
   6.035058e+05   3.912438e+05
  -2.020242e+05   4.306417e+05
  -3.829205e+05   1.309764e+04
  -3.251112e+04  -3.254354e+05
   3.140817e+05  -1.946233e+05
   3.565925e+05   2.489255e+05
   2.088610e+05   5.214526e+05
   9.219600e+04   3.482093e+05
   9.850680e+04  -5.366840e+04
   1.874595e+05  -1.939799e+05
   1.974581e+05   1.726267e+05
  -9.125113e+04   7.138061e+05
  -6.578489e+05   7.859905e+05
  -1.023538e+06   1.470546e+05
  -6.529630e+05  -6.659599e+05
   3.009169e+05  -8.570381e+05
   9.353308e+05  -2.732728e+05
   5.418060e+05   4.099464e+05
  -5.196561e+05   4.705938e+05
  -1.151814e+06  -8.327050e+04
  -7.035539e+05  -6.388026e+05
   3.788861e+05  -7.039220e+05
   1.090497e+06  -3.150604e+05
   8.795602e+05   1.586951e+05
   8.492251e+04   3.703473e+05
  -4.785122e+05   1.850420e+05
  -2.904081e+05  -2.226736e+05
   4.138694e+05  -3.966112e+05
   8.684269e+05   3.479606e+04
   5.207347e+05   8.507145e+05
  -3.942187e+05   1.258951e+06
  -1.067020e+06   6.739239e+05
  -9.235767e+05  -5.374648e+05
  -1.597799e+05  -1.302444e+06
   5.361111e+05  -9.334151e+05
   6.717162e+05   1.444384e+05
   2.994229e+05   8.725416e+05
  -1.829627e+05   6.947958e+05
  -4.182775e+05   5.244339e+04
  -3.228833e+05  -2.702012e+05
  -9.881423e+04  -9.345071e+04
  -4.342025e+04   6.336028e+04
  -2.362301e+05  -2.288573e+05
  -3.877147e+05  -7.102040e+05
  -1.174020e+05  -7.827047e+05
   5.505374e+05  -2.868149e+05
   1.074956e+06   3.328682e+05
   9.134911e+05   6.064004e+05
   1.350692e+05   5.150222e+05
  -5.989968e+05   3.129302e+05
  -7.098729e+05   1.290565e+05
  -2.832731e+05  -5.046859e+04
   9.609393e+04  -1.681166e+05
   5.243226e+04  -1.366763e+05
  -1.647132e+05  -5.165968e+04
  -4.961440e+04  -9.510764e+04
   4.500631e+05  -1.891234e+05
   7.699327e+05  -9.815857e+03
   3.674967e+05   5.076362e+05
  -5.761378e+05   8.881897e+05
  -1.257929e+06   5.926523e+05
  -1.075663e+06  -2.841772e+05
  -2.277300e+05  -1.021393e+06
   5.562874e+05  -1.025485e+06
   7.636924e+05  -4.263194e+05
   4.777868e+05   1.457183e+05
   1.154232e+05   2.615609e+05
  -2.338807e+04   6.794697e+04
   6.965389e+04   8.306978e+03
   2.090589e+05   2.760343e+05
   1.765697e+05   5.897646e+05
  -1.171890e+05   5.064349e+05
  -4.939772e+05  -5.874138e+04
  -5.721477e+05  -6.663006e+05
  -1.336031e+05  -7.575461e+05
   5.286610e+05  -2.224283e+05
   7.780007e+05   4.849439e+05
   2.909812e+05   7.952497e+05
  -5.080262e+05   5.298639e+05
  -8.365058e+05  -3.031860e+04
  -4.161751e+05  -4.636310e+05
   2.033351e+05  -5.301481e+05
   2.996295e+05  -2.817238e+05
  -1.519818e+05   7.818053e+03
  -4.675887e+05   4.225118e+04
  -1.218426e+05  -2.294039e+05
   5.960344e+05  -5.040522e+05
   9.412575e+05  -3.899693e+05
   5.907225e+05   1.431686e+05
  -5.614220e+04   6.501816e+05
  -4.191564e+05   6.472513e+05
  -3.394437e+05   1.464562e+05
  -6.204678e+04  -3.377917e+05
   1.631949e+05  -3.388730e+05
   2.582261e+05   7.566778e+04
   1.989914e+05   4.182795e+05
  -2.471935e+04   3.388327e+05
  -2.883078e+05  -1.479659e+04
  -3.624906e+05  -2.177236e+05
  -1.795654e+05  -8.429170e+04
   4.149984e+04   1.309783e+05
   6.212889e+04   7.526356e+04
  -5.242956e+04  -2.407124e+05
  -2.690167e+04  -4.339670e+05
   2.122975e+05  -2.158268e+05
   3.786694e+05   2.370732e+05
   1.749669e+05   4.673380e+05
  -2.796731e+05   2.510225e+05
  -5.103066e+05  -1.749529e+05
  -2.099794e+05  -4.046163e+05
   3.745240e+05  -2.805534e+05
   6.650780e+05   2.774383e+04
   3.659734e+05   2.681079e+05
  -2.084611e+05   3.198297e+05
  -4.721627e+05   2.044179e+05
  -2.058412e+05   2.250352e+04
   2.206942e+05  -7.898047e+04
   2.870898e+05   7.478658e+03
  -9.238117e+04   1.967406e+05
  -4.973520e+05   2.125888e+05
