
 $NMID
 id='ANONYMOUS ', fmtdat='(2E16.6)'
 volume=1.0
 tramp=1.0
 $END
  -5.260497e+07  -2.545910e+05
  -3.165295e+07  -3.204614e+07
   6.598891e+06  -3.528490e+07
   2.546432e+07  -1.420008e+07
   1.553653e+07   5.852793e+06
  -2.769794e+06   8.700394e+06
  -9.212103e+06  -6.768094e+05
  -2.993455e+06  -9.000434e+06
   5.471439e+06  -9.125205e+06
   9.024762e+06  -2.219185e+06
   6.690605e+06   5.877083e+06
   8.003099e+05   8.284992e+06
  -3.858900e+06   2.548208e+06
  -2.634664e+06  -5.406201e+06
   3.437807e+06  -6.482141e+06
   7.438954e+06   1.072150e+06
   4.322321e+06   9.584669e+06
  -3.453485e+06   1.116422e+07
  -9.505559e+06   5.548854e+06
  -1.012175e+07  -2.050300e+06
  -6.014637e+06  -7.082874e+06
  -4.634748e+05  -7.920049e+06
   2.580353e+06  -5.401718e+06
   1.263446e+06  -2.544181e+06
  -1.420306e+06  -2.416955e+06
  -1.679404e+05  -4.348373e+06
   5.515977e+06  -4.255448e+06
   9.503798e+06  -3.062784e+05
   6.717122e+06   4.103668e+06
  -2.955065e+04   4.871186e+06
  -3.870693e+06   2.321475e+06
  -2.429099e+06  -3.082712e+05
   9.076277e+05  -1.226108e+06
   2.642592e+06  -4.818455e+05
   2.270879e+06   1.711340e+06
   4.842553e+05   4.058049e+06
  -1.866490e+06   3.608065e+06
  -2.922456e+06  -3.552140e+05
  -1.360132e+06  -3.480171e+06
   8.069044e+05  -1.530001e+06
   2.200629e+05   2.666645e+06
  -2.413766e+06   2.353435e+06
  -2.390934e+06  -2.948942e+06
   2.074184e+06  -5.736498e+06
   6.267087e+06  -9.776649e+05
   4.716322e+06   6.400938e+06
  -1.709503e+06   7.917245e+06
  -6.976919e+06   2.266336e+06
  -6.757669e+06  -4.189429e+06
  -1.970211e+06  -5.803803e+06
   3.295829e+06  -2.765210e+06
   5.207856e+06   1.292940e+06
   2.531636e+06   3.278434e+06
  -2.186980e+06   2.148309e+06
  -4.309110e+06  -7.810880e+05
  -1.919621e+06  -2.517865e+06
   1.601918e+06  -1.310997e+06
   1.753706e+06   9.476044e+05
  -1.087032e+06   9.761145e+05
  -2.338819e+06  -1.394490e+06
   3.448092e+05  -3.031091e+06
   4.108222e+06  -1.820382e+06
   4.951999e+06   1.089842e+06
   2.259343e+06   3.658092e+06
  -1.772035e+06   5.066448e+06
  -4.983354e+06   4.691768e+06
  -6.058887e+06   1.612744e+06
  -4.352209e+06  -3.152657e+06
  -8.639809e+05  -6.018413e+06
   1.688178e+06  -4.687029e+06
   1.579423e+06  -1.371742e+06
   2.393029e+05   6.203068e+02
   2.537507e+05  -1.085817e+06
   1.850908e+06  -1.682618e+06
   2.905769e+06  -2.661859e+04
   1.995609e+06   2.140563e+06
  -9.772706e+04   2.279740e+06
  -1.724335e+06   2.052405e+05
  -1.781822e+06  -2.182770e+06
   2.263938e+04  -3.000856e+06
   2.804656e+06  -1.588157e+06
   4.375139e+06   1.276501e+06
   3.048775e+06   3.691253e+06
  -9.234984e+04   4.017199e+06
  -2.156344e+06   2.540960e+06
  -2.067647e+06   1.104700e+06
  -1.740999e+06   7.506945e+05
  -2.921303e+06   5.709187e+05
  -4.370475e+06  -6.811481e+05
  -3.545957e+06  -2.734676e+06
  -1.804191e+05  -4.178111e+06
   3.242419e+06  -3.984353e+06
   4.272326e+06  -2.134630e+06
   2.695590e+06   4.987233e+05
   2.055631e+05   2.313773e+06
  -1.183967e+06   1.943114e+06
  -5.688505e+05  -6.637505e+04
   1.126456e+06  -1.328917e+06
   1.914768e+06  -4.048788e+05
   8.995537e+05   1.209829e+06
  -5.477221e+05   1.145973e+06
  -4.936209e+05  -3.733681e+05
   9.757516e+05  -7.914602e+05
   1.861922e+06   1.090756e+06
   8.374764e+05   3.368265e+06
  -1.336355e+06   3.526083e+06
  -3.057521e+06   1.368724e+06
  -3.459401e+06  -1.285408e+06
  -2.482142e+06  -2.792858e+06
  -5.372402e+05  -2.716245e+06
   1.277812e+06  -1.516338e+06
   1.629454e+06  -2.286644e+05
   5.038006e+05   4.321020e+04
  -3.735950e+05  -7.626198e+05
   3.948445e+05  -1.346775e+06
   1.902114e+06  -5.958886e+05
   2.057271e+06   8.564104e+05
   4.185980e+05   1.411184e+06
  -1.180209e+06   6.027053e+05
  -9.415840e+05  -4.485217e+05
   8.318158e+05  -5.845648e+05
   2.261288e+06   2.396719e+05
   1.869739e+06   1.356402e+06
  -1.895546e+05   2.060260e+06
  -2.346171e+06   1.751290e+06
  -2.839002e+06   3.157607e+05
  -1.246695e+06  -1.266565e+06
   9.194793e+05  -1.510663e+06
   1.560062e+06  -1.924646e+05
   1.922115e+05   1.087985e+06
  -1.539066e+06   7.571559e+05
  -1.762975e+06  -7.692899e+05
  -3.870116e+05  -1.677721e+06
   1.078365e+06  -1.032810e+06
   1.290170e+06   2.709652e+05
   2.820547e+05   7.801438e+05
  -7.955692e+05   6.460513e+04
  -7.532028e+05  -1.068405e+06
   5.868991e+05  -1.457820e+06
   2.055016e+06  -5.609193e+05
   2.086498e+06   1.065134e+06
   4.074034e+05   2.115103e+06
  -1.449756e+06   1.689304e+06
  -1.757804e+06   2.386892e+05
  -5.311888e+05  -8.765215e+05
   6.598994e+05  -8.337469e+05
   6.649574e+05  -8.501253e+04
  -9.816564e+04   3.970947e+05
  -5.190210e+05   2.534925e+05
  -1.765689e+05  -6.410092e+04
   4.251922e+05   3.808316e+04
   5.424764e+05   6.462355e+05
  -1.790152e+05   1.205157e+06
  -1.397067e+06   9.320193e+05
  -2.132648e+06  -4.025937e+05
  -1.513109e+06  -1.976129e+06
   2.015087e+05  -2.487266e+06
   1.641743e+06  -1.482280e+06
   1.749875e+06   9.368971e+04
   9.234440e+05   9.245991e+05
   3.516108e+05   7.137318e+05
   4.703601e+05   2.579991e+05
   6.099077e+05   3.105663e+05
   9.021390e+04   7.616144e+05
  -8.782399e+05   9.329815e+05
  -1.482665e+06   3.627231e+05
  -1.105251e+06  -7.317019e+05
   2.231685e+05  -1.519868e+06
   1.753356e+06  -1.132196e+06
   2.315941e+06   4.689355e+05
   1.192691e+06   2.133060e+06
  -9.912090e+05   2.424102e+06
  -2.573616e+06   1.090357e+06
  -2.419602e+06  -6.273990e+05
  -1.026133e+06  -1.354200e+06
   1.767622e+05  -9.970584e+05
   4.101720e+05  -5.594025e+05
   1.149304e+05  -7.774666e+05
   1.203500e+05  -1.319122e+06
   6.733373e+05  -1.305181e+06
   1.311204e+06  -3.282631e+05
   1.374104e+06   1.099416e+06
   5.834704e+05   1.938718e+06
  -6.286793e+05   1.478638e+06
  -1.318628e+06   1.399917e+04
  -8.470352e+05  -1.294943e+06
   3.701265e+05  -1.427140e+06
   1.160668e+06  -4.424182e+05
   8.260520e+05   6.737789e+05
  -9.790712e+04   1.078071e+06
  -5.121922e+05   8.028821e+05
  -6.878809e+04   4.361720e+05
   4.428813e+05   3.480385e+05
   6.176867e+04   3.957190e+05
  -1.163798e+06   2.263450e+05
  -2.100649e+06  -3.201462e+05
  -1.663037e+06  -1.038363e+06
   1.200580e+04  -1.452613e+06
   1.598958e+06  -1.171144e+06
   1.863545e+06  -3.111509e+05
   8.592376e+05   4.740879e+05
  -2.558515e+05   5.719681e+05
  -5.153250e+05   4.697816e+04
  -2.472085e+04  -4.191119e+05
   4.598614e+05  -2.666595e+05
   4.941763e+05   3.471962e+05
   2.515466e+05   7.475007e+05
   8.814349e+04   4.953028e+05
   1.388264e+05  -1.098051e+05
   2.922575e+05  -3.190116e+05
   2.869131e+05   2.330572e+05
  -1.420002e+05   1.019794e+06
  -9.118444e+05   1.098097e+06
  -1.379534e+06   1.776652e+05
  -8.650226e+05  -9.348299e+05
   4.185665e+05  -1.158348e+06
   1.280509e+06  -3.414495e+05
   7.571651e+05   5.856343e+05
  -7.095439e+05   6.730979e+05
  -1.633421e+06  -7.450403e+04
  -1.056191e+06  -8.671762e+05
   4.710694e+05  -1.025743e+06
   1.530666e+06  -5.240305e+05
   1.275206e+06   1.715096e+05
   1.498609e+05   5.271517e+05
  -6.605980e+05   2.875460e+05
  -3.921253e+05  -2.958238e+05
   6.024333e+05  -5.390342e+05
   1.217977e+06   7.842566e+04
   6.951994e+05   1.213363e+06
  -5.983089e+05   1.756950e+06
  -1.522187e+06   9.232460e+05
  -1.300872e+06  -7.677217e+05
  -2.283686e+05  -1.842281e+06
   7.449546e+05  -1.343397e+06
   9.521167e+05   1.659341e+05
   4.606634e+05   1.217548e+06
  -2.077958e+05   9.984806e+05
  -5.739599e+05   9.371923e+04
  -4.877704e+05  -3.814222e+05
  -1.745348e+05  -1.379136e+05
  -4.660179e+04   9.862873e+04
  -2.837681e+05  -3.022817e+05
  -5.322717e+05  -9.886250e+05
  -2.130933e+05  -1.104271e+06
   7.253874e+05  -4.107962e+05
   1.523127e+06   4.608806e+05
   1.329468e+06   8.426059e+05
   1.979842e+05   7.153724e+05
  -8.751701e+05   4.443885e+05
  -1.009839e+06   2.010118e+05
  -3.685994e+05  -5.187479e+04
   1.478130e+05  -2.350280e+05
   3.112890e+04  -2.085080e+05
  -2.768494e+05  -9.044064e+04
  -5.389427e+04  -1.379409e+05
   6.797587e+05  -2.559380e+05
   1.078894e+06  -2.129343e+03
   4.548690e+05   7.124622e+05
  -8.517970e+05   1.228508e+06
  -1.742728e+06   8.008741e+05
  -1.462857e+06  -4.279985e+05
  -3.049542e+05  -1.445224e+06
   7.716463e+05  -1.427117e+06
   1.075636e+06  -5.709390e+05
   6.803303e+05   2.277117e+05
   1.440751e+05   3.688451e+05
  -7.173609e+04   7.433549e+04
   8.150554e+04  -1.546668e+04
   3.123843e+05   3.733343e+05
   2.653106e+05   8.272286e+05
  -1.743504e+05   7.038611e+05
  -7.054672e+05  -1.103244e+05
  -7.816660e+05  -9.674967e+05
  -1.407869e+05  -1.065247e+06
   7.722114e+05  -2.749396e+05
   1.083255e+06   7.212650e+05
   3.806514e+05   1.119072e+06
  -7.248793e+05   7.146031e+05
  -1.157150e+06  -5.810244e+04
  -5.584101e+05  -6.275376e+05
   2.878515e+05  -7.080530e+05
   3.897765e+05  -3.834983e+05
  -2.511927e+05   1.940592e+02
  -6.675798e+05   5.336674e+04
  -1.574871e+05  -3.169795e+05
   8.384371e+05  -7.124233e+05
   1.290221e+06  -5.705853e+05
   7.910600e+05   1.775582e+05
  -8.516722e+04   8.997023e+05
  -5.604908e+05   8.908104e+05
  -4.439406e+05   1.750934e+05
  -6.844751e+04  -4.919392e+05
   2.392954e+05  -4.568110e+05
   3.680236e+05   1.393909e+05
   2.732772e+05   5.904384e+05
  -4.768595e+04   4.472988e+05
  -4.052254e+05  -3.632829e+04
  -4.950925e+05  -2.856792e+05
  -2.497560e+05  -9.872322e+04
   3.881954e+04   1.602753e+05
   8.126817e+04   5.300863e+04
  -2.938969e+04  -3.641496e+05
   3.205737e+04  -5.805303e+05
   3.259562e+05  -2.446924e+05
   4.915118e+05   3.783105e+05
   1.860555e+05   6.686800e+05
  -4.126692e+05   3.368784e+05
  -6.966252e+05  -2.725018e+05
  -2.775441e+05  -5.847726e+05
   5.184062e+05  -3.866651e+05
   9.165932e+05   5.914568e+04
   5.033023e+05   3.805277e+05
  -2.971272e+05   4.236965e+05
  -6.588396e+05   2.535543e+05
  -2.640385e+05   2.268617e+04
   3.496095e+05  -8.671033e+04
   4.214379e+05   4.772046e+04
  -1.585374e+05   3.011007e+05
  -7.493375e+05   2.994995e+05
