
 $NMID
 id='ANONYMOUS ', fmtdat='(2E16.6)'
 volume=1.0
 tramp=1.0
 $END
   2.274573e+07  -8.989545e+05
   1.460964e+07   1.248568e+07
  -1.527713e+06   1.514180e+07
  -1.042443e+07   7.425560e+06
  -7.158665e+06  -1.386417e+06
   6.246586e+05  -3.883711e+06
   4.133675e+06  -4.616471e+05
   1.999305e+06   3.758682e+06
  -1.854349e+06   4.612246e+06
  -3.935428e+06   1.586173e+06
  -3.208441e+06  -2.516117e+06
  -5.405071e+05  -3.870206e+06
   1.766070e+06  -1.153846e+06
   1.423297e+06   2.690117e+06
  -1.303211e+06   3.332059e+06
  -3.377705e+06  -9.376385e+04
  -2.293818e+06  -4.135144e+06
   1.159774e+06  -5.094621e+06
   4.063246e+06  -2.650830e+06
   4.433108e+06   8.079756e+05
   2.554784e+06   2.996682e+06
   2.004457e+05   3.200269e+06
  -7.852868e+05   2.127232e+06
   5.046693e+04   1.237887e+06
   1.051051e+06   1.539641e+06
   1.953376e+04   2.384187e+06
  -2.855353e+06   2.067019e+06
  -4.636339e+06   9.250891e+04
  -3.121813e+06  -1.932024e+06
   2.318432e+05  -2.234893e+06
   2.071012e+06  -9.365729e+05
   1.142107e+06   4.687275e+05
  -8.158160e+05   8.952961e+05
  -1.723563e+06   2.084400e+05
  -1.205233e+06  -1.154042e+06
  -4.368138e+04  -2.156861e+06
   9.376802e+05  -1.578281e+06
   1.116858e+06   3.701406e+05
   3.812719e+05   1.533532e+06
  -3.628260e+05   3.614426e+05
   1.921751e+04  -1.555658e+06
   1.153685e+06  -1.284128e+06
   1.229524e+06   1.200017e+06
  -5.421437e+05   2.576471e+06
  -2.442160e+06   6.450295e+05
  -2.136451e+06  -2.570647e+06
   4.526252e+05  -3.429235e+06
   3.013080e+06  -1.153552e+06
   3.323391e+06   1.729037e+06
   1.245671e+06   2.694922e+06
  -1.452606e+06   1.532245e+06
  -2.640644e+06  -3.291677e+05
  -1.470718e+06  -1.424548e+06
   8.353174e+05  -1.104836e+06
   1.990978e+06   1.560277e+05
   1.005298e+06   1.036933e+06
  -6.666758e+05   6.439799e+05
  -9.290341e+05  -3.760464e+05
   3.005163e+05  -6.063412e+05
   1.112741e+06   2.790323e+05
   2.095217e+05   1.153802e+06
  -1.502412e+06   9.685193e+05
  -2.196216e+06  -1.570204e+05
  -1.179179e+06  -1.480955e+06
   7.668043e+05  -2.384987e+06
   2.410405e+06  -2.286253e+06
   2.883897e+06  -7.769632e+05
   2.004576e+06   1.498872e+06
   4.553683e+05   2.861879e+06
  -5.978472e+05   2.331358e+06
  -6.087095e+05   8.959382e+05
  -2.328688e+05   2.522780e+05
  -4.211472e+05   6.221716e+05
  -1.153182e+06   7.285958e+05
  -1.530695e+06  -1.825963e+05
  -9.700177e+05  -1.266522e+06
   1.678923e+05  -1.272202e+06
   1.044623e+06  -1.019347e+05
   1.019902e+06   1.199909e+06
  -7.195815e+03   1.575156e+06
  -1.421014e+06   7.620465e+05
  -2.106991e+06  -6.604876e+05
  -1.412772e+06  -1.722171e+06
   2.138695e+04  -1.794752e+06
   8.994143e+05  -1.138320e+06
   8.450644e+05  -5.717666e+05
   7.743616e+05  -4.866758e+05
   1.446076e+06  -4.311116e+05
   2.233738e+06   1.912816e+05
   1.885623e+06   1.288360e+06
   2.027880e+05   2.147954e+06
  -1.607652e+06   2.126712e+06
  -2.209085e+06   1.132128e+06
  -1.384849e+06  -2.986378e+05
  -4.998947e+04  -1.227057e+06
   6.547343e+05  -9.842886e+05
   2.873753e+05   5.966187e+04
  -5.852767e+05   6.962087e+05
  -9.579288e+05   2.376868e+05
  -4.420896e+05  -5.910232e+05
   2.943281e+05  -6.109374e+05
   3.292156e+05   1.692639e+05
  -3.848802e+05   5.305450e+05
  -9.811666e+05  -2.914057e+05
  -7.053105e+05  -1.560281e+06
   3.393014e+05  -1.946860e+06
   1.446252e+06  -1.033253e+06
   1.937865e+06   4.265838e+05
   1.511042e+06   1.417732e+06
   3.913342e+05   1.474957e+06
  -6.593809e+05   8.265915e+05
  -8.631923e+05   1.317204e+05
  -2.629125e+05  -1.208561e+04
   2.149294e+05   3.850322e+05
  -1.489822e+05   6.820868e+05
  -9.243155e+05   3.498517e+05
  -1.064510e+06  -3.519348e+05
  -2.744033e+05  -6.884094e+05
   5.860347e+05  -3.575787e+05
   5.399938e+05   2.032200e+05
  -3.861922e+05   3.874196e+05
  -1.231405e+06   1.135332e+04
  -1.102319e+06  -6.548508e+05
  -2.942860e+03  -1.140098e+06
   1.186837e+06  -1.018919e+06
   1.479260e+06  -2.470966e+05
   6.719122e+05   6.067929e+05
  -4.264071e+05   7.688289e+05
  -7.627703e+05   1.255901e+05
  -1.014020e+05  -5.381197e+05
   7.727198e+05  -4.210764e+05
   9.381168e+05   3.362448e+05
   2.814035e+05   8.574695e+05
  -5.017402e+05   6.038632e+05
  -6.897018e+05  -5.928949e+04
  -2.036668e+05  -3.825261e+05
   3.868665e+05  -6.247330e+04
   4.067708e+05   5.283112e+05
  -2.796260e+05   7.628537e+05
  -1.056793e+06   3.249349e+05
  -1.099988e+06  -5.115893e+05
  -2.602855e+05  -1.081727e+06
   6.977735e+05  -9.102851e+05
   9.011289e+05  -1.808533e+05
   3.141160e+05   4.349689e+05
  -3.140157e+05   4.613415e+05
  -3.689754e+05   5.856454e+04
   1.870990e+04  -2.516185e+05
   2.960664e+05  -1.905222e+05
   1.633731e+05   3.796757e+04
  -1.834726e+05   4.938440e+04
  -3.163287e+05  -2.727050e+05
   2.906099e+04  -6.201717e+05
   6.894367e+05  -5.269252e+05
   1.116807e+06   1.511495e+05
   8.305017e+05   9.881412e+05
  -4.744973e+04   1.308213e+06
  -8.255216e+05   8.423352e+05
  -9.455121e+05   1.737241e+04
  -5.513189e+05  -4.896308e+05
  -2.155762e+05  -4.371332e+05
  -2.125957e+05  -1.692665e+05
  -2.777183e+05  -1.301870e+05
  -5.747321e+04  -3.627089e+05
   4.190541e+05  -5.135677e+05
   7.703963e+05  -2.493868e+05
   6.264058e+05   3.615982e+05
  -5.644986e+04   8.344324e+05
  -8.890185e+05   6.596763e+05
  -1.233052e+06  -1.804624e+05
  -6.955645e+05  -1.074477e+06
   4.223028e+05  -1.283393e+06
   1.287347e+06  -6.550591e+05
   1.293651e+06   2.301665e+05
   6.215858e+05   6.791348e+05
  -3.825179e+04   5.701106e+05
  -2.328601e+05   3.445421e+05
  -1.019393e+05   4.031370e+05
  -6.238829e+04   6.533567e+05
  -3.107989e+05   6.675376e+05
  -6.566762e+05   1.919379e+05
  -7.324670e+05  -5.453628e+05
  -3.437920e+05  -9.997448e+05
   2.993631e+05  -7.856005e+05
   6.912632e+05  -4.589382e+04
   4.823962e+05   6.371806e+05
  -1.305394e+05   7.492409e+05
  -5.604936e+05   2.921649e+05
  -4.415702e+05  -2.783984e+05
  -1.084409e+04  -5.338326e+05
   2.012980e+05  -4.365897e+05
   6.698442e+03  -2.479724e+05
  -2.295051e+05  -1.815799e+05
  -3.522768e+04  -2.086978e+05
   5.843467e+05  -1.505609e+05
   1.078327e+06   1.085985e+05
   8.900509e+05   4.862702e+05
   5.647193e+04   7.351514e+05
  -7.720001e+05   6.373011e+05
  -9.518669e+05   2.262994e+05
  -4.696148e+05  -1.884729e+05
   1.048081e+05  -2.855573e+05
   2.567876e+05  -5.209321e+04
   9.868830e+03   1.941630e+05
  -2.465444e+05   1.415573e+05
  -2.601772e+05  -1.711505e+05
  -1.181918e+05  -3.923417e+05
  -2.950275e+04  -2.583130e+05
  -7.296731e+04   8.005879e+04
  -1.669440e+05   1.978820e+05
  -1.599500e+05  -1.108784e+05
   6.533557e+04  -5.439248e+05
   4.486669e+05  -5.871454e+05
   6.805462e+05  -1.042841e+05
   4.373781e+05   4.690771e+05
  -1.926261e+05   5.857031e+05
  -6.402467e+05   1.777422e+05
  -4.028192e+05  -2.984198e+05
   3.477337e+05  -3.726198e+05
   8.669524e+05  -1.379722e+04
   6.095621e+05   4.211744e+05
  -1.942176e+05   5.702373e+05
  -7.954415e+05   3.493822e+05
  -6.965894e+05  -3.907451e+04
  -1.054305e+05  -2.790875e+05
   3.352557e+05  -1.794184e+05
   2.021427e+05   1.364096e+05
  -3.165729e+05   2.802948e+05
  -6.349122e+05  -3.689746e+04
  -3.618210e+05  -6.304789e+05
   3.078560e+05  -9.188906e+05
   7.918858e+05  -4.934557e+05
   6.944872e+05   3.865158e+05
   1.529169e+05   9.667419e+05
  -3.631606e+05   7.349326e+05
  -5.080957e+05  -4.841047e+04
  -2.867910e+05  -6.260042e+05
   6.282886e+04  -5.424170e+05
   2.913924e+05  -7.226574e+04
   2.821313e+05   1.940666e+05
   1.148163e+05   7.540502e+04
   1.477556e+04  -5.918013e+04
   1.261939e+05   1.381361e+05
   2.888532e+05   5.012174e+05
   1.593490e+05   5.798169e+05
  -3.437635e+05   2.355459e+05
  -8.125285e+05  -2.111536e+05
  -7.379668e+05  -4.147760e+05
  -1.214661e+05  -3.659923e+05
   4.701834e+05  -2.480175e+05
   5.331730e+05  -1.337092e+05
   1.771911e+05   7.210104e+03
  -8.091453e+04   1.239100e+05
   1.159559e+04   1.223098e+05
   1.723418e+05   5.604851e+04
   2.100036e+04   7.248138e+04
  -3.784903e+05   1.366241e+05
  -5.614664e+05   1.337891e+04
  -2.134950e+05  -3.597438e+05
   4.478706e+05  -6.426402e+05
   8.800422e+05  -4.318082e+05
   7.410766e+05   2.120444e+05
   1.749742e+05   7.551528e+05
  -3.713143e+05   7.519310e+05
  -5.517241e+05   3.003884e+05
  -3.634732e+05  -1.212995e+05
  -7.100964e+04  -1.897356e+05
   5.797828e+04  -2.479552e+04
  -3.435030e+04   2.692829e+04
  -1.821000e+05  -1.821801e+05
  -1.638453e+05  -4.281581e+05
   8.398561e+04  -3.659361e+05
   3.758086e+05   6.260821e+04
   4.102768e+05   5.094110e+05
   6.403221e+04   5.518380e+05
  -4.140484e+05   1.326652e+05
  -5.702634e+05  -3.814436e+05
  -2.015023e+05  -5.774293e+05
   3.709839e+05  -3.675109e+05
   5.938859e+05   1.808844e+04
   2.888220e+05   3.019614e+05
  -1.366283e+05   3.529201e+05
  -1.773324e+05   2.022493e+05
   1.531181e+05   4.757206e+03
   3.538967e+05  -3.524379e+04
   7.996623e+04   1.587416e+05
  -4.267519e+05   3.895892e+05
  -6.467309e+05   3.367558e+05
  -3.949187e+05  -6.213341e+04
   3.163300e+04  -4.631382e+05
   2.590561e+05  -4.662893e+05
   2.070082e+05  -8.313058e+04
   3.188569e+04   2.650557e+05
  -1.217399e+05   2.306321e+05
  -1.956056e+05  -8.668280e+04
  -1.491988e+05  -3.050678e+05
   2.288113e+04  -2.164669e+05
   2.115146e+05   2.125225e+04
   2.567169e+05   1.275641e+05
   1.321174e+05   3.525083e+04
  -1.308521e+04  -6.747625e+04
  -4.347126e+04   5.816462e+03
  -6.666953e+03   2.023804e+05
  -4.656821e+04   2.816485e+05
  -1.787032e+05   9.648385e+04
  -2.360543e+05  -2.135517e+05
  -7.218108e+04  -3.493788e+05
   2.205595e+05  -1.724276e+05
   3.547981e+05   1.448530e+05
   1.436968e+05   3.093441e+05
  -2.589698e+05   2.072246e+05
  -4.680526e+05  -2.571320e+04
  -2.629779e+05  -1.916608e+05
   1.486967e+05  -2.110170e+05
   3.349769e+05  -1.241634e+05
   1.218994e+05  -1.277567e+04
  -2.034057e+05   3.418213e+04
  -2.295072e+05  -4.123395e+04
   9.661187e+04  -1.730909e+05
   4.169857e+05  -1.666748e+05
