
 $NMID
 id='ANONYMOUS ', fmtdat='(2E16.6)'
 volume=1.0
 tramp=1.0
 $END
  -3.321450e+07  -1.418001e+06
  -2.042813e+07  -1.814197e+07
   2.543819e+06  -2.125598e+07
   1.525915e+07  -1.139109e+07
   1.095203e+07   8.679984e+05
  -3.937718e+05   5.678126e+06
  -6.302106e+06   1.521173e+06
  -3.672346e+06  -5.463392e+06
   2.407451e+06  -7.731562e+06
   6.034018e+06  -2.894705e+06
   4.852376e+06   4.237278e+06
   4.634465e+05   6.376255e+06
  -3.017243e+06   1.446062e+06
  -2.189510e+06  -4.968753e+06
   2.117310e+06  -5.741454e+06
   5.211989e+06   4.917748e+03
   3.416062e+06   6.451662e+06
  -2.002782e+06   7.758997e+06
  -6.379426e+06   3.568553e+06
  -6.433629e+06  -1.957427e+06
  -2.969316e+06  -4.800915e+06
   4.448499e+05  -4.210043e+06
   8.873644e+05  -2.404332e+06
  -1.201375e+06  -2.042627e+06
  -2.283984e+06  -3.549971e+06
   5.370757e+05  -4.650578e+06
   5.661589e+06  -2.982083e+06
   7.990072e+06   8.847302e+05
   4.648844e+06   3.810268e+06
  -1.296436e+06   3.519289e+06
  -4.125742e+06   8.179894e+05
  -1.819435e+06  -1.681650e+06
   2.291741e+06  -2.033488e+06
   3.895730e+06  -3.067358e+04
   2.110035e+06   2.858268e+06
  -6.968553e+05   4.119770e+06
  -2.005532e+06   2.180827e+06
  -1.257924e+06  -1.292651e+06
   2.442044e+05  -2.417172e+06
   6.947453e+05   2.396058e+05
  -5.621632e+05   3.210504e+06
  -2.176343e+06   2.254707e+06
  -1.967650e+06  -1.806685e+06
   5.309102e+05  -3.786911e+06
   3.050404e+06  -8.565627e+05
   2.724983e+06   3.755585e+06
  -7.747562e+05   4.861772e+06
  -4.616895e+06   1.406127e+06
  -5.368570e+06  -3.004472e+06
  -2.157112e+06  -4.564543e+06
   2.453393e+06  -2.690637e+06
   4.626269e+06   4.620946e+05
   2.706617e+06   2.339296e+06
  -1.155994e+06   1.802708e+06
  -3.117751e+06  -2.192517e+05
  -1.636165e+06  -1.565997e+06
   1.028772e+06  -9.562741e+05
   1.655697e+06   6.363936e+05
  -1.403653e+05   1.199831e+06
  -1.725996e+06   1.136119e+05
  -8.424578e+05  -1.290111e+06
   1.744958e+06  -1.440035e+06
   3.242795e+06  -1.812470e+04
   1.842538e+06   2.156621e+06
  -1.616604e+06   3.770822e+06
  -4.574460e+06   3.455595e+06
  -4.983514e+06   7.312470e+05
  -2.908436e+06  -2.923115e+06
  -2.748557e+05  -4.862445e+06
   1.020012e+06  -3.952859e+06
   8.570220e+05  -1.868844e+06
   6.536805e+05  -9.344181e+05
   1.451940e+06  -1.224436e+06
   2.660497e+06  -8.655214e+05
   2.855185e+06   1.008012e+06
   1.439052e+06   2.822303e+06
  -7.590901e+05   2.491837e+06
  -2.221734e+06   1.382286e+03
  -1.837182e+06  -2.512579e+06
   2.992540e+05  -2.928436e+06
   2.702459e+06  -1.009168e+06
   3.445118e+06   1.637482e+06
   1.928324e+06   3.099779e+06
  -3.711176e+05   2.750557e+06
  -1.485084e+06   1.555771e+06
  -1.237208e+06   8.606983e+05
  -1.263519e+06   9.162107e+05
  -2.597456e+06   7.617471e+05
  -3.994771e+06  -4.801790e+05
  -3.298769e+06  -2.481873e+06
  -1.661192e+05  -3.942930e+06
   3.222178e+06  -3.713115e+06
   4.269422e+06  -1.710642e+06
   2.470772e+06   8.895677e+05
  -2.467062e+05   2.325879e+06
  -1.467879e+06   1.648899e+06
  -5.000376e+05  -2.089575e+05
   1.209060e+06  -1.177760e+06
   1.729184e+06  -3.021261e+05
   6.467586e+05   1.100162e+06
  -6.667192e+05   1.095597e+06
  -6.997345e+05  -3.151857e+05
   5.615272e+05  -1.105165e+06
   1.733326e+06   2.063996e+05
   1.486231e+06   2.612618e+06
  -3.027865e+05   3.690096e+06
  -2.546205e+06   2.221710e+06
  -3.729819e+06  -6.743128e+05
  -2.938558e+06  -2.805823e+06
  -6.646337e+05  -2.901594e+06
   1.360752e+06  -1.475687e+06
   1.647442e+06  -1.091955e+05
   4.842670e+05   5.030337e+04
  -3.579121e+05  -7.254944e+05
   3.025072e+05  -1.182944e+06
   1.640202e+06  -5.320207e+05
   1.866814e+06   6.735051e+05
   4.729822e+05   1.219343e+06
  -1.086006e+06   6.190987e+05
  -1.039740e+06  -4.155402e+05
   6.938548e+05  -7.874457e+05
   2.362622e+06  -4.507624e+04
   2.147367e+06   1.307751e+06
  -1.181376e+04   2.220309e+06
  -2.307140e+06   1.854230e+06
  -2.770544e+06   3.336135e+05
  -1.162024e+06  -1.142384e+06
   8.350748e+05  -1.295840e+06
   1.332024e+06  -1.291105e+05
   8.151931e+04   9.554232e+05
  -1.447959e+06   6.743218e+05
  -1.695214e+06  -6.743059e+05
  -5.055831e+05  -1.591517e+06
   9.148946e+05  -1.132948e+06
   1.278560e+06   8.238886e+04
   4.030912e+05   6.857179e+05
  -6.697819e+05   8.311003e+04
  -6.681300e+05  -1.004823e+06
   6.205113e+05  -1.359721e+06
   1.990160e+06  -4.550172e+05
   1.955532e+06   1.075354e+06
   3.625469e+05   2.005282e+06
  -1.349287e+06   1.599312e+06
  -1.662242e+06   2.710495e+05
  -5.647782e+05  -8.112471e+05
   6.050707e+05  -8.349253e+05
   7.279317e+05  -6.831420e+04
  -2.019082e+04   5.369425e+05
  -6.253238e+05   4.044276e+05
  -4.270698e+05  -1.026403e+05
   2.722426e+05  -1.801307e+05
   5.901175e+05   4.438847e+05
  -5.429721e+04   1.122472e+06
  -1.302137e+06   9.168724e+05
  -2.042731e+06  -3.837190e+05
  -1.422799e+06  -1.905499e+06
   2.252934e+05  -2.428203e+06
   1.619192e+06  -1.530577e+06
   1.806890e+06   1.514457e+04
   1.064503e+06   1.011615e+06
   3.924323e+05   9.659815e+05
   3.101355e+05   4.255913e+05
   4.118239e+05   2.448870e+05
   5.221238e+04   6.225522e+05
  -8.002853e+05   9.214687e+05
  -1.467183e+06   4.290123e+05
  -1.188086e+06  -7.476367e+05
   1.450918e+05  -1.609390e+06
   1.719599e+06  -1.180806e+06
   2.291268e+06   4.466264e+05
   1.215146e+06   2.042425e+06
  -8.492169e+05   2.318254e+06
  -2.394412e+06   1.120856e+06
  -2.396305e+06  -4.851264e+05
  -1.179571e+06  -1.309654e+06
   6.935618e+04  -1.132682e+06
   5.223762e+05  -6.968824e+05
   3.431322e+05  -7.326249e+05
   2.439433e+05  -1.136495e+06
   6.296625e+05  -1.148072e+06
   1.200312e+06  -2.654560e+05
   1.279896e+06   1.095297e+06
   5.196653e+05   1.890951e+06
  -6.480377e+05   1.421512e+06
  -1.289327e+06   2.576409e+04
  -8.414624e+05  -1.195446e+06
   2.677292e+05  -1.362411e+06
   1.000750e+06  -5.400302e+05
   7.724847e+05   4.645485e+05
   2.705478e+04   9.288042e+05
  -3.323510e+05   7.914434e+05
  -9.697412e+02   4.899091e+05
   3.912463e+05   3.812200e+05
   3.304869e+04   3.994603e+05
  -1.067163e+06   2.254621e+05
  -1.940849e+06  -3.019736e+05
  -1.591499e+06  -9.654800e+05
  -7.487073e+04  -1.321400e+06
   1.435390e+06  -1.073134e+06
   1.758983e+06  -3.541293e+05
   8.625516e+05   3.262674e+05
  -1.988517e+05   4.819759e+05
  -4.597440e+05   9.656459e+04
   2.710185e+04  -3.203160e+05
   4.955374e+05  -2.252369e+05
   4.550612e+05   3.470232e+05
   1.249207e+05   7.587310e+05
  -2.262188e+04   4.887826e+05
   1.474572e+05  -1.775382e+05
   3.686163e+05  -3.960597e+05
   2.942686e+05   2.175209e+05
  -2.058265e+05   1.021389e+06
  -8.945270e+05   1.027597e+06
  -1.213086e+06   7.739315e+04
  -6.962751e+05  -9.242185e+05
   4.256323e+05  -1.013889e+06
   1.173798e+06  -2.046264e+05
   7.063986e+05   6.149960e+05
  -6.701592e+05   6.624563e+05
  -1.629791e+06  -3.643784e+04
  -1.154544e+06  -8.273648e+05
   3.661209e+05  -1.077068e+06
   1.521853e+06  -6.383753e+05
   1.333305e+06   1.048707e+05
   1.939522e+05   5.397333e+05
  -6.327807e+05   3.212562e+05
  -3.408773e+05  -2.596941e+05
   6.456163e+05  -4.600525e+05
   1.171093e+06   1.805125e+05
   5.526532e+05   1.234888e+06
  -7.345882e+05   1.653852e+06
  -1.556639e+06   7.913897e+05
  -1.244904e+06  -8.181082e+05
  -1.674158e+05  -1.828128e+06
   7.580902e+05  -1.354676e+06
   9.477143e+05   1.134751e+05
   4.978373e+05   1.190533e+06
  -1.319375e+05   1.024777e+06
  -5.359605e+05   1.194122e+05
  -5.365063e+05  -3.987758e+05
  -2.421141e+05  -1.624934e+05
  -1.918032e+04   1.188080e+05
  -1.650068e+05  -2.502565e+05
  -4.602583e+05  -9.564133e+05
  -2.756958e+05  -1.102475e+06
   6.155635e+05  -4.040119e+05
   1.496625e+06   4.864542e+05
   1.369027e+06   8.534059e+05
   1.890140e+05   6.863915e+05
  -9.409131e+05   4.064006e+05
  -1.021032e+06   2.027846e+05
  -2.967936e+05  -1.417434e+04
   1.793643e+05  -2.183927e+05
  -5.239030e+04  -2.476824e+05
  -3.619578e+05  -1.465381e+05
  -1.224343e+04  -1.418095e+05
   7.715926e+05  -1.944961e+05
   1.040940e+06   5.824680e+04
   2.845957e+05   6.925502e+05
  -9.575840e+05   1.115307e+06
  -1.660751e+06   6.579380e+05
  -1.296602e+06  -5.165190e+05
  -2.140558e+05  -1.435180e+06
   7.727929e+05  -1.335519e+06
   1.064790e+06  -4.581166e+05
   6.690913e+05   2.963251e+05
   8.809408e+04   3.624465e+05
  -1.526924e+05   1.480237e+04
   5.009242e+04  -7.559803e+04
   3.359071e+05   3.459491e+05
   2.691403e+05   8.144650e+05
  -2.122358e+05   6.601291e+05
  -7.015806e+05  -1.940104e+05
  -6.730702e+05  -1.030762e+06
   1.071329e+03  -1.032492e+06
   8.164892e+05  -1.531148e+05
   9.997714e+05   8.227151e+05
   2.714541e+05   1.098855e+06
  -7.463846e+05   6.035356e+05
  -1.080730e+06  -1.244169e+05
  -4.704374e+05  -5.706142e+05
   2.997144e+05  -5.982697e+05
   3.205804e+05  -3.404197e+05
  -3.246007e+05  -4.029822e+04
  -6.732566e+05   1.443284e+04
  -1.139797e+05  -2.988049e+05
   8.424024e+05  -6.747565e+05
   1.208601e+06  -5.699227e+05
   6.839411e+05   1.381693e+05
  -1.230630e+05   8.409740e+05
  -5.080758e+05   8.141069e+05
  -3.584324e+05   9.598133e+04
  -5.430463e+03  -5.147238e+05
   2.654199e+05  -3.920184e+05
   3.574640e+05   2.214639e+05
   2.320685e+05   5.881124e+05
  -8.297882e+04   3.676543e+05
  -3.899289e+05  -8.276511e+04
  -4.458081e+05  -2.466528e+05
  -2.387013e+05  -6.047022e+04
  -4.840255e+03   1.007100e+05
   7.609210e+04  -6.279248e+04
   8.634904e+04  -4.021759e+05
   1.968485e+05  -4.839617e+05
   3.726439e+05  -9.271018e+04
   3.667195e+05   4.742585e+05
   2.523983e+04   6.696872e+05
  -4.522966e+05   2.750965e+05
  -6.181929e+05  -3.419634e+05
  -2.088291e+05  -6.098752e+05
   4.983125e+05  -3.445084e+05
   8.462352e+05   1.278238e+05
   4.524934e+05   3.927353e+05
  -3.065021e+05   3.452811e+05
  -6.318090e+05   1.523233e+05
  -2.004551e+05  -4.822998e+02
   4.242476e+05  -1.074699e+04
   4.397418e+05   1.459829e+05
  -2.327782e+05   3.354095e+05
  -8.500595e+05   2.571577e+05
