
 $NMID
 id='ANONYMOUS ', fmtdat='(2E16.6)'
 volume=1.0
 tramp=1.0
 $END
  -2.974926e+07  -1.479508e+06
  -1.855007e+07  -1.622457e+07
   2.105563e+06  -1.915635e+07
   1.389303e+07  -1.048248e+07
   1.019231e+07   6.582975e+05
  -2.758961e+05   5.222160e+06
  -5.887652e+06   1.456906e+06
  -3.447915e+06  -5.068625e+06
   2.286974e+06  -7.200837e+06
   5.595696e+06  -2.675998e+06
   4.343009e+06   3.921008e+06
   2.838590e+05   5.812968e+06
  -2.741348e+06   1.209655e+06
  -1.840301e+06  -4.661226e+06
   2.075117e+06  -5.303009e+06
   4.793641e+06   6.825983e+03
   3.082176e+06   5.905347e+06
  -1.857962e+06   7.051749e+06
  -5.771620e+06   3.173383e+06
  -5.718211e+06  -1.825193e+06
  -2.557390e+06  -4.266647e+06
   3.972205e+05  -3.640555e+06
   6.378892e+05  -2.135676e+06
  -1.221079e+06  -2.062863e+06
  -1.986071e+06  -3.509573e+06
   7.308240e+05  -4.293265e+06
   5.324203e+06  -2.487324e+06
   7.255053e+06   1.105246e+06
   4.079369e+06   3.585974e+06
  -1.341789e+06   3.069697e+06
  -3.801803e+06   4.943535e+05
  -1.512091e+06  -1.682555e+06
   2.339450e+06  -1.771830e+06
   3.674060e+06   2.138551e+05
   1.785005e+06   2.786423e+06
  -8.641170e+05   3.735922e+06
  -1.862465e+06   1.867556e+06
  -9.673191e+05  -1.199898e+06
   3.482664e+05  -2.084259e+06
   5.285278e+05   3.423478e+05
  -7.188692e+05   2.955604e+06
  -2.090772e+06   2.031569e+06
  -1.805631e+06  -1.664763e+06
   4.391540e+05  -3.489737e+06
   2.689648e+06  -8.653903e+05
   2.442750e+06   3.341456e+06
  -6.744086e+05   4.391967e+06
  -4.176400e+06   1.230568e+06
  -4.886249e+06  -2.854461e+06
  -1.924802e+06  -4.276023e+06
   2.334143e+06  -2.457337e+06
   4.306942e+06   5.235639e+05
   2.494974e+06   2.230369e+06
  -1.067612e+06   1.665330e+06
  -2.856984e+06  -2.244505e+05
  -1.497274e+06  -1.444586e+06
   9.438398e+05  -8.588624e+05
   1.526632e+06   6.313794e+05
  -1.396742e+05   1.174433e+06
  -1.662691e+06   1.577140e+05
  -8.977301e+05  -1.204903e+06
   1.528463e+06  -1.393411e+06
   2.990865e+06  -6.099907e+04
   1.703381e+06   1.967763e+06
  -1.554706e+06   3.393953e+06
  -4.288861e+06   3.012635e+06
  -4.557761e+06   5.167637e+05
  -2.536903e+06  -2.730092e+06
  -1.139295e+05  -4.437747e+06
   1.011395e+06  -3.639399e+06
   8.484441e+05  -1.779508e+06
   7.150613e+05  -8.800055e+05
   1.473819e+06  -1.031521e+06
   2.514213e+06  -6.169283e+05
   2.562975e+06   1.102618e+06
   1.162649e+06   2.690485e+06
  -8.528865e+05   2.263962e+06
  -2.085514e+06  -1.265952e+05
  -1.598463e+06  -2.432775e+06
   4.010581e+05  -2.694948e+06
   2.514999e+06  -8.115399e+05
   3.075165e+06   1.617494e+06
   1.655631e+06   2.857165e+06
  -3.849975e+05   2.460587e+06
  -1.342046e+06   1.381672e+06
  -1.121532e+06   7.955487e+05
  -1.194255e+06   8.473242e+05
  -2.444138e+06   6.455442e+05
  -3.699364e+06  -5.596068e+05
  -2.986115e+06  -2.404847e+06
  -2.258550e+04  -3.668074e+06
   3.123524e+06  -3.330115e+06
   4.016238e+06  -1.413745e+06
   2.231752e+06   9.301516e+05
  -3.437730e+05   2.131942e+06
  -1.426374e+06   1.445358e+06
  -4.424023e+05  -2.201009e+05
   1.168705e+06  -1.037343e+06
   1.605077e+06  -2.181731e+05
   5.505786e+05   1.028355e+06
  -6.677191e+05   9.809195e+05
  -6.531816e+05  -3.336845e+05
   5.645086e+05  -1.050561e+06
   1.656507e+06   2.035192e+05
   1.369999e+06   2.487982e+06
  -3.716356e+05   3.497392e+06
  -2.477565e+06   2.054497e+06
  -3.502065e+06  -7.455583e+05
  -2.659392e+06  -2.748762e+06
  -5.089698e+05  -2.746318e+06
   1.323267e+06  -1.318626e+06
   1.531265e+06  -3.363498e+04
   4.468635e+05   6.328506e+04
  -3.069247e+05  -6.877843e+05
   3.135661e+05  -1.087886e+06
   1.531416e+06  -4.445676e+05
   1.712853e+06   6.788267e+05
   4.048950e+05   1.147053e+06
  -1.034919e+06   5.395440e+05
  -9.608468e+05  -4.351367e+05
   6.842291e+05  -7.309380e+05
   2.230495e+06   3.575740e+04
   1.972914e+06   1.314043e+06
  -9.366859e+04   2.089856e+06
  -2.223676e+06   1.650898e+06
  -2.590715e+06   2.130076e+05
  -1.041203e+06  -1.095184e+06
   8.098046e+05  -1.167833e+06
   1.228334e+06  -7.899391e+04
   3.963840e+04   8.797068e+05
  -1.365949e+06   5.738589e+05
  -1.555785e+06  -6.837273e+05
  -4.213633e+05  -1.503907e+06
   8.932159e+05  -1.034437e+06
   1.197895e+06   1.165327e+05
   3.584818e+05   6.576334e+05
  -6.260933e+05   5.946175e+04
  -5.867156e+05  -9.568306e+05
   6.260428e+05  -1.240830e+06
   1.864707e+06  -3.500022e+05
   1.776583e+06   1.067840e+06
   2.675755e+05   1.874021e+06
  -1.305802e+06   1.440774e+06
  -1.553788e+06   1.973837e+05
  -4.985357e+05  -7.751173e+05
   5.942829e+05  -7.567156e+05
   6.827618e+05  -2.862039e+04
  -4.604705e+04   5.145790e+05
  -6.162173e+05   3.557557e+05
  -4.071151e+05  -1.311155e+05
   2.666326e+05  -1.819882e+05
   5.514863e+05   4.264798e+05
  -7.808517e+04   1.049139e+06
  -1.241616e+06   8.139959e+05
  -1.887841e+06  -4.255148e+05
  -1.256847e+06  -1.819337e+06
   2.964700e+05  -2.249867e+06
   1.566646e+06  -1.369909e+06
   1.690148e+06   7.973987e+04
   9.557706e+05   9.932498e+05
   3.164144e+05   9.280248e+05
   2.554977e+05   4.051940e+05
   3.707148e+05   2.267692e+05
   3.537805e+04   5.728357e+05
  -7.729691e+05   8.360306e+05
  -1.387226e+06   3.539833e+05
  -1.086036e+06  -7.444746e+05
   1.936195e+05  -1.505585e+06
   1.647624e+06  -1.044831e+06
   2.120843e+06   4.967516e+05
   1.064859e+06   1.946301e+06
  -8.638441e+05   2.134283e+06
  -2.266633e+06   9.693046e+05
  -2.223031e+06  -5.324063e+05
  -1.060719e+06  -1.271747e+06
   1.101066e+05  -1.066556e+06
   5.267042e+05  -6.298471e+05
   3.548299e+05  -6.531647e+05
   2.632814e+05  -1.032848e+06
   6.167039e+05  -1.041539e+06
   1.118954e+06  -2.071803e+05
   1.148124e+06   1.061776e+06
   4.143408e+05   1.775203e+06
  -6.540582e+05   1.296675e+06
  -1.202260e+06  -2.179902e+04
  -7.463851e+05  -1.140668e+06
   2.908803e+05  -1.263602e+06
   9.518647e+05  -4.813917e+05
   7.145612e+05   4.482029e+05
   6.783762e+03   8.682487e+05
  -3.302716e+05   7.370773e+05
  -1.975945e+04   4.631413e+05
   3.465615e+05   3.668051e+05
   1.556765e+04   3.715212e+05
  -9.981723e+05   1.783783e+05
  -1.792430e+06  -3.401419e+05
  -1.449855e+06  -9.503826e+05
  -3.342431e+04  -1.235056e+06
   1.363816e+06  -9.540758e+05
   1.650360e+06  -2.735962e+05
   8.016831e+05   3.299542e+05
  -1.941679e+05   4.418244e+05
  -4.328407e+05   7.942993e+04
   3.155261e+04  -2.889890e+05
   4.674053e+05  -1.874682e+05
   4.092545e+05   3.365092e+05
   8.273976e+04   7.025776e+05
  -4.338209e+04   4.463749e+05
   1.485213e+05  -1.629501e+05
   3.672192e+05  -3.545996e+05
   2.695046e+05   2.130048e+05
  -2.306987e+05   9.409785e+05
  -8.659982e+05   9.245349e+05
  -1.120448e+06   3.562534e+04
  -6.091446e+05  -8.748162e+05
   4.240117e+05  -9.229601e+05
   1.087114e+06  -1.496012e+05
   6.314411e+05   5.962728e+05
  -6.458402e+05   5.948528e+05
  -1.519243e+06  -9.138398e+04
  -1.052624e+06  -8.178072e+05
   3.790219e+05  -9.995922e+05
   1.448724e+06  -5.448434e+05
   1.245806e+06   1.476848e+05
   1.618938e+05   5.136686e+05
  -6.029161e+05   2.791571e+05
  -3.084221e+05  -2.500283e+05
   6.153288e+05  -3.988540e+05
   1.075864e+06   2.125663e+05
   4.620197e+05   1.162104e+06
  -7.437045e+05   1.499918e+06
  -1.471238e+06   6.721056e+05
  -1.123648e+06  -8.058065e+05
  -8.744715e+04  -1.704142e+06
   7.571729e+05  -1.233863e+06
   8.824764e+05   1.379105e+05
   4.237532e+05   1.129289e+06
  -1.595708e+05   9.569077e+05
  -5.045680e+05   9.546382e+04
  -4.863021e+05  -3.957516e+05
  -2.206430e+05  -1.664910e+05
  -2.256203e+04   1.125075e+05
  -1.433746e+05  -2.289036e+05
  -3.927326e+05  -9.017632e+05
  -2.186218e+05  -1.041626e+06
   5.834926e+05  -3.611026e+05
   1.373420e+06   5.074622e+05
   1.244974e+06   8.485744e+05
   1.528540e+05   6.446056e+05
  -8.913353e+05   3.379544e+05
  -9.593395e+05   1.507959e+05
  -2.757878e+05  -1.733193e+04
   1.752465e+05  -1.936441e+05
  -4.055404e+04  -2.399308e+05
  -3.317846e+05  -1.583021e+05
  -4.446144e+03  -1.302489e+05
   7.256511e+05  -1.440903e+05
   9.621755e+05   9.243327e+04
   2.341904e+05   6.429452e+05
  -9.295645e+05   9.916949e+05
  -1.557996e+06   5.518829e+05
  -1.175986e+06  -5.205341e+05
  -1.438663e+05  -1.338120e+06
   7.625544e+05  -1.212451e+06
   1.000759e+06  -3.842317e+05
   6.076191e+05   3.028084e+05
   6.704520e+04   3.371077e+05
  -1.420247e+05   1.481990e+02
   5.245767e+04  -7.336149e+04
   3.033139e+05   3.353901e+05
   2.217491e+05   7.688980e+05
  -2.209032e+05   6.028757e+05
  -6.406847e+05  -2.100574e+05
  -5.800834e+05  -9.803087e+05
   4.266859e+04  -9.504528e+05
   7.594431e+05  -1.043372e+05
   8.904736e+05   8.014491e+05
   2.095631e+05   1.025108e+06
  -7.104809e+05   5.289356e+05
  -9.946991e+05  -1.527994e+05
  -4.180694e+05  -5.405728e+05
   2.939908e+05  -5.414670e+05
   3.057328e+05  -3.086845e+05
  -3.007631e+05  -5.614900e+04
  -6.253092e+05  -1.307287e+04
  -9.486815e+04  -2.786786e+05
   8.071532e+05  -5.958339e+05
   1.143680e+06  -4.922639e+05
   6.305507e+05   1.446337e+05
  -1.429813e+05   7.738165e+05
  -4.956697e+05   7.404399e+05
  -3.283418e+05   7.928408e+04
   1.795663e+04  -4.761024e+05
   2.580237e+05  -3.510856e+05
   3.186028e+05   2.219202e+05
   1.931443e+05   5.534182e+05
  -8.653169e+04   3.337646e+05
  -3.562804e+05  -9.228451e+04
  -4.070176e+05  -2.411440e+05
  -2.224147e+05  -6.272749e+04
  -5.731234e+03   8.821377e+04
   8.126520e+04  -6.072410e+04
   1.026631e+05  -3.647777e+05
   2.009379e+05  -4.279269e+05
   3.415299e+05  -6.317093e+04
   3.122814e+05   4.502371e+05
  -7.614559e+03   6.133622e+05
  -4.286511e+05   2.344117e+05
  -5.553423e+05  -3.384490e+05
  -1.676858e+05  -5.720389e+05
   4.731263e+05  -3.024942e+05
   7.760590e+05   1.479377e+05
   4.042091e+05   3.794465e+05
  -2.930934e+05   3.065226e+05
  -5.858569e+05   1.164042e+05
  -1.823509e+05  -4.180015e+03
   3.932949e+05   1.419614e+04
   3.979079e+05   1.575881e+05
  -2.347990e+05   2.999297e+05
  -8.024779e+05   1.992801e+05
