
 $NMID
 id='ANONYMOUS ', fmtdat='(2E16.6)'
 volume=1.0
 tramp=1.0
 $END
   4.187558e+07   8.855360e+05
   2.558572e+07   2.483068e+07
  -4.572354e+06   2.788486e+07
  -2.026934e+07   1.238318e+07
  -1.316243e+07  -3.628092e+06
   1.677445e+06  -7.154443e+06
   7.757703e+06  -2.135059e+05
   3.145562e+06   7.282216e+06
  -4.148593e+06   8.215253e+06
  -7.506460e+06   2.348290e+06
  -5.539345e+06  -4.998690e+06
  -4.820038e+05  -7.100029e+06
   3.318239e+06  -1.895293e+06
   2.153854e+06   5.039368e+06
  -2.908089e+06   5.873283e+06
  -6.224416e+06  -6.429977e+05
  -3.676711e+06  -7.905232e+06
   2.784568e+06  -9.225518e+06
   7.772586e+06  -4.394266e+06
   8.027386e+06   1.951228e+06
   4.397162e+06   5.727824e+06
   1.146921e+05   5.913639e+06
  -1.656904e+06   3.952906e+06
  -2.086096e+05   2.417009e+06
   1.512579e+06   2.936874e+06
  -3.455806e+05   4.218488e+06
  -5.374119e+06   3.286593e+06
  -8.326646e+06  -4.433755e+05
  -5.401158e+06  -3.855708e+06
   6.265262e+05  -3.947731e+06
   3.747049e+06  -1.395451e+06
   1.908837e+06   9.152435e+05
  -1.587998e+06   1.337877e+06
  -3.031899e+06   3.462861e+04
  -1.916046e+06  -2.198069e+06
   2.092227e+05  -3.802637e+06
   1.842156e+06  -2.750476e+06
   1.973685e+06   6.865379e+05
   5.843305e+05   2.763827e+06
  -6.049259e+05   6.872042e+05
   2.854143e+05  -2.708722e+06
   2.289764e+06  -2.133634e+06
   2.101411e+06   2.384117e+06
  -1.357565e+06   4.723863e+06
  -4.645206e+06   9.570183e+05
  -3.669202e+06  -4.976932e+06
   1.243781e+06  -6.289697e+06
   5.665072e+06  -1.757990e+06
   5.816822e+06   3.629192e+06
   1.854318e+06   5.115781e+06
  -2.893812e+06   2.562988e+06
  -4.760291e+06  -1.032051e+06
  -2.456746e+06  -2.851645e+06
   1.701598e+06  -1.921569e+06
   3.635002e+06   5.594981e+05
   1.708500e+06   2.048332e+06
  -1.303102e+06   1.094897e+06
  -1.627061e+06  -8.333460e+05
   6.975270e+05  -1.079929e+06
   2.070470e+06   7.221400e+05
   2.306862e+05   2.261219e+06
  -2.953582e+06   1.651949e+06
  -4.072237e+06  -5.950167e+05
  -1.986615e+06  -2.904270e+06
   1.698925e+06  -4.233738e+06
   4.650249e+06  -3.797738e+06
   5.306371e+06  -1.031243e+06
   3.440109e+06   2.942738e+06
   4.501073e+05   5.232759e+06
  -1.442140e+06   4.165404e+06
  -1.306800e+06   1.532287e+06
  -4.999188e+05   3.461975e+05
  -8.105865e+05   9.647549e+05
  -2.098099e+06   1.102900e+06
  -2.650719e+06  -5.270970e+05
  -1.514107e+06  -2.359194e+06
   4.883539e+05  -2.197077e+06
   1.846652e+06   1.083509e+04
   1.604396e+06   2.303204e+06
  -2.528607e+05   2.807074e+06
  -2.641111e+06   1.168277e+06
  -3.696063e+06  -1.454782e+06
  -2.347511e+06  -3.283598e+06
   2.396934e+05  -3.266807e+06
   1.776465e+06  -1.989855e+06
   1.641562e+06  -9.529733e+05
   1.507194e+06  -7.662886e+05
   2.695721e+06  -5.420940e+05
   4.008926e+06   7.029231e+05
   3.198443e+06   2.622749e+06
   2.202840e+04   3.897638e+06
  -3.222168e+06   3.562958e+06
  -4.123494e+06   1.687376e+06
  -2.419811e+06  -7.285385e+05
   9.057987e+04  -2.178050e+06
   1.300244e+06  -1.654607e+06
   4.968126e+05   1.400583e+05
  -1.149599e+06   1.151440e+06
  -1.756098e+06   2.847197e+05
  -7.141176e+05  -1.119639e+06
   6.149272e+05  -1.039025e+06
   5.500450e+05   3.729240e+05
  -8.198164e+05   8.924324e+05
  -1.770213e+06  -7.277268e+05
  -1.017590e+06  -2.996144e+06
   9.953248e+05  -3.489969e+06
   2.845348e+06  -1.599816e+06
   3.430790e+06   1.134518e+06
   2.452190e+06   2.820077e+06
   4.394221e+05   2.708679e+06
  -1.313022e+06   1.371672e+06
  -1.561481e+06   1.002734e+05
  -4.705443e+05  -6.253693e+04
   3.232659e+05   7.262963e+05
  -3.756047e+05   1.210433e+06
  -1.723316e+06   4.920603e+05
  -1.868430e+06  -8.038975e+05
  -3.855680e+05  -1.288879e+06
   1.113502e+06  -5.446381e+05
   9.265672e+05   4.625799e+05
  -7.804014e+05   6.254678e+05
  -2.223123e+06  -2.091802e+05
  -1.854986e+06  -1.378830e+06
   2.046921e+05  -2.047060e+06
   2.305977e+06  -1.626591e+06
   2.697799e+06  -2.019915e+05
   1.116652e+06   1.198737e+06
  -8.815219e+05   1.323334e+06
  -1.394639e+06   1.172520e+05
  -1.060842e+05  -9.794820e+05
   1.453755e+06  -6.353469e+05
   1.634155e+06   7.586823e+05
   3.613830e+05   1.593794e+06
  -1.012451e+06   1.002465e+06
  -1.235847e+06  -2.294647e+05
  -2.990006e+05  -7.287908e+05
   7.111891e+05  -5.018063e+04
   6.468591e+05   1.015615e+06
  -6.239141e+05   1.324176e+06
  -1.947792e+06   4.147067e+05
  -1.893901e+06  -1.092743e+06
  -2.961652e+05  -1.985935e+06
   1.401193e+06  -1.527530e+06
   1.651557e+06  -1.807969e+05
   4.930312e+05   8.343599e+05
  -6.408632e+05   7.759449e+05
  -6.637430e+05   4.082618e+04
   9.099038e+04  -4.429315e+05
   5.668379e+05  -2.746701e+05
   2.688427e+05   1.103592e+05
  -3.619160e+05   5.503179e+04
  -5.332913e+05  -5.580120e+05
   1.580011e+05  -1.121860e+06
   1.330442e+06  -8.375646e+05
   1.985154e+06   4.533086e+05
   1.334955e+06   1.909764e+06
  -2.967049e+05   2.340764e+06
  -1.623495e+06   1.372988e+06
  -1.700334e+06  -1.322557e+05
  -8.962794e+05  -9.718135e+05
  -2.990032e+05  -8.074660e+05
  -3.538757e+05  -3.204156e+05
  -4.927245e+05  -2.732004e+05
  -5.362661e+04  -6.683513e+05
   8.422791e+05  -8.592434e+05
   1.431464e+06  -3.168184e+05
   1.060360e+06   7.587617e+05
  -2.501961e+05   1.489312e+06
  -1.711442e+06   1.035425e+06
  -2.185737e+06  -5.292249e+05
  -1.072474e+06  -2.049787e+06
   9.734810e+05  -2.245625e+06
   2.429698e+06  -9.693758e+05
   2.291055e+06   6.339270e+05
   9.956765e+05   1.331777e+06
  -1.771173e+05   1.014112e+06
  -4.761050e+05   5.650484e+05
  -2.335924e+05   6.959223e+05
  -2.020528e+05   1.165233e+06
  -6.612849e+05   1.157523e+06
  -1.212424e+06   2.454273e+05
  -1.228971e+06  -1.094390e+06
  -4.571549e+05  -1.848996e+06
   6.626037e+05  -1.361158e+06
   1.249157e+06   3.174428e+04
   7.649082e+05   1.228465e+06
  -3.609457e+05   1.331528e+06
  -1.068679e+06   4.337506e+05
  -7.606378e+05  -5.825903e+05
   6.861557e+04  -9.753384e+05
   4.440690e+05  -7.599162e+05
   5.990735e+04  -4.436859e+05
  -3.838591e+05  -3.591814e+05
  -3.055022e+04  -3.792568e+05
   1.079887e+06  -1.789314e+05
   1.928126e+06   3.664012e+05
   1.524160e+06   1.020765e+06
  -1.968583e+04   1.340473e+06
  -1.495352e+06   1.029574e+06
  -1.752913e+06   2.511795e+05
  -8.182853e+05  -4.250460e+05
   2.340747e+05  -5.037360e+05
   4.756730e+05  -5.089760e+04
  -5.166357e+03   3.541636e+05
  -4.609915e+05   2.150753e+05
  -4.415842e+05  -3.475077e+05
  -1.553413e+05  -7.161811e+05
  -1.788295e+04  -4.627242e+05
  -1.476104e+05   1.272718e+05
  -3.324054e+05   3.180441e+05
  -2.695432e+05  -2.283926e+05
   2.039555e+05  -9.629020e+05
   9.009105e+05  -9.843335e+05
   1.244338e+06  -8.856248e+04
   7.182529e+05   9.063230e+05
  -4.348318e+05   1.027797e+06
  -1.177918e+06   2.274445e+05
  -6.753101e+05  -5.972913e+05
   6.871564e+05  -6.140463e+05
   1.559946e+06   1.203147e+05
   1.020105e+06   8.640825e+05
  -4.519278e+05   9.935797e+05
  -1.491410e+06   4.886110e+05
  -1.242953e+06  -1.927543e+05
  -1.394309e+05  -5.195185e+05
   6.343376e+05  -2.652876e+05
   3.446279e+05   2.778747e+05
  -6.076152e+05   4.528150e+05
  -1.130240e+06  -1.625661e+05
  -5.526297e+05  -1.181908e+06
   6.897413e+05  -1.596893e+06
   1.492691e+06  -7.613306e+05
   1.183094e+06   8.015306e+05
   1.196343e+05   1.757127e+06
  -7.725123e+05   1.257013e+06
  -9.064784e+05  -1.741009e+05
  -4.096945e+05  -1.174130e+06
   2.091701e+05  -9.645206e+05
   5.386434e+05  -8.122573e+04
   4.696308e+05   3.963963e+05
   1.874090e+05   1.561222e+05
   3.888918e+04  -1.037097e+05
   2.137890e+05   2.660492e+05
   4.414400e+05   9.449618e+05
   1.859348e+05   1.069216e+06
  -6.622301e+05   3.715824e+05
  -1.422824e+06  -5.097790e+05
  -1.252022e+06  -8.671396e+05
  -1.595301e+05  -6.782317e+05
   8.780986e+05  -3.665567e+05
   9.778531e+05  -1.510458e+05
   3.234165e+05   4.106451e+04
  -1.623839e+05   2.083153e+05
  -6.614875e+03   2.230948e+05
   2.913380e+05   1.300547e+05
   2.785111e+04   1.313926e+05
  -6.925379e+05   1.817434e+05
  -1.008633e+06  -6.317253e+04
  -3.356139e+05  -6.732304e+05
   8.966826e+05  -1.080620e+06
   1.647898e+06  -6.426776e+05
   1.300801e+06   4.884601e+05
   1.956324e+05   1.379563e+06
  -7.858391e+05   1.293449e+06
  -1.034598e+06   4.553963e+05
  -6.291060e+05  -2.729553e+05
  -9.967648e+04  -3.498077e+05
   9.987710e+04  -3.461063e+04
  -7.126869e+04   4.024380e+04
  -2.962232e+05  -3.600301e+05
  -2.231151e+05  -7.960107e+05
   2.065640e+05  -6.430333e+05
   6.594210e+05   1.689683e+05
   6.553128e+05   9.716589e+05
   3.471137e+04   9.950736e+05
  -7.552637e+05   1.753507e+05
  -9.601605e+05  -7.672985e+05
  -2.743335e+05  -1.064805e+06
   7.191544e+05  -6.042218e+05
   1.064033e+06   1.224640e+05
   4.766961e+05   5.889138e+05
  -2.973909e+05   6.170791e+05
  -3.540716e+05   3.394564e+05
   2.670647e+05   3.457500e+04
   6.384290e+05  -7.020957e+03
   1.210878e+05   2.970395e+05
  -8.275775e+05   6.305300e+05
  -1.220923e+06   5.012642e+05
  -7.071537e+05  -1.738351e+05
   1.276905e+05  -8.273624e+05
   5.412724e+05  -8.013021e+05
   3.868242e+05  -1.245254e+05
   1.652218e+04   4.760326e+05
  -2.515112e+05   3.966456e+05
  -3.331788e+05  -1.817704e+05
  -2.200756e+05  -5.699345e+05
   7.044497e+04  -3.880187e+05
   3.744763e+05   6.918383e+04
   4.445608e+05   2.712700e+05
   2.338467e+05   8.699167e+04
  -1.815078e+04  -1.249498e+05
  -8.509434e+04  -4.194715e+03
  -3.960809e+04   3.534788e+05
  -1.141639e+05   4.955726e+05
  -3.256387e+05   1.513582e+05
  -3.916075e+05  -4.092826e+05
  -8.244458e+04  -6.304261e+05
   4.183765e+05  -2.749869e+05
   6.142304e+05   3.099088e+05
   2.099058e+05   5.735509e+05
  -4.980326e+05   3.327139e+05
  -8.364849e+05  -1.154034e+05
  -4.427315e+05  -3.838324e+05
   2.969343e+05  -3.585868e+05
   6.178853e+05  -1.754885e+05
   2.238070e+05  -7.684398e+03
  -3.614911e+05   2.890654e+04
  -3.985030e+05  -1.061559e+05
   1.986172e+05  -2.883168e+05
   7.664629e+05  -2.277635e+05
