
 $NMID
 id='ANONYMOUS ', fmtdat='(2E16.6)'
 volume=1.0
 tramp=1.0
 $END
  -6.048866e+07  -8.183090e+05
  -3.543368e+07  -3.838387e+07
   9.067714e+06  -4.079842e+07
   2.982122e+07  -1.468567e+07
   1.711598e+07   8.254132e+06
  -3.955449e+06   9.806233e+06
  -1.028103e+07  -1.811912e+06
  -2.456194e+06  -1.043210e+07
   6.862781e+06  -9.459484e+06
   1.020918e+07  -1.715291e+06
   7.308913e+06   6.633511e+06
   8.115741e+05   9.030749e+06
  -4.235856e+06   2.943122e+06
  -2.743353e+06  -5.556929e+06
   4.043454e+06  -6.645003e+06
   8.271332e+06   1.662988e+06
   4.480107e+06   1.089830e+07
  -4.249467e+06   1.243525e+07
  -1.086657e+07   6.165550e+06
  -1.159452e+07  -2.269104e+06
  -7.144761e+06  -8.148714e+06
  -6.655291e+05  -9.488848e+06
   3.443996e+06  -6.570780e+06
   2.373282e+06  -2.626481e+06
  -1.045809e+06  -1.855661e+06
  -4.622673e+05  -4.180578e+06
   5.448721e+06  -4.729753e+06
   1.008687e+07  -7.110498e+05
   7.500464e+06   4.297743e+06
   4.490740e+05   5.449815e+06
  -3.775477e+06   2.940141e+06
  -2.715946e+06   2.657473e+05
   2.577813e+05  -8.987230e+05
   2.069980e+06  -7.066656e+05
   2.343045e+06   1.199281e+06
   9.771592e+05   4.021413e+06
  -1.856399e+06   4.182319e+06
  -3.652305e+06  -1.785816e+04
  -1.988422e+06  -3.972286e+06
   9.232475e+05  -2.282877e+06
   5.677606e+05   2.419169e+06
  -2.503113e+06   2.339014e+06
  -2.481453e+06  -3.444559e+06
   2.840084e+06  -6.445655e+06
   7.613769e+06  -8.533007e+05
   5.388590e+06   7.588494e+06
  -2.267410e+06   9.111031e+06
  -7.970500e+06   2.479752e+06
  -7.204274e+06  -4.750983e+06
  -1.774572e+06  -6.275150e+06
   3.642457e+06  -2.705312e+06
   5.350840e+06   1.698090e+06
   2.360728e+06   3.657134e+06
  -2.639763e+06   2.217183e+06
  -4.748927e+06  -1.092295e+06
  -1.965020e+06  -2.927016e+06
   1.855132e+06  -1.417273e+06
   1.754086e+06   1.086943e+06
  -1.488581e+06   8.196611e+05
  -2.509884e+06  -2.081379e+06
   9.524717e+05  -3.711273e+06
   5.122933e+06  -1.845540e+06
   5.588789e+06   1.662738e+06
   2.330444e+06   4.301536e+06
  -1.897746e+06   5.550741e+06
  -5.170705e+06   5.124929e+06
  -6.492972e+06   1.900292e+06
  -4.900841e+06  -3.292674e+06
  -1.029791e+06  -6.472839e+06
   2.018309e+06  -4.908748e+06
   1.866489e+06  -1.093734e+06
   1.602400e+04   4.006371e+05
  -2.794914e+05  -1.053559e+06
   1.507823e+06  -2.040366e+06
   2.926852e+06  -4.645003e+05
   2.226624e+06   1.842023e+06
   1.905358e+05   2.178233e+06
  -1.488546e+06   3.010420e+05
  -1.730856e+06  -2.014578e+06
  -7.847480e+04  -3.000668e+06
   2.842333e+06  -1.800343e+06
   4.730578e+06   1.161969e+06
   3.455369e+06   3.963215e+06
  -4.198755e+04   4.531187e+06
  -2.477152e+06   2.901472e+06
  -2.422445e+06   1.151717e+06
  -1.925966e+06   6.370874e+05
  -3.019178e+06   4.472127e+05
  -4.462274e+06  -8.025791e+05
  -3.577644e+06  -2.839521e+06
  -1.486913e+05  -4.224225e+06
   3.240617e+06  -4.026254e+06
   4.242383e+06  -2.264845e+06
   2.768681e+06   3.441586e+05
   3.889002e+05   2.294157e+06
  -1.064973e+06   2.049226e+06
  -5.964068e+05  -8.537329e+03
   1.087998e+06  -1.373048e+06
   1.976257e+06  -4.253681e+05
   9.868661e+05   1.256663e+06
  -4.964314e+05   1.153156e+06
  -3.907389e+05  -3.889341e+05
   1.138163e+06  -6.190279e+05
   1.851182e+06   1.483665e+06
   4.875078e+05   3.635075e+06
  -1.791180e+06   3.354532e+06
  -3.215978e+06   9.320498e+05
  -3.258251e+06  -1.549242e+06
  -2.227186e+06  -2.745206e+06
  -4.631005e+05  -2.593704e+06
   1.233936e+06  -1.507752e+06
   1.604255e+06  -2.686879e+05
   5.052484e+05   4.341823e+04
  -3.689854e+05  -7.711347e+05
   4.449275e+05  -1.394089e+06
   1.997234e+06  -5.935683e+05
   2.099843e+06   9.455841e+05
   3.722406e+05   1.476642e+06
  -1.208269e+06   5.758414e+05
  -8.806168e+05  -4.588110e+05
   8.767782e+05  -4.757470e+05
   2.171449e+06   3.726978e+05
   1.709534e+06   1.359565e+06
  -2.723842e+05   1.951786e+06
  -2.336968e+06   1.664304e+06
  -2.830047e+06   2.827324e+05
  -1.253585e+06  -1.314677e+06
   9.616153e+05  -1.575212e+06
   1.642519e+06  -1.990975e+05
   2.265426e+05   1.136712e+06
  -1.565429e+06   7.698310e+05
  -1.759293e+06  -8.141345e+05
  -3.150210e+05  -1.689830e+06
   1.138062e+06  -9.605882e+05
   1.267932e+06   3.592345e+05
   2.158829e+05   8.079850e+05
  -8.395992e+05   4.569812e+04
  -7.709730e+05  -1.089256e+06
   5.765205e+05  -1.478009e+06
   2.061934e+06  -5.843698e+05
   2.108339e+06   1.063579e+06
   4.038498e+05   2.137817e+06
  -1.487708e+06   1.691977e+06
  -1.775306e+06   2.061040e+05
  -5.006778e+05  -8.950354e+05
   6.799949e+05  -8.150815e+05
   6.287987e+05  -8.945870e+04
  -1.283204e+05   3.258431e+05
  -4.602095e+05   1.838910e+05
  -6.416382e+04  -3.746923e+04
   4.781183e+05   1.428407e+05
   5.016387e+05   7.281831e+05
  -2.425163e+05   1.218528e+06
  -1.425561e+06   9.128696e+05
  -2.138659e+06  -4.221250e+05
  -1.516239e+06  -1.992169e+06
   2.061025e+05  -2.477482e+06
   1.635765e+06  -1.428423e+06
   1.695952e+06   1.360279e+05
   8.452287e+05   8.732420e+05
   3.336935e+05   5.924381e+05
   5.394224e+05   1.892278e+05
   6.843933e+05   3.467027e+05
   9.553989e+04   8.143026e+05
  -9.065255e+05   9.160979e+05
  -1.467954e+06   3.181664e+05
  -1.048654e+06  -7.179183e+05
   2.607068e+05  -1.453964e+06
   1.748434e+06  -1.082042e+06
   2.289862e+06   4.876777e+05
   1.148709e+06   2.149329e+06
  -1.059301e+06   2.424555e+06
  -2.621877e+06   1.038071e+06
  -2.385852e+06  -6.976358e+05
  -9.332140e+05  -1.355126e+06
   2.228685e+05  -9.174559e+05
   3.528248e+05  -4.922391e+05
   1.885316e+04  -7.942911e+05
   7.928533e+04  -1.385158e+06
   6.973756e+05  -1.350155e+06
   1.346065e+06  -3.388164e+05
   1.389066e+06   1.097831e+06
   5.892934e+05   1.938291e+06
  -6.226590e+05   1.479571e+06
  -1.312384e+06  -8.615544e+02
  -8.253702e+05  -1.326045e+06
   4.216973e+05  -1.429099e+06
   1.213913e+06  -3.793544e+05
   8.256177e+05   7.640839e+05
  -1.644215e+05   1.123306e+06
  -5.900162e+05   7.862855e+05
  -9.852486e+04   4.030907e+05
   4.584674e+05   3.331554e+05
   7.123085e+04   3.898807e+05
  -1.191386e+06   2.123947e+05
  -2.138601e+06  -3.430551e+05
  -1.661541e+06  -1.069041e+06
   6.452940e+04  -1.486505e+06
   1.659688e+06  -1.181380e+06
   1.883507e+06  -2.718567e+05
   8.367883e+05   5.380679e+05
  -2.845202e+05   5.998125e+05
  -5.309409e+05   1.893993e+04
  -4.082993e+04  -4.590062e+05
   4.407820e+05  -2.796271e+05
   5.022096e+05   3.469555e+05
   2.997024e+05   7.383062e+05
   1.325387e+05   4.959361e+05
   1.310934e+05  -7.768093e+04
   2.532828e+05  -2.814265e+05
   2.774490e+05   2.380986e+05
  -1.180887e+05   1.006017e+06
  -9.160904e+05   1.107154e+06
  -1.438453e+06   2.043951e+05
  -9.210373e+05  -9.381122e+05
   4.223364e+05  -1.203354e+06
   1.316863e+06  -3.849255e+05
   7.662284e+05   5.710048e+05
  -7.215049e+05   6.621626e+05
  -1.609712e+06  -1.007806e+05
  -9.904937e+05  -8.752851e+05
   5.153159e+05  -9.812986e+05
   1.511567e+06  -4.558701e+05
   1.227573e+06   2.043850e+05
   1.253456e+05   5.132851e+05
  -6.639833e+05   2.632649e+05
  -4.059540e+05  -3.120373e+05
   5.811364e+05  -5.641546e+05
   1.224750e+06   4.160220e+04
   7.415272e+05   1.196362e+06
  -5.445011e+05   1.778931e+06
  -1.496085e+06   9.601093e+05
  -1.304123e+06  -7.448254e+05
  -2.398778e+05  -1.825984e+06
   7.365464e+05  -1.314970e+06
   9.373664e+05   1.929778e+05
   4.288727e+05   1.213562e+06
  -2.436977e+05   9.683125e+05
  -5.821644e+05   7.591685e+04
  -4.574734e+05  -3.694788e+05
  -1.422008e+05  -1.235525e+05
  -5.792629e+04   8.693509e+04
  -3.283742e+05  -3.273600e+05
  -5.490498e+05  -9.948875e+05
  -1.752772e+05  -1.088210e+06
   7.664944e+05  -3.991046e+05
   1.511142e+06   4.536247e+05
   1.288016e+06   8.326561e+05
   1.934764e+05   7.195607e+05
  -8.378181e+05   4.518402e+05
  -9.916368e+05   1.913929e+05
  -3.933315e+05  -7.292395e+04
   1.338638e+05  -2.393150e+05
   6.747718e+04  -1.847641e+05
  -2.367960e+05  -6.277136e+04
  -7.084643e+04  -1.361909e+05
   6.333549e+05  -2.787189e+05
   1.082601e+06  -2.054871e+04
   5.184735e+05   7.205225e+05
  -8.049106e+05   1.259741e+06
  -1.764665e+06   8.385135e+05
  -1.516234e+06  -3.983486e+05
  -3.313016e+05  -1.434423e+06
   7.726504e+05  -1.442408e+06
   1.072997e+06  -6.054990e+05
   6.767736e+05   1.988033e+05
   1.642249e+05   3.694626e+05
  -3.762844e+04   1.022965e+05
   9.202514e+04   1.310338e+04
   2.940849e+05   3.811813e+05
   2.541039e+05   8.225723e+05
  -1.612137e+05   7.135170e+05
  -6.996263e+05  -7.629917e+04
  -8.148877e+05  -9.347755e+05
  -1.935774e+05  -1.070872e+06
   7.479994e+05  -3.217636e+05
   1.104065e+06   6.761047e+05
   4.156887e+05   1.118629e+06
  -7.137874e+05   7.497914e+05
  -1.176611e+06  -3.817533e+04
  -5.832055e+05  -6.506759e+05
   2.871829e+05  -7.451596e+05
   4.189135e+05  -3.919572e+05
  -2.166606e+05   1.935037e+04
  -6.573486e+05   6.583420e+04
  -1.717870e+05  -3.231620e+05
   8.306452e+05  -7.137558e+05
   1.311532e+06  -5.514091e+05
   8.245248e+05   2.015901e+05
  -7.512805e+04   9.137542e+05
  -5.842689e+05   9.064568e+05
  -4.795993e+05   2.015064e+05
  -9.313029e+04  -4.776748e+05
   2.296925e+05  -4.784499e+05
   3.697121e+05   1.037985e+05
   2.837853e+05   5.863368e+05
  -3.727832e+04   4.772166e+05
  -4.077611e+05  -1.840339e+04
  -5.065183e+05  -3.039017e+05
  -2.489773e+05  -1.162534e+05
   5.428520e+04   1.862800e+05
   7.759922e+04   1.042303e+05
  -7.937027e+04  -3.467522e+05
  -3.396090e+04  -6.211255e+05
   3.080304e+05  -3.082120e+05
   5.410307e+05   3.383411e+05
   2.503958e+05   6.660415e+05
  -3.937329e+05   3.583253e+05
  -7.223319e+05  -2.452805e+05
  -3.012618e+05  -5.696941e+05
   5.239536e+05  -3.957414e+05
   9.368992e+05   3.640344e+04
   5.166593e+05   3.748208e+05
  -2.944288e+05   4.508337e+05
  -6.668891e+05   2.895335e+05
  -2.894478e+05   2.849399e+04
   3.150440e+05  -1.197680e+05
   4.107943e+05   5.497553e+03
  -1.239844e+05   2.834660e+05
  -6.975551e+05   3.131027e+05
