
 $NMID
 id='ANONYMOUS ', fmtdat='(2E16.6)'
 volume=1.0
 tramp=1.0
 $END
   5.023577e+07   3.932161e+06
   2.794470e+07   3.270304e+07
  -8.733708e+06   3.313776e+07
  -2.520505e+07   1.183227e+07
  -1.437032e+07  -6.555392e+06
   3.229009e+06  -8.090898e+06
   8.735247e+06   1.214021e+06
   2.287727e+06   8.763433e+06
  -5.785052e+06   8.383213e+06
  -8.752168e+06   1.544770e+06
  -6.005070e+06  -6.094886e+06
  -1.941927e+05  -8.011468e+06
   3.903847e+06  -2.158609e+06
   2.203512e+06   5.405760e+06
  -3.688521e+06   6.014625e+06
  -7.024618e+06  -1.502360e+06
  -3.490572e+06  -9.436603e+06
   4.042081e+06  -1.041724e+07
   9.453524e+06  -4.631874e+06
   9.519160e+06   2.685618e+06
   5.216057e+06   7.207160e+06
  -1.629035e+05   7.577159e+06
  -2.845662e+06   4.909950e+06
  -1.301261e+06   2.284477e+06
   1.300130e+06   2.426602e+06
  -1.031985e+05   4.249743e+06
  -5.631834e+06   3.759363e+06
  -9.204235e+06  -3.518136e+05
  -6.177709e+06  -4.432272e+06
   4.149856e+05  -4.716171e+06
   3.955905e+06  -1.973937e+06
   2.360010e+06   5.159082e+05
  -9.784179e+05   1.206785e+06
  -2.641394e+06   3.305461e+05
  -2.110998e+06  -1.832199e+06
  -1.755610e+05  -3.980367e+06
   2.066597e+06  -3.319899e+06
   2.766788e+06   6.083252e+05
   1.016704e+06   3.461203e+06
  -9.192963e+05   1.367616e+06
  -4.505156e+04  -2.635509e+06
   2.464193e+06  -2.122928e+06
   2.087964e+06   2.971419e+06
  -2.347371e+06   5.321810e+06
  -6.014020e+06   4.836888e+05
  -4.048498e+06  -6.436807e+06
   2.166110e+06  -7.431118e+06
   6.824478e+06  -1.690868e+06
   6.214486e+06   4.444722e+06
   1.537748e+06   5.681248e+06
  -3.329514e+06   2.454472e+06
  -4.921215e+06  -1.548603e+06
  -2.225451e+06  -3.289432e+06
   2.233500e+06  -1.909582e+06
   4.073029e+06   1.032634e+06
   1.664035e+06   2.536044e+06
  -1.627978e+06   1.148484e+06
  -1.628659e+06  -1.019071e+06
   1.078321e+06  -8.664532e+05
   2.121661e+06   1.457077e+06
  -5.218315e+05   2.827742e+06
  -4.011540e+06   1.443023e+06
  -4.632285e+06  -1.356994e+06
  -1.910870e+06  -3.629079e+06
   2.039014e+06  -4.739053e+06
   5.108335e+06  -4.183415e+06
   5.936218e+06  -1.141220e+06
   3.963259e+06   3.336300e+06
   4.228777e+05   5.845884e+06
  -1.911967e+06   4.383467e+06
  -1.568886e+06   1.219875e+06
  -2.109848e+05   2.142240e+04
  -3.379583e+05   1.076256e+06
  -1.939177e+06   1.522072e+06
  -2.845150e+06  -1.782707e+05
  -1.807776e+06  -2.232065e+06
   2.496840e+05  -2.231743e+06
   1.710638e+06  -1.034663e+05
   1.609565e+06   2.232273e+06
  -2.133954e+05   2.910929e+06
  -2.823231e+06   1.347292e+06
  -4.133783e+06  -1.533183e+06
  -2.671364e+06  -3.759824e+06
   3.735774e+05  -3.839452e+06
   2.236617e+06  -2.272374e+06
   2.037289e+06  -9.116787e+05
   1.702714e+06  -6.161781e+05
   2.840119e+06  -3.817252e+05
   4.166390e+06   9.138815e+05
   3.252641e+06   2.847949e+06
  -7.550505e+04   4.044208e+06
  -3.373502e+06   3.655532e+06
  -4.269233e+06   1.799080e+06
  -2.583595e+06  -6.639847e+05
  -4.692745e+04  -2.266659e+06
   1.283042e+06  -1.806724e+06
   5.520203e+05   1.096946e+05
  -1.178134e+06   1.220331e+06
  -1.878876e+06   2.687298e+05
  -7.873534e+05  -1.231831e+06
   6.104832e+05  -1.080982e+06
   4.682726e+05   3.853744e+05
  -9.675674e+05   7.144395e+05
  -1.712962e+06  -1.131628e+06
  -6.171213e+05  -3.261139e+06
   1.458526e+06  -3.310328e+06
   2.994768e+06  -1.161682e+06
   3.259886e+06   1.416530e+06
   2.251209e+06   2.834533e+06
   3.704023e+05   2.661257e+06
  -1.327866e+06   1.390944e+06
  -1.593114e+06   1.193598e+05
  -4.833151e+05  -7.354103e+04
   3.170588e+05   7.604201e+05
  -4.620021e+05   1.275092e+06
  -1.871143e+06   4.572844e+05
  -1.932904e+06  -9.511578e+05
  -3.194181e+05  -1.388478e+06
   1.178611e+06  -5.174274e+05
   8.947086e+05   4.855868e+05
  -8.239334e+05   5.259989e+05
  -2.169714e+06  -3.449758e+05
  -1.741109e+06  -1.409745e+06
   2.907847e+05  -1.984174e+06
   2.367862e+06  -1.561022e+06
   2.762796e+06  -1.367911e+05
   1.124598e+06   1.299212e+06
  -9.839176e+05   1.398920e+06
  -1.516962e+06   8.407085e+04
  -1.146522e+05  -1.065976e+06
   1.535005e+06  -6.389033e+05
   1.658011e+06   8.474440e+05
   2.775444e+05   1.642920e+06
  -1.098966e+06   9.373558e+05
  -1.231424e+06  -3.329855e+05
  -2.310126e+05  -7.701721e+05
   7.710252e+05  -1.934193e+04
   6.672378e+05   1.075164e+06
  -6.517166e+05   1.375668e+06
  -2.019711e+06   4.209852e+05
  -1.952732e+06  -1.154320e+06
  -2.663600e+05  -2.067742e+06
   1.501481e+06  -1.543507e+06
   1.711784e+06  -1.237175e+05
   4.615123e+05   8.806238e+05
  -6.885514e+05   7.697486e+05
  -6.557409e+05   4.343180e+04
   1.081334e+05  -3.860277e+05
   5.168139e+05  -2.283072e+05
   1.809011e+05   6.496025e+04
  -3.933945e+05  -5.562964e+04
  -4.822797e+05  -6.437871e+05
   2.384014e+05  -1.146060e+06
   1.399271e+06  -8.173265e+05
   2.034358e+06   5.131459e+05
   1.343332e+06   1.997503e+06
  -3.430959e+05   2.391613e+06
  -1.673753e+06   1.338260e+06
  -1.686922e+06  -1.900075e+05
  -8.439188e+05  -9.496583e+05
  -3.027268e+05  -7.200359e+05
  -4.353622e+05  -2.861683e+05
  -5.613080e+05  -3.351941e+05
  -3.851048e+04  -7.333254e+05
   8.977572e+05  -8.461282e+05
   1.448038e+06  -2.676087e+05
   1.027312e+06   7.668515e+05
  -2.973439e+05   1.455580e+06
  -1.755527e+06   9.942296e+05
  -2.209691e+06  -5.862177e+05
  -1.029578e+06  -2.127873e+06
   1.095186e+06  -2.280685e+06
   2.545207e+06  -9.028314e+05
   2.300614e+06   7.433879e+05
   9.189938e+05   1.366054e+06
  -2.222238e+05   9.581134e+05
  -4.313865e+05   5.249043e+05
  -1.672776e+05   7.475155e+05
  -2.029338e+05   1.263260e+06
  -7.293162e+05   1.215358e+06
  -1.284114e+06   2.360128e+05
  -1.260928e+06  -1.145474e+06
  -4.476199e+05  -1.908996e+06
   6.968359e+05  -1.392078e+06
   1.275915e+06   6.318189e+04
   7.424891e+05   1.297954e+06
  -4.379952e+05   1.354575e+06
  -1.140101e+06   3.622371e+05
  -7.540128e+05  -6.910379e+05
   1.541360e+05  -1.028301e+06
   5.340966e+05  -7.439721e+05
   8.871934e+04  -4.197257e+05
  -4.048995e+05  -3.640177e+05
  -3.509394e+04  -3.855377e+05
   1.132992e+06  -1.491625e+05
   2.003958e+06   4.328644e+05
   1.543685e+06   1.098591e+06
  -9.324250e+04   1.397748e+06
  -1.608672e+06   1.033226e+06
  -1.816184e+06   1.922181e+05
  -8.022213e+05  -5.023666e+05
   2.792934e+05  -5.329683e+05
   4.974174e+05  -1.681253e+04
  -5.113616e+03   4.013513e+05
  -4.624398e+05   2.275299e+05
  -4.544715e+05  -3.656460e+05
  -1.924266e+05  -7.389745e+05
  -5.032698e+04  -4.851069e+05
  -1.395225e+05   1.008238e+05
  -3.028257e+05   2.967690e+05
  -2.636405e+05  -2.387886e+05
   1.986141e+05  -9.767616e+05
   9.439405e+05  -1.005445e+06
   1.336532e+06  -8.607357e+04
   7.737201e+05   9.550700e+05
  -4.739483e+05   1.088614e+06
  -1.254017e+06   2.471777e+05
  -6.950979e+05  -6.127443e+05
   7.240180e+05  -6.076606e+05
   1.573985e+06   1.668529e+05
   9.740339e+05   8.973450e+05
  -5.101875e+05   9.647165e+05
  -1.508917e+06   4.219576e+05
  -1.225094e+06  -2.366396e+05
  -1.162920e+05  -5.187974e+05
   6.545112e+05  -2.411065e+05
   3.598510e+05   3.079109e+05
  -6.168643e+05   4.832214e+05
  -1.172459e+06  -1.523343e+05
  -5.945426e+05  -1.216821e+06
   6.898866e+05  -1.660169e+06
   1.529509e+06  -7.966016e+05
   1.210121e+06   8.224287e+05
   1.087470e+05   1.794730e+06
  -8.000423e+05   1.255735e+06
  -9.101972e+05  -2.137138e+05
  -3.758975e+05  -1.202694e+06
   2.549898e+05  -9.545281e+05
   5.583100e+05  -5.864380e+04
   4.523687e+05   3.976652e+05
   1.648438e+05   1.443805e+05
   4.967503e+04  -9.346529e+04
   2.505496e+05   3.073342e+05
   4.529435e+05   9.867808e+05
   1.441747e+05   1.080523e+06
  -7.205026e+05   3.535467e+05
  -1.444892e+06  -5.371612e+05
  -1.238144e+06  -8.934481e+05
  -1.486786e+05  -7.017271e+05
   8.760305e+05  -3.765381e+05
   9.888985e+05  -1.351727e+05
   3.493111e+05   7.042740e+04
  -1.589541e+05   2.179833e+05
  -3.822419e+04   2.008707e+05
   2.673884e+05   1.053687e+05
   4.258185e+04   1.368100e+05
  -6.772655e+05   2.054222e+05
  -1.042310e+06  -6.437043e+04
  -3.893944e+05  -7.160774e+05
   9.024925e+05  -1.133221e+06
   1.729615e+06  -6.641098e+05
   1.381609e+06   5.057701e+05
   2.051501e+05   1.415627e+06
  -8.305195e+05   1.330087e+06
  -1.073706e+06   4.835179e+05
  -6.447279e+05  -2.632307e+05
  -1.153186e+05  -3.651641e+05
   7.812079e+04  -6.546017e+04
  -7.757684e+04   1.301071e+04
  -2.813820e+05  -3.776767e+05
  -2.085751e+05  -8.152000e+05
   2.121749e+05  -6.691782e+05
   6.767570e+05   1.521689e+05
   6.944663e+05   9.860476e+05
   6.591170e+04   1.038294e+06
  -7.664535e+05   2.145136e+05
  -1.001696e+06  -7.673233e+05
  -2.964692e+05  -1.104424e+06
   7.448885e+05  -6.428632e+05
   1.112182e+06   1.279773e+05
   4.985438e+05   6.371819e+05
  -3.209545e+05   6.624854e+05
  -3.961803e+05   3.458336e+05
   2.467050e+05   1.650561e+04
   6.490775e+05  -1.045794e+04
   1.312173e+05   3.150433e+05
  -8.533814e+05   6.377922e+05
  -1.277389e+06   4.753372e+05
  -7.488557e+05  -2.171182e+05
   1.378332e+05  -8.624839e+05
   5.923905e+05  -8.242177e+05
   4.356559e+05  -1.385235e+05
   3.406134e+04   4.813069e+05
  -2.599925e+05   4.244411e+05
  -3.475984e+05  -1.607734e+05
  -2.273992e+05  -5.872354e+05
   7.479357e+04  -4.259163e+05
   3.893898e+05   6.152910e+04
   4.592784e+05   3.038721e+05
   2.348359e+05   1.083521e+05
  -2.557254e+04  -1.545606e+05
  -7.444992e+04  -5.014377e+04
   1.281855e+03   3.567244e+05
  -7.439737e+04   5.557407e+05
  -3.331458e+05   2.098568e+05
  -4.472642e+05  -4.006860e+05
  -1.322565e+05  -6.587582e+05
   4.213240e+05  -2.985624e+05
   6.540516e+05   3.085553e+05
   2.307172e+05   5.835217e+05
  -5.232587e+05   3.411701e+05
  -8.798620e+05  -1.150649e+05
  -4.619055e+05  -3.986552e+05
   3.134302e+05  -3.884066e+05
   6.516147e+05  -2.009584e+05
   2.535449e+05  -4.537908e+03
  -3.478845e+05   5.994915e+04
  -4.065858e+05  -7.608945e+04
   1.747639e+05  -2.843456e+05
   7.480362e+05  -2.440554e+05
