
 $NMID
 id='ANONYMOUS ', fmtdat='(2E16.6)'
 volume=1.0
 tramp=1.0
 $END
   3.009085e+07   7.404182e+05
   1.913774e+07   1.613619e+07
  -1.788661e+06   1.952527e+07
  -1.392615e+07   1.077346e+07
  -1.031222e+07  -6.555408e+05
   2.550024e+05  -5.323360e+06
   5.939590e+06  -1.482512e+06
   3.501609e+06   5.102851e+06
  -2.254494e+06   7.240646e+06
  -5.614025e+06   2.734346e+06
  -4.438182e+06  -3.855624e+06
  -3.963172e+05  -5.812657e+06
   2.717542e+06  -1.291309e+06
   1.914730e+06   4.585333e+06
  -2.010545e+06   5.308316e+06
  -4.827631e+06   4.653947e+04
  -3.192138e+06  -5.891429e+06
   1.756162e+06  -7.124268e+06
   5.748559e+06  -3.314173e+06
   5.805867e+06   1.687164e+06
   2.723367e+06   4.226114e+06
  -2.624614e+05   3.730157e+06
  -6.330802e+05   2.254872e+06
   1.133503e+06   2.066540e+06
   1.952685e+06   3.393561e+06
  -6.347363e+05   4.217851e+06
  -5.187853e+06   2.577104e+06
  -7.215052e+06  -9.172211e+05
  -4.166314e+06  -3.465703e+06
   1.207076e+06  -3.093719e+06
   3.715134e+06  -6.083902e+05
   1.526843e+06   1.571923e+06
  -2.235118e+06   1.731572e+06
  -3.569273e+06  -1.592357e+05
  -1.785234e+06  -2.681230e+06
   7.634005e+05  -3.682190e+06
   1.794534e+06  -1.919162e+06
   1.028068e+06   1.117655e+06
  -2.358674e+05   2.085372e+06
  -5.069502e+05  -2.579388e+05
   6.433478e+05  -2.891319e+06
   2.040918e+06  -2.035902e+06
   1.836934e+06   1.658962e+06
  -4.161923e+05   3.545536e+06
  -2.763283e+06   9.398583e+05
  -2.570683e+06  -3.333869e+06
   5.950971e+05  -4.468028e+06
   4.177490e+06  -1.337039e+06
   4.925346e+06   2.770213e+06
   1.965522e+06   4.238345e+06
  -2.300384e+06   2.471746e+06
  -4.289445e+06  -4.807221e+05
  -2.497180e+06  -2.210506e+06
   1.068482e+06  -1.693690e+06
   2.880466e+06   1.856771e+05
   1.524812e+06   1.444106e+06
  -9.370235e+05   8.880548e+05
  -1.525596e+06  -6.137902e+05
   1.607305e+05  -1.169481e+06
   1.685386e+06  -1.290798e+05
   8.834868e+05   1.262942e+06
  -1.573233e+06   1.443098e+06
  -3.029356e+06   7.873817e+04
  -1.740919e+06  -1.970386e+06
   1.478041e+06  -3.415327e+06
   4.187573e+06  -3.075761e+06
   4.514869e+06  -6.167346e+05
   2.595498e+06   2.647797e+06
   2.088560e+05   4.412480e+06
  -9.682369e+05   3.640638e+06
  -8.528664e+05   1.753218e+06
  -6.917085e+05   8.285041e+05
  -1.390236e+06   1.010860e+06
  -2.421804e+06   6.649110e+05
  -2.528286e+06  -1.006526e+06
  -1.198909e+06  -2.600984e+06
   7.840218e+05  -2.229700e+06
   2.037208e+06   9.081996e+04
   1.606482e+06   2.363483e+06
  -3.449353e+05   2.663778e+06
  -2.465509e+06   8.605178e+05
  -3.085899e+06  -1.526596e+06
  -1.721216e+06  -2.804108e+06
   3.209828e+05  -2.476787e+06
   1.319212e+06  -1.424931e+06
   1.124353e+06  -8.163360e+05
   1.185409e+06  -8.492101e+05
   2.412834e+06  -6.661426e+05
   3.667801e+06   5.036871e+05
   2.987003e+06   2.335534e+06
   7.689174e+04   3.622643e+06
  -3.028097e+06   3.334340e+06
  -3.933356e+06   1.464872e+06
  -2.218320e+06  -8.673240e+05
   2.903452e+05  -2.100550e+06
   1.372799e+06  -1.454657e+06
   4.436211e+05   2.032846e+05
  -1.130947e+06   1.046023e+06
  -1.587258e+06   2.468427e+05
  -5.711929e+05  -1.008023e+06
   6.393864e+05  -9.813799e+05
   6.444292e+05   3.216666e+05
  -5.586421e+05   1.038384e+06
  -1.650513e+06  -2.063852e+05
  -1.369257e+06  -2.469329e+06
   3.598837e+05  -3.459740e+06
   2.443791e+06  -2.032298e+06
   3.458329e+06   7.157069e+05
   2.640281e+06   2.679391e+06
   5.317238e+05   2.693871e+06
  -1.283000e+06   1.317252e+06
  -1.507750e+06   5.778842e+04
  -4.425080e+05  -5.655346e+04
   3.144544e+05   6.741492e+05
  -2.932788e+05   1.084833e+06
  -1.512250e+06   4.677065e+05
  -1.710215e+06  -6.480089e+05
  -4.194199e+05  -1.134324e+06
   1.014502e+06  -5.509139e+05
   9.515699e+05   4.140599e+05
  -6.680071e+05   7.226777e+05
  -2.195194e+06  -1.500956e+04
  -1.951859e+06  -1.270956e+06
   7.103316e+04  -2.056075e+06
   2.170627e+06  -1.654646e+06
   2.554023e+06  -2.461674e+05
   1.047699e+06   1.069752e+06
  -7.822858e+05   1.173525e+06
  -1.219296e+06   1.013993e+05
  -5.940739e+04  -8.709388e+05
   1.340168e+06  -5.908325e+05
   1.548047e+06   6.539765e+05
   4.345429e+05   1.482285e+06
  -8.732016e+05   1.032822e+06
  -1.187166e+06  -1.030974e+05
  -3.626087e+05  -6.484969e+05
   6.184290e+05  -7.107040e+04
   5.954866e+05   9.323201e+05
  -5.947515e+05   1.232454e+06
  -1.831245e+06   3.756552e+05
  -1.769563e+06  -1.024627e+06
  -2.932101e+05  -1.846554e+06
   1.269845e+06  -1.443490e+06
   1.534605e+06  -2.163173e+05
   5.042083e+05   7.612975e+05
  -5.762697e+05   7.572720e+05
  -6.714919e+05   3.988466e+04
   3.967770e+04  -5.025984e+05
   5.974908e+05  -3.532224e+05
   3.927360e+05   1.228699e+05
  -2.666660e+05   1.749039e+05
  -5.475236e+05  -4.204956e+05
   6.705534e+04  -1.037459e+06
   1.214621e+06  -8.192553e+05
   1.868148e+06   3.929117e+05
   1.266818e+06   1.776301e+06
  -2.600958e+05   2.223126e+06
  -1.527116e+06   1.370558e+06
  -1.666313e+06  -5.942511e+04
  -9.495727e+05  -9.661242e+05
  -3.194781e+05  -9.035638e+05
  -2.598199e+05  -3.888506e+05
  -3.743439e+05  -2.182636e+05
  -4.364588e+04  -5.672535e+05
   7.535277e+05  -8.333326e+05
   1.361705e+06  -3.632166e+05
   1.074468e+06   7.196317e+05
  -1.751645e+05   1.482208e+06
  -1.609846e+06   1.048832e+06
  -2.096274e+06  -4.610933e+05
  -1.076360e+06  -1.905532e+06
   8.243499e+05  -2.119690e+06
   2.226071e+06  -9.878133e+05
   2.200907e+06   4.981640e+05
   1.058942e+06   1.242065e+06
  -9.864753e+04   1.049555e+06
  -5.083793e+05   6.221015e+05
  -3.329875e+05   6.474189e+05
  -2.394739e+05   1.026239e+06
  -5.932668e+05   1.040698e+06
  -1.102750e+06   2.229256e+05
  -1.149215e+06  -1.029518e+06
  -4.356544e+05  -1.744475e+06
   6.251384e+05  -1.288804e+06
   1.186164e+06   4.258149e+03
   7.527822e+05   1.116365e+06
  -2.714499e+05   1.252400e+06
  -9.370938e+05   4.865404e+05
  -7.139667e+05  -4.373387e+05
  -1.656093e+04  -8.611042e+05
   3.200869e+05  -7.331216e+05
   1.553191e+04  -4.562429e+05
  -3.469952e+05  -3.557155e+05
  -2.039854e+04  -3.653157e+05
   9.837951e+05  -1.896621e+05
   1.774875e+06   3.100038e+05
   1.444331e+06   9.177101e+05
   4.946594e+04   1.220806e+06
  -1.334029e+06   9.635165e+05
  -1.626394e+06   2.926353e+05
  -7.964269e+05  -3.180409e+05
   1.860895e+05  -4.410097e+05
   4.274400e+05  -8.311152e+04
  -2.569201e+04   2.875366e+05
  -4.577041e+05   1.914121e+05
  -4.089477e+05  -3.264510e+05
  -9.378096e+04  -6.901748e+05
   3.376786e+04  -4.398531e+05
  -1.447231e+05   1.601425e+05
  -3.550408e+05   3.511281e+05
  -2.669488e+05  -2.063388e+05
   2.135767e+05  -9.285301e+05
   8.398228e+05  -9.238774e+05
   1.105901e+06  -5.446384e+04
   6.162751e+05   8.521052e+05
  -4.036331e+05   9.186982e+05
  -1.070747e+06   1.664677e+05
  -6.313339e+05  -5.781438e+05
   6.297570e+05  -5.956261e+05
   1.499261e+06   7.090251e+04
   1.046016e+06   7.940607e+05
  -3.637427e+05   9.898035e+05
  -1.421860e+06   5.534315e+05
  -1.228791e+06  -1.309469e+05
  -1.653151e+05  -5.041417e+05
   5.913190e+05  -2.830981e+05
   3.092686e+05   2.421884e+05
  -5.986782e+05   4.030948e+05
  -1.063290e+06  -1.914189e+05
  -4.747378e+05  -1.137020e+06
   7.082314e+05  -1.489939e+06
   1.439185e+06  -6.854380e+05
   1.119537e+06   7.775248e+05
   1.107707e+05   1.678539e+06
  -7.294837e+05   1.225976e+06
  -8.721401e+05  -1.252382e+05
  -4.323171e+05  -1.108064e+06
   1.459833e+05  -9.451165e+05
   4.967189e+05  -1.007669e+05
   4.832500e+05   3.831267e+05
   2.180150e+05   1.608232e+05
   2.162673e+04  -1.111596e+05
   1.478550e+05   2.236653e+05
   4.016887e+05   8.835636e+05
   2.284728e+05   1.024513e+06
  -5.727955e+05   3.652306e+05
  -1.361228e+06  -4.806465e+05
  -1.237624e+06  -8.196488e+05
  -1.597003e+05  -6.338265e+05
   8.721670e+05  -3.454000e+05
   9.432387e+05  -1.614774e+05
   2.740629e+05   1.367100e+04
  -1.692957e+05   1.936060e+05
   4.061410e+04   2.359040e+05
   3.263418e+05   1.506916e+05
   7.115090e+03   1.274169e+05
  -7.102608e+05   1.524241e+05
  -9.498202e+05  -7.599701e+04
  -2.438973e+05  -6.293495e+05
   8.991083e+05  -9.920160e+05
   1.528842e+06  -5.694255e+05
   1.169352e+06   4.935337e+05
   1.621635e+05   1.316362e+06
  -7.341817e+05   1.207346e+06
  -9.800514e+05   3.949936e+05
  -6.023864e+05  -2.881918e+05
  -7.213163e+04  -3.306545e+05
   1.373421e+05  -2.708942e+03
  -5.196817e+04   7.181150e+04
  -3.031590e+05  -3.271432e+05
  -2.293128e+05  -7.549335e+05
   2.078344e+05  -5.980232e+05
   6.336283e+05   1.959087e+05
   5.874233e+05   9.556601e+05
  -2.523256e+04   9.370416e+05
  -7.450722e+05   1.158329e+05
  -8.898177e+05  -7.747107e+05
  -2.232579e+05  -1.007098e+06
   6.915951e+05  -5.333864e+05
   9.835760e+05   1.347953e+05
   4.219359e+05   5.274400e+05
  -2.809254e+05   5.399679e+05
  -2.980540e+05   3.101288e+05
   2.952461e+05   5.119328e+04
   6.159299e+05   3.632811e+03
   9.838564e+04   2.734399e+05
  -7.870478e+05   5.991995e+05
  -1.122523e+06   5.016292e+05
  -6.264285e+05  -1.339633e+05
   1.289519e+05  -7.658316e+05
   4.790614e+05  -7.388743e+05
   3.238455e+05  -8.515260e+04
  -1.001720e+04   4.684579e+05
  -2.483955e+05   3.507663e+05
  -3.165452e+05  -2.124628e+05
  -1.988710e+05  -5.425402e+05
   7.921674e+04  -3.317042e+05
   3.524240e+05   8.484691e+04
   4.060523e+05   2.326096e+05
   2.207028e+05   5.965545e+04
   2.846314e+03  -8.798070e+04
  -8.044508e+04   5.829923e+04
  -9.381456e+04   3.590442e+05
  -1.875105e+05   4.253794e+05
  -3.333964e+05   7.007600e+04
  -3.160453e+05  -4.362223e+05
  -4.571631e+03  -6.032402e+05
   4.178460e+05  -2.379338e+05
   5.531383e+05   3.237297e+05
   1.744046e+05   5.602843e+05
  -4.622798e+05   3.057075e+05
  -7.679411e+05  -1.329776e+05
  -4.047014e+05  -3.677350e+05
   2.837745e+05  -3.079608e+05
   5.757053e+05  -1.254212e+05
   1.812034e+05   6.008098e+02
  -3.854536e+05  -7.339189e+03
  -3.931997e+05  -1.477070e+05
   2.258328e+05  -2.974759e+05
   7.855766e+05  -2.075667e+05
