
 $NMID
 id='ANONYMOUS ', fmtdat='(2E16.6)'
 volume=1.0
 tramp=1.0
 $END
  -2.552753e+07   9.980794e+04
  -1.732438e+07  -1.170372e+07
  -3.071906e+05  -1.618064e+07
   1.098047e+07  -1.113387e+07
   9.519017e+06  -1.396834e+06
   7.591144e+05   4.685312e+06
  -5.308030e+06   2.563269e+06
  -4.176026e+06  -4.119584e+06
   1.090971e+06  -7.348728e+06
   4.877307e+06  -3.372356e+06
   4.265801e+06   3.369894e+06
   5.443731e+05   5.527640e+06
  -2.547336e+06   1.116665e+06
  -2.057361e+06  -4.652842e+06
   1.497308e+06  -5.483781e+06
   4.400428e+06  -6.035327e+05
   3.337379e+06   5.097545e+06
  -1.094446e+06   6.522815e+06
  -4.935758e+06   3.104785e+06
  -5.008501e+06  -1.518368e+06
  -2.054987e+06  -3.604833e+06
   4.096979e+05  -2.727250e+06
  -7.736298e+03  -1.438412e+06
  -2.111343e+06  -2.022014e+06
  -2.473384e+06  -3.934306e+06
   7.673398e+05  -4.603590e+06
   5.462632e+06  -2.495780e+06
   7.186761e+06   1.101073e+06
   3.866873e+06   3.413585e+06
  -1.578653e+06   2.863988e+06
  -3.994112e+06   2.735021e+05
  -1.458707e+06  -2.069157e+06
   2.788968e+06  -2.176219e+06
   4.219669e+06   2.077680e+05
   1.932189e+06   3.174579e+06
  -1.075009e+06   3.957682e+06
  -1.872995e+06   1.630405e+06
  -5.684649e+05  -1.446199e+06
   7.008947e+05  -1.852312e+06
   4.911313e+05   8.489312e+05
  -8.505707e+05   3.273208e+06
  -2.020239e+06   2.208640e+06
  -1.885836e+06  -1.310916e+06
  -2.229903e+05  -3.148590e+06
   1.825562e+06  -1.091986e+06
   2.212434e+06   2.545888e+06
  -1.298253e+05   3.758334e+06
  -3.596533e+06   1.306156e+06
  -4.884433e+06  -2.361243e+06
  -2.317615e+06  -4.026863e+06
   2.075062e+06  -2.696656e+06
   4.395036e+06   7.278280e+04
   2.808487e+06   1.949273e+06
  -7.217253e+05   1.736518e+06
  -2.676556e+06   1.095544e+05
  -1.592566e+06  -1.156984e+06
   7.658209e+05  -8.654072e+05
   1.616329e+06   4.913066e+05
   1.888060e+05   1.334685e+06
  -1.598481e+06   7.120859e+05
  -1.403715e+06  -7.382774e+05
   8.249203e+05  -1.488415e+06
   2.660483e+06  -5.818416e+05
   1.799558e+06   1.527538e+06
  -1.387624e+06   3.256091e+06
  -4.200102e+06   3.012938e+06
  -4.414775e+06   5.321457e+05
  -2.375279e+06  -2.634160e+06
  -1.950742e+05  -4.295527e+06
   6.678491e+05  -3.672100e+06
   6.093592e+05  -2.074033e+06
   8.591301e+05  -1.217412e+06
   1.849896e+06  -1.157306e+06
   2.816371e+06  -5.077419e+05
   2.696251e+06   1.329048e+06
   1.173374e+06   2.946579e+06
  -9.777711e+05   2.463175e+06
  -2.333728e+06  -9.736598e+04
  -1.808055e+06  -2.567416e+06
   3.632777e+05  -2.818771e+06
   2.551610e+06  -8.106574e+05
   3.022740e+06   1.625674e+06
   1.563008e+06   2.713294e+06
  -3.332497e+05   2.220809e+06
  -1.118888e+06   1.241264e+06
  -8.882979e+05   8.362815e+05
  -1.074235e+06   1.006111e+06
  -2.438022e+06   8.606824e+05
  -3.797578e+06  -3.363480e+05
  -3.181378e+06  -2.293361e+06
  -2.071991e+05  -3.773297e+06
   3.095676e+06  -3.564094e+06
   4.128677e+06  -1.556056e+06
   2.311447e+06   9.719475e+05
  -3.859912e+05   2.243977e+06
  -1.499917e+06   1.495714e+06
  -4.538624e+05  -2.458140e+05
   1.191255e+06  -1.100718e+06
   1.615184e+06  -2.874909e+05
   5.603255e+05   1.011312e+06
  -6.824135e+05   1.048570e+06
  -7.650511e+05  -3.006501e+05
   4.213478e+05  -1.232510e+06
   1.728044e+06  -1.357441e+05
   1.769334e+06   2.332920e+06
   8.469105e+04   3.760308e+06
  -2.366475e+06   2.540471e+06
  -3.803952e+06  -4.374788e+05
  -3.058433e+06  -2.767378e+06
  -7.018978e+05  -2.911716e+06
   1.346614e+06  -1.433206e+06
   1.607625e+06  -7.538011e+04
   4.667108e+05   4.633255e+04
  -3.531784e+05  -6.929955e+05
   2.407343e+05  -1.109683e+06
   1.502931e+06  -5.323310e+05
   1.779755e+06   5.642723e+05
   5.071612e+05   1.126257e+06
  -1.026577e+06   6.274033e+05
  -1.058293e+06  -3.961749e+05
   6.420438e+05  -8.600629e+05
   2.372917e+06  -1.542773e+05
   2.214551e+06   1.270521e+06
   5.448991e+04   2.245448e+06
  -2.239241e+06   1.872089e+06
  -2.686274e+06   3.594985e+05
  -1.126189e+06  -1.057910e+06
   7.593506e+05  -1.205172e+06
   1.216088e+06  -1.331038e+05
   5.860425e+04   8.779090e+05
  -1.372823e+06   6.489472e+05
  -1.648120e+06  -6.079026e+05
  -5.559970e+05  -1.533280e+06
   8.375125e+05  -1.164906e+06
   1.263732e+06   3.403545e+03
   4.502183e+05   6.449584e+05
  -6.122973e+05   1.033345e+05
  -6.367954e+05  -9.491736e+05
   6.009905e+05  -1.298200e+06
   1.912799e+06  -4.282876e+05
   1.874854e+06   1.030409e+06
   3.632994e+05   1.917175e+06
  -1.265223e+06   1.551975e+06
  -1.593432e+06   2.973527e+05
  -5.759775e+05  -7.693087e+05
   5.667772e+05  -8.264864e+05
   7.327341e+05  -6.064755e+04
  -4.109279e+02   5.822333e+05
  -6.600755e+05   4.449961e+05
  -5.045857e+05  -1.326561e+05
   2.296528e+05  -2.692413e+05
   6.155074e+05   3.621969e+05
   6.852772e+03   1.080618e+06
  -1.232694e+06   9.102198e+05
  -1.972177e+06  -3.457687e+05
  -1.381072e+06  -1.821627e+06
   2.055505e+05  -2.355336e+06
   1.569322e+06  -1.529271e+06
   1.795478e+06  -2.186737e+04
   1.092099e+06   1.024797e+06
   3.843539e+05   1.035260e+06
   2.357165e+05   4.598467e+05
   3.405117e+05   1.963059e+05
   5.452806e+04   5.564658e+05
  -7.475440e+05   9.108621e+05
  -1.433180e+06   4.562219e+05
  -1.196944e+06  -7.354104e+05
   1.096027e+05  -1.615014e+06
   1.666499e+06  -1.189175e+06
   2.239386e+06   4.097805e+05
   1.220499e+06   1.959852e+06
  -7.544525e+05   2.250171e+06
  -2.274294e+06   1.141217e+06
  -2.352950e+06  -4.043945e+05
  -1.222514e+06  -1.270299e+06
   3.292323e+04  -1.166419e+06
   5.575757e+05  -7.251667e+05
   4.073590e+05  -6.842120e+05
   2.583402e+05  -1.038834e+06
   5.786824e+05  -1.076450e+06
   1.128138e+06  -2.560836e+05
   1.227924e+06   1.052891e+06
   5.043071e+05   1.824511e+06
  -6.255945e+05   1.374265e+06
  -1.252401e+06   4.150415e+04
  -8.391304e+05  -1.128074e+06
   2.099941e+05  -1.321353e+06
   9.272018e+05  -5.843620e+05
   7.586013e+05   3.701943e+05
   9.053608e+04   8.667751e+05
  -2.547302e+05   7.885442e+05
   2.211421e+04   5.043068e+05
   3.647759e+05   3.774028e+05
   2.499433e+04   3.895963e+05
  -1.008531e+06   2.368331e+05
  -1.847039e+06  -2.606769e+05
  -1.545977e+06  -9.010821e+05
  -1.251728e+05  -1.253886e+06
   1.330592e+06  -1.040524e+06
   1.685613e+06  -3.839810e+05
   8.605140e+05   2.608632e+05
  -1.630710e+05   4.463118e+05
  -4.338513e+05   1.203468e+05
   3.381799e+04  -2.742682e+05
   4.922165e+05  -2.065181e+05
   4.341788e+05   3.326805e+05
   8.231688e+04   7.346781e+05
  -5.705982e+04   4.666995e+05
   1.518289e+05  -1.981778e+05
   3.915283e+05  -4.112135e+05
   2.938276e+05   2.058372e+05
  -2.163204e+05   9.964959e+05
  -8.556719e+05   9.892606e+05
  -1.119422e+06   6.381832e+04
  -6.297813e+05  -8.811070e+05
   3.990106e+05  -9.439323e+05
   1.097813e+06  -1.699945e+05
   6.755703e+05   6.025609e+05
  -6.360146e+05   6.530716e+05
  -1.597385e+06  -9.507770e+03
  -1.174513e+06  -7.953864e+05
   3.174255e+05  -1.084146e+06
   1.491395e+06  -6.775505e+05
   1.332074e+06   7.399575e+04
   2.084119e+05   5.350470e+05
  -6.100050e+05   3.334734e+05
  -3.205633e+05  -2.344916e+05
   6.369671e+05  -4.235220e+05
   1.122247e+06   1.999442e+05
   4.979695e+05   1.199841e+06
  -7.457879e+05   1.576049e+06
  -1.518357e+06   7.367406e+05
  -1.200470e+06  -8.042623e+05
  -1.573653e+05  -1.777710e+06
   7.373332e+05  -1.334468e+06
   9.314081e+05   8.497482e+04
   5.117242e+05   1.155158e+06
  -9.689879e+04   1.019869e+06
  -5.125212e+05   1.332734e+05
  -5.438663e+05  -3.966281e+05
  -2.599458e+05  -1.717662e+05
  -9.918543e+03   1.258905e+05
  -1.258976e+05  -2.151020e+05
  -4.349836e+05  -9.150337e+05
  -3.003866e+05  -1.081698e+06
   5.600410e+05  -4.071076e+05
   1.456887e+06   4.715703e+05
   1.359414e+06   8.321414e+05
   1.895385e+05   6.593653e+05
  -9.377770e+05   3.857964e+05
  -1.001908e+06   2.058554e+05
  -2.684761e+05   7.891121e+03
   1.836083e+05  -2.064701e+05
  -7.931683e+04  -2.630331e+05
  -3.806566e+05  -1.678755e+05
   1.985633e+03  -1.365430e+05
   7.809121e+05  -1.665866e+05
   1.000670e+06   6.724072e+04
   2.253209e+05   6.539901e+05
  -9.564454e+05   1.049695e+06
  -1.579195e+06   6.130364e+05
  -1.206569e+06  -5.126864e+05
  -1.891065e+05  -1.391675e+06
   7.387989e+05  -1.280542e+06
   1.025191e+06  -4.175176e+05
   6.472696e+05   3.082805e+05
   6.972859e+04   3.470443e+05
  -1.728322e+05  -1.235826e+04
   4.254290e+04  -9.833212e+04
   3.420622e+05   3.284343e+05
   2.719907e+05   7.909839e+05
  -2.124170e+05   6.289795e+05
  -6.795651e+05  -2.138773e+05
  -6.226845e+05  -1.016801e+06
   4.058655e+04  -9.867389e+05
   8.031123e+05  -1.091404e+05
   9.464704e+05   8.263251e+05
   2.371444e+05   1.056885e+06
  -7.239838e+05   5.552571e+05
  -1.026004e+06  -1.304542e+05
  -4.385896e+05  -5.272729e+05
   2.835805e+05  -5.480439e+05
   2.830870e+05  -3.263465e+05
  -3.404248e+05  -5.759235e+04
  -6.574981e+05   4.985463e+03
  -1.000233e+05  -2.814175e+05
   8.175555e+05  -6.531133e+05
   1.149714e+06  -5.737171e+05
   6.359859e+05   1.069188e+05
  -1.224307e+05   7.999949e+05
  -4.659964e+05   7.780519e+05
  -3.130600e+05   7.608240e+04
   1.501561e+04  -5.063511e+05
   2.604537e+05  -3.605585e+05
   3.407333e+05   2.421290e+05
   2.172215e+05   5.694840e+05
  -8.404022e+04   3.292874e+05
  -3.728514e+05  -9.315505e+04
  -4.241352e+05  -2.200122e+05
  -2.334714e+05  -4.290837e+04
  -1.427139e+04   7.380814e+04
   8.215251e+04  -1.033859e+05
   1.256484e+05  -3.977323e+05
   2.389024e+05  -4.268304e+05
   3.674037e+05  -3.583295e+04
   3.101400e+05   4.845394e+05
  -2.713508e+04   6.417485e+05
  -4.492754e+05   2.474278e+05
  -5.739468e+05  -3.477999e+05
  -1.825642e+05  -5.982873e+05
   4.743905e+05  -3.277958e+05
   7.984424e+05   1.369190e+05
   4.268327e+05   3.809084e+05
  -2.939376e+05   3.117329e+05
  -5.989399e+05   1.204069e+05
  -1.717181e+05  -1.654598e+03
   4.349668e+05   1.957607e+04
   4.294702e+05   1.758643e+05
  -2.544973e+05   3.357423e+05
  -8.619750e+05   2.344480e+05
