
 $NMID
 id='ANONYMOUS ', fmtdat='(2E16.6)'
 volume=1.0
 tramp=1.0
 $END
  -4.160989e+07   1.128095e+05
  -2.561163e+07  -2.389842e+07
   4.003444e+06  -2.747102e+07
   1.943104e+07  -1.261413e+07
   1.272286e+07   3.126601e+06
  -1.468333e+06   6.933192e+06
  -7.407155e+06   4.568507e+05
  -3.251792e+06  -6.890506e+06
   3.647125e+06  -8.081833e+06
   7.168903e+06  -2.543165e+06
   5.666074e+06   4.729537e+06
   7.965920e+05   7.015694e+06
  -3.259228e+06   2.029486e+06
  -2.457092e+06  -4.863419e+06
   2.517105e+06  -5.870190e+06
   6.081227e+06   4.203198e+05
   3.876559e+06   7.639402e+06
  -2.440420e+06   9.165697e+06
  -7.573859e+06   4.580259e+06
  -8.073882e+06  -1.733906e+06
  -4.528577e+06  -5.671965e+06
  -1.471049e+05  -5.945319e+06
   1.680972e+06  -3.849099e+06
   9.120530e+04  -2.126111e+06
  -1.837253e+06  -2.681583e+06
  -1.414656e+04  -4.266509e+06
   5.197790e+06  -3.670365e+06
   8.390658e+06  -2.506855e+04
   5.596269e+06   3.631870e+06
  -4.677929e+05   4.091100e+06
  -3.760660e+06   1.694069e+06
  -2.109390e+06  -8.219699e+05
   1.369501e+06  -1.591201e+06
   3.033685e+06  -4.051021e+05
   2.184973e+06   2.036632e+06
   9.217811e+04   3.899014e+06
  -1.769417e+06   2.874300e+06
  -2.111322e+06  -7.111321e+05
  -6.726559e+05  -2.867974e+06
   7.440828e+05  -7.194143e+05
  -1.296381e+04   2.779481e+06
  -2.110647e+06   2.251745e+06
  -2.126707e+06  -2.247201e+06
   1.209898e+06  -4.600045e+06
   4.540613e+06  -9.343336e+05
   3.708685e+06   4.870717e+06
  -1.100247e+06   6.210339e+06
  -5.565377e+06   1.901303e+06
  -5.887287e+06  -3.304286e+06
  -2.075409e+06  -4.893273e+06
   2.675027e+06  -2.652690e+06
   4.684566e+06   7.292498e+05
   2.532146e+06   2.613575e+06
  -1.578818e+06   1.909754e+06
  -3.571671e+06  -4.152067e+05
  -1.733954e+06  -1.929065e+06
   1.246476e+06  -1.115713e+06
   1.633574e+06   7.125576e+05
  -5.869843e+05   1.010912e+06
  -1.931364e+06  -6.329396e+05
  -1.967172e+05  -2.089513e+06
   2.844104e+06  -1.589619e+06
   3.946835e+06   4.771604e+05
   2.012722e+06   2.769787e+06
  -1.502894e+06   4.294098e+06
  -4.442278e+06   4.057712e+06
  -5.261831e+06   1.301170e+06
  -3.597170e+06  -2.807182e+06
  -7.114173e+05  -5.200610e+06
   1.194727e+06  -4.146878e+06
   1.121349e+06  -1.526575e+06
   3.597487e+05  -4.211757e+05
   7.055720e+05  -1.147069e+06
   2.075165e+06  -1.341396e+06
   2.771855e+06   3.211782e+05
   1.750755e+06   2.273317e+06
  -2.898938e+05   2.277954e+06
  -1.843778e+06   1.847944e+05
  -1.793206e+06  -2.144439e+06
   4.518106e+04  -2.820299e+06
   2.583599e+06  -1.342829e+06
   3.801365e+06   1.259636e+06
   2.502586e+06   3.191346e+06
  -1.309779e+05   3.278486e+06
  -1.716252e+06   2.026619e+06
  -1.578908e+06   9.721567e+05
  -1.413019e+06   8.155311e+05
  -2.599318e+06   7.010388e+05
  -3.988077e+06  -4.343268e+05
  -3.326546e+06  -2.375721e+06
  -2.891791e+05  -3.847108e+06
   2.941425e+06  -3.757696e+06
   3.989196e+06  -1.977340e+06
   2.487446e+06   5.601636e+05
   7.804971e+04   2.206740e+06
  -1.190191e+06   1.763564e+06
  -5.170708e+05  -1.082068e+05
   1.064470e+06  -1.232805e+06
   1.724005e+06  -3.925970e+05
   7.777061e+05   1.080108e+06
  -5.340665e+05   1.084986e+06
  -5.635617e+05  -3.041488e+05
   7.088360e+05  -8.947518e+05
   1.703553e+06   6.032976e+05
   1.142258e+06   2.810735e+06
  -7.058121e+05   3.402167e+06
  -2.593983e+06   1.731721e+06
  -3.400892e+06  -8.334798e+05
  -2.631299e+06  -2.546663e+06
  -6.578473e+05  -2.624495e+06
   1.196319e+06  -1.461846e+06
   1.546403e+06  -2.190556e+05
   4.698040e+05   2.844271e+04
  -3.696392e+05  -6.944051e+05
   2.983684e+05  -1.213310e+06
   1.672055e+06  -5.862763e+05
   1.884747e+06   6.750333e+05
   4.555607e+05   1.237933e+06
  -1.056798e+06   6.107310e+05
  -9.453153e+05  -3.761230e+05
   7.008905e+05  -6.600011e+05
   2.177321e+06   2.865602e+04
   1.927760e+06   1.189962e+06
  -3.062571e+04   2.014852e+06
  -2.141600e+06   1.773979e+06
  -2.645156e+06   3.947138e+05
  -1.178504e+06  -1.108917e+06
   7.948037e+05  -1.363727e+06
   1.375559e+06  -1.953118e+05
   1.640007e+05   9.717236e+05
  -1.396547e+06   7.266278e+05
  -1.659408e+06  -6.337346e+05
  -4.662845e+05  -1.532736e+06
   9.133527e+05  -1.046632e+06
   1.215857e+06   1.357865e+05
   3.386741e+05   6.838538e+05
  -6.968757e+05   8.911253e+04
  -7.084642e+05  -9.633642e+05
   5.265555e+05  -1.358178e+06
   1.902992e+06  -5.494571e+05
   1.953031e+06   9.501406e+05
   4.297830e+05   1.942905e+06
  -1.278170e+06   1.601988e+06
  -1.612855e+06   2.917713e+05
  -5.416787e+05  -7.829238e+05
   5.743303e+05  -8.078247e+05
   6.536300e+05  -9.718759e+04
  -4.114907e+04   4.348788e+05
  -5.214371e+05   3.251530e+05
  -2.769708e+05  -6.046878e+04
   3.291648e+05  -6.368367e+04
   5.455163e+05   5.058236e+05
  -8.098331e+04   1.105310e+06
  -1.251708e+06   9.163160e+05
  -1.991363e+06  -3.077136e+05
  -1.453786e+06  -1.794228e+06
   1.228863e+05  -2.334984e+06
   1.493266e+06  -1.474281e+06
   1.678639e+06  -3.551128e+03
   9.664862e+05   8.751928e+05
   3.836912e+05   7.683673e+05
   3.927444e+05   3.064586e+05
   5.004444e+05   2.547002e+05
   8.810827e+04   6.601851e+05
  -7.677653e+05   9.026755e+05
  -1.381099e+06   4.186829e+05
  -1.104900e+06  -6.591919e+05
   1.248192e+05  -1.479219e+06
   1.605304e+06  -1.146833e+06
   2.194293e+06   3.602143e+05
   1.202602e+06   1.939765e+06
  -8.038261e+05   2.274010e+06
  -2.321963e+06   1.119523e+06
  -2.292732e+06  -4.562348e+05
  -1.077091e+06  -1.222288e+06
   8.379484e+04  -1.001426e+06
   4.113670e+05  -6.052657e+05
   1.819634e+05  -7.299005e+05
   1.313443e+05  -1.179605e+06
   5.830241e+05  -1.187861e+06
   1.185390e+06  -3.214699e+05
   1.295134e+06   9.978080e+05
   5.853870e+05   1.797408e+06
  -5.575774e+05   1.395486e+06
  -1.233892e+06   5.945277e+04
  -8.363277e+05  -1.155687e+06
   2.635361e+05  -1.330023e+06
   1.011784e+06  -4.902960e+05
   7.714906e+05   5.244928e+05
  -1.137703e+04   9.544256e+05
  -3.830668e+05   7.634294e+05
  -2.008689e+04   4.345323e+05
   4.097346e+05   3.309856e+05
   5.931545e+04   3.750208e+05
  -1.052571e+06   2.472485e+05
  -1.928892e+06  -2.339786e+05
  -1.573157e+06  -9.006603e+05
  -6.662714e+04  -1.315256e+06
   1.409634e+06  -1.110962e+06
   1.706520e+06  -3.680679e+05
   8.230697e+05   3.581494e+05
  -2.032493e+05   5.087963e+05
  -4.602742e+05   7.967862e+04
  -1.090270e+04  -3.559744e+05
   4.430122e+05  -2.510217e+05
   4.620008e+05   3.139351e+05
   2.090644e+05   7.088718e+05
   5.229483e+04   4.675156e+05
   1.284601e+05  -1.373396e+05
   2.951047e+05  -3.470441e+05
   2.815023e+05   2.041788e+05
  -1.280716e+05   9.725207e+05
  -8.225999e+05   1.037682e+06
  -1.233074e+06   1.633192e+05
  -7.766938e+05  -8.588756e+05
   3.675461e+05  -1.048415e+06
   1.160772e+06  -3.020353e+05
   7.148125e+05   5.439410e+05
  -6.331212e+05   6.533213e+05
  -1.544050e+06  -1.784876e+03
  -1.066760e+06  -7.650200e+05
   3.658622e+05  -1.002531e+06
   1.422153e+06  -5.929620e+05
   1.233326e+06   9.042506e+04
   1.779008e+05   4.971830e+05
  -6.023760e+05   3.063197e+05
  -3.572764e+05  -2.541030e+05
   5.739827e+05  -4.977849e+05
   1.139047e+06   7.994994e+04
   6.374110e+05   1.140270e+06
  -5.710473e+05   1.643214e+06
  -1.429927e+06   8.680831e+05
  -1.233570e+06  -7.077148e+05
  -2.491226e+05  -1.731564e+06
   6.662428e+05  -1.299903e+06
   9.017824e+05   1.042268e+05
   4.895673e+05   1.123706e+06
  -1.311773e+05   9.590107e+05
  -5.227405e+05   1.164453e+05
  -4.949788e+05  -3.502883e+05
  -1.990981e+05  -1.323702e+05
  -2.847991e+04   1.021236e+05
  -2.258306e+05  -2.597949e+05
  -5.035473e+05  -9.073032e+05
  -2.634843e+05  -1.034134e+06
   6.267447e+05  -4.044308e+05
   1.445285e+06   3.986540e+05
   1.301718e+06   7.568910e+05
   2.053586e+05   6.583227e+05
  -8.426910e+05   4.352731e+05
  -9.532396e+05   2.239357e+05
  -3.183911e+05  -2.425905e+04
   1.462422e+05  -2.213297e+05
  -1.419788e+04  -2.111887e+05
  -3.030881e+05  -9.669172e+04
  -3.804869e+04  -1.321447e+05
   6.759961e+05  -2.419667e+05
   1.006881e+06  -9.754635e+03
   3.805019e+05   6.579228e+05
  -8.153873e+05   1.146052e+06
  -1.593799e+06   7.499089e+05
  -1.330896e+06  -4.019183e+05
  -2.962911e+05  -1.356590e+06
   6.880590e+05  -1.336059e+06
   9.990685e+05  -5.266710e+05
   6.489826e+05   2.228332e+05
   1.242988e+05   3.438858e+05
  -1.021294e+05   5.092006e+04
   6.079628e+04  -4.132522e+04
   3.162934e+05   3.304701e+05
   2.787064e+05   7.683081e+05
  -1.600503e+05   6.544879e+05
  -6.726961e+05  -1.170840e+05
  -7.273283e+05  -9.211206e+05
  -1.062535e+05  -9.950897e+05
   7.452820e+05  -2.353779e+05
   1.016812e+06   6.935283e+05
   3.491917e+05   1.042157e+06
  -6.762458e+05   6.532842e+05
  -1.066829e+06  -4.879038e+04
  -5.088951e+05  -5.551728e+05
   2.590080e+05  -6.331549e+05
   3.289063e+05  -3.542205e+05
  -2.702152e+05  -5.703936e+03
  -6.336879e+05   5.584837e+04
  -1.400609e+05  -2.888555e+05
   7.732409e+05  -6.851171e+05
   1.167432e+06  -5.775682e+05
   7.070237e+05   1.302804e+05
  -6.998510e+04   8.304639e+05
  -4.824479e+05   8.260173e+05
  -3.814455e+05   1.429555e+05
  -5.497899e+04  -4.753082e+05
   2.253113e+05  -4.135204e+05
   3.515528e+05   1.550260e+05
   2.600291e+05   5.503490e+05
  -4.890256e+04   3.924528e+05
  -3.799192e+05  -4.152814e+04
  -4.550214e+05  -2.398173e+05
  -2.331197e+05  -6.962602e+04
   2.096019e+04   1.270359e+05
   7.152237e+04  -1.141498e+03
   7.704556e+03  -3.643673e+05
   8.519174e+04  -5.162477e+05
   3.264672e+05  -1.797556e+05
   4.284251e+05   3.876680e+05
   1.297219e+05   6.335913e+05
  -3.987334e+05   3.075244e+05
  -6.374672e+05  -2.678429e+05
  -2.534341e+05  -5.575876e+05
   4.711045e+05  -3.638039e+05
   8.419990e+05   5.829382e+04
   4.673619e+05   3.509418e+05
  -2.746014e+05   3.776061e+05
  -6.077754e+05   2.171935e+05
  -2.231095e+05   1.752374e+04
   3.625594e+05  -6.434950e+04
   4.119711e+05   7.225244e+04
  -1.701318e+05   3.074867e+05
  -7.433325e+05   2.937904e+05
