
 $NMID
 id='ANONYMOUS ', fmtdat='(2E16.6)'
 volume=1.0
 tramp=1.0
 $END
  -2.084434e+07  -2.405868e+06
  -1.287046e+07  -9.861310e+06
   5.374083e+05  -1.237103e+07
   8.946809e+06  -8.965831e+06
   7.731920e+06  -1.744776e+06
   8.316184e+05   3.664040e+06
  -4.319810e+06   2.534046e+06
  -3.730922e+06  -3.231429e+06
   6.640068e+05  -6.449807e+06
   4.058229e+06  -3.009473e+06
   3.532195e+06   3.147150e+06
   2.050564e+05   4.973446e+06
  -2.406544e+06   7.443280e+05
  -1.798241e+06  -4.447005e+06
   1.308606e+06  -4.966913e+06
   3.683119e+06  -5.129439e+05
   2.650758e+06   4.408120e+06
  -1.185177e+06   5.434877e+06
  -4.364529e+06   2.220469e+06
  -4.064413e+06  -1.872791e+06
  -1.105402e+06  -3.353820e+06
   9.854166e+05  -1.985366e+06
  -1.007101e+04  -6.178490e+05
  -2.437144e+06  -1.603976e+06
  -2.625889e+06  -3.930686e+06
   8.854248e+05  -4.545624e+06
   5.429777e+06  -2.111760e+06
   6.718500e+06   1.515641e+06
   3.245306e+06   3.472853e+06
  -1.931845e+06   2.603238e+06
  -4.044471e+06  -4.201073e+04
  -1.406019e+06  -2.332370e+06
   2.883198e+06  -2.366192e+06
   4.341047e+06   1.950330e+05
   1.914758e+06   3.305985e+06
  -1.292364e+06   3.925212e+06
  -1.989807e+06   1.283858e+06
  -3.055197e+05  -1.751142e+06
   1.115066e+06  -1.732447e+06
   6.276283e+05   1.176873e+06
  -9.425661e+05   3.322797e+06
  -1.923964e+06   2.057490e+06
  -1.595451e+06  -1.097268e+06
  -2.810911e+05  -2.481851e+06
   1.147489e+06  -6.696261e+05
   1.433434e+06   2.157624e+06
  -2.983664e+05   2.912302e+06
  -3.094688e+06   8.045718e+05
  -4.271554e+06  -2.227016e+06
  -2.093831e+06  -3.625840e+06
   1.860412e+06  -2.466290e+06
   4.017597e+06   9.634877e+03
   2.613457e+06   1.695246e+06
  -5.438668e+05   1.483974e+06
  -2.278523e+06   6.467359e+04
  -1.362459e+06  -9.690483e+05
   6.685877e+05  -6.938127e+05
   1.495054e+06   4.361264e+05
   3.771122e+05   1.226918e+06
  -1.262815e+06   8.986840e+05
  -1.389257e+06  -2.569685e+05
   3.844615e+05  -1.098556e+06
   2.109379e+06  -5.707036e+05
   1.474375e+06   1.233772e+06
  -1.467926e+06   2.843982e+06
  -4.110030e+06   2.569570e+06
  -4.125900e+06   1.850678e+05
  -1.950004e+06  -2.657634e+06
   8.889229e+04  -3.961649e+06
   6.216360e+05  -3.305412e+06
   4.106149e+05  -2.006716e+06
   8.185388e+05  -1.387210e+06
   2.006180e+06  -1.247105e+06
   2.952677e+06  -3.868100e+05
   2.675025e+06   1.508441e+06
   1.061903e+06   3.031268e+06
  -1.068512e+06   2.466298e+06
  -2.357919e+06  -1.029026e+05
  -1.757154e+06  -2.540128e+06
   4.366183e+05  -2.717452e+06
   2.497907e+06  -6.306728e+05
   2.743093e+06   1.756846e+06
   1.194541e+06   2.621413e+06
  -5.278580e+05   1.910904e+06
  -1.057997e+06   9.185526e+05
  -7.240127e+05   6.599332e+05
  -9.300621e+05   9.381890e+05
  -2.265400e+06   8.069107e+05
  -3.548354e+06  -3.583653e+05
  -2.958206e+06  -2.207815e+06
  -1.363701e+05  -3.580021e+06
   3.029626e+06  -3.337886e+06
   4.022023e+06  -1.372472e+06
   2.207050e+06   1.054492e+06
  -4.784997e+05   2.200499e+06
  -1.540062e+06   1.394217e+06
  -4.347643e+05  -2.753373e+05
   1.185940e+06  -1.024668e+06
   1.527708e+06  -2.212497e+05
   4.674814e+05   9.811724e+05
  -6.933933e+05   1.002686e+06
  -7.656089e+05  -2.629167e+05
   3.023373e+05  -1.196935e+06
   1.542304e+06  -2.731608e+05
   1.724193e+06   2.040512e+06
   2.653534e+05   3.534152e+06
  -2.106062e+06   2.529735e+06
  -3.636438e+06  -3.074874e+05
  -3.000955e+06  -2.639614e+06
  -6.911700e+05  -2.824626e+06
   1.326489e+06  -1.364243e+06
   1.560031e+06  -3.606042e+04
   4.445175e+05   5.219954e+04
  -3.255849e+05  -6.630139e+05
   2.407290e+05  -1.021365e+06
   1.403392e+06  -4.569667e+05
   1.646802e+06   5.426660e+05
   4.666433e+05   1.042715e+06
  -9.713724e+05   5.858475e+05
  -1.027896e+06  -3.736568e+05
   5.763612e+05  -8.449021e+05
   2.269547e+06  -1.922130e+05
   2.163338e+06   1.201758e+06
   8.289442e+04   2.168811e+06
  -2.148719e+06   1.792428e+06
  -2.566928e+06   3.164623e+05
  -1.041677e+06  -1.010667e+06
   7.462881e+05  -1.099026e+06
   1.130746e+06  -8.009630e+04
   1.244834e+04   8.290676e+05
  -1.314920e+06   5.844015e+05
  -1.553298e+06  -5.875512e+05
  -5.335027e+05  -1.447803e+06
   7.724508e+05  -1.112771e+06
   1.190985e+06  -2.044399e+04
   4.397200e+05   5.922132e+05
  -5.624602e+05   8.375612e+04
  -5.792574e+05  -9.138936e+05
   6.060210e+05  -1.225253e+06
   1.838931e+06  -3.659309e+05
   1.765905e+06   1.022435e+06
   3.106582e+05   1.827197e+06
  -1.218886e+06   1.450018e+06
  -1.510325e+06   2.669229e+05
  -5.453484e+05  -7.275612e+05
   5.410381e+05  -7.825015e+05
   7.179596e+05  -5.462894e+04
   2.391252e+04   5.781144e+05
  -6.428760e+05   4.616370e+05
  -5.361393e+05  -1.133899e+05
   1.703254e+05  -2.829771e+05
   5.757374e+05   3.089580e+05
   1.226156e+04   1.008376e+06
  -1.174991e+06   8.495742e+05
  -1.870702e+06  -3.560053e+05
  -1.283983e+06  -1.757369e+06
   2.300054e+05  -2.250245e+06
   1.511271e+06  -1.460595e+06
   1.726734e+06  -2.566638e+04
   1.075562e+06   9.960166e+05
   3.938535e+05   1.042235e+06
   2.084434e+05   4.930944e+05
   2.796683e+05   1.996030e+05
   2.530300e+04   5.116644e+05
  -7.120731e+05   8.572289e+05
  -1.370242e+06   4.361396e+05
  -1.160264e+06  -7.114927e+05
   9.550774e+04  -1.558804e+06
   1.599295e+06  -1.132237e+06
   2.139008e+06   4.124016e+05
   1.148393e+06   1.872877e+06
  -7.286743e+05   2.117727e+06
  -2.155881e+06   1.061607e+06
  -2.235640e+06  -3.848089e+05
  -1.187036e+06  -1.206074e+06
   7.288161e+03  -1.134628e+06
   5.494456e+05  -7.295673e+05
   4.465771e+05  -6.682879e+05
   3.008793e+05  -9.722798e+05
   5.735035e+05  -9.928412e+05
   1.070401e+06  -2.114999e+05
   1.150275e+06   1.031286e+06
   4.497535e+05   1.753648e+06
  -6.231243e+05   1.304404e+06
  -1.195780e+06   2.739637e+04
  -7.835776e+05  -1.072003e+06
   2.007281e+05  -1.243233e+06
   8.541973e+05  -5.546119e+05
   6.924793e+05   3.273322e+05
   8.754093e+04   7.908129e+05
  -2.180826e+05   7.335724e+05
   3.537748e+04   4.876749e+05
   3.401620e+05   3.775416e+05
   1.523245e+04   3.780015e+05
  -9.517061e+05   2.077529e+05
  -1.737832e+06  -2.805796e+05
  -1.454268e+06  -8.727401e+05
  -1.116423e+05  -1.170309e+06
   1.265533e+06  -9.503531e+05
   1.596918e+06  -3.503587e+05
   8.088139e+05   2.293288e+05
  -1.590302e+05   4.034796e+05
  -4.016146e+05   1.153475e+05
   5.539302e+04  -2.491930e+05
   4.856749e+05  -1.894043e+05
   4.061079e+05   3.274277e+05
   4.879592e+04   7.214990e+05
  -8.132735e+04   4.578386e+05
   1.421655e+05  -2.029589e+05
   3.865059e+05  -4.141662e+05
   2.800639e+05   1.965581e+05
  -2.291126e+05   9.617249e+05
  -8.347019e+05   9.263172e+05
  -1.053472e+06   1.395406e+04
  -5.625346e+05  -8.673653e+05
   4.083301e+05  -8.751658e+05
   1.049091e+06  -1.152494e+05
   6.361855e+05   5.957444e+05
  -6.100733e+05   6.148698e+05
  -1.528719e+06  -1.688547e+04
  -1.135152e+06  -7.564016e+05
   2.889655e+05  -1.036847e+06
   1.424342e+06  -6.579650e+05
   1.282453e+06   6.433735e+04
   2.050086e+05   5.134134e+05
  -5.797754e+05   3.181026e+05
  -2.918092e+05  -2.264630e+05
   6.321289e+05  -3.898524e+05
   1.077117e+06   2.271401e+05
   4.414674e+05   1.175618e+06
  -7.678778e+05   1.500344e+06
  -1.484971e+06   6.711794e+05
  -1.139402e+06  -7.988734e+05
  -1.212718e+05  -1.711705e+06
   7.215838e+05  -1.277844e+06
   8.870323e+05   8.047343e+04
   4.849505e+05   1.104581e+06
  -8.500194e+04   9.753704e+05
  -4.832133e+05   1.242010e+05
  -5.297398e+05  -3.840982e+05
  -2.636616e+05  -1.650230e+05
  -3.242013e+03   1.218017e+05
  -9.033262e+04  -2.100103e+05
  -3.917181e+05  -8.837656e+05
  -2.903053e+05  -1.034312e+06
   5.207888e+05  -3.727990e+05
   1.391775e+06   4.739694e+05
   1.306158e+06   8.094209e+05
   1.710786e+05   6.300676e+05
  -9.206035e+05   3.611877e+05
  -9.657449e+05   1.898550e+05
  -2.399128e+05   4.895422e+03
   1.860500e+05  -1.965696e+05
  -9.405677e+04  -2.521042e+05
  -3.863138e+05  -1.666916e+05
   1.085984e+04  -1.362055e+05
   7.755298e+05  -1.503725e+05
   9.589933e+05   8.955311e+04
   1.750669e+05   6.439049e+05
  -9.603562e+05   9.879275e+05
  -1.520774e+06   5.375080e+05
  -1.130534e+06  -5.379888e+05
  -1.499300e+05  -1.345352e+06
   7.309532e+05  -1.204823e+06
   9.978012e+05  -3.682641e+05
   6.235507e+05   3.164811e+05
   5.217029e+04   3.384559e+05
  -1.877862e+05  -1.655060e+04
   2.935085e+04  -1.024039e+05
   3.270449e+05   3.106968e+05
   2.531732e+05   7.590113e+05
  -2.217229e+05   5.973256e+05
  -6.584253e+05  -2.283189e+05
  -5.738643e+05  -1.005600e+06
   7.912531e+04  -9.553947e+05
   7.933727e+05  -7.828429e+04
   8.953586e+05   8.305179e+05
   1.945251e+05   1.024330e+06
  -7.159963e+05   5.070148e+05
  -9.758733e+05  -1.556442e+05
  -3.931101e+05  -5.084244e+05
   2.911407e+05  -5.034231e+05
   2.658802e+05  -2.950489e+05
  -3.447765e+05  -5.861055e+04
  -6.364406e+05  -8.273714e+03
  -8.306202e+04  -2.721171e+05
   7.956361e+05  -6.125083e+05
   1.093268e+06  -5.314293e+05
   5.846174e+05   1.121076e+05
  -1.384712e+05   7.594212e+05
  -4.524257e+05   7.222214e+05
  -2.929197e+05   4.581212e+04
   2.896424e+04  -4.969909e+05
   2.652432e+05  -3.338773e+05
   3.314103e+05   2.526555e+05
   1.950053e+05   5.525911e+05
  -9.893370e+04   3.035625e+05
  -3.589677e+05  -1.035154e+05
  -3.914655e+05  -2.127280e+05
  -2.175808e+05  -3.707930e+04
  -2.911112e+04   6.372721e+04
   6.668842e+04  -1.204487e+05
   1.428201e+05  -4.001751e+05
   2.754441e+05  -4.060426e+05
   3.780334e+05  -6.351226e+03
   2.790455e+05   4.997534e+05
  -6.314154e+04   6.328758e+05
  -4.477758e+05   2.255169e+05
  -5.398115e+05  -3.609263e+05
  -1.589972e+05  -5.881363e+05
   4.589744e+05  -2.999963e+05
   7.587711e+05   1.595650e+05
   3.976367e+05   3.773313e+05
  -2.951124e+05   2.822820e+05
  -5.814531e+05   8.753045e+04
  -1.549007e+05  -1.433950e+04
   4.398516e+05   2.977914e+04
   4.245075e+05   1.899946e+05
  -2.582709e+05   3.343942e+05
  -8.536851e+05   2.193966e+05
