
 $NMID
 id='ANONYMOUS ', fmtdat='(2E16.6)'
 volume=1.0
 tramp=1.0
 $END
   2.525407e+07   1.044187e+06
   1.588731e+07   1.305494e+07
  -1.271633e+06   1.596543e+07
  -1.132229e+07   9.463077e+06
  -8.686608e+06   1.578687e+05
  -1.036985e+05  -4.394319e+06
   4.938642e+06  -1.710308e+06
   3.309379e+06   4.095228e+06
  -1.520997e+06   6.428369e+06
  -4.673141e+06   2.640067e+06
  -3.884600e+06  -3.316553e+06
  -3.873674e+05  -5.134136e+06
   2.422549e+06  -1.077907e+06
   1.819736e+06   4.162993e+06
  -1.569075e+06   4.811013e+06
  -4.109360e+06   2.134364e+05
  -2.835576e+06  -4.986317e+06
   1.407513e+06  -6.108775e+06
   4.910776e+06  -2.793617e+06
   4.912416e+06   1.588177e+06
   2.092822e+06   3.686203e+06
  -4.647665e+05   2.989974e+06
  -4.385182e+05   1.596140e+06
   1.438630e+06   1.692633e+06
   2.089576e+06   3.221121e+06
  -5.615074e+05   4.017081e+06
  -4.837187e+06   2.360043e+06
  -6.572625e+06  -9.033516e+05
  -3.654904e+06  -3.167488e+06
   1.284473e+06  -2.776493e+06
   3.545250e+06  -4.652726e+05
   1.443958e+06   1.645633e+06
  -2.185924e+06   1.857914e+06
  -3.526052e+06  -4.945399e+04
  -1.773058e+06  -2.617953e+06
   7.719034e+05  -3.517690e+06
   1.709966e+06  -1.639024e+06
   7.984484e+05   1.229704e+06
  -4.461452e+05   1.874343e+06
  -5.540639e+05  -4.865334e+05
   6.029986e+05  -2.823825e+06
   1.813190e+06  -1.921889e+06
   1.633699e+06   1.347701e+06
  -1.682379e+05   2.943543e+06
  -2.084525e+06   7.631978e+05
  -2.053679e+06  -2.749904e+06
   4.574169e+05  -3.677924e+06
   3.550790e+06  -1.108285e+06
   4.389973e+06   2.342231e+06
   1.904758e+06   3.697142e+06
  -1.951173e+06   2.306118e+06
  -3.872166e+06  -2.384726e+05
  -2.361058e+06  -1.840288e+06
   8.111335e+05  -1.500507e+06
   2.479666e+06   7.180641e+04
   1.369229e+06   1.175036e+06
  -7.792298e+05   7.698315e+05
  -1.404833e+06  -4.868541e+05
  -3.358453e+04  -1.073180e+06
   1.394584e+06  -3.534133e+05
   9.369888e+05   8.338502e+05
  -1.101234e+06   1.204996e+06
  -2.510173e+06   2.268026e+05
  -1.534131e+06  -1.589787e+06
   1.327235e+06  -3.022210e+06
   3.816601e+06  -2.775758e+06
   4.072813e+06  -5.137632e+05
   2.266202e+06   2.433261e+06
   1.711982e+05   3.961077e+06
  -7.409859e+05   3.271912e+06
  -6.152495e+05   1.689864e+06
  -6.338026e+05   9.472909e+05
  -1.432307e+06   1.059308e+06
  -2.392129e+06   6.065701e+05
  -2.422787e+06  -1.018806e+06
  -1.140586e+06  -2.510576e+06
   7.502422e+05  -2.157717e+06
   1.976349e+06   3.120499e+04
   1.582826e+06   2.195466e+06
  -2.899785e+05   2.488498e+06
  -2.282571e+06   7.792269e+05
  -2.795525e+06  -1.434435e+06
  -1.485668e+06  -2.533216e+06
   3.364882e+05  -2.144505e+06
   1.143162e+06  -1.184855e+06
   9.175769e+05  -7.115602e+05
   1.002210e+06  -8.204107e+05
   2.168253e+06  -6.947130e+05
   3.358662e+06   3.599555e+05
   2.791602e+06   2.066578e+06
   1.557081e+05   3.331823e+06
  -2.735413e+06   3.141335e+06
  -3.637817e+06   1.408130e+06
  -2.073342e+06  -8.123950e+05
   2.764508e+05  -1.984963e+06
   1.290986e+06  -1.362841e+06
   4.146549e+05   1.992502e+05
  -1.041179e+06   9.849147e+05
  -1.445490e+06   2.492759e+05
  -5.166583e+05  -9.172048e+05
   5.848175e+05  -9.283115e+05
   6.326416e+05   2.608339e+05
  -4.140759e+05   1.002076e+06
  -1.473049e+06  -2.711618e+04
  -1.393208e+06  -2.114980e+06
   8.217367e+04  -3.194667e+06
   2.097592e+06  -2.051492e+06
   3.241832e+06   4.686731e+05
   2.594568e+06   2.396234e+06
   5.959664e+05   2.509502e+06
  -1.170952e+06   1.258431e+06
  -1.408991e+06   7.944173e+04
  -4.107732e+05  -4.215999e+04
   3.060832e+05   6.128774e+05
  -2.380212e+05   9.868253e+05
  -1.357270e+06   4.528579e+05
  -1.569138e+06  -5.379269e+05
  -4.189062e+05  -1.010312e+06
   9.115797e+05  -5.360037e+05
   9.060927e+05   3.483050e+05
  -5.714484e+05   7.100293e+05
  -2.039812e+06   9.071779e+04
  -1.885296e+06  -1.106746e+06
  -2.366583e+04  -1.926100e+06
   1.961093e+06  -1.609622e+06
   2.356147e+06  -2.980481e+05
   9.847491e+05   9.513894e+05
  -6.932081e+05   1.076580e+06
  -1.100336e+06   1.072795e+05
  -5.636602e+04  -7.935278e+05
   1.219803e+06  -5.687068e+05
   1.441337e+06   5.547785e+05
   4.573309e+05   1.346184e+06
  -7.532950e+05   9.892507e+05
  -1.093387e+06  -3.602351e+04
  -3.669761e+05  -5.711400e+05
   5.526609e+05  -7.743562e+04
   5.615773e+05   8.459353e+05
  -5.304092e+05   1.148458e+06
  -1.688240e+06   3.793165e+05
  -1.654024e+06  -9.128383e+05
  -3.106464e+05  -1.694642e+06
   1.130685e+06  -1.358186e+06
   1.404671e+06  -2.435578e+05
   4.912833e+05   6.812956e+05
  -5.057981e+05   7.161807e+05
  -6.316968e+05   5.693744e+04
   5.200692e+03  -4.827014e+05
   5.526391e+05  -3.705585e+05
   4.052960e+05   9.608757e+04
  -2.105780e+05   1.922508e+05
  -5.165416e+05  -3.455393e+05
   2.139670e+04  -9.482527e+05
   1.094673e+06  -7.870999e+05
   1.733386e+06   3.170074e+05
   1.209047e+06   1.611643e+06
  -1.875023e+05   2.066518e+06
  -1.375867e+06   1.321663e+06
  -1.554605e+06   5.027555e+03
  -9.347866e+05  -8.766960e+05
  -3.420322e+05  -8.651690e+05
  -2.387805e+05  -3.874628e+05
  -3.221445e+05  -1.948399e+05
  -4.271556e+04  -5.093077e+05
   6.682118e+05  -7.898396e+05
   1.251312e+06  -3.828310e+05
   1.031566e+06   6.386476e+05
  -1.070861e+05   1.391821e+06
  -1.461325e+06   1.023621e+06
  -1.956593e+06  -3.702003e+05
  -1.050271e+06  -1.727712e+06
   6.942061e+05  -1.969396e+06
   2.014729e+06  -9.732116e+05
   2.047976e+06   3.836634e+05
   1.037693e+06   1.110385e+06
  -4.011425e+04   9.915283e+05
  -4.639566e+05   6.179943e+05
  -3.268114e+05   6.172133e+05
  -2.221181e+05   9.413542e+05
  -5.253330e+05   9.588059e+05
  -1.006534e+06   2.222675e+05
  -1.082620e+06  -9.301129e+05
  -4.408382e+05  -1.606147e+06
   5.516112e+05  -1.207780e+06
   1.097472e+06  -2.846363e+04
   7.236103e+05   1.003129e+06
  -2.071346e+05   1.156435e+06
  -8.293739e+05   4.825995e+05
  -6.560720e+05  -3.604024e+05
  -4.813945e+04  -7.716546e+05
   2.526368e+05  -6.781636e+05
  -1.090195e+04  -4.281841e+05
  -3.271160e+05  -3.290941e+05
  -2.506884e+04  -3.415790e+05
   8.960198e+05  -1.975354e+05
   1.634867e+06   2.465617e+05
   1.353183e+06   8.074403e+05
   8.389691e+04   1.109538e+06
  -1.196046e+06   9.085749e+05
  -1.486194e+06   3.167183e+05
  -7.407988e+05  -2.525228e+05
   1.580638e+05  -3.990640e+05
   3.844569e+05  -9.276179e+04
  -2.890840e+04   2.574196e+05
  -4.278026e+05   1.871662e+05
  -3.838966e+05  -2.944422e+05
  -8.907076e+04  -6.481576e+05
   3.525358e+04  -4.153193e+05
  -1.277004e+05   1.630117e+05
  -3.270608e+05   3.511208e+05
  -2.538675e+05  -1.826153e+05
   1.825949e+05  -8.733339e+05
   7.575963e+05  -8.705197e+05
   1.008985e+06  -5.648715e+04
   5.715830e+05   7.837829e+05
  -3.596388e+05   8.450203e+05
  -9.838288e+05   1.585188e+05
  -5.974029e+05  -5.272651e+05
   5.641378e+05  -5.673250e+05
   1.393100e+06   1.950565e+04
   1.005876e+06   6.982525e+05
  -2.932308e+05   9.314634e+05
  -1.298793e+06   5.691316e+05
  -1.150181e+06  -7.533538e+04
  -1.744368e+05  -4.632906e+05
   5.358497e+05  -2.823994e+05
   2.845309e+05   2.144737e+05
  -5.562042e+05   3.822466e+05
  -9.928131e+05  -1.660617e+05
  -4.535178e+05  -1.055232e+06
   6.426704e+05  -1.397844e+06
   1.331568e+06  -6.602055e+05
   1.057220e+06   7.023352e+05
   1.397391e+05   1.558931e+06
  -6.456643e+05   1.162078e+06
  -8.104660e+05  -8.541140e+04
  -4.357940e+05  -1.012189e+06
   9.769066e+04  -8.816191e+05
   4.520885e+05  -1.084472e+05
   4.674507e+05   3.425272e+05
   2.178886e+05   1.429442e+05
   1.189963e+04  -1.051623e+05
   1.236838e+05   2.035160e+05
   3.855456e+05   8.098785e+05
   2.492666e+05   9.419529e+05
  -5.072549e+05   3.477550e+05
  -1.276284e+06  -4.145051e+05
  -1.179174e+06  -7.271106e+05
  -1.628505e+05  -5.813439e+05
   8.128079e+05  -3.436161e+05
   8.738598e+05  -1.768853e+05
   2.428346e+05   4.151281e+03
  -1.573604e+05   1.841657e+05
   5.839663e+04   2.188579e+05
   3.226945e+05   1.341407e+05
   4.270607e+03   1.212906e+05
  -6.726810e+05   1.578430e+05
  -8.831244e+05  -5.542627e+04
  -2.187679e+05  -5.855717e+05
   8.300746e+05  -9.370749e+05
   1.402375e+06  -5.462935e+05
   1.082387e+06   4.489828e+05
   1.734659e+05   1.223192e+06
  -6.550425e+05   1.129588e+06
  -9.054123e+05   3.773727e+05
  -5.702341e+05  -2.618399e+05
  -6.769156e+04  -3.077909e+05
   1.425570e+05  -2.621609e+03
  -3.838404e+04   7.477457e+04
  -2.923909e+05  -2.905674e+05
  -2.335153e+05  -6.933303e+05
   1.846960e+05  -5.574866e+05
   5.985958e+05   1.767919e+05
   5.605995e+05   8.874248e+05
  -1.960394e+04   8.753956e+05
  -7.027702e+05   1.136222e+05
  -8.426531e+05  -7.148719e+05
  -2.186201e+05  -9.336517e+05
   6.378774e+05  -5.004386e+05
   9.111585e+05   1.122446e+05
   3.908163e+05   4.759674e+05
  -2.546191e+05   4.948041e+05
  -2.613548e+05   2.861246e+05
   2.886866e+05   4.074824e+04
   5.758122e+05  -8.343283e+03
   9.176975e+04   2.515469e+05
  -7.179124e+05   5.735159e+05
  -1.018169e+06   4.921594e+05
  -5.685600e+05  -1.081112e+05
   1.076137e+05  -7.093758e+05
   4.221922e+05  -6.860710e+05
   2.913988e+05  -7.183287e+04
  -3.946796e+03   4.427086e+05
  -2.288290e+05   3.253313e+05
  -3.035029e+05  -2.009877e+05
  -1.938142e+05  -5.009899e+05
   7.423092e+04  -3.014017e+05
   3.305059e+05   7.661880e+04
   3.745627e+05   2.024749e+05
   2.029877e+05   4.465430e+04
   9.941488e+03  -7.605450e+04
  -6.556532e+04   7.239359e+04
  -9.136997e+04   3.485286e+05
  -1.915208e+05   3.967530e+05
  -3.235677e+05   5.571018e+04
  -2.939123e+05  -4.177035e+05
   1.747847e+03  -5.703213e+05
   3.911437e+05  -2.263078e+05
   5.161571e+05   3.002038e+05
   1.692878e+05   5.236666e+05
  -4.210273e+05   2.897163e+05
  -7.116511e+05  -1.163985e+05
  -3.798394e+05  -3.354388e+05
   2.612669e+05  -2.835559e+05
   5.338580e+05  -1.165751e+05
   1.609070e+05   2.556935e+03
  -3.734229e+05  -2.498888e+03
  -3.779195e+05  -1.391796e+05
   2.101180e+05  -2.919042e+05
   7.411562e+05  -2.145433e+05
