
 $NMID
 id='ANONYMOUS ', fmtdat='(2E16.6)'
 volume=1.0
 tramp=1.0
 $END
  -4.070832e+07   1.738741e+06
  -2.643507e+07  -2.238730e+07
   2.595555e+06  -2.731491e+07
   1.885646e+07  -1.341885e+07
   1.306247e+07   2.558923e+06
  -1.112996e+06   7.062058e+06
  -7.541711e+06   7.887980e+05
  -3.597926e+06  -6.861433e+06
   3.459579e+06  -8.330145e+06
   7.155029e+06  -2.824288e+06
   5.723397e+06   4.526472e+06
   9.153743e+05   6.915304e+06
  -3.128352e+06   2.042716e+06
  -2.434328e+06  -4.827630e+06
   2.449061e+06  -5.962184e+06
   6.107475e+06   1.989363e+05
   4.101798e+06   7.459964e+06
  -2.110753e+06   9.165050e+06
  -7.284407e+06   4.761063e+06
  -7.918092e+06  -1.416054e+06
  -4.593512e+06  -5.296501e+06
  -4.527314e+05  -5.697026e+06
   1.323523e+06  -3.896760e+06
  -4.191684e+04  -2.380591e+06
  -1.717059e+06  -2.848526e+06
   9.835934e+04  -4.204169e+06
   5.108774e+06  -3.543991e+06
   8.202556e+06  -4.726263e+04
   5.506414e+06   3.456991e+06
  -4.166540e+05   3.892451e+06
  -3.626273e+06   1.562186e+06
  -1.923779e+06  -8.357691e+05
   1.536247e+06  -1.456491e+06
   3.043188e+06  -2.121003e+05
   2.029286e+06   2.094523e+06
  -9.253229e+03   3.775895e+06
  -1.652160e+06   2.781888e+06
  -1.932176e+06  -5.903630e+05
  -6.918297e+05  -2.655784e+06
   5.515277e+05  -6.501376e+05
  -1.382620e+05   2.717381e+06
  -2.117906e+06   2.251350e+06
  -2.212355e+06  -2.179128e+06
   9.825794e+05  -4.680180e+06
   4.407408e+06  -1.235282e+06
   3.866466e+06   4.585519e+06
  -7.942343e+05   6.178744e+06
  -5.397716e+06   2.064799e+06
  -5.927512e+06  -3.171210e+06
  -2.166039e+06  -4.890546e+06
   2.664474e+06  -2.714932e+06
   4.748465e+06   6.845004e+05
   2.616528e+06   2.625864e+06
  -1.520238e+06   1.994371e+06
  -3.583037e+06  -3.002579e+05
  -1.808125e+06  -1.879680e+06
   1.196594e+06  -1.151744e+06
   1.657696e+06   7.079917e+05
  -5.839861e+05   1.119983e+06
  -2.068023e+06  -5.242535e+05
  -4.165412e+05  -2.152761e+06
   2.723725e+06  -1.804969e+06
   3.996776e+06   2.871107e+05
   2.131898e+06   2.686691e+06
  -1.404042e+06   4.243583e+06
  -4.339374e+06   4.003284e+06
  -5.138873e+06   1.323688e+06
  -3.533001e+06  -2.681542e+06
  -7.556701e+05  -5.100052e+06
   1.134529e+06  -4.180846e+06
   1.165815e+06  -1.616317e+06
   4.869851e+05  -4.100828e+05
   7.850988e+05  -1.011819e+06
   2.034996e+06  -1.193993e+06
   2.652969e+06   3.910009e+05
   1.627045e+06   2.261849e+06
  -3.672791e+05   2.211958e+06
  -1.845454e+06   1.002195e+05
  -1.735825e+06  -2.186673e+06
   8.107088e+04  -2.788535e+06
   2.532714e+06  -1.301501e+06
   3.711267e+06   1.216471e+06
   2.486826e+06   3.074185e+06
  -4.010746e+04   3.196224e+06
  -1.604079e+06   2.041963e+06
  -1.530114e+06   1.036613e+06
  -1.422293e+06   8.596147e+05
  -2.617268e+06   7.152277e+05
  -3.992922e+06  -4.310897e+05
  -3.319481e+06  -2.378498e+06
  -2.702856e+05  -3.842251e+06
   2.956563e+06  -3.717485e+06
   3.968353e+06  -1.915367e+06
   2.430393e+06   5.805956e+05
   3.249974e+04   2.159719e+06
  -1.190727e+06   1.707797e+06
  -4.977272e+05  -1.122038e+05
   1.065999e+06  -1.206114e+06
   1.710786e+06  -3.897297e+05
   7.678127e+05   1.057204e+06
  -5.460681e+05   1.064779e+06
  -5.755755e+05  -3.309150e+05
   7.369787e+05  -9.463018e+05
   1.790509e+06   5.721798e+05
   1.221584e+06   2.866840e+06
  -7.208772e+05   3.518652e+06
  -2.689741e+06   1.795500e+06
  -3.473465e+06  -8.784131e+05
  -2.621718e+06  -2.630829e+06
  -6.126378e+05  -2.656303e+06
   1.213400e+06  -1.438298e+06
   1.537921e+06  -1.943640e+05
   4.683902e+05   3.206001e+04
  -3.654181e+05  -6.958288e+05
   2.904055e+05  -1.214189e+06
   1.662028e+06  -5.939991e+05
   1.890970e+06   6.682726e+05
   4.656041e+05   1.242063e+06
  -1.062178e+06   6.103139e+05
  -9.493333e+05  -3.964734e+05
   7.257123e+05  -6.758069e+05
   2.214339e+06   5.345695e+04
   1.932373e+06   1.242043e+06
  -6.436832e+04   2.042476e+06
  -2.173725e+06   1.759246e+06
  -2.651172e+06   3.728127e+05
  -1.177123e+06  -1.108895e+06
   7.837273e+05  -1.356223e+06
   1.362479e+06  -2.024611e+05
   1.632111e+05   9.564992e+05
  -1.392954e+06   7.178225e+05
  -1.661219e+06  -6.418202e+05
  -4.636738e+05  -1.548953e+06
   9.303158e+05  -1.059454e+06
   1.235756e+06   1.404912e+05
   3.468635e+05   6.975752e+05
  -6.948515e+05   9.583016e+04
  -7.010753e+05  -9.600136e+05
   5.332803e+05  -1.345010e+06
   1.896311e+06  -5.304065e+05
   1.936910e+06   9.594832e+05
   4.179526e+05   1.939924e+06
  -1.283600e+06   1.596008e+06
  -1.617343e+06   2.854695e+05
  -5.420254e+05  -7.907632e+05
   5.817321e+05  -8.081015e+05
   6.560117e+05  -8.231262e+04
  -5.832478e+04   4.489335e+05
  -5.465535e+05   3.137391e+05
  -2.824664e+05  -9.300604e+04
   3.480170e+05  -8.570720e+04
   5.643419e+05   5.096068e+05
  -7.974212e+04   1.115619e+06
  -1.257833e+06   9.122493e+05
  -1.987703e+06  -3.204684e+05
  -1.438118e+06  -1.799695e+06
   1.445797e+05  -2.330489e+06
   1.516083e+06  -1.462824e+06
   1.691317e+06   1.894606e+04
   9.535864e+05   9.065709e+05
   3.489699e+05   7.887654e+05
   3.642270e+05   3.007238e+05
   4.967431e+05   2.361855e+05
   9.407148e+04   6.518202e+05
  -7.746226e+05   9.025581e+05
  -1.393916e+06   4.071574e+05
  -1.099725e+06  -6.827103e+05
   1.489991e+05  -1.491400e+06
   1.624055e+06  -1.134691e+06
   2.193321e+06   3.824925e+05
   1.191978e+06   1.953988e+06
  -8.132138e+05   2.277741e+06
  -2.332715e+06   1.114599e+06
  -2.304153e+06  -4.746206e+05
  -1.075267e+06  -1.250883e+06
   1.059287e+05  -1.018881e+06
   4.386732e+05  -5.943949e+05
   1.952577e+05  -7.013297e+05
   1.301753e+05  -1.157795e+06
   5.781150e+05  -1.180359e+06
   1.178527e+06  -3.176001e+05
   1.281147e+06   1.003104e+06
   5.676322e+05   1.796655e+06
  -5.687078e+05   1.385666e+06
  -1.235645e+06   4.896546e+04
  -8.343523e+05  -1.161517e+06
   2.677201e+05  -1.336652e+06
   1.022319e+06  -5.007258e+05
   7.868315e+05   5.191642e+05
  -7.523324e+02   9.625611e+05
  -3.833721e+05   7.789314e+05
  -2.815921e+04   4.444343e+05
   4.003952e+05   3.318409e+05
   5.330795e+04   3.730836e+05
  -1.052221e+06   2.457620e+05
  -1.923053e+06  -2.383353e+05
  -1.569002e+06  -9.087465e+05
  -6.954194e+04  -1.321080e+06
   1.405992e+06  -1.109373e+06
   1.712553e+06  -3.619638e+05
   8.360332e+05   3.620645e+05
  -1.970410e+05   5.093360e+05
  -4.647170e+05   8.258855e+04
  -1.538659e+04  -3.466156e+05
   4.433864e+05  -2.404656e+05
   4.571816e+05   3.153276e+05
   1.944026e+05   6.985616e+05
   4.294451e+04   4.561105e+05
   1.380361e+05  -1.378583e+05
   3.110868e+05  -3.386902e+05
   2.812491e+05   2.078742e+05
  -1.425243e+05   9.648983e+05
  -8.269226e+05   1.027794e+06
  -1.217892e+06   1.630543e+05
  -7.613327e+05  -8.496721e+05
   3.645030e+05  -1.038120e+06
   1.145765e+06  -2.946990e+05
   7.037595e+05   5.484259e+05
  -6.384617e+05   6.504432e+05
  -1.549474e+06  -1.772604e+04
  -1.067362e+06  -7.872530e+05
   3.790690e+05  -1.012898e+06
   1.442511e+06  -5.827678e+05
   1.243132e+06   1.084000e+05
   1.727736e+05   5.050575e+05
  -6.089412e+05   3.040934e+05
  -3.564077e+05  -2.512598e+05
   5.733919e+05  -4.834218e+05
   1.125875e+06   9.242081e+04
   6.163125e+05   1.133917e+06
  -5.850912e+05   1.618712e+06
  -1.428286e+06   8.428942e+05
  -1.218578e+06  -7.186744e+05
  -2.282089e+05  -1.728737e+06
   6.837360e+05  -1.292366e+06
   9.069302e+05   1.120904e+05
   4.814731e+05   1.133295e+06
  -1.420797e+05   9.677189e+05
  -5.257132e+05   1.157062e+05
  -4.914812e+05  -3.624080e+05
  -1.979013e+05  -1.432190e+05
  -3.072536e+04   1.057684e+05
  -2.236585e+05  -2.473935e+05
  -4.939478e+05  -9.046577e+05
  -2.546122e+05  -1.044880e+06
   6.265609e+05  -4.092796e+05
   1.438019e+06   4.139480e+05
   1.294590e+06   7.774701e+05
   2.006728e+05   6.590847e+05
  -8.471433e+05   4.170549e+05
  -9.573544e+05   2.119101e+05
  -3.194711e+05  -1.851397e+04
   1.484465e+05  -2.156887e+05
  -1.101066e+04  -2.223945e+05
  -2.996623e+05  -1.120156e+05
  -3.431611e+04  -1.282703e+05
   6.765637e+05  -2.216243e+05
   9.996195e+05   3.293816e+02
   3.681352e+05   6.433964e+05
  -8.214849e+05   1.121195e+06
  -1.584752e+06   7.349875e+05
  -1.310638e+06  -4.032731e+05
  -2.780307e+05  -1.350846e+06
   6.942005e+05  -1.325204e+06
   9.932220e+05  -5.118886e+05
   6.389279e+05   2.322542e+05
   1.187123e+05   3.391928e+05
  -9.972208e+04   3.835525e+04
   6.658629e+04  -4.664990e+04
   3.167206e+05   3.358378e+05
   2.715943e+05   7.720577e+05
  -1.645701e+05   6.471690e+05
  -6.625573e+05  -1.281061e+05
  -7.057313e+05  -9.211256e+05
  -9.237988e+04  -9.802542e+05
   7.371991e+05  -2.169196e+05
   9.950043e+05   7.011017e+05
   3.349758e+05   1.034309e+06
  -6.731767e+05   6.389255e+05
  -1.056674e+06  -5.567486e+04
  -5.053678e+05  -5.494968e+05
   2.550638e+05  -6.247019e+05
   3.256118e+05  -3.564415e+05
  -2.691047e+05  -1.861898e+04
  -6.308743e+05   4.624561e+04
  -1.369650e+05  -2.852053e+05
   7.779122e+05  -6.747167e+05
   1.171613e+06  -5.734541e+05
   7.059003e+05   1.251834e+05
  -7.485139e+04   8.237406e+05
  -4.818261e+05   8.236310e+05
  -3.711413e+05   1.446484e+05
  -4.433009e+04  -4.704410e+05
   2.243335e+05  -4.056482e+05
   3.406281e+05   1.615878e+05
   2.523705e+05   5.492417e+05
  -4.627838e+04   3.849758e+05
  -3.740350e+05  -4.626768e+04
  -4.548233e+05  -2.382418e+05
  -2.362443e+05  -6.955615e+04
   2.417061e+04   1.200651e+05
   8.406560e+04  -5.810561e+03
   2.102783e+04  -3.535374e+05
   8.768867e+04  -4.935559e+05
   3.141831e+05  -1.645489e+05
   4.084890e+05   3.833958e+05
   1.155274e+05   6.180864e+05
  -3.975779e+05   2.961949e+05
  -6.239704e+05  -2.698493e+05
  -2.415022e+05  -5.545614e+05
   4.702712e+05  -3.590570e+05
   8.315416e+05   6.333354e+04
   4.602024e+05   3.516238e+05
  -2.710256e+05   3.703925e+05
  -5.985919e+05   2.089999e+05
  -2.182810e+05   2.093464e+04
   3.584683e+05  -4.880468e+04
   4.015169e+05   8.326732e+04
  -1.807535e+05   2.991126e+05
  -7.470412e+05   2.726003e+05
