
 $NMID
 id='ANONYMOUS ', fmtdat='(2E16.6)'
 volume=1.0
 tramp=1.0
 $END
  -4.522765e+07  -1.402392e+06
  -2.705434e+07  -2.705548e+07
   5.392990e+06  -2.985097e+07
   2.175563e+07  -1.295935e+07
   1.382250e+07   4.020427e+06
  -1.906579e+06   7.546215e+06
  -8.149739e+06   1.373640e+05
  -3.234740e+06  -7.707074e+06
   4.393096e+06  -8.643548e+06
   7.953770e+06  -2.437144e+06
   5.946117e+06   5.370881e+06
   5.544598e+05   7.627427e+06
  -3.596821e+06   2.066683e+06
  -2.404657e+06  -5.358324e+06
   3.035732e+06  -6.243744e+06
   6.616466e+06   7.305123e+05
   3.891748e+06   8.478588e+06
  -3.039216e+06   9.869744e+06
  -8.407339e+06   4.681032e+06
  -8.691204e+06  -2.172141e+06
  -4.726666e+06  -6.295690e+06
   4.149340e+03  -6.467565e+06
   1.951575e+06  -4.191812e+06
   2.622802e+05  -2.388629e+06
  -1.762087e+06  -2.987364e+06
   2.118667e+05  -4.554009e+06
   5.738885e+06  -3.689986e+06
   9.019811e+06   3.441473e+05
   5.885846e+06   4.141638e+06
  -6.410848e+05   4.361920e+06
  -4.072224e+06   1.646808e+06
  -2.187621e+06  -9.390521e+05
   1.553067e+06  -1.562063e+06
   3.234271e+06  -2.340318e+05
   2.199895e+06   2.274102e+06
  -8.505471e+04   4.153320e+06
  -2.003630e+06   3.027986e+06
  -2.241781e+06  -7.924629e+05
  -6.495791e+05  -3.089138e+06
   7.759682e+05  -7.843891e+05
  -1.660875e+05   2.944285e+06
  -2.396391e+06   2.317210e+06
  -2.218531e+06  -2.547764e+06
   1.521161e+06  -4.990261e+06
   5.015385e+06  -8.796975e+05
   3.873260e+06   5.436866e+06
  -1.434482e+06   6.734299e+06
  -6.119894e+06   1.850464e+06
  -6.230969e+06  -3.856084e+06
  -2.004759e+06  -5.416309e+06
   3.041671e+06  -2.739812e+06
   5.044529e+06   1.041314e+06
   2.611271e+06   2.981282e+06
  -1.815955e+06   2.015737e+06
  -3.870994e+06  -6.118050e+05
  -1.803261e+06  -2.183928e+06
   1.402777e+06  -1.162688e+06
   1.732261e+06   8.600761e+05
  -7.196091e+05   1.084548e+06
  -2.115207e+06  -8.032926e+05
  -1.311820e+05  -2.348384e+06
   3.194347e+06  -1.652193e+06
   4.305863e+06   6.951297e+05
   2.080140e+06   3.113816e+06
  -1.808054e+06   4.576259e+06
  -4.965430e+06   4.168376e+06
  -5.726208e+06   1.174197e+06
  -3.761744e+06  -3.168555e+06
  -5.390210e+05  -5.641039e+06
   1.502590e+06  -4.439462e+06
   1.328183e+06  -1.594799e+06
   4.350339e+05  -3.928789e+05
   7.955481e+05  -1.145560e+06
   2.252721e+06  -1.319315e+06
   2.925165e+06   4.681479e+05
   1.747158e+06   2.501295e+06
  -4.266029e+05   2.403039e+06
  -1.971533e+06   8.459657e+04
  -1.796869e+06  -2.397337e+06
   1.929127e+05  -3.021894e+06
   2.832885e+06  -1.321791e+06
   4.030321e+06   1.518617e+06
   2.568565e+06   3.543367e+06
  -2.658026e+05   3.542318e+06
  -1.938270e+06   2.137027e+06
  -1.764890e+06   9.965294e+05
  -1.583619e+06   8.128131e+05
  -2.849689e+06   6.179148e+05
  -4.282528e+06  -6.777672e+05
  -3.462994e+06  -2.735298e+06
  -1.087964e+05  -4.158760e+06
   3.360115e+06  -3.887286e+06
   4.382795e+06  -1.918823e+06
   2.635565e+06   7.197808e+05
  -2.543706e+04   2.359916e+06
  -1.357804e+06   1.828694e+06
  -5.465290e+05  -1.378355e+05
   1.204153e+06  -1.268116e+06
   1.876278e+06  -3.376463e+05
   7.881319e+05   1.197302e+06
  -6.281731e+05   1.134464e+06
  -5.856697e+05  -3.668203e+05
   8.339491e+05  -9.300433e+05
   1.834968e+06   7.612756e+05
   1.084850e+06   3.129946e+06
  -9.795775e+05   3.654340e+06
  -2.930417e+06   1.716155e+06
  -3.627535e+06  -1.109752e+06
  -2.677367e+06  -2.900119e+06
  -5.529210e+05  -2.858403e+06
   1.363222e+06  -1.504439e+06
   1.670218e+06  -1.533330e+05
   5.040532e+05   5.540520e+04
  -3.611244e+05  -7.672705e+05
   3.836671e+05  -1.295984e+06
   1.834593e+06  -5.502238e+05
   2.001549e+06   8.267381e+05
   4.279330e+05   1.362936e+06
  -1.172545e+06   6.016765e+05
  -9.940426e+05  -4.606197e+05
   8.013564e+05  -6.704402e+05
   2.347601e+06   1.622236e+05
   2.001845e+06   1.397311e+06
  -1.544520e+05   2.167284e+06
  -2.405345e+06   1.788724e+06
  -2.868769e+06   2.814215e+05
  -1.213570e+06  -1.257211e+06
   9.235498e+05  -1.431841e+06
   1.493607e+06  -1.450195e+05
   1.310914e+05   1.053113e+06
  -1.540801e+06   7.103244e+05
  -1.754979e+06  -7.724281e+05
  -4.175167e+05  -1.680429e+06
   1.047453e+06  -1.078845e+06
   1.307193e+06   2.170791e+05
   3.270475e+05   7.605928e+05
  -7.579286e+05   6.145428e+04
  -7.131117e+05  -1.073354e+06
   6.365448e+05  -1.432647e+06
   2.074361e+06  -4.912723e+05
   2.051064e+06   1.123964e+06
   3.607771e+05   2.114195e+06
  -1.461739e+06   1.658797e+06
  -1.754256e+06   2.281818e+05
  -5.413068e+05  -8.743848e+05
   6.631362e+05  -8.391256e+05
   7.056477e+05  -6.697268e+04
  -7.550802e+04   4.641189e+05
  -5.812025e+05   3.126616e+05
  -2.860489e+05  -8.857775e+04
   3.699461e+05  -4.996350e+04
   5.650542e+05   5.814707e+05
  -1.483633e+05   1.191167e+06
  -1.398620e+06   9.204286e+05
  -2.127703e+06  -4.376759e+05
  -1.469788e+06  -2.008027e+06
   2.575801e+05  -2.505073e+06
   1.689201e+06  -1.503076e+06
   1.806900e+06   9.252361e+04
   9.845348e+05   9.972012e+05
   3.602037e+05   8.422534e+05
   4.037099e+05   3.408843e+05
   5.318952e+05   2.960667e+05
   6.445779e+04   7.173893e+05
  -8.772608e+05   9.318140e+05
  -1.511424e+06   3.728934e+05
  -1.149207e+06  -7.726358e+05
   2.211800e+05  -1.584531e+06
   1.792327e+06  -1.144876e+06
   2.341464e+06   5.078263e+05
   1.189321e+06   2.155347e+06
  -9.893286e+05   2.409244e+06
  -2.564424e+06   1.082103e+06
  -2.446378e+06  -6.194690e+05
  -1.088729e+06  -1.380365e+06
   1.529511e+05  -1.072611e+06
   4.776782e+05  -6.205143e+05
   2.280097e+05  -7.678104e+05
   1.959982e+05  -1.261760e+06
   6.876222e+05  -1.251265e+06
   1.293101e+06  -2.863574e+05
   1.340659e+06   1.140836e+06
   5.342650e+05   1.964003e+06
  -6.736085e+05   1.470881e+06
  -1.331323e+06  -3.067652e+03
  -8.396332e+05  -1.291196e+06
   3.568464e+05  -1.421279e+06
   1.122819e+06  -4.748620e+05
   8.098653e+05   6.101262e+05
  -6.262908e+04   1.034310e+06
  -4.583047e+05   8.067276e+05
  -4.918185e+04   4.671999e+05
   4.226947e+05   3.757972e+05
   4.378522e+04   4.055293e+05
  -1.148208e+06   2.115527e+05
  -2.066514e+06  -3.524268e+05
  -1.646832e+06  -1.054404e+06
  -1.756480e+03  -1.424668e+06
   1.577800e+06  -1.125790e+06
   1.859735e+06  -3.047646e+05
   8.706766e+05   4.344007e+05
  -2.448386e+05   5.404931e+05
  -5.026817e+05   6.105746e+04
   2.881418e+03  -3.843485e+05
   4.878500e+05  -2.455822e+05
   4.807686e+05   3.616080e+05
   1.889541e+05   7.690687e+05
   3.381141e+04   5.018750e+05
   1.479705e+05  -1.385166e+05
   3.371894e+05  -3.520871e+05
   2.917971e+05   2.359193e+05
  -1.896746e+05   1.036582e+06
  -9.397144e+05   1.073159e+06
  -1.335943e+06   1.164028e+05
  -7.929683e+05  -9.606223e+05
   4.475429e+05  -1.110927e+06
   1.262945e+06  -2.685522e+05
   7.392167e+05   6.216471e+05
  -7.174582e+05   6.695804e+05
  -1.661960e+06  -8.759203e+04
  -1.104033e+06  -8.859601e+05
   4.532187e+05  -1.060504e+06
   1.566373e+06  -5.568305e+05
   1.322212e+06   1.688775e+05
   1.623768e+05   5.456893e+05
  -6.665386e+05   2.964180e+05
  -3.728834e+05  -2.919938e+05
   6.406214e+05  -5.043319e+05
   1.218139e+06   1.441262e+05
   6.259282e+05   1.255597e+06
  -6.969868e+05   1.733737e+06
  -1.579839e+06   8.574177e+05
  -1.287527e+06  -8.254724e+05
  -1.750139e+05  -1.874112e+06
   7.879376e+05  -1.360629e+06
   9.660743e+05   1.628830e+05
   4.647179e+05   1.237406e+06
  -1.967421e+05   1.026081e+06
  -5.704837e+05   9.712160e+04
  -5.111021e+05  -4.051622e+05
  -2.041153e+05  -1.550006e+05
  -3.766663e+04   1.087062e+05
  -2.336290e+05  -2.889650e+05
  -4.947995e+05  -1.001666e+06
  -2.249845e+05  -1.128842e+06
   6.989228e+05  -4.046104e+05
   1.532231e+06   5.064265e+05
   1.356913e+06   8.865732e+05
   1.859596e+05   7.197487e+05
  -9.270598e+05   4.205449e+05
  -1.037211e+06   1.880366e+05
  -3.443615e+05  -4.205169e+04
   1.679546e+05  -2.293438e+05
  -4.499800e+01  -2.298438e+05
  -3.163163e+05  -1.221674e+05
  -3.459106e+04  -1.426121e+05
   7.356279e+05  -2.214638e+05
   1.082217e+06   4.183901e+04
   3.783641e+05   7.229317e+05
  -9.329319e+05   1.187027e+06
  -1.752330e+06   7.257359e+05
  -1.410579e+06  -4.970331e+05
  -2.469570e+05  -1.472253e+06
   8.100769e+05  -1.401477e+06
   1.099653e+06  -5.149198e+05
   6.835312e+05   2.730602e+05
   1.164842e+05   3.748229e+05
  -1.083387e+05   4.786429e+04
   7.063875e+04  -4.059054e+04
   3.223191e+05   3.743424e+05
   2.578637e+05   8.420079e+05
  -2.054675e+05   6.948548e+05
  -7.140953e+05  -1.604575e+05
  -7.322815e+05  -1.024938e+06
  -6.464223e+04  -1.071815e+06
   8.088924e+05  -2.139445e+05
   1.054097e+06   7.959597e+05
   3.219789e+05   1.136623e+06
  -7.586211e+05   6.676674e+05
  -1.144332e+06  -1.065704e+05
  -5.211553e+05  -6.234194e+05
   3.091271e+05  -6.692032e+05
   3.734908e+05  -3.664503e+05
  -2.869049e+05  -2.246622e+04
  -6.830381e+05   2.609977e+04
  -1.365830e+05  -3.172987e+05
   8.677362e+05  -6.952199e+05
   1.289372e+06  -5.599500e+05
   7.574928e+05   1.761878e+05
  -1.177432e+05   8.895069e+05
  -5.628891e+05   8.657673e+05
  -4.175861e+05   1.379545e+05
  -3.392567e+04  -5.113456e+05
   2.620257e+05  -4.331699e+05
   3.669493e+05   1.834391e+05
   2.506198e+05   6.047481e+05
  -7.036867e+04   4.202724e+05
  -4.050620e+05  -6.371854e+04
  -4.788892e+05  -2.821881e+05
  -2.485423e+05  -8.831699e+04
   1.884678e+04   1.378240e+05
   8.121861e+04   5.638799e+03
   2.651098e+04  -3.863016e+05
   1.120899e+05  -5.472861e+05
   3.543225e+05  -1.778487e+05
   4.394361e+05   4.334226e+05
   1.090259e+05   6.827924e+05
  -4.424462e+05   3.090938e+05
  -6.705060e+05  -3.184068e+05
  -2.428915e+05  -6.104589e+05
   5.256735e+05  -3.672223e+05
   9.017745e+05   1.045833e+05
   4.842832e+05   4.009416e+05
  -3.130072e+05   3.927953e+05
  -6.626819e+05   2.039105e+05
  -2.418095e+05   9.487114e+03
   3.887139e+05  -4.871216e+04
   4.351019e+05   9.829646e+04
  -1.990422e+05   3.177770e+05
  -8.113025e+05   2.727249e+05
