
 $NMID
 id='ANONYMOUS ', fmtdat='(2E16.6)'
 volume=1.0
 tramp=1.0
 $END
  -1.191230e+07   5.792434e+05
  -8.366817e+06  -5.185912e+06
  -4.492254e+05  -7.618002e+06
   4.982342e+06  -5.389978e+06
   4.458444e+06  -7.574364e+05
   4.174770e+05   2.201389e+06
  -2.459142e+06   1.254556e+06
  -2.002021e+06  -1.883020e+06
   4.244081e+05  -3.437354e+06
   2.236629e+06  -1.636242e+06
   2.040029e+06   1.492282e+06
   3.443646e+05   2.550462e+06
  -1.153581e+06   5.673373e+05
  -1.013755e+06  -2.110363e+06
   6.245670e+05  -2.559369e+06
   2.048443e+06  -3.444168e+05
   1.638670e+06   2.324007e+06
  -4.026099e+05   3.061592e+06
  -2.242727e+06   1.540772e+06
  -2.360234e+06  -5.988338e+05
  -1.044508e+06  -1.623328e+06
   1.060277e+05  -1.287531e+06
  -3.525923e+04  -7.105069e+05
  -9.739805e+05  -9.351585e+05
  -1.162929e+06  -1.774665e+06
   2.917901e+05  -2.113245e+06
   2.462945e+06  -1.225482e+06
   3.317856e+06   3.875830e+05
   1.844402e+06   1.500214e+06
  -6.601147e+05   1.336002e+06
  -1.811472e+06   1.895088e+05
  -6.875135e+05  -9.106136e+05
   1.248097e+06  -1.011169e+06
   1.923577e+06   5.194665e+04
   9.170881e+05   1.422228e+06
  -4.333501e+05   1.820192e+06
  -8.247734e+05   7.865479e+05
  -2.876777e+05  -6.299827e+05
   2.704223e+05  -8.537941e+05
   2.183795e+05   3.644681e+05
  -3.479911e+05   1.500270e+06
  -9.025925e+05   1.042995e+06
  -8.997845e+05  -5.861139e+05
  -1.468800e+05  -1.479811e+06
   8.564678e+05  -5.596517e+05
   1.096088e+06   1.147465e+06
   9.624560e+03   1.768433e+06
  -1.650738e+06   6.779418e+05
  -2.299300e+06  -1.021591e+06
  -1.125599e+06  -1.835920e+06
   9.274538e+05  -1.274725e+06
   2.034945e+06  -1.907468e+04
   1.323746e+06   8.726636e+05
  -3.157427e+05   8.225135e+05
  -1.246690e+06   9.154256e+04
  -7.604736e+05  -5.184154e+05
   3.422680e+05  -4.174498e+05
   7.535298e+05   2.073961e+05
   9.217305e+04   6.189616e+05
  -7.479368e+05   3.387854e+05
  -6.612893e+05  -3.517055e+05
   3.802696e+05  -7.228330e+05
   1.244626e+06  -3.068435e+05
   8.658055e+05   6.908002e+05
  -5.860779e+05   1.528132e+06
  -1.884655e+06   1.452838e+06
  -2.023900e+06   3.189460e+05
  -1.141112e+06  -1.168414e+06
  -1.610763e+05  -1.977294e+06
   2.606658e+05  -1.710780e+06
   2.678832e+05  -9.636455e+05
   3.865353e+05  -5.558357e+05
   8.252380e+05  -5.395768e+05
   1.270102e+06  -2.671524e+05
   1.244023e+06   5.660337e+05
   5.741085e+05   1.325810e+06
  -4.135095e+05   1.134488e+06
  -1.065705e+06  -1.843478e+04
  -8.586285e+05  -1.153769e+06
   1.279258e+05  -1.297315e+06
   1.156991e+06  -4.113474e+05
   1.414741e+06   6.959408e+05
   7.695419e+05   1.221899e+06
  -1.096341e+05   1.034910e+06
  -4.957786e+05   6.013580e+05
  -4.043119e+05   4.062221e+05
  -4.879897e+05   4.785206e+05
  -1.114647e+06   4.265689e+05
  -1.754526e+06  -1.062395e+05
  -1.494871e+06  -1.014616e+06
  -1.442544e+05  -1.733023e+06
   1.375634e+06  -1.678195e+06
   1.873167e+06  -7.701758e+05
   1.072211e+06   4.112290e+05
  -1.448294e+05   1.030627e+06
  -6.643469e+05   7.061958e+05
  -2.108999e+05  -1.044849e+05
   5.307189e+05  -5.210846e+05
   7.390169e+05  -1.556667e+05
   2.740786e+05   4.557800e+05
  -2.980695e+05   4.898499e+05
  -3.534890e+05  -1.306725e+05
   1.853055e+05  -5.722178e+05
   8.020802e+05  -7.611465e+04
   8.426945e+05   1.064320e+06
   7.314967e+04   1.735627e+06
  -1.069989e+06   1.192840e+06
  -1.756828e+06  -1.634225e+05
  -1.434590e+06  -1.238497e+06
  -3.550800e+05  -1.328479e+06
   5.999035e+05  -6.746196e+05
   7.364288e+05  -5.563376e+04
   2.152864e+05   1.523607e+04
  -1.713676e+05  -3.139549e+05
   9.582099e+04  -5.151476e+05
   6.854926e+05  -2.666888e+05
   8.284143e+05   2.365196e+05
   2.488940e+05   5.131649e+05
  -4.642015e+05   3.018025e+05
  -4.899680e+05  -1.696668e+05
   2.876864e+05  -4.016847e+05
   1.089621e+06  -9.583816e+04
   1.030324e+06   5.596406e+05
   4.922325e+04   1.030827e+06
  -1.006946e+06   8.869284e+05
  -1.230562e+06   1.989937e+05
  -5.328915e+05  -4.723491e+05
   3.322731e+05  -5.662586e+05
   5.586778e+05  -7.956759e+04
   4.058662e+04   4.025262e+05
  -6.223827e+05   3.169620e+05
  -7.662889e+05  -2.588724e+05
  -2.743684e+05  -6.994474e+05
   3.726465e+05  -5.463524e+05
   5.825192e+05  -1.273847e+04
   2.148677e+05   2.924263e+05
  -2.808157e+05   5.596662e+04
  -3.052007e+05  -4.276332e+05
   2.588551e+05  -6.038807e+05
   8.727740e+05  -2.217107e+05
   8.750080e+05   4.488105e+05
   1.921622e+05   8.768272e+05
  -5.620747e+05   7.306490e+05
  -7.297818e+05   1.572563e+05
  -2.748600e+05  -3.470476e+05
   2.502627e+05  -3.873027e+05
   3.348267e+05  -3.686963e+04
   4.906770e+03   2.662884e+05
  -2.978104e+05   2.096190e+05
  -2.300940e+05  -5.675077e+04
   1.060857e+05  -1.253987e+05
   2.885466e+05   1.617128e+05
   1.564374e+04   4.984303e+05
  -5.560646e+05   4.341675e+05
  -9.112502e+05  -1.340602e+05
  -6.583601e+05  -8.197209e+05
   6.459401e+04  -1.085018e+06
   7.027966e+05  -7.217792e+05
   8.249350e+05  -3.087708e+04
   5.123458e+05   4.579929e+05
   1.866496e+05   4.689665e+05
   1.139566e+05   2.053283e+05
   1.613351e+05   8.497155e+04
   3.330641e+04   2.562135e+05
  -3.333054e+05   4.284457e+05
  -6.538243e+05   2.262519e+05
  -5.577813e+05  -3.242298e+05
   3.250963e+04  -7.431857e+05
   7.519788e+05  -5.663312e+05
   1.034196e+06   1.609072e+05
   5.853282e+05   8.863575e+05
  -3.192695e+05   1.045235e+06
  -1.032727e+06   5.536614e+05
  -1.087508e+06  -1.578728e+05
  -5.762619e+05  -5.703177e+05
   3.045172e+03  -5.359040e+05
   2.474082e+05  -3.375984e+05
   1.760318e+05  -3.176868e+05
   1.029169e+05  -4.811547e+05
   2.515226e+05  -5.036850e+05
   5.156198e+05  -1.332299e+05
   5.780609e+05   4.677016e+05
   2.552751e+05   8.317961e+05
  -2.696518e+05   6.394257e+05
  -5.751372e+05   3.472618e+04
  -4.003238e+05  -5.087457e+05
   8.057427e+04  -6.111596e+05
   4.211525e+05  -2.803612e+05
   3.554200e+05   1.623105e+05
   5.235668e+04   3.996409e+05
  -1.089354e+05   3.670438e+05
   1.530921e+04   2.314977e+05
   1.724621e+05   1.682559e+05
   1.643526e+04   1.784966e+05
  -4.614589e+05   1.219880e+05
  -8.534827e+05  -9.595968e+04
  -7.226059e+05  -3.950168e+05
  -7.324057e+04  -5.763972e+05
   5.991454e+05  -4.967395e+05
   7.710010e+05  -1.977666e+05
   3.997799e+05   1.106147e+05
  -6.922977e+04   2.084248e+05
  -1.988371e+05   6.059533e+04
   1.087253e+04  -1.270951e+05
   2.230505e+05  -1.011572e+05
   2.040696e+05   1.472311e+05
   4.802375e+04   3.354719e+05
  -1.930291e+04   2.142905e+05
   6.789548e+04  -9.216138e+04
   1.747336e+05  -1.922012e+05
   1.374012e+05   9.135257e+04
  -8.675223e+04   4.599318e+05
  -3.806033e+05   4.656522e+05
  -5.142041e+05   4.527335e+04
  -3.018206e+05  -3.957842e+05
   1.704658e+05  -4.398811e+05
   5.022213e+05  -9.380021e+04
   3.180934e+05   2.678514e+05
  -2.844948e+05   3.083682e+05
  -7.344633e+05   1.497779e+04
  -5.488232e+05  -3.522345e+05
   1.339870e+05  -5.024475e+05
   6.779415e+05  -3.286314e+05
   6.128941e+05   1.872913e+04
   1.018191e+05   2.434859e+05
  -2.766248e+05   1.606435e+05
  -1.509096e+05  -1.036336e+05
   2.863136e+05  -2.027706e+05
   5.176066e+05   7.664609e+04
   2.447713e+05   5.437000e+05
  -3.210253e+05   7.332007e+05
  -6.871289e+05   3.582621e+05
  -5.616646e+05  -3.537679e+05
  -9.495754e+04  -8.145141e+05
   3.222847e+05  -6.220145e+05
   4.294371e+05   2.804268e+04
   2.491778e+05   5.249565e+05
  -3.288477e+04   4.700394e+05
  -2.343467e+05   6.754931e+04
  -2.540991e+05  -1.757252e+05
  -1.206706e+05  -7.596563e+04
  -3.403856e+03   5.801362e+04
  -6.203203e+04  -9.680033e+04
  -2.121084e+05  -4.147251e+05
  -1.508276e+05  -4.937543e+05
   2.532512e+05  -1.949096e+05
   6.752428e+05   1.981929e+05
   6.343891e+05   3.657583e+05
   9.550776e+04   3.008332e+05
  -4.251936e+05   1.886758e+05
  -4.576904e+05   1.068272e+05
  -1.242470e+05   7.128884e+03
   8.134663e+04  -9.707261e+04
  -3.857556e+04  -1.202080e+05
  -1.756374e+05  -7.258953e+04
  -1.076603e+03  -6.235462e+04
   3.553536e+05  -8.598718e+04
   4.604156e+05   1.766975e+04
   1.133717e+05   2.965117e+05
  -4.245352e+05   4.943269e+05
  -7.176239e+05   3.031789e+05
  -5.615807e+05  -2.185029e+05
  -1.049978e+05  -6.364500e+05
   3.229277e+05  -5.982869e+05
   4.650632e+05  -2.055796e+05
   3.006880e+05   1.329217e+05
   3.685964e+04   1.581646e+05
  -7.830551e+04  -3.645128e+03
   1.911572e+04  -4.536464e+04
   1.611710e+05   1.471167e+05
   1.347731e+05   3.601458e+05
  -8.907429e+04   2.916681e+05
  -3.141719e+05  -8.902014e+04
  -2.991723e+05  -4.579466e+05
   4.810033e+03  -4.530217e+05
   3.662330e+05  -6.090169e+04
   4.450630e+05   3.663166e+05
   1.232097e+05   4.819893e+05
  -3.247047e+05   2.649342e+05
  -4.731928e+05  -4.605610e+04
  -2.092606e+05  -2.366826e+05
   1.225621e+05  -2.562015e+05
   1.263184e+05  -1.543429e+05
  -1.561410e+05  -2.244893e+04
  -3.016694e+05   1.070750e+04
  -4.998073e+04  -1.279087e+05
   3.672132e+05  -3.104950e+05
   5.219064e+05  -2.784407e+05
   2.948621e+05   4.079887e+04
  -4.553044e+04   3.693323e+05
  -2.043920e+05   3.643740e+05
  -1.431038e+05   4.023902e+04
   2.250567e+02  -2.321255e+05
   1.144707e+05  -1.692849e+05
   1.590031e+05   1.061802e+05
   1.072403e+05   2.586659e+05
  -3.358631e+04   1.528120e+05
  -1.722339e+05  -3.762151e+04
  -1.983637e+05  -9.582115e+04
  -1.082120e+05  -1.711305e+04
  -4.765032e+03   3.430322e+04
   3.742543e+04  -4.744882e+04
   5.200200e+04  -1.830106e+05
   1.021498e+05  -1.986907e+05
   1.667237e+05  -2.209971e+04
   1.489264e+05   2.168905e+05
  -3.012635e+03   2.939177e+05
  -2.025059e+05   1.195028e+05
  -2.681916e+05  -1.514413e+05
  -9.170884e+04  -2.718472e+05
   2.137756e+05  -1.570085e+05
   3.686534e+05   5.184496e+04
   2.011958e+05   1.692127e+05
  -1.304794e+05   1.475320e+05
  -2.731508e+05   6.391729e+04
  -7.936360e+04   2.092324e+03
   1.987481e+05   3.462438e+03
   1.985450e+05   7.467167e+04
  -1.123158e+05   1.564821e+05
  -3.918222e+05   1.179896e+05
