
 $NMID
 id='ANONYMOUS ', fmtdat='(2E16.6)'
 volume=1.0
 tramp=1.0
 $END
  -3.835959e+07  -1.420482e+06
  -2.272155e+07  -2.295481e+07
   4.677434e+06  -2.515665e+07
   1.832693e+07  -1.092081e+07
   1.159143e+07   3.302888e+06
  -1.573129e+06   6.282854e+06
  -6.786708e+06   1.377556e+05
  -2.721193e+06  -6.429512e+06
   3.632136e+06  -7.268396e+06
   6.664052e+06  -2.079658e+06
   5.045537e+06   4.524945e+06
   5.120498e+05   6.459922e+06
  -3.037262e+06   1.758809e+06
  -2.070746e+06  -4.537597e+06
   2.526837e+06  -5.297184e+06
   5.584998e+06   6.056446e+05
   3.309038e+06   7.181106e+06
  -2.564346e+06   8.384390e+06
  -7.149868e+06   3.986514e+06
  -7.403951e+06  -1.865543e+06
  -3.994366e+06  -5.390611e+06
   6.613359e+04  -5.493608e+06
   1.678891e+06  -3.493309e+06
   1.471664e+05  -1.963226e+06
  -1.605825e+06  -2.546919e+06
   1.422936e+05  -3.935802e+06
   4.921878e+06  -3.190589e+06
   7.718496e+06   2.764034e+05
   5.011340e+06   3.525308e+06
  -5.700791e+05   3.721657e+06
  -3.499865e+06   1.410258e+06
  -1.898914e+06  -8.284760e+05
   1.313412e+06  -1.412329e+06
   2.808658e+06  -2.747425e+05
   1.965055e+06   1.940758e+06
  -1.926851e+04   3.598165e+06
  -1.716545e+06   2.605362e+06
  -1.924935e+06  -7.096945e+05
  -5.230054e+05  -2.658039e+06
   7.151879e+05  -6.368677e+05
  -1.069815e+05   2.561333e+06
  -2.026074e+06   2.006286e+06
  -1.877009e+06  -2.135129e+06
   1.287643e+06  -4.181596e+06
   4.218630e+06  -6.845763e+05
   3.227261e+06   4.630340e+06
  -1.257985e+06   5.682694e+06
  -5.205460e+06   1.542834e+06
  -5.302014e+06  -3.265010e+06
  -1.735480e+06  -4.582588e+06
   2.549462e+06  -2.342299e+06
   4.279326e+06   8.349338e+05
   2.244699e+06   2.476780e+06
  -1.501620e+06   1.681896e+06
  -3.255691e+06  -5.073252e+05
  -1.525080e+06  -1.815454e+06
   1.177700e+06  -9.679336e+05
   1.471750e+06   7.042726e+05
  -5.696169e+05   8.912776e+05
  -1.738923e+06  -6.522759e+05
  -9.231535e+04  -1.913514e+06
   2.681214e+06  -1.349111e+06
   3.619101e+06   5.799680e+05
   1.757549e+06   2.625141e+06
  -1.536464e+06   3.920142e+06
  -4.242982e+06   3.603280e+06
  -4.905842e+06   1.022404e+06
  -3.226341e+06  -2.715498e+06
  -4.821967e+05  -4.818613e+06
   1.233901e+06  -3.780237e+06
   1.074190e+06  -1.378340e+06
   3.439721e+05  -3.949685e+05
   7.010342e+05  -1.043982e+06
   1.971116e+06  -1.159339e+06
   2.544865e+06   4.007353e+05
   1.529868e+06   2.153512e+06
  -3.442295e+05   2.079546e+06
  -1.694896e+06   1.029806e+05
  -1.569768e+06  -2.031651e+06
   1.383515e+05  -2.589503e+06
   2.423167e+06  -1.145930e+06
   3.461128e+06   1.291197e+06
   2.202151e+06   3.029155e+06
  -2.312225e+05   3.022913e+06
  -1.655386e+06   1.816418e+06
  -1.494656e+06   8.476025e+05
  -1.335404e+06   7.041018e+05
  -2.425452e+06   5.522013e+05
  -3.667407e+06  -5.444693e+05
  -2.987113e+06  -2.309216e+06
  -1.294023e+05  -3.557605e+06
   2.848046e+06  -3.362314e+06
   3.746690e+06  -1.685429e+06
   2.268698e+06   6.003330e+05
  -5.860145e+03   2.033245e+06
  -1.150313e+06   1.581774e+06
  -4.632443e+05  -1.148519e+05
   1.023451e+06  -1.091440e+06
   1.592796e+06  -2.973375e+05
   6.737084e+05   1.016568e+06
  -5.224154e+05   9.704215e+05
  -4.958787e+05  -3.017561e+05
   6.891644e+05  -7.879743e+05
   1.543183e+06   6.292348e+05
   9.476358e+05   2.632734e+06
  -7.708124e+05   3.103761e+06
  -2.450138e+06   1.500871e+06
  -3.106442e+06  -8.834741e+05
  -2.338804e+06  -2.433581e+06
  -5.160257e+05  -2.441288e+06
   1.152783e+06  -1.309488e+06
   1.431174e+06  -1.524092e+05
   4.319295e+05   3.978735e+04
  -3.121931e+05  -6.525648e+05
   3.220137e+05  -1.102863e+06
   1.559094e+06  -4.750233e+05
   1.703399e+06   6.892636e+05
   3.680044e+05   1.148092e+06
  -9.935789e+05   5.130457e+05
  -8.472957e+05  -3.858121e+05
   6.796415e+05  -5.791950e+05
   2.009049e+06   1.113689e+05
   1.731931e+06   1.168789e+06
  -1.027851e+05   1.854646e+06
  -2.036495e+06   1.557426e+06
  -2.449012e+06   2.718593e+05
  -1.045065e+06  -1.058942e+06
   7.785765e+05  -1.224476e+06
   1.269469e+06  -1.311905e+05
   1.131771e+05   8.970560e+05
  -1.311238e+06   6.154008e+05
  -1.501836e+06  -6.429632e+05
  -3.725347e+05  -1.423156e+06
   8.753081e+05  -9.246837e+05
   1.106809e+06   1.705941e+05
   2.791421e+05   6.363569e+05
  -6.481903e+05   4.653217e+04
  -6.139824e+05  -9.220835e+05
   5.420190e+05  -1.235721e+06
   1.779729e+06  -4.361655e+05
   1.767767e+06   9.480561e+05
   3.265511e+05   1.805942e+06
  -1.232972e+06   1.430016e+06
  -1.491665e+06   2.140852e+05
  -4.672803e+05  -7.336559e+05
   5.563941e+05  -7.165583e+05
   5.983567e+05  -6.383316e+04
  -6.173030e+04   3.955397e+05
  -4.953583e+05   2.745374e+05
  -2.492675e+05  -7.011805e+04
   3.128841e+05  -4.651148e+04
   4.893311e+05   4.907419e+05
  -1.152561e+05   1.022157e+06
  -1.191308e+06   8.031285e+05
  -1.829149e+06  -3.559432e+05
  -1.279061e+06  -1.708604e+06
   1.935203e+05  -2.149189e+06
   1.425372e+06  -1.306117e+06
   1.545402e+06   5.328349e+04
   8.616526e+05   8.340160e+05
   3.320337e+05   7.149754e+05
   3.583623e+05   2.947201e+05
   4.586555e+05   2.570220e+05
   6.094364e+04   6.192754e+05
  -7.420542e+05   8.116846e+05
  -1.295094e+06   3.402522e+05
  -1.001941e+06  -6.482502e+05
   1.667408e+05  -1.363665e+06
   1.525508e+06  -1.003639e+06
   2.014419e+06   4.106526e+05
   1.038458e+06   1.833846e+06
  -8.267662e+05   2.068581e+06
  -2.182899e+06   9.473582e+05
  -2.095007e+06  -5.032745e+05
  -9.456631e+05  -1.162234e+06
   1.132330e+05  -9.157885e+05
   3.967511e+05  -5.422099e+05
   1.885445e+05  -6.696572e+05
   1.602585e+05  -1.087226e+06
   5.801841e+05  -1.077065e+06
   1.106371e+06  -2.551561e+05
   1.160528e+06   9.658258e+05
   4.770462e+05   1.678275e+06
  -5.628412e+05   1.266910e+06
  -1.138816e+06   9.651476e+03
  -7.284061e+05  -1.097418e+06
   2.928773e+05  -1.216734e+06
   9.527465e+05  -4.115471e+05
   6.921460e+05   5.171800e+05
  -4.915422e+04   8.823076e+05
  -3.857598e+05   6.880593e+05
  -3.461632e+04   3.963789e+05
   3.704068e+05   3.188179e+05
   4.419235e+04   3.495610e+05
  -9.832974e+05   1.919074e+05
  -1.777305e+06  -2.852102e+05
  -1.420295e+06  -8.890019e+05
  -9.223103e+03  -1.217689e+06
   1.345118e+06  -9.750560e+05
   1.586889e+06  -2.767298e+05
   7.428145e+05   3.633657e+05
  -2.078756e+05   4.645914e+05
  -4.287388e+05   5.573142e+04
  -5.395549e+02  -3.335193e+05
   4.147181e+05  -2.205176e+05
   4.175279e+05   3.040756e+05
   1.748980e+05   6.618039e+05
   3.653145e+04   4.340559e+05
   1.224019e+05  -1.214510e+05
   2.827182e+05  -3.082782e+05
   2.549201e+05   2.013759e+05
  -1.494241e+05   8.968837e+05
  -7.990119e+05   9.318882e+05
  -1.152771e+06   1.080102e+05
  -6.929502e+05  -8.228040e+05
   3.774184e+05  -9.599051e+05
   1.086890e+06  -2.427431e+05
   6.432616e+05   5.250022e+05
  -6.067635e+05   5.810448e+05
  -1.422929e+06  -5.448692e+04
  -9.542017e+05  -7.414110e+05
   3.737316e+05  -9.093411e+05
   1.330091e+06  -4.944210e+05
   1.131054e+06   1.274308e+05
   1.453671e+05   4.632412e+05
  -5.660903e+05   2.589532e+05
  -3.207913e+05  -2.493517e+05
   5.467543e+05  -4.420380e+05
   1.050267e+06   1.107107e+05
   5.536404e+05   1.074247e+06
  -5.784693e+05   1.500608e+06
  -1.347387e+06   7.572840e+05
  -1.115785e+06  -6.922376e+05
  -1.735377e+05  -1.605489e+06
   6.574083e+05  -1.175326e+06
   8.272507e+05   1.291459e+05
   4.105567e+05   1.053493e+06
  -1.576580e+05   8.771520e+05
  -4.878490e+05   8.691918e+04
  -4.421818e+05  -3.392220e+05
  -1.757862e+05  -1.272017e+05
  -3.012597e+04   9.150341e+04
  -2.029583e+05  -2.514919e+05
  -4.348065e+05  -8.555100e+05
  -2.043451e+05  -9.602062e+05
   5.958353e+05  -3.493378e+05
   1.319319e+06   4.158309e+05
   1.172285e+06   7.406988e+05
   1.670461e+05   6.155040e+05
  -7.891531e+05   3.755028e+05
  -8.857622e+05   1.739755e+05
  -2.953043e+05  -3.588132e+04
   1.406778e+05  -1.997591e+05
  -3.761382e+03  -1.921331e+05
  -2.735924e+05  -9.671075e+04
  -3.177793e+04  -1.245791e+05
   6.290652e+05  -2.038376e+05
   9.308618e+05   2.424298e+04
   3.347680e+05   6.230662e+05
  -7.878507e+05   1.034315e+06
  -1.499925e+06   6.411754e+05
  -1.221397e+06  -4.145937e+05
  -2.305971e+05  -1.262359e+06
   6.817232e+05  -1.212123e+06
   9.419754e+05  -4.556373e+05
   5.923045e+05   2.257945e+05
   1.044314e+05   3.230401e+05
  -9.383112e+04   4.717045e+04
   5.797506e+04  -3.302291e+04
   2.786088e+05   3.166238e+05
   2.292432e+05   7.182629e+05
  -1.697430e+05   5.993755e+05
  -6.170154e+05  -1.283539e+05
  -6.434394e+05  -8.727868e+05
  -6.914903e+04  -9.236905e+05
   6.944632e+05  -1.971365e+05
   9.182603e+05   6.705646e+05
   2.906582e+05   9.748663e+05
  -6.464511e+05   5.842188e+05
  -9.861357e+05  -8.005756e+04
  -4.527190e+05  -5.335850e+05
   2.624008e+05  -5.797784e+05
   3.195947e+05  -3.152793e+05
  -2.463197e+05  -1.080901e+04
  -5.866703e+05   3.172507e+04
  -1.210439e+05  -2.725934e+05
   7.362937e+05  -6.064595e+05
   1.098903e+06  -4.907996e+05
   6.509562e+05   1.475456e+05
  -9.208642e+04   7.657476e+05
  -4.762488e+05   7.471536e+05
  -3.615744e+05   1.209439e+05
  -3.776738e+04  -4.399336e+05
   2.217001e+05  -3.768802e+05
   3.206345e+05   1.512983e+05
   2.226269e+05   5.168527e+05
  -5.822721e+04   3.640718e+05
  -3.499354e+05  -4.948915e+04
  -4.124197e+05  -2.389801e+05
  -2.123267e+05  -7.382943e+04
   1.573104e+04   1.211681e+05
   6.422855e+04   6.558214e+03
   1.390676e+04  -3.356219e+05
   9.040916e+04  -4.796178e+05
   3.072327e+05  -1.619887e+05
   3.885674e+05   3.695301e+05
   1.050687e+05   5.908649e+05
  -3.772583e+05   2.732378e+05
  -5.830375e+05  -2.668940e+05
  -2.179254e+05  -5.227365e+05
   4.483097e+05  -3.207379e+05
   7.781702e+05   8.078671e+04
   4.209738e+05   3.396813e+05
  -2.667621e+05   3.419346e+05
  -5.699665e+05   1.832867e+05
  -2.091781e+05   8.842312e+03
   3.339342e+05  -5.107709e+04
   3.775130e+05   7.598216e+04
  -1.634962e+05   2.768565e+05
  -6.909938e+05   2.486082e+05
