
 $NMID
 id='ANONYMOUS ', fmtdat='(2E16.6)'
 volume=1.0
 tramp=1.0
 $END
   2.219567e+07  -2.712451e+05
   1.469495e+07   1.055999e+07
  -1.816983e+05   1.406334e+07
  -9.473973e+06   9.038042e+06
  -7.755621e+06   7.246904e+05
  -3.875436e+05  -3.863889e+06
   4.314640e+06  -1.820099e+06
   3.195077e+06   3.461238e+06
  -1.019543e+06   5.835660e+06
  -4.020159e+06   2.615686e+06
  -3.579844e+06  -2.745952e+06
  -5.651116e+05  -4.521396e+06
   2.073839e+06  -1.028239e+06
   1.762328e+06   3.659652e+06
  -1.192676e+06   4.387941e+06
  -3.647673e+06   4.168888e+05
  -2.777077e+06  -4.277964e+06
   9.212246e+05  -5.493655e+06
   4.183755e+06  -2.718463e+06
   4.380830e+06   1.162550e+06
   1.979135e+06   3.112601e+06
  -2.626947e+05   2.577061e+06
  -2.171530e+05   1.389198e+06
   1.465189e+06   1.507181e+06
   2.021163e+06   2.893747e+06
  -3.932508e+05   3.650322e+06
  -4.269663e+06   2.256654e+06
  -5.887784e+06  -5.972177e+05
  -3.333120e+06  -2.673698e+06
   1.085604e+06  -2.461808e+06
   3.156192e+06  -4.713512e+05
   1.305442e+06   1.473314e+06
  -1.969184e+06   1.753328e+06
  -3.217418e+06   4.876265e+04
  -1.679448e+06  -2.319641e+06
   5.890958e+05  -3.174103e+06
   1.445710e+06  -1.497795e+06
   6.864041e+05   1.067501e+06
  -3.699879e+05   1.635256e+06
  -4.830810e+05  -4.761170e+05
   4.773860e+05  -2.575646e+06
   1.557256e+06  -1.807421e+06
   1.525836e+06   1.105518e+06
   3.252920e+04   2.622540e+06
  -1.750214e+06   8.124811e+05
  -1.929694e+06  -2.295340e+06
   2.061634e+05  -3.261068e+06
   3.081607e+06  -1.141020e+06
   4.026285e+06   1.900191e+06
   1.882061e+06   3.233866e+06
  -1.645828e+06   2.159128e+06
  -3.494200e+06  -3.845087e+04
  -2.218018e+06  -1.533285e+06
   6.315045e+05  -1.370754e+06
   2.198682e+06  -6.000616e+04
   1.276276e+06   9.605886e+05
  -6.490735e+05   7.082083e+05
  -1.280154e+06  -3.730930e+05
  -9.449265e+04  -9.787846e+05
   1.243309e+06  -4.255956e+05
   9.336469e+05   6.760058e+05
  -8.716243e+05   1.152353e+06
  -2.221874e+06   3.653711e+05
  -1.459007e+06  -1.322223e+06
   1.053357e+06  -2.747440e+06
   3.305866e+06  -2.627244e+06
   3.610883e+06  -6.121711e+05
   2.097968e+06   2.077738e+06
   3.071560e+05   3.518327e+06
  -5.049140e+05   2.965998e+06
  -4.668119e+05   1.582048e+06
  -5.614276e+05   9.144933e+05
  -1.301399e+06   1.002215e+06
  -2.159816e+06   5.932638e+05
  -2.207946e+06  -8.707331e+05
  -1.086045e+06  -2.238508e+06
   6.275897e+05  -1.963750e+06
   1.793573e+06  -2.151565e+04
   1.497629e+06   1.935932e+06
  -1.809543e+05   2.244709e+06
  -2.016108e+06   7.667464e+05
  -2.539023e+06  -1.185714e+06
  -1.412525e+06  -2.189759e+06
   2.058338e+05  -1.903085e+06
   9.459705e+05  -1.097949e+06
   7.707725e+05  -6.904458e+05
   8.645012e+05  -7.955252e+05
   1.930453e+06  -7.195676e+05
   3.044489e+06   1.887899e+05
   2.597699e+06   1.751986e+06
   2.654165e+05   2.997919e+06
  -2.353310e+06   2.932092e+06
  -3.226128e+06   1.392430e+06
  -1.883536e+06  -6.668644e+05
   1.945673e+05  -1.792972e+06
   1.115836e+06  -1.258345e+06
   3.694883e+05   1.700404e+05
  -9.068239e+05   9.158386e+05
  -1.283547e+06   2.716484e+05
  -4.879981e+05  -7.990816e+05
   4.965385e+05  -8.460062e+05
   5.815105e+05   2.204389e+05
  -3.367439e+05   9.331017e+05
  -1.345691e+06   5.105461e+04
  -1.369008e+06  -1.850386e+06
  -7.109403e+04  -2.910325e+06
   1.819820e+06  -1.965545e+06
   2.966051e+06   2.865121e+05
   2.446353e+06   2.074500e+06
   6.315557e+05   2.253040e+06
  -1.011763e+06   1.178826e+06
  -1.265380e+06   1.211201e+05
  -3.706930e+05  -2.112774e+04
   2.962181e+05   5.422252e+05
  -1.774656e+05   8.948396e+05
  -1.200326e+06   4.561984e+05
  -1.428091e+06  -4.232318e+05
  -4.120673e+05  -8.893831e+05
   8.046533e+05  -5.108917e+05
   8.305327e+05   2.902866e+05
  -4.980319e+05   6.728683e+05
  -1.853746e+06   1.597820e+05
  -1.753616e+06  -9.387952e+05
  -9.159582e+04  -1.748684e+06
   1.714823e+06  -1.528471e+06
   2.113577e+06  -3.565974e+05
   9.207156e+05   8.156723e+05
  -5.805086e+05   9.885405e+05
  -9.779909e+05   1.369560e+05
  -7.450517e+04  -7.068370e+05
   1.077616e+06  -5.532111e+05
   1.318641e+06   4.465199e+05
   4.635168e+05   1.196314e+06
  -6.416951e+05   9.214087e+05
  -9.875238e+05   8.800037e+03
  -3.503110e+05  -5.013139e+05
   4.984751e+05  -8.699236e+04
   5.366247e+05   7.479047e+05
  -4.415205e+05   1.057804e+06
  -1.512605e+06   4.020402e+05
  -1.524977e+06  -7.642692e+05
  -3.421532e+05  -1.515636e+06
   9.665799e+05  -1.265539e+06
   1.253530e+06  -2.734169e+05
   4.655698e+05   5.931920e+05
  -4.310796e+05   6.609941e+05
  -5.666496e+05   6.807271e+04
  -5.915723e+03  -4.432626e+05
   4.970166e+05  -3.548480e+05
   3.766968e+05   8.263982e+04
  -1.871420e+05   1.940607e+05
  -4.895596e+05  -2.892255e+05
  -2.224508e+04  -8.617538e+05
   9.593264e+05  -7.559623e+05
   1.578679e+06   2.207077e+05
   1.152113e+06   1.409490e+06
  -9.212761e+04   1.871567e+06
  -1.193347e+06   1.245066e+06
  -1.405638e+06   6.360952e+04
  -8.781752e+05  -7.588184e+05
  -3.380386e+05  -7.722265e+05
  -2.251847e+05  -3.403276e+05
  -2.984933e+05  -1.588923e+05
  -6.329102e+04  -4.569736e+05
   5.712878e+05  -7.443445e+05
   1.121022e+06  -3.986507e+05
   9.627891e+05   5.402306e+05
  -4.317992e+04   1.268807e+06
  -1.285227e+06   9.843782e+05
  -1.784311e+06  -2.612202e+05
  -1.014533e+06  -1.523060e+06
   5.520891e+05  -1.806466e+06
   1.782524e+06  -9.565287e+05
   1.865592e+06   2.689430e+05
   9.805571e+05   9.669404e+05
  -1.187751e+03   9.014942e+05
  -4.012025e+05   5.756103e+05
  -2.753513e+05   5.639409e+05
  -1.639101e+05   8.520824e+05
  -4.348543e+05   8.829995e+05
  -8.976933e+05   2.387322e+05
  -1.010290e+06  -7.986356e+05
  -4.563406e+05  -1.432587e+06
   4.537379e+05  -1.109089e+06
   9.900176e+05  -6.530071e+04
   6.918961e+05   8.789315e+05
  -1.423193e+05   1.053377e+06
  -7.318478e+05   4.706297e+05
  -6.102149e+05  -2.980183e+05
  -7.655147e+04  -6.965759e+05
   2.017664e+05  -6.257761e+05
  -2.491091e+04  -3.876863e+05
  -3.077128e+05  -2.834857e+05
  -3.646376e+04  -3.074301e+05
   8.015050e+05  -2.152492e+05
   1.486522e+06   1.577847e+05
   1.253525e+06   6.779067e+05
   1.189999e+05   1.000773e+06
  -1.044181e+06   8.671773e+05
  -1.330066e+06   3.425072e+05
  -6.809735e+05  -2.001817e+05
   1.252714e+05  -3.671083e+05
   3.446920e+05  -1.002187e+05
  -1.278856e+04   2.313834e+05
  -3.767718e+05   1.847219e+05
  -3.574288e+05  -2.492731e+05
  -1.045486e+05  -5.783299e+05
   1.681057e+04  -3.732201e+05
  -1.107295e+05   1.533613e+05
  -2.862857e+05   3.289555e+05
  -2.394919e+05  -1.564904e+05
   1.316827e+05  -7.966895e+05
   6.519787e+05  -8.164482e+05
   9.083911e+05  -9.202026e+04
   5.455348e+05   6.834811e+05
  -2.903370e+05   7.763470e+05
  -8.790027e+05   1.821525e+05
  -5.583716e+05  -4.523550e+05
   4.872030e+05  -5.343227e+05
   1.259290e+06  -3.535106e+04
   9.364895e+05   5.947619e+05
  -2.299120e+05   8.552841e+05
  -1.154369e+06   5.636126e+05
  -1.043795e+06  -2.643142e+04
  -1.745316e+05  -4.130923e+05
   4.744303e+05  -2.749547e+05
   2.650589e+05   1.826997e+05
  -4.874077e+05   3.643577e+05
  -9.004023e+05  -1.133000e+05
  -4.472283e+05  -9.330624e+05
   5.264573e+05  -1.282022e+06
   1.174130e+06  -6.442010e+05
   9.789549e+05   5.930816e+05
   1.845927e+05   1.400382e+06
  -5.399141e+05   1.073061e+06
  -7.365426e+05  -4.676163e+04
  -4.318260e+05  -8.991976e+05
   5.683784e+04  -8.021652e+05
   4.057085e+05  -1.154646e+05
   4.346241e+05   2.939389e+05
   2.012366e+05   1.233298e+05
   7.164465e+03  -9.571814e+04
   1.201832e+05   1.764799e+05
   3.782296e+05   7.152026e+05
   2.594586e+05   8.424555e+05
  -4.448130e+05   3.351131e+05
  -1.166655e+06  -3.263559e+05
  -1.091375e+06  -6.137006e+05
  -1.697042e+05  -5.187642e+05
   7.200228e+05  -3.389600e+05
   7.826081e+05  -1.919145e+05
   2.204298e+05  -7.263828e+03
  -1.346582e+05   1.708170e+05
   6.047024e+04   1.973063e+05
   2.955794e+05   1.118935e+05
   8.194128e+03   1.091834e+05
  -6.006134e+05   1.652634e+05
  -7.982230e+05  -1.692038e+04
  -2.194176e+05  -5.165539e+05
   7.121841e+05  -8.737611e+05
   1.242247e+06  -5.469161e+05
   9.915938e+05   3.610324e+05
   2.023037e+05   1.095774e+06
  -5.474948e+05   1.044605e+06
  -8.014230e+05   3.746945e+05
  -5.233915e+05  -2.156294e+05
  -7.248089e+04  -2.746917e+05
   1.275350e+05  -5.662911e+03
  -3.344877e+04   6.989927e+04
  -2.755750e+05  -2.524602e+05
  -2.363092e+05  -6.179705e+05
   1.458499e+05  -5.090178e+05
   5.450203e+05   1.382170e+05
   5.367282e+05   7.782247e+05
   1.500192e+04   7.872350e+05
  -6.270916e+05   1.270905e+05
  -7.844114e+05  -6.121454e+05
  -2.324583e+05  -8.320463e+05
   5.546024e+05  -4.750108e+05
   8.254407e+05   6.575510e+04
   3.720656e+05   4.135386e+05
  -2.092431e+05   4.562909e+05
  -2.249576e+05   2.696031e+05
   2.609132e+05   2.749231e+04
   5.188324e+05  -2.894086e+04
   9.283096e+04   2.226023e+05
  -6.260044e+05   5.441535e+05
  -9.010080e+05   4.839123e+05
  -5.181892e+05  -7.380320e+04
   6.947631e+04  -6.432663e+05
   3.537878e+05  -6.363460e+05
   2.584549e+05  -7.798734e+04
   1.239127e+04   3.981998e+05
  -1.928406e+05   3.017193e+05
  -2.794385e+05  -1.698093e+05
  -1.936471e+05  -4.441270e+05
   5.382530e+04  -2.739990e+05
   2.999644e+05   5.663383e+04
   3.465138e+05   1.677191e+05
   1.858625e+05   3.241042e+04
   4.739930e+03  -6.803314e+04
  -5.943420e+04   6.790371e+04
  -7.063769e+04   3.150736e+05
  -1.557674e+05   3.610065e+05
  -2.860686e+05   6.106436e+04
  -2.783106e+05  -3.629773e+05
  -1.957737e+04  -5.108630e+05
   3.431935e+05  -2.178984e+05
   4.755225e+05   2.499135e+05
   1.716943e+05   4.649456e+05
  -3.684358e+05   2.777961e+05
  -6.451969e+05  -7.704100e+04
  -3.549822e+05  -2.875748e+05
   2.234536e+05  -2.652781e+05
   4.749220e+05  -1.255157e+05
   1.445394e+05  -5.419270e+03
  -3.352497e+05   9.295344e+03
  -3.435543e+05  -1.122663e+05
   1.799459e+05  -2.692081e+05
   6.600542e+05  -2.183276e+05
