
 $NMID
 id='ANONYMOUS ', fmtdat='(2E16.6)'
 volume=1.0
 tramp=1.0
 $END
   3.880586e+07  -1.152647e+06
   2.494115e+07   2.076774e+07
  -2.236586e+06   2.550567e+07
  -1.750854e+07   1.324571e+07
  -1.242883e+07  -1.608747e+06
   7.033496e+05  -6.618154e+06
   7.106685e+06  -1.288099e+06
   3.846407e+06   6.299298e+06
  -2.846776e+06   8.325179e+06
  -6.751957e+06   3.087973e+06
  -5.637917e+06  -4.401636e+06
  -9.427861e+05  -6.882490e+06
   3.149939e+06  -1.939480e+06
   2.584390e+06   4.962699e+06
  -2.175905e+06   6.092066e+06
  -5.874500e+06   1.803431e+04
  -4.092265e+06  -7.143583e+06
   1.922127e+06  -8.873368e+06
   7.032879e+06  -4.551261e+06
   7.593335e+06   1.548169e+06
   4.153645e+06   5.217978e+06
   1.332238e+05   5.273078e+06
  -1.170240e+06   3.353516e+06
   6.123860e+05   2.184093e+06
   2.191928e+06   3.122730e+06
  -9.729926e+04   4.569688e+06
  -5.425585e+06   3.638539e+06
  -8.432830e+06  -8.424523e+04
  -5.444423e+06  -3.593979e+06
   7.130819e+05  -3.938281e+06
   3.966606e+06  -1.457271e+06
   2.045227e+06   1.174626e+06
  -1.805139e+06   1.883802e+06
  -3.517750e+06   3.335285e+05
  -2.275669e+06  -2.408564e+06
   1.397095e+05  -4.102630e+06
   1.810759e+06  -2.691058e+06
   1.778516e+06   9.119867e+05
   3.711541e+05   2.691733e+06
  -6.941147e+05   3.091340e+05
   1.816627e+05  -3.060319e+06
   2.121263e+06  -2.401543e+06
   2.210492e+06   2.018849e+06
  -7.271845e+05   4.410601e+06
  -3.925311e+06   1.131644e+06
  -3.558943e+06  -4.320475e+06
   7.112910e+05  -5.801312e+06
   5.196477e+06  -1.954352e+06
   5.950812e+06   3.026022e+06
   2.372131e+06   4.808019e+06
  -2.549898e+06   2.858640e+06
  -4.833404e+06  -4.433688e+05
  -2.799275e+06  -2.467933e+06
   1.347952e+06  -1.984765e+06
   3.481739e+06   1.877011e+05
   1.820873e+06   1.743972e+06
  -1.133651e+06   1.124417e+06
  -1.722490e+06  -6.357206e+05
   3.558596e+05  -1.164214e+06
   1.931857e+06   2.150891e+05
   6.102393e+05   1.775213e+06
  -2.338643e+06   1.699035e+06
  -3.758247e+06  -8.691172e+04
  -2.112077e+06  -2.478945e+06
   1.427799e+06  -4.229342e+06
   4.473686e+06  -4.059721e+06
   5.227013e+06  -1.274181e+06
   3.480718e+06   2.796222e+06
   7.293632e+05   5.160020e+06
  -9.840790e+05   4.229827e+06
  -9.770421e+05   1.787246e+06
  -5.073108e+05   6.893181e+05
  -1.045018e+06   1.230361e+06
  -2.359582e+06   1.219207e+06
  -2.893957e+06  -5.584991e+05
  -1.728166e+06  -2.533655e+06
   4.429935e+05  -2.450641e+06
   2.070696e+06  -1.633097e+05
   1.942121e+06   2.320059e+06
  -6.405614e+04   2.954366e+06
  -2.661120e+06   1.318864e+06
  -3.785825e+06  -1.327089e+06
  -2.426890e+06  -3.136495e+06
   1.132806e+05  -3.124500e+06
   1.569478e+06  -1.933228e+06
   1.423255e+06  -1.016796e+06
   1.355761e+06  -9.465575e+05
   2.653216e+06  -8.509119e+05
   4.129705e+06   3.179219e+05
   3.503711e+06   2.372371e+06
   3.831506e+05   3.997664e+06
  -3.022921e+06   3.957525e+06
  -4.165118e+06   2.055386e+06
  -2.569276e+06  -6.408003e+05
  -5.279655e+03  -2.321312e+06
   1.290253e+06  -1.801134e+06
   5.259623e+05   1.400857e+05
  -1.118722e+06   1.280974e+06
  -1.761972e+06   4.261423e+05
  -7.787417e+05  -1.090114e+06
   5.731452e+05  -1.139912e+06
   6.571505e+05   3.008946e+05
  -6.309145e+05   1.053436e+06
  -1.802301e+06  -3.672713e+05
  -1.454353e+06  -2.766172e+06
   4.104922e+05  -3.681000e+06
   2.595788e+06  -2.120580e+06
   3.699045e+06   6.600130e+05
   2.951200e+06   2.655966e+06
   7.750944e+05   2.813511e+06
  -1.256660e+06   1.555415e+06
  -1.631444e+06   2.296973e+05
  -4.916846e+05  -2.211597e+04
   4.008576e+05   7.164378e+05
  -2.629711e+05   1.247063e+06
  -1.684508e+06   6.421516e+05
  -1.959204e+06  -6.231244e+05
  -5.248211e+05  -1.249780e+06
   1.080495e+06  -6.723754e+05
   1.032848e+06   3.734182e+05
  -6.974588e+05   7.685891e+05
  -2.336605e+06   8.438074e+04
  -2.135343e+06  -1.215080e+06
  -4.936016e+04  -2.177297e+06
   2.221379e+06  -1.944810e+06
   2.770125e+06  -4.753160e+05
   1.247983e+06   1.113606e+06
  -7.851114e+05   1.401955e+06
  -1.387590e+06   2.226495e+05
  -1.663718e+05  -9.854490e+05
   1.435370e+06  -7.754596e+05
   1.750544e+06   6.104931e+05
   5.562420e+05   1.591002e+06
  -9.042654e+05   1.154586e+06
  -1.289364e+06  -6.973991e+04
  -4.054617e+05  -6.942547e+05
   7.021595e+05  -1.156163e+05
   7.465483e+05   9.856357e+05
  -5.366609e+05   1.418931e+06
  -1.980746e+06   5.913769e+05
  -2.047705e+06  -9.654121e+05
  -4.831424e+05  -2.014718e+06
   1.290517e+06  -1.696832e+06
   1.674226e+06  -3.510317e+05
   5.981755e+05   8.002374e+05
  -5.767572e+05   8.664007e+05
  -7.048010e+05   1.091074e+05
   1.864003e+04  -4.994835e+05
   5.772799e+05  -3.905572e+05
   3.590479e+05   7.586801e+04
  -3.124822e+05   1.357546e+05
  -6.048229e+05  -4.718989e+05
   2.879124e+04  -1.151585e+06
   1.279726e+06  -9.915607e+05
   2.087537e+06   2.790405e+05
   1.549553e+06   1.846927e+06
  -8.898749e+04   2.453926e+06
  -1.544714e+06   1.600594e+06
  -1.791204e+06   5.577979e+04
  -1.073501e+06  -9.327673e+05
  -4.245496e+05  -8.721977e+05
  -3.743094e+05  -3.561066e+05
  -4.835265e+05  -2.367627e+05
  -9.992478e+04  -6.584708e+05
   7.729683e+05  -9.683914e+05
   1.449548e+06  -4.875582e+05
   1.202407e+06   6.817149e+05
  -8.485360e+04   1.591861e+06
  -1.666911e+06   1.257301e+06
  -2.320409e+06  -3.314249e+05
  -1.317156e+06  -2.003462e+06
   7.650025e+05  -2.394944e+06
   2.385766e+06  -1.241313e+06
   2.429672e+06   3.993205e+05
   1.203819e+06   1.263180e+06
  -4.440768e+04   1.098705e+06
  -4.563250e+05   6.809497e+05
  -2.370718e+05   7.569135e+05
  -1.434198e+05   1.197666e+06
  -5.771859e+05   1.226488e+06
  -1.215553e+06   3.492925e+05
  -1.363471e+06  -1.025668e+06
  -6.381312e+05  -1.873866e+06
   5.656620e+05  -1.470056e+06
   1.295458e+06  -9.069858e+04
   9.075949e+05   1.178762e+06
  -2.238656e+05   1.396498e+06
  -1.020273e+06   5.679423e+05
  -8.171736e+05  -4.827090e+05
  -4.355750e+04  -9.730018e+05
   3.423164e+05  -8.161698e+05
  -3.657498e+03  -4.755865e+05
  -4.250909e+05  -3.491411e+05
  -6.241792e+04  -3.954626e+05
   1.082197e+06  -2.843108e+05
   2.001689e+06   2.005423e+05
   1.663338e+06   9.001267e+05
   1.223987e+05   1.356577e+06
  -1.422455e+06   1.180210e+06
  -1.769958e+06   4.363862e+05
  -8.816822e+05  -3.236454e+05
   1.874285e+05  -5.195679e+05
   4.716315e+05  -1.077797e+05
   7.619923e+03   3.486238e+05
  -4.714866e+05   2.621740e+05
  -4.841507e+05  -3.215818e+05
  -2.012434e+05  -7.446095e+05
  -3.543987e+04  -4.883389e+05
  -1.372096e+05   1.653237e+05
  -3.274207e+05   3.907694e+05
  -3.040089e+05  -2.065338e+05
   1.332081e+05  -1.029206e+06
   8.428239e+05  -1.094749e+06
   1.253652e+06  -1.747454e+05
   7.935442e+05   8.852743e+05
  -3.659697e+05   1.077050e+06
  -1.189136e+06   3.087911e+05
  -7.519569e+05  -5.672464e+05
   6.456853e+05  -7.011272e+05
   1.631972e+06  -3.843044e+04
   1.169372e+06   7.798774e+05
  -3.408313e+05   1.083084e+06
  -1.492246e+06   6.848045e+05
  -1.322344e+06  -5.554921e+04
  -2.089732e+05  -5.264913e+05
   6.242493e+05  -3.450653e+05
   3.699991e+05   2.507328e+05
  -6.061868e+05   5.153201e+05
  -1.190285e+06  -8.790837e+04
  -6.578073e+05  -1.194485e+06
   6.044881e+05  -1.716974e+06
   1.499745e+06  -9.097593e+05
   1.301444e+06   7.355675e+05
   2.814801e+05   1.819770e+06
  -6.824986e+05   1.389448e+06
  -9.553755e+05  -7.864235e+04
  -5.498330e+05  -1.171984e+06
   1.007478e+05  -1.025082e+06
   5.409483e+05  -1.410176e+05
   5.422966e+05   3.664745e+05
   2.300699e+05   1.443303e+05
   2.142624e+04  -1.145135e+05
   2.139150e+05   2.532856e+05
   5.317937e+05   9.386385e+05
   3.151259e+05   1.088977e+06
  -6.254272e+05   4.408247e+05
  -1.527562e+06  -3.991080e+05
  -1.400613e+06  -7.784219e+05
  -2.283314e+05  -6.839055e+05
   8.983538e+05  -4.647290e+05
   1.006067e+06  -2.554410e+05
   3.191285e+05   7.565081e+03
  -1.580556e+05   2.315192e+05
   4.005612e+04   2.354732e+05
   3.430799e+05   1.133667e+05
   3.171763e+04   1.388557e+05
  -7.322205e+05   2.502829e+05
  -1.052340e+06   1.508346e+04
  -3.707510e+05  -6.780742e+05
   8.641231e+05  -1.194493e+06
   1.644362e+06  -7.882964e+05
   1.368330e+06   4.175522e+05
   3.160074e+05   1.422851e+06
  -6.989517e+05   1.401377e+06
  -1.039741e+06   5.467549e+05
  -6.854411e+05  -2.406117e+05
  -1.235126e+05  -3.578538e+05
   1.266309e+05  -3.796885e+04
  -5.682534e+04   6.152072e+04
  -3.476482e+05  -3.365503e+05
  -3.108569e+05  -8.033207e+05
   1.651925e+05  -6.822760e+05
   7.099311e+05   1.325497e+05
   7.563621e+05   9.729961e+05
   9.530241e+04   1.037121e+06
  -7.913845e+05   2.300780e+05
  -1.063462e+06  -7.375077e+05
  -3.612411e+05  -1.086325e+06
   7.045946e+05  -6.738662e+05
   1.106580e+06   4.611236e+04
   5.270855e+05   5.595013e+05
  -2.615606e+05   6.450551e+05
  -3.213813e+05   3.713069e+05
   3.038823e+05   1.334755e+04
   6.690858e+05  -6.101557e+04
   1.427337e+05   2.965968e+05
  -8.038536e+05   7.291498e+05
  -1.201065e+06   6.352151e+05
  -7.226770e+05  -1.106343e+05
   6.612269e+04  -8.625756e+05
   4.779045e+05  -8.636603e+05
   3.757400e+05  -1.400638e+05
   5.021645e+04   5.055419e+05
  -2.351624e+05   4.237098e+05
  -3.695785e+05  -1.782513e+05
  -2.747925e+05  -5.748414e+05
   5.114157e+04  -3.938401e+05
   3.970473e+05   4.826461e+04
   4.736695e+05   2.329815e+05
   2.458642e+05   5.867698e+04
  -1.476296e+04  -1.170209e+05
  -7.733815e+04   3.317012e+04
  -3.247534e+04   3.920902e+05
  -1.206442e+05   5.174228e+05
  -3.496668e+05   1.551513e+05
  -4.249614e+05  -4.231747e+05
  -1.071850e+05  -6.629960e+05
   4.241447e+05  -3.154914e+05
   6.564603e+05   2.867614e+05
   2.599936e+05   5.890923e+05
  -4.843778e+05   3.831547e+05
  -8.706688e+05  -6.132404e+04
  -4.870974e+05  -3.636089e+05
   2.831851e+05  -3.835657e+05
   6.282349e+05  -2.155302e+05
   2.181081e+05  -1.852231e+04
  -3.994612e+05   5.308411e+04
  -4.389339e+05  -9.463491e+04
   1.942440e+05  -3.352783e+05
   8.051707e+05  -3.111385e+05
