
 $NMID
 id='ANONYMOUS ', fmtdat='(2E16.6)'
 volume=1.0
 tramp=1.0
 $END
   2.927627e+07   2.114197e+06
   1.793631e+07   1.544547e+07
  -1.887517e+06   1.830759e+07
  -1.323973e+07   1.076809e+07
  -1.004308e+07   1.940197e+05
  -1.183801e+05  -5.038151e+06
   5.707508e+06  -2.001514e+06
   3.830912e+06   4.738242e+06
  -1.785235e+06   7.494071e+06
  -5.447487e+06   3.045695e+06
  -4.472031e+06  -3.962918e+06
  -3.507505e+05  -6.043056e+06
   2.876686e+06  -1.194722e+06
   2.080091e+06   4.961422e+06
  -1.892164e+06   5.641540e+06
  -4.779055e+06   1.918445e+05
  -3.202336e+06  -5.872826e+06
   1.779997e+06  -7.095269e+06
   5.814802e+06  -3.117668e+06
   5.687794e+06   2.039919e+06
   2.268837e+06   4.401273e+06
  -7.180599e+05   3.425061e+06
  -5.392799e+05   1.732819e+06
   1.789542e+06   1.965562e+06
   2.510097e+06   3.904193e+06
  -7.513065e+05   4.810631e+06
  -5.833771e+06   2.690894e+06
  -7.778012e+06  -1.252020e+06
  -4.214306e+06  -3.849355e+06
   1.645737e+06  -3.250608e+06
   4.263313e+06  -4.446609e+05
   1.697737e+06   2.049804e+06
  -2.669431e+06   2.249563e+06
  -4.268350e+06  -9.472844e+04
  -2.109544e+06  -3.198133e+06
   1.004630e+06  -4.220673e+06
   2.097499e+06  -1.883517e+06
   8.909784e+05   1.547824e+06
  -6.473723e+05   2.216523e+06
  -6.911572e+05  -6.671973e+05
   7.780074e+05  -3.400103e+06
   2.182178e+06  -2.258386e+06
   1.885492e+06   1.584474e+06
  -2.206445e+05   3.379056e+06
  -2.356987e+06   7.950489e+05
  -2.253745e+06  -3.238950e+06
   6.361290e+05  -4.219254e+06
   4.167748e+06  -1.173450e+06
   5.108535e+06   2.837569e+06
   2.197296e+06   4.375330e+06
  -2.317815e+06   2.698411e+06
  -4.564284e+06  -3.118609e+05
  -2.781383e+06  -2.174048e+06
   9.376062e+05  -1.734290e+06
   2.882377e+06   1.177866e+05
   1.585265e+06   1.374336e+06
  -9.150747e+05   8.740007e+05
  -1.655290e+06  -5.825888e+05
  -7.829955e+04  -1.261071e+06
   1.598553e+06  -4.565997e+05
   1.114493e+06   8.936138e+05
  -1.234916e+06   1.343418e+06
  -2.896035e+06   2.440199e+05
  -1.754439e+06  -1.862264e+06
   1.650603e+06  -3.531972e+06
   4.606198e+06  -3.201052e+06
   4.842972e+06  -4.948978e+05
   2.604601e+06   2.958321e+06
   1.014936e+05   4.690884e+06
  -9.112726e+05   3.846782e+06
  -7.114087e+05   2.018478e+06
  -7.684833e+05   1.178990e+06
  -1.777544e+06   1.279013e+06
  -2.917662e+06   6.692448e+05
  -2.894840e+06  -1.297132e+06
  -1.315879e+06  -3.048675e+06
   9.443917e+05  -2.582839e+06
   2.376625e+06   6.056519e+04
   1.865152e+06   2.647255e+06
  -3.907928e+05   2.963063e+06
  -2.738510e+06   8.710363e+05
  -3.282870e+06  -1.784527e+06
  -1.677922e+06  -3.042539e+06
   4.710126e+05  -2.507569e+06
   1.375920e+06  -1.342404e+06
   1.077510e+06  -8.080421e+05
   1.184254e+06  -9.603731e+05
   2.577969e+06  -7.968467e+05
   3.980637e+06   4.787850e+05
   3.284614e+06   2.499372e+06
   1.323987e+05   3.964938e+06
  -3.312599e+06   3.695121e+06
  -4.367020e+06   1.611469e+06
  -2.458885e+06  -1.016772e+06
   3.755299e+05  -2.372054e+06
   1.572835e+06  -1.601956e+06
   4.885534e+05   2.475664e+05
  -1.259880e+06   1.152322e+06
  -1.716078e+06   2.691144e+05
  -5.891568e+05  -1.097925e+06
   7.105565e+05  -1.096413e+06
   7.523615e+05   3.103433e+05
  -4.818209e+05   1.187016e+06
  -1.724722e+06  -2.202530e+04
  -1.639228e+06  -2.492968e+06
   9.273815e+04  -3.787890e+06
   2.486187e+06  -2.440410e+06
   3.857630e+06   5.696509e+05
   3.082735e+06   2.880974e+06
   6.865179e+05   3.005289e+06
  -1.418349e+06   1.486331e+06
  -1.684749e+06   7.296891e+04
  -4.890953e+05  -5.543331e+04
   3.532903e+05   7.325868e+05
  -2.979520e+05   1.161022e+06
  -1.612081e+06   5.102140e+05
  -1.846545e+06  -6.576628e+05
  -4.818492e+05  -1.195205e+06
   1.086163e+06  -6.200271e+05
   1.073036e+06   4.242451e+05
  -6.839867e+05   8.399504e+05
  -2.430527e+06   9.018828e+04
  -2.240972e+06  -1.338273e+06
  -1.157324e+04  -2.298093e+06
   2.355897e+06  -1.894386e+06
   2.808858e+06  -3.230270e+05
   1.154510e+06   1.142087e+06
  -8.408200e+05   1.261304e+06
  -1.302672e+06   1.057155e+05
  -4.778897e+04  -9.409965e+05
   1.458339e+06  -6.536307e+05
   1.703270e+06   6.778663e+05
   5.296423e+05   1.601615e+06
  -8.993256e+05   1.166958e+06
  -1.293827e+06  -4.937136e+04
  -4.301609e+05  -6.747152e+05
   6.528417e+05  -7.728079e+04
   6.484851e+05   1.018308e+06
  -6.562716e+05   1.357472e+06
  -2.019632e+06   4.199857e+05
  -1.953598e+06  -1.116420e+06
  -3.419233e+05  -2.020759e+06
   1.363615e+06  -1.597110e+06
   1.671453e+06  -2.720815e+05
   5.759178e+05   8.115326e+05
  -6.082408e+05   8.426444e+05
  -7.532072e+05   6.036229e+04
   9.089619e+03  -5.761224e+05
   6.650063e+05  -4.394237e+05
   4.908311e+05   1.172028e+05
  -2.451033e+05   2.302944e+05
  -6.091158e+05  -4.125601e+05
   3.729923e+04  -1.126096e+06
   1.315124e+06  -9.203246e+05
   2.059325e+06   4.051677e+05
   1.413761e+06   1.939295e+06
  -2.540418e+05   2.460166e+06
  -1.655337e+06   1.558775e+06
  -1.853908e+06  -9.377277e+03
  -1.112552e+06  -1.056230e+06
  -4.071041e+05  -1.044471e+06
  -2.796391e+05  -4.770392e+05
  -3.730201e+05  -2.418490e+05
  -3.860676e+04  -6.066122e+05
   8.071293e+05  -9.323854e+05
   1.498763e+06  -4.411792e+05
   1.227393e+06   7.767579e+05
  -1.424427e+05   1.661995e+06
  -1.756888e+06   1.201533e+06
  -2.327640e+06  -4.697091e+05
  -1.225576e+06  -2.071130e+06
   8.539430e+05  -2.329639e+06
   2.407901e+06  -1.127658e+06
   2.430710e+06   4.806161e+05
   1.226124e+06   1.330927e+06
  -5.322214e+04   1.182959e+06
  -5.615468e+05   7.391492e+05
  -4.076886e+05   7.371016e+05
  -2.873841e+05   1.116677e+06
  -6.423505e+05   1.129022e+06
  -1.200949e+06   2.455049e+05
  -1.274386e+06  -1.126549e+06
  -4.995856e+05  -1.920997e+06
   6.765074e+05  -1.430467e+06
   1.306683e+06  -1.795727e+04
   8.449250e+05   1.202626e+06
  -2.614281e+05   1.370089e+06
  -9.865742e+05   5.617475e+05
  -7.684377e+05  -4.337020e+05
  -4.583342e+04  -9.115341e+05
   3.051309e+05  -7.982324e+05
  -1.162308e+04  -5.097710e+05
  -3.859906e+05  -4.001874e+05
  -2.475397e+04  -4.097780e+05
   1.068983e+06  -2.203054e+05
   1.941317e+06   3.218985e+05
   1.597447e+06   9.818370e+05
   8.219902e+04   1.316351e+06
  -1.436779e+06   1.057494e+06
  -1.770686e+06   3.551885e+05
  -8.741516e+05  -3.060113e+05
   1.953224e+05  -4.690109e+05
   4.565087e+05  -1.051068e+05
  -4.235743e+04   3.062471e+05
  -5.151309e+05   2.188040e+05
  -4.534344e+05  -3.572084e+05
  -9.481821e+04  -7.794083e+05
   5.095507e+04  -4.985349e+05
  -1.528398e+05   1.956081e+05
  -3.954128e+05   4.189576e+05
  -3.004882e+05  -2.223778e+05
   2.324122e+05  -1.042966e+06
   9.189584e+05  -1.024843e+06
   1.203505e+06  -4.328831e+04
   6.653413e+05   9.490188e+05
  -4.462776e+05   9.987985e+05
  -1.177546e+06   1.678300e+05
  -7.052668e+05  -6.394734e+05
   6.793455e+05  -6.676464e+05
   1.659858e+06   4.033790e+04
   1.192255e+06   8.414571e+05
  -3.569438e+05   1.105213e+06
  -1.552222e+06   6.647215e+05
  -1.369984e+06  -1.012937e+05
  -2.035436e+05  -5.535110e+05
   6.403586e+05  -3.291238e+05
   3.328376e+05   2.604485e+05
  -6.729228e+05   4.470209e+05
  -1.183722e+06  -2.166139e+05
  -5.229142e+05  -1.270286e+06
   7.927436e+05  -1.660200e+06
   1.602361e+06  -7.672122e+05
   1.251804e+06   8.547879e+05
   1.439514e+05   1.862712e+06
  -7.853090e+05   1.378110e+06
  -9.632800e+05  -1.114208e+05
  -5.059176e+05  -1.210765e+06
   1.256199e+05  -1.047551e+06
   5.386496e+05  -1.219799e+05
   5.545597e+05   4.136492e+05
   2.603604e+05   1.715034e+05
   1.376422e+04  -1.247027e+05
   1.391140e+05   2.474431e+05
   4.453750e+05   9.723919e+05
   2.863767e+05   1.123553e+06
  -6.063805e+05   4.033175e+05
  -1.516392e+06  -5.127994e+05
  -1.397952e+06  -8.814256e+05
  -1.851135e+05  -6.951538e+05
   9.771688e+05  -4.005959e+05
   1.044674e+06  -1.997449e+05
   2.861377e+05   9.917554e+03
  -1.912918e+05   2.182003e+05
   7.094119e+04   2.598109e+05
   3.874870e+05   1.630331e+05
   1.965261e+03   1.466961e+05
  -8.094816e+05   1.808343e+05
  -1.053404e+06  -8.139684e+04
  -2.472674e+05  -7.071900e+05
   1.009536e+06  -1.106989e+06
   1.682533e+06  -6.254258e+05
   1.283460e+06   5.587179e+05
   1.876026e+05   1.464200e+06
  -8.000621e+05   1.335696e+06
  -1.089092e+06   4.339680e+05
  -6.786836e+05  -3.226881e+05
  -7.434201e+04  -3.700589e+05
   1.747991e+05  -2.532371e+03
  -4.362951e+04   8.913301e+04
  -3.442080e+05  -3.488537e+05
  -2.683456e+05  -8.292013e+05
   2.306012e+05  -6.620063e+05
   7.141479e+05   2.216296e+05
   6.555683e+05   1.071431e+06
  -4.031999e+04   1.047796e+06
  -8.452319e+05   1.243895e+05
  -9.967665e+05  -8.695645e+05
  -2.444287e+05  -1.119856e+06
   7.722691e+05  -5.859746e+05
   1.085461e+06   1.510140e+05
   4.547419e+05   5.748384e+05
  -3.152096e+05   5.838879e+05
  -3.153376e+05   3.333439e+05
   3.474987e+05   5.040194e+04
   6.885834e+05  -1.364982e+03
   1.042195e+05   3.024608e+05
  -8.651635e+05   6.733310e+05
  -1.218197e+06   5.699993e+05
  -6.719206e+05  -1.394851e+05
   1.410190e+05  -8.441288e+05
   5.140401e+05  -8.082341e+05
   3.492272e+05  -7.625059e+04
  -1.138667e+04   5.309830e+05
  -2.805213e+05   3.841816e+05
  -3.622365e+05  -2.463755e+05
  -2.231915e+05  -6.015264e+05
   9.663897e+04  -3.575662e+05
   3.943792e+05   9.762915e+04
   4.409414e+05   2.471789e+05
   2.396787e+05   5.525541e+04
   1.651207e+04  -9.058782e+04
  -7.443553e+04   8.848404e+04
  -1.153280e+05   4.198990e+05
  -2.419682e+05   4.742575e+05
  -3.937514e+05   5.977785e+04
  -3.451968e+05  -5.094610e+05
   1.408112e+04  -6.863636e+05
   4.729760e+05  -2.645020e+05
   6.120510e+05   3.699096e+05
   1.938967e+05   6.301564e+05
  -5.070655e+05   3.378634e+05
  -8.477148e+05  -1.530248e+05
  -4.474371e+05  -4.073392e+05
   3.185627e+05  -3.327134e+05
   6.411507e+05  -1.280471e+05
   1.909591e+05   8.146358e+03
  -4.500582e+05  -7.236740e+03
  -4.529504e+05  -1.728829e+05
   2.550793e+05  -3.489541e+05
   8.908815e+05  -2.486794e+05
