
 $NMID
 id='ANONYMOUS ', fmtdat='(2E16.6)'
 volume=1.0
 tramp=1.0
 $END
   5.499506e+07  -9.740479e+04
   3.348338e+07   3.348105e+07
  -6.681012e+06   3.715292e+07
  -2.679665e+07   1.499550e+07
  -1.647795e+07  -6.228600e+06
   2.912884e+06  -9.224242e+06
   9.781184e+06   7.631854e+05
   3.138955e+06   9.551204e+06
  -5.863902e+06   9.594891e+06
  -9.538610e+06   2.296851e+06
  -6.978481e+06  -6.142304e+06
  -8.025946e+05  -8.625357e+06
   3.991582e+06  -2.653879e+06
   2.653653e+06   5.627177e+06
  -3.688501e+06   6.751131e+06
  -7.828536e+06  -1.142392e+06
  -4.527954e+06  -1.004860e+07
   3.610133e+06  -1.169922e+07
   9.911982e+06  -5.836990e+06
   1.056017e+07   2.064615e+06
   6.347444e+06   7.305861e+06
   6.209076e+05   8.264909e+06
  -2.620962e+06   5.766653e+06
  -1.416070e+06   2.807778e+06
   1.295784e+06   2.552178e+06
   8.120432e+04   4.432240e+06
  -5.691484e+06   4.312727e+06
  -9.794031e+06   2.671206e+05
  -6.951048e+06  -4.242175e+06
  -1.274624e+04  -4.987512e+06
   3.926971e+06  -2.350844e+06
   2.421777e+06   2.740421e+05
  -9.743973e+05   1.111409e+06
  -2.660086e+06   3.612946e+05
  -2.227823e+06  -1.763289e+06
  -4.506946e+05  -4.112142e+06
   1.894516e+06  -3.730502e+06
   3.003446e+06   2.695739e+05
   1.470057e+06   3.544152e+06
  -7.370841e+05   1.638271e+06
  -1.566422e+05  -2.680589e+06
   2.547631e+06  -2.400614e+06
   2.508671e+06   3.110724e+06
  -2.179323e+06   6.072941e+06
  -6.609368e+06   1.121591e+06
  -5.008824e+06  -6.666255e+06
   1.743559e+06  -8.329693e+06
   7.282894e+06  -2.400171e+06
   7.033293e+06   4.416931e+06
   1.995435e+06   6.101726e+06
  -3.492706e+06   2.851880e+06
  -5.438330e+06  -1.437718e+06
  -2.608940e+06  -3.492245e+06
   2.319624e+06  -2.263371e+06
   4.523259e+06   8.324298e+05
   2.011429e+06   2.658349e+06
  -1.678731e+06   1.376449e+06
  -1.818786e+06  -1.022060e+06
   1.197313e+06  -1.048422e+06
   2.523960e+06   1.502480e+06
  -3.351031e+05   3.280349e+06
  -4.345218e+06   1.984775e+06
  -5.241828e+06  -1.146833e+06
  -2.384111e+06  -3.854661e+06
   1.850109e+06  -5.257064e+06
   5.174463e+06  -4.816166e+06
   6.270049e+06  -1.648019e+06
   4.499753e+06   3.252580e+06
   8.703467e+05   6.237003e+06
  -1.817002e+06   4.884810e+06
  -1.727370e+06   1.419130e+06
  -3.029655e+05  -7.253092e+04
  -2.517649e+05   1.020050e+06
  -1.857186e+06   1.667034e+06
  -2.926504e+06   6.175846e+03
  -1.984104e+06  -2.188026e+06
   1.424816e+05  -2.295412e+06
   1.752221e+06  -1.439464e+05
   1.766076e+06   2.286699e+06
  -7.357110e+04   3.082225e+06
  -2.893053e+06   1.608936e+06
  -4.500562e+06  -1.331177e+06
  -3.156346e+06  -3.818632e+06
   7.708428e+04  -4.175663e+06
   2.234582e+06  -2.666373e+06
   2.173664e+06  -1.168384e+06
   1.846206e+06  -7.675151e+05
   3.058099e+06  -5.430840e+05
   4.530790e+06   7.791580e+05
   3.632624e+06   2.894805e+06
   1.128258e+05   4.329327e+06
  -3.418590e+06   4.057664e+06
  -4.429858e+06   2.127924e+06
  -2.753313e+06  -5.429548e+05
  -1.775268e+05  -2.360678e+06
   1.233240e+06  -1.971383e+06
   5.781185e+05   7.049038e+04
  -1.178707e+06   1.347859e+06
  -1.986745e+06   3.942354e+05
  -9.207966e+05  -1.254894e+06
   5.829030e+05  -1.165029e+06
   4.985493e+05   4.145289e+05
  -1.065151e+06   8.161105e+05
  -1.972137e+06  -1.191599e+06
  -8.243758e+05  -3.576904e+06
   1.509916e+06  -3.686876e+06
   3.273865e+06  -1.353960e+06
   3.582968e+06   1.448066e+06
   2.485398e+06   2.975053e+06
   4.764538e+05   2.821520e+06
  -1.347692e+06   1.534040e+06
  -1.679150e+06   2.035302e+05
  -5.198762e+05  -5.399607e+04
   3.726813e+05   7.964969e+05
  -4.286792e+05   1.396202e+06
  -1.983696e+06   5.962181e+05
  -2.128156e+06  -9.226590e+05
  -4.140750e+05  -1.478825e+06
   1.237624e+06  -6.033805e+05
   9.619333e+05   4.929104e+05
  -8.930793e+05   5.885937e+05
  -2.349347e+06  -3.159158e+05
  -1.895547e+06  -1.465831e+06
   2.601244e+05  -2.132378e+06
   2.472381e+06  -1.757181e+06
   2.944683e+06  -2.683124e+05
   1.273066e+06   1.334526e+06
  -9.702597e+05   1.555341e+06
  -1.620125e+06   1.842781e+05
  -1.889206e+05  -1.125080e+06
   1.604229e+06  -7.585769e+05
   1.814659e+06   8.322026e+05
   3.651039e+05   1.754508e+06
  -1.150848e+06   1.052228e+06
  -1.342049e+06  -3.145968e+05
  -2.769447e+05  -8.251215e+05
   8.296437e+05  -5.809346e+04
   7.628051e+05   1.116572e+06
  -6.299014e+05   1.494657e+06
  -2.130357e+06   5.432581e+05
  -2.136826e+06  -1.136321e+06
  -3.844510e+05  -2.195406e+06
   1.532295e+06  -1.724801e+06
   1.827810e+06  -2.140150e+05
   5.333472e+05   9.224735e+05
  -7.024157e+05   8.511755e+05
  -6.853799e+05   6.906471e+04
   1.237541e+05  -4.088362e+05
   5.494064e+05  -2.367451e+05
   1.686913e+05   8.773736e+04
  -4.609046e+05  -4.530474e+04
  -5.599462e+05  -6.910100e+05
   2.099597e+05  -1.254048e+06
   1.466675e+06  -9.401348e+05
   2.199795e+06   4.569054e+05
   1.528849e+06   2.071237e+06
  -2.576485e+05   2.566292e+06
  -1.733735e+06   1.495520e+06
  -1.810085e+06  -1.426468e+05
  -9.220184e+05  -9.832851e+05
  -3.269286e+05  -7.389622e+05
  -4.736545e+05  -2.585174e+05
  -6.358525e+05  -3.217930e+05
  -8.842861e+04  -7.913797e+05
   9.301989e+05  -9.511455e+05
   1.545807e+06  -3.408316e+05
   1.121711e+06   7.862184e+05
  -2.738675e+05   1.568286e+06
  -1.841827e+06   1.132096e+06
  -2.385561e+06  -5.345947e+05
  -1.191561e+06  -2.235665e+06
   1.074993e+06  -2.497963e+06
   2.692610e+06  -1.082543e+06
   2.498263e+06   7.052141e+05
   1.028197e+06   1.435355e+06
  -2.189676e+05   1.029532e+06
  -4.424341e+05   5.553574e+05
  -1.239247e+05   7.852323e+05
  -1.349066e+05   1.357980e+06
  -7.142682e+05   1.343148e+06
  -1.361605e+06   3.211254e+05
  -1.399614e+06  -1.159390e+06
  -5.662689e+05  -2.013247e+06
   6.771723e+05  -1.514832e+06
   1.364953e+06   1.279420e+04
   8.545580e+05   1.360148e+06
  -4.128468e+05   1.476848e+06
  -1.222585e+06   4.401104e+05
  -8.566977e+05  -7.182569e+05
   1.182747e+05  -1.127007e+06
   5.528598e+05  -8.324973e+05
   8.731660e+04  -4.523580e+05
  -4.494213e+05  -3.642583e+05
  -5.590153e+04  -4.079793e+05
   1.211213e+06  -2.156339e+05
   2.171118e+06   3.656676e+05
   1.703910e+06   1.106974e+06
  -3.770157e+04   1.512368e+06
  -1.676838e+06   1.191124e+06
  -1.939811e+06   2.868235e+05
  -8.885884e+05  -5.146395e+05
   2.722997e+05  -5.931378e+05
   5.394224e+05  -3.955399e+04
   2.575963e+04   4.334326e+05
  -4.766162e+05   2.642863e+05
  -5.045183e+05  -3.667156e+05
  -2.473790e+05  -7.679729e+05
  -8.482843e+04  -5.056183e+05
  -1.507086e+05   1.072161e+05
  -3.120347e+05   3.145255e+05
  -2.922536e+05  -2.483167e+05
   1.669516e+05  -1.045815e+06
   9.617887e+05  -1.118625e+06
   1.428140e+06  -1.695956e+05
   8.804443e+05   9.726893e+05
  -4.468299e+05   1.192688e+06
  -1.324407e+06   3.378768e+05
  -7.692254e+05  -6.169165e+05
   7.487379e+05  -6.833380e+05
   1.689359e+06   1.141278e+05
   1.071694e+06   9.283699e+05
  -5.172360e+05   1.055669e+06
  -1.602343e+06   5.041889e+05
  -1.316892e+06  -2.122436e+05
  -1.406427e+05  -5.509324e+05
   6.925911e+05  -2.834430e+05
   4.033647e+05   3.118001e+05
  -6.268055e+05   5.434413e+05
  -1.250923e+06  -1.004865e+05
  -6.953965e+05  -1.257562e+06
   6.440501e+05  -1.795961e+06
   1.582053e+06  -9.228779e+05
   1.325679e+06   8.158755e+05
   1.987741e+05   1.904739e+06
  -7.997901e+05   1.370428e+06
  -9.844041e+05  -1.940849e+05
  -4.498788e+05  -1.272190e+06
   2.415742e+05  -1.032014e+06
   5.985644e+05  -8.612153e+04
   4.925064e+05   4.079533e+05
   1.729210e+05   1.505698e+05
   5.288952e+04  -1.022221e+05
   2.949885e+05   3.115608e+05
   5.334155e+05   1.029102e+06
   1.936744e+05   1.150658e+06
  -7.622627e+05   4.171277e+05
  -1.562891e+06  -5.068503e+05
  -1.352999e+06  -9.026285e+05
  -1.913719e+05  -7.440307e+05
   9.088363e+05  -4.363840e+05
   1.047705e+06  -1.845618e+05
   3.853220e+05   5.769090e+04
  -1.554776e+05   2.378511e+05
  -4.286817e+04   2.196596e+05
   2.766467e+05   1.039185e+05
   5.391939e+04   1.404256e+05
  -6.999869e+05   2.448401e+05
  -1.111806e+06  -1.642107e+04
  -4.622621e+05  -7.340931e+05
   8.947398e+05  -1.246983e+06
   1.810790e+06  -8.008141e+05
   1.501797e+06   4.585742e+05
   2.874727e+05   1.493680e+06
  -8.218578e+05   1.461122e+06
  -1.115974e+06   5.713609e+05
  -6.932414e+05  -2.468776e+05
  -1.433433e+05  -3.803240e+05
   6.821259e+04  -7.132280e+04
  -9.031193e+04   1.431616e+04
  -3.157863e+05  -3.954957e+05
  -2.567708e+05  -8.614629e+05
   1.909342e+05  -7.222852e+05
   7.203831e+05   1.261140e+05
   7.857256e+05   1.006402e+06
   1.298326e+05   1.094378e+06
  -7.931441e+05   2.683201e+05
  -1.098971e+06  -7.590686e+05
  -3.743424e+05  -1.157296e+06
   7.555898e+05  -7.250317e+05
   1.192343e+06   7.724589e+04
   5.708518e+05   6.562514e+05
  -3.042839e+05   7.285709e+05
  -4.105639e+05   3.945838e+05
   2.537606e+05   9.386160e+03
   6.878806e+05  -4.147079e+04
   1.587750e+05   3.284140e+05
  -8.791203e+05   7.188562e+05
  -1.348886e+06   5.674387e+05
  -8.205739e+05  -1.942587e+05
   1.019494e+05  -9.271968e+05
   5.949743e+05  -9.150675e+05
   4.598254e+05  -1.806193e+05
   6.053081e+04   5.042370e+05
  -2.514518e+05   4.672417e+05
  -3.714091e+05  -1.482729e+05
  -2.711185e+05  -6.131345e+05
   5.176200e+04  -4.614938e+05
   4.150056e+05   4.356416e+04
   5.101437e+05   3.038471e+05
   2.592407e+05   1.081175e+05
  -4.274431e+04  -1.654020e+05
  -9.179908e+04  -6.051993e+04
   2.380480e+04   3.667445e+05
  -3.240313e+04   5.903233e+05
  -3.289428e+05   2.478412e+05
  -4.969898e+05  -3.886983e+05
  -1.834948e+05  -6.828630e+05
   4.276947e+05  -3.383468e+05
   7.115543e+05   2.883885e+05
   2.746016e+05   6.042564e+05
  -5.417894e+05   3.912635e+05
  -9.433238e+05  -7.339520e+04
  -5.127059e+05  -4.000065e+05
   3.100774e+05  -4.335299e+05
   6.797548e+05  -2.533589e+05
   2.739831e+05  -2.332421e+04
  -3.546260e+05   7.908918e+04
  -4.263139e+05  -5.629918e+04
   1.702822e+05  -3.007399e+05
   7.739643e+05  -2.869373e+05
