
 $NMID
 id='ANONYMOUS ', fmtdat='(2E16.6)'
 volume=1.0
 tramp=1.0
 $END
   5.678232e+07  -2.258945e+06
   3.533720e+07   3.444625e+07
  -6.496558e+06   3.895747e+07
  -2.752882e+07   1.523664e+07
  -1.667194e+07  -7.119926e+06
   3.303258e+06  -9.511916e+06
   9.887234e+06   1.313287e+06
   2.768017e+06   9.833995e+06
  -6.183108e+06   9.232168e+06
  -9.615743e+06   2.027762e+06
  -7.128038e+06  -5.903209e+06
  -1.117439e+06  -8.397684e+06
   3.799565e+06  -2.934899e+06
   2.706305e+06   5.066241e+06
  -3.606657e+06   6.381435e+06
  -7.887796e+06  -1.224030e+06
  -4.686606e+06  -1.006009e+07
   3.445933e+06  -1.188064e+07
   9.898806e+06  -6.295590e+06
   1.095283e+07   1.538930e+06
   7.122184e+06   7.226737e+06
   1.185362e+06   8.857230e+06
  -2.862533e+06   6.444508e+06
  -2.216910e+06   2.727774e+06
   8.556587e+05   1.721866e+06
   5.134293e+05   3.777336e+06
  -4.823128e+06   4.526386e+06
  -9.277358e+06   1.049007e+06
  -7.146283e+06  -3.652892e+06
  -7.067848e+05  -4.979297e+06
   3.283296e+06  -2.840712e+06
   2.408660e+06  -4.208063e+05
  -2.294670e+05   6.687712e+05
  -1.798747e+06   5.984783e+05
  -2.091173e+06  -9.945772e+05
  -1.031617e+06  -3.588298e+06
   1.497924e+06  -3.959457e+06
   3.371516e+06  -2.529832e+05
   2.091153e+06   3.537922e+06
  -6.511317e+05   2.224531e+06
  -5.585364e+05  -2.127652e+06
   2.272520e+06  -2.237876e+06
   2.487590e+06   3.153824e+06
  -2.396075e+06   6.252707e+06
  -7.168503e+06   1.239677e+06
  -5.470428e+06  -6.856933e+06
   1.683505e+06  -8.703165e+06
   7.357363e+06  -2.706559e+06
   6.930535e+06   4.183743e+06
   1.867493e+06   5.846451e+06
  -3.350429e+06   2.653770e+06
  -5.086458e+06  -1.453783e+06
  -2.332461e+06  -3.398711e+06
   2.416184e+06  -2.213990e+06
   4.522607e+06   8.352893e+05
   1.975871e+06   2.688955e+06
  -1.682989e+06   1.416873e+06
  -1.676907e+06  -9.774542e+05
   1.427074e+06  -8.639659e+05
   2.530790e+06   1.892244e+06
  -7.048400e+05   3.644541e+06
  -4.780708e+06   2.042790e+06
  -5.385763e+06  -1.325295e+06
  -2.397158e+06  -3.967166e+06
   1.536212e+06  -5.246581e+06
   4.589077e+06  -4.935998e+06
   5.938515e+06  -2.023889e+06
   4.686271e+06   2.828435e+06
   1.212005e+06   5.967690e+06
  -1.736682e+06   4.676071e+06
  -1.786488e+06   1.090578e+06
  -8.974211e+04  -4.538251e+05
   3.233516e+05   8.507832e+05
  -1.240386e+06   1.879848e+06
  -2.604152e+06   5.401743e+05
  -2.058083e+06  -1.576358e+06
  -2.302163e+05  -1.939323e+06
   1.328033e+06  -2.707322e+05
   1.606210e+06   1.819191e+06
   1.502045e+05   2.751507e+06
  -2.545374e+06   1.756914e+06
  -4.408553e+06  -8.803307e+05
  -3.380382e+06  -3.523696e+06
  -1.788818e+05  -4.226550e+06
   2.176348e+06  -2.840513e+06
   2.235723e+06  -1.200286e+06
   1.807379e+06  -6.623706e+05
   2.816923e+06  -4.922278e+05
   4.178880e+06   6.316864e+05
   3.398409e+06   2.546861e+06
   2.409143e+05   3.913816e+06
  -2.895731e+06   3.800509e+06
  -3.840944e+06   2.196494e+06
  -2.541768e+06  -2.255219e+05
  -4.243098e+05  -2.071692e+06
   9.047103e+05  -1.903541e+06
   5.419251e+05  -1.692578e+04
  -9.617888e+05   1.290345e+06
  -1.818957e+06   4.536187e+05
  -9.592518e+05  -1.125062e+06
   4.264943e+05  -1.067563e+06
   3.643508e+05   3.739356e+05
  -1.089618e+06   6.176633e+05
  -1.828597e+06  -1.367159e+06
  -5.594226e+05  -3.449042e+06
   1.657200e+06  -3.224830e+06
   3.060203e+06  -9.300394e+05
   3.086814e+06   1.425006e+06
   2.089240e+06   2.538084e+06
   4.546001e+05   2.392827e+06
  -1.104627e+06   1.412293e+06
  -1.466657e+06   2.832897e+05
  -4.684353e+05  -2.834267e+04
   3.602536e+05   7.063710e+05
  -3.739069e+05   1.314245e+06
  -1.842331e+06   6.146862e+05
  -1.986326e+06  -8.252429e+05
  -3.879430e+05  -1.372728e+06
   1.112277e+06  -5.637699e+05
   8.215153e+05   4.179462e+05
  -8.271105e+05   4.596699e+05
  -2.036772e+06  -3.262348e+05
  -1.598164e+06  -1.252694e+06
   2.379200e+05  -1.819042e+06
   2.140843e+06  -1.582630e+06
   2.616904e+06  -3.212082e+05
   1.200236e+06   1.189965e+06
  -8.432196e+05   1.493471e+06
  -1.520369e+06   2.399078e+05
  -2.490227e+05  -1.042997e+06
   1.429636e+06  -7.544511e+05
   1.654755e+06   7.174399e+05
   3.261181e+05   1.571929e+06
  -1.051188e+06   9.206463e+05
  -1.197595e+06  -3.157858e+05
  -2.182279e+05  -7.587942e+05
   7.831833e+05  -6.915778e+04
   7.437560e+05   9.876306e+05
  -4.941385e+05   1.379385e+06
  -1.888945e+06   5.909604e+05
  -1.975516e+06  -9.306037e+05
  -4.267948e+05  -1.970494e+06
   1.339949e+06  -1.606985e+06
   1.645592e+06  -2.319977e+05
   4.847761e+05   8.244065e+05
  -6.159015e+05   7.719460e+05
  -5.752397e+05   8.987501e+04
   1.290607e+05  -3.041953e+05
   4.308593e+05  -1.617242e+05
   4.436028e+04   5.474085e+04
  -4.724933e+05  -1.193712e+05
  -4.942573e+05  -6.780535e+05
   1.993780e+05  -1.147076e+06
   1.304103e+06  -8.809859e+05
   1.992002e+06   3.420669e+05
   1.451244e+06   1.808421e+06
  -1.365792e+05   2.295864e+06
  -1.491050e+06   1.352192e+06
  -1.575684e+06  -1.023940e+05
  -7.836427e+05  -8.004050e+05
  -2.946359e+05  -5.332988e+05
  -4.946271e+05  -1.418544e+05
  -6.551072e+05  -2.923797e+05
  -1.185463e+05  -7.544328e+05
   8.236278e+05  -8.723017e+05
   1.358427e+06  -3.204567e+05
   9.780321e+05   6.509084e+05
  -2.254305e+05   1.352584e+06
  -1.602451e+06   1.034865e+06
  -2.130284e+06  -4.060302e+05
  -1.110804e+06  -1.972175e+06
   9.302383e+05  -2.280773e+06
   2.416318e+06  -1.025381e+06
   2.234190e+06   6.041533e+05
   8.858278e+05   1.251742e+06
  -2.062429e+05   8.562222e+05
  -3.242508e+05   4.450222e+05
   1.283867e+04   7.159710e+05
  -2.398208e+04   1.279882e+06
  -6.066549e+05   1.273610e+06
  -1.237899e+06   3.524008e+05
  -1.310572e+06  -9.801920e+05
  -5.895979e+05  -1.777694e+06
   5.412951e+05  -1.381233e+06
   1.216232e+06  -2.650700e+04
   7.981941e+05   1.214793e+06
  -3.615374e+05   1.342327e+06
  -1.132073e+06   3.842173e+05
  -8.000942e+05  -6.958916e+05
   1.227257e+05  -1.060709e+06
   5.381361e+05  -7.556509e+05
   9.159512e+04  -3.783988e+05
  -4.297719e+05  -2.930207e+05
  -7.432814e+04  -3.563976e+05
   1.102328e+06  -2.281767e+05
   1.993724e+06   2.624738e+05
   1.567260e+06   9.537484e+05
  -2.322664e+04   1.390274e+06
  -1.511057e+06   1.144151e+06
  -1.745705e+06   2.951266e+05
  -7.977114e+05  -4.889453e+05
   2.460655e+05  -5.697397e+05
   4.979153e+05  -3.043775e+04
   5.811627e+04   4.236854e+05
  -3.968276e+05   2.657396e+05
  -4.730115e+05  -3.076927e+05
  -2.963005e+05  -6.648843e+05
  -1.379580e+05  -4.462190e+05
  -1.256235e+05   7.030655e+04
  -2.323251e+05   2.543520e+05
  -2.621683e+05  -2.163448e+05
   8.712975e+04  -9.266695e+05
   8.203654e+05  -1.046374e+06
   1.325064e+06  -2.366777e+05
   8.787666e+05   8.348987e+05
  -3.538916e+05   1.127217e+06
  -1.202986e+06   3.975638e+05
  -7.192865e+05  -5.073550e+05
   6.555205e+05  -6.303643e+05
   1.494383e+06   6.388792e+04
   9.317976e+05   8.015542e+05
  -4.675757e+05   9.246725e+05
  -1.400241e+06   4.458979e+05
  -1.142611e+06  -1.740768e+05
  -1.224885e+05  -4.757827e+05
   6.134666e+05  -2.571625e+05
   3.871917e+05   2.777799e+05
  -5.172940e+05   5.326424e+05
  -1.126293e+06  -5.829119e+03
  -7.135056e+05  -1.078062e+06
   4.535153e+05  -1.648004e+06
   1.351475e+06  -9.197063e+05
   1.218407e+06   6.563310e+05
   2.610140e+05   1.679237e+06
  -6.564480e+05   1.228505e+06
  -8.756666e+05  -1.626293e+05
  -4.205889e+05  -1.118863e+06
   2.128794e+05  -9.059369e+05
   5.411211e+05  -8.362933e+04
   4.262313e+05   3.366164e+05
   1.283911e+05   1.165960e+05
   5.507310e+04  -8.309083e+04
   3.204154e+05   2.879807e+05
   5.332454e+05   9.044898e+05
   1.801418e+05   1.008937e+06
  -7.058479e+05   3.942512e+05
  -1.405176e+06  -3.869380e+05
  -1.204288e+06  -7.485650e+05
  -1.958028e+05  -6.623382e+05
   7.595833e+05  -4.296640e+05
   9.130842e+05  -1.948730e+05
   3.720652e+05   5.508803e+04
  -1.161829e+05   2.217866e+05
  -6.646458e+04   1.780271e+05
   2.109573e+05   5.870327e+04
   6.974159e+04   1.205559e+05
  -5.703769e+05   2.643364e+05
  -9.970732e+05   4.610862e+04
  -5.032438e+05  -6.416806e+05
   7.048198e+05  -1.176112e+06
   1.606712e+06  -8.236540e+05
   1.409664e+06   3.198382e+05
   3.391126e+05   1.312379e+06
  -6.784725e+05   1.353045e+06
  -9.708675e+05   5.868912e+05
  -6.239058e+05  -1.666036e+05
  -1.622029e+05  -3.336776e+05
   2.349193e+04  -9.068530e+04
  -9.240403e+04  -1.032341e+04
  -2.806821e+05  -3.503746e+05
  -2.517532e+05  -7.568355e+05
   1.295832e+05  -6.615604e+05
   6.409605e+05   5.281764e+04
   7.708814e+05   8.358809e+05
   2.093163e+05   9.751604e+05
  -6.722804e+05   3.136240e+05
  -1.028658e+06  -5.916277e+05
  -4.129271e+05  -1.017497e+06
   6.345256e+05  -7.104087e+05
   1.086433e+06   2.579609e+03
   5.612615e+05   5.851990e+05
  -2.406419e+05   6.987736e+05
  -3.792317e+05   3.789478e+05
   1.927924e+05  -1.719274e+04
   6.028272e+05  -7.479172e+04
   1.688070e+05   2.924427e+05
  -7.508939e+05   6.774495e+05
  -1.206236e+06   5.426460e+05
  -7.751560e+05  -1.626465e+05
   4.476359e+04  -8.458272e+05
   5.184265e+05  -8.580102e+05
   4.364726e+05  -2.071934e+05
   9.617070e+04   4.331017e+05
  -1.960562e+05   4.475629e+05
  -3.368486e+05  -8.404554e+04
  -2.758583e+05  -5.331515e+05
   1.631526e+04  -4.426015e+05
   3.739156e+05   5.590744e+03
   4.802200e+05   2.686742e+05
   2.365500e+05   1.035523e+05
  -6.134407e+04  -1.700448e+05
  -8.469237e+04  -9.994282e+04
   8.204448e+04   3.066887e+05
   6.004960e+04   5.631935e+05
  -2.627430e+05   2.938738e+05
  -5.039395e+05  -2.864819e+05
  -2.518871e+05  -5.963149e+05
   3.497020e+05  -3.382176e+05
   6.700671e+05   2.024825e+05
   2.904781e+05   5.135808e+05
  -4.740704e+05   3.798885e+05
  -8.641986e+05  -5.973626e+03
  -4.863006e+05  -3.314924e+05
   2.559887e+05  -4.254593e+05
   6.031791e+05  -2.878590e+05
   2.680456e+05  -3.886266e+04
  -2.785133e+05   1.135357e+05
  -3.700978e+05   5.773503e+03
   1.088666e+05  -2.560587e+05
   6.304414e+05  -2.956572e+05
