
 $NMID
 id='ANONYMOUS ', fmtdat='(2E16.6)'
 volume=1.0
 tramp=1.0
 $END
   4.811957e+06  -1.717852e+06
   3.939775e+06   1.913652e+06
   5.273533e+05   3.450225e+06
  -1.884371e+06   2.094580e+06
  -1.595489e+06  -7.659596e+04
   1.131860e+04  -8.979110e+05
   8.881331e+05  -2.116593e+05
   5.513829e+05   7.505668e+05
  -2.343169e+05   1.008646e+06
  -7.649691e+05   4.754890e+05
  -7.878964e+05  -3.321981e+05
  -3.195834e+05  -7.259858e+05
   2.802066e+05  -3.455941e+05
   4.111149e+05   4.134537e+05
  -1.107343e+05   6.970714e+05
  -7.103518e+05   1.370547e+05
  -6.955538e+05  -7.256135e+05
  -4.815082e+04  -1.108385e+06
   6.691913e+05  -7.994675e+05
   9.714129e+05  -1.459580e+05
   7.759057e+05   4.397742e+05
   3.040065e+05   7.071572e+05
  -6.875494e+04   5.803234e+05
  -5.483917e+04   2.612100e+05
   1.948013e+05   1.477887e+05
   1.655376e+05   3.727587e+05
  -3.458383e+05   5.682059e+05
  -8.452350e+05   3.428031e+05
  -7.434540e+05  -1.592800e+05
  -1.548242e+05  -4.539823e+05
   2.791625e+05  -3.438360e+05
   2.352517e+05  -5.806780e+04
  -3.060166e+04   1.308419e+05
  -2.024536e+05   1.280441e+05
  -2.414965e+05  -6.487323e+04
  -1.700817e+05  -3.288988e+05
   4.720287e+04  -3.766729e+05
   2.754095e+05  -6.392936e+04
   2.421617e+05   2.739459e+05
  -2.064048e+04   1.779013e+05
  -1.118321e+05  -2.205804e+05
   1.351119e+05  -2.831693e+05
   3.072301e+05   1.977983e+05
  -1.038225e+04   5.977796e+05
  -5.518851e+05   2.970631e+05
  -6.506058e+05  -4.337981e+05
  -1.083663e+05  -7.857374e+05
   5.596454e+05  -4.410454e+05
   7.474727e+05   1.559309e+05
   3.607511e+05   4.576625e+05
  -2.137746e+05   3.505299e+05
  -5.083839e+05   4.287430e+04
  -3.184016e+05  -2.227689e+05
   1.479806e+05  -2.663196e+05
   4.233406e+05  -5.877175e+04
   2.475032e+05   1.796906e+05
  -1.129647e+05   1.744433e+05
  -1.862110e+05  -3.631976e+04
   8.149224e+04  -1.254674e+05
   2.643996e+05   6.578861e+04
   5.791924e+04   3.061460e+05
  -3.258925e+05   3.040605e+05
  -4.858992e+05   5.428806e+04
  -3.203683e+05  -2.606137e+05
  -1.184934e+04  -5.061088e+05
   2.798709e+05  -5.763486e+05
   4.812624e+05  -3.447474e+05
   4.926727e+05   1.338842e+05
   2.715795e+05   5.069637e+05
  -8.441979e+03   4.677980e+05
  -1.033581e+05   1.575743e+05
  -1.222997e+04  -1.070730e+04
   3.247091e+04   9.995774e+04
  -9.607676e+04   2.203107e+05
  -2.557202e+05   1.099048e+05
  -2.501833e+05  -1.191566e+05
  -6.720254e+04  -2.045206e+05
   1.455041e+05  -7.373200e+04
   2.273957e+05   1.361819e+05
   9.417182e+04   2.673010e+05
  -1.978996e+05   2.341110e+05
  -4.313213e+05   3.205826e+04
  -3.931645e+05  -2.280120e+05
  -1.238694e+05  -3.625262e+05
   1.093104e+05  -2.979625e+05
   1.485619e+05  -1.640477e+05
   1.298973e+05  -1.207573e+05
   2.386659e+05  -1.453974e+05
   4.061052e+05  -8.381445e+04
   3.998784e+05   1.244251e+05
   1.525254e+05   3.619332e+05
  -1.521269e+05   4.567090e+05
  -3.038657e+05   3.278366e+05
  -2.552723e+05   4.441518e+04
  -9.625741e+04  -1.975199e+05
   4.267352e+04  -2.095404e+05
   5.612514e+04  -9.691803e+03
  -5.748818e+04   1.573758e+05
  -1.620585e+05   9.721434e+04
  -1.207778e+05  -8.229449e+04
   1.663035e+04  -1.211952e+05
   5.978217e+04   2.027151e+04
  -6.508200e+04   1.046031e+05
  -2.059418e+05  -3.908011e+04
  -1.796537e+05  -2.756784e+05
   1.429093e+04  -3.536991e+05
   2.298869e+05  -2.121064e+05
   3.399665e+05   7.819600e+03
   3.001803e+05   1.658162e+05
   1.326845e+05   2.184019e+05
  -6.131861e+04   1.722144e+05
  -1.344919e+05   7.111158e+04
  -4.485127e+04   1.120704e+04
   5.929574e+04   5.643636e+04
   8.695873e+03   1.357808e+05
  -1.528499e+05   1.165591e+05
  -2.144595e+05  -1.269498e+04
  -8.301486e+04  -1.183746e+05
   8.934225e+04  -9.611234e+04
   1.027580e+05   9.520971e+03
  -5.163927e+04   8.134409e+04
  -2.056941e+05   5.444859e+04
  -2.076411e+05  -5.752410e+04
  -4.981234e+04  -1.866771e+05
   1.495970e+05  -2.294608e+05
   2.399559e+05  -1.180561e+05
   1.505650e+05   7.444096e+04
  -3.464018e+04   1.655341e+05
  -1.350503e+05   6.657756e+04
  -5.355074e+04  -9.342530e+04
   1.133225e+05  -1.188565e+05
   1.824837e+05   1.250399e+04
   8.686282e+04   1.388622e+05
  -6.633892e+04   1.270177e+05
  -1.267769e+05   1.484508e+04
  -5.121179e+04  -6.538963e+04
   7.074873e+04  -3.717409e+04
   1.064408e+05   6.699112e+04
   9.867693e+02   1.490884e+05
  -1.603752e+05   1.200999e+05
  -2.189594e+05  -2.358860e+04
  -1.051669e+05  -1.733419e+05
   7.429556e+04  -1.959618e+05
   1.488647e+05  -7.510419e+04
   7.453914e+04   6.469556e+04
  -3.423036e+04   9.754486e+04
  -5.916155e+04   2.819810e+04
  -6.365079e+03  -4.091235e+04
   3.668058e+04  -4.174561e+04
   1.836545e+04  -1.518616e+03
  -3.666799e+04   1.079043e+04
  -6.751457e+04  -3.713645e+04
  -2.483502e+04  -1.096734e+05
   8.974364e+04  -1.273644e+05
   1.991496e+05  -3.604646e+04
   1.973841e+05   1.222710e+05
   6.267901e+04   2.236346e+05
  -9.726902e+04   1.817358e+05
  -1.558162e+05   4.603590e+04
  -1.067574e+05  -5.276829e+04
  -4.907059e+04  -5.021619e+04
  -4.730293e+04  -4.406924e+03
  -6.374044e+04  -4.045264e+03
  -3.380848e+04  -6.062967e+04
   4.417659e+04  -1.079026e+05
   1.138730e+05  -7.999767e+04
   1.170969e+05   2.524282e+04
   3.021228e+04   1.371625e+05
  -1.136319e+05   1.556756e+05
  -2.164518e+05   3.580227e+04
  -1.751721e+05  -1.477595e+05
   6.604361e+03  -2.466080e+05
   1.909289e+05  -1.808037e+05
   2.339469e+05  -2.245827e+04
   1.334771e+05   8.794007e+04
   1.493453e+04   9.391971e+04
  -1.876527e+04   6.044483e+04
   1.599860e+04   6.928294e+04
   3.362348e+04   1.183040e+05
  -1.582331e+04   1.365787e+05
  -1.038860e+05   7.226071e+04
  -1.560818e+05  -5.094975e+04
  -1.144375e+05  -1.505919e+05
   6.950170e+03  -1.501556e+05
   1.160242e+05  -4.446782e+04
   1.177869e+05   8.608689e+04
   1.436878e+04   1.383974e+05
  -8.880789e+04   7.845601e+04
  -9.678624e+04  -3.128150e+04
  -2.839963e+04  -9.903773e+04
   1.844886e+04  -8.965622e+04
  -6.844935e+03  -4.171763e+04
  -4.830417e+04  -1.482173e+04
  -1.778098e+04  -3.096445e+04
   9.308610e+04  -5.833906e+04
   1.927101e+05  -4.288518e+04
   1.799964e+05   3.549850e+04
   4.881471e+04   1.290981e+05
  -1.002545e+05   1.569073e+05
  -1.542826e+05   8.864284e+04
  -9.327595e+04  -1.401361e+04
   2.373643e+03  -5.868729e+04
   4.376374e+04  -2.153582e+04
   1.630660e+04   3.360337e+04
  -3.101366e+04   3.572312e+04
  -5.315030e+04  -1.428783e+04
  -4.444505e+04  -5.458884e+04
  -2.297788e+04  -3.856552e+04
  -9.067235e+03   1.351361e+04
  -1.556348e+04   3.680564e+04
  -3.234499e+04  -8.948405e+03
  -2.138519e+04  -9.070947e+04
   4.112392e+04  -1.255733e+05
   1.114793e+05  -6.387046e+04
   1.053641e+05   5.000106e+04
   3.671181e+03   1.138319e+05
  -9.757207e+04   7.212725e+04
  -8.364932e+04  -2.610899e+04
   4.023051e+04  -8.153719e+04
   1.450647e+05  -4.530574e+04
   1.202333e+05   4.324886e+04
  -8.944446e+03   1.057625e+05
  -1.184190e+05   9.488382e+04
  -1.180013e+05   2.526004e+04
  -2.992337e+04  -4.208268e+04
   4.936905e+04  -4.729479e+04
   4.495000e+04   1.222390e+04
  -3.377619e+04   6.593156e+04
  -1.072297e+05   3.308565e+04
  -9.886485e+04  -8.128137e+04
  -5.000042e+03  -1.696565e+05
   1.013444e+05  -1.275900e+05
   1.365473e+05   2.510408e+04
   7.822629e+04   1.522420e+05
  -2.248457e+04   1.406223e+05
  -8.927453e+04   1.637735e+04
  -8.010954e+04  -9.199131e+04
  -1.420599e+04  -9.576650e+04
   4.725970e+04  -2.805969e+04
   5.508462e+04   1.841039e+04
   1.999944e+04   7.919701e+03
   1.487736e+03  -1.078294e+04
   3.512551e+04   1.471607e+04
   7.854212e+04   6.813542e+04
   5.416517e+04   9.142846e+04
  -4.981188e+04   6.130699e+04
  -1.472252e+05   8.461434e+03
  -1.429098e+05  -3.210230e+04
  -4.060255e+04  -5.551304e+04
   6.175921e+04  -6.494291e+04
   8.178636e+04  -4.957200e+04
   3.405490e+04  -8.904940e+03
  -5.643582e+03   2.454376e+04
   3.234972e+03   2.083481e+04
   2.655938e+04   5.257518e+02
   9.378903e+03   9.231470e+03
  -5.016341e+04   4.215010e+04
  -9.295160e+04   3.542036e+04
  -6.213275e+04  -4.420379e+04
   3.366967e+04  -1.319424e+05
   1.235166e+05  -1.264376e+05
   1.386160e+05  -1.210855e+04
   7.241236e+04   1.144723e+05
  -1.962736e+04   1.486888e+05
  -7.299677e+04   8.418119e+04
  -6.542023e+04   2.214402e+03
  -2.468457e+04  -2.632047e+04
   2.955789e+03  -7.014359e+03
  -7.560268e+03   4.921752e+03
  -4.008022e+04  -2.277971e+04
  -5.036064e+04  -6.397820e+04
  -8.039969e+03  -6.662934e+04
   6.391360e+04  -1.281811e+04
   9.774176e+04   5.801013e+04
   4.610544e+04   8.589678e+04
  -5.674536e+04   4.705325e+04
  -1.151575e+05  -2.754033e+04
  -6.866721e+04  -8.328400e+04
   3.830304e+04  -8.441962e+04
   1.010780e+05  -3.322920e+04
   6.972690e+04   3.460611e+04
   5.142316e+01   7.029934e+04
  -2.040584e+04   4.760092e+04
   2.130280e+04  -5.968105e+03
   5.561750e+04  -2.567794e+04
   2.390679e+04   2.153891e+04
  -4.987132e+04   8.871980e+04
  -9.418292e+04   9.271679e+04
  -7.497543e+04   1.204137e+04
  -2.210115e+04  -8.031149e+04
   1.872317e+04  -9.630667e+04
   3.093993e+04  -3.070489e+04
   2.073335e+04   3.955711e+04
  -5.068960e+03   4.650646e+04
  -3.472099e+04  -7.300057e+02
  -4.249725e+04  -4.196878e+04
  -1.153622e+04  -3.938068e+04
   3.559834e+04  -9.747919e+03
   5.294654e+04   8.017507e+03
   2.563080e+04   2.665789e+02
  -9.571842e+03  -1.153387e+04
  -1.116927e+04  -1.253489e+03
   1.269926e+04   2.878321e+04
   1.663962e+04   4.779717e+04
  -1.788665e+04   2.981281e+04
  -5.223823e+04  -1.546692e+04
  -3.654299e+04  -4.914733e+04
   2.421531e+04  -4.136215e+04
   6.757873e+04   3.066904e+02
   4.203139e+04   4.085587e+04
  -3.186201e+04   5.049660e+04
  -8.014878e+04   2.519204e+04
  -5.561936e+04  -1.624832e+04
   1.098302e+04  -4.592172e+04
   4.741659e+04  -4.304660e+04
   2.146906e+04  -1.136111e+04
  -2.692658e+04   1.681223e+04
  -3.661482e+04   8.141027e+03
   5.499705e+03  -3.022533e+04
   5.584777e+04  -4.774873e+04
