
 $NMID
 id='ANONYMOUS ', fmtdat='(2E16.6)'
 volume=1.0
 tramp=1.0
 $END
  -5.411499e+07   1.713391e+06
  -3.395574e+07  -3.227273e+07
   5.663376e+06  -3.694704e+07
   2.617030e+07  -1.532550e+07
   1.642918e+07   5.989765e+06
  -2.746520e+06   9.211716e+06
  -9.701373e+06  -6.803181e+05
  -3.204208e+06  -9.423497e+06
   5.696997e+06  -9.483770e+06
   9.371404e+06  -2.374855e+06
   6.962543e+06   5.841227e+06
   9.784299e+05   8.370593e+06
  -3.800169e+06   2.711870e+06
  -2.650474e+06  -5.355353e+06
   3.528387e+06  -6.606331e+06
   7.727522e+06   9.946752e+05
   4.655711e+06   9.770334e+06
  -3.284485e+06   1.156810e+07
  -9.573765e+06   5.998087e+06
  -1.042528e+07  -1.687643e+06
  -6.511832e+06  -6.956249e+06
  -9.396885e+05  -8.161936e+06
   2.444771e+06  -5.876189e+06
   1.516925e+06  -2.856543e+06
  -1.130077e+06  -2.360616e+06
  -1.722168e+05  -4.164179e+06
   5.307000e+06  -4.278697e+06
   9.413656e+06  -5.372512e+05
   6.871700e+06   3.898102e+06
   2.433489e+05   4.815100e+06
  -3.624106e+06   2.404918e+06
  -2.300046e+06  -8.353423e+04
   8.328831e+05  -9.306993e+05
   2.398822e+06  -3.519134e+05
   2.101530e+06   1.547819e+06
   5.753358e+05   3.853676e+06
  -1.685872e+06   3.697859e+06
  -2.970113e+06  -6.112133e+04
  -1.633866e+06  -3.381306e+06
   6.098666e+05  -1.733469e+06
   2.209823e+05   2.467836e+06
  -2.420552e+06   2.336060e+06
  -2.517966e+06  -3.021473e+06
   2.057752e+06  -6.062656e+06
   6.572069e+06  -1.305555e+06
   5.152175e+06   6.443789e+06
  -1.510601e+06   8.279219e+06
  -7.088476e+06   2.556250e+06
  -6.934310e+06  -4.176501e+06
  -2.010019e+06  -5.917092e+06
   3.372195e+06  -2.803515e+06
   5.292980e+06   1.359956e+06
   2.554273e+06   3.395125e+06
  -2.263460e+06   2.263523e+06
  -4.455572e+06  -7.387166e+05
  -2.017421e+06  -2.585111e+06
   1.620277e+06  -1.389655e+06
   1.768888e+06   9.785594e+05
  -1.226088e+06   1.038226e+06
  -2.550361e+06  -1.511225e+06
   3.067500e+05  -3.344595e+06
   4.315232e+06  -2.086680e+06
   5.216767e+06   1.054776e+06
   2.423763e+06   3.764561e+06
  -1.660199e+06   5.155464e+06
  -4.860234e+06   4.776815e+06
  -6.014807e+06   1.767992e+06
  -4.464878e+06  -3.004839e+06
  -1.003931e+06  -6.012852e+06
   1.705552e+06  -4.774931e+06
   1.720996e+06  -1.361909e+06
   2.980468e+05   1.696983e+05
   1.290269e+05  -9.047102e+05
   1.641379e+06  -1.642751e+06
   2.744747e+06  -1.314905e+05
   1.931529e+06   1.977618e+06
  -6.294452e+04   2.139233e+06
  -1.614945e+06   1.497660e+05
  -1.687062e+06  -2.135119e+06
   9.596390e+03  -2.932847e+06
   2.722820e+06  -1.621208e+06
   4.370999e+06   1.144820e+06
   3.178492e+06   3.606686e+06
   5.654566e+04   4.082140e+06
  -2.115074e+06   2.686463e+06
  -2.122838e+06   1.198902e+06
  -1.803083e+06   7.595204e+05
  -2.948479e+06   5.485046e+05
  -4.371698e+06  -6.952638e+05
  -3.528466e+06  -2.732859e+06
  -1.656071e+05  -4.147273e+06
   3.205880e+06  -3.930104e+06
   4.181420e+06  -2.113468e+06
   2.632215e+06   4.430307e+05
   2.338608e+05   2.226104e+06
  -1.115643e+06   1.905263e+06
  -5.512609e+05  -4.503822e+04
   1.095067e+06  -1.307094e+06
   1.901898e+06  -4.149637e+05
   9.191058e+05   1.184465e+06
  -5.304978e+05   1.115785e+06
  -4.641381e+05  -4.051775e+05
   1.059283e+06  -7.813907e+05
   1.947305e+06   1.188333e+06
   8.021867e+05   3.501025e+06
  -1.501447e+06   3.566832e+06
  -3.194603e+06   1.273891e+06
  -3.437110e+06  -1.411002e+06
  -2.359651e+06  -2.831770e+06
  -4.634864e+05  -2.675030e+06
   1.259632e+06  -1.476474e+06
   1.591610e+06  -2.214645e+05
   4.976984e+05   4.446602e+04
  -3.669175e+05  -7.581192e+05
   3.944113e+05  -1.354921e+06
   1.905557e+06  -6.077249e+05
   2.064834e+06   8.645573e+05
   4.148222e+05   1.425531e+06
  -1.182951e+06   5.914412e+05
  -9.152130e+05  -4.675756e+05
   8.675418e+05  -5.591100e+05
   2.248183e+06   3.069954e+05
   1.800338e+06   1.395649e+06
  -2.493393e+05   2.030306e+06
  -2.347552e+06   1.694112e+06
  -2.812026e+06   2.884205e+05
  -1.241500e+06  -1.266169e+06
   9.059898e+05  -1.516539e+06
   1.560227e+06  -2.094313e+05
   2.082771e+05   1.077290e+06
  -1.525839e+06   7.519679e+05
  -1.749718e+06  -7.797015e+05
  -3.601290e+05  -1.682602e+06
   1.105786e+06  -1.014391e+06
   1.293166e+06   3.021674e+05
   2.665221e+05   7.981575e+05
  -8.025651e+05   6.853936e+04
  -7.497070e+05  -1.058209e+06
   5.772050e+05  -1.438888e+06
   2.026299e+06  -5.529139e+05
   2.060618e+06   1.053867e+06
   3.989172e+05   2.096991e+06
  -1.447634e+06   1.673623e+06
  -1.750758e+06   2.249753e+05
  -5.184283e+05  -8.814764e+05
   6.657833e+05  -8.215532e+05
   6.463692e+05  -7.151283e+04
  -1.274385e+05   3.823815e+05
  -5.191739e+05   2.128480e+05
  -1.374951e+05  -9.056934e+04
   4.641981e+05   5.049358e+04
   5.466832e+05   6.734415e+05
  -1.942325e+05   1.211389e+06
  -1.396422e+06   9.177343e+05
  -2.111286e+06  -4.099754e+05
  -1.490971e+06  -1.960908e+06
   2.138163e+05  -2.453864e+06
   1.641866e+06  -1.440969e+06
   1.726189e+06   1.268423e+05
   8.726672e+05   9.270171e+05
   3.036127e+05   6.806668e+05
   4.605383e+05   2.188271e+05
   6.305317e+05   2.964637e+05
   1.027073e+05   7.642632e+05
  -8.834452e+05   9.214706e+05
  -1.474999e+06   3.359674e+05
  -1.069618e+06  -7.405539e+05
   2.560584e+05  -1.494050e+06
   1.749756e+06  -1.096036e+06
   2.283570e+06   4.855820e+05
   1.161977e+06   2.128466e+06
  -1.006426e+06   2.409457e+06
  -2.573621e+06   1.066392e+06
  -2.398528e+06  -6.578498e+05
  -9.839116e+05  -1.369292e+06
   2.141662e+05  -9.770714e+05
   4.126962e+05  -5.164712e+05
   8.739249e+04  -7.429963e+05
   9.453493e+04  -1.306618e+06
   6.633027e+05  -1.304363e+06
   1.301830e+06  -3.314430e+05
   1.355329e+06   1.086660e+06
   5.690537e+05   1.914934e+06
  -6.253380e+05   1.455696e+06
  -1.304839e+06   2.471917e+03
  -8.344053e+05  -1.296600e+06
   3.842016e+05  -1.423278e+06
   1.180162e+06  -4.314887e+05
   8.393144e+05   6.919956e+05
  -1.049095e+05   1.095246e+06
  -5.339483e+05   8.093220e+05
  -8.717205e+04   4.307393e+05
   4.353517e+05   3.371751e+05
   5.994860e+04   3.867160e+05
  -1.161259e+06   2.230415e+05
  -2.089196e+06  -3.198417e+05
  -1.646229e+06  -1.040733e+06
   2.151426e+04  -1.458390e+06
   1.596295e+06  -1.169994e+06
   1.858079e+06  -2.950406e+05
   8.595438e+05   4.947677e+05
  -2.541717e+05   5.792168e+05
  -5.213032e+05   4.162366e+04
  -3.849653e+04  -4.193426e+05
   4.465280e+05  -2.589708e+05
   4.884199e+05   3.425240e+05
   2.546815e+05   7.225791e+05
   9.638397e+04   4.764635e+05
   1.450943e+05  -9.734372e+04
   2.911479e+05  -2.925957e+05
   2.813482e+05   2.354672e+05
  -1.426406e+05   9.957280e+05
  -9.035174e+05   1.083827e+06
  -1.369995e+06   1.936573e+05
  -8.652828e+05  -9.110561e+05
   4.059623e+05  -1.154491e+06
   1.262236e+06  -3.534124e+05
   7.430535e+05   5.751237e+05
  -7.097953e+05   6.622822e+05
  -1.614225e+06  -9.435943e+04
  -1.024763e+06  -8.823240e+05
   4.940024e+05  -1.012527e+06
   1.528926e+06  -4.877582e+05
   1.255957e+06   1.973492e+05
   1.353336e+05   5.248677e+05
  -6.615478e+05   2.758646e+05
  -3.942059e+05  -2.938266e+05
   5.843099e+05  -5.297098e+05
   1.193091e+06   7.133662e+04
   6.879336e+05   1.183027e+06
  -5.781676e+05   1.721866e+06
  -1.489430e+06   9.066663e+05
  -1.275186e+06  -7.568816e+05
  -2.156082e+05  -1.812471e+06
   7.476499e+05  -1.313483e+06
   9.436220e+05   1.792271e+05
   4.402836e+05   1.212569e+06
  -2.275793e+05   9.879032e+05
  -5.744757e+05   8.792969e+04
  -4.687018e+05  -3.846432e+05
  -1.592436e+05  -1.428311e+05
  -5.278283e+04   9.755363e+04
  -2.976555e+05  -2.928935e+05
  -5.273925e+05  -9.750871e+05
  -1.912312e+05  -1.098348e+06
   7.319443e+05  -4.116440e+05
   1.496707e+06   4.633663e+05
   1.295531e+06   8.474657e+05
   1.924697e+05   7.096070e+05
  -8.543358e+05   4.258360e+05
  -9.961754e+05   1.862580e+05
  -3.762508e+05  -5.086969e+04
   1.421420e+05  -2.283901e+05
   4.792335e+04  -2.104466e+05
  -2.545693e+05  -9.529989e+04
  -5.641060e+04  -1.309726e+05
   6.537305e+05  -2.418344e+05
   1.060781e+06  -3.208592e+03
   4.646256e+05   6.886860e+05
  -8.251921e+05   1.203399e+06
  -1.718667e+06   7.992842e+05
  -1.447372e+06  -4.056048e+05
  -2.983525e+05  -1.417766e+06
   7.638383e+05  -1.409950e+06
   1.053646e+06  -5.670856e+05
   6.612954e+05   2.214796e+05
   1.459679e+05   3.590111e+05
  -5.419360e+04   7.012026e+04
   9.167479e+04  -1.074866e+04
   3.044773e+05   3.773899e+05
   2.541374e+05   8.200633e+05
  -1.689984e+05   6.927913e+05
  -6.845282e+05  -1.050506e+05
  -7.663890e+05  -9.405109e+05
  -1.495052e+05  -1.038232e+06
   7.436401e+05  -2.728912e+05
   1.058402e+06   6.992001e+05
   3.797885e+05   1.096127e+06
  -7.056007e+05   7.081249e+05
  -1.141359e+06  -5.155995e+04
  -5.617965e+05  -6.206043e+05
   2.761497e+05  -7.071211e+05
   3.914416e+05  -3.877345e+05
  -2.335639e+05  -6.228890e+03
  -6.530943e+05   4.994512e+04
  -1.595959e+05  -3.110107e+05
   8.285672e+05  -6.978301e+05
   1.287514e+06  -5.592033e+05
   7.959411e+05   1.749756e+05
  -8.128093e+04   8.885902e+05
  -5.587142e+05   8.881558e+05
  -4.403739e+05   1.882323e+05
  -6.751992e+04  -4.750953e+05
   2.294132e+05  -4.526818e+05
   3.526799e+05   1.296613e+05
   2.687307e+05   5.800208e+05
  -3.752576e+04   4.459923e+05
  -3.952987e+05  -3.231019e+04
  -4.959053e+05  -2.854851e+05
  -2.511626e+05  -1.032580e+05
   4.926458e+04   1.604724e+05
   9.422557e+04   6.682826e+04
  -3.502914e+04  -3.404675e+05
   5.344391e+03  -5.638852e+05
   2.995524e+05  -2.510747e+05
   4.844656e+05   3.508403e+05
   1.964197e+05   6.413497e+05
  -3.977566e+05   3.307010e+05
  -6.851514e+05  -2.575487e+05
  -2.730868e+05  -5.677417e+05
   5.122720e+05  -3.834883e+05
   9.032170e+05   5.057739e+04
   4.970149e+05   3.725046e+05
  -2.865017e+05   4.231768e+05
  -6.430353e+05   2.590455e+05
  -2.655632e+05   3.024996e+04
   3.269876e+05  -8.230117e+04
   4.007134e+05   4.133360e+04
  -1.542522e+05   2.819004e+05
  -7.239620e+05   2.806220e+05
