
 $NMID
 id='ANONYMOUS ', fmtdat='(2E16.6)'
 volume=1.0
 tramp=1.0
 $END
   4.349680e+07  -1.048446e+06
   2.727638e+07   2.509895e+07
  -4.018912e+06   2.917990e+07
  -2.050661e+07   1.307917e+07
  -1.335060e+07  -3.749745e+06
   1.722520e+06  -7.350187e+06
   7.793680e+06  -1.547470e+05
   3.160622e+06   7.343094e+06
  -4.054607e+06   8.189542e+06
  -7.509266e+06   2.442221e+06
  -5.843104e+06  -4.799367e+06
  -8.732394e+05  -7.095014e+06
   3.247958e+06  -2.172156e+06
   2.428190e+06   4.766292e+06
  -2.674987e+06   5.847553e+06
  -6.319257e+06  -5.222135e+05
  -4.009554e+06  -7.908913e+06
   2.501387e+06  -9.506551e+06
   7.789272e+06  -4.878165e+06
   8.429996e+06   1.552398e+06
   4.985317e+06   5.740832e+06
   4.625505e+05   6.338890e+06
  -1.781344e+06   4.326723e+06
  -5.147296e+05   2.286068e+06
   1.525525e+06   2.457556e+06
   7.714859e+04   4.021164e+06
  -4.949953e+06   3.705101e+06
  -8.291907e+06   2.410782e+05
  -5.746476e+06  -3.487960e+06
   1.865897e+05  -4.105957e+06
   3.509870e+06  -1.848344e+06
   2.053082e+06   5.347061e+05
  -1.140659e+06   1.297109e+06
  -2.683638e+06   3.657790e+05
  -2.048896e+06  -1.776242e+06
  -2.547212e+05  -3.683716e+06
   1.627668e+06  -3.000078e+06
   2.269154e+06   4.431212e+05
   9.670286e+05   2.866314e+06
  -6.398257e+05   1.005325e+06
  -6.537367e+04  -2.539366e+06
   2.095332e+06  -2.182899e+06
   2.172564e+06   2.365600e+06
  -1.369096e+06   4.861149e+06
  -4.949729e+06   1.068294e+06
  -4.037262e+06  -5.084019e+06
   1.107212e+06  -6.574126e+06
   5.753323e+06  -2.070061e+06
   5.961919e+06   3.373270e+06
   1.994052e+06   4.971481e+06
  -2.751219e+06   2.596319e+06
  -4.664572e+06  -8.618469e+05
  -2.443088e+06  -2.723193e+06
   1.702391e+06  -1.950079e+06
   3.685452e+06   4.634999e+05
   1.761549e+06   2.029290e+06
  -1.292872e+06   1.161137e+06
  -1.605305e+06  -7.523939e+05
   7.556112e+05  -9.865377e+05
   2.054665e+06   8.586389e+05
   6.382341e+04   2.394721e+06
  -3.153523e+06   1.712407e+06
  -4.170592e+06  -5.937903e+05
  -2.076854e+06  -2.932737e+06
   1.444419e+06  -4.365979e+06
   4.326632e+06  -4.112721e+06
   5.227786e+06  -1.421570e+06
   3.710915e+06   2.699832e+06
   8.069528e+05   5.194408e+06
  -1.268484e+06   4.159100e+06
  -1.254754e+06   1.417686e+06
  -3.348565e+05   2.134216e+05
  -4.898089e+05   1.003509e+06
  -1.824099e+06   1.368851e+06
  -2.618245e+06  -1.522216e+05
  -1.724302e+06  -2.057346e+06
   1.978467e+05  -2.118376e+06
   1.680729e+06  -1.668685e+05
   1.679732e+06   2.031626e+06
  -1.824453e+04   2.717134e+06
  -2.489779e+06   1.378265e+06
  -3.797962e+06  -1.134581e+06
  -2.615517e+06  -3.142472e+06
   3.509995e+04  -3.369150e+06
   1.736659e+06  -2.151795e+06
   1.665607e+06  -1.014280e+06
   1.465738e+06  -7.716221e+05
   2.583315e+06  -6.356121e+05
   3.921558e+06   4.725762e+05
   3.244303e+06   2.355728e+06
   2.568594e+05   3.755301e+06
  -2.863282e+06   3.644912e+06
  -3.844273e+06   1.942835e+06
  -2.411007e+06  -4.828104e+05
  -1.324735e+05  -2.100908e+06
   1.098291e+06  -1.725177e+06
   5.016023e+05   7.977047e+04
  -1.015411e+06   1.200578e+06
  -1.693687e+06   3.912310e+05
  -7.909953e+05  -1.053929e+06
   5.015021e+05  -1.043709e+06
   5.076240e+05   3.208783e+05
  -7.839452e+05   8.251281e+05
  -1.712039e+06  -7.472975e+05
  -1.004210e+06  -2.894872e+06
   9.067800e+05  -3.307864e+06
   2.660780e+06  -1.524791e+06
   3.261819e+06   9.621786e+05
   2.432350e+06   2.508461e+06
   5.749964e+05   2.513790e+06
  -1.152091e+06   1.400809e+06
  -1.484232e+06   2.160058e+05
  -4.561970e+05  -2.971602e+04
   3.546622e+05   6.790760e+05
  -3.063348e+05   1.201777e+06
  -1.661169e+06   5.758540e+05
  -1.856087e+06  -6.905694e+05
  -4.294088e+05  -1.235522e+06
   1.042614e+06  -5.814140e+05
   8.925505e+05   3.834329e+05
  -7.190565e+05   6.015463e+05
  -2.099055e+06  -1.059584e+05
  -1.801708e+06  -1.192366e+06
   9.054661e+04  -1.925807e+06
   2.096950e+06  -1.674284e+06
   2.569300e+06  -3.554246e+05
   1.148529e+06   1.098468e+06
  -7.823842e+05   1.350822e+06
  -1.365571e+06   1.996873e+05
  -1.761329e+05  -9.557731e+05
   1.365574e+06  -7.071738e+05
   1.612257e+06   6.405085e+05
   4.190591e+05   1.505548e+06
  -9.260460e+05   9.928734e+05
  -1.184794e+06  -1.752695e+05
  -3.044556e+05  -6.865041e+05
   6.959371e+05  -8.298202e+04
   6.921291e+05   9.425156e+05
  -5.100838e+05   1.319964e+06
  -1.846590e+06   5.332215e+05
  -1.897146e+06  -9.268046e+05
  -4.096342e+05  -1.895545e+06
   1.261566e+06  -1.554781e+06
   1.577938e+06  -2.656293e+05
   5.131206e+05   7.740409e+05
  -5.715175e+05   7.767531e+05
  -6.193186e+05   8.684511e+04
   6.595170e+04  -3.986211e+05
   4.961977e+05  -2.753211e+05
   2.198493e+05   6.900000e+04
  -3.581854e+05   2.830799e+04
  -5.246000e+05  -5.323188e+05
   1.066747e+05  -1.087572e+06
   1.232913e+06  -8.795752e+05
   1.935149e+06   3.151113e+05
   1.404625e+06   1.752961e+06
  -1.343237e+05   2.260785e+06
  -1.462358e+06   1.400467e+06
  -1.614397e+06  -3.051261e+04
  -8.940736e+05  -8.471883e+05
  -3.407359e+05  -7.033892e+05
  -3.943120e+05  -2.609355e+05
  -5.189170e+05  -2.509756e+05
  -9.293482e+04  -6.603511e+05
   7.632890e+05  -8.697943e+05
   1.343619e+06  -3.789381e+05
   1.043822e+06   6.495952e+05
  -1.546124e+05   1.414851e+06
  -1.569409e+06   1.083554e+06
  -2.119159e+06  -3.722807e+05
  -1.142087e+06  -1.900863e+06
   8.172014e+05  -2.212783e+06
   2.284832e+06  -1.061952e+06
   2.219981e+06   4.867731e+05
   1.002656e+06   1.206832e+06
  -1.176469e+05   9.477599e+05
  -3.912476e+05   5.491489e+05
  -1.401145e+05   6.970711e+05
  -1.061430e+05   1.161857e+06
  -5.729647e+05   1.170528e+06
  -1.162817e+06   3.158192e+05
  -1.256447e+06  -9.709479e+05
  -5.608382e+05  -1.744766e+06
   5.451639e+05  -1.349778e+06
   1.196873e+06  -4.468637e+04
   8.020666e+05   1.140573e+06
  -2.818444e+05   1.297942e+06
  -1.014880e+06   4.550004e+05
  -7.606070e+05  -5.475276e+05
   3.392486e+04  -9.542392e+05
   4.082112e+05  -7.451031e+05
   3.869951e+04  -4.135342e+05
  -3.992161e+05  -3.147826e+05
  -5.822837e+04  -3.602312e+05
   1.035126e+06  -2.336551e+05
   1.887953e+06   2.392458e+05
   1.525584e+06   8.935031e+05
   4.336078e+04   1.297670e+06
  -1.394322e+06   1.084401e+06
  -1.671075e+06   3.365827e+05
  -7.984730e+05  -3.799222e+05
   2.060887e+05  -5.079993e+05
   4.575648e+05  -6.671120e+04
   2.169164e+04   3.581245e+05
  -4.214561e+05   2.431149e+05
  -4.496283e+05  -3.053836e+05
  -2.162651e+05  -6.769594e+05
  -6.565486e+04  -4.464570e+05
  -1.277800e+05   1.188048e+05
  -2.792321e+05   3.138348e+05
  -2.690104e+05  -2.031703e+05
   1.224195e+05  -9.331654e+05
   8.032223e+05  -1.006201e+06
   1.214879e+06  -1.722005e+05
   7.710052e+05   8.287527e+05
  -3.556868e+05   1.032876e+06
  -1.134025e+06   3.099275e+05
  -6.915512e+05  -5.239797e+05
   6.237927e+05  -6.282188e+05
   1.492733e+06   2.367573e+04
   1.006661e+06   7.615492e+05
  -3.845122e+05   9.607140e+05
  -1.386313e+06   5.382926e+05
  -1.182711e+06  -1.146706e+05
  -1.582048e+05  -4.818132e+05
   5.910517e+05  -2.852006e+05
   3.532116e+05   2.521192e+05
  -5.466781e+05   4.859114e+05
  -1.100603e+06  -6.792275e+04
  -6.274362e+05  -1.094667e+06
   5.375875e+05  -1.590179e+06
   1.374866e+06  -8.445618e+05
   1.190213e+06   6.831717e+05
   2.345949e+05   1.672342e+06
  -6.542192e+05   1.244898e+06
  -8.728466e+05  -1.185852e+05
  -4.561038e+05  -1.096016e+06
   1.510137e+05  -9.236597e+05
   5.136543e+05  -1.047140e+05
   4.644878e+05   3.426603e+05
   1.774750e+05   1.292013e+05
   3.444678e+04  -9.629053e+04
   2.391190e+05   2.553002e+05
   4.912990e+05   8.820148e+05
   2.330365e+05   1.004316e+06
  -6.276795e+05   3.914178e+05
  -1.393783e+06  -3.930893e+05
  -1.240899e+06  -7.437007e+05
  -1.947654e+05  -6.418778e+05
   8.037808e+05  -4.145122e+05
   9.201600e+05  -2.055818e+05
   3.217446e+05   2.915182e+04
  -1.368045e+05   2.132588e+05
  -5.317087e+03   2.018285e+05
   2.732783e+05   9.133265e+04
   4.243060e+04   1.248100e+05
  -6.350520e+05   2.322439e+05
  -9.748298e+05   1.210025e+04
  -3.916107e+05  -6.324378e+05
   7.731762e+05  -1.111549e+06
   1.551627e+06  -7.374369e+05
   1.304359e+06   3.761237e+05
   2.888563e+05   1.308548e+06
  -6.718965e+05   1.298282e+06
  -9.647562e+05   5.185754e+05
  -6.219917e+05  -2.088277e+05
  -1.266534e+05  -3.309677e+05
   8.143774e+04  -5.394456e+04
  -6.802107e+04   3.047469e+04
  -2.992790e+05  -3.281803e+05
  -2.612708e+05  -7.465346e+05
   1.517959e+05  -6.353960e+05
   6.437799e+05   1.047567e+05
   7.080658e+05   8.787154e+05
   1.193982e+05   9.588971e+05
  -7.067546e+05   2.385797e+05
  -9.831049e+05  -6.567642e+05
  -3.468553e+05  -1.006424e+06
   6.489643e+05  -6.418838e+05
   1.038545e+06   4.177301e+04
   5.041329e+05   5.457786e+05
  -2.479460e+05   6.269148e+05
  -3.305858e+05   3.499549e+05
   2.455141e+05   5.257665e+03
   6.088045e+05  -5.404593e+04
   1.409283e+05   2.808558e+05
  -7.501063e+05   6.597346e+05
  -1.146523e+06   5.503797e+05
  -7.019735e+05  -1.336095e+05
   6.582105e+04  -8.087867e+05
   4.786295e+05  -8.086603e+05
   3.800335e+05  -1.528737e+05
   5.807631e+04   4.516046e+05
  -2.132835e+05   4.066556e+05
  -3.348679e+05  -1.380860e+05
  -2.527694e+05  -5.317044e+05
   4.038845e+04  -3.901822e+05
   3.662178e+05   3.483104e+04
   4.475319e+05   2.399988e+05
   2.283644e+05   7.560973e+04
  -3.000421e+04  -1.307660e+05
  -7.650719e+04  -1.966901e+04
   7.109128e+03   3.382428e+05
  -5.291283e+04   5.048950e+05
  -2.999748e+05   1.942519e+05
  -4.260044e+05  -3.543956e+05
  -1.470384e+05  -6.033483e+05
   3.773485e+05  -3.013483e+05
   6.222511e+05   2.481678e+05
   2.495991e+05   5.322399e+05
  -4.593503e+05   3.548616e+05
  -8.203185e+05  -4.860859e+04
  -4.556815e+05  -3.382602e+05
   2.626258e+05  -3.748564e+05
   5.876105e+05  -2.228371e+05
   2.253314e+05  -2.237143e+04
  -3.330225e+05   6.759425e+04
  -3.879934e+05  -5.758005e+04
   1.561135e+05  -2.847433e+05
   7.000592e+05  -2.777824e+05
