
 $NMID
 id='ANONYMOUS ', fmtdat='(2E16.6)'
 volume=1.0
 tramp=1.0
 $END
   4.786519e+06   1.206479e+06
   2.502016e+06   3.047929e+06
  -8.338312e+05   2.950943e+06
  -2.469462e+06   1.417611e+06
  -1.657264e+06  -2.196941e+05
   9.916995e+04  -8.305842e+05
   9.803885e+05  -1.983280e+05
   5.160027e+05   8.674153e+05
  -4.725374e+05   1.195253e+06
  -9.743656e+05   3.688568e+05
  -6.440375e+05  -7.790973e+05
   9.582850e+04  -1.024330e+06
   5.154739e+05  -1.291611e+05
   2.264834e+05   8.805595e+05
  -4.543274e+05   8.898393e+05
  -7.934658e+05  -9.546268e+04
  -3.691190e+05  -1.063273e+06
   4.970091e+05  -1.130640e+06
   1.063758e+06  -3.524510e+05
   8.954469e+05   5.112098e+05
   2.465459e+05   8.097813e+05
  -2.318217e+05   5.505075e+05
  -1.443483e+05   2.596355e+05
   2.564203e+05   3.652716e+05
   3.290725e+05   7.226889e+05
  -2.510689e+05   7.932416e+05
  -1.054118e+06   2.988009e+05
  -1.274402e+06  -4.168831e+05
  -6.053152e+05  -7.581565e+05
   3.624939e+05  -5.056592e+05
   7.306535e+05   3.250212e+04
   2.378899e+05   3.918134e+05
  -5.056190e+05   3.211473e+05
  -7.243061e+05  -1.193421e+05
  -2.828064e+05  -6.019116e+05
   2.794218e+05  -6.987589e+05
   4.123442e+05  -2.634026e+05
   1.140993e+05   2.948961e+05
  -1.741953e+05   3.608022e+05
  -1.077967e+05  -1.380789e+05
   2.175758e+05  -5.585771e+05
   4.254825e+05  -3.224549e+05
   2.720022e+05   3.107355e+05
  -1.235930e+05   5.440907e+05
  -4.007989e+05   5.617508e+04
  -2.721321e+05  -5.974945e+05
   2.267077e+05  -6.704760e+05
   7.230177e+05  -7.315967e+04
   7.720440e+05   6.083227e+05
   2.524077e+05   7.847652e+05
  -4.530888e+05   3.922271e+05
  -7.531624e+05  -1.651625e+05
  -4.138562e+05  -4.317792e+05
   1.928952e+05  -2.655618e+05
   4.736546e+05   9.147244e+04
   2.315354e+05   2.668928e+05
  -1.710261e+05   1.213584e+05
  -2.637245e+05  -1.367366e+05
   8.880554e+03  -2.110435e+05
   2.694939e+05  -4.348364e+04
   1.646633e+05   1.613225e+05
  -2.309712e+05   1.794810e+05
  -4.808195e+05  -3.669034e+04
  -2.381359e+05  -3.543189e+05
   3.773418e+05  -5.468639e+05
   8.660582e+05  -4.136209e+05
   8.299252e+05   5.113042e+04
   3.560482e+05   5.727087e+05
  -1.100735e+05   7.924065e+05
  -2.518282e+05   6.209261e+05
  -1.680192e+05   3.234142e+05
  -1.610437e+05   1.857861e+05
  -3.387728e+05   1.741512e+05
  -5.143002e+05   3.606551e+04
  -4.569171e+05  -2.967306e+05
  -1.455716e+05  -5.503990e+05
   2.233983e+05  -4.146903e+05
   3.998468e+05   6.633414e+04
   2.497147e+05   4.913419e+05
  -1.403691e+05   4.896628e+05
  -4.847304e+05   7.532634e+04
  -5.058440e+05  -3.900226e+05
  -1.978962e+05  -5.597279e+05
   1.517231e+05  -4.077878e+05
   2.703415e+05  -1.834542e+05
   2.019372e+05  -1.023621e+05
   2.217430e+05  -1.285444e+05
   4.512336e+05  -6.600129e+04
   6.540888e+05   1.850190e+05
   4.860210e+05   5.055783e+05
  -8.049340e+04   6.689077e+05
  -6.533054e+05   5.347098e+05
  -7.783691e+05   1.581506e+05
  -3.893620e+05  -2.349802e+05
   1.243680e+05  -3.914061e+05
   3.069722e+05  -2.317565e+05
   7.664058e+04   5.237396e+04
  -2.403482e+05   1.614282e+05
  -2.937847e+05   2.598237e+03
  -7.097580e+04  -1.988832e+05
   1.449806e+05  -1.682138e+05
   1.180853e+05   6.689186e+04
  -1.053306e+05   1.847793e+05
  -2.809071e+05  -4.410784e+04
  -2.100128e+05  -4.533802e+05
   1.056038e+05  -6.295839e+05
   4.729863e+05  -3.479167e+05
   6.333252e+05   1.905490e+05
   4.484948e+05   5.613094e+05
   4.056767e+04   5.234009e+05
  -2.779168e+05   2.145770e+05
  -2.869995e+05  -3.032400e+04
  -8.154821e+04  -2.175043e+04
   4.042541e+04   1.310657e+05
  -7.909346e+04   1.852250e+05
  -2.816217e+05   4.354465e+04
  -2.914542e+05  -1.553774e+05
  -5.171882e+04  -2.097160e+05
   1.946676e+05  -7.608452e+04
   1.678229e+05   9.558573e+04
  -1.342314e+05   1.210111e+05
  -4.079797e+05  -4.641469e+04
  -3.423209e+05  -2.800065e+05
   5.497553e+04  -3.854486e+05
   4.431986e+05  -2.585557e+05
   4.803661e+05   1.674140e+04
   1.651762e+05   2.206630e+05
  -1.730405e+05   1.897345e+05
  -2.208490e+05  -1.547083e+04
   1.608465e+04  -1.583300e+05
   2.605544e+05  -7.212832e+04
   2.680438e+05   1.560286e+05
   4.963912e+04   2.807780e+05
  -1.776815e+05   1.733688e+05
  -2.142196e+05  -3.842179e+04
  -5.621224e+04  -1.208929e+05
   1.084684e+05   5.419944e+03
   7.985364e+04   1.870652e+05
  -1.466026e+05   2.091688e+05
  -3.500509e+05   1.663098e+04
  -2.987440e+05  -2.386610e+05
  -5.210801e+03  -3.480178e+05
   2.696051e+05  -2.332793e+05
   2.877276e+05  -4.213923e+03
   7.755769e+04   1.492642e+05
  -1.214765e+05   1.259189e+05
  -1.274619e+05  -6.995905e+03
   1.463134e+04  -9.442660e+04
   1.210805e+05  -5.687699e+04
   7.931525e+04   3.033287e+04
  -4.560337e+04   3.065098e+04
  -8.991768e+04  -8.525602e+04
   3.659480e+04  -1.873251e+05
   2.452371e+05  -1.194558e+05
   3.351625e+05   1.222613e+05
   1.867681e+05   3.630670e+05
  -1.060628e+05   4.076657e+05
  -3.175771e+05   2.207208e+05
  -3.118847e+05  -4.763509e+04
  -1.629122e+05  -2.057013e+05
  -4.522708e+04  -1.878346e+05
  -3.583022e+04  -9.053622e+04
  -5.458972e+04  -5.276230e+04
   1.163694e+04  -1.037725e+05
   1.610925e+05  -1.354182e+05
   2.639824e+05  -3.440096e+04
   1.868428e+05   1.633599e+05
  -6.674865e+04   2.761007e+05
  -3.267349e+05   1.560054e+05
  -3.790794e+05  -1.395960e+05
  -1.519203e+05  -3.787824e+05
   2.034682e+05  -3.674116e+05
   4.322530e+05  -1.264861e+05
   3.950575e+05   1.418938e+05
   1.730032e+05   2.529683e+05
  -3.695632e+04   1.971469e+05
  -1.125261e+05   1.119529e+05
  -8.904816e+04   1.159253e+05
  -7.923514e+04   1.811859e+05
  -1.381550e+05   1.725382e+05
  -2.083604e+05   9.274934e+03
  -1.851507e+05  -2.228870e+05
  -3.434745e+04  -3.361349e+05
   1.506450e+05  -2.232424e+05
   2.195463e+05   3.032264e+04
   1.101134e+05   2.230914e+05
  -7.899555e+04   2.221631e+05
  -1.780426e+05   6.791453e+04
  -1.152022e+05  -9.217661e+04
   1.680686e+04  -1.520990e+05
   7.076140e+04  -1.239195e+05
   9.674117e+03  -8.551431e+04
  -5.505463e+04  -7.861136e+04
   6.710295e+03  -7.047629e+04
   1.854884e+05  -8.226156e+03
   3.174741e+05   1.063811e+05
   2.421583e+05   2.065749e+05
  -2.111597e+04   2.211481e+05
  -2.689169e+05   1.383181e+05
  -3.056107e+05   1.385866e+04
  -1.372192e+05  -7.254044e+04
   4.586884e+04  -7.271895e+04
   7.867808e+04  -5.443135e+03
  -1.676619e+04   5.131155e+04
  -9.364179e+04   2.453230e+04
  -6.751716e+04  -7.245084e+04
   4.285666e+03  -1.360355e+05
   2.183675e+04  -8.434781e+04
  -3.018477e+04   2.948063e+04
  -7.669320e+04   6.137009e+04
  -4.409383e+04  -4.578789e+04
   6.705007e+04  -1.707439e+05
   1.822635e+05  -1.476609e+05
   2.040637e+05   2.725361e+04
   8.635787e+04   1.793910e+05
  -1.029991e+05   1.559227e+05
  -2.041996e+05  -4.230762e+03
  -1.028027e+05  -1.267125e+05
   1.314636e+05  -9.471414e+04
   2.782585e+05   4.885079e+04
   1.794326e+05   1.706423e+05
  -8.713002e+04   1.760190e+05
  -2.767497e+05   7.291091e+04
  -2.273828e+05  -5.079379e+04
  -2.062382e+04  -9.774777e+04
   1.152397e+05  -3.888454e+04
   4.831772e+04   5.262830e+04
  -1.259935e+05   5.804517e+04
  -1.947960e+05  -6.789547e+04
  -5.520464e+04  -2.293698e+05
   1.779574e+05  -2.610040e+05
   2.916553e+05  -8.848430e+04
   1.898158e+05   1.768995e+05
  -2.353150e+04   3.184243e+05
  -1.672249e+05   2.124789e+05
  -1.585060e+05  -4.310806e+04
  -5.402783e+04  -2.159381e+05
   4.699273e+04  -1.718004e+05
   9.298847e+04  -6.099316e+03
   8.317154e+04   8.302496e+04
   4.010900e+04   3.436054e+04
   4.886023e+03  -2.041017e+04
   1.551387e+04   4.675436e+04
   4.940720e+04   1.758434e+05
   2.022025e+04   1.952649e+05
  -1.116966e+05   5.072028e+04
  -2.426381e+05  -1.253061e+05
  -2.134729e+05  -1.833376e+05
  -1.289109e+04  -1.218566e+05
   1.758467e+05  -4.356375e+04
   1.810452e+05  -7.262283e+03
   4.693541e+04   9.975585e+03
  -3.807354e+04   3.244085e+04
   6.503868e+03   4.460204e+04
   6.228238e+04   3.632908e+04
  -3.852695e+03   2.535561e+04
  -1.424441e+05   1.086311e+04
  -1.758981e+05  -4.148429e+04
  -2.231186e+04  -1.279952e+05
   2.004642e+05  -1.618603e+05
   3.010382e+05  -6.046017e+04
   2.024973e+05   1.299700e+05
  -6.320306e+03   2.528276e+05
  -1.703163e+05   2.039679e+05
  -1.962147e+05   4.432049e+04
  -1.069149e+05  -7.226807e+04
  -2.480537e+03  -6.496085e+04
   3.094511e+04   3.134858e+03
  -8.461933e+03   1.368579e+04
  -4.865107e+04  -6.692490e+04
  -2.383487e+04  -1.460662e+05
   5.642520e+04  -1.057560e+05
   1.157232e+05   5.593867e+04
   8.355425e+04   1.989751e+05
  -3.460475e+04   1.774764e+05
  -1.476854e+05  -3.737036e+02
  -1.470346e+05  -1.736208e+05
  -1.178502e+04  -1.965078e+05
   1.469471e+05  -7.877228e+04
   1.795615e+05   5.474342e+04
   6.033153e+04   1.094833e+05
  -6.990499e+04   8.968596e+04
  -6.175493e+04   4.650682e+04
   5.852467e+04   1.628381e+04
   1.167227e+05   1.748257e+04
   9.294424e+03   5.427371e+04
  -1.633852e+05   9.128581e+04
  -2.190695e+05   6.371473e+04
  -1.083493e+05  -4.208005e+04
   4.629688e+04  -1.388687e+05
   1.080549e+05  -1.217440e+05
   6.163896e+04  -2.044753e+03
  -1.537000e+04   9.037276e+04
  -5.830027e+04   5.764310e+04
  -5.611389e+04  -5.136848e+04
  -2.202720e+04  -1.076520e+05
   2.690643e+04  -5.789723e+04
   6.461280e+04   2.693335e+04
   6.704042e+04   5.336661e+04
   3.828624e+04   1.535551e+04
   6.362738e+03  -1.518690e+04
  -1.278819e+04   1.360037e+04
  -3.007576e+04   6.993496e+04
  -5.532720e+04   7.596580e+04
  -7.066815e+04   3.869189e+01
  -4.614482e+04  -9.719703e+04
   2.069363e+04  -1.179707e+05
   8.766272e+04  -3.284162e+04
   9.438907e+04   7.960106e+04
   1.662298e+04   1.123528e+05
  -9.458365e+04   4.339334e+04
  -1.395780e+05  -4.889156e+04
  -6.490425e+04  -8.084403e+04
   6.340390e+04  -4.764941e+04
   1.127294e+05  -4.335693e+03
   3.205393e+04   7.364987e+03
  -7.719939e+04  -1.174952e+04
  -7.364527e+04  -4.074433e+04
   5.155758e+04  -5.371096e+04
   1.575477e+05  -2.078666e+04
