
 $NMID
 id='ANONYMOUS ', fmtdat='(2E16.6)'
 volume=1.0
 tramp=1.0
 $END
  -3.794271e+07  -4.888941e+05
  -2.393579e+07  -2.075521e+07
   2.643920e+06  -2.476966e+07
   1.757866e+07  -1.295038e+07
   1.254958e+07   1.457496e+06
  -6.381929e+05   6.587262e+06
  -7.246845e+06   1.411673e+06
  -3.957087e+06  -6.376167e+06
   2.980246e+06  -8.561780e+06
   6.894344e+06  -3.095815e+06
   5.467147e+06   4.667460e+06
   5.915981e+05   7.021735e+06
  -3.272791e+06   1.708977e+06
  -2.370147e+06  -5.334477e+06
   2.441151e+06  -6.260592e+06
   5.910354e+06   7.051921e+04
   3.883887e+06   7.266697e+06
  -2.194133e+06   8.783911e+06
  -7.124137e+06   4.197256e+06
  -7.338516e+06  -1.927793e+06
  -3.676064e+06  -5.266077e+06
   1.640042e+05  -4.938338e+06
   1.029688e+06  -3.065180e+06
  -9.394867e+05  -2.386065e+06
  -2.212437e+06  -3.672688e+06
   5.220480e+05  -4.850955e+06
   5.941882e+06  -3.295762e+06
   8.624341e+06   7.481635e+05
   5.213692e+06   4.009352e+06
  -1.153159e+06   3.847066e+06
  -4.269783e+06   1.031974e+06
  -1.927585e+06  -1.573115e+06
   2.299561e+06  -1.947833e+06
   3.931455e+06   5.179842e+03
   2.172078e+06   2.875520e+06
  -6.092251e+05   4.286453e+06
  -2.042677e+06   2.490288e+06
  -1.504352e+06  -1.155132e+06
  -8.095597e+03  -2.623683e+06
   6.509315e+05   1.797546e+03
  -5.415031e+05   3.282068e+06
  -2.354664e+06   2.404434e+06
  -2.198190e+06  -2.072302e+06
   7.027382e+05  -4.382981e+06
   3.696866e+06  -1.086982e+06
   3.299713e+06   4.272533e+06
  -8.175105e+05   5.646238e+06
  -5.199646e+06   1.715883e+06
  -5.943278e+06  -3.320317e+06
  -2.299276e+06  -5.049462e+06
   2.742392e+06  -2.894912e+06
   5.037804e+06   6.130451e+05
   2.880010e+06   2.647941e+06
  -1.372911e+06   2.010123e+06
  -3.510080e+06  -2.725576e+05
  -1.815273e+06  -1.796214e+06
   1.164212e+06  -1.089297e+06
   1.783160e+06   7.290144e+05
  -3.090589e+05   1.294704e+06
  -2.007019e+06  -7.486753e+04
  -8.125619e+05  -1.694160e+06
   2.179425e+06  -1.705193e+06
   3.748191e+06   6.576601e+04
   2.084158e+06   2.492610e+06
  -1.690714e+06   4.182322e+06
  -4.866547e+06   3.831800e+06
  -5.396369e+06   9.255633e+05
  -3.282635e+06  -3.074160e+06
  -4.032158e+05  -5.292789e+06
   1.166855e+06  -4.328194e+06
   1.053547e+06  -1.944959e+06
   6.920618e+05  -8.293129e+05
   1.386066e+06  -1.202301e+06
   2.669945e+06  -9.706859e+05
   2.973082e+06   9.417212e+05
   1.545984e+06   2.879893e+06
  -7.451768e+05   2.572046e+06
  -2.277729e+06  -1.667071e+04
  -1.903678e+06  -2.639697e+06
   2.984091e+05  -3.101225e+06
   2.858790e+06  -1.137653e+06
   3.755445e+06   1.660636e+06
   2.215275e+06   3.324318e+06
  -3.028426e+05   3.079631e+06
  -1.625917e+06   1.817847e+06
  -1.422218e+06   9.864889e+05
  -1.424756e+06   9.673182e+05
  -2.820171e+06   7.812664e+05
  -4.302155e+06  -5.459106e+05
  -3.532620e+06  -2.680764e+06
  -1.620378e+05  -4.219883e+06
   3.435797e+06  -3.957610e+06
   4.521274e+06  -1.843558e+06
   2.625535e+06   8.960824e+05
  -2.168681e+05   2.440170e+06
  -1.514858e+06   1.763405e+06
  -5.309573e+05  -2.034628e+05
   1.273666e+06  -1.258112e+06
   1.859837e+06  -3.310646e+05
   7.194355e+05   1.175404e+06
  -6.989087e+05   1.157632e+06
  -7.156414e+05  -3.621217e+05
   6.829260e+05  -1.149566e+06
   1.909735e+06   3.505722e+05
   1.509566e+06   2.929861e+06
  -5.066422e+05   3.951130e+06
  -2.841744e+06   2.247269e+06
  -3.949979e+06  -8.463330e+05
  -3.031461e+06  -3.025022e+06
  -6.545895e+05  -3.066100e+06
   1.441115e+06  -1.556782e+06
   1.739679e+06  -1.186145e+05
   5.155556e+05   5.518737e+04
  -3.789305e+05  -7.780673e+05
   3.345840e+05  -1.283078e+06
   1.780166e+06  -5.761306e+05
   2.014845e+06   7.461283e+05
   4.949071e+05   1.330433e+06
  -1.174352e+06   6.524289e+05
  -1.090346e+06  -4.609052e+05
   7.738328e+05  -8.119234e+05
   2.511654e+06   1.516305e+04
   2.234067e+06   1.427649e+06
  -6.377040e+04   2.345184e+06
  -2.475225e+06   1.938679e+06
  -2.954494e+06   3.337846e+05
  -1.243251e+06  -1.235112e+06
   8.971277e+05  -1.404472e+06
   1.444212e+06  -1.478954e+05
   1.019117e+05   1.028381e+06
  -1.551570e+06   7.217835e+05
  -1.809937e+06  -7.393435e+05
  -5.118063e+05  -1.713362e+06
   1.010400e+06  -1.190751e+06
   1.370116e+06   1.247633e+05
   4.104046e+05   7.532921e+05
  -7.323993e+05   8.883727e+04
  -7.192931e+05  -1.076360e+06
   6.577863e+05  -1.452224e+06
   2.119633e+06  -4.879297e+05
   2.086381e+06   1.147227e+06
   3.822598e+05   2.144841e+06
  -1.454134e+06   1.705844e+06
  -1.782090e+06   2.748456e+05
  -5.913379e+05  -8.779489e+05
   6.580652e+05  -8.849398e+05
   7.644077e+05  -6.457085e+04
  -4.467791e+04   5.562674e+05
  -6.614688e+05   3.981851e+05
  -4.160038e+05  -1.213918e+05
   3.241014e+05  -1.682654e+05
   6.285186e+05   5.059935e+05
  -7.794575e+04   1.209934e+06
  -1.401146e+06   9.717749e+05
  -2.179603e+06  -4.195532e+05
  -1.513266e+06  -2.038006e+06
   2.508536e+05  -2.582688e+06
   1.736789e+06  -1.606462e+06
   1.914152e+06   4.473932e+04
   1.096134e+06   1.077869e+06
   3.875751e+05   9.945082e+05
   3.384543e+05   4.201379e+05
   4.675712e+05   2.597338e+05
   6.516453e+04   6.778347e+05
  -8.656355e+05   9.782510e+05
  -1.565810e+06   4.368940e+05
  -1.242843e+06  -8.038724e+05
   1.816328e+05  -1.698833e+06
   1.841194e+06  -1.236281e+06
   2.433770e+06   4.924608e+05
   1.277169e+06   2.191743e+06
  -9.328082e+05   2.478682e+06
  -2.577921e+06   1.178285e+06
  -2.552146e+06  -5.523991e+05
  -1.222894e+06  -1.415255e+06
   1.059184e+05  -1.189230e+06
   5.522331e+05  -7.093882e+05
   3.346876e+05  -7.674598e+05
   2.390761e+05  -1.222815e+06
   6.739323e+05  -1.238761e+06
   1.288186e+06  -2.882636e+05
   1.363968e+06   1.167404e+06
   5.491456e+05   2.014379e+06
  -6.927830e+05   1.511100e+06
  -1.374136e+06   1.751855e+04
  -8.912449e+05  -1.289453e+06
   3.052340e+05  -1.459868e+06
   1.095413e+06  -5.617466e+05
   8.372342e+05   5.253449e+05
   1.326774e+04   1.015217e+06
  -3.837191e+05   8.506927e+05
  -1.799799e+04   5.166863e+05
   4.174785e+05   3.993050e+05
   3.605258e+04   4.215570e+05
  -1.147809e+06   2.375614e+05
  -2.081628e+06  -3.273940e+05
  -1.696978e+06  -1.042794e+06
  -6.546954e+04  -1.427794e+06
   1.549085e+06  -1.152662e+06
   1.887706e+06  -3.627174e+05
   9.221128e+05   3.743977e+05
  -2.170786e+05   5.264465e+05
  -4.996661e+05   9.553889e+04
   1.754163e+04  -3.500384e+05
   5.196763e+05  -2.384363e+05
   4.855526e+05   3.692802e+05
   1.438791e+05   7.962899e+05
  -1.174416e+04   5.124132e+05
   1.606831e+05  -1.771519e+05
   3.882170e+05  -4.022043e+05
   3.110080e+05   2.351004e+05
  -2.166164e+05   1.078071e+06
  -9.548656e+05   1.095565e+06
  -1.305496e+06   9.841396e+04
  -7.568774e+05  -9.768362e+05
   4.490996e+05  -1.093091e+06
   1.253692e+06  -2.345530e+05
   7.502615e+05   6.506862e+05
  -7.212592e+05   7.018723e+05
  -1.732349e+06  -5.642998e+04
  -1.207599e+06  -8.988390e+05
   4.149347e+05  -1.139663e+06
   1.628709e+06  -6.502398e+05
   1.410491e+06   1.346604e+05
   1.946616e+05   5.754710e+05
  -6.804670e+05   3.331812e+05
  -3.696522e+05  -2.802665e+05
   6.776700e+05  -4.920337e+05
   1.241964e+06   1.830519e+05
   5.960163e+05   1.302863e+06
  -7.665493e+05   1.755604e+06
  -1.644937e+06   8.443270e+05
  -1.319574e+06  -8.672454e+05
  -1.730508e+05  -1.939666e+06
   8.139504e+05  -1.429539e+06
   1.009105e+06   1.348431e+05
   5.158649e+05   1.273797e+06
  -1.603288e+05   1.088174e+06
  -5.769814e+05   1.216764e+05
  -5.585466e+05  -4.281254e+05
  -2.446862e+05  -1.753764e+05
  -2.657640e+04   1.248328e+05
  -1.935396e+05  -2.665907e+05
  -4.934657e+05  -1.018762e+06
  -2.752317e+05  -1.176843e+06
   6.717530e+05  -4.322046e+05
   1.586908e+06   5.226518e+05
   1.440210e+06   9.174819e+05
   1.985529e+05   7.334600e+05
  -9.899790e+05   4.251418e+05
  -1.083848e+06   2.064013e+05
  -3.275382e+05  -1.794284e+04
   1.866231e+05  -2.306446e+05
  -3.924142e+04  -2.630673e+05
  -3.674888e+05  -1.558334e+05
  -1.777447e+04  -1.473905e+05
   8.034416e+05  -2.033396e+05
   1.106031e+06   5.875753e+04
   3.222439e+05   7.290354e+05
  -1.002720e+06   1.185605e+06
  -1.770216e+06   7.111532e+05
  -1.390040e+06  -5.348204e+05
  -2.296981e+05  -1.520457e+06
   8.243172e+05  -1.424614e+06
   1.127889e+06  -4.949563e+05
   7.051897e+05   3.091222e+05
   9.923825e+04   3.827157e+05
  -1.467994e+05   1.776833e+04
   6.212092e+04  -7.340901e+04
   3.524308e+05   3.752213e+05
   2.797849e+05   8.688194e+05
  -2.222293e+05   7.029733e+05
  -7.384727e+05  -1.992409e+05
  -7.178019e+05  -1.083401e+06
  -1.305625e+04  -1.091385e+06
   8.536602e+05  -1.705285e+05
   1.060016e+06   8.612094e+05
   2.964380e+05   1.164177e+06
  -7.865490e+05   6.492050e+05
  -1.152703e+06  -1.259223e+05
  -5.112863e+05  -6.116026e+05
   3.137814e+05  -6.476467e+05
   3.499729e+05  -3.696799e+05
  -3.310353e+05  -4.439734e+04
  -7.113332e+05   1.533426e+04
  -1.260449e+05  -3.177178e+05
   8.963903e+05  -7.147859e+05
   1.298871e+06  -6.010378e+05
   7.426684e+05   1.505356e+05
  -1.279596e+05   8.975507e+05
  -5.480019e+05   8.745162e+05
  -3.880899e+05   1.159614e+05
  -9.216077e+03  -5.389877e+05
   2.767528e+05  -4.215203e+05
   3.737884e+05   2.254833e+05
   2.477859e+05   6.236610e+05
  -8.067792e+04   3.985812e+05
  -4.123864e+05  -8.330526e+04
  -4.808518e+05  -2.675972e+05
  -2.569548e+05  -7.073519e+04
   4.211682e+03   1.124697e+05
   8.960032e+04  -4.997230e+04
   8.086593e+04  -4.132441e+05
   1.830015e+05  -5.150415e+05
   3.796544e+05  -1.139737e+05
   3.969522e+05   4.844494e+05
   4.434453e+04   7.003104e+05
  -4.725162e+05   2.946645e+05
  -6.600986e+05  -3.527170e+05
  -2.250855e+05  -6.408782e+05
   5.316557e+05  -3.691560e+05
   9.027446e+05   1.278401e+05
   4.836820e+05   4.153234e+05
  -3.215733e+05   3.746403e+05
  -6.690360e+05   1.728718e+05
  -2.202148e+05   5.346647e+03
   4.349187e+05  -1.396011e+04
   4.566029e+05   1.457087e+05
  -2.414717e+05   3.445098e+05
  -8.872837e+05   2.657363e+05
