
 $NMID
 id='ANONYMOUS ', fmtdat='(2E16.6)'
 volume=1.0
 tramp=1.0
 $END
   5.492234e+07   9.530789e+04
   3.280589e+07   3.393876e+07
  -7.337930e+06   3.697580e+07
  -2.670542e+07   1.421318e+07
  -1.586660e+07  -6.720794e+06
   3.201915e+06  -8.994349e+06
   9.453652e+06   1.135091e+06
   2.712286e+06   9.396955e+06
  -5.901073e+06   9.055011e+06
  -9.307062e+06   1.981683e+06
  -6.845875e+06  -6.016349e+06
  -8.558773e+05  -8.399443e+06
   3.913184e+06  -2.699664e+06
   2.668902e+06   5.297811e+06
  -3.564874e+06   6.399225e+06
  -7.628210e+06  -1.264188e+06
  -4.352644e+06  -9.900821e+06
   3.642266e+06  -1.147885e+07
   9.841410e+06  -5.764500e+06
   1.056247e+07   2.014505e+06
   6.448030e+06   7.352931e+06
   6.038694e+05   8.455276e+06
  -2.893384e+06   5.825454e+06
  -1.743870e+06   2.497015e+06
   1.236143e+06   2.043993e+06
   3.622129e+05   4.143427e+06
  -5.283480e+06   4.429375e+06
  -9.518298e+06   5.911098e+05
  -6.947082e+06  -4.022126e+06
  -2.459362e+05  -5.025804e+06
   3.701503e+06  -2.603275e+06
   2.516540e+06  -2.237629e+03
  -5.411567e+05   1.055236e+06
  -2.283196e+06   6.211156e+05
  -2.268428e+06  -1.384565e+06
  -7.570333e+05  -3.924124e+06
   1.778283e+06  -3.802950e+06
   3.204835e+06   1.638702e+05
   1.656132e+06   3.618821e+06
  -8.398931e+05   1.861401e+06
  -4.205589e+05  -2.472257e+06
   2.358671e+06  -2.302716e+06
   2.387066e+06   3.081224e+06
  -2.339768e+06   5.924120e+06
  -6.730858e+06   9.302372e+05
  -4.956232e+06  -6.757566e+06
   1.867669e+06  -8.279358e+06
   7.238682e+06  -2.363649e+06
   6.815180e+06   4.273946e+06
   1.872729e+06   5.837736e+06
  -3.337205e+06   2.684508e+06
  -5.131378e+06  -1.398128e+06
  -2.400531e+06  -3.336229e+06
   2.325179e+06  -2.133892e+06
   4.401769e+06   8.731495e+05
   1.903603e+06   2.625881e+06
  -1.668597e+06   1.337742e+06
  -1.710002e+06  -9.693974e+05
   1.239322e+06  -8.749014e+05
   2.355715e+06   1.668969e+06
  -6.140022e+05   3.268364e+06
  -4.465951e+06   1.804577e+06
  -5.118453e+06  -1.296681e+06
  -2.255190e+06  -3.841832e+06
   1.733280e+06  -5.171571e+06
   4.882847e+06  -4.818531e+06
   6.080534e+06  -1.766421e+06
   4.526051e+06   3.090442e+06
   9.780895e+05   6.057751e+06
  -1.752696e+06   4.668886e+06
  -1.651766e+06   1.204671e+06
  -1.120481e+05  -1.906652e+05
   3.039150e+04   1.053362e+06
  -1.616528e+06   1.839332e+06
  -2.841140e+06   2.744482e+05
  -2.082085e+06  -1.914127e+06
  -7.426587e+04  -2.171387e+06
   1.558942e+06  -2.709822e+05
   1.733603e+06   2.015596e+06
   6.143939e+04   2.915723e+06
  -2.727882e+06   1.676778e+06
  -4.438031e+06  -1.140743e+06
  -3.194339e+06  -3.689988e+06
   3.049172e+04  -4.152802e+06
   2.228629e+06  -2.660077e+06
   2.168371e+06  -1.110734e+06
   1.768776e+06  -6.888458e+05
   2.873824e+06  -5.254888e+05
   4.291912e+06   6.715503e+05
   3.486295e+06   2.665023e+06
   2.069881e+05   4.075199e+06
  -3.100694e+06   3.925543e+06
  -4.110253e+06   2.185615e+06
  -2.661720e+06  -3.794280e+05
  -3.164059e+05  -2.238387e+06
   1.071693e+06  -1.954022e+06
   5.683127e+05   3.111546e+04
  -1.060844e+06   1.325960e+06
  -1.885614e+06   4.232422e+05
  -9.287674e+05  -1.189837e+06
   4.948955e+05  -1.123609e+06
   4.337530e+05   3.628105e+05
  -1.014181e+06   6.923690e+05
  -1.806875e+06  -1.229135e+06
  -6.744713e+05  -3.382733e+06
   1.476063e+06  -3.343759e+06
   3.019896e+06  -1.146048e+06
   3.267322e+06   1.332724e+06
   2.316752e+06   2.653077e+06
   5.190808e+05   2.568303e+06
  -1.200814e+06   1.482924e+06
  -1.567286e+06   2.604494e+05
  -4.899822e+05  -3.650548e+04
   3.692598e+05   7.403317e+05
  -3.934116e+05   1.334559e+06
  -1.886706e+06   5.973084e+05
  -2.026408e+06  -8.529694e+05
  -3.982973e+05  -1.397310e+06
   1.152873e+06  -5.856673e+05
   8.902821e+05   4.284634e+05
  -8.196565e+05   5.237304e+05
  -2.150834e+06  -2.687633e+05
  -1.752369e+06  -1.292673e+06
   1.981120e+05  -1.947166e+06
   2.250648e+06  -1.684674e+06
   2.746946e+06  -3.229547e+05
   1.226770e+06   1.239274e+06
  -8.977222e+05   1.507806e+06
  -1.553089e+06   2.057778e+05
  -2.148032e+05  -1.079168e+06
   1.498877e+06  -7.585935e+05
   1.717688e+06   7.486327e+05
   3.592114e+05   1.628973e+06
  -1.063253e+06   9.784667e+05
  -1.243370e+06  -2.913935e+05
  -2.499250e+05  -7.672613e+05
   7.932620e+05  -6.270109e+04
   7.527847e+05   1.038623e+06
  -5.472932e+05   1.432426e+06
  -1.991857e+06   5.802896e+05
  -2.048456e+06  -1.009123e+06
  -4.176897e+05  -2.059423e+06
   1.406590e+06  -1.656860e+06
   1.711510e+06  -2.350201e+05
   5.101139e+05   8.539281e+05
  -6.410350e+05   8.077724e+05
  -6.276285e+05   9.285580e+04
   1.034391e+05  -3.518738e+05
   4.706281e+05  -2.200732e+05
   1.182680e+05   4.441244e+04
  -4.361235e+05  -8.407766e+04
  -5.121174e+05  -6.594738e+05
   1.906828e+05  -1.176530e+06
   1.358162e+06  -9.109227e+05
   2.076955e+06   3.753260e+05
   1.492754e+06   1.908077e+06
  -1.689393e+05   2.411366e+06
  -1.572454e+06   1.431205e+06
  -1.672067e+06  -9.059774e+04
  -8.691645e+05  -8.601589e+05
  -3.426025e+05  -6.288918e+05
  -4.943166e+05  -2.124250e+05
  -6.311323e+05  -3.129982e+05
  -9.810224e+04  -7.633244e+05
   8.544142e+05  -9.064366e+05
   1.425835e+06  -3.480119e+05
   1.053381e+06   6.886854e+05
  -2.156042e+05   1.444180e+06
  -1.684500e+06   1.094876e+06
  -2.239832e+06  -4.365256e+05
  -1.160754e+06  -2.063425e+06
   9.669749e+05  -2.363360e+06
   2.507834e+06  -1.061755e+06
   2.337910e+06   6.147017e+05
   9.661700e+05   1.301356e+06
  -1.810916e+05   9.300813e+05
  -3.623475e+05   5.158986e+05
  -5.596007e+04   7.658098e+05
  -8.280158e+04   1.314573e+06
  -6.510370e+05   1.295983e+06
  -1.286005e+06   3.382751e+05
  -1.353706e+06  -1.050629e+06
  -5.916067e+05  -1.874820e+06
   5.901950e+05  -1.443025e+06
   1.276503e+06  -2.176668e+04
   8.261136e+05   1.261791e+06
  -3.678569e+05   1.389488e+06
  -1.146253e+06   4.112527e+05
  -8.078011e+05  -6.882512e+05
   1.156282e+05  -1.068330e+06
   5.253678e+05  -7.758779e+05
   7.575058e+04  -4.075678e+05
  -4.414783e+05  -3.254720e+05
  -6.922564e+04  -3.803785e+05
   1.139767e+06  -2.259085e+05
   2.060239e+06   2.978745e+05
   1.624840e+06   1.003234e+06
  -2.072340e+04   1.425699e+06
  -1.567903e+06   1.159286e+06
  -1.814199e+06   3.040660e+05
  -8.275588e+05  -4.810112e+05
   2.560173e+05  -5.710953e+05
   5.066332e+05  -3.768213e+04
   3.595628e+04   4.258236e+05
  -4.340420e+05   2.703714e+05
  -4.872747e+05  -3.312698e+05
  -2.761398e+05  -7.186061e+05
  -1.127583e+05  -4.806044e+05
  -1.290507e+05   9.258559e+04
  -2.602014e+05   2.954660e+05
  -2.764575e+05  -2.246780e+05
   1.138346e+05  -9.846489e+05
   8.739805e+05  -1.080697e+06
   1.365577e+06  -2.008680e+05
   8.775285e+05   8.994182e+05
  -3.951440e+05   1.150763e+06
  -1.256883e+06   3.667685e+05
  -7.460708e+05  -5.525645e+05
   6.864334e+05  -6.557993e+05
   1.573950e+06   6.592465e+04
   1.002829e+06   8.322162e+05
  -4.661006e+05   9.784554e+05
  -1.468978e+06   4.933605e+05
  -1.215846e+06  -1.669046e+05
  -1.398319e+05  -5.027495e+05
   6.391295e+05  -2.749202e+05
   3.905964e+05   2.906427e+05
  -5.683656e+05   5.427197e+05
  -1.186790e+06  -4.414191e+04
  -7.114785e+05  -1.161877e+06
   5.345350e+05  -1.723351e+06
   1.454372e+06  -9.317095e+05
   1.273085e+06   7.189801e+05
   2.486291e+05   1.777362e+06
  -7.029126e+05   1.298546e+06
  -9.183221e+05  -1.629004e+05
  -4.458216e+05  -1.173810e+06
   2.069974e+05  -9.563188e+05
   5.596283e+05  -8.898274e+04
   4.633168e+05   3.582366e+05
   1.555774e+05   1.244309e+05
   4.948135e+04  -9.042076e+04
   3.002250e+05   3.028328e+05
   5.360483e+05   9.565752e+05
   2.014038e+05   1.060955e+06
  -7.190220e+05   4.008280e+05
  -1.477706e+06  -4.260163e+05
  -1.279897e+06  -7.969410e+05
  -1.981623e+05  -6.938280e+05
   8.260998e+05  -4.454255e+05
   9.686696e+05  -2.023283e+05
   3.699779e+05   5.660197e+04
  -1.340958e+05   2.320388e+05
  -4.516992e+04   1.906354e+05
   2.507057e+05   7.050781e+04
   6.226606e+04   1.325810e+05
  -6.344425e+05   2.679633e+05
  -1.049055e+06   2.349358e+04
  -4.804285e+05  -6.908941e+05
   7.901151e+05  -1.217824e+06
   1.693091e+06  -8.152947e+05
   1.450787e+06   3.847568e+05
   3.255650e+05   1.394030e+06
  -7.329242e+05   1.401234e+06
  -1.036330e+06   5.833793e+05
  -6.615565e+05  -1.989401e+05
  -1.539497e+05  -3.568288e+05
   5.255781e+04  -8.702341e+04
  -8.361658e+04   1.964037e+03
  -2.985322e+05  -3.622113e+05
  -2.617535e+05  -7.973418e+05
   1.548075e+05  -6.900385e+05
   6.836053e+05   8.227965e+04
   7.863602e+05   9.144894e+05
   1.744378e+05   1.035612e+06
  -7.351262e+05   2.987451e+05
  -1.070241e+06  -6.658278e+05
  -3.993107e+05  -1.081814e+06
   6.902404e+05  -7.190458e+05
   1.133285e+06   3.355165e+04
   5.609318e+05   6.140160e+05
  -2.712299e+05   7.084808e+05
  -3.880422e+05   3.804859e+05
   2.272114e+05  -1.277695e+04
   6.423746e+05  -6.570861e+04
   1.633343e+05   3.089368e+05
  -8.016591e+05   7.017976e+05
  -1.255571e+06   5.590554e+05
  -7.856215e+05  -1.752684e+05
   6.759389e+04  -8.810349e+05
   5.453511e+05  -8.782089e+05
   4.463867e+05  -1.873816e+05
   8.424628e+04   4.699850e+05
  -2.225400e+05   4.566608e+05
  -3.600065e+05  -1.137806e+05
  -2.771673e+05  -5.679542e+05
   3.644684e+04  -4.492531e+05
   3.951372e+05   2.192412e+04
   4.890618e+05   2.805078e+05
   2.428889e+05   1.014120e+05
  -4.670111e+04  -1.679009e+05
  -7.703473e+04  -7.528386e+04
   5.717993e+04   3.452701e+05
   7.056335e+03   5.842692e+05
  -3.056344e+05   2.722247e+05
  -5.058579e+05  -3.427252e+05
  -2.194945e+05  -6.463008e+05
   3.876547e+05  -3.423210e+05
   6.919737e+05   2.435073e+05
   2.878060e+05   5.572454e+05
  -5.013866e+05   3.855573e+05
  -9.003104e+05  -3.602204e+04
  -4.993756e+05  -3.608682e+05
   2.825079e+05  -4.278023e+05
   6.408254e+05  -2.709851e+05
   2.683453e+05  -2.750965e+04
  -3.219995e+05   1.046672e+05
  -4.049466e+05  -2.087220e+04
   1.334159e+05  -2.859642e+05
   6.988284e+05  -3.065686e+05
