
 $NMID
 id='ANONYMOUS ', fmtdat='(2E16.6)'
 volume=1.0
 tramp=1.0
 $END
  -2.452860e+07  -2.522647e+04
  -1.667381e+07  -1.086257e+07
  -5.560486e+05  -1.533567e+07
   1.032843e+07  -1.105732e+07
   9.234964e+06  -1.815974e+06
   9.468903e+05   4.489510e+06
  -5.114622e+06   2.776305e+06
  -4.279787e+06  -3.868224e+06
   8.251987e+05  -7.325686e+06
   4.687069e+06  -3.480349e+06
   4.208432e+06   3.287241e+06
   5.568156e+05   5.475511e+06
  -2.532746e+06   1.066658e+06
  -2.101728e+06  -4.681291e+06
   1.375976e+06  -5.512656e+06
   4.282740e+06  -7.036838e+05
   3.328734e+06   4.926627e+06
  -9.890818e+05   6.364460e+06
  -4.782687e+06   3.011231e+06
  -4.831991e+06  -1.541847e+06
  -1.865073e+06  -3.522425e+06
   5.152124e+05  -2.516939e+06
  -9.869988e+04  -1.211606e+06
  -2.341825e+06  -1.952521e+06
  -2.640308e+06  -4.039501e+06
   7.754213e+05  -4.721017e+06
   5.555730e+06  -2.505553e+06
   7.223905e+06   1.152640e+06
   3.809539e+06   3.439499e+06
  -1.689446e+06   2.849520e+06
  -4.100537e+06   2.151557e+05
  -1.483456e+06  -2.198562e+06
   2.898826e+06  -2.325366e+06
   4.390358e+06   1.765495e+05
   2.005737e+06   3.291524e+06
  -1.134818e+06   4.057409e+06
  -1.919122e+06   1.574075e+06
  -4.860464e+05  -1.560574e+06
   8.282428e+05  -1.838521e+06
   5.299347e+05   9.897451e+05
  -8.765934e+05   3.388982e+06
  -2.012378e+06   2.255651e+06
  -1.880330e+06  -1.234067e+06
  -3.426644e+05  -3.027578e+06
   1.607776e+06  -1.067216e+06
   2.085522e+06   2.400895e+06
  -7.218064e+04   3.579894e+06
  -3.480628e+06   1.264525e+06
  -4.867736e+06  -2.281000e+06
  -2.393054e+06  -3.971766e+06
   2.017960e+06  -2.743667e+06
   4.410226e+06  -2.627750e+04
   2.872358e+06   1.877380e+06
  -6.444201e+05   1.729553e+06
  -2.621421e+06   1.621233e+05
  -1.593831e+06  -1.092749e+06
   7.326808e+05  -8.520196e+05
   1.635369e+06   4.602122e+05
   2.799011e+05   1.354844e+06
  -1.546043e+06   8.421176e+05
  -1.492844e+06  -5.865785e+05
   6.538555e+05  -1.454172e+06
   2.552304e+06  -6.740240e+05
   1.789773e+06   1.428324e+06
  -1.383770e+06   3.225879e+06
  -4.224673e+06   3.010336e+06
  -4.415489e+06   5.069298e+05
  -2.332558e+06  -2.657451e+06
  -1.830681e+05  -4.287249e+06
   6.008492e+05  -3.673294e+06
   5.342783e+05  -2.138644e+06
   8.739800e+05  -1.322538e+06
   1.952836e+06  -1.227171e+06
   2.929902e+06  -5.008530e+05
   2.768544e+06   1.397767e+06
   1.195481e+06   3.041101e+06
  -1.011748e+06   2.540765e+06
  -2.412953e+06  -7.990825e+04
  -1.875450e+06  -2.612576e+06
   3.596472e+05  -2.867806e+06
   2.586175e+06  -8.076000e+05
   3.027094e+06   1.660636e+06
   1.525780e+06   2.714803e+06
  -3.556843e+05   2.171463e+06
  -1.089925e+06   1.189773e+06
  -8.359225e+05   8.278270e+05
  -1.042307e+06   1.038678e+06
  -2.440848e+06   9.105790e+05
  -3.831787e+06  -2.907828e+05
  -3.235999e+06  -2.280456e+06
  -2.476188e+05  -3.815049e+06
   3.109136e+06  -3.636050e+06
   4.185098e+06  -1.595860e+06
   2.349641e+06   9.947409e+05
  -4.005507e+05   2.293167e+06
  -1.533600e+06   1.519500e+06
  -4.612686e+05  -2.566815e+05
   1.207130e+06  -1.122078e+06
   1.626347e+06  -2.992241e+05
   5.600434e+05   1.017776e+06
  -6.917529e+05   1.071338e+06
  -7.951884e+05  -2.895356e+05
   3.788280e+05  -1.273597e+06
   1.730553e+06  -2.203301e+05
   1.859328e+06   2.284451e+06
   2.068813e+05   3.815153e+06
  -2.324559e+06   2.662426e+06
  -3.880090e+06  -3.525348e+05
  -3.172588e+06  -2.771452e+06
  -7.581840e+05  -2.962611e+06
   1.359205e+06  -1.469758e+06
   1.636078e+06  -8.589664e+04
   4.733991e+05   4.276397e+04
  -3.648586e+05  -6.979158e+05
   2.282912e+05  -1.116838e+06
   1.503262e+06  -5.485681e+05
   1.797843e+06   5.435153e+05
   5.285755e+05   1.124046e+06
  -1.029309e+06   6.486870e+05
  -1.086779e+06  -3.869351e+05
   6.292996e+05  -8.941049e+05
   2.412540e+06  -2.060789e+05
   2.284410e+06   1.258240e+06
   9.619049e+04   2.290176e+06
  -2.250133e+06   1.934340e+06
  -2.720453e+06   3.953297e+05
  -1.147792e+06  -1.054852e+06
   7.557318e+05  -1.215864e+06
   1.218586e+06  -1.401738e+05
   5.885417e+04   8.836749e+05
  -1.382644e+06   6.671084e+05
  -1.675056e+06  -5.936469e+05
  -5.892807e+05  -1.543708e+06
   8.245700e+05  -1.197751e+06
   1.280364e+06  -2.415745e+04
   4.719868e+05   6.416480e+05
  -6.117068e+05   1.112341e+05
  -6.505907e+05  -9.542471e+05
   6.002805e+05  -1.319442e+06
   1.936050e+06  -4.477926e+05
   1.907290e+06   1.029135e+06
   3.853890e+05   1.936875e+06
  -1.262587e+06   1.582862e+06
  -1.608343e+06   3.205656e+05
  -5.951356e+05  -7.701384e+05
   5.628853e+05  -8.453896e+05
   7.489921e+05  -6.945821e+04
   1.415020e+04   6.009279e+05
  -6.712736e+05   4.726254e+05
  -5.335346e+05  -1.278848e+05
   2.153721e+05  -2.898913e+05
   6.297315e+05   3.453221e+05
   2.698227e+04   1.089848e+06
  -1.235678e+06   9.360930e+05
  -2.001053e+06  -3.294043e+05
  -1.415955e+06  -1.831993e+06
   1.853876e+05  -2.391784e+06
   1.575281e+06  -1.574659e+06
   1.827189e+06  -4.890936e+04
   1.132926e+06   1.033322e+06
   4.091616e+05   1.065637e+06
   2.355414e+05   4.795913e+05
   3.325401e+05   1.939837e+05
   5.662334e+04   5.551133e+05
  -7.437751e+05   9.318010e+05
  -1.448947e+06   4.843634e+05
  -1.230911e+06  -7.336174e+05
   8.601868e+04  -1.647672e+06
   1.676845e+06  -1.230138e+06
   2.278048e+06   3.901340e+05
   1.262342e+06   1.970969e+06
  -7.328459e+05   2.284973e+06
  -2.284740e+06   1.184385e+06
  -2.391550e+06  -3.746641e+05
  -1.267042e+06  -1.271525e+06
   1.035172e+04  -1.193960e+06
   5.645775e+05  -7.550926e+05
   4.239156e+05  -7.002169e+05
   2.630670e+05  -1.047042e+06
   5.754152e+05  -1.088004e+06
   1.136403e+06  -2.663486e+05
   1.252521e+06   1.057513e+06
   5.272997e+05   1.845987e+06
  -6.228161e+05   1.399605e+06
  -1.269923e+06   5.650010e+04
  -8.632908e+05  -1.129779e+06
   1.921787e+05  -1.338683e+06
   9.223602e+05  -6.087914e+05
   7.677090e+05   3.531494e+05
   1.084918e+05   8.667875e+05
  -2.369887e+05   8.004518e+05
   3.392646e+04   5.151125e+05
   3.715833e+05   3.826787e+05
   2.770002e+04   3.963137e+05
  -1.015058e+06   2.503105e+05
  -1.867750e+06  -2.454824e+05
  -1.574628e+06  -8.942158e+05
  -1.454976e+05  -1.261780e+06
   1.330066e+06  -1.062374e+06
   1.700264e+06  -4.104379e+05
   8.752566e+05   2.445752e+05
  -1.579583e+05   4.477969e+05
  -4.346274e+05   1.299105e+05
   3.670470e+04  -2.725514e+05
   5.011344e+05  -2.127908e+05
   4.419709e+05   3.338299e+05
   8.263489e+04   7.484495e+05
  -6.108738e+04   4.761551e+05
   1.516048e+05  -2.082149e+05
   3.976838e+05  -4.291872e+05
   3.012212e+05   2.045430e+05
  -2.133240e+05   1.016141e+06
  -8.582937e+05   1.009392e+06
  -1.126140e+06   6.735510e+04
  -6.371893e+05  -8.902243e+05
   3.977481e+05  -9.531127e+05
   1.107957e+06  -1.731836e+05
   6.899098e+05   6.077553e+05
  -6.362923e+05   6.692885e+05
  -1.622443e+06   1.086077e+04
  -1.208993e+06  -7.906682e+05
   3.019170e+05  -1.107327e+06
   1.505516e+06  -7.134187e+05
   1.357700e+06   5.451797e+04
   2.211953e+05   5.416246e+05
  -6.136093e+05   3.477142e+05
  -3.240350e+05  -2.328841e+05
   6.470103e+05  -4.323475e+05
   1.140817e+06   1.989664e+05
   5.092024e+05   1.217575e+06
  -7.520265e+05   1.604389e+06
  -1.539357e+06   7.563418e+05
  -1.225485e+06  -8.085341e+05
  -1.749496e+05  -1.804632e+06
   7.352106e+05  -1.365301e+06
   9.462798e+05   7.217484e+04
   5.351962e+05   1.165587e+06
  -8.109462e+04   1.038236e+06
  -5.161385e+05   1.424622e+05
  -5.609790e+05  -3.975138e+05
  -2.714588e+05  -1.724236e+05
  -6.348807e+03   1.290914e+05
  -1.207514e+05  -2.152122e+05
  -4.463779e+05  -9.237784e+05
  -3.218595e+05  -1.094771e+06
   5.565877e+05  -4.177009e+05
   1.484157e+06   4.653166e+05
   1.393762e+06   8.306688e+05
   1.988316e+05   6.659187e+05
  -9.541062e+05   4.006909e+05
  -1.016633e+06   2.206417e+05
  -2.668357e+05   1.266975e+04
   1.868893e+05  -2.111103e+05
  -9.030316e+04  -2.679737e+05
  -3.958718e+05  -1.691532e+05
   3.486321e+03  -1.397202e+05
   7.994430e+05  -1.748897e+05
   1.015778e+06   6.224493e+04
   2.233620e+05   6.632746e+05
  -9.698508e+05   1.070626e+06
  -1.594132e+06   6.286807e+05
  -1.220907e+06  -5.167056e+05
  -2.007797e+05  -1.412776e+06
   7.380192e+05  -1.302752e+06
   1.038106e+06  -4.272029e+05
   6.614433e+05   3.113005e+05
   7.050469e+04   3.523009e+05
  -1.826781e+05  -1.375238e+04
   3.887234e+04  -1.043491e+05
   3.525733e+05   3.275545e+05
   2.852877e+05   7.997814e+05
  -2.123544e+05   6.389127e+05
  -6.939952e+05  -2.160242e+05
  -6.370541e+05  -1.032732e+06
   4.127076e+04  -1.002979e+06
   8.200867e+05  -1.115276e+05
   9.664018e+05   8.379833e+05
   2.443548e+05   1.071571e+06
  -7.328504e+05   5.644326e+05
  -1.039462e+06  -1.272386e+05
  -4.441835e+05  -5.281012e+05
   2.846585e+05  -5.521649e+05
   2.796132e+05  -3.305350e+05
  -3.526141e+05  -5.658498e+04
  -6.691086e+05   9.601378e+03
  -1.012758e+05  -2.841923e+05
   8.244131e+05  -6.700581e+05
   1.155934e+06  -5.944634e+05
   6.389409e+05   1.003473e+05
  -1.192407e+05   8.105630e+05
  -4.622167e+05   7.893432e+05
  -3.121983e+05   7.361768e+04
   1.392595e+04  -5.173783e+05
   2.635964e+05  -3.649140e+05
   3.494411e+05   2.484829e+05
   2.239925e+05   5.767583e+05
  -8.558987e+04   3.302220e+05
  -3.795217e+05  -9.418893e+04
  -4.291977e+05  -2.167505e+05
  -2.363096e+05  -3.835448e+04
  -1.783476e+04   7.144897e+04
   8.013974e+04  -1.144439e+05
   1.312144e+05  -4.101890e+05
   2.517074e+05  -4.318409e+05
   3.787777e+05  -2.999950e+04
   3.128294e+05   4.979739e+05
  -3.229950e+04   6.550260e+05
  -4.576863e+05   2.524869e+05
  -5.823997e+05  -3.533986e+05
  -1.874968e+05  -6.088685e+05
   4.775964e+05  -3.349544e+05
   8.087716e+05   1.364253e+05
   4.344188e+05   3.840266e+05
  -2.971536e+05   3.144041e+05
  -6.068882e+05   1.211103e+05
  -1.701760e+05  -2.484028e+03
   4.489381e+05   1.950322e+04
   4.412692e+05   1.809170e+05
  -2.598386e+05   3.477067e+05
  -8.814302e+05   2.462730e+05
