
 $NMID
 id='ANONYMOUS ', fmtdat='(2E16.6)'
 volume=1.0
 tramp=1.0
 $END
  -2.679957e+07  -1.012490e+04
  -1.764980e+07  -1.324355e+07
   5.746935e+05  -1.718546e+07
   1.184929e+07  -1.062320e+07
   9.479500e+06  -4.359256e+05
   2.822422e+05   4.789195e+06
  -5.347958e+06   1.986199e+06
  -3.712490e+06  -4.368926e+06
   1.513802e+06  -6.989991e+06
   4.986226e+06  -2.977853e+06
   4.229287e+06   3.412289e+06
   5.360133e+05   5.437986e+06
  -2.513854e+06   1.202841e+06
  -1.979139e+06  -4.389453e+06
   1.604495e+06  -5.185006e+06
   4.419524e+06  -3.580629e+05
   3.195566e+06   5.240690e+06
  -1.295766e+06   6.573520e+06
  -5.108529e+06   3.151872e+06
  -5.237450e+06  -1.478297e+06
  -2.360660e+06  -3.757462e+06
   2.927363e+05  -3.139426e+06
   3.115335e+05  -1.786094e+06
  -1.558456e+06  -1.912769e+06
  -2.179873e+06  -3.451060e+06
   5.881087e+05  -4.234572e+06
   5.061463e+06  -2.528237e+06
   6.929517e+06   8.460017e+05
   3.917809e+06   3.241698e+06
  -1.279190e+06   2.895659e+06
  -3.687702e+06   5.042471e+05
  -1.475970e+06  -1.707240e+06
   2.349107e+06  -1.916154e+06
   3.721689e+06   9.403743e+04
   1.842041e+06   2.761890e+06
  -8.014663e+05   3.683368e+06
  -1.736992e+06   1.746316e+06
  -8.117828e+05  -1.218138e+06
   4.082830e+05  -1.915790e+06
   5.040293e+05   5.056749e+05
  -6.504786e+05   2.963417e+06
  -1.910909e+06   2.063323e+06
  -1.800128e+06  -1.403011e+06
   6.793058e+04  -3.206156e+06
   2.208154e+06  -9.811160e+05
   2.329762e+06   2.814513e+06
  -3.160216e+05   3.959011e+06
  -3.726062e+06   1.314356e+06
  -4.736076e+06  -2.396470e+06
  -2.104636e+06  -3.927342e+06
   2.056911e+06  -2.502310e+06
   4.156131e+06   2.038752e+05
   2.564913e+06   1.951578e+06
  -8.368196e+05   1.650254e+06
  -2.663648e+06  -3.790716e+03
  -1.509046e+06  -1.227578e+06
   8.061330e+05  -8.510814e+05
   1.510666e+06   5.045900e+05
   2.987217e+04   1.186228e+06
  -1.554555e+06   4.117659e+05
  -1.084609e+06  -9.410712e+05
   1.147249e+06  -1.403068e+06
   2.722187e+06  -3.376594e+05
   1.713069e+06   1.661769e+06
  -1.329717e+06   3.227201e+06
  -3.978734e+06   2.991531e+06
  -4.281611e+06   6.224714e+05
  -2.434125e+06  -2.501339e+06
  -2.618641e+05  -4.179357e+06
   7.335343e+05  -3.513987e+06
   6.699945e+05  -1.833788e+06
   7.141182e+05  -9.880764e+05
   1.520994e+06  -1.073505e+06
   2.495899e+06  -6.184213e+05
   2.527858e+06   1.064755e+06
   1.192701e+06   2.631706e+06
  -7.940568e+05   2.263114e+06
  -2.088453e+06  -4.608463e+04
  -1.677282e+06  -2.325131e+06
   2.899092e+05  -2.631317e+06
   2.391670e+06  -8.464346e+05
   2.961002e+06   1.461669e+06
   1.623055e+06   2.628278e+06
  -2.826895e+05   2.268030e+06
  -1.160310e+06   1.299478e+06
  -9.601276e+05   8.021528e+05
  -1.068950e+06   9.001986e+05
  -2.309072e+06   7.654863e+05
  -3.579907e+06  -3.456723e+05
  -2.989467e+06  -2.167904e+06
  -1.954729e+05  -3.537727e+06
   2.874793e+06  -3.353125e+06
   3.835369e+06  -1.516684e+06
   2.187893e+06   8.395474e+05
  -2.824286e+05   2.087545e+06
  -1.348619e+06   1.441442e+06
  -4.346411e+05  -2.053971e+05
   1.092615e+06  -1.048070e+06
   1.528994e+06  -2.824213e+05
   5.598403e+05   9.588379e+05
  -6.129554e+05   9.836670e+05
  -6.758565e+05  -2.833969e+05
   4.500098e+05  -1.086454e+06
   1.608187e+06   1.548474e+04
   1.527835e+06   2.271715e+06
  -7.893854e+04   3.444495e+06
  -2.259361e+06   2.214717e+06
  -3.475938e+06  -4.940719e+05
  -2.768118e+06  -2.553395e+06
  -6.376658e+05  -2.668307e+06
   1.234767e+06  -1.339222e+06
   1.490381e+06  -9.159190e+04
   4.363231e+05   4.150125e+04
  -3.303645e+05  -6.484314e+05
   2.392554e+05  -1.054138e+06
   1.436155e+06  -5.016269e+05
   1.678917e+06   5.532053e+05
   4.601915e+05   1.073446e+06
  -9.658096e+05   5.790013e+05
  -9.655881e+05  -3.695162e+05
   6.131857e+05  -7.634980e+05
   2.179806e+06  -1.021039e+05
   2.010507e+06   1.178801e+06
   2.769064e+04   2.054145e+06
  -2.079159e+06   1.722357e+06
  -2.501996e+06   3.331268e+05
  -1.057659e+06  -1.000978e+06
   7.196888e+05  -1.151893e+06
   1.165320e+06  -1.315848e+05
   7.110448e+04   8.371347e+05
  -1.288357e+06   6.154816e+05
  -1.538781e+06  -5.778922e+05
  -4.974982e+05  -1.433184e+06
   7.995491e+05  -1.062926e+06
   1.170756e+06   3.162018e+04
   3.975796e+05   6.104020e+05
  -5.873558e+05   9.134058e+04
  -6.041288e+05  -8.912066e+05
   5.522544e+05  -1.221030e+06
   1.785911e+06  -4.154117e+05
   1.761524e+06   9.539868e+05
   3.448571e+05   1.796198e+06
  -1.189090e+06   1.454051e+06
  -1.492426e+06   2.713572e+05
  -5.289867e+05  -7.224932e+05
   5.331473e+05  -7.662203e+05
   6.696013e+05  -6.112679e+04
  -9.797368e+03   5.160864e+05
  -5.920411e+05   3.910435e+05
  -4.285799e+05  -1.120288e+05
   2.336357e+05  -2.123650e+05
   5.603583e+05   3.669842e+05
  -1.377464e+04   1.013602e+06
  -1.157880e+06   8.466777e+05
  -1.843953e+06  -3.228387e+05
  -1.296696e+06  -1.700881e+06
   1.847594e+05  -2.195039e+06
   1.456468e+06  -1.412621e+06
   1.655104e+06  -1.112458e+04
   9.935026e+05   9.328593e+05
   3.558445e+05   9.188358e+05
   2.478419e+05   4.022889e+05
   3.466878e+05   1.957188e+05
   5.489613e+04   5.392171e+05
  -7.051550e+05   8.464908e+05
  -1.330434e+06   4.140342e+05
  -1.098335e+06  -6.769247e+05
   1.106968e+05  -1.482725e+06
   1.549091e+06  -1.096825e+06
   2.081434e+06   3.813228e+05
   1.129488e+06   1.830518e+06
  -7.214837e+05   2.102695e+06
  -2.136302e+06   1.053595e+06
  -2.184428e+06  -3.951469e+05
  -1.110403e+06  -1.181159e+06
   4.382312e+04  -1.058453e+06
   4.959305e+05  -6.533658e+05
   3.412245e+05  -6.463848e+05
   2.216313e+05  -9.953957e+05
   5.450733e+05  -1.023719e+06
   1.064984e+06  -2.471726e+05
   1.155442e+06   9.773524e+05
   4.795987e+05   1.700519e+06
  -5.763595e+05   1.285081e+06
  -1.166119e+06   3.776634e+04
  -7.789965e+05  -1.061318e+06
   2.105707e+05  -1.234543e+06
   8.831866e+05  -5.248398e+05
   7.090629e+05   3.768620e+05
   6.247305e+04   8.256167e+05
  -2.642513e+05   7.304300e+05
   1.130973e+04   4.579675e+05
   3.477742e+05   3.452786e+05
   2.834296e+04   3.613556e+05
  -9.508010e+05   2.194328e+05
  -1.739025e+06  -2.452059e+05
  -1.445415e+06  -8.467935e+05
  -1.014886e+05  -1.182378e+06
   1.260839e+06  -9.797231e+05
   1.579050e+06  -3.497178e+05
   7.953981e+05   2.644176e+05
  -1.614240e+05   4.276377e+05
  -4.103408e+05   1.032713e+05
   2.446263e+04  -2.713061e+05
   4.514017e+05  -1.995919e+05
   4.095381e+05   3.087650e+05
   9.785728e+04   6.819342e+05
  -3.466159e+04   4.360434e+05
   1.380414e+05  -1.733532e+05
   3.490887e+05  -3.709256e+05
   2.713357e+05   1.930540e+05
  -1.892236e+05   9.256242e+05
  -7.965833e+05   9.297080e+05
  -1.066805e+06   7.363936e+04
  -6.121780e+05  -8.212881e+05
   3.703853e+05  -8.994145e+05
   1.037736e+06  -1.791429e+05
   6.361770e+05   5.542859e+05
  -5.956358e+05   6.076965e+05
  -1.481763e+06  -1.284073e+04
  -1.074147e+06  -7.409202e+05
   3.089287e+05  -9.960644e+05
   1.381972e+06  -6.120382e+05
   1.225283e+06   7.652059e+04
   1.872041e+05   4.932428e+05
  -5.692357e+05   3.042414e+05
  -3.051944e+05  -2.237834e+05
   5.848133e+05  -4.071065e+05
   1.050618e+06   1.684883e+05
   4.867445e+05   1.111464e+06
  -6.697325e+05   1.481982e+06
  -1.404370e+06   7.072366e+05
  -1.124592e+06  -7.373905e+05
  -1.578876e+05  -1.652262e+06
   6.798975e+05  -1.237340e+06
   8.638868e+05   8.608095e+04
   4.697685e+05   1.074548e+06
  -1.002289e+05   9.405758e+05
  -4.808700e+05   1.194639e+05
  -4.975130e+05  -3.635467e+05
  -2.309547e+05  -1.538111e+05
  -1.304190e+04   1.130714e+05
  -1.351449e+05  -2.098520e+05
  -4.156840e+05  -8.546815e+05
  -2.700525e+05  -1.002149e+06
   5.366744e+05  -3.774931e+05
   1.356811e+06   4.318645e+05
   1.256025e+06   7.676616e+05
   1.776085e+05   6.162275e+05
  -8.595745e+05   3.664277e+05
  -9.273158e+05   1.922145e+05
  -2.598686e+05   3.264884e+02
   1.652699e+05  -1.950257e+05
  -6.127004e+04  -2.361262e+05
  -3.406918e+05  -1.447108e+05
  -5.043387e+03  -1.268001e+05
   7.105928e+05  -1.670641e+05
   9.355078e+05   5.206765e+04
   2.368034e+05   6.126440e+05
  -8.709246e+05   9.950736e+05
  -1.479830e+06   5.922080e+05
  -1.148206e+06  -4.628141e+05
  -1.916637e+05  -1.293993e+06
   6.851342e+05  -1.203561e+06
   9.542502e+05  -4.065233e+05
   6.038664e+05   2.743436e+05
   7.396784e+04   3.238736e+05
  -1.484564e+05  -2.388025e+02
   4.327983e+04  -8.106360e+04
   3.134655e+05   3.081770e+05
   2.524978e+05   7.353347e+05
  -1.909191e+05   5.914094e+05
  -6.327842e+05  -1.841570e+05
  -5.975205e+05  -9.341987e+05
   1.417890e+04  -9.232007e+05
   7.399582e+05  -1.226538e+05
   8.943160e+05   7.505148e+05
   2.385333e+05   9.853204e+05
  -6.694353e+05   5.342373e+05
  -9.653870e+05  -1.104205e+05
  -4.205962e+05  -4.992630e+05
   2.624450e+05  -5.265538e+05
   2.740306e+05  -3.087224e+05
  -3.048657e+05  -4.513385e+04
  -6.097255e+05   1.183541e+04
  -9.980379e+04  -2.646349e+05
   7.575675e+05  -6.130571e+05
   1.078835e+06  -5.323639e+05
   6.065603e+05   1.065868e+05
  -1.074862e+05   7.523704e+05
  -4.410300e+05   7.337163e+05
  -3.054573e+05   8.211525e+04
   2.735210e+03  -4.672354e+05
   2.381269e+05  -3.456796e+05
   3.195964e+05   2.111954e+05
   2.088263e+05   5.291114e+05
  -7.331404e+04   3.189796e+05
  -3.492901e+05  -7.874744e+04
  -4.009256e+05  -2.106687e+05
  -2.177152e+05  -4.582104e+04
  -7.233086e+03   7.882258e+04
   7.478929e+04  -7.736440e+04
   9.678180e+04  -3.651311e+05
   1.963891e+05  -4.147424e+05
   3.360557e+05  -5.894504e+04
   3.100981e+05   4.359564e+05
   1.479054e+03   5.981191e+05
  -4.112144e+05   2.407484e+05
  -5.467173e+05  -3.121692e+05
  -1.816163e+05  -5.519845e+05
   4.436186e+05  -3.110966e+05
   7.533727e+05   1.162230e+05
   4.048187e+05   3.517402e+05
  -2.721687e+05   3.023044e+05
  -5.616066e+05   1.282361e+05
  -1.699142e+05   1.261328e+03
   3.929236e+05   4.040785e+03
   3.974800e+05   1.464684e+05
  -2.230988e+05   3.076350e+05
  -7.839071e+05   2.272623e+05
