
 $NMID
 id='ANONYMOUS ', fmtdat='(2E16.6)'
 volume=1.0
 tramp=1.0
 $END
   5.420488e+07   2.529536e+05
   3.255979e+07   3.340957e+07
  -7.074770e+06   3.654506e+07
  -2.647643e+07   1.429345e+07
  -1.594997e+07  -6.468437e+06
   3.056014e+06  -8.983289e+06
   9.497781e+06   9.826644e+05
   2.845497e+06   9.372755e+06
  -5.860317e+06   9.180813e+06
  -9.317158e+06   2.065701e+06
  -6.787665e+06  -6.033025e+06
  -7.712787e+05  -8.401095e+06
   3.908785e+06  -2.618976e+06
   2.587261e+06   5.404184e+06
  -3.621418e+06   6.470093e+06
  -7.624442e+06  -1.226639e+06
  -4.331662e+06  -9.867042e+06
   3.636978e+06  -1.141919e+07
   9.772229e+06  -5.675038e+06
   1.040534e+07   2.061157e+06
   6.275466e+06   7.253542e+06
   5.725839e+05   8.244055e+06
  -2.737347e+06   5.711887e+06
  -1.573723e+06   2.627820e+06
   1.220988e+06   2.286445e+06
   1.818702e+05   4.226002e+06
  -5.436588e+06   4.267607e+06
  -9.518457e+06   3.617799e+05
  -6.825942e+06  -4.110813e+06
  -1.017496e+05  -4.927657e+06
   3.767391e+06  -2.411480e+06
   2.421806e+06   1.476665e+05
  -7.637774e+05   1.050560e+06
  -2.439190e+06   4.540054e+05
  -2.196608e+06  -1.569884e+06
  -5.645328e+05  -3.959729e+06
   1.828384e+06  -3.701527e+06
   3.052601e+06   2.225937e+05
   1.523818e+06   3.530552e+06
  -7.754875e+05   1.720446e+06
  -2.593889e+05  -2.537500e+06
   2.438057e+06  -2.303445e+06
   2.401621e+06   3.068872e+06
  -2.257503e+06   5.913276e+06
  -6.586094e+06   9.889952e+05
  -4.886002e+06  -6.641575e+06
   1.818773e+06  -8.185950e+06
   7.173506e+06  -2.313916e+06
   6.807542e+06   4.328486e+06
   1.872979e+06   5.906235e+06
  -3.389337e+06   2.712365e+06
  -5.210324e+06  -1.434042e+06
  -2.454282e+06  -3.388791e+06
   2.303373e+06  -2.160416e+06
   4.400237e+06   8.642465e+05
   1.920080e+06   2.618085e+06
  -1.657446e+06   1.330805e+06
  -1.735953e+06  -9.945014e+05
   1.210237e+06  -9.476402e+05
   2.407776e+06   1.576683e+06
  -4.771471e+05   3.235853e+06
  -4.356680e+06   1.855824e+06
  -5.110864e+06  -1.229709e+06
  -2.272239e+06  -3.810627e+06
   1.797128e+06  -5.132251e+06
   4.988660e+06  -4.717609e+06
   6.098440e+06  -1.645663e+06
   4.429760e+06   3.151534e+06
   8.745975e+05   6.067098e+06
  -1.790834e+06   4.705549e+06
  -1.681444e+06   1.288967e+06
  -2.131110e+05  -1.340326e+05
  -1.199329e+05   1.011136e+06
  -1.720538e+06   1.707887e+06
  -2.836748e+06   1.155991e+05
  -1.983449e+06  -2.034548e+06
   5.286653e+04  -2.197134e+06
   1.632986e+06  -1.874161e+05
   1.706721e+06   2.136229e+06
  -2.846571e+04   2.956167e+06
  -2.780248e+06   1.599858e+06
  -4.396548e+06  -1.245942e+06
  -3.108946e+06  -3.718792e+06
   7.410756e+04  -4.105584e+06
   2.213721e+06  -2.616286e+06
   2.148827e+06  -1.115018e+06
   1.790640e+06  -7.087450e+05
   2.932317e+06  -5.067876e+05
   4.348699e+06   7.469946e+05
   3.492612e+06   2.768547e+06
   1.269868e+05   4.147272e+06
  -3.245143e+06   3.912935e+06
  -4.226233e+06   2.094629e+06
  -2.664109e+06  -4.740146e+05
  -2.255212e+05  -2.266533e+06
   1.149467e+06  -1.925057e+06
   5.635928e+05   5.357078e+04
  -1.113635e+06   1.309282e+06
  -1.912025e+06   3.900505e+05
  -9.038453e+05  -1.210503e+06
   5.395496e+05  -1.123631e+06
   4.569893e+05   3.885897e+05
  -1.034133e+06   7.394147e+05
  -1.862243e+06  -1.207705e+06
  -7.191891e+05  -3.444765e+06
   1.501351e+06  -3.466095e+06
   3.122110e+06  -1.213763e+06
   3.374586e+06   1.400706e+06
   2.347534e+06   2.799398e+06
   4.685481e+05   2.664185e+06
  -1.268823e+06   1.477854e+06
  -1.602420e+06   2.162544e+05
  -4.978781e+05  -4.830054e+04
   3.602240e+05   7.607449e+05
  -4.146668e+05   1.344407e+06
  -1.913032e+06   5.759270e+05
  -2.043857e+06  -8.900383e+05
  -3.913423e+05  -1.421850e+06
   1.183536e+06  -5.777338e+05
   9.098961e+05   4.624963e+05
  -8.513311e+05   5.428733e+05
  -2.220302e+06  -3.072527e+05
  -1.789187e+06  -1.377695e+06
   2.434751e+05  -2.012322e+06
   2.344338e+06  -1.679864e+06
   2.810266e+06  -2.702535e+05
   1.224402e+06   1.278428e+06
  -9.312561e+05   1.504451e+06
  -1.566090e+06   1.822802e+05
  -1.917487e+05  -1.087635e+06
   1.535753e+06  -7.370189e+05
   1.737089e+06   7.928362e+05
   3.450579e+05   1.672731e+06
  -1.100662e+06   9.945448e+05
  -1.274406e+06  -3.086313e+05
  -2.545056e+05  -7.881613e+05
   8.009236e+05  -5.390168e+04
   7.392974e+05   1.068507e+06
  -5.917216e+05   1.438855e+06
  -2.037147e+06   5.383799e+05
  -2.056134e+06  -1.073748e+06
  -3.800518e+05  -2.101694e+06
   1.462082e+06  -1.657701e+06
   1.747961e+06  -2.088577e+05
   5.085457e+05   8.802929e+05
  -6.689015e+05   8.134359e+05
  -6.478801e+05   7.433881e+04
   1.164833e+05  -3.747238e+05
   5.063157e+05  -2.200961e+05
   1.404944e+05   6.866688e+04
  -4.442195e+05  -6.611609e+04
  -5.254642e+05  -6.711359e+05
   2.066205e+05  -1.198811e+06
   1.400941e+06  -9.029318e+05
   2.106852e+06   4.266879e+05
   1.475686e+06   1.974304e+06
  -2.293360e+05   2.453874e+06
  -1.642816e+06   1.431277e+06
  -1.717731e+06  -1.289904e+05
  -8.760269e+05  -9.175791e+05
  -3.231131e+05  -6.778613e+05
  -4.744112e+05  -2.349190e+05
  -6.231556e+05  -3.166715e+05
  -8.704305e+04  -7.677076e+05
   8.878738e+05  -9.103122e+05
   1.469700e+06  -3.282402e+05
   1.067373e+06   7.372015e+05
  -2.541832e+05   1.485196e+06
  -1.749118e+06   1.085123e+06
  -2.278401e+06  -4.971384e+05
  -1.144341e+06  -2.130327e+06
   1.025581e+06  -2.391375e+06
   2.574170e+06  -1.038986e+06
   2.381850e+06   6.697717e+05
   9.736152e+05   1.359066e+06
  -2.060871e+05   9.660469e+05
  -4.023432e+05   5.244689e+05
  -9.442973e+04   7.626691e+05
  -1.162989e+05   1.316660e+06
  -6.825366e+05   1.297046e+06
  -1.308227e+06   3.158888e+05
  -1.349731e+06  -1.100261e+06
  -5.564410e+05  -1.922107e+06
   6.362787e+05  -1.454086e+06
   1.303175e+06   5.659109e+03
   8.196420e+05   1.300008e+06
  -3.958270e+05   1.411822e+06
  -1.172722e+06   4.119858e+05
  -8.173058e+05  -7.000277e+05
   1.228397e+05  -1.083137e+06
   5.381668e+05  -7.906160e+05
   8.417414e+04  -4.240855e+05
  -4.366824e+05  -3.434247e+05
  -5.863983e+04  -3.893203e+05
   1.161704e+06  -2.094135e+05
   2.085218e+06   3.427411e+05
   1.634540e+06   1.053559e+06
  -3.938653e+04   1.449869e+06
  -1.609236e+06   1.148111e+06
  -1.854597e+06   2.776971e+05
  -8.438334e+05  -4.979021e+05
   2.645333e+05  -5.727882e+05
   5.167992e+05  -3.443248e+04
   2.790546e+04   4.239231e+05
  -4.510662e+05   2.601313e+05
  -4.867062e+05  -3.478984e+05
  -2.525354e+05  -7.345723e+05
  -9.376788e+04  -4.865150e+05
  -1.393685e+05   9.743551e+04
  -2.853296e+05   2.980388e+05
  -2.788451e+05  -2.358474e+05
   1.465714e+05  -1.000314e+06
   9.139093e+05  -1.077974e+06
   1.379122e+06  -1.729872e+05
   8.601181e+05   9.293013e+05
  -4.235085e+05   1.152875e+06
  -1.275323e+06   3.384293e+05
  -7.428812e+05  -5.824863e+05
   7.131883e+05  -6.554341e+05
   1.609605e+06   1.014580e+05
   1.016940e+06   8.774260e+05
  -4.934649e+05   1.000543e+06
  -1.520005e+06   4.802462e+05
  -1.248532e+06  -1.973765e+05
  -1.341627e+05  -5.212382e+05
   6.593892e+05  -2.704456e+05
   3.895692e+05   2.999334e+05
  -5.932903e+05   5.308657e+05
  -1.201324e+06  -8.048779e+04
  -6.845590e+05  -1.198053e+06
   5.943080e+05  -1.730746e+06
   1.504259e+06  -9.030262e+05
   1.275851e+06   7.668632e+05
   2.065997e+05   1.817903e+06
  -7.518047e+05   1.310833e+06
  -9.377129e+05  -1.835220e+05
  -4.325326e+05  -1.210509e+06
   2.293039e+05  -9.796849e+05
   5.722819e+05  -8.207654e+04
   4.683876e+05   3.820760e+05
   1.607419e+05   1.374030e+05
   5.138017e+04  -9.482783e+04
   2.916656e+05   3.046113e+05
   5.201580e+05   9.832617e+05
   1.863163e+05   1.093027e+06
  -7.339533e+05   3.985542e+05
  -1.496286e+06  -4.718119e+05
  -1.292254e+06  -8.489764e+05
  -1.867991e+05  -7.108656e+05
   8.590694e+05  -4.278871e+05
   9.962985e+05  -1.829592e+05
   3.725022e+05   5.884343e+04
  -1.445151e+05   2.304895e+05
  -4.531817e+04   2.026723e+05
   2.590276e+05   8.871573e+04
   5.619662e+04   1.348609e+05
  -6.598765e+05   2.471674e+05
  -1.065663e+06  -4.635568e+03
  -4.597579e+05  -7.054934e+05
   8.399276e+05  -1.208777e+06
   1.733948e+06  -7.843552e+05
   1.452869e+06   4.263112e+05
   2.913489e+05   1.426419e+06
  -7.775670e+05   1.406148e+06
  -1.065573e+06   5.614268e+05
  -6.661588e+05  -2.251377e+05
  -1.438322e+05  -3.644447e+05
   5.974938e+04  -7.709637e+04
  -8.631878e+04   7.540237e+03
  -3.002880e+05  -3.763947e+05
  -2.494145e+05  -8.203940e+05
   1.757319e+05  -6.951298e+05
   6.912151e+05   1.082120e+05
   7.677087e+05   9.529493e+05
   1.421602e+05   1.051006e+06
  -7.552737e+05   2.735931e+05
  -1.063987e+06  -7.107367e+05
  -3.731968e+05  -1.106921e+06
   7.181314e+05  -7.067387e+05
   1.146503e+06   6.314421e+04
   5.538494e+05   6.305227e+05
  -2.887773e+05   7.066944e+05
  -3.967451e+05   3.797372e+05
   2.370046e+05   6.567035e+02
   6.564447e+05  -4.768374e+04
   1.565945e+05   3.154097e+05
  -8.344556e+05   6.943456e+05
  -1.289311e+06   5.462095e+05
  -7.913181e+05  -1.878109e+05
   9.022029e+04  -8.911956e+05
   5.690360e+05  -8.806974e+05
   4.480219e+05  -1.786765e+05
   6.752879e+04   4.807525e+05
  -2.369765e+05   4.538323e+05
  -3.592745e+05  -1.320033e+05
  -2.659515e+05  -5.845381e+05
   4.648123e+04  -4.487778e+05
   3.991091e+05   3.531548e+04
   4.909844e+05   2.918418e+05
   2.471911e+05   1.052622e+05
  -4.326405e+04  -1.645100e+05
  -8.357221e+04  -6.768513e+04
   3.699513e+04   3.507549e+05
  -1.628992e+04   5.782983e+05
  -3.140007e+05   2.538857e+05
  -4.913282e+05  -3.638112e+05
  -1.937462e+05  -6.561945e+05
   4.044496e+05  -3.324059e+05
   6.899346e+05   2.672842e+05
   2.728120e+05   5.747286e+05
  -5.173963e+05   3.793545e+05
  -9.086935e+05  -6.061849e+04
  -4.962956e+05  -3.789436e+05
   2.951357e+05  -4.226119e+05
   6.528409e+05  -2.538149e+05
   2.676375e+05  -2.344791e+04
  -3.339287e+05   8.755310e+04
  -4.090951e+05  -4.135032e+04
   1.522891e+05  -2.877198e+05
   7.285344e+05  -2.864156e+05
