
 $NMID
 id='ANONYMOUS ', fmtdat='(2E16.6)'
 volume=1.0
 tramp=1.0
 $END
   3.362934e+07   3.665761e+06
   1.868149e+07   2.022892e+07
  -4.761824e+06   2.113325e+07
  -1.593667e+07   9.596301e+06
  -1.012998e+07  -2.121809e+06
   1.103056e+06  -5.370823e+06
   5.956812e+06  -7.039765e+05
   2.830276e+06   5.471586e+06
  -2.852649e+06   6.941765e+06
  -5.918563e+06   2.183683e+06
  -4.530836e+06  -4.389776e+06
  -2.257817e+05  -6.205904e+06
   3.050077e+06  -1.382854e+06
   2.025175e+06   4.710320e+06
  -2.246033e+06   5.236436e+06
  -4.997159e+06  -4.499084e+05
  -2.877526e+06  -6.529680e+06
   2.502314e+06  -7.469159e+06
   6.599826e+06  -3.175585e+06
   6.461455e+06   2.299498e+06
   2.885887e+06   5.157823e+06
  -7.604495e+05   4.541647e+06
  -1.452813e+06   2.434583e+06
   6.872313e+05   1.640352e+06
   2.129285e+06   3.003435e+06
  -3.571536e+05   4.341704e+06
  -5.373351e+06   2.953765e+06
  -7.750379e+06  -8.450883e+05
  -4.550918e+06  -3.830939e+06
   1.191599e+06  -3.607471e+06
   3.967722e+06  -1.002234e+06
   1.944442e+06   1.434384e+06
  -1.812603e+06   1.938220e+06
  -3.473790e+06   2.537820e+05
  -2.118443e+06  -2.493768e+06
   4.657368e+05  -3.946093e+06
   2.016164e+06  -2.237073e+06
   1.522246e+06   1.273064e+06
  -1.321965e+05   2.592749e+06
  -8.864991e+05   2.025682e+04
   3.371096e+05  -2.986516e+06
   2.057688e+06  -2.064653e+06
   1.729008e+06   1.889261e+06
  -9.685576e+05   3.579332e+06
  -3.299222e+06   3.907098e+05
  -2.460601e+06  -4.110755e+06
   1.248911e+06  -4.811458e+06
   4.717576e+06  -1.115563e+06
   5.004005e+06   3.128781e+06
   1.802121e+06   4.371390e+06
  -2.398541e+06   2.384514e+06
  -4.247984e+06  -6.250187e+05
  -2.350447e+06  -2.274137e+06
   1.262784e+06  -1.579278e+06
   2.978039e+06   4.403261e+05
   1.426819e+06   1.620951e+06
  -1.079754e+06   8.588778e+05
  -1.501821e+06  -6.463518e+05
   2.390600e+05  -9.522763e+05
   1.487156e+06   1.943796e+05
   3.790812e+05   1.290469e+06
  -2.004095e+06   1.078161e+06
  -3.098574e+06  -3.663744e+05
  -1.566578e+06  -2.263609e+06
   1.683978e+06  -3.648950e+06
   4.444007e+06  -3.315361e+06
   4.871589e+06  -6.619489e+05
   2.863766e+06   2.920119e+06
   1.874204e+05   4.733137e+06
  -1.135178e+06   3.668816e+06
  -8.318253e+05   1.559557e+06
  -4.222802e+05   7.810696e+05
  -1.149681e+06   1.265465e+06
  -2.445988e+06   1.021215e+06
  -2.777357e+06  -7.891064e+05
  -1.495828e+06  -2.580150e+06
   5.793999e+05  -2.354959e+06
   2.005711e+06  -9.341052e+04
   1.729237e+06   2.266256e+06
  -2.474421e+05   2.749853e+06
  -2.585475e+06   1.000827e+06
  -3.361528e+06  -1.581580e+06
  -1.864930e+06  -3.093383e+06
   4.670921e+05  -2.758964e+06
   1.596286e+06  -1.491983e+06
   1.294425e+06  -7.225031e+05
   1.214914e+06  -7.599355e+05
   2.421286e+06  -6.327440e+05
   3.717221e+06   5.228614e+05
   3.048107e+06   2.361803e+06
   1.230887e+05   3.676944e+06
  -3.015201e+06   3.463925e+06
  -3.998284e+06   1.638516e+06
  -2.363839e+06  -7.952554e+05
   1.621040e+05  -2.204198e+06
   1.353058e+06  -1.600686e+06
   4.896467e+05   1.818087e+05
  -1.124914e+06   1.119250e+06
  -1.636936e+06   2.684439e+05
  -6.186620e+05  -1.064832e+06
   6.057698e+05  -1.033376e+06
   6.083651e+05   2.737843e+05
  -5.391101e+05   9.211562e+05
  -1.505169e+06  -3.366914e+05
  -1.179371e+06  -2.439059e+06
   4.102143e+05  -3.249724e+06
   2.316145e+06  -1.860454e+06
   3.325407e+06   6.778878e+05
   2.647403e+06   2.531175e+06
   6.177740e+05   2.636217e+06
  -1.250276e+06   1.378591e+06
  -1.533856e+06   1.196520e+05
  -4.507503e+05  -4.812511e+04
   3.274745e+05   6.776655e+05
  -3.148029e+05   1.104014e+06
  -1.561209e+06   4.655394e+05
  -1.727167e+06  -6.744178e+05
  -4.028519e+05  -1.147061e+06
   1.015155e+06  -5.561700e+05
   9.414000e+05   3.769411e+05
  -6.352923e+05   6.799178e+05
  -2.130607e+06   1.224603e+04
  -1.935820e+06  -1.180036e+06
   1.722375e+04  -2.004181e+06
   2.123771e+06  -1.691006e+06
   2.565933e+06  -2.951133e+05
   1.068364e+06   1.084357e+06
  -8.118966e+05   1.216128e+06
  -1.271131e+06   9.799036e+04
  -7.339038e+04  -9.158299e+05
   1.361460e+06  -6.219452e+05
   1.562417e+06   6.462640e+05
   4.373857e+05   1.466995e+06
  -8.563648e+05   1.009715e+06
  -1.157764e+06  -1.059951e+05
  -3.416527e+05  -6.316675e+05
   6.348898e+05  -5.731698e+04
   6.208178e+05   9.488334e+05
  -5.815845e+05   1.274237e+06
  -1.861301e+06   4.263017e+05
  -1.825635e+06  -1.009447e+06
  -3.260242e+05  -1.873587e+06
   1.272935e+06  -1.476034e+06
   1.544468e+06  -2.322180e+05
   5.073744e+05   7.545157e+05
  -5.672375e+05   7.631417e+05
  -6.651795e+05   7.286690e+04
   1.250362e+04  -4.657573e+05
   5.431046e+05  -3.650011e+05
   3.631301e+05   5.731723e+04
  -2.456118e+05   1.151402e+05
  -5.119698e+05  -4.332462e+05
   7.921203e+04  -1.032524e+06
   1.218555e+06  -8.361922e+05
   1.896823e+06   3.695638e+05
   1.316992e+06   1.782122e+06
  -2.133479e+05   2.253628e+06
  -1.492875e+06   1.402455e+06
  -1.649883e+06  -1.892466e+04
  -9.730055e+05  -9.035839e+05
  -3.884079e+05  -8.499727e+05
  -3.311235e+05  -3.892357e+05
  -4.006963e+05  -2.612777e+05
  -3.583689e+04  -5.999806e+05
   7.519768e+05  -8.423367e+05
   1.348714e+06  -3.842062e+05
   1.086997e+06   6.776856e+05
  -1.343035e+05   1.463060e+06
  -1.587052e+06   1.078392e+06
  -2.116364e+06  -4.198167e+05
  -1.106169e+06  -1.896947e+06
   8.196703e+05  -2.137466e+06
   2.233742e+06  -1.006271e+06
   2.197491e+06   4.729277e+05
   1.060366e+06   1.196656e+06
  -6.284221e+04   1.012280e+06
  -4.486555e+05   6.376355e+05
  -2.897099e+05   7.121775e+05
  -2.312845e+05   1.091725e+06
  -6.085386e+05   1.077005e+06
  -1.132694e+06   2.393923e+05
  -1.194461e+06  -1.024734e+06
  -4.820188e+05  -1.761497e+06
   6.036735e+05  -1.323049e+06
   1.193345e+06  -1.757921e+04
   7.644156e+05   1.119556e+06
  -2.711705e+05   1.254175e+06
  -9.351685e+05   4.633613e+05
  -6.940572e+05  -4.667453e+05
   1.286360e+04  -8.634140e+05
   3.350389e+05  -7.092561e+05
   4.187412e+03  -4.357817e+05
  -3.729199e+05  -3.538699e+05
  -3.510305e+04  -3.719667e+05
   9.996825e+05  -1.955081e+05
   1.813047e+06   3.028074e+05
   1.470220e+06   9.121116e+05
   3.892014e+04   1.228304e+06
  -1.362446e+06   9.835529e+05
  -1.634117e+06   3.063546e+05
  -7.768285e+05  -3.229266e+05
   2.036857e+05  -4.507942e+05
   4.263152e+05  -7.460936e+04
  -3.015879e+04   3.167505e+05
  -4.576055e+05   2.183442e+05
  -4.256598e+05  -3.255883e+05
  -1.349706e+05  -7.151153e+05
   5.769618e+03  -4.664045e+05
  -1.262516e+05   1.551199e+05
  -3.195793e+05   3.641508e+05
  -2.687512e+05  -2.022645e+05
   1.808352e+05  -9.510476e+05
   8.380432e+05  -9.566831e+05
   1.157461e+06  -6.433890e+04
   6.658693e+05   8.768815e+05
  -4.109398e+05   9.580591e+05
  -1.117031e+06   1.947788e+05
  -6.631316e+05  -5.703533e+05
   6.261825e+05  -6.078510e+05
   1.500443e+06   4.042262e+04
   1.046179e+06   7.576754e+05
  -3.472859e+05   9.733790e+05
  -1.392130e+06   5.708832e+05
  -1.214047e+06  -9.977734e+04
  -1.739792e+05  -4.909782e+05
   5.842332e+05  -2.877984e+05
   3.175039e+05   2.518693e+05
  -6.001968e+05   4.415876e+05
  -1.101206e+06  -1.583399e+05
  -5.332947e+05  -1.155610e+06
   6.723326e+05  -1.559210e+06
   1.449476e+06  -7.536437e+05
   1.163663e+06   7.557516e+05
   1.608086e+05   1.697883e+06
  -6.972492e+05   1.250479e+06
  -8.689590e+05  -1.134690e+05
  -4.502161e+05  -1.098743e+06
   1.301000e+05  -9.326672e+05
   4.972760e+05  -1.013983e+05
   4.902999e+05   3.597345e+05
   2.167215e+05   1.379655e+05
   1.921149e+04  -1.032030e+05
   1.629844e+05   2.539739e+05
   4.309046e+05   8.972651e+05
   2.445694e+05   1.010358e+06
  -5.855404e+05   3.596747e+05
  -1.388779e+06  -4.495524e+05
  -1.259235e+06  -7.820122e+05
  -1.718272e+05  -6.392502e+05
   8.641786e+05  -3.887542e+05
   9.409927e+05  -1.879166e+05
   2.797386e+05   2.791470e+04
  -1.632294e+05   2.079939e+05
   4.104349e+04   2.122765e+05
   3.288890e+05   1.164023e+05
   1.786085e+04   1.357497e+05
  -7.069581e+05   1.999699e+05
  -9.744220e+05  -5.031353e+04
  -2.848381e+05  -6.642869e+05
   8.837078e+05  -1.059420e+06
   1.564032e+06  -6.171347e+05
   1.232609e+06   4.858198e+05
   2.089871e+05   1.338342e+06
  -7.257323e+05   1.246360e+06
  -9.994230e+05   4.376566e+05
  -6.281162e+05  -2.653341e+05
  -8.856236e+04  -3.428395e+05
   1.367557e+05  -3.267424e+04
  -4.320983e+04   5.696559e+04
  -3.030603e+05  -3.206180e+05
  -2.459025e+05  -7.535895e+05
   1.963804e+05  -6.206821e+05
   6.589952e+05   1.677613e+05
   6.449335e+05   9.567239e+05
   1.506517e+04   9.762577e+05
  -7.630464e+05   1.644530e+05
  -9.478932e+05  -7.559436e+05
  -2.635184e+05  -1.031652e+06
   7.004929e+05  -5.759277e+05
   1.017505e+06   1.154479e+05
   4.397389e+05   5.467020e+05
  -2.893261e+05   5.699002e+05
  -3.118584e+05   3.116545e+05
   2.940804e+05   2.204103e+04
   6.257961e+05  -1.944650e+04
   1.091600e+05   2.841656e+05
  -7.823895e+05   6.286303e+05
  -1.128279e+06   5.152945e+05
  -6.420971e+05  -1.473693e+05
   1.160029e+05  -7.898763e+05
   4.870025e+05  -7.559862e+05
   3.536301e+05  -8.913048e+04
   1.691045e+04   4.799667e+05
  -2.497010e+05   3.746727e+05
  -3.419767e+05  -1.939730e+05
  -2.197323e+05  -5.487434e+05
   8.179652e+04  -3.556067e+05
   3.681639e+05   7.176951e+04
   4.137397e+05   2.399839e+05
   2.171010e+05   6.296436e+04
   5.729292e+03  -1.073006e+05
  -5.625928e+04   4.030875e+04
  -5.811786e+04   3.805093e+05
  -1.701838e+05   4.819510e+05
  -3.566811e+05   1.136453e+05
  -3.689029e+05  -4.399547e+05
  -4.667087e+04  -6.387437e+05
   4.198368e+05  -2.679027e+05
   5.910031e+05   3.158830e+05
   2.058049e+05   5.683257e+05
  -4.686102e+05   3.214735e+05
  -8.003869e+05  -1.173645e+05
  -4.266127e+05  -3.675568e+05
   2.918246e+05  -3.313396e+05
   6.003318e+05  -1.516982e+05
   1.973438e+05   5.268689e+03
  -3.905018e+05   3.035231e+04
  -4.158103e+05  -1.182908e+05
   1.998564e+05  -3.140266e+05
   7.756697e+05  -2.560722e+05
