
 $NMID
 id='ANONYMOUS ', fmtdat='(2E16.6)'
 volume=1.0
 tramp=1.0
 $END
  -5.457272e+07  -1.320196e+06
  -3.226393e+07  -3.405113e+07
   7.621258e+06  -3.661314e+07
   2.687710e+07  -1.414354e+07
   1.608016e+07   6.569394e+06
  -3.123273e+06   9.025051e+06
  -9.612302e+06  -9.974442e+05
  -2.854352e+06  -9.492154e+06
   5.998425e+06  -9.322619e+06
   9.466289e+06  -2.038916e+06
   6.776806e+06   6.248170e+06
   6.114127e+05   8.571648e+06
  -4.030365e+06   2.548030e+06
  -2.536628e+06  -5.626858e+06
   3.776516e+06  -6.593095e+06
   7.708958e+06   1.319099e+06
   4.241910e+06   1.005629e+07
  -3.858153e+06   1.149911e+07
  -9.975426e+06   5.544002e+06
  -1.043922e+07  -2.316751e+06
  -6.117801e+06  -7.434596e+06
  -3.775292e+05  -8.237186e+06
   2.782890e+06  -5.627507e+06
   1.466491e+06  -2.679557e+06
  -1.283396e+06  -2.512984e+06
  -3.123356e+04  -4.413877e+06
   5.739691e+06  -4.201345e+06
   9.749309e+06  -8.093919e+04
   6.822337e+06   4.369251e+06
  -9.843435e+04   4.987222e+06
  -3.972201e+06   2.287175e+06
  -2.443204e+06  -3.213343e+05
   9.488397e+05  -1.131401e+06
   2.650907e+06  -3.646020e+05
   2.221225e+06   1.779181e+06
   3.950074e+05   4.118793e+06
  -1.976102e+06   3.677742e+06
  -3.007995e+06  -3.620401e+05
  -1.375917e+06  -3.588378e+06
   8.129866e+05  -1.614266e+06
   1.387278e+05   2.681836e+06
  -2.560791e+06   2.334517e+06
  -2.404172e+06  -3.133909e+06
   2.313856e+06  -5.938750e+06
   6.576285e+06  -9.106243e+05
   4.785259e+06   6.748071e+06
  -1.949036e+06   8.204124e+06
  -7.283375e+06   2.198942e+06
  -6.869084e+06  -4.523351e+06
  -1.848989e+06  -6.068878e+06
   3.504275e+06  -2.747802e+06
   5.340175e+06   1.522004e+06
   2.503092e+06   3.492317e+06
  -2.344005e+06   2.175744e+06
  -4.453332e+06  -9.295118e+05
  -1.923945e+06  -2.673615e+06
   1.695709e+06  -1.321718e+06
   1.776984e+06   1.041941e+06
  -1.195982e+06   9.890531e+05
  -2.429977e+06  -1.548827e+06
   4.401979e+05  -3.209871e+06
   4.351789e+06  -1.826742e+06
   5.143853e+06   1.270136e+06
   2.258302e+06   3.869921e+06
  -1.949849e+06   5.179988e+06
  -5.235102e+06   4.688285e+06
  -6.266299e+06   1.511520e+06
  -4.408376e+06  -3.333632e+06
  -7.380605e+05  -6.213137e+06
   1.894591e+06  -4.792623e+06
   1.716146e+06  -1.355498e+06
   2.661162e+05   6.508543e+04
   2.549932e+05  -1.046838e+06
   1.887639e+06  -1.655261e+06
   2.933757e+06   3.298289e+04
   1.959522e+06   2.211355e+06
  -1.637882e+05   2.293170e+06
  -1.742789e+06   1.356364e+05
  -1.728344e+06  -2.286518e+06
   1.173331e+05  -3.061339e+06
   2.907703e+06  -1.551706e+06
   4.454219e+06   1.411356e+06
   3.056657e+06   3.865824e+06
  -1.763569e+05   4.148175e+06
  -2.285771e+06   2.590281e+06
  -2.180057e+06   1.099696e+06
  -1.835184e+06   7.178277e+05
  -3.031031e+06   4.837909e+05
  -4.471075e+06  -8.480941e+05
  -3.549884e+06  -2.926858e+06
  -4.360236e+04  -4.290775e+06
   3.451619e+06  -3.971514e+06
   4.431480e+06  -2.047208e+06
   2.733381e+06   5.824329e+05
   1.448371e+05   2.355841e+06
  -1.257933e+06   1.945916e+06
  -5.766602e+05  -7.974434e+04
   1.191056e+06  -1.321863e+06
   1.977335e+06  -3.568723e+05
   8.916411e+05   1.264627e+06
  -5.948895e+05   1.149971e+06
  -4.854059e+05  -4.107439e+05
   1.057074e+06  -7.785056e+05
   1.907270e+06   1.214840e+06
   7.391146e+05   3.534719e+06
  -1.544589e+06   3.595200e+06
  -3.234260e+06   1.275448e+06
  -3.507061e+06  -1.476926e+06
  -2.419210e+06  -2.965759e+06
  -4.384852e+05  -2.796293e+06
   1.357268e+06  -1.503555e+06
   1.669915e+06  -1.792014e+05
   5.144568e+05   6.135583e+04
  -3.568365e+05  -7.947286e+05
   4.498473e+05  -1.374315e+06
   1.976053e+06  -5.542761e+05
   2.089429e+06   9.504953e+05
   3.828809e+05   1.469259e+06
  -1.233964e+06   5.771692e+05
  -9.444734e+05  -4.983842e+05
   8.863205e+05  -5.652463e+05
   2.312565e+06   3.430704e+05
   1.854510e+06   1.468982e+06
  -2.824760e+05   2.101872e+06
  -2.469865e+06   1.704340e+06
  -2.919903e+06   2.223937e+05
  -1.238405e+06  -1.342761e+06
   9.901725e+05  -1.524820e+06
   1.610092e+06  -1.524639e+05
   1.673345e+05   1.121136e+06
  -1.602559e+06   7.261964e+05
  -1.782756e+06  -8.521067e+05
  -3.339017e+05  -1.739109e+06
   1.151653e+06  -1.020319e+06
   1.318529e+06   3.312746e+05
   2.592396e+05   8.173246e+05
  -8.223156e+05   4.169949e+04
  -7.381212e+05  -1.119594e+06
   6.478770e+05  -1.473070e+06
   2.121347e+06  -5.065816e+05
   2.101366e+06   1.159589e+06
   3.466607e+05   2.181651e+06
  -1.545026e+06   1.683893e+06
  -1.812543e+06   1.831921e+05
  -5.130971e+05  -9.201714e+05
   7.076982e+05  -8.314194e+05
   6.801670e+05  -6.104200e+04
  -1.237819e+05   4.001389e+05
  -5.420154e+05   2.299559e+05
  -1.663657e+05  -8.065863e+04
   4.489820e+05   5.714565e+04
   5.379917e+05   6.912301e+05
  -2.285907e+05   1.235192e+06
  -1.466553e+06   9.075867e+05
  -2.172068e+06  -4.862443e+05
  -1.483324e+06  -2.075997e+06
   2.928206e+05  -2.539178e+06
   1.736428e+06  -1.456183e+06
   1.787968e+06   1.648057e+05
   9.020020e+05   9.816824e+05
   3.218982e+05   7.342630e+05
   4.716988e+05   2.675069e+05
   6.237155e+05   3.344580e+05
   7.200025e+04   7.867681e+05
  -9.351769e+05   9.265119e+05
  -1.533580e+06   3.153326e+05
  -1.100319e+06  -7.914570e+05
   2.902972e+05  -1.546560e+06
   1.838442e+06  -1.094354e+06
   2.354652e+06   5.635841e+05
   1.145936e+06   2.230419e+06
  -1.103511e+06   2.454687e+06
  -2.681496e+06   1.028583e+06
  -2.459854e+06  -7.344887e+05
  -9.964023e+05  -1.430917e+06
   2.269706e+05  -1.012589e+06
   4.409359e+05  -5.472403e+05
   1.344515e+05  -7.838503e+05
   1.582861e+05  -1.347883e+06
   7.315803e+05  -1.319403e+06
   1.355540e+06  -2.955662e+05
   1.370270e+06   1.170985e+06
   5.314330e+05   2.004200e+06
  -6.936517e+05   1.491773e+06
  -1.351434e+06  -3.269397e+04
  -8.241268e+05  -1.359553e+06
   4.319676e+05  -1.453746e+06
   1.214248e+06  -4.131837e+05
   8.316290e+05   7.257925e+05
  -1.382641e+05   1.110855e+06
  -5.601239e+05   8.108201e+05
  -9.118340e+04   4.443620e+05
   4.413395e+05   3.686659e+05
   4.990760e+04   4.058124e+05
  -1.202976e+06   1.934600e+05
  -2.145180e+06  -3.978347e+05
  -1.669995e+06  -1.122756e+06
   6.309026e+04  -1.494884e+06
   1.681223e+06  -1.151204e+06
   1.924156e+06  -2.534208e+05
   8.679410e+05   5.224511e+05
  -2.811699e+05   5.820451e+05
  -5.333226e+05   2.963573e+04
  -1.631295e+04  -4.317091e+05
   4.770225e+05  -2.564585e+05
   4.947096e+05   3.715538e+05
   2.351076e+05   7.683106e+05
   7.711337e+04   5.057241e+05
   1.484464e+05  -1.041679e+05
   3.105853e+05  -3.095099e+05
   2.854582e+05   2.498058e+05
  -1.796488e+05   1.035642e+06
  -9.705946e+05   1.094195e+06
  -1.420766e+06   1.428111e+05
  -8.586764e+05  -9.813712e+05
   4.640071e+05  -1.175773e+06
   1.321408e+06  -3.130539e+05
   7.544403e+05   6.233458e+05
  -7.515788e+05   6.650921e+05
  -1.670355e+06  -1.367945e+05
  -1.046875e+06  -9.312238e+05
   5.255899e+05  -1.034678e+06
   1.590221e+06  -4.764079e+05
   1.298922e+06   2.267961e+05
   1.319150e+05   5.460988e+05
  -6.888718e+05   2.700510e+05
  -3.941186e+05  -3.162788e+05
   6.309052e+05  -5.312356e+05
   1.241166e+06   1.181905e+05
   6.724311e+05   1.259963e+06
  -6.659349e+05   1.774761e+06
  -1.584118e+06   8.936219e+05
  -1.303533e+06  -8.282582e+05
  -1.700807e+05  -1.891406e+06
   8.107994e+05  -1.346609e+06
   9.705420e+05   2.062463e+05
   4.268459e+05   1.265128e+06
  -2.529830e+05   1.016151e+06
  -5.932987e+05   7.560703e+04
  -4.825541e+05  -4.092107e+05
  -1.697881e+05  -1.491813e+05
  -5.321485e+04   9.952032e+04
  -2.864589e+05  -3.168596e+05
  -5.131398e+05  -1.029225e+06
  -1.755487e+05  -1.140256e+06
   7.613646e+05  -3.988522e+05
   1.541850e+06   5.245726e+05
   1.327746e+06   9.114670e+05
   1.782396e+05   7.399790e+05
  -9.072970e+05   4.219022e+05
  -1.040167e+06   1.685883e+05
  -3.797947e+05  -6.504335e+04
   1.577640e+05  -2.345311e+05
   4.446199e+04  -2.140225e+05
  -2.741781e+05  -1.037262e+05
  -5.171483e+04  -1.412258e+05
   6.984846e+05  -2.360513e+05
   1.103112e+06   3.282446e+04
   4.474999e+05   7.393171e+05
  -9.070264e+05   1.226543e+06
  -1.809714e+06   7.656515e+05
  -1.484579e+06  -4.804178e+05
  -2.638880e+05  -1.486505e+06
   8.374242e+05  -1.436054e+06
   1.117101e+06  -5.503649e+05
   6.855317e+05   2.543261e+05
   1.366446e+05   3.805929e+05
  -7.030233e+04   7.261170e+04
   8.772075e+04  -1.167189e+04
   3.062671e+05   3.954057e+05
   2.418866e+05   8.567181e+05
  -2.005163e+05   7.141450e+05
  -7.145803e+05  -1.347990e+05
  -7.666913e+05  -1.011183e+06
  -1.127078e+05  -1.090617e+06
   7.932673e+05  -2.565980e+05
   1.081592e+06   7.696034e+05
   3.543245e+05   1.155195e+06
  -7.621370e+05   7.086666e+05
  -1.182354e+06  -9.546723e+04
  -5.546260e+05  -6.610728e+05
   3.151789e+05  -7.181250e+05
   4.138056e+05  -3.829055e+05
  -2.523357e+05  -1.022532e+04
  -6.831792e+05   3.181642e+04
  -1.522128e+05  -3.290101e+05
   8.819832e+05  -7.000059e+05
   1.344178e+06  -5.404938e+05
   8.090431e+05   2.075604e+05
  -1.157397e+05   9.183836e+05
  -6.047783e+05   8.965206e+05
  -4.608848e+05   1.698629e+05
  -5.390310e+04  -5.023133e+05
   2.576531e+05  -4.603644e+05
   3.685969e+05   1.521201e+05
   2.600473e+05   6.124461e+05
  -6.026308e+04   4.578073e+05
  -4.120484e+05  -4.929194e+04
  -4.998820e+05  -3.098302e+05
  -2.540043e+05  -1.111872e+05
   3.816506e+04   1.660783e+05
   8.619224e+04   6.176265e+04
  -2.012349e+04  -3.673526e+05
   4.304069e+04  -5.900951e+05
   3.342244e+05  -2.429526e+05
   4.904632e+05   3.958032e+05
   1.727834e+05   6.843105e+05
  -4.302737e+05   3.306939e+05
  -7.033332e+05  -2.979591e+05
  -2.646332e+05  -6.045412e+05
   5.435433e+05  -3.794414e+05
   9.358287e+05   8.797607e+04
   5.028134e+05   4.049945e+05
  -3.157627e+05   4.256380e+05
  -6.802856e+05   2.408881e+05
  -2.726733e+05   1.721766e+04
   3.546625e+05  -7.615603e+04
   4.247119e+05   6.076533e+04
  -1.714483e+05   2.978906e+05
  -7.716702e+05   2.769541e+05
