
 $NMID
 id='ANONYMOUS ', fmtdat='(2E16.6)'
 volume=1.0
 tramp=1.0
 $END
   2.998531e+07  -2.959208e+05
   1.886723e+07   1.602133e+07
  -1.919563e+06   1.938994e+07
  -1.338915e+07   1.020441e+07
  -9.483427e+06  -1.004594e+06
   4.704607e+05  -5.032600e+06
   5.426459e+06  -1.164903e+06
   3.080640e+06   4.760976e+06
  -2.042862e+06   6.541757e+06
  -5.181057e+06   2.489908e+06
  -4.398248e+06  -3.486714e+06
  -7.073806e+05  -5.455666e+06
   2.542014e+06  -1.475415e+06
   2.108405e+06   4.003420e+06
  -1.626208e+06   4.855292e+06
  -4.535010e+06   5.575594e+04
  -3.167112e+06  -5.544119e+06
   1.519987e+06  -6.865547e+06
   5.503865e+06  -3.439563e+06
   5.869670e+06   1.362473e+06
   3.056777e+06   4.162968e+06
  -1.046141e+05   4.022446e+06
  -9.340694e+05   2.399228e+06
   6.954027e+05   1.590371e+06
   1.948401e+06   2.553038e+06
  -6.321875e+04   3.776104e+06
  -4.444516e+06   2.929371e+06
  -6.799589e+06  -1.444648e+05
  -4.288749e+06  -2.950157e+06
   7.120669e+05  -3.179122e+06
   3.318986e+06  -1.129025e+06
   1.706459e+06   1.077594e+06
  -1.516934e+06   1.695751e+06
  -2.982203e+06   3.402170e+05
  -1.916399e+06  -2.037364e+06
   1.717271e+05  -3.402009e+06
   1.532654e+06  -2.090123e+06
   1.366984e+06   8.943954e+05
   1.430013e+05   2.184994e+06
  -6.442953e+05   1.080491e+05
   1.469458e+05  -2.575613e+06
   1.679517e+06  -1.954136e+06
   1.725781e+06   1.547169e+06
  -5.111550e+05   3.356482e+06
  -2.917929e+06   7.916506e+05
  -2.647058e+06  -3.352988e+06
   5.840649e+05  -4.423007e+06
   4.047446e+06  -1.459712e+06
   4.698057e+06   2.358875e+06
   1.936849e+06   3.766519e+06
  -1.976352e+06   2.305639e+06
  -3.845731e+06  -2.659170e+05
  -2.266470e+06  -1.893665e+06
   1.014672e+06  -1.554134e+06
   2.712369e+06   1.293521e+05
   1.427555e+06   1.342112e+06
  -8.845041e+05   8.740444e+05
  -1.385929e+06  -4.799353e+05
   1.888711e+05  -9.260711e+05
   1.449064e+06   6.045789e+04
   5.274786e+05   1.236854e+06
  -1.704563e+06   1.257699e+06
  -2.855565e+06  -2.513253e+04
  -1.631445e+06  -1.886888e+06
   1.165026e+06  -3.332490e+06
   3.615466e+06  -3.221184e+06
   4.185984e+06  -9.652820e+05
   2.726989e+06   2.287519e+06
   5.405917e+05   4.120038e+06
  -7.383907e+05   3.352076e+06
  -6.912251e+05   1.461167e+06
  -3.880591e+05   6.571476e+05
  -9.206094e+05   1.083649e+06
  -2.008473e+06   9.976024e+05
  -2.409400e+06  -5.035763e+05
  -1.427193e+06  -2.125458e+06
   3.750802e+05  -2.053706e+06
   1.737291e+06  -1.682934e+05
   1.631371e+06   1.889576e+06
  -4.434387e+04   2.413754e+06
  -2.171364e+06   1.050888e+06
  -3.034250e+06  -1.113587e+06
  -1.882680e+06  -2.530511e+06
   1.469713e+05  -2.448288e+06
   1.248208e+06  -1.469072e+06
   1.086417e+06  -7.759829e+05
   1.040066e+06  -7.728347e+05
   2.106700e+06  -7.231542e+05
   3.315051e+06   2.100295e+05
   2.839970e+06   1.876506e+06
   3.467717e+05   3.224572e+06
  -2.419206e+06   3.228170e+06
  -3.381839e+06   1.684151e+06
  -2.099625e+06  -5.354843e+05
   4.260540e+03  -1.912917e+06
   1.069565e+06  -1.470615e+06
   4.349904e+05   1.245858e+05
  -9.091879e+05   1.049515e+06
  -1.421222e+06   3.504239e+05
  -6.211960e+05  -8.837992e+05
   4.682587e+05  -9.397135e+05
   5.570008e+05   2.205309e+05
  -4.475916e+05   8.724137e+05
  -1.413878e+06  -2.053007e+05
  -1.230882e+06  -2.132516e+06
   1.951183e+05  -2.957161e+06
   1.996573e+06  -1.798985e+06
   3.002535e+06   4.285004e+05
   2.466925e+06   2.101528e+06
   6.834371e+05   2.285503e+06
  -1.011683e+06   1.278378e+06
  -1.331367e+06   1.953702e+05
  -3.984877e+05  -1.490841e+04
   3.328292e+05   5.754545e+05
  -1.981362e+05   1.000346e+06
  -1.344267e+06   5.255410e+05
  -1.578333e+06  -4.778457e+05
  -4.389499e+05  -9.946012e+05
   8.625476e+05  -5.610417e+05
   8.549113e+05   2.808759e+05
  -5.309393e+05   6.446024e+05
  -1.889674e+06   1.294263e+05
  -1.771538e+06  -9.409236e+05
  -9.120540e+04  -1.772985e+06
   1.772765e+06  -1.614570e+06
   2.239772e+06  -4.169807e+05
   1.014652e+06   8.861369e+05
  -6.265830e+05   1.128315e+06
  -1.111695e+06   1.802386e+05
  -1.323298e+05  -7.957626e+05
   1.154754e+06  -6.379364e+05
   1.421450e+06   4.707042e+05
   4.775576e+05   1.275278e+06
  -7.037070e+05   9.518125e+05
  -1.041431e+06  -2.538599e+04
  -3.463391e+05  -5.478058e+05
   5.570885e+05  -1.020422e+05
   6.106907e+05   7.874798e+05
  -4.230438e+05   1.152546e+06
  -1.600095e+06   4.939923e+05
  -1.665051e+06  -7.659677e+05
  -4.079216e+05  -1.624650e+06
   1.025340e+06  -1.382232e+06
   1.348693e+06  -3.020322e+05
   4.966166e+05   6.389926e+05
  -4.544928e+05   7.114133e+05
  -5.807654e+05   1.000611e+05
  -8.284919e+03  -4.153986e+05
   4.638748e+05  -3.455078e+05
   3.172063e+05   4.521585e+04
  -2.249091e+05   1.244046e+05
  -4.886194e+05  -3.544694e+05
   2.631220e+03  -9.200129e+05
   1.018473e+06  -8.139856e+05
   1.689405e+06   2.035872e+05
   1.269469e+06   1.479361e+06
  -4.846906e+04   1.990832e+06
  -1.232575e+06   1.322040e+06
  -1.456005e+06   7.540415e+04
  -8.989165e+05  -7.472952e+05
  -3.698662e+05  -7.248012e+05
  -3.011674e+05  -3.076021e+05
  -3.734212e+05  -1.895187e+05
  -7.763129e+04  -5.210517e+05
   6.091696e+05  -7.883795e+05
   1.163863e+06  -4.174089e+05
   9.901830e+05   5.352104e+05
  -3.839703e+04   1.295719e+06
  -1.331390e+06   1.042944e+06
  -1.884387e+06  -2.398938e+05
  -1.092418e+06  -1.601859e+06
   5.840745e+05  -1.938849e+06
   1.905872e+06  -1.031775e+06
   1.970568e+06   2.837842e+05
   1.005379e+06   1.001063e+06
  -6.503434e+03   9.005675e+05
  -3.660314e+05   5.765461e+05
  -2.065952e+05   6.248721e+05
  -1.228052e+05   9.644750e+05
  -4.584456e+05   9.872045e+05
  -9.766570e+05   2.872853e+05
  -1.111576e+06  -8.213120e+05
  -5.331341e+05  -1.513959e+06
   4.465607e+05  -1.197576e+06
   1.048818e+06  -8.949821e+04
   7.468319e+05   9.378294e+05
  -1.586809e+05   1.126719e+06
  -8.027081e+05   4.754467e+05
  -6.546924e+05  -3.651982e+05
  -5.173885e+04  -7.700364e+05
   2.516891e+05  -6.578843e+05
  -1.740712e+04  -3.886764e+05
  -3.452794e+05  -2.841634e+05
  -5.226455e+04  -3.215541e+05
   8.660821e+05  -2.386039e+05
   1.611622e+06   1.447662e+05
   1.351974e+06   7.075393e+05
   1.186339e+05   1.084303e+06
  -1.130444e+06   9.593716e+05
  -1.421678e+06   3.750526e+05
  -7.142271e+05  -2.382614e+05
   1.449097e+05  -4.129118e+05
   3.740310e+05  -9.510278e+04
  -2.324360e+02   2.755763e+05
  -3.859469e+05   2.151387e+05
  -3.928437e+05  -2.580704e+05
  -1.597285e+05  -6.095851e+05
  -2.326377e+04  -4.010414e+05
  -1.069443e+05   1.422675e+05
  -2.641550e+05   3.323901e+05
  -2.483129e+05  -1.609678e+05
   1.019483e+05  -8.392301e+05
   6.719462e+05  -8.913430e+05
   1.003749e+06  -1.400452e+05
   6.381297e+05   7.159920e+05
  -2.916553e+05   8.654042e+05
  -9.581572e+05   2.463743e+05
  -6.137145e+05  -4.574572e+05
   5.133595e+05  -5.740663e+05
   1.323298e+06  -5.329510e+04
   9.664555e+05   6.116015e+05
  -2.519826e+05   8.836294e+05
  -1.198155e+06   5.842867e+05
  -1.077481e+06  -2.032546e+04
  -1.809087e+05  -4.245368e+05
   4.990146e+05  -2.901673e+05
   2.974509e+05   1.979224e+05
  -4.939013e+05   4.204447e+05
  -9.683856e+05  -6.910611e+04
  -5.357768e+05  -9.714557e+05
   4.893150e+05  -1.398472e+06
   1.217721e+06  -7.451782e+05
   1.062810e+06   5.904155e+05
   2.429562e+05   1.476883e+06
  -5.392236e+05   1.138556e+06
  -7.742504e+05  -4.768509e+04
  -4.630915e+05  -9.412577e+05
   6.060139e+04  -8.333051e+05
   4.326014e+05  -1.221498e+05
   4.507246e+05   2.905502e+05
   1.968092e+05   1.137820e+05
   1.262809e+04  -9.420034e+04
   1.628058e+05   2.034141e+05
   4.347845e+05   7.567287e+05
   2.751218e+05   8.785811e+05
  -4.925721e+05   3.600673e+05
  -1.244660e+06  -3.103275e+05
  -1.151628e+06  -6.155223e+05
  -1.911909e+05  -5.503774e+05
   7.328610e+05  -3.871084e+05
   8.154963e+05  -2.199941e+05
   2.504196e+05   1.937396e+03
  -1.298895e+05   1.899028e+05
   4.506228e+04   1.909564e+05
   2.910480e+05   8.941631e+04
   2.371434e+04   1.143326e+05
  -6.036925e+05   2.100547e+05
  -8.538959e+05   1.716197e+04
  -2.914565e+05  -5.523129e+05
   7.039176e+05  -9.744329e+05
   1.325367e+06  -6.419039e+05
   1.104119e+06   3.397121e+05
   2.638271e+05   1.155519e+06
  -5.555646e+05   1.137653e+06
  -8.420840e+05   4.448294e+05
  -5.617044e+05  -1.944161e+05
  -9.897884e+04  -2.909597e+05
   1.130322e+05  -3.011721e+04
  -3.952832e+04   5.520672e+04
  -2.876179e+05  -2.654137e+05
  -2.622242e+05  -6.476300e+05
   1.317042e+05  -5.540502e+05
   5.820454e+05   1.075350e+05
   6.184413e+05   7.930516e+05
   7.402991e+04   8.450672e+05
  -6.505127e+05   1.861319e+05
  -8.691425e+05  -6.008966e+05
  -2.943712e+05  -8.814583e+05
   5.717952e+05  -5.456175e+05
   8.949686e+05   3.448501e+04
   4.235734e+05   4.464678e+05
  -2.107858e+05   5.167196e+05
  -2.515586e+05   2.983510e+05
   2.562234e+05   8.342716e+03
   5.451267e+05  -5.372636e+04
   1.141761e+05   2.394248e+05
  -6.468344e+05   5.983827e+05
  -9.605069e+05   5.265733e+05
  -5.760923e+05  -8.239483e+04
   5.013872e+04  -6.976616e+05
   3.764929e+05  -6.973641e+05
   2.986104e+05  -1.063550e+05
   4.133637e+04   4.153248e+05
  -1.916556e+05   3.416324e+05
  -3.049675e+05  -1.492888e+05
  -2.257650e+05  -4.655092e+05
   4.408027e+04  -3.142249e+05
   3.238399e+05   3.992001e+04
   3.810166e+05   1.821302e+05
   1.976271e+05   4.153170e+04
  -6.382177e+03  -9.089286e+04
  -5.674260e+04   3.924057e+04
  -3.168150e+04   3.280712e+05
  -1.129084e+05   4.196601e+05
  -2.939352e+05   1.169876e+05
  -3.420834e+05  -3.542288e+05
  -7.872010e+04  -5.448479e+05
   3.477082e+05  -2.568697e+05
   5.319832e+05   2.358163e+05
   2.124041e+05   4.811731e+05
  -3.889304e+05   3.118629e+05
  -7.042508e+05  -4.963931e+04
  -3.955839e+05  -2.932842e+05
   2.301401e+05  -3.076560e+05
   5.099945e+05  -1.711387e+05
   1.717497e+05  -1.226068e+04
  -3.350506e+05   4.370142e+04
  -3.642413e+05  -8.084620e+04
   1.598271e+05  -2.816743e+05
   6.627970e+05  -2.626242e+05
