
 $NMID
 id='ANONYMOUS ', fmtdat='(2E16.6)'
 volume=1.0
 tramp=1.0
 $END
   2.768348e+07   7.468409e+05
   1.658437e+07   1.610356e+07
  -3.041730e+06   1.803683e+07
  -1.302043e+07   8.228838e+06
  -8.417717e+06  -2.056189e+06
   1.036197e+06  -4.626607e+06
   5.007647e+06  -3.862614e+05
   2.235754e+06   4.623659e+06
  -2.444789e+06   5.533681e+06
  -4.846018e+06   1.716199e+06
  -3.754364e+06  -3.340931e+06
  -3.732372e+05  -4.836453e+06
   2.333043e+06  -1.267541e+06
   1.675574e+06   3.475037e+06
  -1.725260e+06   4.052144e+06
  -4.063344e+06  -3.050213e+05
  -2.500773e+06  -5.148909e+06
   1.755235e+06  -6.054922e+06
   5.121197e+06  -2.860993e+06
   5.304929e+06   1.390470e+06
   2.791745e+06   3.901380e+06
  -1.310486e+05   3.879780e+06
  -1.164442e+06   2.381859e+06
   9.520570e+04   1.356656e+06
   1.376168e+06   1.938996e+06
  -5.195677e+04   3.042320e+06
  -3.725279e+06   2.466978e+06
  -5.838057e+06  -1.747197e+05
  -3.756388e+06  -2.666134e+06
   5.227231e+05  -2.855734e+06
   2.775122e+06  -1.074792e+06
   1.498013e+06   7.357918e+05
  -1.071958e+06   1.229803e+06
  -2.251482e+06   2.545990e+05
  -1.499838e+06  -1.556800e+06
   1.113420e+05  -2.765288e+06
   1.334913e+06  -1.855748e+06
   1.354687e+06   6.756332e+05
   2.790265e+05   1.995437e+06
  -5.659017e+05   3.527940e+05
   7.723391e+04  -2.021484e+06
   1.473843e+06  -1.546322e+06
   1.413207e+06   1.530570e+06
  -7.966898e+05   3.047870e+06
  -2.938567e+06   5.506477e+05
  -2.370314e+06  -3.275741e+06
   7.815438e+05  -4.090534e+06
   3.742092e+06  -1.188262e+06
   3.985636e+06   2.280986e+06
   1.416948e+06   3.344135e+06
  -1.847314e+06   1.827468e+06
  -3.234976e+06  -4.969273e+05
  -1.735139e+06  -1.803605e+06
   1.092586e+06  -1.303400e+06
   2.429046e+06   3.139133e+05
   1.152912e+06   1.339419e+06
  -8.716851e+05   7.545168e+05
  -1.137263e+06  -5.087490e+05
   3.537945e+05  -7.282041e+05
   1.289539e+06   3.562803e+05
   1.895133e+05   1.328867e+06
  -1.823079e+06   1.025632e+06
  -2.597697e+06  -3.173192e+05
  -1.317913e+06  -1.843156e+06
   1.100353e+06  -2.869288e+06
   3.129356e+06  -2.678553e+06
   3.620619e+06  -7.680405e+05
   2.368369e+06   2.011453e+06
   3.690335e+05   3.575920e+06
  -8.534789e+05   2.818974e+06
  -7.392114e+05   1.059807e+06
  -2.556405e+05   3.487316e+05
  -5.734437e+05   8.352640e+05
  -1.540061e+06   9.009510e+05
  -1.974982e+06  -3.149745e+05
  -1.198129e+06  -1.688869e+06
   2.745034e+05  -1.653590e+06
   1.365060e+06  -1.178612e+05
   1.273080e+06   1.559952e+06
  -8.083333e+04   1.997905e+06
  -1.842448e+06   8.770657e+05
  -2.593398e+06  -9.708225e+05
  -1.614986e+06  -2.239354e+06
   1.791975e+05  -2.193922e+06
   1.184333e+06  -1.296662e+06
   1.040965e+06  -6.175452e+05
   9.437228e+05  -5.620584e+05
   1.789472e+06  -4.906166e+05
   2.751594e+06   3.122996e+05
   2.288559e+06   1.667823e+06
   1.772831e+05   2.683588e+06
  -2.084741e+06   2.598811e+06
  -2.824907e+06   1.326305e+06
  -1.744350e+06  -4.549958e+05
  -4.226194e+03  -1.572423e+06
   8.952760e+05  -1.216387e+06
   3.771681e+05   1.026972e+05
  -7.715333e+05   8.631302e+05
  -1.221021e+06   2.543604e+05
  -5.223144e+05  -7.756826e+05
   4.119223e+05  -7.747149e+05
   4.333257e+05   2.084395e+05
  -4.562310e+05   6.608425e+05
  -1.171405e+06  -3.427711e+05
  -8.292994e+05  -1.897458e+06
   4.259073e+05  -2.380752e+06
   1.767604e+06  -1.263583e+06
   2.384087e+06   5.524579e+05
   1.864633e+06   1.800336e+06
   4.601491e+05   1.859641e+06
  -8.572047e+05   1.011662e+06
  -1.094091e+06   1.263977e+05
  -3.273594e+05  -2.911496e+04
   2.604983e+05   4.900373e+05
  -2.083114e+05   8.451528e+05
  -1.166028e+06   3.996419e+05
  -1.317270e+06  -4.786244e+05
  -3.226284e+05  -8.744399e+05
   7.467921e+05  -4.435193e+05
   6.911823e+05   2.579832e+05
  -4.616256e+05   4.850789e+05
  -1.527125e+06   1.111661e+04
  -1.376738e+06  -8.278190e+05
   6.871178e+03  -1.427305e+06
   1.508763e+06  -1.246147e+06
   1.859183e+06  -2.587666e+05
   8.127503e+05   7.872200e+05
  -5.712838e+05   9.404860e+05
  -9.602366e+05   1.156107e+05
  -1.013416e+05  -6.856400e+05
   9.853643e+05  -5.017213e+05
   1.163606e+06   4.502416e+05
   3.295436e+05   1.080804e+06
  -6.403384e+05   7.460900e+05
  -8.640853e+05  -8.614112e+04
  -2.546581e+05  -4.852587e+05
   4.791917e+05  -7.744572e+04
   4.967350e+05   6.639651e+05
  -3.662835e+05   9.439899e+05
  -1.328069e+06   3.735714e+05
  -1.356123e+06  -6.763839e+05
  -2.862954e+05  -1.360252e+06
   9.047422e+05  -1.110044e+06
   1.134276e+06  -1.900474e+05
   3.817936e+05   5.611902e+05
  -4.094100e+05   5.761580e+05
  -4.802436e+05   6.680724e+04
   6.935762e+03  -3.252064e+05
   3.693879e+05  -2.551587e+05
   2.253483e+05   3.277576e+04
  -1.993417e+05   6.059752e+04
  -3.727505e+05  -3.286009e+05
   4.932695e+04  -7.549726e+05
   8.663252e+05  -6.304465e+05
   1.382307e+06   2.223426e+05
   9.995246e+05   1.257983e+06
  -1.058272e+05   1.632479e+06
  -1.059104e+06   1.029985e+06
  -1.184043e+06  -3.792905e+03
  -6.827669e+05  -6.342194e+05
  -2.639359e+05  -5.712504e+05
  -2.527133e+05  -2.360127e+05
  -3.224184e+05  -1.712800e+05
  -4.890131e+04  -4.388916e+05
   5.305429e+05  -6.157876e+05
   9.547284e+05  -2.896521e+05
   7.687958e+05   4.616950e+05
  -8.507086e+04   1.035110e+06
  -1.118568e+06   7.968984e+05
  -1.529403e+06  -2.594450e+05
  -8.380476e+05  -1.355550e+06
   5.579253e+05  -1.581101e+06
   1.617040e+06  -7.772481e+05
   1.606791e+06   3.193282e+05
   7.676974e+05   8.620771e+05
  -5.176759e+04   7.190491e+05
  -3.045279e+05   4.384119e+05
  -1.594296e+05   5.071762e+05
  -1.168432e+05   8.075231e+05
  -4.144524e+05   8.125560e+05
  -8.227064e+05   2.107477e+05
  -8.933749e+05  -7.089385e+05
  -3.937382e+05  -1.262022e+06
   4.030352e+05  -9.726556e+05
   8.662562e+05  -3.788305e+04
   5.821017e+05   8.043222e+05
  -1.802738e+05   9.256649e+05
  -6.941409e+05   3.518424e+05
  -5.319930e+05  -3.454564e+05
  -2.901922e+03  -6.511064e+05
   2.493003e+05  -5.341019e+05
   9.273324e+03  -3.140270e+05
  -2.746371e+05  -2.384031e+05
  -3.329840e+04  -2.605557e+05
   7.244861e+05  -1.649305e+05
   1.327155e+06   1.720572e+05
   1.090129e+06   6.304881e+05
   5.462899e+04   9.080261e+05
  -9.736247e+05   7.613719e+05
  -1.190282e+06   2.543929e+05
  -5.796429e+05  -2.375430e+05
   1.377231e+05  -3.433066e+05
   3.152980e+05  -5.929672e+04
  -4.840522e+03   2.332215e+05
  -3.191455e+05   1.620264e+05
  -3.140133e+05  -2.258446e+05
  -1.205160e+05  -4.989725e+05
  -1.679142e+04  -3.272175e+05
  -9.136832e+04   1.024120e+05
  -2.163900e+05   2.525084e+05
  -1.935324e+05  -1.364196e+05
   1.034086e+05  -6.744776e+05
   5.747608e+05  -7.122304e+05
   8.374142e+05  -9.758941e+04
   5.153214e+05   6.019791e+05
  -2.630526e+05   7.119671e+05
  -7.989142e+05   1.846708e+05
  -4.889039e+05  -3.912345e+05
   4.445748e+05  -4.514604e+05
   1.082986e+06   9.444950e+03
   7.554525e+05   5.401716e+05
  -2.508495e+05   7.071606e+05
  -1.001919e+06   4.210165e+05
  -8.736145e+05  -6.286482e+04
  -1.277306e+05  -3.527474e+05
   4.223617e+05  -2.177963e+05
   2.446293e+05   1.743126e+05
  -4.101994e+05   3.353470e+05
  -7.920471e+05  -7.642149e+04
  -4.195817e+05  -8.066399e+05
   4.322403e+05  -1.133554e+06
   1.015111e+06  -5.782793e+05
   8.515689e+05   5.145296e+05
   1.516474e+05   1.215229e+06
  -4.800257e+05   9.087720e+05
  -6.320861e+05  -7.167616e+04
  -3.423166e+05  -7.883546e+05
   8.590496e+04  -6.781088e+05
   3.613968e+05  -8.436354e+04
   3.530417e+05   2.514168e+05
   1.502199e+05   9.864228e+04
   1.788686e+04  -7.544283e+04
   1.405139e+05   1.740813e+05
   3.378267e+05   6.359315e+05
   1.873723e+05   7.308797e+05
  -4.272562e+05   2.809280e+05
  -1.008584e+06  -2.948739e+05
  -9.144064e+05  -5.439115e+05
  -1.380187e+05  -4.584456e+05
   6.044954e+05  -2.917111e+05
   6.726546e+05  -1.502715e+05
   2.126416e+05   1.255502e+04
  -1.101120e+05   1.518366e+05
   1.901009e+04   1.553519e+05
   2.240979e+05   7.816041e+04
   2.088808e+04   9.149139e+04
  -4.882850e+05   1.546964e+05
  -7.008293e+05  -7.710167e+03
  -2.375229e+05  -4.589551e+05
   5.957386e+05  -7.808831e+05
   1.110793e+06  -4.948622e+05
   9.048123e+05   3.031149e+05
   1.841691e+05   9.516560e+05
  -4.906232e+05   9.188663e+05
  -7.004330e+05   3.464164e+05
  -4.513485e+05  -1.696440e+05
  -7.784225e+04  -2.395904e+05
   8.265391e+04  -2.501115e+04
  -3.889670e+04   3.816891e+04
  -2.242253e+05  -2.298921e+05
  -1.927363e+05  -5.399072e+05
   1.212235e+05  -4.530098e+05
   4.708656e+05   9.832850e+04
   4.883217e+05   6.606294e+05
   4.646369e+04   6.937101e+05
  -5.308952e+05   1.407318e+05
  -6.950750e+05  -5.094171e+05
  -2.210090e+05  -7.298204e+05
   4.810627e+05  -4.362820e+05
   7.357798e+05   5.039749e+04
   3.414617e+05   3.823487e+05
  -1.850115e+05   4.258107e+05
  -2.213640e+05   2.424558e+05
   1.999546e+05   1.478044e+04
   4.449580e+05  -2.842180e+04
   8.949292e+04   2.000756e+05
  -5.485018e+05   4.699558e+05
  -8.123117e+05   3.987532e+05
  -4.801422e+05  -8.914223e+04
   6.042552e+04  -5.737254e+05
   3.358265e+05  -5.658399e+05
   2.541154e+05  -8.666242e+04
   2.461629e+04   3.365802e+05
  -1.640679e+05   2.779467e+05
  -2.423765e+05  -1.241675e+05
  -1.722173e+05  -3.873724e+05
   4.129356e+04  -2.623884e+05
   2.637331e+05   3.891505e+04
   3.113142e+05   1.651968e+05
   1.621064e+05   4.481404e+04
  -8.457139e+03  -7.941683e+04
  -5.159187e+04   1.820295e+04
  -2.658390e+04   2.599527e+05
  -8.759996e+04   3.444256e+05
  -2.355054e+05   9.938886e+04
  -2.771237e+05  -2.884462e+05
  -6.141382e+04  -4.433556e+05
   2.872849e+05  -2.026612e+05
   4.322157e+05   2.020320e+05
   1.629486e+05   3.958241e+05
  -3.294526e+05   2.458966e+05
  -5.790070e+05  -5.623911e+04
  -3.179322e+05  -2.510162e+05
   1.959863e+05  -2.513826e+05
   4.233168e+05  -1.329332e+05
   1.468290e+05  -7.509702e+03
  -2.661213e+05   3.002562e+04
  -2.907541e+05  -6.961480e+04
   1.339771e+05  -2.194448e+05
   5.398110e+05  -1.928402e+05
