
 $NMID
 id='ANONYMOUS ', fmtdat='(2E16.6)'
 volume=1.0
 tramp=1.0
 $END
  -6.002118e+07  -2.197061e+05
  -3.588250e+07  -3.745871e+07
   8.224267e+06  -4.062927e+07
   2.950810e+07  -1.532741e+07
   1.744838e+07   7.706335e+06
  -3.647084e+06   9.909420e+06
  -1.043240e+07  -1.456589e+06
  -2.812719e+06  -1.042805e+07
   6.701762e+06  -9.806641e+06
   1.026702e+07  -1.998886e+06
   7.388823e+06   6.609607e+06
   8.355630e+05   9.105719e+06
  -4.234669e+06   2.917163e+06
  -2.755666e+06  -5.720295e+06
   4.040519e+06  -6.865760e+06
   8.350237e+06   1.499103e+06
   4.646685e+06   1.087036e+07
  -4.093913e+06   1.251056e+07
  -1.077291e+07   6.243200e+06
  -1.150828e+07  -2.197864e+06
  -7.072182e+06  -7.992588e+06
  -7.397194e+05  -9.268405e+06
   3.176707e+06  -6.494451e+06
   2.101302e+06  -2.832063e+06
  -1.099279e+06  -2.183318e+06
  -2.987321e+05  -4.345737e+06
   5.651705e+06  -4.654992e+06
   1.019176e+07  -5.587846e+05
   7.474183e+06   4.359224e+06
   3.218791e+05   5.377911e+06
  -3.883444e+06   2.770992e+06
  -2.629445e+06   8.958225e+04
   5.497275e+05  -9.383212e+05
   2.312336e+06  -5.402098e+05
   2.307020e+06   1.435309e+06
   7.864607e+05   4.113194e+06
  -1.891242e+06   4.109632e+06
  -3.481416e+06  -6.786600e+04
  -1.869964e+06  -3.874229e+06
   8.296317e+05  -2.113594e+06
   4.002659e+05   2.542495e+06
  -2.593664e+06   2.407985e+06
  -2.570608e+06  -3.415807e+06
   2.653493e+06  -6.513677e+06
   7.454869e+06  -1.035271e+06
   5.435616e+06   7.418311e+06
  -2.091116e+06   9.083440e+06
  -7.913118e+06   2.545132e+06
  -7.332097e+06  -4.751776e+06
  -1.895549e+06  -6.389583e+06
   3.697317e+06  -2.827955e+06
   5.531955e+06   1.667082e+06
   2.513879e+06   3.714582e+06
  -2.596723e+06   2.308425e+06
  -4.801240e+06  -1.018081e+06
  -2.044875e+06  -2.909701e+06
   1.836198e+06  -1.446641e+06
   1.823643e+06   1.100410e+06
  -1.439011e+06   9.447590e+05
  -2.619569e+06  -1.927042e+06
   7.220815e+05  -3.692404e+06
   4.978609e+06  -1.992601e+06
   5.636686e+06   1.500593e+06
   2.432332e+06   4.253888e+06
  -1.919277e+06   5.577069e+06
  -5.289369e+06   5.120749e+06
  -6.555099e+06   1.852645e+06
  -4.866556e+06  -3.340193e+06
  -9.963687e+05  -6.534961e+06
   2.006586e+06  -5.031959e+06
   1.892129e+06  -1.247281e+06
   1.494192e+05   3.135189e+05
  -8.937577e+04  -1.022835e+06
   1.648698e+06  -1.918281e+06
   2.961383e+06  -2.975949e+05
   2.157056e+06   2.001585e+06
   5.573808e+04   2.247792e+06
  -1.610375e+06   2.237956e+05
  -1.757602e+06  -2.172971e+06
  -8.314988e+03  -3.092244e+06
   2.920439e+06  -1.761095e+06
   4.744305e+06   1.248190e+06
   3.430044e+06   3.992812e+06
  -3.990083e+04   4.508334e+06
  -2.437624e+06   2.898883e+06
  -2.395164e+06   1.199757e+06
  -1.956901e+06   7.017907e+05
  -3.117341e+06   4.811168e+05
  -4.596974e+06  -8.331811e+05
  -3.672733e+06  -2.945538e+06
  -1.173332e+05  -4.364544e+06
   3.401201e+06  -4.112061e+06
   4.411622e+06  -2.241242e+06
   2.813463e+06   4.332114e+05
   3.077869e+05   2.358621e+06
  -1.153104e+06   2.053657e+06
  -5.991888e+05  -3.175320e+04
   1.150257e+06  -1.386646e+06
   2.027465e+06  -4.176534e+05
   9.832251e+05   1.284324e+06
  -5.449765e+05   1.177356e+06
  -4.369196e+05  -4.180134e+05
   1.157482e+06  -7.098326e+05
   1.961438e+06   1.427890e+06
   6.179283e+05   3.732929e+06
  -1.769444e+06   3.578406e+06
  -3.355024e+06   1.096401e+06
  -3.462512e+06  -1.587393e+06
  -2.349876e+06  -2.926520e+06
  -4.523150e+05  -2.744431e+06
   1.313302e+06  -1.541259e+06
   1.666896e+06  -2.400155e+05
   5.221393e+05   5.118642e+04
  -3.749834e+05  -8.008689e+05
   4.541830e+05  -1.429174e+06
   2.043350e+06  -6.043222e+05
   2.161141e+06   9.689843e+05
   3.924221e+05   1.518377e+06
  -1.252729e+06   5.941579e+05
  -9.280430e+05  -4.920296e+05
   9.152465e+05  -5.249662e+05
   2.294211e+06   3.825425e+05
   1.807254e+06   1.453192e+06
  -2.957124e+05   2.066793e+06
  -2.457484e+06   1.721109e+06
  -2.941843e+06   2.661198e+05
  -1.286098e+06  -1.359850e+06
   9.915408e+05  -1.603079e+06
   1.674079e+06  -1.955213e+05
   2.158405e+05   1.157875e+06
  -1.619642e+06   7.766503e+05
  -1.819124e+06  -8.507979e+05
  -3.308302e+05  -1.760534e+06
   1.181355e+06  -1.013704e+06
   1.329248e+06   3.615056e+05
   2.400364e+05   8.398954e+05
  -8.575551e+05   4.969446e+04
  -7.811668e+05  -1.127702e+06
   6.163721e+05  -1.514126e+06
   2.136244e+06  -5.713977e+05
   2.161358e+06   1.125510e+06
   3.952593e+05   2.211349e+06
  -1.548749e+06   1.737544e+06
  -1.839820e+06   2.043611e+05
  -5.202139e+05  -9.314643e+05
   7.104210e+05  -8.446135e+05
   6.637466e+05  -7.759137e+04
  -1.376762e+05   3.644056e+05
  -5.094032e+05   1.989992e+05
  -9.996393e+04  -6.590442e+04
   4.912880e+05   1.104359e+05
   5.363540e+05   7.388894e+05
  -2.432779e+05   1.263630e+06
  -1.480993e+06   9.375100e+05
  -2.209666e+06  -4.571397e+05
  -1.545429e+06  -2.076195e+06
   2.453216e+05  -2.566411e+06
   1.722321e+06  -1.475229e+06
   1.779027e+06   1.566051e+05
   8.826188e+05   9.445744e+05
   3.253391e+05   6.618026e+05
   5.219585e+05   2.157487e+05
   6.842294e+05   3.441195e+05
   9.455360e+04   8.255987e+05
  -9.434834e+05   9.467822e+05
  -1.535814e+06   3.231790e+05
  -1.093481e+06  -7.703508e+05
   2.861743e+05  -1.530138e+06
   1.833601e+06  -1.113872e+06
   2.376166e+06   5.321810e+05
   1.178956e+06   2.241272e+06
  -1.104772e+06   2.506763e+06
  -2.719473e+06   1.066082e+06
  -2.483407e+06  -7.343312e+05
  -9.804923e+05  -1.428974e+06
   2.390881e+05  -9.811608e+05
   4.014786e+05  -5.191428e+05
   5.991432e+04  -8.016576e+05
   1.038306e+05  -1.404318e+06
   7.243711e+05  -1.377245e+06
   1.384511e+06  -3.351596e+05
   1.418627e+06   1.152797e+06
   5.830423e+05   2.013622e+06
  -6.656474e+05   1.522565e+06
  -1.363115e+06  -1.371108e+04
  -8.495344e+05  -1.376255e+06
   4.371843e+05  -1.481365e+06
   1.253205e+06  -4.067051e+05
   8.588677e+05   7.710587e+05
  -1.551746e+05   1.155631e+06
  -5.970385e+05   8.239833e+05
  -1.021242e+05   4.318881e+05
   4.627673e+05   3.535873e+05
   6.455164e+04   4.051457e+05
  -1.228989e+06   2.134300e+05
  -2.200288e+06  -3.692701e+05
  -1.711606e+06  -1.118065e+06
   6.293974e+04  -1.534629e+06
   1.711319e+06  -1.207450e+06
   1.952770e+06  -2.735912e+05
   8.768313e+05   5.494985e+05
  -2.883153e+05   6.122218e+05
  -5.489185e+05   2.467036e+04
  -3.691058e+04  -4.597441e+05
   4.645547e+05  -2.764994e+05
   5.127278e+05   3.645969e+05
   2.829268e+05   7.640957e+05
   1.157839e+05   5.081969e+05
   1.442999e+05  -8.847998e+04
   2.848845e+05  -2.949014e+05
   2.880924e+05   2.498744e+05
  -1.456053e+05   1.041063e+06
  -9.599640e+05   1.131916e+06
  -1.467726e+06   1.928416e+05
  -9.228287e+05  -9.735113e+05
   4.446819e+05  -1.225635e+06
   1.349365e+06  -3.722121e+05
   7.806100e+05   6.047144e+05
  -7.531776e+05   6.817998e+05
  -1.677419e+06  -1.198316e+05
  -1.037810e+06  -9.263183e+05
   5.379489e+05  -1.031230e+06
   1.587811e+06  -4.727413e+05
   1.289559e+06   2.235546e+05
   1.293787e+05   5.415106e+05
  -6.933827e+05   2.727839e+05
  -4.140150e+05  -3.206499e+05
   6.123766e+05  -5.647464e+05
   1.259547e+06   7.042030e+04
   7.338785e+05   1.246949e+06
  -6.017328e+05   1.819072e+06
  -1.564667e+06   9.581647e+05
  -1.336005e+06  -7.953313e+05
  -2.183380e+05  -1.897445e+06
   7.867922e+05  -1.360335e+06
   9.771479e+05   2.049566e+05
   4.385550e+05   1.268195e+06
  -2.571871e+05   1.015113e+06
  -6.036150e+05   7.837481e+04
  -4.773539e+05  -3.971321e+05
  -1.544574e+05  -1.395630e+05
  -5.901320e+04   9.498154e+04
  -3.243557e+05  -3.278204e+05
  -5.508334e+05  -1.032446e+06
  -1.778659e+05  -1.140169e+06
   7.865042e+05  -4.135550e+05
   1.561674e+06   4.934911e+05
   1.335392e+06   8.884517e+05
   1.931729e+05   7.467595e+05
  -8.848844e+05   4.487446e+05
  -1.036833e+06   1.858361e+05
  -4.010654e+05  -6.965042e+04
   1.457868e+05  -2.424698e+05
   6.348013e+04  -2.040709e+05
  -2.537724e+05  -8.358899e+04
  -6.552471e+04  -1.399177e+05
   6.716895e+05  -2.655282e+05
   1.117044e+06  -1.561206e+03
   5.070201e+05   7.402495e+05
  -8.608695e+05   1.276068e+06
  -1.824664e+06   8.358427e+05
  -1.541960e+06  -4.340191e+05
  -3.138271e+05  -1.489078e+06
   8.159489e+05  -1.478322e+06
   1.114378e+06  -6.008177e+05
   6.949093e+05   2.249813e+05
   1.584633e+05   3.813481e+05
  -4.764684e+04   9.068752e+04
   9.587446e+04   3.417202e+03
   3.069743e+05   3.985640e+05
   2.555584e+05   8.582047e+05
  -1.791276e+05   7.313444e+05
  -7.201574e+05  -1.005212e+05
  -8.152930e+05  -9.844277e+05
  -1.694426e+05  -1.101262e+06
   7.797184e+05  -3.038205e+05
   1.120377e+06   7.265028e+05
   4.039015e+05   1.158359e+06
  -7.471383e+05   7.533715e+05
  -1.208026e+06  -5.857726e+04
  -5.904589e+05  -6.695441e+05
   3.015478e+05  -7.550108e+05
   4.275491e+05  -4.019344e+05
  -2.334406e+05   5.437848e+03
  -6.830241e+05   5.384133e+04
  -1.697413e+05  -3.325247e+05
   8.716853e+05  -7.266027e+05
   1.360668e+06  -5.637255e+05
   8.433125e+05   2.060861e+05
  -9.087766e+04   9.387619e+05
  -6.061520e+05   9.292267e+05
  -4.829791e+05   1.988457e+05
  -7.965470e+04  -4.968720e+05
   2.439831e+05  -4.835476e+05
   3.754440e+05   1.241316e+05
   2.820239e+05   6.105298e+05
  -4.376146e+04   4.818155e+05
  -4.183415e+05  -3.004935e+04
  -5.193719e+05  -3.132364e+05
  -2.592116e+05  -1.177249e+05
   5.248059e+04   1.823401e+05
   8.804432e+04   9.201034e+04
  -5.800270e+04  -3.583554e+05
  -1.080153e+04  -6.196264e+05
   3.193463e+05  -2.907378e+05
   5.328109e+05   3.633853e+05
   2.282919e+05   6.839258e+05
  -4.154767e+05   3.557005e+05
  -7.317780e+05  -2.686625e+05
  -2.941540e+05  -5.952548e+05
   5.443175e+05  -4.006982e+05
   9.591523e+05   5.446961e+04
   5.246497e+05   3.946595e+05
  -3.074490e+05   4.532989e+05
  -6.859812e+05   2.801080e+05
  -2.905065e+05   2.764863e+04
   3.344737e+05  -1.034007e+05
   4.224461e+05   2.701270e+04
  -1.464909e+05   2.926343e+05
  -7.418406e+05   3.026323e+05
