
 $NMID
 id='ANONYMOUS ', fmtdat='(2E16.6)'
 volume=1.0
 tramp=1.0
 $END
   4.787527e+07   1.155554e+06
   2.839336e+07   2.917977e+07
  -6.202443e+06   3.178449e+07
  -2.314292e+07   1.299903e+07
  -1.419426e+07  -4.990840e+06
   2.379463e+06  -7.881418e+06
   8.406989e+06   3.673626e+05
   2.923884e+06   8.138893e+06
  -4.853518e+06   8.558784e+06
  -8.260805e+06   2.180634e+06
  -6.139609e+06  -5.512968e+06
  -6.440918e+05  -7.758378e+06
   3.653660e+06  -2.257824e+06
   2.463550e+06   5.216234e+06
  -3.158776e+06   6.146285e+06
  -6.828139e+06  -9.396397e+05
  -3.937724e+06  -8.831915e+06
   3.243450e+06  -1.023428e+07
   8.791707e+06  -4.941346e+06
   9.207254e+06   2.121135e+06
   5.236391e+06   6.606063e+06
   1.627740e+05   7.088763e+06
  -2.312021e+06   4.681193e+06
  -8.143227e+05   2.327293e+06
   1.558461e+06   2.546940e+06
   2.721941e+04   4.315536e+06
  -5.456906e+06   3.905794e+06
  -9.033863e+06   1.137236e+04
  -6.163174e+06  -4.028530e+06
   3.051486e+05  -4.544046e+06
   3.867996e+06  -1.990576e+06
   2.295186e+06   5.701777e+05
  -1.118034e+06   1.373598e+06
  -2.818456e+06   4.104087e+05
  -2.211006e+06  -1.892673e+06
  -2.452650e+05  -4.007850e+06
   1.899723e+06  -3.262929e+06
   2.578223e+06   5.694298e+05
   9.998710e+05   3.251995e+06
  -8.179634e+05   1.168740e+06
  -7.733896e+04  -2.721063e+06
   2.325585e+06  -2.263128e+06
   2.218430e+06   2.692535e+06
  -1.816676e+06   5.199720e+06
  -5.542989e+06   8.264374e+05
  -4.151663e+06  -5.837712e+06
   1.608322e+06  -7.143825e+06
   6.413656e+06  -1.968856e+06
   6.297191e+06   3.936352e+06
   1.902090e+06   5.443852e+06
  -3.076944e+06   2.652321e+06
  -4.952340e+06  -1.146191e+06
  -2.468387e+06  -3.037185e+06
   1.963398e+06  -2.003113e+06
   3.974535e+06   7.054461e+05
   1.791947e+06   2.300628e+06
  -1.472304e+06   1.196619e+06
  -1.683805e+06  -8.772004e+05
   8.863151e+05  -9.658558e+05
   2.128979e+06   1.112089e+06
  -1.762539e+05   2.612151e+06
  -3.599357e+06   1.631940e+06
  -4.493357e+06  -9.271544e+05
  -2.077444e+06  -3.319829e+06
   1.756492e+06  -4.700543e+06
   4.842521e+06  -4.325499e+06
   5.749542e+06  -1.362747e+06
   3.969402e+06   3.090609e+06
   6.840986e+05   5.685523e+06
  -1.564906e+06   4.420635e+06
  -1.406330e+06   1.405222e+06
  -2.872401e+05   1.768902e+05
  -4.651823e+05   1.112081e+06
  -1.978274e+06   1.506796e+06
  -2.851807e+06  -1.727790e+05
  -1.856783e+06  -2.232895e+06
   2.164918e+05  -2.279768e+06
   1.777857e+06  -1.709803e+05
   1.749705e+06   2.194128e+06
  -8.437366e+04   2.922921e+06
  -2.739614e+06   1.432964e+06
  -4.107243e+06  -1.351756e+06
  -2.744459e+06  -3.537657e+06
   1.890208e+05  -3.700264e+06
   2.020082e+06  -2.276888e+06
   1.880238e+06  -1.004257e+06
   1.612397e+06  -7.427012e+05
   2.789821e+06  -5.709294e+05
   4.189304e+06   6.564985e+05
   3.398457e+06   2.644416e+06
   1.507143e+05   4.036037e+06
  -3.183683e+06   3.825512e+06
  -4.188560e+06   1.989880e+06
  -2.598709e+06  -5.727341e+05
  -1.109782e+05  -2.272451e+06
   1.221441e+06  -1.847201e+06
   5.466900e+05   9.303686e+04
  -1.122204e+06   1.267599e+06
  -1.839092e+06   3.658703e+05
  -8.258881e+05  -1.170292e+06
   5.602677e+05  -1.111441e+06
   5.157228e+05   3.488115e+05
  -8.713465e+05   8.139193e+05
  -1.765495e+06  -9.153329e+05
  -9.011341e+05  -3.137489e+06
   1.127441e+06  -3.439235e+06
   2.875458e+06  -1.464142e+06
   3.404729e+06   1.151917e+06
   2.494370e+06   2.726846e+06
   5.411118e+05   2.683337e+06
  -1.269624e+06   1.469640e+06
  -1.598094e+06   1.958636e+05
  -4.885947e+05  -4.597003e+04
   3.579245e+05   7.388823e+05
  -3.774762e+05   1.280449e+06
  -1.812336e+06   5.563524e+05
  -1.965508e+06  -8.144729e+05
  -4.092262e+05  -1.341946e+06
   1.135036e+06  -5.845000e+05
   9.331944e+05   4.314349e+05
  -7.834388e+05   5.986666e+05
  -2.215627e+06  -1.895897e+05
  -1.867352e+06  -1.314960e+06
   1.570080e+05  -2.033622e+06
   2.286700e+06  -1.717256e+06
   2.759332e+06  -2.987229e+05
   1.193977e+06   1.220609e+06
  -8.929823e+05   1.430249e+06
  -1.483903e+06   1.652535e+05
  -1.607067e+05  -1.041034e+06
   1.490004e+06  -7.158982e+05
   1.702880e+06   7.416579e+05
   3.910296e+05   1.619979e+06
  -1.023531e+06   1.018083e+06
  -1.250906e+06  -2.346598e+05
  -2.924738e+05  -7.412447e+05
   7.519618e+05  -5.977438e+04
   7.126452e+05   1.035536e+06
  -5.873186e+05   1.402268e+06
  -1.998209e+06   5.176724e+05
  -2.008193e+06  -1.053045e+06
  -3.783417e+05  -2.047010e+06
   1.405589e+06  -1.624374e+06
   1.698782e+06  -2.300592e+05
   5.203633e+05   8.444040e+05
  -6.363363e+05   8.101649e+05
  -6.607062e+05   8.002916e+04
   7.918971e+04  -4.090997e+05
   5.217823e+05  -2.747064e+05
   2.173905e+05   6.324356e+04
  -3.816517e+05  -4.576837e+03
  -5.294567e+05  -5.958545e+05
   1.600817e+05  -1.157091e+06
   1.350774e+06  -8.980709e+05
   2.062661e+06   4.009074e+05
   1.450214e+06   1.924431e+06
  -2.125553e+05   2.416800e+06
  -1.602851e+06   1.448548e+06
  -1.715998e+06  -8.262269e+04
  -9.259816e+05  -9.184049e+05
  -3.548895e+05  -7.430851e+05
  -4.335864e+05  -2.888526e+05
  -5.559925e+05  -2.995786e+05
  -7.351993e+04  -7.199449e+05
   8.480367e+05  -9.025019e+05
   1.444278e+06  -3.584720e+05
   1.090637e+06   7.202158e+05
  -2.082595e+05   1.496465e+06
  -1.708725e+06   1.104962e+06
  -2.253022e+06  -4.641430e+05
  -1.156695e+06  -2.069294e+06
   9.542248e+05  -2.338306e+06
   2.482570e+06  -1.054338e+06
   2.350771e+06   5.966342e+05
   1.022825e+06   1.313241e+06
  -1.531439e+05   9.939280e+05
  -4.190820e+05   5.723603e+05
  -1.579154e+05   7.566409e+05
  -1.502069e+05   1.257462e+06
  -6.588221e+05   1.241560e+06
  -1.262648e+06   3.006851e+05
  -1.319490e+06  -1.080317e+06
  -5.488667e+05  -1.887469e+06
   6.243951e+05  -1.430764e+06
   1.281118e+06  -9.880721e+03
   8.175760e+05   1.249107e+06
  -3.501222e+05   1.376619e+06
  -1.102567e+06   4.402662e+05
  -7.876204e+05  -6.244647e+05
   8.154173e+04  -1.020980e+06
   4.706667e+05  -7.740940e+05
   5.482994e+04  -4.332579e+05
  -4.224289e+05  -3.493289e+05
  -5.334018e+04  -3.882000e+05
   1.119431e+06  -2.129983e+05
   2.019273e+06   3.226693e+05
   1.603617e+06   1.008943e+06
  -5.585340e+03   1.390924e+06
  -1.538221e+06   1.113842e+06
  -1.799663e+06   3.011880e+05
  -8.329360e+05  -4.389443e+05
   2.443721e+05  -5.391537e+05
   4.916265e+05  -5.106766e+04
   9.887499e+03   3.930526e+05
  -4.580182e+05   2.521558e+05
  -4.740467e+05  -3.421775e+05
  -2.198009e+05  -7.367299e+05
  -6.373826e+04  -4.860216e+05
  -1.356846e+05   1.191159e+05
  -2.981036e+05   3.261539e+05
  -2.794907e+05  -2.259538e+05
   1.548340e+05  -9.969049e+05
   8.935091e+05  -1.054229e+06
   1.319638e+06  -1.441460e+05
   8.092333e+05   9.191176e+05
  -4.189363e+05   1.102673e+06
  -1.235983e+06   2.998645e+05
  -7.283860e+05  -5.816352e+05
   6.884970e+05  -6.511028e+05
   1.592384e+06   7.247519e+04
   1.044157e+06   8.405807e+05
  -4.433929e+05   1.005571e+06
  -1.491140e+06   5.258697e+05
  -1.252490e+06  -1.586577e+05
  -1.525827e+05  -5.160544e+05
   6.396680e+05  -2.833510e+05
   3.710069e+05   2.850943e+05
  -6.003114e+05   5.104789e+05
  -1.182881e+06  -1.014149e+05
  -6.483570e+05  -1.195263e+06
   6.189409e+05  -1.697908e+06
   1.499814e+06  -8.721920e+05
   1.258150e+06   7.654581e+05
   2.040479e+05   1.798504e+06
  -7.345671e+05   1.310763e+06
  -9.262144e+05  -1.563702e+05
  -4.506410e+05  -1.184096e+06
   1.921355e+05  -9.760011e+05
   5.527185e+05  -9.257285e+04
   4.838642e+05   3.758320e+05
   1.828381e+05   1.375763e+05
   4.020047e+04  -9.897965e+04
   2.524435e+05   2.903035e+05
   5.015077e+05   9.633232e+05
   2.151040e+05   1.076341e+06
  -6.897510e+05   3.934680e+05
  -1.480827e+06  -4.613233e+05
  -1.301867e+06  -8.284611e+05
  -1.877906e+05  -6.940673e+05
   8.692368e+05  -4.253946e+05
   9.884519e+05  -1.928329e+05
   3.452971e+05   4.749656e+04
  -1.514308e+05   2.268496e+05
  -1.476218e+04   2.080551e+05
   2.869941e+05   9.699160e+04
   4.443674e+04   1.367559e+05
  -6.831458e+05   2.386486e+05
  -1.047907e+06  -1.441128e+04
  -4.094234e+05  -6.988346e+05
   8.590510e+05  -1.178353e+06
   1.693646e+06  -7.461613e+05
   1.398563e+06   4.449293e+05
   2.749734e+05   1.412855e+06
  -7.619674e+05   1.373103e+06
  -1.053642e+06   5.319153e+05
  -6.630718e+05  -2.378629e+05
  -1.286461e+05  -3.610599e+05
   8.692630e+04  -6.386286e+04
  -7.201583e+04   2.474291e+04
  -3.067904e+05  -3.598772e+05
  -2.559501e+05  -8.058792e+05
   1.811298e+05  -6.794064e+05
   6.898998e+05   1.258093e+05
   7.412628e+05   9.622243e+05
   1.063635e+05   1.038710e+06
  -7.666692e+05   2.445016e+05
  -1.042424e+06  -7.293844e+05
  -3.465356e+05  -1.093525e+06
   7.177811e+05  -6.749949e+05
   1.117289e+06   7.584553e+04
   5.246047e+05   6.070573e+05
  -2.893922e+05   6.701622e+05
  -3.705783e+05   3.626435e+05
   2.599530e+05   5.916403e+03
   6.540740e+05  -4.244517e+04
   1.439238e+05   3.080934e+05
  -8.230682e+05   6.852999e+05
  -1.246676e+06   5.491538e+05
  -7.506416e+05  -1.725918e+05
   9.541275e+04  -8.683014e+05
   5.434352e+05  -8.516208e+05
   4.208976e+05  -1.519885e+05
   5.405881e+04   4.865976e+05
  -2.422165e+05   4.339041e+05
  -3.593232e+05  -1.528563e+05
  -2.567861e+05  -5.782580e+05
   5.726564e+04  -4.229636e+05
   3.940400e+05   4.599951e+04
   4.718940e+05   2.751937e+05
   2.401869e+05   9.071859e+04
  -2.740696e+04  -1.470580e+05
  -7.453360e+04  -3.107339e+04
   7.318104e+03   3.661136e+05
  -6.669420e+04   5.540541e+05
  -3.324269e+05   2.112813e+05
  -4.584922e+05  -3.926344e+05
  -1.496160e+05  -6.586511e+05
   4.133145e+05  -3.171287e+05
   6.667100e+05   2.839103e+05
   2.567842e+05   5.786086e+05
  -5.051880e+05   3.669933e+05
  -8.836938e+05  -7.611867e+04
  -4.808444e+05  -3.772152e+05
   2.958312e+05  -3.983596e+05
   6.423014e+05  -2.255907e+05
   2.469754e+05  -1.489234e+04
  -3.575409e+05   7.177213e+04
  -4.175969e+05  -6.555157e+04
   1.683574e+05  -3.018554e+05
   7.522714e+05  -2.848300e+05
