
 $NMID
 id='ANONYMOUS ', fmtdat='(2E16.6)'
 volume=1.0
 tramp=1.0
 $END
   2.008662e+07   1.161890e+06
   1.216585e+07   1.142250e+07
  -1.928989e+06   1.297642e+07
  -9.532972e+06   6.540526e+06
  -6.608532e+06  -9.426743e+05
   4.405399e+05  -3.505310e+06
   3.883404e+06  -7.095284e+05
   2.054651e+06   3.434901e+06
  -1.679565e+06   4.569082e+06
  -3.724078e+06   1.567790e+06
  -2.845317e+06  -2.636141e+06
  -1.627898e+05  -3.823029e+06
   1.841814e+06  -8.464976e+05
   1.227062e+06   2.953388e+06
  -1.384083e+06   3.346614e+06
  -3.132764e+06  -1.308223e+05
  -1.915108e+06  -3.934952e+06
   1.360126e+06  -4.601437e+06
   3.888795e+06  -2.029901e+06
   3.841786e+06   1.247709e+06
   1.773817e+06   2.916980e+06
  -2.690116e+05   2.593221e+06
  -6.250965e+05   1.532634e+06
   5.201572e+05   1.243023e+06
   1.187627e+06   2.031710e+06
  -3.599034e+05   2.647304e+06
  -3.300116e+06   1.685970e+06
  -4.675005e+06  -5.800015e+05
  -2.741500e+06  -2.298663e+06
   7.361239e+05  -2.098799e+06
   2.392441e+06  -4.939152e+05
   1.055064e+06   9.293823e+05
  -1.300882e+06   1.084913e+06
  -2.184723e+06  -5.166625e+04
  -1.141271e+06  -1.649013e+06
   4.553357e+05  -2.357450e+06
   1.199881e+06  -1.275920e+06
   7.784319e+05   7.299925e+05
  -9.834722e+04   1.440532e+06
  -3.828309e+05  -6.190453e+04
   3.528776e+05  -1.808205e+06
   1.309083e+06  -1.260913e+06
   1.139020e+06   1.144066e+06
  -4.245187e+05   2.299939e+06
  -1.932735e+06   4.870612e+05
  -1.641898e+06  -2.319299e+06
   5.333061e+05  -2.948971e+06
   2.789434e+06  -7.994231e+05
   3.125900e+06   1.868175e+06
   1.164770e+06   2.737602e+06
  -1.515918e+06   1.528010e+06
  -2.710416e+06  -3.900935e+05
  -1.518691e+06  -1.472512e+06
   7.661867e+05  -1.073203e+06
   1.882367e+06   1.994872e+05
   9.479753e+05   1.003383e+06
  -6.443342e+05   5.748570e+05
  -9.624288e+05  -4.215371e+05
   1.557433e+05  -7.085913e+05
   1.061072e+06   3.249005e+04
   4.371825e+05   8.744962e+05
  -1.142187e+06   8.525764e+05
  -1.968543e+06  -9.065814e+04
  -1.055689e+06  -1.349912e+06
   1.004469e+06  -2.195845e+06
   2.713495e+06  -1.951189e+06
   2.927196e+06  -3.701390e+05
   1.687192e+06   1.741572e+06
   9.626209e+04   2.866040e+06
  -7.045468e+05   2.307076e+06
  -5.867537e+05   1.034932e+06
  -3.890474e+05   4.562990e+05
  -7.934379e+05   6.472370e+05
  -1.490690e+06   4.849367e+05
  -1.618791e+06  -5.755993e+05
  -8.040933e+05  -1.618848e+06
   4.541571e+05  -1.417961e+06
   1.265761e+06   2.974886e+04
   1.016707e+06   1.474459e+06
  -2.139387e+05   1.694475e+06
  -1.583840e+06   5.634844e+05
  -1.999637e+06  -9.878547e+05
  -1.107461e+06  -1.847536e+06
   2.478273e+05  -1.636730e+06
   9.117227e+05  -9.151312e+05
   7.663426e+05  -4.837704e+05
   7.678046e+05  -4.970195e+05
   1.525040e+06  -3.847902e+05
   2.308097e+06   3.572419e+05
   1.865362e+06   1.503436e+06
   2.547755e+04   2.287554e+06
  -1.923476e+06   2.091492e+06
  -2.492497e+06   9.241700e+05
  -1.421996e+06  -5.408161e+05
   1.624964e+05  -1.336299e+06
   8.698165e+05  -9.400861e+05
   2.975101e+05   1.230445e+05
  -7.135791e+05   6.715127e+05
  -1.021307e+06   1.548949e+05
  -3.729241e+05  -6.556653e+05
   4.045571e+05  -6.342755e+05
   4.007959e+05   1.948722e+05
  -3.609551e+05   6.257802e+05
  -1.012710e+06  -1.802399e+05
  -7.876700e+05  -1.575457e+06
   2.956947e+05  -2.130862e+06
   1.544686e+06  -1.199333e+06
   2.130356e+06   4.975663e+05
   1.617339e+06   1.684726e+06
   3.186865e+05   1.679605e+06
  -8.107791e+05   8.229208e+05
  -9.537247e+05   3.308512e+04
  -2.801823e+05  -4.071233e+04
   1.982371e+05   4.265333e+05
  -1.944354e+05   6.898742e+05
  -9.701634e+05   2.888155e+05
  -1.085673e+06  -4.281818e+05
  -2.595927e+05  -7.297909e+05
   6.420133e+05  -3.503088e+05
   5.970554e+05   2.530629e+05
  -4.118906e+05   4.341358e+05
  -1.355698e+06  -2.599861e+04
  -1.202589e+06  -7.947286e+05
   5.495204e+04  -1.274600e+06
   1.368144e+06  -1.023590e+06
   1.611581e+06  -1.393301e+05
   6.574969e+05   6.908525e+05
  -5.096525e+05   7.485576e+05
  -7.872642e+05   5.618632e+04
  -4.072050e+04  -5.620962e+05
   8.522893e+05  -3.724043e+05
   9.749150e+05   4.234708e+05
   2.612614e+05   9.384714e+05
  -5.598704e+05   6.416546e+05
  -7.470176e+05  -7.610335e+04
  -2.250531e+05  -4.128947e+05
   3.888684e+05  -4.628154e+04
   3.743286e+05   5.839274e+05
  -3.724680e+05   7.726470e+05
  -1.151619e+06   2.326471e+05
  -1.112341e+06  -6.522439e+05
  -1.757069e+05  -1.168538e+06
   8.141195e+05  -9.045460e+05
   9.750500e+05  -1.234188e+05
   3.157168e+05   4.884891e+05
  -3.671372e+05   4.791232e+05
  -4.250643e+05   3.070165e+04
   1.709563e+04  -3.048552e+05
   3.591455e+05  -2.192473e+05
   2.343478e+05   6.163872e+04
  -1.623209e+05   8.784930e+04
  -3.255084e+05  -2.733858e+05
   5.790736e+04  -6.448287e+05
   7.682646e+05  -5.018551e+05
   1.170626e+06   2.589515e+05
   7.867126e+05   1.125684e+06
  -1.764863e+05   1.398430e+06
  -9.675146e+05   8.510472e+05
  -1.042528e+06  -4.947230e+04
  -5.870850e+05  -6.078576e+05
  -1.999781e+05  -5.606497e+05
  -1.705003e+05  -2.449742e+05
  -2.357372e+05  -1.474436e+05
  -1.644512e+04  -3.595814e+05
   4.818619e+05  -5.100676e+05
   8.488905e+05  -2.116340e+05
   6.594782e+05   4.534681e+05
  -1.203491e+05   9.170829e+05
  -1.011464e+06   6.419415e+05
  -1.309673e+06  -3.015374e+05
  -6.629452e+05  -1.201790e+06
   5.341315e+05  -1.325503e+06
   1.407657e+06  -6.034317e+05
   1.377370e+06   3.294436e+05
   6.531840e+05   7.827092e+05
  -6.612996e+04   6.504545e+05
  -3.135788e+05   3.864291e+05
  -2.057682e+05   4.142761e+05
  -1.579770e+05   6.550095e+05
  -3.854619e+05   6.556454e+05
  -7.001122e+05   1.333576e+05
  -7.203410e+05  -6.553641e+05
  -2.666684e+05  -1.101735e+06
   3.995268e+05  -8.102792e+05
   7.460354e+05   7.909982e+03
   4.651235e+05   7.071925e+05
  -1.815543e+05   7.841369e+05
  -5.922091e+05   2.932725e+05
  -4.401972e+05  -2.857193e+05
   2.457393e+03  -5.405350e+05
   2.090912e+05  -4.531531e+05
   1.200018e+04  -2.838322e+05
  -2.164184e+05  -2.270024e+05
  -9.652716e+03  -2.294266e+05
   6.204231e+05  -1.085544e+05
   1.113791e+06   2.106229e+05
   9.011629e+05   5.869929e+05
   2.032556e+04   7.664299e+05
  -8.489275e+05   5.959062e+05
  -1.025410e+06   1.720816e+05
  -4.947938e+05  -2.067496e+05
   1.238960e+05  -2.757661e+05
   2.681322e+05  -4.613421e+04
  -2.263477e+04   1.843425e+05
  -2.917049e+05   1.180366e+05
  -2.554656e+05  -2.107634e+05
  -5.631826e+04  -4.390967e+05
   2.194226e+04  -2.807801e+05
  -8.927191e+04   9.698658e+04
  -2.181821e+05   2.186159e+05
  -1.618406e+05  -1.291371e+05
   1.390400e+05  -5.802135e+05
   5.323637e+05  -5.739708e+05
   6.981414e+05  -2.467630e+04
   3.842804e+05   5.432653e+05
  -2.629240e+05   5.768909e+05
  -6.799284e+05   9.667365e+04
  -3.948868e+05  -3.686825e+05
   4.010907e+05  -3.691175e+05
   9.405880e+05   5.522765e+04
   6.483004e+05   5.027415e+05
  -2.355647e+05   6.143216e+05
  -8.925608e+05   3.363647e+05
  -7.672876e+05  -8.821008e+04
  -1.008304e+05  -3.158252e+05
   3.721657e+05  -1.741590e+05
   1.935521e+05   1.550812e+05
  -3.789515e+05   2.532152e+05
  -6.711153e+05  -1.247040e+05
  -2.957842e+05  -7.212618e+05
   4.547420e+05  -9.393042e+05
   9.131713e+05  -4.259917e+05
   7.021377e+05   4.970176e+05
   5.999577e+04   1.058460e+06
  -4.650491e+05   7.664361e+05
  -5.451909e+05  -8.452020e+04
  -2.641039e+05  -6.970588e+05
   9.586794e+04  -5.895099e+05
   3.110671e+05  -5.939856e+04
   3.014173e+05   2.404010e+05
   1.366279e+05   9.876794e+04
   1.416849e+04  -6.900914e+04
   9.176846e+04   1.458417e+05
   2.482594e+05   5.605364e+05
   1.378300e+05   6.436446e+05
  -3.638105e+05   2.231624e+05
  -8.546767e+05  -3.102795e+05
  -7.731729e+05  -5.206227e+05
  -9.542420e+04  -3.996111e+05
   5.508343e+05  -2.146242e+05
   5.933468e+05  -9.652408e+04
   1.715134e+05   1.334272e+04
  -1.080760e+05   1.227077e+05
   2.371656e+04   1.452771e+05
   2.044982e+05   9.187576e+04
   4.681938e+03   8.033032e+04
  -4.474185e+05   9.578595e+04
  -5.987997e+05  -5.280747e+04
  -1.515443e+05  -4.028749e+05
   5.730653e+05  -6.241913e+05
   9.702569e+05  -3.486487e+05
   7.373580e+05   3.216139e+05
   9.519663e+04   8.314254e+05
  -4.709060e+05   7.552591e+05
  -6.211616e+05   2.437295e+05
  -3.789358e+05  -1.830543e+05
  -4.438312e+04  -2.093248e+05
   8.691041e+04  -4.510583e+03
  -3.118711e+04   4.282091e+04
  -1.874112e+05  -2.062509e+05
  -1.403460e+05  -4.751630e+05
   1.339102e+05  -3.770737e+05
   4.002183e+05   1.245665e+05
   3.685215e+05   6.065011e+05
  -1.986708e+04   5.947486e+05
  -4.730408e+05   7.219058e+04
  -5.599986e+05  -4.936795e+05
  -1.353137e+05  -6.384235e+05
   4.412663e+05  -3.333395e+05
   6.202951e+05   9.189388e+04
   2.612105e+05   3.368726e+05
  -1.825588e+05   3.390464e+05
  -1.904591e+05   1.917188e+05
   1.860795e+05   3.144559e+04
   3.880359e+05   5.289419e+03
   5.990265e+04   1.741278e+05
  -4.992987e+05   3.730609e+05
  -7.093580e+05   3.065211e+05
  -3.930206e+05  -9.199345e+04
   8.687840e+04  -4.830068e+05
   3.085781e+05  -4.608476e+05
   2.077250e+05  -4.936748e+04
  -7.556737e+03   2.964144e+05
  -1.601193e+05   2.205053e+05
  -2.007161e+05  -1.349214e+05
  -1.223377e+05  -3.435551e+05
   5.406063e+04  -2.101856e+05
   2.230303e+05   5.519196e+04
   2.533409e+05   1.506321e+05
   1.371782e+05   3.970148e+04
   3.738236e+03  -5.738943e+04
  -4.685988e+04   3.471711e+04
  -5.816810e+04   2.289289e+05
  -1.217983e+05   2.734612e+05
  -2.150308e+05   4.560776e+04
  -2.011744e+05  -2.794357e+05
  -1.321485e+03  -3.849431e+05
   2.656803e+05  -1.492302e+05
   3.490403e+05   2.085227e+05
   1.081169e+05   3.550384e+05
  -2.938019e+05   1.892293e+05
  -4.850748e+05  -8.938257e+04
  -2.534836e+05  -2.349502e+05
   1.827088e+05  -1.934866e+05
   3.667763e+05  -7.607434e+04
   1.157439e+05   3.651621e+03
  -2.442743e+05  -2.697325e+03
  -2.500943e+05  -9.312507e+04
   1.413324e+05  -1.883620e+05
   4.954684e+05  -1.305524e+05
