
 $NMID
 id='ANONYMOUS ', fmtdat='(2E16.6)'
 volume=1.0
 tramp=1.0
 $END
  -5.282984e+07  -2.726663e+05
  -3.158805e+07  -3.233267e+07
   6.834194e+06  -3.539438e+07
   2.553649e+07  -1.400910e+07
   1.539299e+07   6.043077e+06
  -2.877989e+06   8.661222e+06
  -9.135896e+06  -8.040655e+05
  -2.862567e+06  -8.982294e+06
   5.499096e+06  -8.977765e+06
   8.980179e+06  -2.125403e+06
   6.681722e+06   5.852081e+06
   8.335827e+05   8.242578e+06
  -3.846742e+06   2.582509e+06
  -2.660532e+06  -5.308628e+06
   3.400751e+06  -6.388593e+06
   7.402105e+06   1.113589e+06
   4.288981e+06   9.571993e+06
  -3.470659e+06   1.114082e+07
  -9.520602e+06   5.558426e+06
  -1.017395e+07  -2.032437e+06
  -6.087225e+06  -7.129060e+06
  -4.665746e+05  -8.027570e+06
   2.687438e+06  -5.451199e+06
   1.386307e+06  -2.443240e+06
  -1.408962e+06  -2.241065e+06
  -2.768656e+05  -4.264126e+06
   5.388968e+06  -4.325516e+06
   9.449360e+06  -4.373287e+05
   6.753592e+06   4.035676e+06
   6.141351e+04   4.909834e+06
  -3.804878e+06   2.430600e+06
  -2.476889e+06  -2.059872e+05
   7.518365e+05  -1.213897e+06
   2.517921e+06  -5.831137e+05
   2.299817e+06   1.579547e+06
   6.031412e+05   4.010208e+06
  -1.830175e+06   3.654554e+06
  -3.011528e+06  -3.161629e+05
  -1.438338e+06  -3.523672e+06
   8.475451e+05  -1.619445e+06
   3.210625e+05   2.603906e+06
  -2.353688e+06   2.331882e+06
  -2.361369e+06  -2.949530e+06
   2.136126e+06  -5.711077e+06
   6.339702e+06  -9.183856e+05
   4.725829e+06   6.459644e+06
  -1.754762e+06   7.937605e+06
  -6.991498e+06   2.270914e+06
  -6.714770e+06  -4.149454e+06
  -1.941521e+06  -5.732620e+06
   3.251299e+06  -2.721421e+06
   5.122176e+06   1.278108e+06
   2.471948e+06   3.234165e+06
  -2.196468e+06   2.114244e+06
  -4.286266e+06  -7.943974e+05
  -1.892784e+06  -2.515867e+06
   1.604075e+06  -1.305230e+06
   1.723818e+06   9.305982e+05
  -1.105595e+06   9.186178e+05
  -2.289510e+06  -1.458715e+06
   4.447904e+05  -3.040491e+06
   4.169335e+06  -1.766971e+06
   4.931324e+06   1.144508e+06
   2.226733e+06   3.668341e+06
  -1.732875e+06   5.061613e+06
  -4.896428e+06   4.720875e+06
  -6.017625e+06   1.670208e+06
  -4.386391e+06  -3.104458e+06
  -9.141493e+05  -5.981547e+06
   1.667476e+06  -4.632874e+06
   1.557729e+06  -1.301979e+06
   1.707924e+05   4.311438e+04
   1.509478e+05  -1.103981e+06
   1.770356e+06  -1.756118e+06
   2.889106e+06  -1.281745e+05
   2.044239e+06   2.048807e+06
  -1.589167e+04   2.246259e+06
  -1.662082e+06   2.554217e+05
  -1.781859e+06  -2.091978e+06
  -3.045422e+04  -2.954946e+06
   2.756330e+06  -1.624162e+06
   4.375312e+06   1.208402e+06
   3.081464e+06   3.659227e+06
  -7.181498e+04   4.028539e+06
  -2.162223e+06   2.552972e+06
  -2.074558e+06   1.090819e+06
  -1.720077e+06   7.273664e+05
  -2.867184e+06   5.706197e+05
  -4.304951e+06  -6.400609e+05
  -3.512847e+06  -2.659824e+06
  -2.207339e+05  -4.105264e+06
   3.137273e+06  -3.959294e+06
   4.174035e+06  -2.171313e+06
   2.676199e+06   4.381539e+05
   2.602167e+05   2.280401e+06
  -1.128527e+06   1.948095e+06
  -5.683540e+05  -5.141473e+04
   1.087116e+06  -1.328895e+06
   1.886617e+06  -4.200233e+05
   9.084582e+05   1.190857e+06
  -5.165962e+05   1.137478e+06
  -4.728637e+05  -3.551423e+05
   9.602336e+05  -7.510756e+05
   1.811033e+06   1.107099e+06
   7.906263e+05   3.311912e+06
  -1.325567e+06   3.418961e+06
  -2.977156e+06   1.303158e+06
  -3.362300e+06  -1.244978e+06
  -2.436346e+06  -2.685561e+06
  -5.589719e+05  -2.636295e+06
   1.228646e+06  -1.506687e+06
   1.596462e+06  -2.526150e+05
   4.954716e+05   3.643339e+04
  -3.751318e+05  -7.452296e+05
   3.821073e+05  -1.331118e+06
   1.875005e+06  -6.015093e+05
   2.031073e+06   8.323310e+05
   4.168444e+05   1.387494e+06
  -1.153847e+06   6.007326e+05
  -9.204497e+05  -4.255548e+05
   8.079460e+05  -5.644278e+05
   2.199631e+06   2.207020e+05
   1.828140e+06   1.297098e+06
  -1.650455e+05   2.002672e+06
  -2.274244e+06   1.736256e+06
  -2.780204e+06   3.408441e+05
  -1.237483e+06  -1.236369e+06
   8.955650e+05  -1.501789e+06
   1.542940e+06  -2.032058e+05
   2.040121e+05   1.076228e+06
  -1.507010e+06   7.627765e+05
  -1.737035e+06  -7.401620e+05
  -3.890044e+05  -1.639389e+06
   1.050017e+06  -1.012304e+06
   1.260598e+06   2.618804e+05
   2.747300e+05   7.621324e+05
  -7.856856e+05   6.752022e+04
  -7.542500e+05  -1.044008e+06
   5.578269e+05  -1.442632e+06
   2.013622e+06  -5.795189e+05
   2.065560e+06   1.021328e+06
   4.241004e+05   2.075173e+06
  -1.408775e+06   1.674484e+06
  -1.723621e+06   2.498039e+05
  -5.265827e+05  -8.549655e+05
   6.394122e+05  -8.228323e+05
   6.469825e+05  -9.522574e+04
  -9.044769e+04   3.780933e+05
  -4.921485e+05   2.493308e+05
  -1.590497e+05  -4.806489e+04
   4.180172e+05   5.216654e+04
   5.281417e+05   6.371994e+05
  -1.715370e+05   1.182732e+06
  -1.363083e+06   9.273862e+05
  -2.098518e+06  -3.722532e+05
  -1.509563e+06  -1.924324e+06
   1.670676e+05  -2.443064e+06
   1.588934e+06  -1.468124e+06
   1.708128e+06   7.285420e+04
   9.100460e+05   8.829826e+05
   3.602646e+05   6.767802e+05
   4.805887e+05   2.421810e+05
   6.112761e+05   3.083675e+05
   9.479633e+04   7.549853e+05
  -8.538286e+05   9.221049e+05
  -1.445580e+06   3.687270e+05
  -1.086501e+06  -6.983827e+05
   2.011371e+05  -1.482142e+06
   1.703004e+06  -1.126098e+06
   2.274456e+06   4.326305e+05
   1.189754e+06   2.078909e+06
  -9.535621e+05   2.387666e+06
  -2.517105e+06   1.091095e+06
  -2.373431e+06  -5.942692e+05
  -1.010251e+06  -1.310341e+06
   1.623014e+05  -9.657616e+05
   3.821352e+05  -5.484340e+05
   8.989147e+04  -7.745500e+05
   1.005418e+05  -1.309908e+06
   6.520444e+05  -1.295032e+06
   1.289569e+06  -3.376042e+05
   1.365337e+06   1.063422e+06
   5.979101e+05   1.896891e+06
  -5.981633e+05   1.460386e+06
  -1.292650e+06   2.835373e+04
  -8.422477e+05  -1.264162e+06
   3.537092e+05  -1.402456e+06
   1.137620e+06  -4.353428e+05
   8.127146e+05   6.649940e+05
  -9.619201e+04   1.061721e+06
  -5.035053e+05   7.864700e+05
  -6.419903e+04   4.219838e+05
   4.425673e+05   3.351806e+05
   6.735530e+04   3.875683e+05
  -1.143055e+06   2.324543e+05
  -2.070610e+06  -2.946219e+05
  -1.643358e+06  -1.003500e+06
   4.160543e+03  -1.427754e+06
   1.565475e+06  -1.166881e+06
   1.826202e+06  -3.212213e+05
   8.415165e+05   4.628791e+05
  -2.505414e+05   5.668659e+05
  -5.056948e+05   4.710186e+04
  -2.884813e+04  -4.184058e+05
   4.464004e+05  -2.708062e+05
   4.907314e+05   3.354341e+05
   2.641113e+05   7.330704e+05
   9.929697e+04   4.886628e+05
   1.313987e+05  -1.052146e+05
   2.742845e+05  -3.140804e+05
   2.827050e+05   2.252424e+05
  -1.221898e+05   1.002673e+06
  -8.829667e+05   1.090538e+06
  -1.363146e+06   1.912393e+05
  -8.691282e+05  -9.118178e+05
   4.005431e+05  -1.149066e+06
   1.261814e+06  -3.549472e+05
   7.531473e+05   5.641791e+05
  -6.894231e+05   6.671551e+05
  -1.599315e+06  -5.521621e+04
  -1.037298e+06  -8.348227e+05
   4.532824e+05  -1.003032e+06
   1.488609e+06  -5.246127e+05
   1.244673e+06   1.540580e+05
   1.510139e+05   5.118763e+05
  -6.438285e+05   2.866577e+05
  -3.896261e+05  -2.890626e+05
   5.834966e+05  -5.421266e+05
   1.200690e+06   5.686594e+04
   7.058890e+05   1.183710e+06
  -5.593259e+05   1.739905e+06
  -1.482107e+06   9.328403e+05
  -1.289040e+06  -7.346092e+05
  -2.499178e+05  -1.804593e+06
   7.115379e+05  -1.324676e+06
   9.327405e+05   1.541343e+05
   4.629249e+05   1.186886e+06
  -1.948108e+05   9.758263e+05
  -5.623128e+05   9.587586e+04
  -4.800187e+05  -3.644341e+05
  -1.693232e+05  -1.287017e+05
  -4.539249e+04   9.484504e+04
  -2.872350e+05  -3.003604e+05
  -5.369598e+05  -9.663764e+05
  -2.184245e+05  -1.076517e+06
   7.125194e+05  -4.075692e+05
   1.500064e+06   4.317626e+05
   1.310380e+06   8.064021e+05
   2.022509e+05   7.002799e+05
  -8.488178e+05   4.510365e+05
  -9.856638e+05   2.097624e+05
  -3.647262e+05  -5.136942e+04
   1.404834e+05  -2.342984e+05
   3.171786e+04  -1.988781e+05
  -2.689904e+05  -7.823803e+04
  -5.732053e+04  -1.357350e+05
   6.590084e+05  -2.665669e+05
   1.061291e+06  -1.794615e+04
   4.644156e+05   6.998685e+05
  -8.164981e+05   1.225009e+06
  -1.707424e+06   8.119812e+05
  -1.451911e+06  -4.016850e+05
  -3.220523e+05  -1.415664e+06
   7.413230e+05  -1.413075e+06
   1.051264e+06  -5.793072e+05
   6.724461e+05   2.105514e+05
   1.490327e+05   3.619548e+05
  -6.645330e+04   8.059643e+04
   7.930316e+04  -1.112942e+04
   3.080365e+05   3.625352e+05
   2.694429e+05   8.074695e+05
  -1.612129e+05   6.957478e+05
  -6.957387e+05  -9.403939e+04
  -7.869412e+05  -9.379003e+05
  -1.589246e+05  -1.049029e+06
   7.547064e+05  -2.883376e+05
   1.079067e+06   6.896194e+05
   3.928904e+05   1.096674e+06
  -7.038829e+05   7.167426e+05
  -1.141341e+06  -4.118830e+04
  -5.580933e+05  -6.145720e+05
   2.765084e+05  -7.044240e+05
   3.829612e+05  -3.805286e+05
  -2.428886e+05   8.690566e+03
  -6.542307e+05   6.327462e+04
  -1.602380e+05  -3.112844e+05
   8.134177e+05  -7.106981e+05
   1.261644e+06  -5.717863e+05
   7.822106e+05   1.706509e+05
  -7.204340e+04   8.873607e+05
  -5.440768e+05   8.822358e+05
  -4.410457e+05   1.787366e+05
  -7.803689e+04  -4.818895e+05
   2.294831e+05  -4.554592e+05
   3.659730e+05   1.271189e+05
   2.775147e+05   5.765530e+05
  -4.194497e+04   4.450589e+05
  -4.000639e+05  -2.816268e+04
  -4.900540e+05  -2.779761e+05
  -2.450518e+05  -9.642815e+04
   4.050380e+04   1.619373e+05
   7.612445e+04   5.845246e+04
  -4.213796e+04  -3.582950e+05
   1.740869e+04  -5.814032e+05
   3.190540e+05  -2.551425e+05
   4.976829e+05   3.630734e+05
   2.007939e+05   6.586561e+05
  -3.997936e+05   3.405017e+05
  -6.932644e+05  -2.567840e+05
  -2.844262e+05  -5.702599e+05
   5.057558e+05  -3.870357e+05
   9.054861e+05   4.483210e+04
   5.013418e+05   3.675619e+05
  -2.881237e+05   4.239903e+05
  -6.476798e+05   2.619189e+05
  -2.632320e+05   2.452126e+04
   3.394947e+05  -9.698712e+04
   4.159539e+05   3.453703e+04
  -1.454690e+05   2.975439e+05
  -7.253525e+05   3.092227e+05
