
 $NMID
 id='ANONYMOUS ', fmtdat='(2E16.6)'
 volume=1.0
 tramp=1.0
 $END
   3.837863e+07  -4.656645e+05
   2.403588e+07   2.128248e+07
  -3.005408e+06   2.519656e+07
  -1.758366e+07   1.235902e+07
  -1.198146e+07  -2.177390e+06
   1.008089e+06  -6.455212e+06
   6.917745e+06  -8.974818e+05
   3.435237e+06   6.266472e+06
  -3.046670e+06   7.878940e+06
  -6.638013e+06   2.729695e+06
  -5.414822e+06  -4.385122e+06
  -8.260463e+05  -6.681556e+06
   3.095742e+06  -1.890009e+06
   2.446686e+06   4.745367e+06
  -2.219824e+06   5.762270e+06
  -5.707949e+06  -1.732194e+05
  -3.811309e+06  -7.061389e+06
   2.087474e+06  -8.613713e+06
   6.989728e+06  -4.336889e+06
   7.476904e+06   1.613893e+06
   4.098368e+06   5.233091e+06
   7.497252e+04   5.335655e+06
  -1.364978e+06   3.380468e+06
   3.182895e+05   2.031091e+06
   2.000238e+06   2.815105e+06
  -3.561666e+04   4.292966e+06
  -5.146778e+06   3.527044e+06
  -8.118942e+06  -4.849713e+04
  -5.299559e+06  -3.500725e+06
   6.109089e+05  -3.877169e+06
   3.767851e+06  -1.508162e+06
   2.022312e+06   1.005050e+06
  -1.555644e+06   1.732663e+06
  -3.209889e+06   3.753893e+05
  -2.174448e+06  -2.179257e+06
   4.673020e+04  -3.891040e+06
   1.750441e+06  -2.657925e+06
   1.852784e+06   8.336993e+05
   4.550587e+05   2.684881e+06
  -7.164379e+05   4.498492e+05
   9.615891e+04  -2.852453e+06
   2.032302e+06  -2.252070e+06
   2.079123e+06   2.032415e+06
  -9.025059e+05   4.289370e+06
  -4.003614e+06   9.688269e+05
  -3.444194e+06  -4.385439e+06
   8.657355e+05  -5.715901e+06
   5.143456e+06  -1.830987e+06
   5.685146e+06   3.023018e+06
   2.159146e+06   4.646832e+06
  -2.496344e+06   2.664409e+06
  -4.581390e+06  -5.338148e+05
  -2.579833e+06  -2.424150e+06
   1.389464e+06  -1.871084e+06
   3.377508e+06   2.795626e+05
   1.706753e+06   1.753515e+06
  -1.138687e+06   1.074539e+06
  -1.621336e+06  -6.405988e+05
   4.234312e+05  -1.051189e+06
   1.835551e+06   3.693012e+05
   4.090109e+05   1.806371e+06
  -2.439565e+06   1.559090e+06
  -3.664891e+06  -2.520621e+05
  -1.971807e+06  -2.495107e+06
   1.415919e+06  -4.087216e+06
   4.302901e+06  -3.899650e+06
   5.049988e+06  -1.224350e+06
   3.389607e+06   2.711564e+06
   6.819860e+05   4.986237e+06
  -1.032886e+06   4.026554e+06
  -9.843516e+05   1.607635e+06
  -4.154039e+05   5.661822e+05
  -8.705322e+05   1.172583e+06
  -2.171890e+06   1.238391e+06
  -2.756541e+06  -4.414126e+05
  -1.688915e+06  -2.346342e+06
   3.604290e+05  -2.307534e+06
   1.912564e+06  -1.792827e+05
   1.824860e+06   2.162190e+06
  -5.016593e+04   2.798176e+06
  -2.539046e+06   1.281192e+06
  -3.655104e+06  -1.260816e+06
  -2.355716e+06  -3.051966e+06
   1.333535e+05  -3.065857e+06
   1.577422e+06  -1.882579e+06
   1.427810e+06  -9.470043e+05
   1.318997e+06  -8.547714e+05
   2.524545e+06  -7.624525e+05
   3.913266e+06   3.465191e+05
   3.302021e+06   2.279091e+06
   3.378445e+05   3.786843e+06
  -2.871798e+06   3.736052e+06
  -3.942764e+06   1.955037e+06
  -2.449609e+06  -5.855891e+05
  -3.744078e+04  -2.198409e+06
   1.207126e+06  -1.726407e+06
   5.078804e+05   1.235388e+05
  -1.055648e+06   1.219558e+06
  -1.683614e+06   3.987948e+05
  -7.502060e+05  -1.048994e+06
   5.369229e+05  -1.081971e+06
   5.998600e+05   2.847407e+05
  -6.264971e+05   9.505027e+05
  -1.682141e+06  -4.362854e+05
  -1.275598e+06  -2.661121e+06
   4.940747e+05  -3.419436e+06
   2.475862e+06  -1.891097e+06
   3.435658e+06   6.880187e+05
   2.723410e+06   2.500385e+06
   7.102312e+05   2.631154e+06
  -1.183763e+06   1.463753e+06
  -1.539276e+06   2.193772e+05
  -4.648841e+05  -2.373241e+04
   3.756983e+05   6.801625e+05
  -2.652083e+05   1.186622e+06
  -1.615507e+06   5.971536e+05
  -1.856722e+06  -6.175062e+05
  -4.803091e+05  -1.197420e+06
   1.028661e+06  -6.274412e+05
   9.633485e+05   3.543635e+05
  -6.638316e+05   6.983967e+05
  -2.180968e+06   4.774800e+04
  -1.978115e+06  -1.148366e+06
  -2.602116e+04  -2.029920e+06
   2.100214e+06  -1.810806e+06
   2.616489e+06  -4.312583e+05
   1.174823e+06   1.069161e+06
  -7.599492e+05   1.335149e+06
  -1.331837e+06   2.028810e+05
  -1.598443e+05  -9.451758e+05
   1.365886e+06  -7.301704e+05
   1.650192e+06   5.930511e+05
   5.040311e+05   1.506297e+06
  -8.694005e+05   1.070969e+06
  -1.211423e+06  -8.834918e+04
  -3.671586e+05  -6.620000e+05
   6.716631e+05  -1.033132e+05
   7.056828e+05   9.368916e+05
  -5.087957e+05   1.342616e+06
  -1.874525e+06   5.566840e+05
  -1.935499e+06  -9.197928e+05
  -4.471836e+05  -1.910250e+06
   1.234765e+06  -1.597528e+06
   1.587059e+06  -3.167868e+05
   5.559007e+05   7.629142e+05
  -5.520523e+05   8.135256e+05
  -6.605951e+05   1.039635e+05
   2.043766e+04  -4.556069e+05
   5.296714e+05  -3.559654e+05
   3.163683e+05   6.061052e+04
  -3.005548e+05   1.014974e+05
  -5.554973e+05  -4.630114e+05
   4.596088e+04  -1.086178e+06
   1.216944e+06  -9.255059e+05
   1.970405e+06   2.758093e+05
   1.456151e+06   1.753757e+06
  -9.470861e+04   2.315516e+06
  -1.462675e+06   1.494843e+06
  -1.679360e+06   3.828221e+04
  -9.955228e+05  -8.724142e+05
  -3.980890e+05  -8.001665e+05
  -3.687471e+05  -3.265689e+05
  -4.687989e+05  -2.358618e+05
  -8.957810e+04  -6.323389e+05
   7.389688e+05  -9.050191e+05
   1.364190e+06  -4.449036e+05
   1.119684e+06   6.427789e+05
  -9.177552e+04   1.486171e+06
  -1.574961e+06   1.169663e+06
  -2.183191e+06  -3.247745e+05
  -1.226673e+06  -1.898541e+06
   7.455086e+05  -2.256411e+06
   2.266182e+06  -1.150525e+06
   2.283945e+06   3.999908e+05
   1.113183e+06   1.194581e+06
  -5.236934e+04   1.019409e+06
  -4.190350e+05   6.298951e+05
  -2.079593e+05   7.216065e+05
  -1.349144e+05   1.146282e+06
  -5.572693e+05   1.164611e+06
  -1.157351e+06   3.258047e+05
  -1.287110e+06  -9.746052e+05
  -5.967415e+05  -1.772885e+06
   5.389286e+05  -1.387174e+06
   1.222393e+06  -7.818294e+04
   8.471657e+05   1.122286e+06
  -2.275076e+05   1.316522e+06
  -9.740722e+05   5.175366e+05
  -7.659112e+05  -4.772874e+05
  -2.196139e+04  -9.254203e+05
   3.413117e+05  -7.629954e+05
   3.096875e+03  -4.416245e+05
  -4.032104e+05  -3.292664e+05
  -5.899957e+04  -3.726056e+05
   1.027830e+06  -2.596762e+05
   1.895624e+06   2.037715e+05
   1.565698e+06   8.626880e+05
   9.880322e+04   1.286253e+06
  -1.360561e+06   1.108676e+06
  -1.676241e+06   3.965282e+05
  -8.246590e+05  -3.209976e+05
   1.860507e+05  -4.941504e+05
   4.476652e+05  -9.347969e+04
   6.587519e+03   3.376419e+05
  -4.436847e+05   2.483745e+05
  -4.572556e+05  -3.065321e+05
  -1.962886e+05  -7.043995e+05
  -3.998989e+04  -4.634929e+05
  -1.273032e+05   1.491415e+05
  -3.009238e+05   3.618394e+05
  -2.833034e+05  -1.961485e+05
   1.248523e+05  -9.686674e+05
   8.008444e+05  -1.031564e+06
   1.196509e+06  -1.629047e+05
   7.564148e+05   8.419503e+05
  -3.525474e+05   1.024113e+06
  -1.133126e+06   2.934447e+05
  -7.100053e+05  -5.365699e+05
   6.148794e+05  -6.566578e+05
   1.535734e+06  -2.488541e+04
   1.087604e+06   7.404219e+05
  -3.335295e+05   1.010642e+06
  -1.405597e+06   6.277218e+05
  -1.237843e+06  -6.239279e+04
  -1.909844e+05  -4.943902e+05
   5.906883e+05  -3.187062e+05
   3.507296e+05   2.418471e+05
  -5.712454e+05   4.901134e+05
  -1.126667e+06  -8.079779e+04
  -6.261342e+05  -1.129469e+06
   5.686851e+05  -1.625694e+06
   1.416993e+06  -8.610500e+05
   1.227639e+06   6.961929e+05
   2.608302e+05   1.717334e+06
  -6.477464e+05   1.304161e+06
  -8.979011e+05  -8.290273e+04
  -5.084405e+05  -1.106931e+06
   1.047893e+05  -9.603527e+05
   5.120485e+05  -1.273482e+05
   5.053393e+05   3.445727e+05
   2.112533e+05   1.330207e+05
   2.252297e+04  -1.054538e+05
   2.086042e+05   2.467020e+05
   5.014662e+05   8.907200e+05
   2.865760e+05   1.025398e+06
  -6.000280e+05   4.098834e+05
  -1.439167e+06  -3.815701e+05
  -1.311971e+06  -7.375296e+05
  -2.116022e+05  -6.473848e+05
   8.436065e+05  -4.379590e+05
   9.473284e+05  -2.358840e+05
   3.051646e+05   1.359506e+04
  -1.479080e+05   2.195235e+05
   3.062391e+04   2.165102e+05
   3.169014e+05   1.012805e+05
   3.283469e+04   1.313530e+05
  -6.844393e+05   2.395981e+05
  -9.953874e+05   1.339092e+04
  -3.592362e+05  -6.461051e+05
   8.134790e+05  -1.132556e+06
   1.562183e+06  -7.439235e+05
   1.301982e+06   3.967262e+05
   2.978778e+05   1.344125e+06
  -6.667319e+05   1.323320e+06
  -9.849377e+05   5.187538e+05
  -6.467661e+05  -2.241806e+05
  -1.191374e+05  -3.392382e+05
   1.142476e+05  -4.211790e+04
  -5.471545e+04   5.192152e+04
  -3.231048e+05  -3.199316e+05
  -2.885023e+05  -7.585654e+05
   1.565432e+05  -6.462671e+05
   6.703181e+05   1.211425e+05
   7.182355e+05   9.172181e+05
   9.560453e+04   9.833519e+05
  -7.458220e+05   2.240031e+05
  -1.007216e+06  -6.933239e+05
  -3.432778e+05  -1.028902e+06
   6.676253e+05  -6.405983e+05
   1.049370e+06   4.516034e+04
   4.992459e+05   5.359071e+05
  -2.509510e+05   6.151597e+05
  -3.108121e+05   3.498912e+05
   2.811468e+05   8.999129e+03
   6.306239e+05  -5.755715e+04
   1.359541e+05   2.824715e+05
  -7.608764e+05   6.858717e+05
  -1.140359e+06   5.903713e+05
  -6.875053e+05  -1.135594e+05
   6.478047e+04  -8.175720e+05
   4.602281e+05  -8.156761e+05
   3.633281e+05  -1.342038e+05
   5.053274e+04   4.759707e+05
  -2.229545e+05   4.036363e+05
  -3.500499e+05  -1.632333e+05
  -2.592574e+05  -5.437136e+05
   4.922318e+04  -3.778813e+05
   3.760620e+05   4.393577e+04
   4.478566e+05   2.260126e+05
   2.310783e+05   5.981568e+04
  -1.537014e+04  -1.161671e+05
  -7.037039e+04   2.137670e+04
  -2.204977e+04   3.689531e+05
  -1.052354e+05   4.986952e+05
  -3.301673e+05   1.579076e+05
  -4.106863e+05  -3.959397e+05
  -1.107866e+05  -6.287917e+05
   3.991843e+05  -3.010162e+05
   6.247639e+05   2.694687e+05
   2.482016e+05   5.555090e+05
  -4.604780e+05   3.612991e+05
  -8.268456e+05  -5.806030e+04
  -4.613245e+05  -3.449267e+05
   2.696984e+05  -3.664203e+05
   5.973764e+05  -2.074664e+05
   2.112215e+05  -1.653436e+04
  -3.723520e+05   5.630499e+04
  -4.139988e+05  -8.274067e+04
   1.775266e+05  -3.140064e+05
   7.525177e+05  -2.952632e+05
