
 $NMID
 id='ANONYMOUS ', fmtdat='(2E16.6)'
 volume=1.0
 tramp=1.0
 $END
   2.977242e+03   4.305954e+02
   2.266334e+03   1.587031e+03
   3.488896e+02   2.280331e+03
  -1.039495e+03   1.457197e+03
  -7.853146e+02   3.204251e+01
   6.585646e+01  -3.069880e+02
   2.834888e+02   7.282419e+01
   6.402646e+01   6.821396e+02
  -3.571910e+02   4.981383e+02
  -7.312170e+02   1.900949e+02
  -6.382979e+02  -3.538751e+02
   6.191735e+00  -6.491450e+02
   2.165001e+02  -1.331732e+02
   2.458724e+02   3.451229e+02
  -8.192183e+01   4.778648e+02
  -3.383427e+02   1.106156e+02
  -2.586110e+02  -4.043919e+02
   1.524957e+02  -5.620325e+02
   3.525495e+02  -4.135512e+02
   4.070090e+02   8.475495e+01
   1.837559e+02   3.406473e+02
  -1.222660e+02   2.192270e+02
  -8.448957e+01   2.551216e+01
   1.555677e+02   4.759354e+01
   2.483962e+02   2.242879e+02
   1.848277e+00   2.633737e+02
  -4.304173e+02   2.202857e+02
  -5.644472e+02  -1.595386e+02
  -2.666498e+02  -1.970420e+02
   1.966542e+02  -1.692537e+02
   4.938091e+02   7.055299e+01
   1.971262e+02   2.210096e+02
  -2.199441e+02   3.693489e+02
  -3.097174e+02   4.706963e+01
  -3.320483e+02  -9.532923e+01
  -3.783257e+01  -3.358114e+02
   1.132383e+01  -2.246170e+02
  -4.144122e+01   1.378846e+02
  -1.498886e+02   1.316202e+02
  -1.757729e+02  -1.484497e+02
  -1.152070e+02  -5.431287e+02
   2.058629e+02  -4.006678e+02
   2.486022e+02  -8.644534e+01
   5.854985e+01   3.710685e+02
  -1.960035e+02   1.391656e+02
  -1.269128e+02  -2.667158e+02
   4.106649e+01  -3.192190e+02
   4.282062e+02  -1.185483e+02
   5.011830e+02   2.856445e+02
   9.336826e+01   4.431299e+02
  -1.947051e+02   2.909837e+02
  -4.597771e+02  -2.455891e+01
  -2.980109e+02  -2.367281e+02
  -4.216794e+01  -2.464710e+02
   3.001200e+02  -8.297645e+01
   2.236582e+02   4.701384e+01
  -1.847181e+01   7.324433e+01
  -7.763598e+01  -6.839651e+01
   9.211875e+01  -3.464971e+01
   2.202166e+02   1.855854e+01
   1.658976e+02   1.071395e+02
  -1.185370e+02   1.423527e+02
  -3.146343e+02   1.287266e+02
  -2.749983e+02  -7.212395e+01
   1.850744e+01  -3.112672e+02
   2.614950e+02  -3.736473e+02
   3.541428e+02  -1.638937e+02
   2.210137e+02   1.742909e+02
   5.894889e+00   3.002168e+02
   7.158440e-01   2.992070e+02
  -1.500295e+00   9.162799e+01
  -3.608865e+01   6.581696e+01
  -1.270313e+02   7.051200e+01
  -2.533511e+02   8.072783e+01
  -2.293724e+02  -1.186192e+02
  -1.431394e+02  -2.538185e+02
   5.904116e+01  -2.051979e+02
   1.888263e+02   9.570827e+00
   1.242800e+02   2.018147e+02
   4.081548e+00   2.430912e+02
  -2.478549e+02   4.186266e+01
  -3.084988e+02  -8.590910e+01
  -1.615142e+02  -2.849798e+02
   3.608878e+01  -2.033818e+02
   1.361151e+02  -1.140193e+02
   1.166109e+02  -7.708895e+01
   1.332600e+02  -5.753461e+01
   2.601329e+02  -3.405232e+01
   3.557638e+02   1.263569e+02
   2.803841e+02   2.931833e+02
  -4.472532e+01   4.130195e+02
  -3.240841e+02   2.581641e+02
  -4.096482e+02   1.510248e+02
  -2.086152e+02  -6.023739e+01
   9.190691e+00  -2.652925e+02
   6.616630e+01  -2.211809e+02
   4.191653e+01  -2.867803e+01
  -6.507444e+01   2.891856e+01
  -1.114922e+02  -6.148894e+01
  -1.478559e+01  -1.336834e+02
   9.246019e+01  -6.398042e+01
   3.343426e+01   9.387895e+00
   2.792628e+01   1.056317e+02
  -1.964405e+02   3.342060e+01
  -1.427922e+02  -2.519884e+02
  -2.597345e+01  -2.748380e+02
   1.739625e+02  -2.097841e+02
   2.476630e+02   3.205519e+01
   2.679803e+02   2.012346e+02
   7.373184e+01   2.525911e+02
  -1.464187e+02   1.152138e+02
  -1.440768e+02   1.885738e+01
  -2.419243e+01  -1.445290e+01
   1.291104e+01   6.053812e+01
  -2.096533e+01   1.465658e+02
  -1.147219e+02   7.984639e+01
  -1.172979e+02  -2.607061e+00
  -2.681840e+01  -2.963961e+01
   9.491909e+01   2.759851e+01
   6.020740e+01   5.507504e+01
  -1.006565e+02   5.357661e+01
  -2.584147e+02   4.975977e+01
  -2.560261e+02  -1.888822e+02
  -2.790733e+01  -2.502363e+02
   2.171646e+02  -2.637655e+02
   2.611306e+02  -1.361279e+02
   1.222481e+02   5.684749e+01
  -2.466824e+01   1.084452e+02
  -4.954012e+01  -2.827457e+01
   3.018288e+01  -8.462527e+01
   1.739480e+02  -5.458840e+01
   1.513033e+02   1.132529e+02
   8.271283e+01   1.326095e+02
  -1.104676e+02   6.651972e+01
  -1.449452e+02  -1.286195e+00
  -2.861941e+01  -6.868369e+01
   2.735202e+01   2.869289e+01
   2.713854e+01   9.831235e+01
  -5.593762e+01   1.544250e+02
  -1.629964e+02  -9.157882e+00
  -1.957412e+02  -1.220958e+02
  -6.889372e+01  -1.946878e+02
   1.414598e+02  -1.102885e+02
   1.632860e+02  -3.848968e+01
   6.283520e+01   1.047611e+02
  -7.972135e+00   3.962955e+01
  -5.603250e+01   1.267925e+01
   3.279397e+01  -1.266221e+01
   2.942243e+01   4.347690e+01
  -2.182076e+01   9.630069e-01
  -9.614857e+01  -8.282785e+00
  -1.058298e+02  -1.230284e+02
  -2.549801e+01  -1.722578e+02
   1.126405e+02  -1.175804e+02
   1.847693e+02  -4.908991e+01
   1.744993e+02   9.684081e+01
   3.966776e+01   1.911771e+02
  -8.490323e+01   1.326366e+02
  -1.265483e+02   5.879143e+01
  -3.385981e+01  -5.919107e+01
  -3.427511e+01  -5.956503e+00
  -9.933440e-01   4.902356e+00
  -1.252042e+02   7.457268e+00
  -4.991715e+01  -4.619164e+00
   4.117329e+01  -1.047117e+02
   1.413423e+02  -5.720794e+01
   1.324775e+02   4.288818e+01
  -1.477951e+01   1.593452e+02
  -1.260510e+02   7.392679e+01
  -2.264556e+02  -4.575975e+01
  -9.473712e+01  -1.983251e+02
   7.768653e+01  -1.840707e+02
   2.831757e+02  -9.693406e+01
   2.116685e+02   3.027690e+01
   5.385888e+01   1.322226e+02
   1.309234e+01   8.219490e+01
  -6.816484e+01   8.570677e+01
  -7.320788e+01   2.059767e+01
  -2.872335e+01   1.071539e+02
  -7.661561e+01   5.396794e+01
  -1.299947e+02  -5.040673e+01
  -1.470908e+02  -1.187898e+02
  -6.127814e+01  -2.231328e+02
   6.739040e+01  -1.671974e+02
   1.874669e+02  -2.306939e+01
   7.163819e+01   8.318371e+01
   5.596438e+00   1.326763e+02
  -6.402509e+01   3.829290e+01
  -9.069483e+01  -6.009113e+00
   3.574115e+01  -3.847763e+01
   1.613150e+00  -2.922994e+01
  -1.380479e+01   8.557076e+00
  -6.975422e+01  -1.085859e+01
  -6.757273e+01  -3.188246e+01
   6.670653e+01  -3.375581e+01
   1.788281e+02  -1.534500e+01
   1.752091e+02   6.508370e+01
  -2.902995e+01   7.189974e+01
  -9.231680e+01   6.738167e+01
  -1.452804e+02   2.556709e+01
  -3.552729e+01  -2.194981e+01
   8.339393e+01  -1.604100e+01
   1.004969e+02   4.916741e+00
   1.420426e+01   3.783113e+01
  -7.659299e+01   6.936046e+01
  -8.742604e+01  -3.822185e+01
  -5.303878e+01  -6.532345e+01
  -5.314477e+01  -8.657688e+01
  -1.387836e+01   2.179295e+01
  -2.677968e+01   9.529290e+00
  -6.086060e+01  -1.124264e+02
   3.021001e+01  -2.143342e+02
   1.114216e+02  -1.302370e+02
   2.084985e+02  -1.041607e+01
   1.030359e+02   1.171886e+02
  -1.621743e+01   9.873552e+01
  -8.608889e+01   7.366281e+01
  -5.252315e+01   2.994076e+01
   5.429131e+01  -2.242360e+01
   1.090857e+02   3.213102e+01
   8.729697e+01   1.089121e+02
  -9.661669e+01   1.012966e+02
  -1.835388e+02   6.255909e+01
  -1.845713e+02  -7.061536e+00
  -2.120268e+01  -5.462038e+01
   3.932078e+01  -4.698575e+01
   1.338196e+01  -1.307955e+01
  -4.021194e+01   2.963471e+01
  -4.386400e+01  -1.142536e+01
  -5.178898e+01  -1.144250e+02
   7.169890e+01  -1.296940e+02
   1.366829e+02  -5.344624e+01
   1.038406e+02   1.060577e+02
  -2.402269e+01   1.718179e+02
  -8.800621e+01   1.167048e+02
  -1.009963e+02   1.166181e+01
  -4.338429e+01  -1.473760e+02
   4.015549e+01  -1.183515e+02
   6.787509e+01  -3.493094e+01
   4.005481e+01  -1.469975e+01
  -1.069293e+01   3.576886e+01
  -4.522974e+01  -1.341758e+01
   9.508218e+00  -1.661246e+01
   6.098584e+01   8.900099e+01
   3.138797e+01   9.533020e+01
  -2.121589e+01   1.204918e+01
  -1.009284e+02  -7.878139e+00
  -1.293191e+02  -8.236869e+01
  -4.296998e+01  -1.963009e+01
   9.972267e+01  -2.913140e+01
   1.116909e+02  -3.345388e+00
   5.136596e+00   2.695833e+01
  -3.412045e+01  -8.284204e+00
   7.893989e+00   3.222403e+00
   1.757441e+00  -5.856217e+00
  -2.296337e+01  -3.130134e+01
  -2.826470e+01   2.462711e+00
  -8.365624e+01  -2.587445e+01
  -4.854445e+01  -9.394993e+01
   1.036343e+02  -1.059584e+02
   1.768042e+02  -1.176603e+02
   1.359496e+02   6.972316e+01
   3.200504e+01   1.174259e+02
  -4.506007e+01   1.586144e+02
  -8.995407e+01   1.184207e+02
  -8.738634e+01   8.131070e+00
  -4.824774e+01  -3.045551e+01
   2.718724e+00  -2.465600e+00
   1.820524e+00   1.032838e+01
  -1.231626e+01  -4.384129e+01
  -5.518494e+00  -8.600895e+01
   2.340320e+01  -7.944967e+01
   4.735305e+01   1.440355e+01
   8.612000e+01   9.968300e+01
   2.963973e+01   8.736860e+01
  -6.737025e+01   1.140976e+01
  -6.925705e+01  -2.965637e+01
  -4.708413e+01  -7.290677e+01
   6.439914e+01  -7.665698e+01
   1.091311e+02  -2.399836e+01
  -1.713703e+01   3.822997e+01
  -4.746381e+01   2.252939e+01
  -4.367020e+01   8.456144e+01
   1.919590e+01   3.875927e+00
   5.167000e+01  -1.313701e+01
   2.957369e+01   4.767017e+01
  -6.179069e+01   7.574801e+01
  -1.167448e+02   3.483684e+01
  -7.581672e+01  -2.717337e+01
  -9.586402e+00  -1.009880e+02
   4.089964e+01  -8.443994e+01
   3.677866e+01  -1.663063e+00
   2.000251e+01   3.442102e+01
  -5.253463e-01   8.158967e+00
  -3.680589e+01  -3.937936e+00
  -7.632504e+01  -1.369244e+01
  -4.374509e+01  -5.717778e+01
   1.334973e+01   1.209984e+00
   3.068434e+01   1.776405e+01
   3.232419e+01   1.670699e+01
   1.717979e+01  -2.658566e+01
   2.076261e+01   8.486238e+00
  -8.716605e-01   4.608589e+01
  -2.142361e+01   9.074306e+01
  -4.062281e+01   4.335041e+01
  -3.878457e+01  -3.114567e+01
  -4.342854e+01  -7.485010e+01
   1.801469e+01  -2.501918e+01
  -2.017333e+00   3.911026e+01
   5.918533e+00   2.554982e+01
  -7.194234e+01   8.046189e+01
  -1.041276e+02  -8.002310e-01
  -1.881491e+01  -5.241402e+01
   2.469160e+01  -6.395112e+01
   5.940776e+01  -4.889034e+01
   4.796163e+01   1.587684e+01
  -7.486813e+01  -6.514771e+00
  -1.517816e+01  -8.062470e+00
   1.268015e+01  -6.031213e+01
   5.476323e+01  -7.703532e+01
