
 $NMID
 id='ANONYMOUS ', fmtdat='(2E16.6)'
 volume=1.0
 tramp=1.0
 $END
  -3.040028e+03   3.434905e+02
  -2.019460e+03  -1.014169e+03
  -5.093541e+01  -2.019916e+03
   9.732435e+02  -9.260165e+02
   9.310917e+02  -2.348970e+02
   1.191348e+02   9.717003e+01
  -3.223736e+02  -2.164738e+02
   5.468544e+01  -4.189352e+02
   4.290210e+02  -2.993558e+02
   5.202106e+02  -1.041421e+02
   3.079360e+02   4.512811e+02
   4.271812e+01   6.118484e+02
  -3.055705e+02   3.702153e+01
  -1.080064e+02  -4.775969e+02
   1.197242e+02  -5.107671e+02
   3.636841e+02  -7.784584e+00
   3.131053e+02   4.044825e+02
  -5.128090e+01   5.943996e+02
  -3.567883e+02   1.650721e+02
  -4.509053e+02  -1.640384e+02
  -1.034506e+02  -3.069219e+02
   6.970869e+01  -2.191818e+02
   3.686252e+01  -9.908288e+01
  -1.906219e+02  -1.510356e+02
  -2.489441e+02  -2.136267e+02
   5.688511e+01  -3.975884e+02
   5.982832e+02  -1.769499e+02
   5.680169e+02   2.453157e+02
   1.470683e+02   3.258200e+02
  -2.861549e+02   2.124276e+02
  -4.659311e+02  -1.858833e+02
  -9.980829e+01  -3.367492e+02
   3.362806e+02  -3.289216e+02
   3.922476e+02  -1.637286e+02
   2.963096e+02   1.453622e+02
   8.011029e+01   2.281850e+02
  -2.813823e+01   1.244436e+02
   3.312896e+01  -1.040078e+02
   4.828488e+01  -9.729473e+01
   1.273790e+02   1.330975e+02
  -8.050942e+01   4.863416e+02
  -2.505055e+02   4.326947e+02
  -2.729403e+02  -1.005110e+01
  -5.062124e+00  -3.081850e+02
   1.972743e+02  -1.759453e+02
   1.336832e+02   3.033623e+02
  -1.729442e+02   2.748129e+02
  -3.013881e+02   1.102524e+02
  -4.225591e+02  -4.431338e+02
  -1.490941e+02  -4.118905e+02
   2.753420e+02  -1.800361e+02
   5.225793e+02   1.251064e+02
   3.277228e+02   2.746214e+02
  -5.957309e+00   2.066041e+02
  -2.295943e+02   1.711659e+01
  -1.716067e+02   2.545430e+01
   3.514592e+00   5.361802e+01
   1.156815e+02   3.841854e+01
  -1.514916e+02   5.624985e+01
  -1.550425e+02   1.381401e+00
  -1.372079e+02  -1.718476e+02
   1.439987e+02  -2.165092e+02
   3.107832e+02  -8.048267e+01
   2.453413e+02   1.473374e+02
  -4.779031e+01   3.003865e+02
  -2.640843e+02   3.406265e+02
  -3.524137e+02   9.072464e+01
  -1.857627e+02  -2.054825e+02
  -1.054039e+01  -2.771801e+02
   7.393793e+00  -2.092391e+02
   5.210723e+01  -1.621381e+02
   3.792543e+01  -9.823677e+01
   1.525893e+02  -7.172776e+01
   2.239325e+02  -1.761025e+01
   1.972637e+02   1.652438e+02
   8.305843e+01   2.426519e+02
  -9.571914e+01   1.455783e+02
  -2.121169e+02  -5.141837e+01
  -1.658733e+02  -2.598516e+02
   1.601633e+01  -1.926881e+02
   2.061017e+02  -1.515454e+01
   2.149248e+02   2.071548e+02
   6.545478e+01   2.726073e+02
  -9.976846e+01   2.228851e+02
  -1.542853e+02   1.172807e+02
  -1.325354e+02   4.603388e+01
  -1.458138e+02   6.354777e+01
  -2.561016e+02   1.450766e+01
  -4.114886e+02  -1.322375e+02
  -2.970755e+02  -3.002617e+02
   1.807492e+01  -3.645124e+02
   3.988591e+02  -3.656800e+02
   4.988404e+02  -1.421158e+02
   2.161186e+02   1.478912e+02
  -7.178109e+00   1.643459e+02
  -7.688773e+01   1.500435e+02
   2.575787e-01   3.713480e+01
   1.507973e+02  -3.616481e+01
   1.270499e+02  -2.930122e+01
  -1.352257e+01   1.456727e+02
  -1.440036e+02   5.044048e+01
  -9.934086e+01  -5.583772e+01
   2.941763e+01  -7.985631e+01
   1.335781e+02   1.702775e+01
   1.002993e+02   1.995298e+02
  -4.495053e+01   3.109749e+02
  -2.355441e+02   1.781679e+02
  -3.568137e+02  -1.069095e+02
  -2.525656e+02  -3.408297e+02
   5.301034e+00  -2.724245e+02
   1.469978e+02  -1.305822e+02
   1.374924e+02   2.744907e+01
  -9.403429e+00   3.172449e+01
  -6.896372e+01  -5.560800e+01
   4.237863e+01  -1.093240e+02
   1.131950e+02  -7.672643e+01
   1.401341e+02  -1.578239e-01
   2.441784e+01   1.248579e+01
  -5.401839e+01   4.844023e+00
  -4.116207e+01  -7.968330e+01
   1.613919e+02  -5.204697e+01
   2.749798e+02   7.746589e+00
   2.469100e+02   2.121770e+02
  -3.030788e+01   2.835149e+02
  -1.578014e+02   2.519820e+02
  -2.473616e+02   6.676082e+01
  -1.153255e+02   1.412056e+01
   5.819243e+01  -5.107140e+01
  -9.564007e+00   4.358061e+00
  -3.329535e+01   5.197621e+01
  -1.949822e+02   2.879701e+01
  -1.354836e+02  -9.299372e+01
  -9.283079e+01  -1.288710e+02
   1.154806e+02  -1.467041e+02
   9.435849e+01  -3.145063e+01
   6.353243e+01   1.177864e+02
  -2.844930e+01  -2.639087e+01
   4.753607e+00  -1.275741e+02
   1.113116e+02  -7.582398e+01
   1.902099e+02  -6.967590e+00
   1.653668e+02   1.945891e+02
  -4.197410e+00   2.028690e+02
  -1.579470e+02   9.168727e+01
  -1.680485e+02   1.956200e+01
  -2.922530e+01  -1.103500e+02
   4.211088e+01  -5.099165e+01
   6.152563e+01   1.737945e+01
  -6.961200e+01   4.899944e+01
  -3.671769e+01  -1.681759e+00
  -1.248322e+01  -3.755613e+01
   7.706245e+01   1.683784e+01
   8.535462e+01   6.081312e+01
   6.049478e+01   1.898996e+02
  -1.007277e+02   1.239796e+02
  -1.737131e+02  -2.359558e+01
  -1.560794e+02  -1.887368e+02
  -4.685355e+01  -2.312933e+02
   6.496449e+01  -1.351312e+02
   1.312804e+02   1.721166e+01
   4.771737e+01   2.303953e+01
   1.421229e+01   7.573862e+01
   5.929481e+01   6.369098e+00
   9.399835e+01  -1.936570e+01
   7.507805e+01   3.884923e+01
  -4.426010e+01   8.427306e+01
  -1.321559e+02   4.136626e+01
  -6.554287e+01   6.887613e+00
   2.712790e+01  -1.345936e+02
   1.524345e+02  -1.097674e+02
   1.762846e+02   7.710851e+01
   9.628479e+01   2.091874e+02
  -1.430347e+02   1.545721e+02
  -2.617634e+02   1.049386e+02
  -2.060570e+02  -1.061558e+02
  -5.889300e+01  -1.220621e+02
   5.253521e+01  -1.276995e+02
   3.840495e+01  -3.225422e+01
   4.396443e+01  -6.504373e+01
   7.214814e+01  -5.542433e+01
   6.903160e+01  -6.241865e+01
   1.193100e+02   5.409043e+01
   1.014365e+02   1.728049e+02
   1.227549e+01   1.861326e+02
  -8.205306e+01   1.488678e+02
  -1.765115e+02   3.600959e+01
  -7.446996e+01  -1.465293e+02
  -2.276746e+01  -8.993901e+01
   1.115491e+02  -6.826378e+01
   6.182953e+01   1.476102e+01
   2.372089e+01   6.946290e+01
  -4.686339e+01   3.218506e+01
   1.764435e+01  -1.102575e+01
   1.168009e+02   4.354292e+01
   6.653119e+01   5.392932e+01
  -7.473545e+01   3.746617e+01
  -1.351315e+02  -4.940783e+00
  -1.504131e+02  -1.140884e+02
   2.101465e+01  -7.507856e+01
   6.986689e+01  -1.120800e+02
   1.134769e+02  -3.805119e+01
   4.465343e+01   1.887013e+01
  -5.256263e+01   3.814845e+01
  -6.225927e+01  -1.985855e+01
  -3.614427e+01  -3.122216e+01
   7.943647e+01  -6.184110e+01
   6.479157e+01  -5.807338e+00
   2.028568e+01   5.024448e+01
  -2.241719e+01   2.515505e+01
   9.490388e+01   1.867083e+01
   6.011873e+01  -8.690563e+00
   8.422136e+01   5.032459e+01
  -1.305666e+01   1.332748e+02
  -9.189165e+01   1.335468e+02
  -2.559018e+02  -1.093402e+01
  -1.224067e+02  -8.210707e+01
  -2.549291e+01  -8.440280e+01
   1.065047e+02  -7.087000e+01
   4.907661e+01   1.976506e+01
  -3.041102e+01   9.472010e+00
  -1.021654e+02  -3.905950e+01
  -7.226943e+01  -9.658722e+01
   8.662198e+01  -8.690132e+01
   1.777165e+02  -6.563930e+01
   1.616791e+02   2.581716e+01
   7.724994e+01   4.549273e+01
  -5.047197e+01   3.430512e+01
  -7.331566e+01  -3.515826e+01
   3.628552e+01  -1.355358e+01
   1.074608e+02  -3.464780e+01
   2.199494e+01   1.058861e+02
  -6.826542e+01   1.375241e+02
  -1.841833e+02   2.132741e+01
  -1.037823e+02  -1.395346e+02
  -1.281270e+01  -2.174419e+02
   7.179446e+01  -9.953877e+01
   7.529754e+01   3.022620e+01
   8.837231e+01   1.410782e+02
  -6.471847e+01   1.013315e+02
  -4.502386e+01   2.804242e+01
  -3.453649e+01  -4.843394e+01
   2.044894e+01  -2.908533e+01
  -8.174176e-01   5.357006e+00
  -1.009022e+01  -3.696852e+01
  -8.953833e+01  -9.128125e+01
   1.318855e+01  -5.638714e+01
   6.364160e+01  -4.167925e+01
   8.770140e+01   7.519968e+01
   9.326820e+01   1.041294e+02
   8.111145e+00   6.883839e+01
  -3.672237e+01   1.417866e+01
  -2.949517e+01  -1.385849e+01
  -2.853137e+01  -1.339290e+01
   6.525541e+01   2.387848e+01
   2.787455e+01  -2.867684e+01
   1.998284e+00  -3.118700e+01
  -1.741537e+01  -1.382357e-01
   3.389234e+01  -4.260485e+01
   6.253078e+01   1.285556e+01
   4.582910e+01   7.850197e+01
  -1.318121e+02   9.661237e+01
  -1.274664e+02   9.612268e+01
  -1.278385e+02  -6.938932e+01
  -2.868783e+01  -1.256106e+02
   6.159704e+01  -1.253846e+02
   1.099900e+02  -8.337596e+01
   9.857289e+01   2.341608e+01
   4.982819e+01   1.843357e+01
   6.586382e+00   4.199718e+01
   1.219145e+01   4.486014e+01
   4.927800e+00   1.209269e+01
   6.130436e+01   1.029664e+02
   2.787999e+01   5.854800e+01
  -8.841492e+01  -2.361802e+01
  -9.282964e+01  -9.652343e+01
   2.051400e+01  -5.637450e+01
   6.506293e+01  -2.456139e+01
   1.007141e+02   2.533610e+01
   3.336462e+01   6.760242e+01
  -6.216055e+01   8.580360e+01
  -7.049923e+01   2.052861e+01
  -1.199974e+01  -7.113159e+01
   2.491474e+01  -9.453656e+01
   3.242676e+01   5.858010e+00
  -3.079681e+01   2.384391e+01
  -7.490860e+01   7.251056e+01
  -1.015926e+01  -3.711191e+01
   5.832257e+01  -9.477607e+01
   1.422435e+02  -4.438021e+01
   8.048997e+01   3.404741e+01
  -2.584278e+01   9.587238e+01
  -5.707777e+01   6.353252e+01
  -6.527909e+01  -3.292707e+00
  -7.906901e+00  -6.280634e+01
   2.303709e+00  -8.032195e+01
   3.556485e+01   3.492207e+01
   3.450490e+01   4.602928e+01
   3.811156e+01   3.629940e+01
   3.451540e+00   2.180868e+01
  -5.721815e+01  -3.120847e+01
   7.775608e+00  -9.043100e+00
   3.681517e+01   2.543361e+01
  -3.789044e-01   4.622837e+00
  -2.459696e+01  -2.744145e+01
  -3.629759e+00  -5.085978e+01
   8.239815e+00  -2.033500e+01
   2.640986e+01   5.307444e+01
  -3.896169e+01   6.463691e+01
  -3.709036e+01   1.247400e+01
  -4.974450e+01  -9.033697e+00
  -2.417029e+01  -3.832957e+01
   4.035566e+01   3.270256e+00
   9.028044e+01   4.582168e+00
   9.030723e+00   1.149400e+01
  -9.075196e+00   5.490544e+01
  -4.681683e+01   2.327100e+00
  -1.375647e+01   3.154585e+01
  -2.504271e+01  -8.313733e+00
   3.780073e+01  -9.465887e+00
  -4.050205e+01   2.134190e+01
  -6.780015e+01   7.522934e+00
