
 $NMID
 id='ANONYMOUS ', fmtdat='(2E16.6)'
 volume=1.0
 tramp=1.0
 $END
   3.098906e+03  -2.542227e+02
   1.782299e+03   1.507411e+03
   1.000457e+02   2.326236e+03
  -1.513971e+03   1.093069e+03
  -9.423826e+02   2.598703e+02
  -1.307421e+02  -1.225362e+01
   2.085985e+02   1.463381e+02
  -3.488160e+01   5.064402e+02
  -6.126421e+02   4.979123e+02
  -6.400773e+02   1.146630e+02
  -3.351719e+02  -5.790225e+02
  -4.079144e+01  -6.011099e+02
   3.086841e+02  -1.679380e+02
   2.408178e+02   4.630815e+02
  -1.397252e+02   5.250025e+02
  -4.013583e+02  -6.775082e+01
  -2.646018e+02  -4.746969e+02
   3.098365e+01  -6.636955e+02
   4.691520e+02  -2.210867e+02
   4.445924e+02   2.362116e+02
   1.295341e+02   3.533555e+02
  -8.816579e+01   2.640092e+02
  -1.666399e+01   9.215502e+01
   2.438572e+02   1.141145e+02
   2.811573e+02   2.664061e+02
  -1.293558e+02   3.894396e+02
  -7.103477e+02   1.559828e+02
  -5.815294e+02  -1.859447e+02
  -8.542320e+01  -3.596739e+02
   4.332868e+02  -1.590120e+02
   4.879298e+02   1.405313e+02
   1.623145e+02   3.335692e+02
  -2.646002e+02   3.025126e+02
  -4.027138e+02   1.802985e+02
  -3.432123e+02  -1.280178e+02
  -6.441415e+01  -2.896950e+02
   2.716804e+01  -8.054119e+01
  -4.078113e+01   7.056177e+01
  -1.528974e+02   6.169957e+01
  -1.866586e+02  -1.584856e+02
   9.958173e+00  -4.390023e+02
   2.743124e+02  -3.584054e+02
   3.034833e+02   3.612167e+01
   1.085156e+02   3.014561e+02
  -9.736586e+01   1.818439e+02
  -1.586023e+02  -3.392078e+02
   1.076623e+02  -4.076875e+02
   4.604295e+02  -3.124888e+01
   4.476500e+02   4.010231e+02
   2.052768e+02   3.995563e+02
  -2.886001e+02   1.635644e+02
  -5.613168e+02  -1.054830e+02
  -4.070904e+02  -2.997059e+02
   1.001358e+02  -2.389151e+02
   2.846125e+02  -4.358389e+01
   2.397959e+02  -2.566093e+01
   6.006759e+01   2.668302e+01
  -8.626519e+01  -5.342150e+01
   8.549854e+01  -6.120276e+01
   1.598964e+02   3.027488e+01
   1.125036e+02   1.608685e+02
  -1.572319e+02   1.691424e+02
  -3.187352e+02   1.492118e+02
  -2.211776e+02  -7.884417e+01
   6.719841e+01  -2.990623e+02
   2.320776e+02  -3.659412e+02
   3.130909e+02  -9.823282e+01
   2.339098e+02   2.259432e+02
   1.349663e+01   3.319198e+02
  -6.767105e+01   3.163987e+02
  -1.297629e+01   2.284563e+02
  -2.087194e+01   1.213935e+02
  -1.302718e+02   6.764776e+01
  -2.307722e+02   5.731218e+01
  -2.204758e+02  -1.366378e+02
  -6.500281e+01  -2.781545e+02
   7.140152e+01  -1.454349e+02
   1.698889e+02   4.121863e+01
   7.148607e+01   2.303874e+02
  -3.653943e+01   2.090694e+02
  -2.154410e+02   3.213496e+01
  -2.653858e+02  -2.396133e+02
  -9.089737e+01  -2.960486e+02
   9.200654e+01  -2.389531e+02
   1.825626e+02  -1.333125e+02
   1.819252e+02  -5.435285e+01
   1.931360e+02  -4.954286e+01
   2.751180e+02  -3.401962e+01
   4.097316e+02   1.665199e+02
   2.521600e+02   3.499124e+02
  -3.097740e+01   4.112518e+02
  -3.982254e+02   3.907063e+02
  -5.631251e+02   1.684403e+02
  -2.265181e+02  -1.254360e+02
   2.581351e+01  -1.604295e+02
   8.691293e+01  -1.947899e+02
  -8.562855e+00  -7.272962e+00
  -1.132578e+02   3.838328e+01
  -1.221394e+02  -2.277279e+01
   1.457056e+00  -1.106368e+02
   1.367704e+02  -1.146554e+02
   3.957920e+01   7.101660e+01
  -1.823105e+01   1.303445e+02
  -1.540915e+02  -1.215449e+01
  -1.409617e+02  -1.303774e+02
   5.398498e+01  -3.412459e+02
   2.110645e+02  -2.226600e+02
   4.078296e+02   7.925061e+01
   3.054023e+02   2.828037e+02
   4.232338e+01   3.607673e+02
  -1.362355e+02   1.294947e+02
  -1.646980e+02   1.571247e+01
  -2.757438e+01  -5.378691e+01
   5.289686e+01   8.419991e+01
   9.729596e-01   1.322152e+02
  -1.371121e+02   7.595887e+01
  -1.462573e+02  -2.532661e+01
  -2.837000e+01  -1.790190e+01
   1.050303e+02   4.685533e+01
   4.732686e+01   1.325217e+02
  -1.760154e+02   8.758173e+01
  -3.187254e+02   8.059772e+00
  -2.841532e+02  -2.011358e+02
   4.036576e+01  -2.764823e+02
   1.753604e+02  -2.279312e+02
   3.005297e+02  -8.467646e+01
   1.342348e+02   3.432557e+01
   1.594422e+01   8.119402e+01
  -4.849293e+01   6.674299e+00
   5.823538e+01  -6.908833e+01
   1.665164e+02  -2.724708e+00
   2.017225e+02   1.488306e+02
   3.968533e+01   1.772257e+02
  -1.342705e+02   1.439198e+02
  -1.173492e+02   4.123721e+01
  -1.246397e+01  -1.330197e+01
   3.821605e+01  -3.015425e+00
   5.597404e+00   1.002398e+02
  -1.041589e+02   1.512243e+02
  -1.997173e+02  -1.386751e+01
  -1.882119e+02  -1.253309e+02
  -3.797738e+01  -2.054721e+02
   2.389461e+02  -1.664108e+02
   1.551202e+02  -3.345652e+01
   1.796296e+01   1.094669e+02
  -7.964856e+01   1.170265e+02
  -5.942138e+01   2.180575e+01
   4.229923e+00   7.865337e+00
   1.975116e+01   2.049428e+00
  -4.102538e+01   8.045882e+01
  -8.478727e+01   1.553009e+01
  -9.548469e+01  -9.576863e+01
  -3.190567e+01  -2.101843e+02
   1.186810e+02  -1.280018e+02
   2.637790e+02  -4.582752e-01
   1.697483e+02   1.615632e+02
  -1.291028e+00   2.038287e+02
  -1.019087e+02   1.519952e+02
  -1.402249e+02  -1.236968e+01
  -6.636667e+01  -4.815634e+01
  -2.954663e+01  -3.772302e+01
  -2.117070e+01  -1.870894e+01
  -7.826544e+01   1.938972e+01
  -4.272770e+01  -6.592132e+01
   6.971470e+01  -9.607942e+01
   1.878653e+02  -7.741626e+01
   8.010973e+01   1.359202e+01
  -2.721273e+01   1.414734e+02
  -1.861393e+02   1.169612e+02
  -2.235226e+02  -1.198365e+02
  -7.605133e+01  -1.830776e+02
   1.257488e+02  -2.208102e+02
   2.932888e+02  -5.984748e+01
   2.617478e+02   1.708076e+02
   8.521802e+01   1.699312e+02
  -6.511990e+01   1.317379e+02
  -7.895792e+01   7.715885e+01
  -2.643823e+01   8.899405e+01
  -7.770052e+01   9.418445e+01
  -4.314446e+01   8.495476e+01
  -1.537203e+02  -2.069229e+01
  -1.508544e+02  -1.662629e+02
  -3.771722e+01  -2.248684e+02
   5.756160e+01  -1.182342e+02
   2.132159e+02  -1.202840e+01
   1.363033e+02   1.468063e+02
  -3.870227e+01   1.601670e+02
  -5.860717e+01   1.035988e+02
  -4.880905e+01  -5.530689e+01
  -1.918317e+01  -8.710611e+01
   8.390456e+01   3.464540e+01
  -3.854969e+01  -2.570766e+01
  -4.742427e+01  -4.938446e+01
  -2.891008e+01  -2.453443e+01
   7.542058e+01  -3.981798e+01
   1.383124e+02  -1.071171e+01
   1.572328e+02   7.375648e+01
  -1.049791e+01   1.227071e+02
  -1.147832e+02   4.738963e+01
  -1.300548e+02  -1.113256e+01
  -4.360061e+01  -4.319758e+01
   5.200415e+01  -3.071324e+01
   9.006143e+01   2.581878e+01
   4.913498e+01   6.296351e+01
  -1.001978e+02   7.268571e+01
  -5.103406e+01   2.169108e+01
  -4.981961e+01  -4.580627e+01
  -7.451315e+01  -6.073612e+01
  -5.276392e+01   1.137551e+01
  -2.856060e+01  -3.441679e+01
  -8.921952e+01  -1.198607e+02
   1.900039e+01  -1.381074e+02
   1.091709e+02  -1.095617e+02
   2.119024e+02  -5.734163e+00
   1.506187e+02   7.955986e+01
   1.057228e+01   1.042389e+02
  -5.482882e+01   6.239436e+01
  -4.955129e+01  -2.846933e+01
   6.363121e+01  -1.274319e+01
   1.081725e+02   7.892273e+00
   6.012480e+01   1.271033e+02
  -6.789340e+01   7.952345e+01
  -2.359599e+02   5.116655e+01
  -2.052257e+02  -4.328818e+01
  -4.914669e+01  -7.036324e+01
   8.799333e+01  -1.765910e+01
   9.093004e+01   6.007442e+00
  -1.309469e+01   2.978604e+01
  -1.239711e+02  -2.412692e+01
  -5.530850e+01  -1.326292e+02
   7.793029e+01  -1.887314e+02
   1.165688e+02  -5.150211e+01
   1.366507e+02   7.685151e+01
   4.004153e+01   1.951460e+02
  -5.370087e+01   1.129993e+02
  -1.199541e+02  -1.558562e+01
  -6.348790e+01  -1.245711e+02
   5.921904e+01  -1.183190e+02
   3.236325e+01  -2.239875e+01
   1.821574e+01   1.718138e+01
   2.382752e+01  -2.055034e+01
   8.363142e+00  -5.018409e+00
   4.833527e+01  -2.235345e+00
   1.106298e+02   8.594125e+01
   2.835109e+01   6.535158e+01
  -6.268557e+01   3.247534e+01
  -1.113966e+02  -2.075511e+01
  -8.488134e+01  -1.141959e+02
  -1.615463e+01  -2.619680e+01
   7.895727e+01  -4.586134e+01
   6.561690e+01  -1.744728e+01
   1.812125e+01   6.826319e+00
  -3.109123e+01   2.251486e+00
  -1.606204e+01   6.180213e+00
   1.492992e+01  -2.079098e+01
  -8.948240e+00  -1.510338e+01
  -1.778333e+01   2.934807e+01
  -9.373242e+01  -1.651205e-01
  -1.715658e+01  -1.115816e+02
   1.151436e+02  -1.160012e+02
   1.801830e+02  -8.958517e+01
   1.192552e+02   7.719130e+01
   5.277579e+01   1.422923e+02
  -7.064116e+01   1.399356e+02
  -8.379308e+01   6.135603e+01
  -9.243851e+01  -1.145560e+01
  -2.767464e+01  -4.814743e+01
   5.688534e+00  -2.316706e+01
  -4.298493e+00  -2.670358e+01
   1.071923e+01  -3.093611e+01
  -1.375828e+01  -9.009546e+01
   4.337126e+01  -7.186934e+01
   6.587148e+01   4.514279e+00
   1.188364e+02   1.112947e+02
   2.437591e+01   1.229908e+02
  -5.048921e+01  -4.186500e+00
  -1.251124e+02  -1.093453e+02
  -1.880924e+01  -1.069554e+02
   8.717131e+01  -3.924123e+01
   1.065321e+02   2.207423e+01
   1.806797e+01   5.978331e+01
  -3.735801e+01   4.898165e+01
  -2.919183e+01   3.514720e+01
   1.559932e+01   1.296117e+01
   1.349210e+01  -1.370037e+01
   1.475825e+01   1.713500e+01
  -6.671441e+01   4.207683e+01
  -1.248778e+02   4.479898e+01
  -5.601406e+01  -4.380612e+01
  -2.471634e+01  -1.103663e+02
   1.419655e+01  -1.095823e+02
   1.781244e+01   3.081701e+01
   5.283516e+00   6.993918e+00
  -4.139291e+01   4.425714e+01
  -1.894309e+01  -2.324755e+00
  -7.285389e+01  -3.614716e+01
  -3.104263e+01  -4.586009e+01
   2.046594e+01   6.563534e+01
   1.514554e+01   4.404398e+01
   2.806497e+01   6.759067e+00
  -3.120970e+01  -1.445734e+01
  -4.103118e+01  -1.204308e+01
   4.925995e+01   2.101326e+01
  -8.178722e+00   8.718988e+01
  -3.062787e+01   2.351254e+01
  -1.282883e+01   4.309437e-01
  -7.019855e+00  -3.203457e+01
   4.885449e+01  -3.087407e+01
   6.503114e+01   2.554349e+01
   4.503615e+01   6.592904e+01
  -3.434559e+01   2.640674e+01
  -7.234521e+01   1.852226e+01
  -5.494509e+01  -2.528900e+01
   5.557499e+00  -4.190757e+01
   5.455841e+01  -1.124740e+01
   1.661087e+01  -1.483375e+01
   2.977620e+00   1.387910e+00
  -3.231246e+01  -2.023558e+01
   5.325480e+01  -5.958422e+01
   4.674267e+01  -4.088769e+01
