
 $NMID
 id='ANONYMOUS ', fmtdat='(2E16.6)'
 volume=1.0
 tramp=1.0
 $END
  -3.165126e+03   4.225400e+02
  -1.747735e+03  -1.214124e+03
  -2.508180e+02  -1.626074e+03
   6.734144e+02  -1.240235e+03
   7.218319e+02  -4.721578e+02
   2.860488e+02   1.070307e+02
  -3.849976e+02  -1.430436e+01
  -2.872443e+01  -3.665578e+02
   2.804874e+02  -3.219068e+02
   4.339400e+02  -3.739471e+02
   3.265112e+02   2.935457e+02
   1.118817e+01   5.502227e+02
  -2.851343e+02   1.653146e+02
  -2.916940e+02  -3.463865e+02
  -9.764455e+00  -4.270361e+02
   3.299127e+02  -6.671849e+01
   4.110784e+02   3.482859e+02
  -2.156344e+01   6.031862e+02
  -3.229053e+02   3.173545e+02
  -3.305739e+02  -7.278952e+01
  -1.810637e+02  -2.339981e+02
   7.360019e+01  -1.935990e+02
   4.338547e+01  -8.690468e+01
  -2.552653e+02  -1.142458e+02
  -2.255369e+02  -2.386657e+02
   3.791369e+01  -3.344604e+02
   4.218090e+02  -1.204195e+02
   4.251569e+02   1.082969e+02
   9.001998e+01   2.035148e+02
  -1.463106e+02   1.030024e+02
  -3.387476e+02  -1.009113e+02
  -1.536011e+02  -2.234222e+02
   1.781851e+02  -3.351060e+02
   3.351086e+02  -2.021808e+02
   2.514486e+02   8.663698e+01
   1.402908e+02   2.252685e+02
   3.560263e+01   1.339612e+02
   1.009835e+02  -6.473774e+01
   8.890989e+01  -1.137861e+02
   2.658807e+01   1.760809e+02
  -6.922014e+01   4.394924e+02
  -5.850720e+01   3.463092e+02
  -2.254910e+02   8.155489e+01
  -8.926001e+01  -2.638827e+02
   9.524926e+01  -1.033362e+02
   6.075694e+01   2.951918e+02
  -5.318237e+01   2.578490e+02
  -3.015290e+02   1.554548e+02
  -3.351884e+02  -3.844884e+02
  -2.474259e+02  -3.978399e+02
   2.039148e+02  -2.432589e+02
   4.488674e+02   3.501352e+01
   3.260195e+02   1.664454e+02
   5.900586e+01   1.272243e+02
  -2.450237e+02   3.527747e+01
  -1.500792e+02   6.989085e+00
  -5.101505e+01   5.119137e+00
   4.583650e+01  -1.532559e+01
  -5.629998e+01  -2.467721e+01
  -1.977804e+02  -1.982225e+01
  -1.224277e+02  -1.041342e+02
   1.257826e+02  -1.933832e+02
   3.070053e+02  -6.598234e+01
   2.784600e+02   1.156714e+02
  -6.223050e+01   3.053441e+02
  -1.988679e+02   4.023495e+02
  -3.059569e+02   8.407266e+01
  -2.115452e+02  -2.013418e+02
  -8.621067e+01  -2.653071e+02
   3.806236e+01  -2.693885e+02
   8.720421e-01  -1.589677e+02
   6.899175e+00  -1.543658e+02
   1.181704e+02  -6.222323e+01
   2.605234e+02  -1.181476e+01
   2.991788e+02   1.337041e+02
   3.799611e+01   2.293266e+02
  -7.387375e+01   1.398848e+02
  -1.914353e+02  -9.009286e+01
  -1.384141e+02  -2.804030e+02
   5.070709e+01  -2.485275e+02
   1.977721e+02  -5.173978e+01
   2.586232e+02   1.841029e+02
   2.268636e+02   2.689168e+02
   2.515738e+01   2.308742e+02
  -1.417987e+02   1.354618e+02
  -1.376578e+02   7.159341e+01
  -1.777336e+02   4.962538e+01
  -2.926046e+02   4.942278e+01
  -3.247435e+02  -8.171416e+01
  -2.200347e+02  -2.749759e+02
   3.360304e+01  -3.299084e+02
   3.317765e+02  -3.933522e+02
   3.521479e+02  -1.082792e+02
   2.147723e+02   1.291058e+02
   5.002139e+01   1.676890e+02
   7.597602e+00   1.306134e+02
   7.554836e+00   4.098407e+01
   1.095741e+02  -2.247418e+01
   4.540886e+01   4.634496e+01
  -2.448548e+01   1.012959e+02
  -1.396750e+02   7.340702e+01
  -8.975495e+01   1.345550e+01
   4.022346e+01  -9.990878e+01
   1.670892e+02  -2.098453e+01
   1.552524e+02   2.100916e+02
   2.285940e+01   2.611439e+02
  -2.130620e+02   2.228256e+02
  -3.166666e+02  -7.955943e+01
  -2.074300e+02  -2.340634e+02
  -1.130079e+01  -2.809227e+02
   1.360594e+02  -8.986910e+01
   1.274451e+02   2.357567e+01
   3.627950e+01   3.144443e+01
  -6.003373e+01  -3.451917e+01
  -2.943492e+01  -7.258294e+01
   6.965753e+01  -6.479088e+01
   1.550676e+02  -2.117340e+01
  -1.426281e+01   4.410095e+01
  -5.160022e+01  -2.328797e+01
  -3.383182e+00  -8.621067e+01
   1.141174e+02  -9.768728e+01
   2.723807e+02   4.943527e+01
   2.043133e+02   1.602310e+02
   1.256949e+01   2.315919e+02
  -1.384162e+02   2.115451e+02
  -2.054789e+02   5.919737e+01
  -8.564424e+01  -6.467374e+01
   3.837109e+01  -8.019142e+01
   3.389593e+01  -1.254080e+01
  -5.000160e+01   8.282168e+01
  -1.565557e+02  -1.431530e+01
  -1.682012e+02  -1.064086e+02
  -9.247754e+01  -1.317261e+02
   1.109265e+02  -9.278667e+01
   8.669983e+01   1.133224e+01
   1.780489e+01   5.853511e+01
  -6.516304e+01  -5.431073e+01
  -3.764736e+01  -9.114792e+01
   8.990014e+01  -7.860786e+01
   2.296191e+02  -1.869183e+01
   1.766249e+02   1.632322e+02
  -2.382382e+01   1.656336e+02
  -1.448864e+02   1.505205e+02
  -1.157052e+02  -1.878886e+00
  -5.260821e+01  -1.036140e+02
   4.529428e+01  -5.633065e+01
   7.098332e+01  -4.099649e+01
  -4.503881e+01   3.871558e+01
  -2.182963e+01   3.424846e+01
   1.831335e+01  -8.225118e+00
   9.091689e+01  -1.119277e+01
   1.182468e+02   8.182276e+01
   7.886991e+01   1.365981e+02
  -1.164488e+02   1.031310e+02
  -2.161992e+02   2.547908e+01
  -1.893964e+02  -1.722915e+02
  -4.926568e+01  -2.090165e+02
   1.236299e+02  -1.592021e+02
   8.993122e+01   5.146904e+00
   3.538034e+01   1.953565e+01
   5.127211e+01   3.321875e+01
   2.763829e+01  -1.519184e+01
   7.996282e+01   3.129622e+01
   8.854440e+01   3.135685e+01
  -4.952791e+01   9.468462e+01
  -9.626661e+01   5.051322e+01
  -9.307492e+01  -3.695899e+01
   2.113062e+01  -1.530960e+02
   1.492114e+02  -8.545276e+01
   1.923889e+02   1.135825e+02
   7.987285e+01   2.094504e+02
  -1.288352e+02   2.039389e+02
  -1.862336e+02   1.197505e+02
  -1.951506e+02  -4.878522e+01
  -1.020848e+02  -1.765643e+02
   5.246865e+00  -8.763059e+01
   7.306679e+01  -2.677111e+01
   7.288372e+01  -5.670334e+01
   9.242239e+01  -7.984069e+01
   6.571087e+01  -4.857425e+01
   1.335612e+02   3.903328e+01
   1.588926e+02   1.161734e+02
   2.912341e+01   1.829386e+02
  -8.554151e+01   1.442184e+02
  -1.138263e+02   4.883592e+01
  -1.165640e+02  -1.145649e+02
   1.172314e+01  -1.370113e+02
   9.024329e+01  -5.668862e+01
   4.353902e+01   7.367661e+01
   4.238640e+00   4.641650e+01
  -3.918320e+01   7.231243e+01
   1.628121e+01   1.827887e+01
   8.503086e+01   4.219407e+01
   3.790497e+01   2.922936e+01
  -1.149576e+02   9.916579e+00
  -1.786080e+02  -5.159911e+00
  -1.267626e+02  -6.917029e+01
   1.239457e+01  -1.097881e+02
   1.358175e+02  -3.416329e+01
   6.392823e+01  -2.144862e+01
   8.019160e+00   1.059272e+02
  -5.063647e+01   4.093447e+01
  -5.144982e+01  -1.265629e+01
   3.212348e+00  -4.663912e+01
  -2.112902e+01  -5.685189e+01
   5.180921e+01   2.219283e+01
   5.496391e+01   3.563652e+01
   3.528704e+00   1.951534e+01
   1.774592e+01  -1.843809e+01
   5.527123e+01   1.526072e+01
   5.460177e+01   6.843384e+01
  -5.309780e+01   1.467783e+02
  -1.096507e+02   1.373729e+02
  -1.886881e+02   6.680390e-01
  -8.908882e+01  -4.925043e+01
  -2.336178e+01  -9.550295e+01
   9.348217e+01  -6.608514e+01
   3.393022e+01  -2.544993e+00
  -2.681505e+01   6.712457e+00
  -1.012094e+02  -2.040638e+01
  -4.076702e+01  -7.300894e+01
   4.933774e+01  -1.504769e+02
   1.568426e+02  -3.039003e+01
   1.311045e+02   2.838787e+01
   3.186296e+01   5.394592e+01
  -4.771304e+01   2.327940e+01
  -7.197769e+01  -2.956186e+01
   2.668787e+01  -1.649067e+01
   8.762243e+01   1.463842e+01
   3.544306e+01   1.409726e+02
  -2.131412e+01   1.283410e+02
  -1.260393e+02   2.001856e+01
  -1.124109e+02  -8.632554e+01
  -6.054799e+01  -1.482502e+02
   4.205186e+01  -1.136005e+02
   8.836359e+01   2.056158e+01
   4.303356e+01   1.224564e+02
  -2.949292e+01   1.160920e+02
  -1.616606e+01   9.014974e+00
  -2.411877e+01  -3.295932e+01
   5.084845e+00  -4.208744e+01
   5.840728e+00   4.037174e+01
  -3.066091e+01  -4.709792e+01
  -7.965639e+01  -5.755789e+01
  -3.021230e+01  -1.106629e+02
   6.027225e+01  -1.213004e+01
   1.065984e+02  -1.111740e+01
   1.036315e+02   7.393949e+01
   3.824563e+01   6.309766e+01
  -7.277432e+01   3.346246e+01
  -9.234060e+01  -9.616149e+00
   1.915848e+01  -5.835948e+01
   5.131645e+01  -4.373952e+00
   1.359957e+00   5.273280e+00
  -1.841105e+01   4.117427e+00
  -2.699452e+01  -1.278525e+01
   7.955733e+01   3.476686e-01
   1.009258e+02   4.686143e+01
   2.538492e+01   1.921151e+01
  -1.182222e+02   8.857796e+01
  -1.711627e+02   3.331931e+01
  -1.369273e+02  -5.346396e+01
  -3.635976e+01  -1.692134e+02
   9.508008e+01  -1.149682e+02
   1.475002e+02  -9.078792e+01
   7.595134e+01  -2.269071e+01
   3.744082e+01   2.782953e+01
   3.988664e+00   1.149732e+01
   9.467777e-02   3.745766e+01
   4.428277e+01   6.957710e+01
  -1.011387e+01   4.026253e+01
  -7.907796e+01   7.351162e+01
  -4.443339e+01  -5.562955e+01
  -3.521009e+01  -6.341312e+01
  -3.154179e+00  -1.119274e+02
   7.830180e+01  -6.203747e+01
   7.459630e+01   4.340376e+01
  -1.354103e+01   1.096804e+02
  -5.945733e+01   6.721779e+01
  -1.163332e+02  -5.321368e+00
  -3.430418e+01  -8.157084e+01
   1.626291e+01  -4.866503e+01
   4.666417e+01  -1.144473e+01
   2.395665e+01   3.694746e+00
  -2.780008e+01   2.251196e+01
  -2.138745e+01  -2.007671e+01
   6.395046e+01  -3.506594e+01
   7.398962e+01  -6.655173e+01
   2.130912e+01   1.889769e+01
  -3.027678e+01   9.040861e+01
  -2.149484e+01   7.525181e+01
   8.301966e+00   8.919353e-01
   4.306163e+00  -4.919845e+00
   2.615671e+00  -4.259763e+01
   6.908476e-01   4.860308e+00
   5.251959e+01   2.917895e+01
   1.228821e+01   1.769040e+01
  -4.155869e+01  -8.819245e+00
  -6.998881e+01  -1.829904e+01
  -3.185470e+01  -1.361132e+01
  -3.075668e+01   2.972755e+01
  -1.295456e+01  -1.081097e+01
  -9.778705e+00  -2.734838e+01
   5.958458e+00  -6.008607e+01
   3.052080e+01  -2.802382e+00
   7.775668e+01   4.691440e+01
   7.793560e+01   7.771951e+01
  -9.896661e+00   4.975752e+01
  -3.101590e+01  -2.360229e+01
   2.911288e+01  -6.397516e+01
   5.439810e+01  -6.916259e+01
   4.440527e+01   3.268608e+01
   3.808475e+01   3.676668e+01
   2.524084e+00   1.834517e+01
  -3.883737e+01   6.341458e+01
  -4.564437e-01   5.948240e+00
   3.283855e+00  -2.043997e+01
  -6.376370e+00  -1.830377e+01
  -7.201434e+00  -1.224100e+01
  -7.161832e+01   1.313480e+01
