
 $NMID
 id='ANONYMOUS ', fmtdat='(2E16.6)'
 volume=1.0
 tramp=1.0
 $END
   1.038162e+03  -3.797762e+02
   5.948659e+02  -1.607274e+02
   1.195509e+02   7.560263e+02
  -1.305210e+02   4.609968e+02
  -5.198056e+02   2.704172e+02
  -1.060642e+02  -5.248665e+01
  -2.557373e+01  -1.184482e+02
  -1.993340e+01   1.526756e+02
  -2.530701e+02   1.411461e+02
  -1.314379e+02   8.233526e+01
  -1.597648e+02  -2.831039e+01
  -1.518345e+02  -3.925213e+01
   7.287885e+01  -1.443391e+02
   1.367802e+02   9.713107e+01
   1.142305e+02   1.346161e+02
  -1.137536e+02   1.604054e+00
  -1.721952e+02  -1.341101e+01
  -9.311723e+01  -2.481096e+02
   1.283048e+02  -4.221882e+01
   2.250091e+02  -7.190350e+01
   6.388563e+01   7.245212e+01
   5.502525e+00   5.214055e+01
   5.382759e+01   9.829158e+01
  -2.573480e+01   4.671314e+01
   1.003537e+02   2.661952e+01
   1.629962e+01   5.062262e+01
  -1.193397e+02   6.307257e+01
  -9.445532e+01   1.524846e+02
  -1.672139e+02  -2.507873e+01
   3.244316e+01  -5.528682e+01
   6.380067e+01  -6.444477e+01
   1.549826e+02  -2.307523e+01
  -8.469092e+01   1.748064e+01
  -1.034578e+02   9.190693e+01
  -1.058293e+02  -6.424760e+01
  -8.030489e+01   8.370617e+01
  -6.274963e+01  -9.281543e+01
  -1.261460e+01   3.234889e+00
   8.848633e+01   6.723014e+01
  -1.760018e+01   4.400232e+01
   2.057535e+01  -1.545003e+02
   3.757005e+01  -9.966188e+01
   4.135964e+01   1.938971e+01
  -2.434344e+01   1.200442e+02
  -3.551559e-01   2.433409e+01
  -6.838953e+01  -1.403790e+01
  -1.063959e+02  -1.603393e+02
   9.807420e+01  -7.600644e+01
   1.537994e+02  -5.354560e+00
   1.146629e+02   1.316484e+02
  -6.429979e+01   1.581605e+02
  -6.621703e+01   7.079366e+01
  -8.925575e+01  -5.808933e+01
   1.372825e-01  -5.023803e+01
   5.671845e+01  -4.045810e+01
   3.944968e+01   5.856273e+01
   8.333937e+00  -2.298113e+01
  -3.964898e+01   1.012144e+01
  -3.384779e+01  -5.131170e+01
   6.796511e+01   2.903530e-01
   9.482519e+01   1.391047e+01
  -9.329606e+00   9.759420e+01
  -9.234273e+01   6.010872e+01
  -6.281803e+01  -1.135702e+01
  -3.736088e+01  -9.974963e+01
   2.880514e+01  -5.074128e+01
   7.872635e+01  -4.897865e+01
   7.778770e+01   5.311887e+01
   8.413402e+01   4.240796e+01
   8.707363e+01   8.097099e+01
   1.546389e+01   1.217690e+02
  -8.583143e+00   2.514421e+01
  -5.494013e+01   6.860781e+01
  -2.482504e+01   7.231127e+00
  -2.950395e+01  -3.642098e+01
   1.178083e+01   1.092930e+01
  -1.102618e+01  -5.182936e+01
   7.156482e+01  -2.823572e+01
   1.487155e+01   4.712654e+01
   2.272071e+01  -2.540028e+00
  -3.144043e+01   3.985010e+01
  -8.348510e+01  -6.230845e+01
  -6.844171e+01  -7.321855e+01
   3.305612e+01  -5.961352e+01
   1.057123e+01  -2.461299e+01
   3.488676e+01  -1.886367e+01
   5.618262e+01  -3.830217e+01
   3.795128e+01  -3.403653e+01
   7.181864e+01   2.688771e+00
   4.122331e+01   2.620610e+01
   3.568762e+01   1.003897e+02
  -5.675248e+01   8.230363e+01
  -1.381731e+02   5.744335e+01
  -4.636956e+01   6.801048e+00
  -3.894666e+01  -1.843631e+01
   2.913941e+00  -1.596520e+01
  -8.684473e+00  -4.031480e+01
  -2.700673e+01  -2.101778e+01
  -4.871416e+01   4.446621e+01
  -8.161955e+00  -6.182645e+01
   3.017932e+01   3.905539e+01
   3.470103e+01  -1.953319e+01
  -1.022105e+01   1.739678e+00
  -2.199660e+01   1.935784e+01
  -2.307740e+01  -4.271238e+01
  -1.169253e+01  -1.139540e+02
   3.584822e+01  -8.087340e+01
   9.253710e+01   1.526962e+01
   7.537139e+01   5.496815e+01
   2.649800e+01   2.307197e+00
   5.138769e+01   3.369563e+01
  -2.267538e+01   5.701124e+01
  -9.115470e-01   3.482848e+01
   1.439900e+01   3.964661e+01
  -3.852338e+01   3.624424e+01
  -2.530071e+01   4.374515e-01
  -4.353871e+01   2.529112e+01
   1.952295e+01   1.766974e+01
   4.440124e+01   2.205330e+01
   5.564537e-01   1.266107e+01
  -1.282105e+01   6.458255e+01
  -4.708589e+01   5.430125e+01
  -9.385780e+01   1.936726e+00
  -1.007412e+01  -1.216219e+02
   3.733608e+00  -6.934197e+01
   1.485972e+00   3.976533e+00
   2.112538e+01  -4.789181e+01
  -2.885120e+01   1.610685e+00
  -9.364553e+00   4.754878e+01
   1.291531e+01  -9.476351e+00
   5.753346e+01  -1.384606e+01
   1.581882e+01  -1.388543e+01
   4.400228e-01   4.475079e+01
  -1.553152e+00   4.860160e+01
  -2.273079e+01  -3.236851e+00
   8.185999e-01  -3.811073e+01
  -3.125489e+01   2.352935e+01
  -4.968366e-01   3.607976e+01
  -6.585956e+01   7.551784e+01
  -1.073953e+01   1.087169e+01
  -1.049762e+02  -8.382362e+00
  -3.092321e+01  -8.335432e+01
  -1.614859e+00  -5.064442e+01
   8.983569e+01  -1.210176e+01
   1.404491e+01   4.812730e+01
  -1.353596e+01   3.107262e-01
  -2.128476e+01   2.232031e+01
  -1.407436e+00  -3.786350e+01
  -1.294378e+01  -3.613615e+01
  -2.052544e+01  -3.089731e+00
  -4.127854e+01   2.486648e+01
  -4.027651e+01   3.257967e+01
  -1.177734e+01  -4.880914e+01
   2.398571e+01  -3.612481e+01
   4.945949e+00  -6.120076e+01
   4.277621e+01   3.795572e+01
   6.801239e+01   7.767250e+01
   3.088500e+01   3.005869e+01
  -6.054500e+01   8.059962e+01
   2.482810e+00  -3.090013e+01
  -4.444659e+01  -2.115102e+01
  -6.232991e+00  -2.796308e+00
  -3.435382e+01  -3.470494e+01
  -3.165325e+01  -2.737766e+00
   2.934556e+01  -4.232805e+01
   4.396639e+01  -4.601430e+01
   4.845155e+01   2.300410e+00
   1.835700e+01   3.514664e+01
  -5.489976e+01   6.219382e+01
   9.108758e-01  -1.730911e+01
   2.837324e+01  -6.259362e+01
  -3.349364e+01  -6.672659e+01
   1.819032e+01  -4.291984e+01
   5.811572e+01  -3.877161e+01
  -4.381518e+00   2.168897e+01
  -6.596733e+00   8.564417e+01
   1.812775e+01   2.699666e+00
  -2.510580e+01  -1.864888e+00
  -1.464819e+00  -7.510097e+00
   4.104563e+00   2.869899e+01
   1.406386e+01  -1.024379e+01
  -2.437718e+01  -3.049589e+01
   1.013106e+01  -3.798742e+01
  -3.262941e+00  -2.006488e+01
  -2.500399e+00   3.626320e+01
   7.723891e+01  -2.070655e+01
  -8.813385e+00   4.765107e+01
   9.651809e+00  -8.772587e-01
  -4.256228e+01  -6.753275e+00
   2.141265e+01   5.073712e+00
   2.135146e+01  -7.844790e+00
  -3.840325e+01   3.641657e+00
  -1.414186e+01  -3.807514e+00
  -5.871317e+00  -2.508048e+01
   2.343183e+01  -2.207701e+01
   6.046379e+00  -1.748793e+01
   3.549961e+00  -4.429689e+00
  -9.045085e+00   3.424282e+01
  -2.773295e+01   2.997923e+01
  -6.728576e+01   5.799501e+00
  -2.356262e+01   2.244863e+01
   2.950592e-01  -1.768943e+01
   5.634062e+00   1.418068e+01
  -1.104772e+01  -3.911637e+00
  -4.550101e+01   2.264416e+01
  -3.940139e+01   6.274547e-01
  -2.942066e+01   2.350172e+01
   4.572180e+00   3.289772e+01
  -2.638424e+01   3.497670e+01
  -4.111573e+01   2.957887e+01
  -2.185418e+01  -1.673224e+01
   3.370797e+01  -6.963008e+01
  -2.297798e+01  -2.766074e+01
   4.431298e+01  -1.850381e+01
   2.037658e+01   4.936581e+01
   1.563506e+01   7.156282e+00
  -2.860505e+01   3.039947e+01
  -1.796168e+01   6.074668e+00
   8.448878e+00  -4.087978e+01
   7.113012e+01  -4.042689e+01
  -4.584157e+00   9.980650e+00
  -1.184407e+01   4.020805e+01
  -8.529223e+01   2.446830e+01
  -6.291754e+01   1.368940e+01
  -2.952774e+01  -9.049928e-01
  -1.634485e+01   2.603822e+00
   2.896857e+01  -8.622770e+00
   2.459103e+01   1.003544e+01
  -1.085795e+01   1.221217e+01
  -2.765053e+01  -6.410587e+01
  -2.582074e+01  -4.633524e+01
   2.683113e+01  -2.749060e+01
  -8.972657e+00   7.522606e+00
   3.745176e+01   7.749577e+01
  -8.768311e+00   1.411653e+01
  -1.186676e+01  -1.072596e+01
  -4.958125e+01   3.350425e+00
  -3.952649e+01  -1.862018e+01
  -1.232257e+01  -2.118688e+01
   4.066948e+01  -2.195149e+01
   3.883620e+01   1.561239e+01
   3.509717e+01  -1.751502e+01
   3.613486e+01  -1.275030e+01
   6.218954e-01  -2.367344e+01
   3.560108e+01   2.003725e+01
  -7.824612e+00   1.435950e+01
  -5.129907e+01   1.611251e+01
  -6.705082e+01  -8.184372e+00
  -2.428814e+01  -7.005476e+00
   2.680157e+01  -7.050749e-01
   3.528228e+00  -6.503988e+01
  -1.998351e+00   1.943560e+01
  -1.703881e-01  -6.909571e+00
  -6.249989e+00  -1.739267e+01
   6.149511e+00  -7.471811e-01
  -3.031915e+01  -8.035635e+00
  -1.598630e+01   9.625402e+00
  -4.391262e+01  -1.750379e+00
   5.741914e-01  -1.941256e+01
  -3.953084e+01  -6.162967e+01
   7.538712e+01  -2.395559e+01
   1.141361e+01   3.912272e+01
   6.044195e+01  -3.829767e+01
   1.064821e+01   4.073124e+01
  -4.904448e+01   3.631427e+01
  -2.429163e+01  -1.392826e+01
   8.187837e+00  -3.488309e+01
  -1.775247e+01  -3.246619e+01
  -6.531964e+00   2.328015e+01
   2.545342e+01   1.712814e+01
  -6.198854e+01  -2.183563e+01
   2.816607e+01  -4.559112e+01
   2.753415e+01   2.736871e+01
   9.952688e+01   2.576001e+01
   8.159694e-03  -3.823938e+00
  -7.465103e+00   4.448396e+01
  -3.859744e+01   5.712852e+00
   5.254385e+00  -4.823757e+01
   6.322146e+01  -1.347873e+01
   1.109149e+01  -4.198140e+01
   1.518159e+01  -5.085392e+00
  -3.125702e+01   9.397082e+00
  -2.715601e+01  -1.045928e+01
  -4.993691e-01  -7.693839e+00
   1.750218e+01  -4.387718e+01
   4.633442e+01   1.765102e+01
  -1.137968e+01   2.932747e+01
   7.076343e+00   2.704251e+01
   5.405282e+00  -1.217438e+01
  -5.513827e-01  -2.501811e+01
  -6.316420e+00  -1.358780e+01
   2.211059e+01   2.108130e+01
   1.333576e+01  -1.672450e+01
  -1.592442e+01   6.041049e+00
  -2.964959e+01  -1.754595e+00
  -2.836178e+01   1.619792e+01
   8.266554e+00  -3.243704e+01
   2.955984e+01   2.905018e+00
   1.956470e+01   8.475090e+00
  -3.457694e+01   2.261798e+00
  -1.919088e+01  -8.624276e+00
   1.279082e+01  -8.805266e+00
   3.965669e+01   9.728779e+00
   1.087506e+01   9.674271e-01
  -7.847380e+00   2.675111e+01
  -8.182159e+00   1.371885e+01
   9.620894e+00  -2.979669e+01
   7.293959e+00   6.089136e+00
   5.727838e+01   1.453017e+01
   2.471344e+00   7.160647e+00
  -1.225944e+01   7.283155e+00
  -1.197699e+01  -8.987776e+00
  -3.805191e+01  -2.433567e+01
   3.468768e+01   2.879284e+01
  -4.661158e+00   6.312631e-02
  -1.130320e-01   1.320533e+01
  -2.144299e+01   1.700637e+01
   2.154197e+00  -1.709741e+01
   1.116739e+01   1.086864e+01
  -1.081928e+01  -3.967940e+01
