
 $NMID
 id='ANONYMOUS ', fmtdat='(2E16.6)'
 volume=1.0
 tramp=1.0
 $END
  -1.532260e+03   3.820682e+02
  -1.347835e+03  -1.409735e+02
  -1.610574e+02  -1.021249e+03
   1.403392e+02  -7.378339e+02
   5.518224e+02  -2.464624e+02
  -4.723052e+01   7.548645e+01
  -1.460222e+02   1.515326e+02
   3.234484e+01  -2.145980e+02
   1.420735e+02  -2.068869e+02
   1.911709e+02  -5.520379e+01
   2.545856e+02   3.458016e+02
   8.206066e+01   2.747882e+02
  -9.196642e+01   1.570594e+02
  -1.775727e+02  -2.865407e+02
  -1.393543e+01  -2.964943e+02
   2.068742e+02  -7.484122e-01
   1.455856e+02   1.041695e+02
   6.664931e+01   3.859638e+02
  -1.863891e+02   1.596182e+02
  -3.319068e+02  -1.216809e+01
  -4.880426e+01  -1.130964e+02
   4.163219e+01  -9.382209e+01
   1.485430e+01  -9.854114e+01
  -7.741570e+00  -5.882166e+00
  -1.424412e+02  -4.545112e+01
   1.713910e+01  -1.428165e+02
   1.663920e+02  -1.516710e+02
   2.369905e+02  -1.000773e+02
   2.807698e+02   1.249733e+02
  -9.720996e+01   1.609371e+02
  -2.670319e+02   8.505538e+01
  -1.944560e+02  -1.061667e+02
   1.270626e+02  -8.725556e+01
   2.509762e+02  -1.321075e+02
   1.586565e+02   1.217619e+02
   1.513453e+02   8.050502e+01
   6.858678e+01   1.422878e+02
  -3.801574e+01  -2.525277e+01
   6.694689e+01  -3.533005e+01
   7.070725e+01   7.322741e+01
  -3.204020e+01   1.991421e+02
  -1.583576e+02   1.653327e+02
  -1.194087e+02   1.518548e+01
  -3.177651e+01  -1.487803e+02
   1.042378e+02  -4.826669e+01
   1.068422e+02   1.303350e+02
  -5.372312e+00   1.879503e+02
  -1.755090e+02   1.153157e+01
  -2.364793e+02  -1.604549e+02
  -1.340281e+02  -2.594479e+02
   1.137458e+02  -1.554239e+02
   1.976940e+02  -6.968869e+01
   1.373644e+02   1.051672e+02
  -1.936987e+01   9.311364e+01
  -1.217127e+02   1.232045e+02
  -7.012802e+01  -1.514881e+01
  -4.077214e+00  -2.105083e+01
   6.548409e+01  -7.652956e+00
  -4.747871e+01   4.763921e+01
  -1.028813e+02   1.220452e+01
  -6.095784e+01  -8.707230e+01
   6.751641e+01  -1.211134e+02
   1.352742e+02  -6.351635e+01
   1.668654e+02   5.376269e+01
   4.286351e+01   1.718664e+02
  -8.480481e+01   1.638704e+02
  -1.521411e+02   9.747132e+01
  -1.349067e+02  -1.022774e+02
  -2.018418e+01  -9.886403e+01
  -7.386198e+01  -1.842462e+02
  -1.251159e+01  -1.151661e+02
   3.748691e+01  -4.261954e+01
   6.506806e+01  -1.131627e+02
   8.872583e+01  -4.915448e+01
   9.548343e+01   2.082190e+01
   3.654452e+01   4.496740e+01
   1.303748e+01   8.854380e+01
  -6.941884e+01  -5.841317e+01
  -1.070983e+02  -1.315210e+02
  -8.137991e+00  -1.527345e+02
   1.084381e+02  -1.029264e+02
   1.183741e+02   5.456697e+01
   3.248590e+01   1.194403e+02
   1.800914e+01   1.618005e+02
  -1.019456e+02   5.771324e+01
  -2.920309e+01   5.300434e+01
  -8.609948e+01   9.028191e+01
  -1.331853e+02   3.452467e+01
  -2.073595e+02  -1.078167e+01
  -1.048114e+02  -1.108329e+02
  -2.648286e+01  -2.307406e+02
   1.215066e+02  -2.374252e+02
   2.555642e+02  -1.050967e+02
   9.777353e+01   5.482104e+01
   1.488138e+01   1.242279e+02
  -2.277781e+01   8.265736e+01
  -1.026680e+01  -7.405597e+00
   5.383764e+01  -1.192218e+01
   3.835869e+01  -1.144469e+01
   2.302343e+01   8.334068e+01
  -3.422279e+01   3.794222e+01
  -8.258570e+01   1.487018e+01
   3.577635e+00  -4.019062e+01
   9.651207e+01  -4.474161e+01
   6.025834e+01   9.297002e+01
  -7.339082e+00   1.367311e+02
  -8.783006e+01   1.439939e+02
  -2.022367e+02   1.221131e+01
  -1.740965e+02  -8.292743e+01
  -6.686150e+01  -1.437346e+02
  -8.471490e+00  -6.027852e+01
   8.696222e+01  -1.202985e+01
   1.971014e+00  -1.135486e+01
  -1.642614e+01  -4.242347e+00
   2.085278e+01  -7.677737e+01
   2.479073e+01  -1.150022e+01
   7.381641e+01   1.048293e+01
   4.818224e+01   4.141422e+01
  -4.560129e+01   1.487677e+01
   1.449520e+01  -2.947632e+01
   5.440345e+01  -4.855097e+01
   1.375264e+02  -3.730656e+01
   1.915405e+02   3.290048e+01
   1.555781e+01   7.475602e+01
  -1.326452e+01   1.487649e+02
  -9.831756e+01   9.919819e+01
  -6.627391e+01   1.067472e+01
  -3.613668e+01  -3.348570e+01
   3.739162e+01   4.161682e+00
  -1.554659e+01   1.284981e+01
  -8.859615e+01   3.797393e+01
  -7.431727e+01  -2.367120e+00
   1.358942e+01  -6.774374e+01
   3.551426e+01  -9.768297e+01
   3.084634e+01  -5.132702e+01
   4.404309e+01  -1.882881e+01
  -3.728229e+01   3.539989e+01
  -1.022472e+01  -6.384358e+01
   5.549408e+01  -1.704427e+01
   1.122960e+02  -4.320166e+01
   1.083266e+02   4.238257e+01
   4.417590e+01   8.282878e+01
  -3.776596e+01   1.150752e+02
  -1.090907e+02   5.204605e+01
  -5.056169e+01  -5.070668e+01
   1.854066e+01  -5.441757e+01
   4.319287e+01  -4.086004e+01
   9.412887e+00   2.347792e+01
  -4.989432e+01   9.206688e+00
  -1.411848e+00  -2.606535e+01
   9.033540e+01   3.514100e+01
   1.040082e+02   3.123672e-01
   2.552950e+01   4.765281e+01
  -7.295892e+01   9.913813e+01
  -1.326924e+02   7.549859e+00
  -1.153534e+02  -8.829790e+01
  -2.846901e+01  -1.031068e+02
  -1.584404e+00  -7.717449e+01
   5.628802e+01  -3.648646e+01
   6.664198e+01   5.349662e+01
  -9.062047e+00   1.334325e+01
  -4.820595e+00   3.775730e+01
   5.491979e+01  -1.030324e+01
  -8.385851e+00   1.726568e+00
  -1.076223e+01   6.529458e+01
  -2.364157e+01   5.817388e+01
  -4.600960e+01  -3.972350e+01
   3.841311e+01  -6.031687e+01
   7.069660e+01  -3.265826e+01
   1.214664e+02  -2.535081e+00
   2.808061e+01   8.110753e+01
  -1.855610e+00   1.445806e+02
  -8.917259e+01   7.244589e+01
  -8.410377e+01  -3.571483e+01
  -7.506299e+01  -8.064642e+01
   5.592430e+01  -8.129211e+01
   5.421198e+01  -5.727051e+01
  -9.209570e+00  -5.202133e+01
   4.137339e+01  -4.177412e+01
   3.673262e+01  -4.454087e+01
   1.335640e+01   3.259784e+00
   1.093094e+02   6.059992e+01
  -2.079093e+01   7.402433e+01
  -3.538149e+01   7.851092e+01
  -2.709274e+01   2.064018e+01
  -7.203417e+01  -3.152254e+01
   1.093351e+01  -6.942446e+01
   1.086686e+01  -1.407773e+01
   5.583784e+01   1.904529e+01
   2.650524e+00  -2.490257e+00
  -1.461480e+01   6.124755e+01
   2.907829e+01  -5.633552e+00
   1.172458e+01  -4.538980e+00
   3.352788e+01   1.382251e+01
  -3.563377e+01   4.630782e+01
  -8.145404e+01  -8.006083e+00
  -7.783455e+01   7.112314e+00
  -3.404133e+01  -4.207015e+01
   1.596622e+01  -4.682391e+01
   8.839473e+01   2.933661e+01
   1.941102e+01   1.795823e+01
  -2.895554e+01   1.237531e+01
  -3.533988e+01   3.846851e+01
  -2.296269e+01  -7.185424e+00
   1.565793e+01  -3.606491e+01
   4.732835e+01   2.116884e+01
   7.956986e+01  -4.215402e+00
   4.354022e+01   4.626520e+01
   3.245126e+01  -2.507226e+01
   5.989013e+01  -2.028030e+01
   1.312905e+01   4.771559e+01
   1.895894e+01   5.265044e+01
  -4.838132e+01   7.197432e+01
  -4.848286e+01   6.525034e+00
  -1.011503e+02  -6.252419e+01
   8.559523e+00  -3.288411e+01
   5.738900e+01  -2.284396e+01
   2.026451e+00  -1.434503e+01
  -2.695229e+01   2.744925e+01
  -3.502971e+01   1.308130e+01
  -3.005223e+01  -3.868186e+01
   6.223858e+01  -9.190710e+01
   8.932091e+01  -5.027829e+01
   1.217334e+02  -2.590038e+00
   3.165480e+01   3.148179e+01
  -1.836060e+01   8.868186e+00
  -2.685755e+01   1.267145e+01
   3.530924e+01   3.434392e+00
   2.597480e+01   2.019221e+01
   6.550039e+00   7.086563e+01
  -1.396061e+01   4.416469e+01
  -4.832409e+01   5.987767e+01
  -7.375037e+01  -4.280673e+01
  -5.130044e+01  -1.207350e+02
   2.397760e+01  -4.776714e+01
   6.625915e+01   1.480247e+01
   3.154091e+01   4.156738e+00
   2.788756e+01  -8.369234e+00
  -6.377657e+00  -1.112157e+01
  -2.539886e+01   5.102146e+00
  -3.795256e+01  -5.158673e+00
   1.198549e+01  -1.472298e+00
  -1.474606e+01   1.781480e+01
  -3.051569e+01  -3.338907e+01
  -1.992246e+00  -6.024151e+01
  -8.615474e-01   1.519559e+01
   8.084770e+01   1.641784e+01
   5.035639e+01   5.523689e+01
   2.878999e+01   2.194570e+01
  -3.719849e+01  -2.018465e+00
  -5.365374e+01   9.198300e+00
   1.425416e+01   5.034060e+00
   2.206549e+01   1.964225e+01
   5.168218e+00  -8.478002e+00
   1.014067e+01   1.054289e+01
   4.569564e+00  -2.129784e+01
   2.973419e+01  -7.671505e+00
   4.190141e+01  -6.632216e+00
   1.955052e+01   4.825157e+01
  -4.919619e+01   7.999819e+01
  -6.945980e+01   1.409233e+01
  -9.753756e+01  -1.336663e+01
  -5.479817e+01  -2.930802e+01
  -7.403100e+00  -9.302699e+01
   8.096850e+01  -5.590438e+01
   3.661781e+01  -4.167236e+00
   2.243697e+01  -6.441780e+00
   2.895379e+01  -8.220901e+00
   3.179858e+01  -1.815726e+01
  -1.665575e+01   2.866077e+01
   3.578979e+01   6.853494e+01
  -2.401346e+00   4.738411e+01
  -5.794703e+01  -2.150021e+01
  -5.241747e+01  -5.737853e+01
  -8.674779e+01  -8.662335e+01
   4.651662e+01  -1.800577e+01
   5.841711e+01  -1.554489e+01
   3.229456e+01   7.103365e+01
   8.564338e+00   5.276711e+01
  -6.569267e+01  -1.113328e+01
   2.782812e+01   1.969892e+01
   3.532303e+01  -5.814518e+01
   1.396138e+01  -1.147812e+01
  -3.768910e+01  -1.918573e+01
  -4.179316e+01  -3.545139e+00
   3.932512e+01   4.111272e+00
   2.188019e+01  -1.756059e+01
   5.426360e+01  -5.323277e+01
   7.088638e+01   9.936457e+00
   1.725726e+01   1.807965e+01
  -1.498908e+01   3.524828e+01
  -4.945240e+01  -8.788010e+00
  -2.671372e+00  -4.594900e+01
  -2.259376e+00  -1.037700e+01
   2.890187e+01  -2.515830e+01
   5.214102e+01   5.908671e+00
   3.628487e+01   2.747915e+00
  -1.209366e+01  -2.088984e+01
  -3.363679e+01  -9.834126e+00
  -2.933453e+01  -1.934500e+01
  -2.894520e+01  -1.894115e+00
   3.527921e+01  -3.738210e+00
  -3.057351e+01  -1.676475e+01
   3.593422e+01  -3.535767e+01
   4.528849e+01  -3.142894e+01
   2.002516e+01   7.588862e+00
   2.717509e+01  -1.012989e+01
   1.252022e+01  -1.080014e+01
  -5.905119e+00  -1.051884e+00
  -1.713760e+01  -2.013793e+01
   3.839273e+01  -6.730220e+01
   5.132153e+01  -1.661081e+01
   2.787100e+01   5.065866e+01
  -2.250502e+01   3.224500e+01
  -1.746813e+01   1.606758e+01
  -2.754100e+01   7.973388e+00
   1.585836e+01  -1.603662e+01
   4.901515e+01  -1.529826e+01
   5.145438e+01  -1.000284e+01
  -1.974268e+01   1.700933e+01
