
 $NMID
 id='ANONYMOUS ', fmtdat='(2E16.6)'
 volume=1.0
 tramp=1.0
 $END
   1.371698e+03  -6.170791e+02
   9.681004e+02   5.369600e+02
   6.247526e+02   7.949214e+02
  -7.711730e+02   7.681688e+02
  -4.448688e+02   3.388624e+02
  -3.944605e+02  -2.365125e+00
   1.144624e+01  -6.511029e+01
   1.012941e+01  -6.500407e+01
  -1.570966e+02   1.863660e+02
  -2.561919e+02   3.363756e+01
  -2.208451e+02  -1.529788e+02
  -1.087548e+02  -2.682971e+02
   4.789759e+01  -1.613387e+02
   6.264961e+01   1.081161e+02
   1.148851e+02   2.955621e+02
  -7.865745e+01   1.185861e+02
  -1.962004e+02  -3.130543e+02
   1.638083e+00  -2.879705e+02
   2.586253e+02  -2.516573e+02
   3.205165e+02  -1.106258e+01
   1.324070e+02   1.909525e+02
  -2.207444e+00   1.373804e+02
  -1.637915e+01   6.590503e+01
   1.245956e+02   1.724889e+02
   1.448811e+02   1.738497e+02
  -9.446806e+01   1.330702e+02
  -2.235808e+02  -7.789331e+01
  -2.511801e+02  -5.133954e+01
  -1.623523e+02  -1.951214e+02
   1.400417e+02  -1.435240e+02
   2.472471e+02   7.624898e+01
  -5.409313e+01   1.304154e+02
  -1.015815e+02   1.327030e+02
  -2.323707e+02   7.588922e+01
  -1.866027e+02  -6.168368e+01
  -5.425004e+01  -9.258593e+01
   2.111248e+01  -1.333968e+02
  -5.368097e+01  -2.397468e+01
  -3.298448e+01   6.743585e+01
  -3.277019e+01  -4.119668e+01
  -3.392697e+01  -2.215030e+02
   1.678521e+02  -2.038047e+02
   1.473351e+02  -5.681713e+01
  -3.522313e+00   3.002973e+01
  -5.146818e+01   2.973167e+00
  -3.699447e+01  -9.072947e+01
   6.519747e+01  -1.742077e+02
   1.940678e+02  -5.613761e+01
   1.988561e+02   2.095241e+02
   7.837659e+01   2.245076e+02
  -1.137674e+02   7.506916e+01
  -2.472528e+02  -7.153659e+01
  -1.616909e+02   2.215286e+00
  -1.529838e+01  -1.963285e+01
   6.668227e+01   1.186764e+01
   8.751818e+01   1.071694e+00
   1.021443e+02   3.902728e+01
  -2.220988e+01   6.639942e+01
   6.514860e+01   2.845573e+01
   1.026103e+02   2.340645e+01
   1.248896e+02   5.594615e+01
  -1.088584e+01   1.521539e+02
  -1.903167e+02   5.444646e+01
  -2.035386e+02  -7.812278e+01
  -1.120645e+01  -2.232884e+02
   1.645770e+02  -1.795021e+02
   2.068851e+02  -7.442124e+01
   1.118781e+02   9.211543e+01
   2.746660e+01   1.006034e+02
   6.590448e+01   2.207847e+02
   1.649136e+01   9.936983e+01
  -7.710716e+01   1.262082e+02
  -8.415203e+01   7.124893e+01
  -1.450732e+02  -2.508466e+01
  -1.560222e+02  -7.418689e+01
  -8.312642e+01  -1.048626e+02
   3.488176e+01  -1.442107e+02
   1.248616e+02   7.119292e+01
   6.428941e+01   1.347011e+02
  -3.987283e+01   6.586984e+01
  -1.632818e+02   3.351348e+01
  -1.534211e+02  -9.821298e+01
  -6.491277e+01  -1.468633e+02
   5.599331e+00  -1.703547e+02
   4.175051e+01  -1.456354e+02
   8.834665e+01  -1.054592e+02
   8.847120e+01  -5.508643e+01
   2.226627e+02  -2.694321e+01
   2.406843e+02   8.203273e+00
   1.698409e+02   2.341798e+02
  -3.480621e+01   2.454795e+02
  -9.399824e+01   1.947507e+02
  -2.654655e+02   4.737611e+01
  -2.369885e+02   3.154504e+00
  -2.598452e+01  -1.414384e+02
   3.607492e+01  -1.433669e+02
   1.221411e+01   1.224351e+00
  -1.019256e+02  -2.658103e+01
   9.394394e+00  -3.883710e+01
  -1.891466e+01   1.107975e+01
   8.343757e+01  -2.459294e+01
   5.169869e+01  -1.237388e+01
   3.457628e+01  -8.064769e+00
  -1.231558e+02  -3.967928e+01
  -1.078281e+02  -1.588955e+02
   4.585181e+01  -1.731492e+02
   1.692227e+02  -1.324611e+02
   2.482034e+02   1.673689e-01
   8.792620e+01   1.674795e+02
   1.261035e+01   1.752988e+02
  -9.516718e+01   6.893352e+01
  -1.017965e+02   4.139144e+01
   9.724659e+00   1.248874e+01
   9.393181e-01   3.428118e+01
   6.727911e+00   6.887934e+01
  -4.985117e+01  -1.576487e+01
  -7.009680e+01   4.095375e+01
  -6.692618e+00  -1.472570e+01
   3.910562e+01   2.990047e+01
   2.938331e+00   5.596850e+01
  -9.759811e+01   5.563322e+01
  -1.928741e+02   9.304282e+00
  -1.277273e+02  -1.263315e+02
   2.976511e+01  -1.161660e+02
   1.549591e+02  -9.782675e+01
   1.183143e+02  -3.963965e+01
   8.622181e+01   2.439909e+01
  -3.469444e+01   5.205942e+01
  -1.399079e+01   2.700771e+00
   7.238382e+01  -3.294406e+01
   9.549040e+01  -4.401801e+01
   5.623792e+01   4.110098e+01
   1.129390e+01   1.278367e+02
  -7.047587e+01   7.078489e+01
  -4.559887e+01  -3.088708e+00
  -4.308123e+01  -2.506615e+01
   3.996131e+01   1.071088e+01
   2.086935e+01   6.119394e+01
  -4.493545e+01   6.955063e+01
  -1.218825e+02   7.929373e-01
  -5.159344e+01  -8.687594e+01
   1.304836e+00  -1.030517e+02
   1.176227e+02  -1.241664e+02
   8.982102e+01  -2.351557e+01
   2.778821e+01  -1.948325e+00
  -1.557155e+01   5.312020e+01
  -4.822528e+01   1.184551e+01
   1.395990e+01  -1.265537e+01
   7.265047e+01  -1.886372e-01
  -2.624295e+00   2.457871e+01
  -5.804530e+01   1.160201e+01
  -6.282987e+01  -1.046070e+02
  -1.012025e+01  -8.514084e+01
   8.027210e+01  -7.629598e+01
   1.225903e+02  -1.054586e+01
   1.199671e+02   2.387637e+01
   5.205435e+00   9.127927e+01
  -1.210057e+02   7.915652e+01
  -8.862772e+01   5.142382e+01
  -1.687213e+01  -4.931283e+01
  -2.949042e+01  -3.582160e+01
   2.766608e+01  -1.001967e+01
  -1.974955e+01   5.012641e+00
  -3.650536e+01  -3.948350e+01
   5.225654e+01  -9.937368e+01
   5.635852e+01  -4.652603e+01
   7.692296e+01   3.949327e+01
  -3.259443e+01   1.179119e+02
  -8.453082e+01   5.069472e+01
  -1.431144e+02  -5.135013e+01
  -2.998785e+01  -1.379614e+02
   5.615278e+01  -1.572920e+02
   1.503036e+02  -4.078728e+01
   2.056354e+02   2.749004e+01
   4.432054e+01   1.217298e+02
  -7.859943e+01   8.052570e+01
  -2.896126e+01   6.641254e+01
  -5.243495e+01   6.096670e+01
  -1.742652e+01   1.617557e+01
  -6.263607e+01   5.620273e+01
  -4.405747e+01  -1.578068e+01
  -4.108071e+01  -9.311839e+01
  -2.458220e+01  -9.239688e+01
   9.230176e+01  -7.119675e+01
   5.665583e+01  -2.727250e+00
   1.182206e+02   5.551001e+01
   1.485595e+01   1.121069e+02
  -2.382939e+01   3.772504e+01
  -5.955313e+00  -1.388425e+01
   1.616663e+01  -2.426981e+01
   4.142296e+01  -2.969929e+00
  -1.754341e+01   4.394195e+00
   9.691943e+00  -3.471721e+01
  -4.557549e+01  -6.474479e+00
   4.269938e+01  -2.898443e+01
   1.134162e+02  -8.220242e+00
   8.508294e+01   9.920894e+01
   1.217951e+01   7.236900e+01
  -1.042367e+02   6.006905e+01
  -1.063188e+02  -6.320942e+00
  -3.274229e+01  -3.676003e+01
   3.325578e+01  -8.968712e+00
   3.776397e+01   5.251887e+01
   2.090211e+01  -9.659353e+00
  -1.454026e+00   1.882161e+01
  -5.101259e+01   3.112494e+01
  -4.976455e+01  -3.985293e+01
  -3.865839e+01  -3.806462e+01
  -4.893927e+01   2.177362e+01
  -5.357838e+01  -8.571570e+00
  -1.719855e+01  -4.588626e+01
   5.783805e+01  -6.534999e+01
   1.068430e+02  -1.541862e+01
   1.064891e+02   1.286317e+01
   9.417930e+01   1.970459e+00
   1.083415e+01   7.699434e+01
  -1.568695e+01   2.996490e+01
  -2.575916e+01  -4.300291e+00
   6.019160e+01  -3.544614e+00
   1.041757e+02   3.806614e+01
   4.796464e+00   1.479066e+01
  -4.876896e+01   7.336392e+01
  -1.461055e+02   3.702037e+01
  -9.633086e+01   2.308604e+01
  -4.399226e+01  -4.137850e+01
   3.238396e+01  -4.647446e+01
   1.205727e+01   1.543371e+01
   2.572809e+01   2.803635e+01
  -4.237628e+01   2.282009e+01
  -3.122379e+01  -6.167020e+01
   1.011996e+02  -5.461273e+01
   9.126730e+01  -4.863567e+01
   4.938077e+01   5.895106e+01
   1.847460e+01   6.762331e+01
  -4.467707e+01   7.503616e+01
  -7.563818e+01  -3.850733e+00
  -3.652153e+01  -2.889945e+01
  -2.911727e+01  -7.181875e+01
   5.666332e+01  -8.498579e+00
   1.627168e+01   2.769569e+01
   1.570601e+01   2.825215e+00
   5.105615e-01  -3.264162e+01
   1.465188e+01   4.888573e+00
   5.063979e+00   4.488947e+01
  -6.474255e+01   2.337941e+01
  -5.466104e-01   4.108164e+01
  -1.117534e+02   3.970368e+01
  -6.962445e+01  -3.718445e+01
  -9.945109e+00  -1.067404e+01
   5.109580e+01  -2.357160e+01
   4.854387e+01   1.710529e+01
   9.347819e+00   2.019697e+01
  -2.342830e+01   7.973933e+00
  -4.121430e+01   1.042498e+01
   4.336203e+01  -1.827995e+01
   1.786613e+01   7.106077e+00
  -7.518249e+01   1.982821e+01
  -5.676521e+01  -2.065054e+01
  -6.060792e+00  -3.506196e+01
   4.401583e+01  -5.872147e+01
   9.734735e+01  -1.763062e+01
   5.350386e+01  -2.606350e+00
   4.393065e+01   6.242788e+01
  -7.679582e+01   9.007292e+01
  -7.025115e+01   6.544773e+01
  -2.713174e+01  -5.718411e+01
  -1.895619e+01  -3.058658e+01
   1.344423e+01  -1.512994e+01
  -3.504918e+01  -3.056146e+01
   1.199526e+01  -7.894529e+01
  -9.213319e+00  -7.939324e+01
  -2.434444e+00  -5.606428e+01
  -9.147796e+00   1.335768e+01
   6.056787e+01   7.942766e+01
   9.668674e+00   2.326408e+01
  -6.086306e+01   3.774866e+01
  -2.498198e+01  -1.386747e+01
  -1.748378e+01  -9.839168e+01
   4.955963e+01  -5.365050e+01
   5.808341e+01  -1.254122e+01
   2.063382e+01   2.921894e+01
  -3.865075e+01   9.060431e+00
  -1.495362e+01   5.453686e+01
  -6.207679e+00   1.508556e+00
   5.508539e+01  -4.923616e+00
  -1.434425e+01   3.751145e+01
  -5.358226e+01   6.965135e+01
  -4.661918e+01  -1.660350e+01
  -5.052787e+01  -3.081244e+01
  -3.289485e+01  -2.110025e+01
   1.697692e+01  -4.131087e+01
   4.334290e+01   3.126546e+00
  -2.520255e+00   4.705109e+01
  -1.360387e+01   3.063757e+01
  -2.903049e+01   5.460039e+00
  -5.075746e+00  -7.067898e+01
  -2.410964e+01  -4.164240e+01
   2.574985e+01   3.860588e+01
   2.613727e+01   1.964579e+01
   9.784773e+00   1.741517e+01
   2.918580e+00  -1.910523e+01
   2.987060e+01   1.974627e+00
  -3.895820e+01   6.489852e+00
  -3.224918e+01   2.218917e+01
  -1.755249e+01   3.901160e+01
  -3.704663e+01  -4.631253e+01
  -3.828877e+01  -1.965744e+01
   4.071683e+01  -3.579755e+01
   6.831075e+00  -2.206973e+01
   2.047545e+01   7.274879e+01
  -2.490555e+01  -1.849683e+01
  -7.406328e+01  -2.817922e+00
  -6.316770e+01  -3.576584e+01
  -2.880118e+01  -3.146791e+01
   4.698193e+01   1.959165e+01
   3.769926e-01  -2.561961e+01
  -3.766590e+01   2.839049e+01
  -2.339336e+01  -1.748669e+01
  -7.565975e+00  -1.712477e+01
   3.305649e+01  -2.276821e+01
