
 $NMID
 id='ANONYMOUS ', fmtdat='(2E16.6)'
 volume=1.0
 tramp=1.0
 $END
   3.851647e+03   6.359657e+02
   2.386566e+03   2.647832e+03
  -7.552808e+02   2.487468e+03
  -1.773137e+03   1.024385e+03
  -8.468587e+02  -2.763326e+02
   1.004385e+02  -2.998629e+02
   5.926581e+02   2.143938e+02
   4.627388e+01   6.744733e+02
  -7.474161e+02   6.713347e+02
  -9.318324e+02  -1.863691e+02
  -6.420665e+02  -6.609545e+02
   6.292976e+01  -6.931197e+02
   5.074632e+02  -6.852267e+01
   2.438178e+02   5.127784e+02
  -2.435614e+02   7.060077e+02
  -4.598684e+02   8.771906e+01
  -2.315799e+02  -6.077169e+02
   3.311239e+02  -5.908197e+02
   4.659604e+02  -2.588250e+02
   4.400780e+02   3.006505e+02
   3.050863e+01   4.339896e+02
  -1.590639e+02   2.444182e+02
  -1.388689e+02  -3.416194e+01
   6.971254e+01  -3.872019e+01
   4.225249e+02   2.463004e+02
   7.616807e+01   3.599851e+02
  -5.072583e+02   2.476536e+02
  -8.607645e+02  -1.983088e+02
  -3.354362e+02  -4.669791e+02
   4.419076e+02  -3.806307e+02
   6.185707e+02   1.304367e+02
   3.105347e+02   4.987184e+02
  -3.191094e+02   3.293733e+02
  -6.037698e+02   9.582513e+01
  -3.408553e+02  -2.220061e+02
   2.369300e+00  -4.351095e+02
   1.242372e+02  -2.715369e+02
   1.017241e+02   2.045230e+02
  -2.199466e+02   4.139952e+02
  -4.674283e+02  -3.584594e+01
  -1.144018e+02  -5.970161e+02
   3.367172e+02  -6.352997e+02
   5.647300e+02   4.407301e+01
   2.206004e+02   4.410932e+02
  -2.410254e+02   1.884242e+02
  -2.645170e+02  -2.767459e+02
   1.932061e+02  -5.603732e+02
   5.072138e+02  -5.789578e+01
   5.424979e+02   4.054402e+02
   1.269367e+02   6.229612e+02
  -4.274250e+02   2.497281e+02
  -4.940279e+02  -1.253303e+02
  -4.237432e+02  -3.925965e+02
   1.880532e+02  -3.817549e+02
   3.794180e+02  -7.737574e+01
   2.573682e+02   1.519759e+02
  -3.672820e+01   4.123062e+01
  -1.699265e+02  -1.384408e+02
   1.513552e+02  -9.692631e+01
   3.202644e+02   9.646187e+01
   1.660692e+02   3.884176e+02
  -1.579639e+02   2.829349e+02
  -3.394481e+02   1.397906e+02
  -1.851001e+02  -5.323623e+01
   1.707055e+01  -2.581047e+02
   2.134320e+02  -3.915460e+02
   2.932686e+02  -1.985184e+02
   2.404294e+02   1.571039e+02
   1.027269e+02   4.099224e+02
  -1.073411e+02   3.839226e+02
  -4.970095e+01   1.255012e+02
  -2.710709e+01   1.202100e+01
  -3.553049e+01   8.694371e+01
  -2.042909e+02   8.553385e+01
  -2.800723e+02  -9.967813e+01
  -1.336162e+02  -2.001429e+02
   7.152089e+01  -2.765678e+02
   1.887518e+02  -4.493110e+00
   1.176540e+02   2.578799e+02
  -4.616587e+01   3.263969e+02
  -2.618350e+02   7.863541e+01
  -3.085251e+02  -1.723693e+02
  -1.278482e+02  -3.054789e+02
   8.988840e+01  -2.698532e+02
   2.008089e+02  -1.960281e+02
   1.348457e+02  -3.081457e+00
   1.212168e+02  -2.849816e+01
   2.099307e+02  -5.548278e+01
   2.829699e+02  -2.576478e+00
   4.188973e+02   2.801860e+02
  -2.194887e+01   5.176595e+02
  -3.816965e+02   4.610312e+02
  -4.683292e+02   2.315745e+02
  -3.378406e+02  -1.062297e+02
  -3.752219e+01  -3.841372e+02
   1.460688e+02  -2.651925e+02
   4.058011e+01   1.648975e+01
  -1.048226e+02   1.070027e+02
  -1.687721e+02   1.849489e+01
  -3.418970e+01  -1.820399e+02
   8.133269e+01  -1.377171e+02
   1.522729e+02   7.453091e+01
  -4.805370e+01   1.809110e+02
  -1.685266e+02  -3.485377e+01
  -1.646243e+02  -2.657479e+02
   1.551481e+01  -3.236570e+02
   2.428753e+02  -2.193191e+02
   4.238064e+02   1.332329e+02
   2.410080e+02   2.432910e+02
   9.189548e+01   2.473625e+02
  -1.489766e+02   1.860378e+02
  -1.512014e+02   1.185333e+01
  -2.583479e+01  -2.820089e+01
   7.077710e+01   1.857847e+01
   1.965814e+00   9.871144e+01
  -1.061884e+02   9.518139e+01
  -1.761049e+02   2.927681e+00
  -9.039555e+01  -1.021637e+02
   6.532535e+01  -3.145859e+01
   2.809294e+01   1.041005e+02
  -1.932374e+02   7.295954e+01
  -3.105938e+02  -2.498261e+01
  -2.144553e+02  -1.339513e+02
  -1.079669e+02  -2.705261e+02
   2.043653e+02  -2.730633e+02
   2.749749e+02  -1.322165e+02
   1.564464e+02   6.941470e+01
  -1.879605e+01   9.773279e+01
  -1.276920e+02  -1.469840e+01
   1.004120e+02  -8.312584e+01
   2.138364e+02  -3.926588e+01
   1.745578e+02   8.370909e+01
   6.031107e+01   1.844341e+02
  -5.557089e+01   1.180235e+02
  -1.352177e+02   4.373147e+01
  -3.844335e+01  -1.581923e+01
   4.237340e+01   4.712538e+01
   4.439453e+01   9.920937e+01
  -8.081808e+01   1.187433e+02
  -1.357091e+02   3.862399e+01
  -1.537547e+02  -1.524534e+02
  -7.659862e+01  -2.278147e+02
   1.676291e+02  -1.384058e+02
   2.005122e+02   3.222496e+01
   7.900183e+01   7.943907e+01
  -9.354821e+01   1.259041e+02
  -8.312050e+01   7.322348e+00
  -3.700056e+01  -2.542044e+01
   2.644897e+01   7.435407e+00
   1.046202e+01   2.021885e+01
  -8.853758e+01   5.617611e-01
  -9.760083e+01  -1.051002e+02
   1.909097e+00  -1.991596e+02
   1.455402e+02  -1.419140e+02
   2.516459e+02  -4.210096e+01
   2.051517e+02   1.289800e+02
   2.884284e+01   2.471814e+02
  -1.173695e+02   1.722394e+02
  -8.785534e+01   7.683497e+01
  -9.155709e+01  -8.731205e+01
  -2.703680e+01  -3.052008e+01
  -5.365291e+01   6.317530e+00
  -8.659975e+01  -5.305155e+00
  -5.182177e+01  -3.168201e+01
   6.880935e+01  -7.578881e+01
   1.159784e+02  -7.862815e+01
   1.207664e+02   2.768711e+01
  -3.268248e+01   1.129495e+02
  -1.355477e+02   8.693963e+01
  -1.755544e+02  -4.307677e+01
  -7.889040e+01  -1.945685e+02
   1.010376e+02  -1.336436e+02
   3.111020e+02  -5.827372e+01
   2.239079e+02   1.248206e+02
   8.280864e+01   1.503216e+02
  -2.367920e+01   1.475271e+02
  -6.184978e+01   1.246844e+02
  -5.999106e+01   3.524813e+01
  -8.693887e+01   9.114503e+01
  -9.779756e+01   9.013121e+01
  -1.138796e+02  -1.756783e+01
  -8.532218e+01  -1.731078e+02
  -6.315796e+00  -2.903982e+02
   7.860669e+01  -1.505161e+02
   1.559490e+02  -6.441860e+00
   1.235966e+02   1.380844e+02
   1.219338e+01   1.581489e+02
  -7.355636e+01   7.141677e+01
  -1.261371e+02   2.431953e+00
   9.830437e+00  -6.297165e+01
   2.890500e+01  -1.649418e+01
  -2.322788e+01  -1.334788e+00
  -1.050482e+02   5.868255e+00
  -2.358727e+01  -5.720226e+01
   6.182245e+01  -3.347349e+01
   1.739448e+02  -2.168826e+01
   1.644722e+02   2.302851e+00
   1.977101e+01   8.212615e+01
  -1.533648e+02   7.728737e+01
  -1.694758e+02   1.630074e+01
  -3.245405e+01  -4.683629e+01
   9.891795e+01  -7.399446e+00
   1.167147e+02  -8.738239e-02
  -1.691932e+01   6.504838e+01
  -1.814795e+01   4.175419e+01
  -7.353421e+01  -2.903146e+01
  -4.937020e+01  -7.124767e+01
  -6.614729e+01  -1.002433e+02
  -6.114752e+01  -5.328410e+00
  -7.663419e+01   2.022879e+01
  -5.279043e+01  -9.506798e+01
   3.323595e+01  -1.356670e+02
   1.685532e+02  -1.193234e+02
   1.432257e+02  -3.505387e+01
   1.348524e+02   9.736924e+01
   2.084532e+00   1.594231e+02
  -1.056481e+02   4.514228e+01
  -8.132235e+01  -1.200029e+01
   4.173924e+01  -3.420663e+01
   1.146477e+02   9.259278e+01
   7.352361e+01   1.434484e+02
  -9.699077e+01   9.473752e+01
  -2.485751e+02   1.057913e+02
  -1.756930e+02  -3.511333e+01
  -6.833116e+01  -1.060911e+02
   5.002810e+01  -6.395877e+01
   7.313528e+01   4.518247e+01
  -3.105774e+01   4.117516e+01
  -1.081232e+02  -5.123843e+01
   1.508542e+01  -1.090938e+02
   8.333802e+01  -1.349236e+02
   1.242133e+02  -5.820963e+01
   1.667941e+02   1.164743e+02
  -7.221392e+00   1.954836e+02
  -1.277686e+02   1.216851e+02
  -1.169880e+02  -1.747803e+01
  -3.184905e+01  -1.346432e+02
   2.103064e+01  -1.005374e+02
   9.265734e+01  -1.981299e+01
   8.213249e+01   5.838296e+01
   5.925353e+01   4.441697e+00
   4.714915e+00  -1.977497e+01
   1.990507e+01  -2.517806e+01
   7.278266e+01   9.068072e+01
   4.453255e+01   9.024828e+01
  -3.593215e+01   4.442859e+01
  -1.282842e+02  -2.122417e+01
  -1.278368e+02  -6.646608e+01
  -1.125897e+01  -7.835066e+01
   8.466034e+01  -2.551302e+01
   8.925899e+01  -7.676349e+00
   1.713684e+01   1.191289e+01
  -3.836573e+01   2.439414e+01
   4.584401e+01   1.406097e+01
  -2.632192e+01   3.189189e+01
   5.125393e+00  -1.289852e+01
  -1.010215e+02  -2.644988e+01
  -7.401092e+01   1.091742e+01
  -4.441975e+00  -7.254117e+01
   1.213489e+02  -6.161807e+01
   1.832008e+02  -8.966952e+01
   1.808086e+02   2.003156e+01
   4.512564e+01   1.734184e+02
  -7.056020e+01   1.459186e+02
  -1.037526e+02   6.024578e+01
  -8.038076e+01  -1.145339e+01
  -1.332817e+01  -1.054038e+01
   1.912088e+01  -6.952918e+01
   1.522784e+01   4.175206e+01
  -5.694261e+01  -6.186791e+01
  -6.574697e+00  -1.059156e+02
   6.389937e+01  -8.936829e+01
   1.001466e+02   2.404280e+01
   7.216027e+01   9.524833e+01
   9.965251e+00   7.006709e+01
  -8.661072e+01  -1.274445e+01
  -9.063935e+01  -1.023337e+02
  -6.596429e+01  -8.530192e+01
   1.100031e+02  -7.173821e+01
   8.666488e+01   1.595655e+01
   3.558110e+01   4.891928e+01
  -4.945121e+01   7.303240e+01
   5.590749e+00   7.032058e+01
   2.901387e+01   1.280654e+01
   9.858255e+01  -1.453345e+01
  -4.515478e+01  -6.639849e+00
  -1.132551e+02   8.510353e+01
  -1.552550e+02   5.469530e+01
  -9.118864e+01  -2.522073e+01
  -1.921771e+01  -5.782415e+01
   7.488535e+01  -1.049450e+02
   7.224411e+01   2.614057e+01
  -1.118730e+01   8.700150e+00
  -6.297388e+01   2.060991e+01
  -2.799940e+01  -3.452463e+01
  -5.824337e+01  -1.021643e+02
   7.037187e-01  -8.144763e+01
   3.913605e+01   3.510106e+00
   7.538602e+01   1.492437e+01
   4.510016e+01  -2.909712e+01
  -1.115794e-01  -1.358142e+01
   2.885754e+00  -1.829616e+00
   2.494525e+00   2.565634e+01
  -1.890494e+01   3.755343e+01
  -1.068380e+01   5.993571e+01
  -3.896482e+01  -7.078680e+01
  -3.228159e+01  -5.243293e+01
   3.665672e+01  -7.671154e+00
   1.064752e+02   6.624892e+01
  -1.105166e+00   4.677557e+01
  -7.833691e+01   5.173131e+00
  -1.182438e+02  -1.909433e+01
  -4.716428e+01  -6.316737e+01
   2.550017e+01  -2.809071e+01
   7.228684e+01  -3.505101e+00
   3.852491e+00   3.454047e+01
  -1.292797e+01  -7.867697e+00
  -5.769627e+01   2.022775e+01
   2.126735e+01  -1.905234e+01
   7.623497e+01  -1.019706e+01
