
 $NMID
 id='ANONYMOUS ', fmtdat='(2E16.6)'
 volume=1.0
 tramp=1.0
 $END
  -3.067853e+03  -8.034086e+02
  -2.007370e+03  -2.186250e+03
   1.794229e+01  -2.124207e+03
   1.118486e+03  -1.043296e+03
   9.987823e+02  -3.050243e+02
   2.161708e+02   2.481029e+02
  -1.883075e+02  -9.231652e+01
  -2.306940e+01  -2.963473e+02
   4.386123e+02  -5.292385e+02
   7.705255e+02   1.035829e+02
   4.355183e+02   4.038044e+02
   1.511737e+02   5.506662e+02
  -2.374431e+02   1.188699e+02
  -2.014895e+02  -3.239873e+02
   1.929842e+02  -4.372632e+02
   3.663567e+02  -1.143631e+02
   1.986103e+02   3.886687e+02
  -2.439749e+02   6.403898e+02
  -3.009627e+02   3.702055e+02
  -4.245189e+02  -1.504451e+02
  -1.595944e+02  -2.863670e+02
   9.855943e+00  -3.174143e+02
   6.292545e+01  -6.728581e+01
  -1.737497e+02  -9.464429e+01
  -2.955670e+02  -2.663417e+02
   6.859162e+01  -3.298809e+02
   4.063950e+02  -5.225096e+01
   5.238409e+02   3.590034e+02
   2.042468e+02   2.740683e+02
  -2.735706e+02   1.628847e+02
  -4.892384e+02  -2.002573e+02
  -1.359320e+02  -4.291218e+02
   2.565421e+02  -1.867731e+02
   4.873374e+02  -2.966938e+01
   3.038107e+02   1.667099e+02
   5.154621e+00   3.034681e+02
  -4.966076e+01   1.230835e+02
   2.291221e+01  -1.376941e+02
   2.068376e+02  -1.974888e+02
   2.365504e+02   1.157845e+02
   4.772947e+00   3.545258e+02
  -4.217394e+02   4.626729e+02
  -3.979588e+02  -1.398515e+02
  -4.741648e+01  -2.888102e+02
   8.636131e+01  -5.353367e+01
   5.777436e+01   2.102151e+02
  -1.500474e+02   3.978346e+02
  -4.687379e+02   6.310697e+01
  -3.958915e+02  -3.475379e+02
  -6.748465e+01  -5.529287e+02
   3.241981e+02  -1.851590e+02
   3.880479e+02   1.337856e+02
   3.435295e+02   2.852344e+02
  -1.147644e+02   2.722987e+02
  -2.289952e+02   1.054641e+02
  -2.245251e+02   6.073320e+01
  -1.131018e+01   1.026980e+01
   2.601558e+01   5.652217e+00
  -7.511938e+01   3.864268e+01
  -2.213318e+02  -1.146226e+02
  -1.568392e+02  -2.507627e+02
   1.363722e+02  -2.429398e+02
   3.115399e+02  -2.201976e+02
   2.880676e+02   1.376912e+02
  -7.433364e+01   2.741312e+02
  -3.056223e+02   3.618683e+02
  -3.134318e+02   1.525493e+02
  -1.923072e+02  -1.723941e+02
  -7.607025e+01  -3.608157e+02
  -4.966398e+00  -3.401015e+02
   4.951253e+00  -1.687886e+02
   4.974152e+01  -1.116192e+02
   9.786694e+01  -8.564391e+01
   1.941711e+02  -1.870202e+01
   2.103243e+02   9.647547e+01
   5.803215e+01   2.268645e+02
  -1.134761e+02   1.732061e+02
  -1.501618e+02  -7.286528e+01
  -1.258879e+02  -2.724052e+02
   5.660267e+01  -2.449594e+02
   2.571366e+02  -5.523169e+01
   2.990061e+02   1.803108e+02
   9.658409e+01   3.108437e+02
  -4.293130e+01   2.053791e+02
  -1.826737e+02   1.448808e+02
  -1.441008e+02   8.924429e+01
  -1.410741e+02   6.205121e+01
  -2.246979e+02   1.780269e+01
  -3.035076e+02  -5.514404e+01
  -3.274790e+02  -2.807362e+02
   3.913839e+01  -4.407397e+02
   4.220412e+02  -3.564526e+02
   4.172416e+02  -1.920659e+02
   2.692950e+02   1.171618e+02
  -5.973636e+01   2.787859e+02
  -1.021868e+02   2.053392e+02
  -2.476281e+01   4.133899e+00
   1.345717e+02  -4.023687e+01
   1.194829e+02   1.561311e+01
  -2.632553e+00   1.335655e+02
  -8.548861e+01   6.899915e+01
  -5.656123e+01  -8.606847e+01
   8.538871e+01  -1.487256e+02
   1.371518e+02   5.026543e+00
   1.885005e+02   2.947835e+02
   4.474288e+00   3.046354e+02
  -2.198990e+02   1.459937e+02
  -3.580815e+02  -8.054501e+01
  -2.708594e+02  -2.153662e+02
  -5.546452e+01  -2.686163e+02
   1.839333e+02  -1.127969e+02
   1.282928e+02   1.856517e+01
   3.845348e+01  -3.267843e+01
  -7.004712e+01  -3.346176e+01
   1.526430e+01  -1.108423e+02
   1.121336e+02  -4.251671e+01
   1.711776e+02   5.065515e+01
   2.846842e+01   7.596720e+01
  -1.071149e+02  -8.102701e+00
  -1.787107e+01  -9.124483e+01
   1.609193e+02  -8.121835e+01
   2.796641e+02   4.281860e+01
   1.892827e+02   1.547156e+02
   6.842481e+01   2.590258e+02
  -2.615445e+02   1.806057e+02
  -1.980561e+02   9.252722e+01
  -1.387732e+02  -3.187597e+01
   1.142386e+00  -8.574956e+01
   2.434061e+01   4.806500e+01
  -7.783162e+01   7.280292e+01
  -1.298253e+02   1.599997e+00
  -1.260419e+02  -7.284553e+01
  -2.670082e+01  -1.782684e+02
   1.260222e+02  -1.300244e+02
   9.748381e+01  -5.466170e+01
   1.494047e+01   4.900856e+01
  -1.667999e+01  -1.704809e+01
  -1.623398e+01  -9.545411e+01
   1.175051e+02  -1.077810e+02
   1.949631e+02  -1.297035e+01
   1.793682e+02   1.259823e+02
   6.692466e+00   1.726648e+02
  -1.542858e+02   8.413427e+01
  -1.707417e+02  -3.213304e+01
  -6.310595e+01  -2.736265e+01
   8.856016e+01  -1.022596e+02
   5.878934e+01  -2.048422e+01
   5.516953e+00   3.343031e+00
  -2.926095e+01  -5.772153e+00
  -2.026502e+01  -4.587469e+01
   8.826696e+01  -3.562170e+01
   1.037728e+02   6.456579e+01
  -8.515762e+00   1.836621e+02
  -1.273678e+02   1.347434e+02
  -2.417322e+02  -2.511253e+01
  -1.456150e+02  -1.494267e+02
  -2.252538e+01  -2.382073e+02
   1.128346e+02  -1.453610e+02
   7.607064e+01  -1.833581e+01
   6.222375e+01   3.164497e+01
   1.631563e+01   6.915650e+01
   8.404755e+01  -9.165425e+00
   9.428846e+01  -5.534827e-01
   5.316837e+01   5.418953e+01
  -1.508195e+01   1.079428e+02
  -1.277076e+02   7.889322e+01
  -1.554391e+02  -7.428030e+01
   3.682016e+01  -1.160658e+02
   1.440716e+02  -4.801839e+01
   1.901041e+02   7.618670e+01
   4.966601e+01   1.886130e+02
  -1.232760e+02   1.668104e+02
  -2.362993e+02   4.687752e+01
  -1.850470e+02  -8.730725e+01
  -1.075427e+02  -1.766770e+02
   1.687654e+01  -1.365050e+02
   5.377007e+01  -8.979317e+01
   3.936368e+01  -4.807070e+01
   5.392704e+01  -6.473402e+01
   1.058182e+02  -6.562369e+01
   1.355417e+02  -1.936974e+00
   1.057726e+02   1.690266e+02
   8.158553e+00   2.298732e+02
  -6.599137e+01   7.877529e+01
  -1.338454e+02   2.256924e+00
  -1.372525e+02  -1.108822e+02
  -3.312305e+01  -1.412102e+02
   1.059992e+02  -6.683452e+01
   4.085684e+01   3.700055e+01
   1.592483e+01   5.851786e+01
  -4.428008e+01   3.094951e+01
   1.920481e+01  -5.988391e+00
   6.549492e+01   3.718922e+01
   2.223303e+01   8.778841e+01
  -8.261634e+01   3.073034e+00
  -1.587817e+02  -8.707065e+00
  -9.609429e+01  -2.533650e+01
  -1.114753e+01  -1.124020e+02
   1.594895e+02  -4.639648e+01
   8.787503e+01  -4.891110e+01
   5.435484e+01   3.350652e+01
  -9.842559e+01   3.678583e+01
  -7.765770e+01  -2.912531e+01
  -1.949827e+00  -7.001228e+01
   7.321204e+01  -9.153834e+01
   7.558539e+01   1.357123e+01
   5.911013e+01   6.541108e+01
   2.907975e+01   5.171625e+01
   5.354764e+01   5.226978e+01
   4.914961e+01   8.194777e+00
   5.953257e+01   8.944389e+01
  -4.048049e+01   1.423102e+02
  -1.478731e+02   1.268672e+02
  -1.338402e+02   3.271715e+01
  -1.138305e+02  -1.377417e+02
  -4.269838e+01  -1.137337e+02
   7.511454e+01  -5.291802e+01
   5.605801e+01   2.970456e+01
  -4.471046e+01   1.523085e+01
  -1.189765e+02  -6.419119e+01
  -3.006196e+01  -1.400224e+02
   1.522002e+02  -9.725417e+01
   2.231092e+02  -5.112249e+01
   1.563760e+02   2.266837e+01
   3.195610e+01   9.905286e+01
  -6.774527e+01   7.659094e+01
  -6.242366e+01   2.212292e+01
   8.446018e+01  -2.343557e+01
   6.384821e+01  -2.024158e+01
   4.870243e+01   1.196606e+02
  -4.123054e+01   2.032961e+02
  -9.385735e+01   1.275118e+01
  -1.275372e+02  -1.546684e+02
  -1.028909e+01  -1.445823e+02
   9.350403e+01  -1.112388e+02
   1.186606e+02   5.512353e+01
   4.168059e+01   1.121383e+02
  -5.365823e+01   1.287631e+02
  -6.542228e+01   1.729838e+01
  -7.534322e+01  -5.946977e+01
  -3.153146e+01   2.118470e+01
   2.994571e+01   2.517696e+01
  -2.673908e+01  -4.861977e+01
  -5.845234e+01  -9.129945e+01
  -3.731457e+01  -7.342107e+01
   6.689587e+01  -7.036295e+01
   1.242817e+02  -8.100973e+00
   1.114386e+02   2.424036e+01
   2.251942e+01   5.985196e+01
  -7.787448e+01   1.837558e+01
  -3.555007e+01   4.534812e+01
  -3.723262e+01  -2.765119e+01
   2.493847e+01  -3.167960e+01
  -9.067754e+00  -3.572786e+01
  -1.931148e+01  -3.201623e+01
   9.497786e+00  -1.535406e+00
   7.753173e+01   2.084628e+01
   9.420468e+01   3.939831e+01
   3.766442e+01   9.332572e+01
  -1.423208e+02   1.135688e+02
  -1.866166e+02   4.253114e+01
  -1.505100e+02  -7.103516e+01
  -1.476888e+01  -1.894291e+02
   1.060418e+02  -1.414036e+02
   9.275511e+01  -9.727123e+01
   3.007713e+01   1.372880e+00
   2.446872e+01   3.392407e+01
   2.677093e+01  -3.450049e+00
   2.529979e+00  -4.051965e+00
   4.361801e+01   7.788614e+01
   4.092465e+00   9.431572e+01
  -5.758054e+01   1.177322e+02
  -4.492367e+01  -3.073697e-01
  -7.871949e+01  -8.463706e+01
  -1.171770e+01  -1.020985e+02
   6.175430e+01  -3.744784e+00
   1.000024e+02   8.204241e+01
   2.503222e+01   1.105654e+02
  -8.303362e+01   6.948012e+01
  -8.785879e+01  -3.544116e+01
  -2.544766e+01  -6.850550e+01
   2.634836e+01  -5.275438e+01
   1.108874e+01  -2.222471e+01
  -2.288221e+01  -1.419013e+01
  -8.747981e+01   2.462209e+01
  -2.278287e+01  -1.788703e+01
   1.556053e+02  -6.805373e+01
   1.417665e+02  -3.623013e+01
   8.997480e+01   4.483977e+01
  -1.297215e+01   9.159467e+01
  -4.255710e+01   8.936820e+01
  -5.743520e+01  -6.644850e+00
  -1.680378e+01  -4.445694e+01
   1.598400e+01  -6.477848e+01
   1.163817e+01  -2.326858e+00
   3.682686e+01   4.906701e+01
  -1.468159e+01   6.014086e+01
   3.689426e+01  -3.580310e+01
  -8.217563e+01  -7.192763e+01
   1.141443e+01   9.377481e+00
   1.494314e+01   8.581103e+00
   5.425835e+01   2.924578e+01
   5.573325e+00  -2.798599e+01
   3.661643e+01  -4.129517e+01
   6.598413e+00  -3.916656e+00
   4.428645e+01   5.773706e+01
   4.593056e+01   7.266348e+01
  -1.723071e+01   2.623763e+01
  -6.379723e+01  -5.208386e+01
   7.492543e+00  -6.789292e+01
   8.585498e+01  -4.031232e+01
   9.324471e+01   1.024156e+01
   3.357574e+01   5.719566e+01
  -3.459176e+01   7.820992e+00
  -8.303739e+01   3.972975e+00
  -3.896850e+01  -1.873587e+01
   6.018930e+01  -3.264265e+01
   1.863459e+01  -3.259144e+01
   5.140557e+00   3.621086e+01
  -6.987565e+01   3.973201e+00
