
 $NMID
 id='ANONYMOUS ', fmtdat='(2E16.6)'
 volume=1.0
 tramp=1.0
 $END
   1.999515e+03   6.046884e+01
   1.301632e+03   1.208372e+03
   4.007330e+02   1.418653e+03
  -9.551425e+02   7.250341e+02
  -8.424559e+02   2.871500e+02
  -2.800589e+02  -2.262733e+02
   1.684648e+02  -1.555482e+02
   1.419834e+02   4.181431e+02
  -1.461873e+02   2.328237e+02
  -3.595958e+02   8.979438e+01
  -4.620835e+02  -1.193686e+02
   1.364442e+01  -3.278482e+02
   1.127528e+02  -1.132500e+02
   2.036303e+02   2.470484e+02
  -2.186240e+02   4.289742e+02
  -2.727554e+02   1.751210e+01
  -2.842120e+02  -3.757788e+02
   5.302741e+01  -4.862290e+02
   2.846086e+02  -3.000024e+02
   3.402992e+02   1.712163e+02
   1.161703e+02   2.397536e+02
  -9.028128e+01   1.860254e+02
  -3.308705e+01   1.107807e+02
   1.407985e+02   1.268242e+02
   2.486066e+02   2.742186e+02
  -7.669234e+01   2.526752e+02
  -2.789358e+02   1.226726e+02
  -4.659880e+02  -2.814899e+02
  -5.644059e+01  -2.729725e+02
   1.840730e+02  -1.084902e+02
   3.058528e+02   6.757558e+01
   4.978139e+01   2.625893e+02
  -6.697960e+01   2.357659e+02
  -2.224761e+02   1.427617e+02
  -2.305152e+02  -1.371656e+02
  -1.136096e+02  -2.049372e+02
  -1.913982e+00  -1.823922e+02
  -7.883407e+01   6.943243e+01
  -1.463461e+02   4.410098e+01
  -1.555499e+02  -1.314513e+02
   3.373125e+01  -3.249815e+02
   2.243377e+02  -2.510323e+02
   1.600301e+02   1.326940e+02
   7.784315e+01   1.384548e+02
  -4.460841e+01   1.016933e+02
  -8.631591e+01  -1.946644e+02
   6.006273e+01  -2.279130e+02
   3.561405e+02   5.300832e+01
   3.828349e+02   2.401784e+02
   8.319316e+01   3.005163e+02
  -2.149391e+02   1.092639e+02
  -4.259926e+02  -9.198996e+01
  -2.942062e+02  -1.379651e+02
   5.143728e+01  -1.550765e+02
   1.283900e+02  -1.272008e+02
   2.134398e+02  -7.048230e+01
   5.932160e+00   2.846177e+01
  -1.847813e+01  -4.988224e+00
   5.017252e+01  -1.948025e+01
   1.501721e+02   1.556993e+01
   3.070375e+01   1.316461e+02
  -2.440478e+01   1.557256e+02
  -3.079546e+02   9.729739e+01
  -2.542815e+02  -8.541496e+01
  -2.813172e+01  -2.872523e+02
   2.161269e+02  -3.573844e+02
   2.742646e+02  -5.030318e+01
   1.518188e+02   1.191488e+02
   8.385037e+01   2.310615e+02
  -4.594898e+01   2.760178e+02
  -2.888137e+01   1.369580e+02
  -1.347536e+01   1.107704e+02
  -1.384600e+02   1.273719e+02
  -2.383932e+02   5.148748e+01
  -1.863359e+02  -1.027905e+02
  -3.766193e+01  -2.061381e+02
   8.250117e+01  -1.135563e+02
   1.314972e+02   8.619801e+01
   1.070546e+02   2.917779e+02
  -4.115975e+01   2.368999e+02
  -1.550901e+02  -5.970116e+00
  -1.640711e+02  -1.206723e+02
  -9.121167e+01  -1.914373e+02
  -6.308107e+00  -2.104661e+02
   5.527744e+01  -1.149557e+02
   1.374236e+02  -1.051266e+02
   1.554095e+02  -5.733410e+01
   2.151850e+02  -1.638541e+01
   3.405138e+02   1.447987e+02
   2.636151e+02   2.166573e+02
  -1.099766e+01   2.976378e+02
  -2.635317e+02   3.177711e+02
  -3.122602e+02   1.390760e+02
  -2.247016e+02  -7.964410e+01
  -2.773696e+01  -1.408829e+02
   1.175509e+02  -1.715774e+02
  -4.308900e+01  -4.194416e+01
  -8.104287e+01   2.716772e+01
  -9.234285e+01   7.561196e+00
   3.828181e+01  -1.035263e+02
   1.099994e+02  -2.919975e+01
   3.736086e+01   3.386267e+00
   7.156586e+00   5.133827e+01
  -1.265637e+02   3.897266e+01
  -1.107902e+02  -1.642059e+02
  -1.315388e+01  -2.695809e+02
   2.006504e+02  -1.844178e+02
   2.532131e+02   6.873384e+01
   2.237158e+02   2.067015e+02
   4.873200e+01   2.151703e+02
  -1.129916e+02   1.124444e+02
  -1.621491e+02  -3.029206e+01
  -4.003496e+01   1.400728e+01
   3.817286e+01   9.257963e+00
  -1.181795e+01   9.977353e+01
  -6.389491e+01   8.296482e+01
  -6.712925e+01   2.453689e+00
  -5.395463e+01  -9.364965e+01
   5.120298e+01   6.632129e+00
   2.265292e+01   9.578005e+01
  -1.323713e+02   8.014326e+01
  -2.478159e+02  -5.818541e+01
  -2.241076e+02  -1.537066e+02
  -9.221101e+00  -1.993813e+02
   1.537649e+02  -2.030915e+02
   1.323914e+02  -9.466271e+01
   1.174786e+02   5.461321e+01
  -3.022870e+01   6.437805e+01
  -5.513752e+01  -1.077413e+01
   4.210733e+01  -1.033682e+02
   1.141548e+02  -2.943899e+01
   1.210754e+02   8.995094e+01
  -2.809108e+01   1.390059e+02
  -5.706035e+00   1.496668e+02
  -1.124887e+02   2.025358e+00
  -3.141037e+01   7.398749e+00
   5.831067e+01  -3.406556e+01
   2.478876e+01   1.160695e+02
  -6.407373e+01   1.176680e+02
  -1.587492e+02  -2.723273e+01
  -1.457129e+02  -1.126377e+02
  -2.181710e+01  -1.826628e+02
   1.312185e+02  -8.885931e+01
   9.672323e+01   1.914176e+01
   4.892810e+01   6.323343e+01
  -5.071467e+01   7.171036e+01
  -6.475357e+01   1.101120e+01
  -5.090327e+01  -2.410139e+01
  -3.019456e+01  -1.402921e+01
   2.011499e+01   5.210007e+01
  -4.547272e+01  -6.548024e+00
  -1.070836e+02  -1.097300e+02
   1.510551e+01  -1.855936e+02
   1.328480e+02  -1.175006e+02
   1.995538e+02   2.456275e+01
   1.221366e+02   8.306574e+01
   3.054929e+01   1.431434e+02
  -6.027132e+01   5.713430e+01
  -6.323548e+01   3.806788e+01
  -8.169896e+01  -1.389091e+01
  -4.334881e+01  -4.789980e+01
  -3.321453e+01   1.965328e+01
  -3.936076e+01   1.280228e+01
  -1.067674e+01  -9.062031e+01
   6.333687e+01  -6.799049e+01
   1.041885e+02  -2.558447e+01
   9.082499e+01   3.856596e+01
  -4.727988e+01   1.437004e+02
  -1.195830e+02   8.883379e+01
  -1.566654e+02  -5.341756e+01
  -3.731011e+01  -1.977590e+02
   1.260256e+02  -1.651413e+02
   1.960928e+02  -2.411213e+01
   1.945648e+02   7.237010e+01
   8.308005e+01   1.437190e+02
  -2.351531e+01   1.180295e+02
  -5.150363e+01   5.962243e+01
  -3.469425e+01   6.988222e+01
  -5.856491e+01   5.501956e+01
  -2.826966e+01   5.841839e+01
  -1.063137e+02  -1.728987e+01
  -9.184205e+01  -1.156200e+02
  -5.716733e+00  -1.254246e+02
   1.034559e+02  -1.524123e+02
   1.323500e+02   1.060498e+01
   8.785113e+01   1.232786e+02
  -1.707087e+00   1.563750e+02
  -9.188729e+01   5.735786e+01
  -5.538114e+01  -1.278232e+01
   2.808684e+01  -8.007381e+01
   4.904137e+01  -1.002098e+00
  -2.774051e+00   9.280584e+00
  -8.499802e+01  -2.310417e+01
  -5.547257e+01  -3.466710e+01
   7.890897e+01  -2.156310e+01
   1.271277e+02  -2.178878e+01
   6.054179e+01   6.023956e+01
   2.049380e+01   8.972038e+01
  -9.864118e+01   7.489945e+01
  -8.961550e+01   8.389576e+00
  -6.926529e+01  -4.137681e+01
   4.052749e+01  -2.091962e+01
   7.930422e+01   1.903271e+01
   3.647912e+01   6.536886e+01
  -3.358670e+01   2.222492e+01
  -9.476429e+01   1.442545e+01
  -5.463194e+01  -1.891646e+01
  -1.374313e+01  -4.447060e+01
  -9.132431e+01  -4.878324e+01
  -3.495931e+01   1.802771e+01
  -3.459214e+01  -4.847317e+01
   3.562393e+01  -1.313575e+02
   1.431587e+02  -1.104170e+02
   1.541339e+02  -6.737034e+01
   1.067513e+02   8.667913e+01
   3.121088e+00   9.648242e+01
  -6.426300e+01   3.314978e+01
  -2.413986e+01  -2.051193e+01
   4.016698e+01  -2.026010e+01
   1.194740e+02   5.259538e+01
   4.133318e+01   8.235927e+01
  -1.092587e+02   4.584546e+01
  -1.951184e+02   3.285804e+01
  -1.065944e+02   2.276624e+01
   2.335082e+01  -7.890779e+01
   2.218262e+01  -6.313036e+01
   6.670076e+01  -2.361453e+01
  -2.275023e+01   2.568055e+01
  -7.602234e+01   9.599027e+00
  -3.700625e+01  -7.366144e+01
   4.545404e+01  -8.473617e+01
   1.374856e+02  -4.616768e+01
   7.327138e+01   8.914744e+01
  -7.486188e+00   1.347527e+02
  -5.358598e+01   1.121867e+02
  -7.445446e+01  -9.281582e+00
  -7.590508e+01  -1.042886e+02
  -1.121662e+01  -8.232653e+01
   2.718381e+01  -3.039908e+01
   8.151169e+00   2.595959e+01
   2.580801e+01   6.988144e+01
  -1.095435e+01   1.441630e+01
   2.116353e+01   1.303339e+01
   6.447686e+01   5.848359e+01
   1.500238e+01   6.238752e+01
  -3.974512e+01   3.151240e+01
  -1.281907e+02  -3.779590e+01
  -1.082727e+02  -3.869089e+01
  -5.605869e+00  -1.331567e+01
   8.115116e+01  -3.103301e+01
   5.062637e+01  -1.748483e+01
   4.812797e+01   4.729806e+01
   2.166356e+01   2.665322e+01
   1.472038e+00   2.134336e+01
   2.366047e+01  -5.771544e-01
   5.063614e+00  -8.323337e-01
  -5.369308e+01  -1.625214e+01
  -4.199713e+01  -2.982701e+01
  -3.000415e+01  -5.076883e+01
   8.546020e+01  -8.341156e+01
   1.542204e+02  -1.913768e+01
   1.443401e+02   7.886200e+01
   1.699343e+01   7.200526e+01
  -4.805737e+01   7.312121e+01
  -8.968260e+01   2.711348e+01
  -1.101135e+02  -2.742178e+01
  -3.206357e+01  -4.733332e+01
   1.547199e+01  -2.793086e+01
  -5.227309e+00   3.122248e+01
  -2.270448e+01  -6.056454e+01
  -1.941076e+01  -6.013016e+01
   2.490923e+01  -9.468466e+01
   4.096584e+01  -1.390365e+01
   8.039983e+01   5.132481e+01
   1.323921e+01   6.124148e+01
  -6.528282e+01   3.195549e+01
  -5.149426e+01  -7.219027e+01
  -6.747424e+01  -8.718544e+01
   4.801793e+01  -2.760630e+01
   7.360056e+01   1.038459e+01
   4.324935e+01   1.229395e+01
  -8.123984e+00   6.314501e+01
  -6.396102e+00   2.139318e+01
  -4.713641e+00  -5.232965e+00
   7.186029e+01  -2.060472e+01
   5.092197e+01   1.652361e+00
  -4.115432e+01   8.323163e+01
  -9.446460e+01   2.464612e+01
  -3.375740e+01  -3.183134e+01
   1.831135e+00  -3.452406e+01
   5.332943e+01  -3.506472e+01
   2.344320e+01   2.880262e+01
   1.634860e+01   5.976682e+01
  -5.412844e+01   6.178726e+01
  -2.238538e+01  -9.576745e+00
  -5.308970e+01  -5.229213e+01
   2.716131e+01  -3.248410e+01
   4.199691e+01  -2.566732e+01
   2.687008e+01   9.233121e+00
   3.038205e+01   2.801579e+01
  -4.190192e+01  -1.106287e+01
  -1.884938e+00  -5.905398e+00
  -4.584282e+01   4.314628e+01
   1.429252e+01   3.480920e+01
  -1.309410e+01   2.683634e+01
  -4.397802e+01  -1.656716e+01
  -1.766025e+00  -6.910912e+01
   1.210008e+01  -3.080310e+01
   3.855490e+01   2.415501e+01
   4.130507e+01   5.034136e+01
  -7.646518e+01   7.432747e+01
  -8.202189e+01  -3.302472e+00
  -5.254324e+01   9.080433e+00
   4.851324e+01  -1.380569e+01
   4.675822e+01   1.685749e+01
   6.270029e+01  -2.622175e+01
  -3.648404e+01  -1.079666e+01
  -2.286120e+01  -3.678556e+01
   1.173802e+01  -1.928624e+01
   8.233357e+01  -1.156494e+01
