
 $NMID
 id='ANONYMOUS ', fmtdat='(2E16.6)'
 volume=1.0
 tramp=1.0
 $END
   2.106022e+03   2.327654e+02
   1.059218e+03   1.183528e+03
   1.122766e+02   1.452477e+03
  -9.564583e+02   6.029576e+02
  -5.894951e+02   1.124594e+02
  -9.325838e+01  -2.571493e+02
   3.230040e+02  -1.581457e+01
  -2.554774e+01   3.643954e+02
  -2.678304e+02   1.913101e+02
  -4.656794e+02  -8.495298e+01
  -3.386869e+02  -3.115135e+02
  -1.063916e+02  -3.660818e+02
   2.118975e+02  -1.337719e+02
   1.467093e+02   3.103221e+02
  -1.224302e+02   3.534742e+02
  -2.432181e+02   6.292474e+00
  -1.461820e+02  -3.888071e+02
   1.531909e+02  -3.768382e+02
   3.183900e+02  -2.005430e+02
   2.776882e+02   1.862812e+02
   1.469858e+02   2.301018e+02
  -7.551752e+01   1.348485e+02
  -3.681849e+01   2.901965e+01
   1.312767e+02   5.777137e+01
   1.878176e+02   1.954931e+02
  -2.962897e+01   3.163121e+02
  -3.031622e+02   7.487317e+01
  -4.165386e+02  -1.891010e+02
  -1.548759e+02  -3.793799e+02
   2.605225e+02  -1.135466e+02
   3.404234e+02   1.730199e+02
   4.406990e+01   3.881422e+02
  -1.704331e+02   2.863297e+02
  -3.472605e+02   9.693793e+01
  -2.283696e+02  -1.262479e+02
  -4.796634e+01  -2.670278e+02
   6.294929e+01  -7.092417e+01
  -2.642839e+01   1.023715e+02
  -1.199678e+02   1.178646e+01
  -1.730894e+02  -1.019233e+02
   1.327413e+01  -3.323519e+02
   1.104827e+02  -2.810334e+02
   2.183139e+02  -1.949332e+01
   4.454411e+01   1.654641e+02
  -6.385938e+01   5.863309e+01
  -9.391069e+01  -2.836295e+02
   1.243569e+02  -2.888664e+02
   3.244223e+02  -2.363462e+01
   3.459410e+02   2.998174e+02
  -2.161246e+01   3.367572e+02
  -2.575026e+02   1.435151e+02
  -2.990791e+02  -1.965400e+02
  -2.186142e+02  -9.946612e+01
  -3.810874e+01  -1.298057e+02
   1.865092e+02  -3.092230e+01
   5.513377e+01  -3.232349e+01
   2.361675e+01  -4.067077e+00
  -7.170064e+00  -2.271520e+01
   6.518485e+01  -9.092573e+01
   1.466969e+02   6.534108e+01
   1.187621e+02   1.394005e+02
  -1.302698e+02   1.702510e+02
  -2.350918e+02   8.245855e+01
  -1.360822e+02  -5.415820e+01
   5.622529e+00  -2.384811e+02
   2.817940e+02  -2.390883e+02
   2.426590e+02  -1.246711e+02
   1.323609e+02   1.268979e+02
   2.020663e+01   2.186253e+02
  -2.324836e+01   1.727105e+02
   9.005998e+00   9.141517e+01
  -1.464572e+01   9.098304e+01
  -1.003288e+02   7.836343e+01
  -1.881574e+02   5.412598e+01
  -1.504787e+02  -1.015732e+02
   1.646907e+01  -2.253111e+02
   9.102839e+01  -1.914051e+02
   1.291763e+02   7.664328e+01
   1.115790e+02   1.723698e+02
   1.284191e+01   1.804425e+02
  -1.693865e+02  -2.199954e+00
  -2.186343e+02  -1.466096e+02
  -9.904674e+01  -2.261052e+02
   4.996117e+01  -2.034937e+02
   8.436119e+01  -1.630950e+02
   9.039258e+01  -6.352282e+01
   1.078863e+02  -7.117666e+01
   1.833307e+02  -5.852325e+01
   2.847611e+02   1.039108e+02
   2.792286e+02   2.957610e+02
  -8.938988e+01   3.295580e+02
  -2.824438e+02   3.078680e+02
  -3.428183e+02   1.964138e+02
  -2.088234e+02  -1.014620e+02
   5.445029e+00  -1.607082e+02
   9.174868e+01  -1.161652e+02
  -4.129852e+01  -1.818571e+00
  -1.109285e+02   2.286404e+00
  -8.405982e+01  -8.561336e+01
  -7.962179e+00  -5.335149e+01
   8.203097e+01  -5.871895e+01
   1.154735e+02   7.045301e+01
   1.081734e+01   5.376942e+01
  -1.209750e+02  -1.252655e+01
  -1.265799e+02  -1.361608e+02
   3.110559e+01  -2.491649e+02
   1.967881e+02  -1.627606e+02
   2.625996e+02   3.567566e+00
   1.895001e+02   1.967195e+02
   5.054488e+01   2.563481e+02
  -6.908481e+01   1.255902e+02
  -1.150109e+02  -1.452803e+01
  -5.994316e+01   9.350497e-01
   2.473217e+01   3.952457e+01
   3.273684e+01   8.195414e+01
  -1.266107e+02   3.824685e+01
  -9.340202e+01   8.554417e+00
  -6.101316e+00  -2.874677e+01
   3.569058e+01   7.697243e+01
   5.459367e+01   8.374305e+01
  -1.205692e+02   4.214315e+01
  -2.737622e+02   1.482343e+01
  -1.512527e+02  -1.889185e+02
   2.098142e+01  -2.053623e+02
   1.404753e+02  -1.901113e+02
   1.556661e+02  -7.658766e+01
   9.501249e+01   3.701764e+01
  -6.114156e+01   4.454417e+01
  -3.844307e+01  -4.982055e+01
   1.854009e+01  -7.034608e+01
   9.272796e+01  -1.320044e+01
   1.473066e+02   1.243187e+02
   3.273986e+01   1.330001e+02
  -6.502345e+01   9.363549e+01
  -9.952731e+01   8.656123e+00
  -4.776487e+01  -4.392165e+01
   4.559074e+01   3.040637e+01
   1.195329e+01   1.071232e+02
  -7.738542e+01   7.460292e+01
  -1.408889e+02  -1.232847e+01
  -1.534844e+02  -1.200635e+02
   8.108835e+00  -1.506891e+02
   1.065377e+02  -8.911171e+01
   1.082546e+02   2.526499e+01
  -1.423084e+01   4.999402e+01
  -1.128092e+02   8.114823e+01
  -4.253714e+01   2.422165e+01
  -1.722666e+01   3.735852e+01
   4.354511e+01  -2.418482e+01
  -3.236305e+01   2.793743e+01
  -5.275450e+01  -2.072207e+01
  -8.788372e+01  -1.071272e+02
  -1.791086e+01  -1.065869e+02
   9.530726e+01  -1.301382e+02
   1.643895e+02   2.520088e+00
   1.532671e+02   1.159558e+02
  -9.613859e+00   1.303868e+02
  -1.337701e+02   7.949302e+01
  -7.693611e+01  -1.287994e+01
  -5.017726e+01  -2.173343e+01
  -9.110168e+01  -8.045687e+00
  -2.158286e+01   4.515366e+01
  -5.653459e+01   3.106432e+01
  -1.942388e+01  -3.592677e+01
   3.756197e+01  -2.769256e+01
   7.620304e+01  -5.255992e+01
   8.256842e+01   3.510078e+01
   3.330460e+01   8.549586e+01
  -1.265651e+02  -1.271372e+01
  -1.569672e+02  -7.694728e+01
  -6.163766e+01  -1.158114e+02
   1.025372e+02  -1.695024e+02
   2.043437e+02  -6.675197e+01
   2.251530e+02   9.388952e+01
   3.962083e+00   1.007538e+02
  -3.289213e+01   1.043317e+02
  -8.197565e+01   1.129862e+02
  -4.129735e+01   3.515558e+01
  -9.112156e+01   5.217424e+01
  -4.313009e+01   5.031921e+01
  -8.263683e+01  -2.368244e+00
  -4.374142e+01  -1.387267e+02
  -6.034428e+00  -1.350768e+02
   2.789897e+01  -1.120575e+02
   1.565755e+02  -4.039689e-01
   7.429418e+01   1.299824e+02
   2.299412e+01   1.103258e+02
  -4.395388e+01   6.269461e+01
  -6.121514e+01  -2.837270e+01
  -8.311593e+00  -1.360679e+01
   3.251172e+01   4.978571e+00
  -8.187472e+00  -6.061913e+00
  -9.075018e+01  -2.340633e+01
  -2.187072e+01  -4.758145e+01
   7.133180e+01  -5.526194e+01
   1.211790e+02  -4.730901e-01
   1.055998e+02   3.916870e+01
  -2.832991e+01   1.081398e+02
  -8.218015e+01   5.449052e+01
  -9.893644e+01  -2.043707e+01
  -2.443133e+01  -2.791312e+01
   2.174204e+01  -4.930597e+01
   5.477102e+01   1.265203e+01
   2.050449e+00   2.553245e+01
  -3.894376e+01   5.872402e+01
  -5.630194e+01   1.238040e+01
  -7.465837e-01  -3.304018e+01
  -2.792582e+00  -6.072450e+01
  -1.144422e+01  -3.603129e+01
  -4.467139e+01   1.557414e+01
  -1.187787e+01  -5.395501e+01
  -5.426898e+00  -9.691808e+01
   1.431083e+02  -7.018246e+01
   1.622017e+02  -1.276295e+01
   1.228663e+02   8.549162e+01
  -2.569095e+01   1.327152e+02
  -8.475096e+01   4.982426e+01
  -1.034079e+01   5.236827e+00
   5.362661e+01  -1.193972e-01
   8.464725e+01   1.901251e+01
   3.607926e+01   7.165552e+01
  -8.579524e+01   4.037777e+01
  -1.167425e+02   4.863412e+01
  -1.087613e+02  -5.824180e+01
  -3.891368e+01  -7.667618e+01
   3.322619e+01  -5.113815e+01
   2.557839e+01  -3.905952e+01
  -1.305381e+01   1.016808e+01
  -5.806802e+01   3.479609e+01
  -1.433780e+01  -5.803612e+01
   7.979445e+01  -7.394502e+01
   1.034003e+02  -5.535862e+01
   3.531676e+01   7.281594e+01
  -7.533890e+01   1.693223e+02
  -5.124555e+01   8.370601e+01
  -5.175806e+01   6.658447e+00
  -5.756882e+01  -8.969442e+01
   3.045904e+01  -1.054557e+02
   1.802231e+01   5.198085e+00
   2.545208e+01  -1.180314e+01
   2.840237e+01   2.877721e+01
   3.096923e+01  -2.402931e+01
   3.657370e+01  -5.885063e+00
   2.709532e+01   6.519843e+01
   8.180099e-02   7.703036e+01
  -5.525682e+01   1.015552e+01
  -1.340993e+02  -6.376855e+01
  -6.948401e+01  -3.118173e+01
   3.056101e+00   1.084622e+01
   6.206699e+01  -2.836902e+01
   4.261731e+01   2.101062e+01
   1.822045e+01  -1.613731e+01
   1.725080e+01   2.898820e+01
  -3.796644e+01   5.788349e+00
   3.697862e+01  -4.978116e+00
  -1.890668e+01  -3.281893e+01
  -4.682242e+01  -2.023557e+00
  -4.497973e+01  -7.722422e+00
  -1.944020e+01  -8.985848e+01
   8.225345e+01  -6.554955e+01
   8.764297e+01  -3.051193e+01
   6.421066e+01   3.434237e+01
  -5.367261e+00   1.110310e+02
  -6.967545e+01   1.109126e+02
  -4.994550e+01   2.000335e+01
  -5.989887e+01  -3.742136e+01
   1.537367e+01  -3.200543e+01
  -1.520174e+01  -4.208688e+01
  -4.512379e+01  -1.608373e+01
  -1.474705e+01  -5.737854e+01
  -1.241901e+01  -4.510095e+01
   1.493382e+01  -3.731344e+01
   3.096789e+01   9.663983e+00
   1.717535e+01   4.023491e+01
  -1.051244e+01   6.877761e+01
  -7.126223e+01   1.942920e+01
  -6.271355e+01  -4.857133e+01
  -3.508337e+01  -5.700585e+01
   8.216878e+01  -1.930419e+01
   6.750456e+01  -1.367039e+01
   5.151622e+01   2.652882e+01
  -3.352829e+01   4.976879e+01
  -5.130964e+01   1.001368e+01
   7.129220e+00   1.550066e+01
   4.406736e+01  -1.932082e+01
   9.232111e+01   3.314497e+01
  -5.612573e+01   3.946281e+01
  -1.028354e+02   1.048548e+01
  -3.370693e+01   5.609705e-01
  -1.919020e+01  -3.249241e+01
   2.521207e+01  -7.635490e+01
   7.762706e+01  -2.243030e+01
   2.233362e+01   6.531433e+00
   3.003420e+01   4.183689e+01
  -1.375104e+01   8.927508e-01
  -3.075457e+01  -6.361719e+01
  -3.019098e+00  -2.676672e+01
   2.843878e+01  -1.745560e+01
   1.558961e+01  -9.829184e+00
   5.044649e+01  -1.186390e+01
  -2.358175e+01  -1.462543e+01
   2.902095e+01  -2.588645e+01
  -5.140773e+01   2.666701e+01
   1.783841e+01   5.814844e+01
  -4.777887e+01   1.318771e+01
  -1.770833e+01  -3.941596e+01
  -1.087760e+01   1.055154e+00
   9.183202e+00  -3.391532e+00
   1.998739e+01   1.255533e+01
   3.137083e+01   1.748693e+01
  -2.141479e+01  -8.622216e+00
  -5.871667e+01   6.764621e+00
  -1.646754e+01  -3.626006e+01
   5.492843e+01  -4.254617e+01
   2.477920e+01  -2.588466e+00
   2.089409e+01  -3.281192e+01
  -3.632120e+00  -1.582180e+01
  -3.310745e+01   1.600197e+01
   3.591126e+01  -3.286971e+01
   4.344533e+01  -1.881021e+01
