
 $NMID
 id='ANONYMOUS ', fmtdat='(2E16.6)'
 volume=1.0
 tramp=1.0
 $END
  -3.060842e+03  -4.154617e+02
  -1.410780e+03  -2.060839e+03
   7.568297e+02  -2.122531e+03
   1.411997e+03  -4.873416e+02
   6.389703e+02   3.676054e+02
  -2.198230e+02   3.617738e+02
  -5.527677e+02  -1.006244e+02
   4.585801e+01  -4.813851e+02
   5.980781e+02  -4.879168e+02
   5.708019e+02   1.262742e+02
   3.414654e+02   5.116246e+02
  -9.144259e+01   5.948724e+02
  -3.304197e+02   7.215236e+01
  -1.543339e+02  -4.903648e+02
   1.498223e+02  -4.776475e+02
   3.939590e+02   7.122080e+00
   2.129070e+02   4.180976e+02
  -2.026496e+02   3.670230e+02
  -4.220405e+02   9.209307e+01
  -2.486322e+02  -2.693072e+02
  -8.037707e+01  -2.287916e+02
   1.608571e+02  -1.135171e+02
   1.020642e+02  -2.038839e+01
  -9.782464e+01   4.490604e+01
  -2.738644e+02  -1.248098e+02
   2.182942e+00  -3.099395e+02
   3.861109e+02  -1.999557e+02
   5.796674e+02   1.496569e+02
   1.884919e+02   5.335805e+02
  -2.863731e+02   3.162352e+02
  -5.415251e+02  -1.021256e+02
  -1.681067e+02  -3.898953e+02
   1.846895e+02  -3.121626e+02
   4.202382e+02  -6.896677e+01
   2.549349e+02   1.848678e+02
   2.383694e+01   3.613614e+02
  -1.936892e+02   1.476314e+02
  -6.517130e+01  -1.393933e+02
   1.914541e+02  -2.443511e+02
   3.187531e+02   6.399236e+01
   9.020203e+01   3.710369e+02
  -1.464537e+02   3.889097e+02
  -3.271748e+02   2.306981e+01
  -1.201757e+02  -2.879768e+02
   1.181621e+02  -1.248650e+02
   1.919331e+02   2.280855e+02
  -1.753546e+02   4.007873e+02
  -3.902041e+02   6.907738e+01
  -3.680501e+02  -3.281922e+02
  -9.694830e+01  -4.853743e+02
   3.455349e+02  -1.920070e+02
   3.941327e+02   1.588956e+02
   2.358337e+02   2.223105e+02
  -6.699616e+01   2.471665e+02
  -2.469652e+02   4.413598e+01
  -1.606756e+02  -6.160688e+01
   2.925227e+01  -6.687040e+01
   4.635583e+01   1.003207e+02
  -9.676578e+01   3.954694e+01
  -2.194604e+02  -1.054729e+02
  -9.038455e+01  -1.832318e+02
   1.444435e+02  -2.160056e+02
   2.799197e+02  -9.232244e+01
   1.537994e+02   5.047773e+01
  -2.526940e+00   1.701574e+02
  -2.256398e+02   2.222092e+02
  -2.468331e+02   1.564186e+02
  -1.484417e+02  -1.554190e+02
  -2.923913e+01  -2.675507e+02
   7.945578e+01  -2.515018e+02
   8.707476e+01  -9.547571e+01
   1.405007e+00  -3.162330e+01
   6.225076e+01  -9.348101e+01
   1.803998e+02  -6.494984e+01
   1.842814e+02   1.242955e+02
   4.271622e+01   2.360388e+02
  -1.004724e+02   1.243206e+02
  -1.254884e+02  -5.824755e+01
  -1.194847e+02  -1.830422e+02
   5.203422e+01  -2.061357e+02
   1.624767e+02   1.723391e+01
   1.906685e+02   1.625638e+02
   1.215880e+02   2.049033e+02
  -6.742861e+01   2.568153e+02
  -1.423152e+02   8.691262e+01
  -1.396776e+02   4.132720e+01
  -8.935551e+01   5.055147e+01
  -1.335618e+02   4.645271e+01
  -2.287366e+02  -6.523936e+01
  -2.687291e+02  -2.663124e+02
   7.493597e+01  -3.391747e+02
   2.236404e+02  -3.149850e+02
   3.607947e+02  -8.417477e+01
   2.536015e+02   1.400068e+02
   3.471328e+01   1.798184e+02
  -6.147476e+01   1.581589e+02
   1.441875e+01   9.353777e+01
   9.187616e+01  -7.595535e+01
   1.353480e+02   3.776133e+01
  -1.346765e+01   8.767179e+01
  -6.677098e+01   1.220280e+02
  -1.636323e+02  -3.286010e+01
   4.078223e+01  -1.127497e+02
   1.005408e+02   5.946188e+00
   1.683251e+02   1.188940e+02
  -1.714653e+01   2.433095e+02
  -1.620526e+02   1.118052e+02
  -2.698048e+02  -3.835766e+01
  -1.825993e+02  -1.818494e+02
   1.155502e+01  -2.673348e+02
   1.012620e+02  -1.045777e+02
   1.444768e+02  -8.656836e+00
   4.355554e+01  -1.476549e+00
  -1.000604e+02  -5.758025e+00
   5.536959e+00  -1.200399e+02
   2.883936e+01  -2.639096e+01
   1.404681e+02   1.843648e+01
   2.086364e+01   5.165676e+01
  -3.960344e+01  -1.796444e+01
  -6.496442e+01  -5.294276e+01
   1.055176e+02  -3.549233e+01
   2.387155e+02   6.627619e+01
   1.672335e+02   2.056189e+02
  -2.248831e+00   2.690185e+02
  -1.276015e+02   1.620507e+02
  -2.269708e+02   8.505018e+01
  -1.143922e+02  -5.475126e+01
   1.647158e+01  -5.494772e+01
   5.850420e+01  -4.856007e+00
  -3.268222e+01   7.879564e+01
  -1.298279e+02   5.518636e+01
  -1.540051e+02  -1.212496e+02
  -5.345573e+01  -1.074053e+02
   5.197976e+01  -1.053712e+02
   1.034360e+02  -1.822350e+01
   4.334239e+00   6.024216e+01
  -1.450547e+01  -2.134118e+01
  -2.816048e+00  -7.711557e+01
   6.621357e+01  -8.414694e+01
   1.547423e+02  -1.817745e+01
   1.520594e+02   1.516549e+02
   3.496087e+01   1.515364e+02
  -1.546988e+02   9.208500e+01
  -1.444025e+02   2.853070e+01
  -6.508981e+01  -8.845383e+01
   3.530866e+01  -7.000381e+01
   5.491621e+01   7.306361e+00
  -8.738536e+00   6.533231e+00
  -3.038870e+01   3.283640e+01
   1.397206e+01   7.106490e-01
   4.999792e+01   6.074441e+01
   5.436319e+01   8.341149e+01
  -2.023477e+01   1.062101e+02
  -8.881017e+01   1.061945e+02
  -1.713233e+02   8.028846e+00
  -1.270779e+02  -1.464257e+02
  -4.738388e+01  -1.365894e+02
   8.038455e+01  -5.390450e+01
   1.038882e+02  -1.443484e+01
   1.030108e+02  -1.363459e+01
  -4.331067e+00  -1.342258e+01
   1.700376e+01   3.180708e+00
   3.816078e+01  -9.799055e-01
   7.106104e+01   4.440351e+01
  -5.365283e+01   6.371093e+01
  -5.598080e+01   2.839440e+01
  -5.463760e+01  -4.393062e+00
   7.326211e+00  -7.040390e+01
   1.183302e+02  -6.206367e+00
   1.572912e+02   4.882500e+01
   5.447341e+01   1.325906e+02
  -1.023927e+02   1.746789e+02
  -2.197211e+02   1.028347e+02
  -1.245320e+02  -6.087767e+01
  -4.995831e+01  -1.421430e+02
   4.748040e+01  -6.253444e+01
   9.973597e+01  -9.944511e+01
   1.047648e+02  -4.278328e+01
   3.125766e+01  -6.521489e+01
   2.685972e+01  -3.892524e+01
   1.018888e+02   2.960731e+01
   7.861265e+01   8.816477e+01
   3.124735e+01   1.636865e+02
  -5.655994e+01   1.440069e+02
  -1.374971e+02  -2.342327e+01
  -8.241106e+01  -1.033665e+02
  -3.472803e+01  -1.216624e+02
   8.123658e+01  -4.735184e+01
   7.046614e+01  -6.963461e+00
   4.982739e+01   2.984188e+01
  -3.173809e+01   3.634586e+01
   2.534254e+01  -2.945730e-01
   4.863006e+01   7.159900e+01
   6.136353e+01   4.040821e+01
  -5.747523e+01   3.931041e+01
  -1.036979e+02  -1.757750e+01
  -8.158276e+01  -2.844293e+01
   1.440715e+01  -7.555319e+01
   6.118567e+01  -6.031041e+01
   1.068495e+02  -3.637959e+00
   3.004247e+01   3.185343e+00
  -2.438156e+01   5.713501e+01
  -4.705012e+01   9.849538e+00
  -1.050198e+01  -1.100043e+02
  -8.340708e-01  -3.701499e+01
   4.301135e+01  -1.067949e+01
   1.456931e+01   4.117515e+01
   2.442318e+01   4.518551e+01
   1.046512e+01   2.798131e+00
   4.683006e+01  -1.240163e+01
   6.596133e+00   4.746353e+01
  -2.692028e+01   8.304400e+01
  -1.026580e+02   6.784559e+01
  -1.216898e+02   3.266334e+01
  -7.831966e+01  -9.706549e+01
   3.310923e+01  -8.547882e+01
   9.287555e+01  -3.508047e+01
   4.865359e+01   3.650301e+01
  -2.794878e+01  -7.160417e+00
  -5.919515e+01  -1.770183e+01
  -2.862243e+01  -4.028156e+01
   4.029111e+01  -7.251239e+01
   1.676527e+02  -3.473791e+01
   1.049117e+02   3.415207e+01
  -3.763107e+00   8.205025e+01
  -2.847427e+01   2.789712e+01
  -3.317726e+01  -3.795952e+01
   4.906501e+01  -3.944196e+01
   4.933632e+01   6.992516e+01
   6.773579e+01   7.435532e+01
  -7.400472e+01   7.197328e+01
  -1.511481e+02   2.382355e+01
  -1.319260e+02  -7.021036e+01
   6.798568e+01  -1.415541e+02
   9.619073e+01  -9.680716e+01
   7.471672e+01   1.597208e+01
   1.522784e+01   1.121712e+02
  -2.241814e+01   7.368767e+01
  -7.981412e+01   5.135877e+01
  -4.721265e+01  -1.416788e+01
  -3.296690e+01  -3.646017e+01
  -7.050999e+00   8.991772e+00
   3.586085e+00  -2.285625e+01
  -1.961740e+01  -1.037168e+02
  -1.402658e+01  -8.756437e+01
   3.037801e+01  -1.035476e+01
   1.140544e+02   2.150433e+01
   1.072179e+02   5.968287e+01
   2.343778e-02   5.743154e+01
  -7.142275e+01   2.720741e+01
  -4.666840e+01  -4.323180e+01
  -3.498972e+01  -1.065414e+01
   7.023570e+01  -4.474453e+01
   1.213212e+01   2.123809e+01
  -2.840947e+01   3.842279e+00
  -1.442530e+01   2.790464e+00
   4.074544e+01   4.041928e+01
   6.678950e+01   4.774471e+01
   5.606601e+00   9.408292e+01
  -9.129125e+01   7.814650e+01
  -1.641818e+02   1.374179e+01
  -5.292043e+01  -7.530825e+00
  -1.728018e+01  -9.747511e+01
   7.996948e+01  -1.042530e+02
   5.490965e+01  -6.990337e+01
   8.764959e+01   3.757981e+01
  -1.163810e+01   4.770933e+01
  -3.127854e+01   3.151947e+01
   1.126832e+01  -5.666423e+00
   3.853208e+01  -2.428438e+00
  -1.750286e+01   7.840543e+01
  -4.419081e+01   2.099533e+01
  -5.712278e+01  -2.962994e+01
  -5.678328e+01  -6.238426e+01
   4.206541e+01  -7.774238e+01
   4.114714e+01  -3.075305e+01
   8.630648e+01   1.204899e+02
   1.582348e+00   5.948238e+01
  -4.986441e+01   2.791331e+01
  -9.160646e+01   8.606220e+00
  -3.068758e+01  -3.352577e+01
   5.793182e+01  -5.676817e+01
   5.978004e+01  -1.685627e+01
  -4.625263e+01   7.310534e+00
  -6.177698e+01   3.237286e+01
  -4.970658e+00   2.264113e+01
   6.246244e+01  -5.802154e+01
   9.770554e+01  -1.764746e+01
   8.146326e+01  -4.901832e+00
  -2.469970e+01   8.025423e+01
  -3.260371e+01   5.073450e+01
  -2.472356e+01  -4.007451e+01
   5.133451e+00  -3.661927e+01
  -1.060338e+01  -3.188363e+01
   3.561515e+01  -1.307496e+01
   2.776054e+01   7.316124e+00
  -1.234182e+01   2.625983e+01
  -4.867325e+00  -1.826092e+01
  -5.642835e+01  -4.146769e+01
  -4.435737e+01   7.866511e+00
   8.166381e+00  -1.837832e+01
  -8.189554e+00   3.110877e+01
  -1.181812e+01  -2.039117e+00
   3.537208e+01  -4.278448e+01
   1.743816e+01   2.527663e+01
   3.348844e+01   5.615776e+01
   5.203928e+00   3.545214e+01
  -4.519670e+00  -1.496142e+01
  -4.565812e+01  -2.526118e+01
  -8.143147e+00  -1.035298e+02
   4.607864e+01  -2.698000e+00
   8.402590e+01   7.838888e+00
   2.167426e+01   3.417443e+01
   1.191915e+01   3.510449e+01
  -2.949038e+01  -1.519659e+01
  -1.544139e+01   3.526844e+01
   2.704764e+00   1.599085e+00
   1.564305e+01  -1.300343e+01
  -1.517133e+01   6.769332e+01
  -5.835483e+01   2.446461e+01
