
 $NMID
 id='ANONYMOUS ', fmtdat='(2E16.6)'
 volume=1.0
 tramp=1.0
 $END
  -3.821685e+03  -3.472275e+02
  -2.086885e+03  -2.538631e+03
   1.120013e+03  -2.579359e+03
   2.029199e+03  -7.659009e+02
   8.117518e+02   5.554251e+02
  -6.523976e+02   4.980478e+02
  -8.996563e+02  -5.081424e+02
   4.761886e+01  -7.325027e+02
   7.973009e+02  -6.296779e+02
   8.856291e+02   8.895474e+01
   3.556776e+02   6.974340e+02
  -2.091419e+02   6.928309e+02
  -5.913781e+02   1.876999e+02
  -2.420530e+02  -5.494081e+02
   2.888608e+02  -6.676053e+02
   5.291416e+02   2.632659e+01
   2.260646e+02   6.700608e+02
  -2.735385e+02   5.319687e+02
  -5.126909e+02   4.151583e+01
  -4.139122e+02  -3.409532e+02
  -7.458184e+00  -3.125251e+02
   1.589579e+02  -1.866637e+02
   1.952465e+02   6.827906e-01
  -6.418132e+01   1.358425e+02
  -2.661308e+02  -5.739689e+01
  -9.425143e+01  -4.289302e+02
   4.594587e+02  -3.863210e+02
   7.034468e+02   1.212235e+02
   3.881042e+02   5.002992e+02
  -4.278242e+02   4.218189e+02
  -6.413533e+02  -8.842520e+01
  -3.448000e+02  -4.534210e+02
   2.165547e+02  -4.438860e+02
   4.645221e+02  -9.694996e+01
   3.349148e+02   1.921310e+02
   5.155923e+01   3.989679e+02
  -1.276380e+02   2.252110e+02
  -1.605945e+02  -2.109520e+02
   1.697013e+02  -4.619527e+02
   4.626804e+02   3.728377e+01
   9.134025e+01   4.921102e+02
  -4.406579e+02   5.863573e+02
  -5.186321e+02  -1.444100e+01
  -1.057970e+02  -4.474048e+02
   2.895414e+02  -2.786344e+02
   2.660355e+02   2.077338e+02
  -1.059423e+02   4.914378e+02
  -4.430511e+02   8.278804e+01
  -4.437667e+02  -3.610599e+02
  -1.098154e+02  -5.161803e+02
   3.960707e+02  -2.721577e+02
   5.284212e+02   7.468628e+01
   3.426604e+02   3.574741e+02
  -1.697393e+02   3.841190e+02
  -3.790369e+02  -5.488971e+00
  -1.986984e+02  -1.647430e+02
   1.223971e+02  -1.288445e+02
   9.856406e+01   1.537379e+02
  -1.595450e+02   1.421002e+02
  -2.620530e+02  -4.961305e+01
  -9.201253e+01  -2.857402e+02
   2.200832e+02  -2.178458e+02
   2.850032e+02  -7.589822e+01
   1.417335e+02   8.969350e+01
  -1.609390e+01   1.335402e+02
  -1.996674e+02   2.783269e+02
  -2.656383e+02   1.912963e+02
  -2.261894e+02  -1.299160e+02
  -5.360029e+01  -2.965155e+02
   1.555638e+02  -3.181793e+02
   7.634907e+01  -7.748311e+01
   1.399339e+01   1.464871e+01
   2.754460e+01  -8.634455e+01
   1.808943e+02  -9.192800e+01
   1.847338e+02   1.833546e+01
   1.325762e+02   2.633139e+02
  -4.200806e+01   2.041169e+02
  -1.987978e+02   2.977477e+01
  -1.148536e+02  -1.761512e+02
   4.308566e+01  -2.104094e+02
   2.787803e+02  -8.108066e+01
   2.002929e+02   1.275291e+02
   9.131591e+01   2.393358e+02
  -1.011555e+02   2.358407e+02
  -2.271077e+02   5.885829e+01
  -1.587284e+02  -3.489471e+01
  -6.207188e+01  -1.782822e+01
  -2.038344e+02   2.762315e+00
  -3.979055e+02  -4.562897e+01
  -2.610186e+02  -3.162580e+02
  -2.831463e+01  -3.839025e+02
   3.226819e+02  -3.436272e+02
   4.568303e+02  -1.609700e+02
   3.072413e+02   1.129747e+02
   2.102936e+01   2.182556e+02
  -1.146012e+02   1.850861e+02
  -9.723448e+01  -2.451384e+01
   9.777559e+01  -9.968045e+01
   1.867162e+02  -1.938727e+00
   8.175433e+01   1.275875e+02
  -1.277411e+02   1.376413e+02
  -1.384614e+02  -9.253815e+01
   5.955963e+01  -1.719379e+02
   1.553961e+02  -2.382162e+01
   1.338005e+02   2.067004e+02
  -1.588963e+01   2.151965e+02
  -2.557936e+02   2.025584e+02
  -3.074081e+02  -7.070711e+01
  -2.294275e+02  -2.126420e+02
  -5.936729e+01  -2.530512e+02
   9.872714e+01  -1.585121e+02
   1.397406e+02   1.523625e+01
   1.273693e+01   2.224240e+01
  -5.650716e+01   1.050007e+01
  -5.370080e+00  -5.519942e+01
   7.640902e+01  -6.929620e+01
   1.803356e+02   3.437170e+01
   3.516736e+01   4.657365e+01
  -6.583967e+01  -3.645202e+01
  -4.113015e+01  -5.651955e+01
   1.217727e+02  -6.865676e+01
   2.531691e+02   4.180329e+01
   2.004618e+02   8.190155e+01
   3.576983e+01   2.410047e+02
  -1.397814e+02   1.698947e+02
  -2.791245e+02   1.017641e+02
  -1.082258e+02  -7.145926e+01
   3.452778e+01  -8.813888e+01
   7.595142e+01  -2.494963e+01
  -9.044611e+00   9.076797e+01
  -1.956444e+02   1.442135e+01
  -1.199327e+02  -7.612207e+01
  -5.873856e+01  -1.784222e+02
   1.208913e+02  -1.487805e+02
   1.378260e+02   1.291386e+01
   9.378281e+00   5.291613e+01
   7.998282e+00   1.463729e+01
  -6.553730e+00  -5.775233e+01
   4.349404e+01  -8.141190e+01
   1.788118e+02  -7.407585e+00
   1.611409e+02   9.218349e+01
  -3.208175e+01   2.324207e+02
  -1.682026e+02   1.222028e+02
  -1.963228e+02  -1.257126e+01
  -4.762907e+01  -1.226652e+02
   7.736341e+01  -5.294112e+01
   4.279949e+01  -4.877093e+01
   2.075053e+01   2.140457e+01
  -2.211683e+01   1.477381e+01
   1.531129e+00  -7.438768e+00
   5.819890e+01   2.605358e+01
   6.603624e+01   3.854577e+01
   4.365458e+01   1.499806e+02
  -1.372189e+02   1.456490e+02
  -2.288516e+02   2.564334e+01
  -1.655540e+02  -1.189932e+02
  -9.034915e+01  -1.315968e+02
   9.642847e+01  -1.819203e+02
   1.098326e+02  -2.252063e-02
   5.328063e+01   9.409320e+01
   6.005618e+00   3.773029e+01
   2.587484e+01  -1.988661e+00
   7.653581e+01  -2.807165e+01
   3.667528e+01   4.204040e+01
  -1.045071e-02   2.341224e+01
  -7.111984e+01   4.096792e+01
  -1.097118e+02  -5.013084e+01
  -7.681359e+00  -4.780212e+01
   1.373402e+02  -9.449910e+01
   1.777641e+02   7.975480e+01
   7.822315e+01   1.635617e+02
  -1.254728e+02   2.530284e+02
  -2.638791e+02   7.545688e+01
  -2.386871e+02  -3.117542e+01
  -9.445616e+01  -1.853545e+02
   4.156790e+01  -1.681032e+02
   9.768009e+01  -6.913938e+01
   9.267694e+01  -7.660742e+01
   7.418007e+01  -5.211975e+01
   5.330530e+01  -6.910493e+01
   1.286863e+02   1.175451e+01
   7.301859e+01   1.398939e+02
   1.189563e+01   1.822453e+02
  -8.938493e+01   1.260598e+02
  -1.356778e+02  -1.121253e+01
  -1.350122e+02  -1.337898e+02
  -2.122104e+01  -1.513952e+02
   7.966606e+01  -6.797919e+01
   9.941911e+00  -1.259446e+01
  -3.356549e+01   9.061416e+01
   6.276702e+00   2.030880e+01
   1.021690e+01  -2.773132e+01
   8.034378e+01  -1.291108e+01
   3.001605e+01   3.893878e+01
  -3.472772e+01   4.221724e+01
  -1.086176e+02  -8.654103e+00
  -9.640786e+01  -1.748719e+01
  -2.671215e+01  -1.276284e+02
   9.102609e+01  -3.647955e+01
   9.646128e+01   4.325003e+00
   1.113410e+02   2.128582e+01
  -7.023144e+01   3.636252e+01
  -6.110482e+01  -3.146174e+01
   3.745670e+01  -3.347581e+01
   5.362488e+01  -7.188793e+00
   8.787313e+01   9.806426e+00
   5.459751e+01   5.858395e+01
   4.922248e+01   7.196492e+01
   4.548030e+01  -2.564026e+01
   1.007110e+02  -2.781984e+01
  -1.746064e+01   7.090998e+01
   3.680605e+00   1.234670e+02
  -1.044132e+02   1.404202e+02
  -9.931135e+01   2.025433e+00
  -6.325984e+01  -9.651969e+01
  -1.131316e+01  -4.176361e+01
   7.727403e+01  -2.618020e+01
   8.164715e+01   4.215537e+01
  -3.375725e+01   2.266920e+01
  -1.066062e+02  -6.014046e+01
  -8.791700e+01  -9.170259e+01
   2.620391e+01  -5.484345e+01
   1.576475e+02  -4.536719e+01
   1.463545e+02   2.159737e+01
   3.493384e+01   1.120925e+02
  -7.875023e+01   6.829019e+01
  -7.635391e+00  -1.494569e-01
   2.561293e+01  -9.097050e+00
   6.090348e+01   6.175713e+01
   1.193099e+01   6.573739e+01
  -4.241234e+01   1.300722e+02
  -1.174534e+02   3.824305e+01
  -8.724474e+01  -1.418155e+02
  -5.653691e+01  -1.157345e+02
   1.239004e+02  -1.296875e+02
   9.781682e+01  -2.337979e+01
   1.750563e+00   7.856877e+01
  -1.159408e+01   5.694583e+01
  -3.703519e+01  -4.633114e+00
  -6.991942e+01  -6.864131e+01
  -5.005811e+01  -3.190791e+01
   1.113674e+01   2.447804e+01
  -1.116176e+01  -5.373412e+00
  -1.227351e+01  -4.044295e+01
   1.030751e+01  -9.455428e+01
   7.872300e+01  -6.613867e+00
   1.163227e+02   1.113390e+01
   1.382985e+02   3.547721e+01
   4.152969e+01   5.034924e+01
  -1.167643e+02   5.070739e+01
  -3.722446e+01   2.545954e+01
   2.034786e+00  -1.791355e+01
   6.763956e+01  -2.646297e+01
   2.247150e+01  -4.663612e+01
  -1.068054e-01  -2.224013e+01
   3.458464e+00  -1.483103e+01
   6.639578e+01  -1.314056e+01
   6.972200e+01   5.341911e+01
   1.563518e+01   5.462890e+01
  -7.560028e+01   1.138935e+02
  -1.606979e+02   8.319120e+01
  -7.420754e+01  -6.653466e+01
  -1.592550e+01  -1.344555e+02
   4.626098e+01  -1.626123e+02
   8.083440e+01  -6.857808e+01
   6.821000e+01   1.569522e+01
   1.782318e+00   4.276976e+01
   3.889741e+00  -1.734041e+01
   5.460031e+01   2.612078e+01
   3.287248e+01   5.915807e+01
   2.185534e+01   7.263558e+01
  -3.005572e+01   5.568612e+01
  -7.222077e+01   3.086197e+00
  -7.034989e+00  -8.257003e+01
   3.400899e+01  -5.167919e+01
   9.197865e+01  -1.296789e+01
   1.010290e+02   1.080513e+02
   1.800575e+01   1.182807e+02
  -2.528972e+01  -4.170118e+01
  -1.041402e+02  -4.373755e+01
  -3.109064e+01  -3.961021e+00
   6.881797e+01  -3.730037e+01
   4.014746e+01  -3.919246e+01
  -4.926887e+01  -2.503437e+00
  -5.909663e+01   1.199540e+01
  -4.265359e+01  -1.085289e+01
   1.036981e+02  -5.027106e+00
   4.833832e+01  -7.715820e+01
   5.142053e+01  -1.496636e+01
  -2.885994e+00   5.164034e+01
  -3.444331e+01   7.327540e+01
  -6.026671e+01  -4.600649e+00
  -1.532393e+00  -3.102128e+01
   9.836685e+00  -5.331183e+01
   2.991513e+01  -1.086186e+01
   8.231076e+01   7.911809e+00
   7.473815e+00   2.992056e+01
  -4.183826e+01  -1.973466e+01
  -3.198881e+01  -1.222694e+01
   1.206499e+01  -2.299451e+01
  -2.314874e+01   3.425056e+01
   1.174221e+00  -1.465107e+01
   5.091196e+01  -3.946850e+01
  -2.123328e+01  -5.170621e+01
   2.533574e+01  -1.536098e+01
  -8.582788e+00   7.659191e+01
  -7.571235e+00   7.066896e+01
  -1.630131e+01   4.129833e+01
  -3.758808e+01  -9.488495e+00
  -3.056009e+01  -7.615932e+01
   2.107491e+01  -3.270389e+01
   4.586263e+01   1.582433e+01
   5.031415e+01   1.893886e+01
  -3.055920e+01   2.121449e+01
  -3.348227e+01  -3.027195e+01
   1.713485e+00   3.223907e+00
  -1.274659e+00   4.055604e+01
   1.040886e+02   1.159285e+01
   1.099708e+01   2.101371e+01
  -8.323240e+01   2.335637e+01
