
 $NMID
 id='ANONYMOUS ', fmtdat='(2E16.6)'
 volume=1.0
 tramp=1.0
 $END
   4.508776e+03   6.689298e+02
   2.155161e+03   3.059794e+03
  -1.056761e+03   2.218154e+03
  -2.236759e+03   4.573660e+02
  -8.561602e+02  -6.559359e+02
   6.945542e+02  -5.536629e+02
   8.742458e+02   4.707752e+02
  -5.414170e+01   9.727699e+02
  -9.421130e+02   7.196442e+02
  -8.200779e+02  -2.234594e+02
  -3.359710e+02  -9.852174e+02
   3.239810e+02  -8.940662e+02
   6.968913e+02   1.475638e+01
   4.077527e+02   6.611293e+02
  -4.391725e+02   6.355124e+02
  -6.516485e+02  -1.481418e+02
  -2.412198e+02  -6.173933e+02
   3.389562e+02  -4.904966e+02
   5.821869e+02  -1.497799e+01
   2.588538e+02   4.519835e+02
  -1.478543e+01   3.637232e+02
  -2.194508e+02   2.350027e+02
  -2.419005e+02   2.009119e+01
   1.445267e+02  -9.468422e+01
   3.894036e+02   1.096262e+02
   1.719832e+02   3.298625e+02
  -4.133391e+02   2.907350e+02
  -8.018444e+02  -1.986048e+02
  -3.885724e+02  -6.189206e+02
   4.030671e+02  -4.911534e+02
   7.811826e+02   3.078000e+01
   3.375657e+02   5.655273e+02
  -2.544810e+02   5.213525e+02
  -5.321742e+02   2.229625e+02
  -4.543626e+02  -2.219712e+02
   2.142201e+01  -4.516951e+02
   3.241711e+02  -2.459698e+02
   1.541881e+02   1.957807e+02
  -1.922246e+02   4.571329e+02
  -4.573206e+02  -4.085355e+01
  -3.019455e+02  -7.070786e+02
   3.102298e+02  -7.283038e+02
   6.156018e+02   6.288562e+01
   2.241646e+02   4.876911e+02
  -2.858110e+02   3.238168e+02
  -2.870821e+02  -3.665849e+02
   1.371585e+02  -5.525962e+02
   5.413168e+02  -2.234274e+01
   5.022244e+02   4.502579e+02
   5.043424e+01   5.562799e+02
  -4.206257e+02   3.582179e+02
  -5.738038e+02  -2.234692e+02
  -3.738079e+02  -3.904279e+02
   1.327697e+02  -4.194095e+02
   4.042096e+02  -3.422123e+01
   2.370006e+02   2.377850e+02
  -1.380104e+02   1.265452e+02
  -1.109335e+02  -1.712329e+02
   1.587852e+02  -1.788466e+02
   3.648578e+02   1.749158e+02
   1.499337e+02   3.981664e+02
  -2.584961e+02   2.465673e+02
  -4.279099e+02   1.100989e+01
  -1.640445e+02  -5.309971e+01
   3.532666e+01  -1.875042e+02
   2.429105e+02  -2.220356e+02
   3.293071e+02  -1.874841e+02
   2.857402e+02   1.055923e+02
   7.722405e+01   3.773432e+02
  -1.908164e+02   3.662263e+02
  -1.037276e+02   1.085614e+02
   2.432026e+01  -3.139545e+01
  -3.431477e+01   1.292051e+02
  -1.518254e+02   1.001773e+02
  -2.448239e+02  -3.766430e+01
  -1.196190e+02  -2.908005e+02
   1.103017e+02  -2.287204e+02
   2.678165e+02   6.957695e+00
   1.659200e+02   2.140436e+02
   1.347236e+01   2.591056e+02
  -2.924588e+02   5.865387e+01
  -3.216390e+02  -1.591332e+02
  -1.278133e+02  -3.554860e+02
   1.060988e+02  -3.363669e+02
   2.189028e+02  -9.897066e+01
   1.521096e+02   4.166358e+01
   6.598016e+01  -5.864236e+01
   2.410771e+02  -4.619871e+01
   4.207234e+02   8.455413e+01
   3.686485e+02   1.958209e+02
  -3.421158e+01   3.660321e+02
  -3.411453e+02   3.416943e+02
  -4.325887e+02   1.614615e+02
  -2.843163e+02  -1.160941e+02
  -1.987017e+01  -2.516931e+02
   1.166625e+02  -2.011365e+02
   9.812537e+01   3.564770e+01
  -1.017660e+02   1.140432e+02
  -2.198678e+02  -3.276931e+00
  -3.168197e+01  -2.344630e+02
   1.612750e+02  -1.335206e+02
   1.439946e+02   7.151191e+01
  -1.534435e+01   1.931113e+02
  -1.969590e+02  -2.373292e+00
  -1.590648e+02  -2.533219e+02
   1.960432e+01  -3.521725e+02
   2.596823e+02  -1.589467e+02
   3.115864e+02   7.628031e+01
   2.121748e+02   2.363508e+02
   8.078934e+01   2.554202e+02
  -9.439691e+01   1.352164e+02
  -1.583530e+02  -3.719495e+01
  -2.544579e+01  -4.657903e+01
   4.802905e+01   1.804584e+01
   1.126551e+01   1.127654e+02
  -1.646030e+02   1.107378e+02
  -1.754584e+02  -4.937328e+01
  -5.532021e+01  -5.431074e+01
   9.303370e+01  -1.645776e+01
   5.455320e+01   8.757327e+01
  -1.522837e+02   7.436597e+01
  -2.462435e+02  -1.212308e+01
  -2.142345e+02  -1.387287e+02
  -4.637264e+01  -3.125631e+02
   1.730256e+02  -2.509771e+02
   2.746785e+02  -1.332216e+02
   1.569078e+02   9.583667e+01
  -4.767832e+01   1.057111e+02
  -8.113723e+01  -2.563014e+01
   3.321340e+01  -1.075699e+02
   2.242089e+02  -6.309378e+01
   2.067233e+02   6.269600e+01
   5.951482e+01   2.022399e+02
  -3.535354e+01   1.654098e+02
  -1.226332e+02  -3.434885e+00
  -7.381338e+01  -6.763651e+01
   5.395094e+01  -4.073849e+01
   4.383448e+01   9.511547e+01
  -4.716401e+01   9.411227e+01
  -1.655264e+02  -9.881666e-01
  -1.496909e+02  -1.181479e+02
   5.078061e+00  -1.850004e+02
   1.367668e+02  -1.601275e+02
   1.839267e+02   2.899827e+01
   6.787011e+01   8.880604e+01
  -3.277021e+01   1.272980e+02
  -5.123905e+01   7.183607e+00
   2.261890e+01  -7.203727e+00
  -4.212322e+01  -3.858435e+00
   1.499929e+00   1.197401e+01
  -6.480945e+01  -6.509148e+01
  -1.063115e+02  -4.421876e+01
   2.113483e+01  -1.319906e+02
   1.385383e+02  -1.223080e+02
   1.930037e+02  -1.255388e+01
   1.369577e+02   1.496913e+02
   4.061019e+01   1.885815e+02
  -1.018192e+02   1.997639e+02
  -1.564475e+02   1.093159e+01
  -6.836673e+01  -7.003301e+01
  -1.068421e+01  -6.496332e+01
  -7.781542e+01   2.585431e+01
  -1.003779e+02  -1.791415e+01
  -1.882848e+01  -2.564744e+01
   8.438391e+01  -5.884455e+01
   1.110545e+02  -4.514507e+01
   1.214484e+02   3.349452e+01
  -1.994978e+01   1.300687e+02
  -1.025317e+02   7.533979e+01
  -1.505077e+02  -5.700632e+01
  -1.127333e+02  -1.859963e+02
   8.674458e+01  -2.222701e+02
   3.004752e+02  -9.340992e+01
   2.658356e+02   1.335568e+02
   1.364198e+02   1.721409e+02
  -7.896217e+01   1.794882e+02
  -7.661050e+01   7.615632e+01
  -6.829827e+01   6.858083e+01
  -3.893515e+01   4.543293e+01
  -6.261990e+01   6.577467e+01
  -1.342336e+02  -5.615405e+01
  -7.518885e+01  -1.939859e+02
  -3.203982e+01  -1.671700e+02
   1.000014e+02  -1.313396e+02
   1.723485e+02  -4.760226e+01
   1.436204e+02   1.387028e+02
   2.534674e+01   1.798084e+02
  -5.958976e+01   3.730041e+01
  -6.175460e+01   8.180407e+00
   4.238869e+00  -2.367213e+01
   1.899338e+01  -2.564032e+01
  -4.742743e+01  -3.641850e+01
  -6.044947e+01   2.229184e+00
  -2.632657e+01  -1.723037e+01
   7.121093e+01  -1.134568e+01
   1.327365e+02   2.356895e+01
   1.378016e+02   1.436695e+01
   2.484644e+01   8.466783e+01
  -1.379612e+02   6.236493e+01
  -1.768050e+02   3.270955e+01
  -2.544461e+01   1.501184e+01
   4.385180e+01  -2.180719e+01
   8.811824e+01   6.151847e+00
  -1.905266e+01   7.023618e+01
  -3.302137e+01   2.611264e+01
  -7.544927e+01   4.464822e+00
  -5.664040e+01  -1.584244e+01
  -6.714263e+01  -2.686194e+01
  -7.286129e+01  -9.135038e+00
  -6.612113e+01   1.067121e+00
  -2.494767e+01  -4.612777e+01
   2.018391e+01  -1.450604e+02
   1.093482e+02  -1.314371e+02
   1.571464e+02  -1.501932e+01
   9.858559e+01   8.434556e+01
  -1.803091e+00   9.330967e+01
  -7.770807e+01   2.259384e+01
  -5.655770e+01  -4.048671e+01
   7.833093e+01  -6.759415e+00
   1.330913e+02   2.397891e+01
   3.828009e+01   1.000386e+02
  -9.449115e+01   8.537542e+01
  -2.011663e+02   5.133954e+01
  -1.512535e+02  -4.528414e+01
  -1.011591e+02  -6.807439e+01
   1.435525e+01  -9.462872e+01
   7.258878e+01  -3.446169e+01
  -2.770614e+01   1.338936e+01
  -7.895807e+01  -3.647409e+01
  -5.206640e+01  -1.175360e+02
   1.243842e+02  -1.324545e+02
   1.109447e+02  -5.241071e+01
   1.103047e+02   8.344576e+01
   2.899067e+01   1.251693e+02
  -6.390264e+01   1.444041e+02
  -8.650153e+01   3.534289e+01
  -3.409936e+01  -1.061548e+02
  -7.479022e+00  -1.196073e+02
   2.918589e+01  -2.273974e+01
   4.705949e+01   2.013556e+01
   3.016092e+01   2.455553e+01
  -2.615844e+01   1.622328e+01
  -1.900538e+00   2.001737e+01
   2.498731e+01   1.065695e+02
   4.636955e+01   7.521659e+01
  -5.472514e+01   7.422775e+01
  -1.325161e+02  -3.534849e+01
  -1.051138e+02  -7.233925e+01
  -2.011940e+01  -5.892056e+01
   5.377946e+01  -3.954662e+01
   6.622406e+01  -1.025230e+01
   1.251922e+01   3.526092e+01
  -8.579669e+01   5.731200e+01
  -2.157326e+01   5.786742e+01
   4.585363e+01   2.219854e+01
  -2.882714e+00  -6.958789e+00
  -7.570644e+01  -1.253967e+01
  -5.228797e+01  -5.797927e+01
   7.893008e+00  -6.723566e+01
   1.097757e+02  -1.116981e+02
   1.471209e+02  -5.806940e+01
   1.185461e+02   5.064606e+01
   4.271045e+01   1.583518e+02
  -5.425897e+01   1.677865e+02
  -9.962048e+01   5.463743e+01
  -6.948654e+01  -6.724786e+01
  -1.134528e+01  -1.917241e+01
  -3.261208e+00  -4.292896e+01
   2.857014e+01  -1.916435e+01
  -3.945403e+01  -5.913639e+01
   1.090161e+01  -8.141543e+01
   6.315543e+01  -8.385049e+01
   9.250146e+01   2.617997e+01
   6.773690e+01   1.125550e+02
   3.478424e+01   1.451238e+02
  -8.104021e+01   4.473931e+01
  -8.032435e+01  -7.656277e+01
  -3.562162e+01  -1.192995e+02
   5.023866e+01  -6.018191e+01
   1.026162e+02   1.878784e+01
   6.516233e+01   5.090349e+01
  -2.418208e+01  -1.312241e+01
  -5.989321e+01   3.398479e+01
   2.027875e+01  -4.499863e+00
   6.813721e+01   4.392047e+01
   2.114005e+01  -6.751621e+00
  -1.163458e+02   2.774739e+01
  -1.165394e+02   3.577298e+01
  -4.077967e+01   4.860306e-01
  -1.237741e+01  -9.146756e+01
   4.962887e+01  -7.699469e+01
   3.601547e+01  -9.550407e+00
   1.616968e+01   7.125907e+01
  -2.897413e+01   4.642177e+01
  -3.093957e+01  -5.116162e+00
  -1.855956e+01  -1.005892e+02
   1.368032e+01  -1.985024e+01
   1.525660e+01   1.927782e+01
  -7.897546e+00   2.519287e+01
  -2.276456e+01   2.209032e+00
   5.245626e+00   5.129322e+00
  -2.284899e+01  -1.438033e+01
  -2.215729e+01   6.175118e+01
  -1.510652e+01   4.509786e+01
  -2.965134e+01   1.854273e+01
   1.212775e+01  -4.952952e+01
   2.562711e+01  -7.867101e+01
   2.127720e+01  -3.969797e+00
   1.043858e+01   4.843600e+01
  -1.223415e+00   6.584308e+01
  -6.885852e+01   2.376935e+01
  -6.011109e+01  -5.401397e+01
  -3.450087e+01  -3.150717e+01
   5.304930e+01  -1.708913e+01
   4.002595e+01  -1.093362e+01
   5.303312e+01  -1.046358e+00
  -1.799855e+01  -2.748838e+01
   2.322070e+00   3.701379e+00
   3.870625e+01  -2.983656e+01
   8.911160e+01   2.190740e+01
