
 $NMID
 id='ANONYMOUS ', fmtdat='(2E16.6)'
 volume=1.0
 tramp=1.0
 $END
  -4.474332e+03  -5.178693e+02
  -2.539104e+03  -2.953609e+03
   1.277284e+03  -2.393787e+03
   2.204398e+03  -6.029175e+02
   7.281062e+02   7.169111e+02
  -9.714985e+02   5.710973e+02
  -1.087285e+03  -4.103470e+02
   6.639256e+01  -1.122716e+03
   1.032821e+03  -8.126569e+02
   1.010758e+03   2.421532e+02
   2.964605e+02   9.885178e+02
  -3.502452e+02   9.413411e+02
  -7.081789e+02   1.985835e+01
  -4.344723e+02  -7.499026e+02
   3.279509e+02  -6.931844e+02
   6.564360e+02   1.554890e+02
   2.312083e+02   7.709098e+02
  -4.011230e+02   6.064214e+02
  -5.456124e+02  -1.293474e+01
  -3.388077e+02  -4.472703e+02
   9.130010e+01  -4.370124e+02
   2.187095e+02  -1.933245e+02
   2.602817e+02   1.371706e+01
  -1.178266e+02   1.204776e+02
  -4.762133e+02  -1.114669e+02
  -3.166382e+02  -3.742472e+02
   4.461136e+02  -4.681475e+02
   9.048251e+02   2.478003e+02
   3.270813e+02   6.605158e+02
  -5.058827e+02   4.985745e+02
  -7.620499e+02  -8.838820e+01
  -3.007551e+02  -5.652192e+02
   3.033451e+02  -6.072580e+02
   5.961764e+02  -1.169899e+02
   3.956379e+02   2.232148e+02
   2.395140e+01   4.818552e+02
  -3.313399e+02   2.904727e+02
  -1.718943e+02  -3.363439e+02
   2.565394e+02  -5.482089e+02
   5.324396e+02   1.161550e+02
   2.074726e+02   6.692241e+02
  -3.953038e+02   6.657006e+02
  -6.633906e+02  -8.597008e+01
  -2.682324e+02  -6.037326e+02
   2.939005e+02  -3.946514e+02
   3.862221e+02   3.607497e+02
  -1.165418e+02   6.039271e+02
  -6.612769e+02   5.507212e+01
  -5.137821e+02  -4.779073e+02
  -1.234179e+02  -5.685317e+02
   4.495766e+02  -3.895370e+02
   6.136365e+02   9.595740e+01
   3.495802e+02   4.148445e+02
  -2.056703e+02   3.838823e+02
  -5.512474e+02   4.096741e+01
  -2.797554e+02  -2.764224e+02
   1.494101e+02  -1.013271e+02
   1.644606e+02   1.838830e+02
  -1.719078e+02   2.705233e+02
  -4.208819e+02  -1.074079e+02
  -1.056809e+02  -4.068664e+02
   2.153385e+02  -2.569758e+02
   3.176905e+02  -3.783928e+01
   1.784619e+02   7.383382e+01
  -1.219142e+01   1.688048e+02
  -2.724989e+02   2.895722e+02
  -3.703574e+02   2.196398e+02
  -3.434914e+02  -1.295797e+02
  -6.794782e+00  -4.626175e+02
   1.747589e+02  -3.891006e+02
   1.389902e+02  -8.357166e+01
   3.280171e+01   4.140264e+01
  -1.242235e+01  -9.193324e+01
   2.123906e+02  -1.320308e+02
   2.590117e+02   6.282695e+01
   1.762688e+02   2.666348e+02
  -1.087579e+02   2.581175e+02
  -2.493029e+02   2.773369e+01
  -2.287810e+02  -2.370748e+02
   1.556973e+01  -3.103999e+02
   2.673450e+02  -9.284374e+01
   3.415674e+02   1.856446e+02
   1.968322e+02   4.163833e+02
  -1.228962e+02   2.855920e+02
  -2.516273e+02   8.222998e+01
  -1.559543e+02  -2.403865e+01
  -3.170357e+01  -2.361183e+01
  -2.377061e+02   6.636197e+01
  -3.563129e+02  -7.574711e+01
  -3.290971e+02  -2.384763e+02
   1.038689e+02  -4.369001e+02
   3.545996e+02  -3.440981e+02
   4.483477e+02  -1.950994e+02
   3.631235e+02   1.217219e+02
  -8.514130e+00   3.318577e+02
  -1.192985e+02   2.642813e+02
  -1.288771e+02   1.764444e+01
   8.299563e+01  -1.213781e+02
   1.939539e+02  -2.466134e+00
   9.441104e+01   1.893240e+02
  -1.764568e+02   2.069039e+02
  -2.037947e+02  -9.641073e+01
   5.011359e+00  -2.199473e+02
   2.078069e+02   1.583936e+01
   1.804494e+02   2.921517e+02
   1.603199e+01   3.904836e+02
  -3.035334e+02   1.461996e+02
  -2.677196e+02  -2.249296e+01
  -2.224247e+02  -2.415615e+02
  -8.151995e+01  -3.141979e+02
   1.464018e+02  -1.381388e+02
   2.016182e+02  -3.312011e+00
   3.420594e+01   3.852995e+01
  -6.107423e+01  -1.645942e+01
  -5.832600e+01  -1.085859e+02
   1.226111e+02  -1.133958e+02
   1.480683e+02   2.666312e+01
   4.277648e+01   1.280339e+02
  -9.728421e+01   3.771983e+01
  -7.660155e+01  -4.029308e+01
   1.212697e+02  -8.872884e+01
   2.296142e+02  -1.050045e+01
   2.888560e+02   6.186540e+01
   1.080969e+02   2.560127e+02
  -1.596877e+02   2.978635e+02
  -2.837357e+02   1.193944e+02
  -2.047049e+02  -8.312285e+01
   5.254923e+01  -1.162326e+02
   1.002206e+02  -2.910295e+01
  -3.212000e+01   1.042944e+02
  -2.338312e+02   8.311202e+01
  -2.490351e+02  -1.381577e+02
  -7.671820e+01  -2.560811e+02
   9.161310e+01  -1.859416e+02
   1.211273e+02  -1.596108e+01
   1.033852e+02   5.221224e+01
   2.226851e+01  -4.058339e+00
  -3.928055e+00  -6.939705e+01
   4.769418e+01  -9.753842e+01
   2.220159e+02  -1.208339e+01
   2.035420e+02   9.357010e+01
   4.748190e+01   2.171911e+02
  -1.525526e+02   1.929945e+02
  -1.886167e+02  -3.634452e+00
  -8.926381e+01  -9.267626e+01
   5.411289e+01  -1.009722e+02
   7.253397e+01  -5.003125e+00
   1.682125e+01   3.084967e+01
   1.801529e-01   1.419894e+01
  -2.713513e+01  -1.775179e+01
   2.984203e+01   2.029261e+01
   9.675849e+01   8.541703e+01
  -1.841727e+01   1.685970e+02
  -1.484875e+02   1.694513e+02
  -1.920602e+02   9.908961e-01
  -1.047889e+02  -1.261058e+02
  -1.705150e+01  -2.329531e+02
   1.340315e+02  -1.936144e+02
   1.432847e+02   1.334947e+01
   5.805717e+01   8.573133e+01
   4.987032e+01   5.259410e+01
   5.017522e+01   7.536972e+00
   5.560407e+01   3.591950e+00
   3.166092e+01   3.374208e+01
  -3.773450e+01   8.855917e+01
  -7.960018e+01   2.037907e+01
  -1.150287e+02  -6.010161e+01
   3.768799e+01  -1.063656e+02
   1.583651e+02  -1.116516e+02
   1.992496e+02   4.289290e+01
   1.557052e+02   2.125263e+02
  -1.344279e+02   2.411969e+02
  -2.635876e+02   7.693454e+01
  -2.661043e+02  -3.253692e+01
  -1.798433e+02  -1.698386e+02
   5.655099e+01  -1.627860e+02
   1.100457e+02  -8.032238e+01
   1.069746e+02  -6.627007e+01
   8.806702e+01  -8.702578e+01
   8.543791e+01  -8.942338e+01
   1.017587e+02   4.561723e+01
   1.873220e+01   1.707734e+02
  -8.221023e+00   2.024502e+02
  -1.160205e+02   1.785770e+02
  -1.211707e+02   2.074554e+01
  -1.046616e+02  -1.114092e+02
  -2.966458e+01  -1.723545e+02
   6.417165e+01  -8.289609e+01
  -1.008782e+01  -4.358780e-01
  -3.251022e+00   2.080191e+01
  -4.583887e+01   5.822503e+01
   5.015872e+01   2.676437e+01
   8.568681e+01   2.486146e+01
   4.196563e+01   5.350379e+01
  -4.141733e+01   2.890611e+00
  -8.081782e+01  -4.875153e+00
  -1.631892e+02  -2.541347e+01
   2.868281e+01  -1.001032e+02
   1.492566e+02  -2.267434e+01
   1.299433e+02   3.434138e+01
   6.431935e+01   4.652441e+01
  -3.656228e+01   1.617191e+01
  -7.259793e+01  -7.334647e+01
   1.276145e+01  -4.256645e+01
   3.971322e+01  -5.343119e+01
   3.961255e+01   1.189902e+01
   4.640490e+01   6.021970e+01
   4.303364e+01   2.185337e+01
   6.052344e+01   4.452655e+01
   7.095551e+01   1.537570e+01
  -2.219589e+01   5.938206e+01
  -1.529075e+01   1.200644e+02
  -1.328540e+02   1.082268e+02
  -1.852111e+02   1.474116e+01
  -1.859442e+02  -9.029744e+01
  -8.245701e+00  -1.048593e+02
   8.637697e+01  -4.923502e+01
   4.748699e+01   2.551137e+01
  -5.616792e+01   2.372803e-01
  -1.472118e+02  -4.124945e+01
  -6.062987e+01  -9.978654e+01
   5.993750e+01  -1.072576e+02
   2.189616e+02  -1.653291e+01
   1.977393e+02   7.317398e+01
   4.320213e+01   7.339098e+01
  -4.458842e+01   4.495079e+01
   1.295292e+00  -9.385740e+00
   2.045784e+00  -3.195570e+01
   7.734009e+01   3.440477e+01
   2.814248e+01   1.168704e+02
  -8.204626e+01   1.162342e+02
  -1.096953e+02   7.793244e+01
  -1.498113e+02  -9.390329e+01
  -2.154660e+01  -2.017198e+02
   8.057811e+01  -1.163215e+02
   1.505814e+02   2.653945e+01
   2.757638e+01   1.017535e+02
   7.244218e+00   9.102444e+01
  -3.754049e+01   8.167993e+01
  -4.490505e+01  -4.625619e+01
  -4.025662e+01  -1.258511e+01
  -1.834412e+01   1.579873e+01
  -9.627009e+00  -2.756495e+01
  -4.541953e+01  -6.858570e+01
  -3.156487e+01  -1.300665e+02
   3.370912e+01  -6.578443e+01
   1.413950e+02   3.899352e+01
   6.724508e+01   9.812233e+01
   3.970192e+01   7.675893e+01
  -1.094291e+02   1.565188e+01
  -5.393743e+01  -2.140858e+01
  -1.836442e+01  -8.565707e+00
   1.669103e+01  -2.394651e+01
  -5.089950e+00  -7.232216e+01
  -8.873783e+00   6.030399e+00
   1.122589e+00   7.788300e+00
   8.257676e+01   2.975840e+00
   1.086517e+02   7.040340e+01
   1.990308e+01   6.611263e+01
  -1.506467e+02   1.210891e+02
  -1.614881e+02  -4.010365e+00
  -1.141359e+02  -7.302038e+01
  -5.120166e+00  -1.854746e+02
   8.327389e+01  -1.439044e+02
   8.353975e+01  -8.902594e+01
   8.132175e+01  -3.860513e+00
   8.285932e+01   4.769273e+01
  -2.365952e+00  -7.727215e+00
   1.900991e+00  -2.488622e+01
   2.584036e+01   3.457058e+01
   2.183053e+01   1.035348e+02
  -3.703622e+01   2.137192e+01
  -6.489812e+01  -7.096652e+01
  -1.049131e+02  -8.007829e+01
  -1.290591e+01  -1.155674e+02
   5.235133e+01  -1.495456e+01
   8.415067e+01   7.080880e+01
   5.999010e+01   1.034597e+02
  -1.048613e+02   7.458753e+01
  -7.274897e+01  -5.692465e+01
  -6.167584e+01  -3.414975e+01
   5.225422e+01  -5.110040e+00
   6.613567e+00  -6.075248e+01
  -2.478195e+01  -3.934520e+01
  -3.866415e+01   9.818345e+00
  -4.488274e+01   4.193746e+00
   1.261806e+02  -2.549760e+01
   1.685811e+02  -8.172090e+01
   6.348362e+01   2.859657e+01
  -1.913200e+01   1.208384e+02
  -9.394526e+01   7.664365e+01
  -7.665781e+00   8.017539e+00
   9.887713e+00  -6.019709e+01
   1.832169e+01  -4.022685e+01
   3.529330e+01   2.363703e+01
   2.448462e+01   6.680362e+01
  -2.176943e+01   4.043328e+01
  -8.207909e+01   1.067584e+01
  -6.291711e+00  -2.207987e+01
  -1.545052e+01  -3.116941e+00
  -2.604905e+01   3.009830e+01
   4.860442e+00  -2.330306e+01
   1.529963e+01  -5.169529e+01
   8.679445e+00   2.152304e+00
   3.849401e+01   7.018625e+00
  -6.062010e+00   6.400310e+01
  -2.770648e+01   7.350088e+01
  -6.222825e+01  -4.637260e+01
  -1.918094e+01  -5.907916e+01
  -1.777227e+01  -7.799408e+01
   3.949643e+01  -7.002460e+01
   1.298126e+02   3.036711e+01
   5.174279e+01  -5.500236e+00
   1.989675e+01   3.336226e+01
  -7.245805e+01  -1.806962e+01
  -7.356623e-01   7.578576e+00
   4.603184e+01  -1.935971e+00
   7.931599e+01   3.869354e+01
  -5.003373e+01   2.191162e+01
  -9.281313e+01   1.188903e+00
