
 $NMID
 id='ANONYMOUS ', fmtdat='(2E16.6)'
 volume=1.0
 tramp=1.0
 $END
   2.600500e+03   7.950602e+02
   1.498826e+03   1.185024e+03
   8.892330e+01   2.121954e+03
  -1.174081e+03   1.433412e+03
  -7.526138e+02   2.147720e+02
  -1.554671e+02  -7.072609e+01
   2.516837e+02  -5.729603e+01
   2.692792e+01   4.452000e+02
  -4.157409e+02   6.095261e+02
  -6.119894e+02   6.740029e+01
  -3.996201e+02  -4.453342e+02
  -9.322421e+01  -5.997835e+02
   3.424361e+02  -2.497947e+02
   3.089210e+02   3.740677e+02
  -1.124313e+02   3.368625e+02
  -3.703065e+02   3.821793e+01
  -2.613468e+02  -3.456740e+02
  -1.037319e+01  -5.525341e+02
   4.648725e+02  -3.163374e+02
   3.792872e+02   2.087064e+02
   1.309920e+02   4.079263e+02
  -6.181434e+01   2.345107e+02
  -5.686832e+01   6.681962e+01
   1.557439e+02   1.007507e+02
   2.137153e+02   3.373841e+02
  -1.529888e+01   2.761201e+02
  -4.391665e+02   2.481736e+02
  -4.894686e+02  -2.522981e+02
  -1.838014e+02  -4.157235e+02
   2.597214e+02  -7.670519e+01
   5.800148e+02   1.366618e+02
   1.663575e+02   3.446784e+02
  -2.298712e+02   2.445650e+02
  -3.471433e+02   5.181336e+01
  -2.225091e+02  -1.489835e+02
  -8.662329e+01  -3.055929e+02
   6.094428e+01  -1.714719e+02
  -1.435062e+02   8.310353e+01
  -1.948157e+02   1.226952e+02
  -1.478456e+02  -2.024657e+02
  -6.371624e+01  -4.714039e+02
   2.852931e+02  -2.700369e+02
   2.826572e+02   1.017083e+02
   1.287583e+02   2.512997e+02
  -1.706929e+02   1.213935e+02
  -1.113718e+02  -3.545643e+02
   7.354442e+01  -3.554774e+02
   2.730039e+02   7.653384e+01
   4.219071e+02   3.844604e+02
   1.077341e+02   4.204775e+02
  -2.373584e+02   2.265618e+02
  -4.580976e+02  -3.194814e+01
  -3.141015e+02  -1.681852e+02
   1.027195e+02  -1.753809e+02
   2.286125e+02  -1.358904e+02
   1.989706e+02  -1.818667e+01
  -2.152645e+00   1.146725e+01
  -5.274580e+01  -4.752151e+01
   7.052640e+01  -6.276244e+01
   1.114502e+02   8.767147e+01
   5.710404e+01   1.907308e+02
  -1.251094e+02   2.078841e+02
  -2.743781e+02   1.106299e+02
  -2.350634e+02  -8.636565e+01
  -5.784432e-01  -2.902403e+02
   3.323451e+02  -3.663955e+02
   3.393609e+02  -1.510477e+02
   2.468735e+02   1.361513e+02
   3.150866e+01   2.808322e+02
  -6.016262e+01   3.187504e+02
  -4.025859e+00   1.571801e+02
  -4.054050e+01   1.159411e+02
  -1.634599e+02   1.040883e+02
  -2.777179e+02   2.732680e+01
  -1.785777e+02  -7.906746e+01
  -9.128706e+01  -2.286381e+02
   1.842662e+02  -1.650569e+02
   1.869856e+02   9.033803e+01
   1.297833e+02   2.248821e+02
  -6.369794e+01   1.877098e+02
  -2.492415e+02   8.190770e+01
  -2.380286e+02  -1.215734e+02
  -2.163673e+02  -2.476880e+02
   5.552591e+01  -2.038299e+02
   1.583180e+02  -1.577280e+02
   8.264343e+01  -7.972549e+01
   1.498278e+02  -6.309761e+01
   2.797545e+02  -6.577675e+01
   3.581328e+02   7.879547e+01
   3.267019e+02   2.152323e+02
  -7.267643e+01   2.882260e+02
  -3.514153e+02   3.352187e+02
  -4.446217e+02   1.976781e+02
  -2.833371e+02  -8.049367e+01
   1.614758e+01  -2.462773e+02
   8.760888e+01  -1.879580e+02
   1.512957e+01  -7.471620e+01
  -1.615031e+02   4.014344e+01
  -1.172214e+02  -7.325180e+01
   4.903619e-01  -1.014150e+02
   9.067128e+01  -2.668805e+01
   3.683144e+01   9.552798e+01
  -4.496073e+01   1.274467e+02
  -1.399312e+02  -5.521689e+01
  -1.431264e+02  -2.140570e+02
  -4.447118e+01  -3.041562e+02
   2.217132e+02  -1.173281e+02
   3.457273e+02   3.625633e+01
   3.144713e+02   2.644882e+02
   9.700244e+01   2.668653e+02
  -1.479924e+02   1.061646e+02
  -1.280129e+02  -4.490595e+00
  -3.082056e+01  -8.904797e+00
   5.388511e+01   3.189408e+01
  -3.126740e+00   9.516368e+01
  -1.206428e+02   1.141188e+02
  -1.572105e+02  -3.592076e+01
   2.097536e+00  -7.989595e+01
   7.341883e+01   3.623677e+01
   4.011087e+01   1.100318e+02
  -1.329793e+02   8.444069e+01
  -3.024081e+02  -1.822193e+01
  -2.428246e+02  -1.351328e+02
  -2.627517e+01  -2.404016e+02
   2.004591e+02  -2.131693e+02
   1.956020e+02  -8.206045e+01
   1.227148e+02   3.944207e+01
  -3.813672e+01   4.484333e+01
  -3.865526e+01  -5.593929e+01
   1.032073e+02  -8.693332e+01
   1.524297e+02  -5.201770e+01
   2.002575e+02   4.649837e+01
   3.701451e+01   1.507242e+02
  -8.609450e+01   1.168056e+02
  -1.216457e+02  -3.370190e+00
  -5.889903e+01  -7.229793e+01
   1.058773e+01   3.923208e+01
  -3.151150e+00   1.083027e+02
  -6.971951e+01   9.724332e+01
  -1.924529e+02   2.489652e+01
  -1.969291e+02  -9.478011e+01
   3.750173e+00  -1.453862e+02
   1.275444e+02  -1.639937e+02
   1.515325e+02   1.590121e+01
   2.089859e+01   8.624834e+01
  -4.557213e+01   8.532765e+01
  -4.243830e+01   2.406963e+01
   1.903281e+01  -6.274682e+01
   6.021323e+01  -1.327388e+01
  -5.089598e+00   1.941721e+01
  -9.373591e+01  -5.779810e+00
  -1.031247e+02  -3.835272e+01
   1.403472e+01  -1.506606e+02
   1.266041e+02  -1.599281e+02
   2.622618e+02  -1.830943e+01
   1.640403e+02   1.348878e+02
   3.774520e+00   2.437406e+02
  -7.404630e+01   1.037659e+02
  -9.595707e+01   2.088379e+01
  -5.975753e+01  -5.232589e+01
  -3.735614e+01  -1.951311e+01
  -5.166453e+01  -1.928702e+01
  -1.042289e+02   2.008404e+01
  -7.009472e+01  -3.733880e+01
   4.058040e+01  -7.664986e+01
   9.583045e+01  -7.164732e+01
   1.298230e+02   7.293361e+01
  -5.758487e+01   1.221138e+02
  -2.032188e+02   8.049873e+01
  -1.781143e+02  -6.601621e+01
  -5.793510e+01  -1.908027e+02
   1.465021e+02  -1.478328e+02
   2.528101e+02  -4.821302e+01
   2.338730e+02   8.135242e+01
   6.565632e+01   1.018395e+02
  -6.351451e+01   1.131737e+02
  -5.637013e+01   5.463451e+01
  -3.238550e+00   3.990731e+01
  -2.656584e+01   9.249080e+01
  -6.458897e+01   5.866904e+01
  -9.850146e+01  -1.903039e+01
  -9.746607e+01  -1.565636e+02
  -6.128551e+01  -2.541720e+02
   8.885750e+01  -1.923730e+02
   1.064104e+02  -5.226468e+01
   1.065735e+02   1.254592e+02
  -2.626825e+01   1.637967e+02
  -9.830600e+01   1.381161e+02
  -5.843337e+01  -1.292138e+01
   1.826859e+01  -5.216181e+01
   4.498871e+01  -5.759872e+01
  -1.167680e+01   1.597356e+00
  -8.481320e+01  -3.466701e+01
  -8.317055e+01  -3.571448e+01
   4.093650e+01  -7.280252e+01
   1.685936e+02  -2.576270e+01
   1.657218e+02   7.896974e+01
   7.156825e+00   6.560491e+01
  -1.295376e+02   4.031855e+01
  -1.526826e+02   1.462806e+01
  -7.059930e+01  -7.295870e+01
   5.421335e+01  -6.538307e+01
   5.827031e+01   1.155636e+01
   7.398531e+00   5.742869e+01
  -4.419083e+01   8.671384e+01
  -7.585646e+01   1.242078e+01
  -3.268552e+01  -1.852699e+01
  -3.440259e+01  -4.216251e+01
  -8.056357e+01  -5.043761e+01
  -4.205129e+01   1.021467e+01
  -1.151707e+01  -8.016580e+01
   3.442400e+01  -1.395902e+02
   1.076179e+02  -1.552503e+02
   1.300719e+02  -3.126277e+01
   1.072193e+02   1.002666e+02
  -1.125484e+01   7.471704e+01
  -1.351433e+02   7.146450e+01
  -7.121536e+01   1.657200e+01
   7.007220e+01  -2.071219e+01
   1.123739e+02   6.035826e+01
   8.667695e+01   1.204821e+02
  -5.149343e+01   1.185333e+02
  -2.047443e+02   6.786337e+00
  -7.532875e+01  -6.408808e+01
  -4.363025e+01  -5.171549e+01
   4.016229e+01  -4.410343e+01
   5.114445e+01   2.319496e+01
  -2.363403e+01   4.363462e+01
  -1.182139e+02   1.256289e+01
  -5.993192e+01  -1.071657e+02
   6.955023e+01  -1.704419e+02
   1.657343e+02  -7.088766e+01
   1.187646e+02   1.079833e+02
   4.484345e+01   1.666218e+02
  -9.881116e+01   1.136510e+02
  -6.247678e+01  -3.799619e+01
  -8.509830e+01  -1.430567e+02
   6.486947e+00  -1.148491e+02
   4.142888e+01  -3.039487e+01
   2.172280e+01   5.296757e+01
   2.454699e+01   1.498567e+01
   1.835742e+01  -6.867718e+00
   2.449647e+01   3.663238e+01
   7.043521e+01   1.063224e+02
   1.186509e+01   9.287346e+01
  -2.164460e+01   3.625928e+01
  -9.059255e+01  -2.879748e+01
  -9.089274e+01  -1.198535e+02
  -6.029751e+01  -4.794436e+01
   8.139058e+01  -2.985646e+01
   7.243770e+01   3.581204e+00
   5.032005e+00   4.875544e+01
  -4.892559e+01   2.015067e+01
  -1.350947e+01  -7.856399e+00
   1.639953e+01   6.687698e+00
  -2.376637e+00  -1.266253e+01
  -4.669441e+01   2.418289e+01
  -1.263132e+02   1.052861e+01
  -2.467644e+01  -6.029425e+01
   7.286910e+01  -1.057077e+02
   1.852536e+02  -7.449676e+01
   1.473197e+02   4.440583e+01
   7.223836e+00   1.600184e+02
  -6.221258e+01   1.311899e+02
  -8.539029e+01   7.525993e+01
  -6.875298e+01  -4.302148e+01
  -3.116132e+01  -7.091676e+01
  -1.112307e+01   7.427389e+00
   2.090774e+01  -1.635412e+01
  -4.338721e+01  -4.933045e+01
   4.432622e+00  -8.836235e+01
   1.258686e+01  -6.604618e+01
   6.158110e+01  -9.342709e+00
   8.262898e+01   1.028490e+02
   1.396635e+01   1.196569e+02
  -7.564623e+01   2.997791e+01
  -7.282758e+01  -6.826394e+01
  -4.469928e+01  -1.392979e+02
  -5.325756e+00  -6.391679e+01
   6.253441e+01   6.910893e+00
   6.575878e+01   1.693896e+01
   4.456035e+00   5.481524e+01
  -4.564204e+01   5.135476e+00
   3.288847e+01  -1.883797e+01
   3.424240e+01  -2.265106e+01
   2.343440e+01   1.775616e+01
  -9.748831e+01   7.177535e+01
  -1.118164e+02   5.264980e+01
  -9.028569e+01   1.884016e+01
   2.588092e+01  -9.415340e+01
   4.214478e+01  -5.178533e+01
   4.315683e+01  -1.401123e+01
   1.415232e+01   6.237514e+01
  -2.161248e+01   6.478216e+01
  -2.174463e+01  -5.763276e+01
   3.749059e+01  -6.658304e+01
   9.295394e+00  -4.299084e+01
   4.608532e+01  -1.473388e+01
   4.319252e+01   5.593269e+01
   5.954421e+01   1.416643e+01
  -2.367908e+01  -4.975658e+00
   3.260296e+01   5.576820e+00
   1.747775e+00   3.548766e+01
  -2.573977e+01   4.081089e+01
  -3.739497e+01   5.098671e+01
  -6.731143e+01  -2.532630e+01
  -2.032101e+01  -6.832014e+01
   1.704370e+01  -1.838718e+01
   5.384001e+01   5.342655e+01
   3.283280e+01   5.017059e+01
  -5.022448e+01   1.293849e+01
  -3.989612e+01   3.813056e+01
  -5.651976e+01  -2.074697e+01
   4.492001e+01  -4.934855e+01
   5.378886e+01  -3.990560e+01
   6.295547e+00  -5.782277e+00
  -2.601131e+01   1.895326e+01
  -8.148392e+00  -2.105183e+01
   1.240780e+01  -5.575191e+01
   4.879257e+01  -1.229805e+01
