
 $NMID
 id='ANONYMOUS ', fmtdat='(2E16.6)'
 volume=1.0
 tramp=1.0
 $END
   4.636849e+03   2.248754e+02
   2.543919e+03   3.221594e+03
  -4.159732e+02   2.881976e+03
  -2.548238e+03   7.409341e+02
  -1.026138e+03  -8.221556e+02
   7.547905e+02  -6.327175e+02
   1.101581e+03   4.061198e+02
   3.113695e+01   1.239941e+03
  -1.081075e+03   7.761025e+02
  -1.064632e+03  -1.381379e+02
  -6.667951e+02  -1.143167e+03
   3.447726e+02  -9.992006e+02
   8.453091e+02  -1.625731e+02
   5.430527e+02   8.285021e+02
  -3.857344e+02   8.771833e+02
  -7.414154e+02  -1.017551e+02
  -3.048142e+02  -7.006002e+02
   4.095155e+02  -5.215044e+02
   7.073418e+02  -5.962165e+01
   3.885586e+02   3.781688e+02
   1.134728e+01   4.884076e+02
  -2.135232e+02   2.945172e+02
  -1.780540e+02   2.456864e+01
   7.822814e+01  -1.510561e+02
   4.374498e+02   6.783923e+01
   3.434780e+02   4.556520e+02
  -5.000654e+02   5.028050e+02
  -9.179636e+02  -1.526196e+02
  -4.871129e+02  -6.273516e+02
   3.509130e+02  -6.252756e+02
   7.430310e+02  -5.812300e-01
   4.232939e+02   5.348896e+02
  -2.168865e+02   6.036242e+02
  -6.279172e+02   1.899728e+02
  -4.659794e+02  -1.709090e+02
  -9.506842e+01  -5.127020e+02
   2.097653e+02  -3.528109e+02
   2.114831e+02   2.370319e+02
  -2.051450e+02   5.554865e+02
  -4.761199e+02  -7.042060e+01
  -4.145273e+02  -6.876916e+02
   3.303733e+02  -6.272255e+02
   7.261645e+02   2.928920e+01
   2.863298e+02   6.381767e+02
  -3.225369e+02   4.085101e+02
  -4.624655e+02  -3.613784e+02
   2.980482e+01  -6.493584e+02
   5.908810e+02  -1.611159e+02
   7.257952e+02   4.185518e+02
   1.538939e+02   6.746703e+02
  -4.741946e+02   2.997606e+02
  -6.216787e+02  -1.196468e+02
  -4.883075e+02  -4.488378e+02
   1.973044e+02  -4.306146e+02
   5.470990e+02   2.867164e-01
   2.295206e+02   1.957410e+02
  -1.211659e+02   1.251204e+02
  -1.418732e+02  -1.597078e+02
   2.062588e+02  -2.320599e+02
   3.696428e+02   9.851823e+01
   1.319697e+02   3.522630e+02
  -2.694707e+02   3.094586e+02
  -3.116194e+02   2.977354e+01
  -2.064119e+02  -8.311018e+01
   2.710960e+01  -2.271850e+02
   2.297242e+02  -2.973459e+02
   3.944255e+02  -2.702642e+02
   3.268199e+02   1.390703e+02
   7.328342e+01   5.195405e+02
  -1.738329e+02   4.013324e+02
  -1.608541e+02   1.112928e+02
  -2.054822e+01  -5.525143e+01
  -3.395026e+01   1.123362e+02
  -1.810299e+02   1.757757e+02
  -2.970856e+02  -4.800660e+01
  -2.081880e+02  -2.852552e+02
   6.529119e+01  -2.858066e+02
   2.301944e+02  -1.893348e+01
   1.729199e+02   1.923032e+02
  -2.546324e+01   3.148965e+02
  -3.021982e+02   5.727000e+01
  -3.703349e+02  -1.820836e+02
  -1.357038e+02  -4.043176e+02
   1.365730e+02  -3.660199e+02
   2.761400e+02  -1.234478e+02
   1.386778e+02   7.381833e+00
   5.323782e+01  -2.056134e+01
   2.757506e+02  -9.734706e+01
   4.370724e+02   3.247706e+01
   4.432092e+02   2.663675e+02
  -3.681327e+01   4.578050e+02
  -4.028612e+02   4.434061e+02
  -5.670058e+02   3.359482e+02
  -2.472721e+02  -8.216667e+01
  -4.546032e+01  -3.292885e+02
   1.283731e+02  -3.041362e+02
   1.229087e+02  -2.411972e+01
  -1.338098e+02   1.470881e+02
  -2.100737e+02   8.768902e+00
  -1.215611e+02  -2.244079e+02
   2.020255e+02  -1.687054e+02
   1.844105e+02   1.059130e+02
   4.019484e+01   1.599587e+02
  -1.901737e+02   7.477491e+01
  -1.556758e+02  -2.129138e+02
  -2.544610e+01  -4.107677e+02
   2.504755e+02  -1.877574e+02
   3.655334e+02   5.621067e+01
   3.322566e+02   2.912153e+02
   8.090029e+01   2.709666e+02
  -1.469495e+02   1.426313e+02
  -1.272001e+02  -8.735535e-01
  -5.641502e+01  -4.482596e+01
   5.921647e+01  -1.911908e+00
   9.794236e+00   1.005198e+02
  -1.727558e+02   9.112616e+01
  -1.732604e+02  -3.107816e+00
  -5.865239e+01  -8.392276e+01
   6.954199e+01  -2.583578e+01
   2.663629e+01   8.456725e+01
  -1.320044e+02   9.181922e+01
  -3.061588e+02   1.466544e+01
  -2.959448e+02  -1.254161e+02
  -4.417260e+01  -2.843883e+02
   2.067467e+02  -2.706259e+02
   3.677422e+02  -1.614050e+02
   1.955914e+02   5.958305e+01
  -1.941281e+01   9.707997e+01
  -8.869769e+01   1.525875e+01
   5.467855e+01  -8.222415e+01
   2.861035e+02  -5.496760e+01
   2.449602e+02   1.217055e+02
   9.534673e+01   1.858820e+02
  -7.014210e+01   1.493116e+02
  -1.289593e+02   3.779427e+01
  -6.653949e+01  -4.978477e+01
   4.413793e+00  -2.575624e+01
   2.135393e+01   7.910701e+01
  -8.530527e+01   1.445583e+02
  -2.350884e+02   1.001554e+01
  -2.255949e+02  -1.261371e+02
   7.971662e-01  -2.308820e+02
   2.423661e+02  -1.609547e+02
   2.502038e+02   2.269632e+01
   6.806653e+01   1.477329e+02
  -8.225888e+01   8.255582e+01
  -3.709403e+01   6.900113e+01
  -5.655658e+01  -3.653603e+01
  -4.637953e+01  -1.161273e+01
  -3.459917e+01   1.720543e+01
  -9.050951e+01   9.863824e+00
  -7.246872e+01  -5.538851e+01
   2.022907e+01  -1.675277e+02
   1.351092e+02  -1.265390e+02
   2.106481e+02  -4.911948e+01
   2.016533e+02   1.741156e+02
   8.350324e+01   2.630607e+02
  -1.296487e+02   2.186253e+02
  -1.565389e+02   6.528308e-01
  -2.228381e+01  -5.320346e+01
  -2.340252e+01  -5.237336e+01
  -6.599213e+01  -1.502486e+00
  -1.202789e+02  -6.192905e+00
  -6.977654e-01  -7.823225e+01
   4.439717e+01  -7.336856e+01
   1.273073e+02  -2.783304e+01
   1.204671e+02   8.419723e+01
   1.289900e+01   8.449482e+01
  -1.550894e+02   8.033309e+01
  -2.377045e+02  -4.944967e+01
  -1.195509e+02  -1.781741e+02
   5.592648e+01  -1.633973e+02
   2.895458e+02  -1.303076e+02
   3.104581e+02   1.196298e+02
   7.776543e+01   1.844038e+02
  -8.309467e+01   1.711782e+02
  -6.676802e+01   8.309807e+01
  -7.127723e+01   5.076697e+01
  -7.569263e+01   9.594046e+01
  -4.784964e+01   9.057848e+01
  -9.696842e+01  -3.072486e+01
  -9.514308e+01  -1.258808e+02
  -5.261396e+01  -2.127617e+02
   9.719916e+01  -1.995676e+02
   2.112668e+02  -6.828022e+01
   1.541691e+02   1.403391e+02
   3.910225e+01   2.006575e+02
  -6.008857e+01   1.535422e+02
  -4.697088e+01   1.085761e+01
   2.342276e+01  -1.737803e+01
  -2.755650e+01  -7.193715e+00
  -1.805806e+01  -3.016362e+01
  -7.216340e+01  -2.240857e+01
  -7.057434e+01  -5.115483e+01
   5.284037e+01  -2.079332e+01
   1.397369e+02   2.259103e+01
   1.614949e+02   4.198935e+01
   2.165162e+01   7.407513e+01
  -1.079800e+02   4.163344e+01
  -1.781188e+02  -9.341955e+00
  -1.311801e+01  -6.409523e+01
   4.452529e+01  -4.585823e+00
   6.298813e+01  -1.325918e+01
   7.989412e+00   2.345452e+01
  -3.674509e+01   9.125265e+01
  -5.406986e+01   4.141387e+01
  -5.097941e+01  -8.032113e+01
  -8.142094e+01  -4.697783e+01
  -3.261442e+01   7.787425e-01
  -7.881538e+01   2.954210e+01
  -3.693632e+01  -9.737930e+01
   5.391801e+01  -1.675925e+02
   1.494389e+02  -1.391398e+02
   1.935920e+02  -3.728001e+01
   1.607422e+02   1.172497e+02
   7.769140e+00   1.418381e+02
  -8.926048e+01   8.162387e+01
  -6.498240e+01   4.038762e+01
   6.576045e+01  -1.004216e+01
   1.444802e+02   1.733440e+01
   7.205179e+01   1.236778e+02
  -6.403625e+01   1.035166e+02
  -1.646305e+02   4.279855e+01
  -1.860640e+02  -5.554564e+01
  -2.579469e+01  -9.831322e+01
   1.052522e+02  -5.728154e+01
   6.075210e+01   3.783520e-01
   1.105503e+01  -1.006636e+01
  -9.715755e+01  -5.362804e+00
  -5.268402e+01  -1.060832e+02
   1.344620e+02  -1.666464e+02
   2.062473e+02  -7.683848e+01
   1.307278e+02   7.410029e+01
  -2.664358e+01   2.042562e+02
  -7.449026e+01   1.535494e+02
  -1.198480e+02  -1.346746e+01
  -4.078575e+01  -1.478557e+02
  -2.583936e+01  -1.356394e+02
   4.485916e+01  -3.268913e+01
   5.943559e+01   5.412460e+01
   3.448645e+01   9.072408e+00
  -1.284879e+01  -9.463969e+00
   2.284106e+00   6.014294e+00
   4.675604e+01   7.563095e+01
   3.782631e+01   1.343796e+02
  -6.010668e+01   6.651943e+01
  -1.385403e+02  -6.042788e+01
  -1.354346e+02  -9.372808e+01
  -6.133798e+00  -6.186242e+01
   8.488693e+01  -2.465821e+01
   1.316435e+02   1.091199e+01
   1.784637e+01  -3.512658e+01
  -6.561932e+01   1.972406e+01
  -1.449376e+01   3.458955e+01
   3.693545e+01   1.345925e+01
   3.210785e+01   3.815323e+01
  -1.159409e+02   1.470527e-01
  -1.212437e+02  -2.424368e+01
  -1.885286e+01  -9.029571e+01
   1.139114e+02  -7.838294e+01
   1.962249e+02  -5.050028e+01
   1.456963e+02   6.415017e+01
   2.037033e+01   1.765711e+02
  -1.233101e+02   1.660326e+02
  -1.248585e+02   7.046058e+01
  -1.446716e+02  -4.043158e+01
  -3.740881e+00  -5.476608e+01
   1.595463e+00   2.863274e+01
  -3.806394e+01   7.134151e+00
  -6.971416e+01  -8.007740e+01
   5.785635e+00  -7.804315e+01
   6.829435e+01  -7.822667e+01
   5.752445e+01   4.247807e+01
   1.200050e+02   1.058739e+02
  -7.435932e+00   1.404364e+02
  -5.355872e+01   1.528919e+01
  -9.668109e+01  -2.769353e+01
  -3.139045e+01  -1.321543e+02
   6.348825e+01  -6.592746e+01
   1.025874e+02   4.558673e+00
   4.876745e+01   3.913558e+01
  -4.248423e+01   5.034400e+01
  -3.713060e+01   5.741284e+01
   3.482525e+01   1.092222e+01
   6.030847e+01   4.680861e+00
  -2.130316e+01   5.610225e+01
  -6.071500e+01   8.382445e+01
  -1.405213e+02   5.233348e+01
  -6.190490e+01  -3.129914e+01
   3.198642e+01  -6.561420e+01
   6.714808e+01  -5.038036e+01
   2.376156e+01   1.294610e+01
  -2.926139e+01   7.129827e+01
   1.420149e+01   5.651351e+01
  -1.941215e+00  -3.407900e+00
  -1.481175e+01  -1.732449e+01
   4.264142e+00   2.678910e+01
   7.873383e+01   9.219008e-01
   2.312634e+01   2.860597e+01
   2.499676e+01   9.989180e-01
  -9.849715e+00  -2.250362e+01
  -1.848587e+01   4.842610e+00
   1.935492e+00   1.789293e+01
   7.580281e+00   5.286557e+01
  -5.522003e+01   1.103967e+01
  -1.196973e+01  -4.944428e+01
   3.995182e+01  -5.013363e+01
   7.064859e+01   1.858193e+01
   4.683368e+01   4.272942e+01
   5.195478e+01   8.136937e+01
  -3.921059e+01   7.242800e+01
  -9.252783e+01  -1.617331e+01
  -2.753813e+01  -2.528094e+01
   3.631707e+01  -4.496187e+01
   6.231807e+01  -2.753280e+01
   3.899051e+01  -1.606249e+01
  -4.206471e+01  -8.016108e+00
  -4.460948e+01  -1.363999e+01
   6.139962e+01  -3.659297e+01
   6.628968e+01  -1.126060e+01
