
 $NMID
 id='ANONYMOUS ', fmtdat='(2E16.6)'
 volume=1.0
 tramp=1.0
 $END
  -3.773919e+03   5.225271e+02
  -2.252629e+03  -2.083059e+03
   2.759055e+01  -2.296087e+03
   1.670677e+03  -1.296819e+03
   1.193655e+03   1.279320e+02
  -5.275015e+02   5.272547e+02
  -8.787638e+02  -2.619203e+02
  -5.780066e+01  -1.083218e+03
   6.710950e+02  -7.699590e+02
   7.543691e+02  -3.855078e+01
   5.318226e+02   6.578173e+02
  -2.032474e+02   8.713941e+02
  -5.603265e+02   2.577194e+02
  -4.798555e+02  -6.384443e+02
   1.756686e+02  -6.244123e+02
   6.002757e+02  -3.112669e+01
   2.336788e+02   5.619791e+02
  -2.497523e+02   6.720562e+02
  -5.965139e+02   1.832520e+02
  -5.101924e+02  -2.390259e+02
  -6.603867e+01  -3.778839e+02
   1.562501e+02  -3.385387e+02
   1.015779e+02  -1.063897e+02
  -1.216956e+02   8.238827e+01
  -2.643037e+02  -1.003511e+02
  -1.200618e+02  -4.451507e+02
   3.619790e+02  -4.211082e+02
   7.168207e+02   1.186138e+02
   4.296091e+02   4.463992e+02
  -2.941175e+02   3.991960e+02
  -6.636226e+02  -3.150135e+00
  -2.406821e+02  -3.813663e+02
   3.365952e+02  -6.014090e+02
   4.729666e+02  -1.512424e+02
   3.806701e+02   1.907581e+02
   1.068082e+02   3.621614e+02
  -1.007274e+02   2.754478e+02
  -1.170916e+02  -1.193183e+02
   2.067165e+02  -3.754629e+02
   3.784432e+02   9.254164e+01
   2.796175e+02   6.512380e+02
  -2.825995e+02   5.531806e+02
  -3.880816e+02   2.322136e+01
  -2.377190e+02  -5.521041e+02
   2.432747e+02  -3.157527e+02
   3.858341e+02   3.978153e+02
  -7.607027e+01   4.411297e+02
  -5.040091e+02   9.832404e+01
  -5.776852e+02  -4.074046e+02
  -1.030404e+02  -4.305456e+02
   4.075351e+02  -2.693406e+02
   5.505637e+02  -2.640387e+01
   3.490098e+02   3.058555e+02
  -1.328158e+02   2.711400e+02
  -4.025771e+02   1.516381e+02
  -2.830820e+02  -1.381628e+02
   3.134717e+01  -9.969914e+01
   9.470461e+01   6.635557e+01
  -1.646096e+02   2.086304e+02
  -3.433194e+02  -7.187883e+01
  -1.146348e+02  -2.135922e+02
   1.770712e+02  -2.981280e+02
   3.642954e+02  -7.978527e+01
   2.723478e+02   4.929106e+01
  -3.532316e+01   2.910400e+02
  -2.489249e+02   3.261760e+02
  -3.049368e+02   1.654853e+02
  -3.130233e+02  -1.650973e+02
  -9.375465e+01  -3.928055e+02
   6.641396e+01  -4.207443e+02
   6.024484e+01  -1.616190e+02
   4.657674e+01  -3.004295e+01
   7.014568e+01  -9.947666e+01
   1.780491e+02  -3.649137e+01
   2.985279e+02   6.996147e+01
   1.483865e+02   3.161737e+02
  -6.421801e+01   1.841162e+02
  -1.620849e+02   2.485222e+01
  -1.533160e+02  -2.737770e+02
  -6.750982e+00  -2.360543e+02
   2.728325e+02  -9.096607e+01
   4.086013e+02   1.655815e+02
   2.121313e+02   3.577588e+02
  -7.023685e+01   3.388693e+02
  -2.165037e+02   1.802915e+02
  -1.468342e+02   3.249538e+01
  -5.816998e+01   2.639701e+01
  -3.001046e+02   1.145895e+02
  -5.041931e+02  -9.875593e+01
  -3.426084e+02  -2.917366e+02
  -7.746521e+01  -4.071251e+02
   3.066394e+02  -4.342741e+02
   3.898617e+02  -1.793673e+02
   3.185955e+02   1.206001e+02
   4.884914e+01   1.985537e+02
  -1.553946e+02   2.333112e+02
  -7.023048e+01   9.576973e+01
   1.609830e+02  -8.222182e+01
   2.187024e+02   3.692730e+00
   3.016002e+00   1.553942e+02
  -1.718392e+02   1.895516e+02
  -1.482340e+02  -8.513778e+01
   5.422876e+01  -1.914211e+02
   1.354540e+02  -8.922654e-01
   1.499170e+02   2.145649e+02
  -3.151993e+01   3.528077e+02
  -2.471254e+02   2.691040e+02
  -3.639092e+02  -4.264220e+01
  -2.458117e+02  -1.915255e+02
  -1.330390e+02  -2.833841e+02
   6.843606e+01  -1.154659e+02
   2.207479e+02  -4.102055e+01
   5.021277e+01   1.833938e+01
  -7.527189e+01  -4.813160e+01
  -6.740760e+00  -1.605112e+02
   1.258845e+02  -1.231109e+02
   1.699403e+02   9.228834e+00
   1.386372e+01   1.552654e+01
  -6.802054e+01  -4.326438e+00
  -4.291142e+01  -6.490443e+01
   9.861460e+01  -6.836424e+01
   2.281287e+02  -1.283630e+01
   2.921165e+02   1.337145e+02
   8.150019e+01   2.578998e+02
  -1.774741e+02   2.583715e+02
  -3.158206e+02   8.544293e+01
  -1.475923e+02  -3.130696e+01
   4.034775e+00  -9.781882e+01
   7.480954e+01   1.845075e+01
  -5.559983e+01   4.401638e+01
  -1.784208e+02   4.586313e+01
  -2.116705e+02  -1.089015e+02
  -7.239871e+01  -2.076202e+02
   6.449802e+01  -2.118521e+02
   1.295133e+02  -8.847077e+01
   7.009012e+01  -1.064362e+01
   3.009145e+00   1.233420e+01
   2.125031e-01  -8.290752e+01
   8.715891e+01  -7.361202e+01
   2.299894e+02   1.835649e+01
   2.069303e+02   1.052686e+02
   6.644957e+01   1.866541e+02
  -1.869876e+02   1.517490e+02
  -1.618726e+02  -1.762570e+01
  -2.972060e+01  -7.375470e+01
   5.470716e+01  -8.636394e+01
   4.668388e+01  -3.599441e+01
   1.355673e+01   5.310284e+01
  -1.166158e+01   6.989994e+00
   5.423960e+00  -2.490137e+01
   8.042370e+01  -3.594277e+00
   6.049250e+01   9.401601e+01
  -1.580277e+01   1.417362e+02
  -1.095841e+02   8.237867e+01
  -2.491954e+02  -7.840551e+00
  -2.183869e+02  -1.515380e+02
   3.803759e-01  -1.940254e+02
   1.446068e+02  -2.509037e+02
   1.814131e+02  -2.199380e+01
   6.431354e+01   2.658622e+01
   5.492204e+01   4.522260e+01
   4.103295e+01  -1.903855e+01
   9.608813e+01   1.522206e+01
   8.574569e+01   3.130061e+01
  -4.029698e+01   1.132186e+02
  -6.499959e+01   4.667907e+01
  -7.545956e+01  -4.900408e+01
   4.892221e+00  -1.075503e+02
   1.762163e+02  -1.059960e+02
   2.490175e+02   2.504064e+01
   1.099359e+02   1.993822e+02
  -1.468475e+02   2.913123e+02
  -2.957422e+02   1.086993e+02
  -2.805705e+02  -2.769896e+01
  -1.303266e+02  -2.190146e+02
   2.567169e+01  -1.346868e+02
   7.354696e+01  -7.981875e+01
   9.324266e+01  -6.384386e+01
   8.272028e+01  -1.621544e+02
   1.522572e+02  -8.671052e+01
   1.245278e+02   3.154871e+00
   1.820372e+02   1.338521e+02
   8.126418e+01   2.155566e+02
  -1.172350e+02   1.783595e+02
  -1.454359e+02   2.533832e+01
  -1.096880e+02  -9.119490e+01
   8.880864e+00  -1.689891e+02
   5.638262e+01  -7.989419e+01
   3.800872e+01   1.838911e+01
   1.162517e-01   2.333322e+01
   8.478376e+00   1.322119e+00
   1.006847e+01   5.967299e+00
   8.689051e+01  -1.275435e+01
   7.028791e+01   5.932352e+01
  -2.543134e+01   3.542703e+01
  -1.238689e+02  -1.533772e+01
  -1.492917e+02  -3.183703e+01
  -1.522189e+00  -1.190813e+02
   7.748274e+01  -6.320743e+01
   1.616333e+02  -1.954924e+00
   4.261811e+01   2.869780e+01
  -9.233094e+01  -1.240346e+01
  -8.487338e+01  -2.331553e+01
  -7.325897e+01  -2.009716e+01
   6.750336e+01  -6.580805e+01
   1.010857e+02   9.886452e+00
   2.605007e+01   2.264681e+01
   5.743884e+01   3.463662e+01
   5.552737e+01   1.227119e+01
   6.415761e+01   6.872742e+00
   9.892392e+00   5.618719e+01
  -6.664591e+01   2.107781e+02
  -8.768169e+01   1.484117e+02
  -1.821601e+02   5.680121e+01
  -7.461163e+01  -8.014131e+01
  -1.895800e+01  -7.929568e+01
   9.267029e+01  -6.020817e+01
   7.649514e+01   2.677722e+01
  -1.487254e+01   5.648118e+01
  -1.163696e+02   9.932259e+00
  -5.274474e+01  -9.131225e+01
   9.491605e+01  -1.203067e+02
   1.626272e+02  -2.604836e+01
   1.884886e+02   5.342328e+01
   2.070016e+01   7.001803e+01
  -6.564655e+01   6.115905e+01
  -6.311207e+01  -1.039252e+01
   4.944326e+00  -6.729545e+01
   8.542292e+01   5.716199e+01
  -1.420080e+01   6.919925e+01
  -8.866192e+01   2.076378e+02
  -2.170367e+02   7.116126e+01
  -1.029783e+02  -9.875120e+01
  -3.224250e+01  -2.357351e+02
   8.905424e+01  -1.463023e+02
   7.181077e+01   4.625456e+01
   5.002498e+01   1.327076e+02
  -2.440238e+01   6.425834e+01
  -9.001436e+00   4.479733e+01
   6.063372e+00  -2.473951e+01
  -2.827421e+01  -4.266702e+00
   1.066767e+01  -2.077038e+01
  -4.340492e+01  -2.472590e+00
  -7.634735e+01  -1.259012e+02
  -7.465285e+01  -1.558727e+02
   7.197835e+01  -8.412767e+01
   1.692307e+02   2.981891e+01
   1.664150e+02   4.569728e+01
   3.787825e+01   5.200627e+01
  -6.552090e+01   6.186506e+00
  -1.128056e+02  -1.253912e+00
  -3.053555e+00  -5.513021e+00
   3.825351e+01  -2.343444e+01
   3.791901e+01  -1.713446e+01
  -2.215190e+01   3.627978e+00
  -2.393768e+01   1.478179e+01
   5.284982e+01   4.221038e+01
   1.015605e+02  -1.013053e+01
   6.227342e+01   9.680676e+01
  -8.838084e+01   1.266609e+02
  -2.086709e+02   7.406342e+01
  -1.446590e+02  -3.639912e+01
  -1.215754e+01  -1.559393e+02
   1.277191e+02  -1.170052e+02
   1.124753e+02  -6.747652e+01
   9.703082e+01   9.811554e+00
  -2.235121e+01   4.526014e+01
  -1.569987e+01   1.430615e+01
   3.172673e+01  -1.185019e+01
   3.643364e+01   5.523437e+01
   3.630319e+01   9.194461e+01
  -3.423505e+01   8.752577e+01
  -1.016465e+02  -2.908135e+01
  -1.065189e+02  -1.432749e+02
  -2.179553e+01  -8.579780e+01
   7.875719e+01  -1.899355e+01
   1.053195e+02   9.050712e+01
   5.666403e+01   1.564227e+02
  -4.218366e+01   8.513305e+01
  -8.607331e+01  -4.407323e+01
  -2.090873e+01  -7.449174e+01
   2.318258e+01  -7.300841e+01
   4.074756e+01  -3.140288e+01
  -2.587547e+01  -1.821034e+01
  -2.755003e+01   2.605964e+01
  -5.684540e+00  -2.743217e+01
   2.620018e+01  -8.325119e+01
   1.401823e+02  -6.491892e+01
   7.122842e+01  -2.268187e+00
  -5.103405e+01   6.661126e+01
  -3.462067e+01   7.757064e+01
  -3.678062e+01  -8.327159e+00
  -3.151450e+01  -8.931502e+01
   7.483398e+00  -4.404390e+01
   2.010803e+01   2.008376e+01
   2.953334e+01   5.153630e+01
   1.840566e+00   7.996452e+00
  -6.455238e+01  -3.310230e+01
  -1.463081e+01  -1.101115e+00
  -3.605557e+01   4.785582e+00
  -2.957105e+01  -1.166848e+01
  -2.317031e+01   2.123246e+01
   2.465483e+01  -3.750484e+01
  -2.267614e+01  -4.331105e+01
  -9.147771e-01  -1.261903e+01
   6.092474e+01   5.035544e+01
  -9.952871e-01   8.077933e+01
  -2.633474e+01   1.109450e+01
  -5.073073e+01  -3.357872e+01
  -3.347904e+01  -8.431268e+01
   7.010919e+01  -5.595428e+01
   6.955110e+01   4.329415e+00
   2.963646e+01   3.620900e+01
  -2.370393e+01   4.646634e+01
  -9.217362e+01   5.252555e+01
  -3.222056e+01   2.086469e+01
   5.132693e+01   2.036438e+01
   8.011795e+01   2.030558e+01
  -3.996164e+01  -7.879690e-01
  -6.442089e+01  -3.394979e+00
