
 $NMID
 id='ANONYMOUS ', fmtdat='(2E16.6)'
 volume=1.0
 tramp=1.0
 $END
   2.051439e+03   4.785434e+02
   2.157318e+03   7.908882e+02
   8.498644e+01   1.713104e+03
  -7.988461e+02   1.311333e+03
  -5.443778e+02   3.217203e+02
   7.019261e+01  -8.221531e+01
   2.165611e+02   1.703565e+02
   5.407344e+00   4.584590e+02
  -3.340160e+02   5.565235e+02
  -4.403688e+02   2.189693e+02
  -3.037201e+02  -5.498478e+02
  -1.640939e+02  -5.130171e+02
   1.107316e+02  -2.523891e+02
   2.591734e+02   2.893693e+02
  -1.792414e+01   3.972856e+02
  -2.822266e+02   7.787286e+01
  -1.029300e+02  -3.068630e+02
  -3.230171e+01  -4.668192e+02
   4.194950e+02  -2.722593e+02
   3.334495e+02   4.810226e+01
   1.316376e+02   3.302182e+02
  -8.228098e+01   2.346469e+02
  -3.030178e+00  -1.657056e+01
   1.349620e+02   5.514952e+01
   1.780003e+02   2.304152e+02
  -5.679516e+01   2.249916e+02
  -4.022662e+02   1.953937e+02
  -4.441744e+02  -1.170879e+02
  -1.833620e+02  -3.009894e+02
   1.860210e+02  -7.519884e+01
   3.076231e+02   7.869663e+01
   1.733939e+02   2.561797e+02
  -2.583650e+02   3.192846e+02
  -3.824495e+02   8.929064e+01
  -2.862146e+02  -1.049737e+02
  -4.870007e+01  -2.322755e+02
   1.475711e+01  -1.401947e+02
  -6.768392e+01   8.567033e+01
  -2.062017e+02   1.291781e+02
  -1.499843e+02  -9.711677e+01
  -6.844700e+01  -3.079560e+02
   2.228198e+02  -2.929843e+02
   2.598073e+02   2.993391e+01
   1.199967e+02   3.152538e+02
  -8.277098e+01  -5.660723e-01
  -9.830451e+01  -2.191757e+02
   4.190905e+01  -3.142136e+02
   3.201552e+02   4.769958e+01
   3.508706e+02   3.462586e+02
   1.156031e+02   4.325963e+02
  -1.703323e+02   2.686779e+02
  -3.334946e+02   2.771041e+01
  -3.067592e+02  -2.931362e+02
   7.708468e+01  -1.081927e+02
   2.602336e+02  -1.143843e+02
   1.976973e+02   4.210520e+01
   4.526535e+01  -3.400888e+01
  -6.507685e+01  -2.377906e+01
   9.622564e+01  -3.582197e+01
   1.806697e+02  -3.408662e+01
   1.072314e+02   1.553555e+02
  -1.009637e+02   2.847591e+02
  -2.456087e+02   1.381292e+02
  -2.352030e+02  -2.217636e+01
  -4.677135e+00  -2.955219e+02
   2.316157e+02  -2.767686e+02
   3.758417e+02  -1.880812e+02
   1.835908e+02   1.066607e+02
  -2.052743e+00   3.639084e+02
  -2.520887e+01   2.332561e+02
   1.561374e+01   1.132535e+02
  -1.363365e+01   8.614943e+01
  -1.103043e+02   1.166479e+02
  -1.947302e+02   5.789191e+01
  -2.229545e+02  -1.028679e+02
  -9.075183e+01  -1.807634e+02
   1.147353e+02  -1.355134e+02
   1.492934e+02   2.464266e+01
   5.080307e+01   1.233338e+02
  -5.972362e+01   2.152845e+02
  -2.345688e+02   1.200512e+01
  -2.534666e+02  -1.714081e+02
  -1.895715e+02  -2.276942e+02
   2.016723e+01  -2.407532e+02
   1.596947e+02  -1.254206e+02
   1.287068e+02  -9.780501e+01
   1.365990e+02  -8.696629e+01
   2.165014e+02  -5.478193e+01
   3.628245e+02   9.616669e+01
   2.028363e+02   1.820686e+02
  -1.564629e+01   3.545295e+02
  -3.016394e+02   3.323160e+02
  -4.641916e+02   7.471615e+01
  -1.339554e+02  -4.817742e+01
  -2.932954e+01  -1.540890e+02
   1.096134e+02  -1.542119e+02
  -1.228542e+01  -8.696786e+00
  -1.017655e+02   5.158570e+01
  -9.056286e+01   2.157744e+01
  -5.914644e+01  -1.380010e+02
   7.426673e+01  -1.286059e+02
   7.863367e+01   3.200957e+01
  -3.296781e+01   1.178673e+02
  -1.468858e+02  -1.294740e+01
  -1.677651e+02  -1.665416e+02
  -9.611949e+00  -3.011831e+02
   1.770150e+02  -1.304472e+02
   3.063414e+02   3.450246e+01
   2.061365e+02   2.009518e+02
   3.796502e+01   2.684416e+02
  -1.113250e+02   9.447203e+01
  -8.129736e+01   3.460575e+01
   1.455663e+00  -4.558931e+00
   4.358311e+01   9.132850e+01
  -2.209523e+01   8.358960e+01
  -9.643991e+01   5.017264e+01
  -1.109779e+02   1.837871e+01
   1.495778e+01  -1.428757e+01
   5.138814e+01   1.331484e-01
   3.601055e+01   8.333575e+01
  -1.539047e+02   6.868918e+01
  -2.069040e+02   4.604084e+00
  -2.254851e+02  -1.387041e+02
   4.971311e+00  -2.483736e+02
   1.299701e+02  -2.134896e+02
   2.053063e+02  -9.229273e+01
   8.162541e+01   6.908885e+01
  -4.691438e+01   6.523911e+01
  -3.595478e+01  -1.590731e+01
   4.209791e+01  -9.453679e+01
   1.818022e+02  -3.635265e+01
   2.022597e+02   8.251513e+01
   1.681483e+01   1.421092e+02
  -7.955283e+01   1.320509e+02
  -7.730721e+01  -2.406615e+01
  -7.759382e+01  -3.253498e+01
   6.281584e+01  -2.753430e+01
   1.313408e+01   9.561728e+01
  -6.334232e+01   1.252737e+02
  -1.945614e+02  -4.478301e+00
  -1.836155e+02  -7.914175e+01
   9.817794e+00  -1.765406e+02
   1.070541e+02  -9.919067e+01
   1.308272e+02   1.175410e+01
   4.706862e+01   5.053617e+01
  -1.413812e+01   9.323464e+01
  -3.934744e+01   1.301176e+01
  -1.336689e+01   7.874028e+00
   1.594595e+01   1.951501e+01
   8.794013e+00   7.391703e+00
  -8.239322e+01   3.225487e+01
  -1.092705e+02  -7.289814e+01
  -3.551761e+01  -1.540654e+02
   1.128621e+02  -1.660839e+02
   1.984301e+02  -4.337891e+00
   1.809296e+02   1.247850e+02
   7.735965e+01   1.844975e+02
  -6.691600e+01   1.139337e+02
  -9.311735e+01   8.316844e-01
  -6.845094e+01  -1.691214e+00
  -1.794952e+01   2.303409e+00
  -2.986438e+01   3.888145e+01
  -6.482966e+01   1.251464e-01
  -1.031672e+02  -2.025488e+01
   7.239827e+01  -1.331805e+02
   7.358522e+01  -6.985884e+01
   9.670097e+01   4.891219e+01
  -3.253552e+01   1.066137e+02
  -1.293147e+02   1.125824e+02
  -1.678443e+02  -6.949780e+01
  -4.587938e+01  -1.886602e+02
   9.894920e+01  -1.517611e+02
   2.047840e+02  -6.592740e+01
   2.247542e+02   2.877006e+01
   8.882973e+01   1.100462e+02
  -1.660549e+01   8.195500e+01
  -4.885276e+01   4.395025e+01
  -6.896022e+01   3.171606e+01
  -7.581417e+01   8.585480e+01
  -4.525059e+01   4.980556e+01
  -1.449324e+02   1.892730e+00
  -6.787251e+01  -1.633728e+02
  -3.832249e+01  -1.722425e+02
   8.908056e+01  -1.567006e+02
   1.679088e+02  -2.127373e+01
   9.372766e+01   9.581473e+01
   1.960480e+01   1.167400e+02
  -7.252834e+01   1.188509e+02
  -3.299474e+01  -1.261875e+01
   2.100032e+01  -2.811248e+01
   6.461326e+01  -6.477891e+01
  -2.083639e+01   5.336759e+01
  -5.682791e+01  -1.243117e+01
  -4.780694e+01  -4.608374e+01
   4.317992e+01  -6.833680e+01
   1.598514e+02  -7.291664e+01
   9.426080e+01   2.159961e+01
  -3.769351e+01   8.815813e+01
  -8.901422e+01   5.959194e+01
  -1.394634e+02  -1.449613e+01
  -1.460885e+01  -8.484165e+01
   5.370286e+01  -3.801542e+01
   6.704713e+01   4.527530e+01
  -4.106909e+00   5.517278e+01
  -2.680002e+01   9.438748e+01
  -6.873806e+01   2.925389e+01
  -5.629831e+01  -1.832547e+01
  -4.288106e+01  -5.306680e+01
  -5.523787e+01  -3.050931e+01
  -9.268151e+01  -2.294856e+01
  -6.369694e+01  -6.182734e+01
   5.420958e+00  -1.442356e+02
   1.394144e+02  -9.135401e+01
   1.216230e+02  -1.073430e+01
   1.262545e+02   4.106418e+01
   1.848238e+01   1.317456e+02
  -8.443959e+01   8.351732e+01
  -6.581014e+01   2.281146e+01
   4.281971e+01  -1.808287e+01
   1.143640e+02   3.761163e+01
   7.626511e+01   9.641039e+01
  -8.261167e+01   1.048288e+02
  -1.616212e+02   2.339517e+01
  -1.164672e+02  -2.931077e+01
  -5.564744e+01  -3.699684e+01
   4.091556e+01  -6.854237e+01
   4.676113e+01   4.181964e+01
  -4.556420e+01   3.402533e+01
  -5.280802e+01  -3.664103e+00
  -6.082205e+01  -1.196466e+02
   3.677909e+01  -1.163871e+02
   1.348703e+02  -8.020468e+01
   1.164718e+02   3.188066e+01
   4.103715e+01   1.906918e+02
  -1.405947e+01   1.345016e+02
  -1.071982e+02  -2.124612e+01
  -6.177201e+01  -1.298317e+02
   9.568315e+00  -1.051933e+02
   4.682404e+01  -2.801538e+01
   8.395396e+01   5.285020e+01
   2.671805e+01  -1.349743e+01
  -3.795041e-01  -7.186193e+00
   7.493318e+01   1.228777e+01
   4.378439e+01   1.111060e+02
   1.998240e+01   6.226905e+01
  -4.292989e+01   3.253807e+01
  -1.309174e+02  -1.216253e+01
  -9.790728e+01  -8.132518e+01
   1.664989e+01  -5.549313e+00
   1.375173e+02  -7.258357e+00
   6.370493e+01  -2.088995e+00
   1.995065e+01   1.419229e+01
  -5.712083e+01   2.226107e+01
   1.722998e+01   2.266283e+01
  -6.369821e+00  -1.341599e+01
   1.318163e+01   2.465778e+01
  -2.080216e+01   1.823645e+00
  -1.073504e+02  -1.915135e+01
  -4.450451e+01  -6.099374e+01
   1.369868e+02  -1.083780e+02
   1.506329e+02   4.503585e+00
   1.617696e+02   2.530452e+01
   3.699849e+01   1.431108e+02
  -2.896433e+01   1.367084e+02
  -8.060531e+01   4.930152e+01
  -9.353521e+01   2.982239e+01
  -3.710817e+01  -5.831212e+01
   7.611381e+00  -1.172280e+01
  -4.629007e+00  -2.828927e+01
  -1.736629e+01  -4.994891e+01
  -7.380118e+00  -5.245191e+01
   5.252106e+01  -1.087459e+01
   4.202316e+01   1.229326e+01
   6.138144e+01   1.024177e+02
   2.152771e+01   9.233466e+01
  -3.044045e+01   7.716245e+01
  -8.992669e+01  -7.490049e+01
  -3.646890e+01  -7.455867e+01
   2.633099e+01  -6.093967e+01
   8.426852e+01   3.369763e+01
   5.338864e+01   8.465868e+01
  -3.153142e+01   5.314567e+01
  -9.018591e+00  -2.346409e+00
   4.923621e+00   7.255201e+00
   6.818112e+01  -2.996956e+01
  -1.781012e+01  -2.975887e+01
  -9.646820e+01   7.282119e+01
  -7.943568e+01   7.938483e+01
  -6.590345e+01  -3.368192e+01
   2.112754e+01  -7.442819e+01
   3.168400e+01  -8.112778e+01
   5.150311e+01  -8.473215e+00
   3.566486e+01   5.074155e+01
  -4.259670e+01   6.630122e+01
  -7.874880e+00  -8.272952e+00
  -2.480734e+01  -9.293413e+01
   2.154510e+01  -3.826423e+01
  -2.852627e+01  -1.618681e+01
   3.157432e+01   4.022082e+01
   6.732802e+01  -2.672440e+01
  -2.975267e+01  -4.475132e+01
   5.311108e-02   2.725118e+00
   8.607469e+00   2.252177e+01
  -8.474867e+00   3.823799e+01
  -1.746181e+01   1.013676e+01
  -3.197472e+01  -4.622410e+01
   3.168343e+00  -9.676041e+00
   9.562819e+00  -1.787136e+00
   6.454023e+01   4.717987e+01
   2.598302e+01   2.860552e+01
  -2.268930e+01   2.081331e+01
  -8.891134e+01  -1.342279e+01
  -1.776489e+01  -3.838045e+01
  -1.122075e+01  -3.251156e+01
   6.463494e+01  -3.146149e+01
   1.312602e+01  -2.759572e+01
  -3.137752e+01   1.051699e+00
   3.399292e+01   4.085835e+01
   6.982315e+01  -2.288735e+01
   3.481162e+01  -1.713581e+01
