
 $NMID
 id='ANONYMOUS ', fmtdat='(2E16.6)'
 volume=1.0
 tramp=1.0
 $END
  -3.045840e+03  -4.010218e+02
  -2.380360e+03  -1.639003e+03
   4.060643e+02  -1.899897e+03
   1.270066e+03  -1.128368e+03
   6.928245e+02   1.654507e+02
  -3.310851e+02   2.038753e+02
  -3.988415e+02  -3.696020e+02
  -6.414456e+01  -6.855940e+02
   4.674129e+02  -7.407455e+02
   6.994212e+02  -1.423493e+02
   3.273167e+02   6.378409e+02
   8.378349e+01   7.317310e+02
  -4.286419e+02   1.880735e+02
  -3.302671e+02  -4.661964e+02
   1.228993e+02  -4.619735e+02
   3.995902e+02  -5.687175e+01
   2.238556e+02   4.734554e+02
  -9.120744e+01   6.024685e+02
  -4.402559e+02   2.363606e+02
  -4.047730e+02  -2.433158e+02
  -1.136373e+02  -4.022384e+02
   1.489833e+02  -2.766604e+02
   1.095307e+02  -5.881494e+01
  -1.789988e+02  -4.773819e+01
  -2.900920e+02  -2.056421e+02
  -1.792405e+01  -3.285083e+02
   4.304541e+02  -2.518689e+02
   6.070692e+02   4.570776e+01
   3.027978e+02   3.502903e+02
  -2.683005e+02   1.774013e+02
  -5.250877e+02  -9.408012e+01
  -2.386760e+02  -4.039559e+02
   3.117524e+02  -4.140522e+02
   4.501063e+02  -1.710269e+02
   2.781021e+02   1.427263e+02
   8.190443e+01   3.680817e+02
  -8.517094e+01   1.559313e+02
   5.332612e+01  -1.432860e+02
   2.550799e+02  -2.897378e+02
   2.542017e+02   9.656046e+01
   1.853365e+02   4.931244e+02
  -2.460171e+02   5.059230e+02
  -3.567349e+02   3.907904e+00
  -9.450700e+01  -3.929719e+02
   1.696613e+02  -1.743830e+02
   1.995502e+02   3.456766e+02
  -6.228483e+01   4.969614e+02
  -4.300332e+02   5.811812e+01
  -5.513779e+02  -3.729012e+02
  -2.062180e+02  -4.866577e+02
   2.393683e+02  -3.164370e+02
   4.300042e+02   1.543351e+01
   2.473209e+02   2.536342e+02
  -8.438341e+01   2.446546e+02
  -3.479530e+02   1.156932e+02
  -2.798630e+02  -9.122877e+01
  -7.691913e+00  -7.430141e+01
   5.953136e+01   9.159631e+01
  -8.889659e+01   1.057613e+02
  -1.657553e+02  -7.736560e+01
  -1.116682e+02  -1.978652e+02
   1.779218e+02  -2.484555e+02
   2.846132e+02  -1.640616e+02
   2.568103e+02   1.029637e+02
   2.129608e+00   1.995684e+02
  -2.752093e+02   3.058451e+02
  -3.436783e+02   2.126457e+02
  -1.998944e+02  -1.521204e+02
  -4.604448e+00  -3.930335e+02
   4.566657e+01  -3.299297e+02
   2.452983e+01  -1.789635e+02
   6.159928e+01  -4.882709e+01
   9.860265e+01  -1.050993e+02
   2.111327e+02  -9.846879e+01
   2.280031e+02   5.621863e+01
   1.227588e+02   1.845627e+02
  -8.196702e+01   1.895992e+02
  -1.868983e+02  -4.598022e+01
  -1.396718e+02  -1.995125e+02
   6.051998e+01  -2.486938e+02
   2.050584e+02  -7.915631e+01
   3.345153e+02   1.584253e+02
   1.705395e+02   3.000118e+02
  -6.316924e+01   2.367067e+02
  -2.288337e+02   1.578280e+02
  -1.245595e+02   6.042714e+01
  -1.076189e+02   1.077007e+01
  -2.042769e+02   4.156831e+01
  -3.588970e+02  -2.671377e+01
  -2.999009e+02  -2.464530e+02
  -4.350330e+01  -4.286533e+02
   3.293250e+02  -3.601891e+02
   5.014296e+02  -1.923346e+02
   2.743370e+02   8.647186e+01
   3.513521e+01   2.449790e+02
  -1.217388e+02   2.554687e+02
  -4.479398e+00   1.020016e+02
   8.781211e+01  -8.360572e+01
   1.499406e+02  -3.644506e-01
   5.295101e+01   1.746107e+02
  -1.657965e+02   1.131886e+02
  -1.143311e+02  -6.387205e+01
   2.947453e+01  -1.604403e+02
   1.616779e+02  -3.665419e+01
   1.669100e+02   2.475474e+02
  -6.190346e+00   3.767977e+02
  -1.913016e+02   1.470389e+02
  -3.127834e+02  -6.439110e+01
  -2.373436e+02  -2.727582e+02
  -7.952741e+01  -2.714788e+02
   8.718151e+01  -1.117674e+02
   1.079167e+02  -1.038944e+01
   8.320265e+01   4.085893e+00
  -4.994553e+01  -4.441362e+01
   9.858283e+00  -9.173769e+01
   7.952872e+01  -6.788400e+01
   1.265317e+02   5.263240e+01
   5.430045e+01   3.659276e+01
  -5.802048e+01  -5.573917e+00
  -3.777250e+01  -1.120476e+02
   1.155922e+02  -6.636432e+01
   3.058572e+02   3.900492e+00
   2.366284e+02   1.044540e+02
   4.685938e+01   2.437335e+02
  -2.422649e+02   2.210723e+02
  -2.651856e+02   1.289788e+02
  -1.431502e+02  -4.021636e+01
   4.727389e+01  -1.211867e+02
   7.788683e+01  -1.028178e+01
  -4.137393e+01   7.301043e+01
  -2.174970e+02   4.771063e+01
  -2.326334e+02  -1.363485e+02
  -2.888164e+01  -1.691763e+02
   5.998304e+01  -1.676661e+02
   1.293715e+02   2.580474e+01
   5.630105e+01   3.053152e+01
   1.092707e+01   7.441722e+00
  -7.680940e+01  -9.512026e+01
   1.084703e+02  -1.195672e+02
   2.178164e+02   2.990401e+00
   2.003620e+02   1.181663e+02
   3.688382e+00   2.108147e+02
  -1.766233e+02   1.695638e+02
  -1.470306e+02  -1.910945e+01
  -4.951145e+01  -9.092230e+01
   4.375504e+01  -7.692129e+01
   7.413168e+01  -2.037398e+01
   5.830657e+00   2.452968e+01
  -1.858335e+01  -1.007445e+01
  -8.608991e+00  -2.188968e+01
   8.223679e+01  -4.191131e-01
   1.164115e+02   4.175174e+01
   3.296031e+01   1.643586e+02
  -7.978032e+01   1.563607e+02
  -2.298120e+02   4.989284e+01
  -1.821404e+02  -1.780933e+02
  -1.046648e+02  -2.088687e+02
   9.749886e+01  -1.615375e+02
   1.306579e+02  -3.753355e+01
   1.412801e+01   5.916346e+01
   1.468198e+01   1.791128e+01
   4.194120e+01  -3.459457e+01
   6.129179e+01  -2.863801e+01
   6.754845e+01   2.594943e+01
  -4.361732e+01   1.118297e+02
  -9.076642e+01   4.589853e+01
  -1.150885e+02  -7.373789e+01
  -2.496459e+01  -1.329504e+02
   1.519449e+02  -5.334081e+01
   1.703820e+02   2.909407e+01
   8.621324e+01   2.059112e+02
  -7.308158e+01   1.957715e+02
  -2.476093e+02   4.806767e+01
  -2.398703e+02  -4.201767e+01
  -1.201743e+02  -1.368279e+02
   4.432229e+01  -1.267143e+02
   8.832758e+01  -1.133660e+02
   6.243159e+01  -5.508461e+01
   6.799574e+01  -8.163317e+01
   5.589290e+01  -7.270432e+01
   1.229252e+02   4.746186e+00
   9.597163e+01   1.547978e+02
   3.406596e+01   2.136891e+02
  -1.144519e+02   1.533480e+02
  -1.957660e+02   2.255232e+01
  -1.227890e+02  -1.343025e+02
  -2.288445e+01  -1.664150e+02
   7.229574e+01  -1.264431e+02
   9.611026e-01   3.736755e+01
   1.525003e-01   4.119569e+01
  -3.714897e+01   1.439082e+01
   4.681606e+01   8.879483e+00
   7.068172e+01   2.181913e+01
   2.328402e+01  -2.405619e+01
  -7.467844e+01   7.486573e+01
  -1.743516e+02   2.502475e+01
  -1.088348e+02  -4.182400e+01
  -5.688976e+01  -1.064321e+02
   1.450705e+02  -2.193913e+01
   1.634816e+02  -5.854847e+00
   5.160773e+01   8.472119e+01
  -4.427826e+01   2.054859e+01
  -6.598230e+01  -3.144379e+01
   2.531050e+00  -7.126221e+01
   4.104507e+01  -6.119655e+01
   7.756052e+01  -6.020580e+00
   3.596806e+01   4.609469e+01
   5.952222e+01   1.576991e+01
   7.700173e+01   3.274804e+01
   4.834299e+01  -1.034939e+01
   2.657352e+01   7.309161e+01
  -2.388820e+01   1.506729e+02
  -8.979692e+01   1.210158e+02
  -1.496270e+02   7.168433e+01
  -1.247465e+02  -1.263111e+02
  -2.421192e+01  -1.442424e+02
   6.431908e+01  -8.719369e+01
   6.074669e+01  -1.871818e+01
  -3.712050e+01   2.492233e+01
  -1.368970e+02  -2.508670e+01
  -9.039767e+01  -1.271574e+02
   7.306645e+01  -8.291743e+01
   1.406779e+02  -5.589952e+01
   1.478425e+02   4.475977e+01
   5.942558e+01   6.549240e+01
  -7.826142e+01   4.424725e+01
  -6.603295e+01   2.747832e+01
   2.109328e+01   1.029021e+01
   7.051500e+01   5.410658e+01
   4.594792e+01   1.040422e+02
  -4.358735e+01   1.481135e+02
  -1.751174e+02   6.412188e+01
  -1.325177e+02  -5.933719e+01
  -5.636607e+01  -2.189233e+02
   2.995663e+01  -9.887412e+01
   8.452617e+01   1.926956e+01
   2.786442e+01   1.739655e+02
  -3.363531e+01   8.607208e+01
  -5.596923e+01   3.458239e+00
  -4.518108e+01  -3.898422e+01
  -1.957396e+01   4.230160e+01
  -9.887452e+00  -7.829997e-01
  -4.431497e+01  -1.015869e+01
  -7.388620e+01  -8.646625e+01
  -4.104831e+01  -7.627838e+01
   1.708106e+01  -4.316938e+01
   9.281652e+01   3.880745e+01
   8.605969e+01   9.065174e+01
  -1.890861e+00   3.078711e+01
  -9.578251e+01   1.572833e+01
  -7.831874e+01   1.038118e+01
  -1.962900e+01  -1.047158e+01
   5.480574e+01  -2.395876e+01
   1.628494e+00  -2.587451e+01
   8.025269e+00  -3.272753e+01
  -7.105457e+00   3.139268e+01
   8.422301e+01  -1.822074e+01
   7.595433e+01   1.753419e+01
   3.624431e+01   6.062814e+01
  -1.434838e+02   1.372159e+02
  -1.867984e+02   4.643651e+01
  -1.739655e+02  -1.115329e+01
  -3.372667e+01  -9.658384e+01
   2.261233e+01  -1.353105e+02
   8.732659e+01  -4.816956e+01
   7.800590e+01   1.501448e+01
   8.756058e+00   1.167458e+01
  -2.814365e-01   2.565751e+01
   3.896528e+01  -9.405304e+00
   2.458338e+01   6.166877e+01
  -9.284449e+00   6.670673e+01
  -2.905306e+01   6.961176e+01
  -9.584484e+01  -7.157600e+00
  -1.113589e+02  -1.113555e+02
   1.333186e+01  -1.085469e+02
   4.301407e+01  -3.608860e+01
   8.306206e+01   3.864523e+01
   6.723182e+00   1.046923e+02
  -1.662101e+01   5.502533e+01
  -6.753222e+01  -2.597464e+01
  -2.016449e+01  -4.928318e+01
  -5.528240e+00  -5.897701e+01
   4.797035e+01  -4.346186e+01
  -3.333902e+01   1.554126e+00
  -8.163398e+01   5.438100e+00
  -5.590502e+00  -1.005617e+01
   7.055886e+01  -6.850010e+01
   1.010977e+02  -6.826542e+01
   7.488827e+01   4.391698e+01
   1.109778e+01   1.179229e+02
  -6.040971e+01   8.867997e+01
   1.814343e+00   3.924148e+00
  -2.627716e+01  -5.514152e+01
   2.540474e+01  -4.613342e+01
   3.836175e+01   1.113636e+01
  -1.596477e+01   3.063598e+01
  -1.990892e+01   6.461765e+01
   2.029439e+01  -8.040244e+00
  -6.830930e+01  -2.030469e+01
  -4.153383e+01   1.533104e+01
  -1.640626e+01   2.123258e+01
   4.994371e+01  -8.168957e+00
  -3.862622e+01   5.012465e+00
   9.475222e+00  -5.080104e+01
   1.808383e+01  -2.569884e+01
   2.577547e+01   1.913668e+01
  -2.047960e+01   7.112500e+00
  -4.991953e+01   1.489872e+01
  -7.602180e+01  -3.858134e+01
  -6.252357e+01  -1.274889e+01
   4.719931e+01  -4.691614e+01
   1.029359e+02  -7.455510e+00
   3.510165e+01   3.667163e+01
  -3.571579e+01   2.112030e+01
  -7.437539e+01   4.892503e-01
  -5.065371e+01  -9.234191e+00
   3.547394e+01  -1.038948e+01
   7.029177e+01  -2.729518e+00
  -3.595046e+01   7.463807e+01
  -6.618166e+01  -2.069161e+01
