
 $NMID
 id='ANONYMOUS ', fmtdat='(2E16.6)'
 volume=1.0
 tramp=1.0
 $END
   2.321000e+03   5.660729e+02
   1.792286e+03   1.423165e+03
  -4.783908e+02   1.100141e+03
  -1.120510e+03   8.416396e+02
  -7.252201e+02  -2.152735e+02
   2.225434e+02  -1.644784e+02
   3.974810e+02   4.048133e+02
  -2.036380e+01   4.578759e+02
  -3.923211e+02   4.472239e+02
  -4.361876e+02   4.866688e+01
  -1.976388e+02  -5.336298e+02
  -3.169091e+01  -5.635177e+02
   3.149965e+02  -2.014204e+01
   2.264337e+02   4.253911e+02
  -1.416301e+02   3.789473e+02
  -3.042459e+02   4.074771e+01
  -1.982241e+02  -3.901208e+02
   1.256301e+02  -4.099601e+02
   3.793502e+02  -8.378767e+01
   2.070306e+02   1.325485e+02
   8.149676e+01   3.102721e+02
  -1.022963e+02   2.244348e+02
  -1.004317e+02   5.471681e+01
   1.478996e+02  -5.197383e+01
   1.712471e+02   1.224665e+02
   4.548462e+01   2.609059e+02
  -2.389944e+02   2.030815e+02
  -4.875395e+02   1.083937e+01
  -3.055917e+02  -3.157869e+02
   1.893001e+02  -2.324119e+02
   4.634000e+02   8.166933e+01
   6.417175e+01   2.540203e+02
  -2.841653e+02   2.764077e+02
  -3.357025e+02   5.018970e+01
  -1.887932e+02  -1.018791e+02
  -1.135264e+02  -2.508280e+02
   6.609061e+01  -1.166889e+02
   4.116078e+01   5.394745e+01
  -1.019033e+02   2.334646e+02
  -2.358220e+02  -9.960623e+01
  -6.212863e+01  -5.666151e+02
   1.511382e+02  -3.962372e+02
   3.065129e+02   8.495327e+01
   6.679365e+01   3.999149e+02
  -1.502441e+02   1.384384e+02
  -2.528085e+02  -3.070885e+02
   7.471153e+01  -3.692249e+02
   3.212013e+02  -1.116480e+02
   4.054147e+02   3.975814e+02
   1.130399e+02   2.761039e+02
  -1.484440e+02   2.185231e+02
  -2.503179e+02  -7.379343e+00
  -2.465923e+02  -2.092639e+02
   3.424565e+01  -1.387438e+02
   2.691520e+02  -2.308141e+01
   1.770698e+02   6.113082e+01
  -4.559818e+01   6.059470e+01
  -7.050429e+01  -5.235697e+01
   9.214363e+01  -8.880719e+01
   1.388716e+02   7.816125e+01
   2.902652e+01   1.924830e+02
  -1.693917e+02   1.329820e+02
  -2.245804e+02   3.425843e+01
  -1.789167e+02  -1.306353e+02
   1.296859e-01  -2.669093e+02
   1.961757e+02  -1.808487e+02
   1.922788e+02  -1.247740e+02
   1.635560e+02   9.421283e+01
   8.224664e+00   3.095021e+02
  -6.523716e+01   2.251979e+02
  -4.347091e+01   8.761677e+01
  -2.171287e+01   6.003440e+01
  -8.034439e+01   8.271510e+01
  -1.922775e+02   6.876599e+01
  -1.641093e+02  -1.553909e+01
  -4.041472e+01  -1.763146e+02
   7.520036e+01  -1.758981e+02
   1.346010e+02  -2.677212e+01
   1.289674e+02   1.413882e+02
  -7.106453e+01   1.843142e+02
  -1.692546e+02   3.181475e+01
  -1.828623e+02  -1.650832e+02
  -1.449854e+02  -2.277401e+02
   4.793814e+01  -2.501355e+02
   1.789643e+02  -7.676431e+01
   1.084509e+02  -4.499372e+01
   1.034081e+02  -5.819219e+01
   1.509511e+02  -2.692562e+01
   2.662225e+02   7.198151e+01
   2.415575e+02   1.916296e+02
   4.211268e+01   3.017530e+02
  -2.609590e+02   3.179972e+02
  -4.168428e+02   8.092983e+01
  -2.152335e+02  -9.041715e+01
   9.764375e+00  -2.005205e+02
   7.194976e+01  -1.779418e+02
   1.075659e+00  -3.528244e+01
  -1.110430e+02   3.096211e+01
  -1.294366e+02  -1.066518e+01
  -4.406928e+01  -9.547147e+01
   1.109490e+02  -7.182500e+01
   6.714608e+01   2.879627e+01
  -8.255614e+01   9.160384e+01
  -1.011674e+02   2.694522e+01
  -1.075653e+02  -1.182228e+02
   6.888293e+01  -2.585708e+02
   2.059570e+02  -1.143760e+02
   2.242638e+02   8.905470e+01
   1.074313e+02   1.586279e+02
   2.510189e+01   1.801899e+02
  -5.816984e+01   8.393143e+01
  -1.489929e+02   7.671885e+00
  -5.537846e+01  -5.992479e+00
   5.497931e+01   8.895966e+01
   5.426202e+01   1.075616e+02
  -1.070334e+02   3.882497e+01
  -9.983848e+01  -3.530769e+01
  -3.773079e+01  -1.038512e+02
   2.687010e+01   3.674850e+01
   5.828691e+01   4.658239e+01
  -1.068475e+02   2.491609e+01
  -2.406271e+02   4.229900e+00
  -2.252821e+02  -5.947492e+01
  -1.899316e+00  -1.414008e+02
   2.095510e+02  -2.165212e+02
   2.338212e+02  -4.647349e+01
   1.268221e+02   7.244240e+01
  -1.315053e+01   6.692089e+01
  -3.509053e+01  -1.192587e+01
  -4.933869e+00  -7.115306e+01
   1.503626e+02  -3.882878e+01
   1.460378e+02   6.486838e+01
   4.337717e+01   1.496913e+02
  -7.028375e+01   9.310485e+01
  -1.082950e+02   1.929628e+00
  -2.944915e+01  -4.037722e+00
   1.217672e+01  -6.190788e+00
  -4.556447e+00   7.744144e+01
  -8.894209e+01   5.925042e+01
  -1.428835e+02   2.304495e+01
  -1.274535e+02  -7.696380e+01
   1.708314e+01  -1.435139e+02
   9.562118e+01  -1.147312e+02
   1.310609e+02   8.077928e+00
   4.314549e+01   8.023289e+01
  -2.863843e+01   1.190411e+00
  -3.407803e+01   1.491428e+01
  -4.442109e+01  -2.090248e+01
   4.111834e+01  -4.701062e+01
  -1.963378e+01   3.622160e+00
  -3.118542e+01  -2.321376e+01
  -1.111124e+02  -5.727575e+01
  -2.456041e+01  -7.517555e+01
   8.048754e+01  -6.521068e+01
   1.151716e+02   7.566088e+00
   1.005151e+02   1.441805e+02
   7.076749e+01   1.647071e+02
  -7.419145e+01   9.740037e+01
  -1.049774e+02   2.748024e+01
  -2.843795e+01  -1.772248e+01
  -3.628599e+01   2.653248e+00
  -4.212442e+00   3.181220e+01
  -5.635194e+01   6.135241e+00
  -3.762830e+01  -2.323669e+01
   8.412559e+01  -9.817012e+01
   7.329294e+01  -4.326280e+01
   6.832794e+01   2.645510e+01
  -1.227424e+01   8.130856e+01
  -7.470403e+01   3.275818e+01
  -1.498879e+02  -5.163115e+01
  -4.107688e+01  -1.498336e+02
   4.461940e+01  -1.426309e+02
   1.385966e+02  -6.841892e+01
   1.834844e+02   7.474746e+01
   4.753193e+01   6.555043e+01
  -3.374968e+01   8.342702e+01
  -2.518472e+01   3.520065e+01
  -3.377155e+01   1.522807e+01
  -6.204765e+01   7.839591e+01
  -6.564608e+01   6.172224e+00
  -7.336512e+01  -3.095676e+01
  -7.561634e+01  -7.179929e+01
  -2.741772e+01  -1.725952e+02
   9.728262e+01  -1.602127e+02
   1.483328e+02   3.818754e+01
   9.990669e+01   5.260654e+01
  -1.494742e+00   7.061582e+01
  -1.723704e+00   5.203618e+01
  -5.313104e+01  -1.111345e+01
   1.352346e+00  -7.100634e+01
   1.953477e+01  -6.058148e+01
  -3.815737e+01  -6.905326e+00
  -6.941667e+01  -1.244910e+01
  -4.506448e+01  -2.236243e+01
   2.477760e+01  -6.104754e+01
   1.367462e+02   3.510706e+00
   9.134678e+01   8.256493e+00
  -3.511284e+01   5.599248e+01
  -1.083890e+02   6.345310e+01
  -9.184998e+01  -1.944557e+01
  -2.094681e+01  -3.379437e+01
   2.195468e+01  -2.415573e+01
   6.196185e+01  -7.493956e+00
   4.141660e+01   2.313839e+01
  -6.732596e+01   3.670939e+01
  -6.368764e+01  -2.394113e+01
  -4.551281e+01  -5.393835e+01
  -4.108909e+01  -3.523567e+01
  -5.307763e+01  -1.220859e+01
  -5.870448e+01   2.744069e+01
  -3.426474e+01  -3.461270e+01
   5.299796e+01  -9.488833e+01
   2.712793e+01  -1.346186e+02
   1.342319e+02  -7.858644e+00
   7.759889e+01   3.452063e+01
   3.605670e+01   9.515099e+01
  -5.204463e+01   2.014570e+01
  -5.376922e+01  -1.512821e+01
   2.615201e+00  -2.322432e+01
   1.087708e+02   7.353595e+00
   7.727033e+01   4.501012e+01
  -1.019587e+02   2.692189e+01
  -1.276435e+02   4.451163e+01
  -8.759920e+01  -8.491993e+01
  -4.581442e+01  -3.068856e+01
   4.472070e+01  -6.378295e+01
   3.650355e+01   4.370188e+01
  -1.558879e+01   3.094424e+01
  -5.228427e+01  -7.334790e+01
   3.705528e+00  -7.190697e+01
   3.042019e+01  -4.049080e+01
   1.570332e+02  -3.752751e+01
   8.648146e+01   1.120212e+02
   2.838049e+01   1.479105e+02
  -6.763631e+01   9.052097e+01
  -6.874695e+01  -2.772672e+01
  -1.739453e+01  -8.704117e+01
   3.152336e+01  -3.812290e+01
   4.901099e+01  -2.377133e+01
   1.273387e+01   3.689155e+00
   8.354987e+00   1.460811e+01
   4.772712e+01  -1.338613e+01
  -3.573625e+01  -2.461534e+01
   3.670542e+01   7.696403e+01
   2.327548e+01   7.223165e+01
  -5.030389e+01   2.487374e+01
  -1.014955e+02  -4.092855e+01
  -6.386129e+01  -3.572569e+01
  -4.058665e+01  -7.861113e+01
   9.400306e+01  -1.706565e+01
   3.918730e+01   8.855847e+00
   4.135802e+00  -6.833873e+00
  -3.939858e+01  -1.303022e+01
  -1.052110e+01  -3.743906e+01
  -3.118515e+00   5.443154e-01
  -3.091155e+01  -1.973647e+01
  -2.588755e+01   1.723622e+00
  -3.030126e+01   2.862628e+00
  -2.473587e+01  -5.880996e+01
   9.271496e+01  -1.210496e+02
   1.118488e+02  -2.544052e+01
   1.412023e+02   2.121305e+01
   1.921932e+00   1.249261e+02
  -5.963718e-01   8.079065e+01
  -9.999044e+01   3.093462e+01
  -5.011407e+00   1.418065e+01
  -3.149252e+01  -4.294360e+01
  -1.761807e+01  -9.212248e+00
  -5.131778e+01   6.091270e+00
  -7.027671e+01  -3.097686e+01
  -1.876559e+01  -5.179670e+01
   3.212105e+01  -3.592871e+01
   6.038502e+01  -1.577641e+01
   9.929132e+01   8.657207e+01
  -1.230083e+01   1.020300e+02
  -6.193162e+01   8.065480e+00
  -5.603834e+01  -3.359372e+01
   1.162444e+01  -1.096267e+02
   5.349783e+01  -6.856441e+01
   5.823934e+01   1.051163e+01
   3.708721e+01   1.608747e+01
  -3.308956e+01   3.647990e+01
  -4.828456e+01  -1.558244e+00
   2.090544e+01  -3.897968e+00
   3.636763e+01  -3.823624e+01
   3.108271e+01   4.841346e+01
  -6.407162e+01   3.934040e+01
  -7.125271e+01   3.611949e+01
  -7.444558e+01  -1.839793e+01
   5.539127e+01  -3.750302e+01
   4.582326e+01  -6.867672e+01
   3.802339e+01  -1.134198e+01
  -1.808280e+01   3.443539e+01
  -2.565133e+01   3.073226e+01
  -3.645859e+01  -2.486621e+01
  -1.891245e+01  -4.943595e+01
  -1.190577e+01  -1.396433e+01
   3.826363e+01  -2.152740e+01
   6.878123e+01   2.331575e+00
   2.599875e+01   1.666320e+01
  -1.634836e+01  -1.469050e+01
  -2.312521e+01   1.047454e+01
  -4.593559e+01   3.294048e+01
  -2.564492e+00   2.326086e+01
  -6.108979e+00   2.996106e+01
  -2.544607e+01  -2.757806e+01
  -4.397449e+01  -3.628431e+01
   7.135886e+01  -2.170189e+01
   4.173408e+01  -1.137155e+01
   1.341024e+01   2.349298e+01
  -3.851820e+01   2.319142e+01
  -2.287680e+01  -1.192713e+01
  -3.428519e+01   2.407566e+00
   2.485249e+01  -9.941175e+00
   7.971525e+01  -2.221382e+01
   1.658115e+01  -5.965984e+00
   8.074430e+00   1.661136e+01
  -6.892751e+01   8.745553e+00
   4.975340e+01  -5.333797e+01
   4.776602e+01  -2.254493e+01
