
 $NMID
 id='ANONYMOUS ', fmtdat='(2E16.6)'
 volume=1.0
 tramp=1.0
 $END
   1.301612e+03   1.271443e+02
   6.593182e+02   7.129122e+02
  -1.185307e+02   3.940029e+02
  -6.273940e+02   2.818110e+02
  -3.704770e+02  -2.551734e+02
   3.367747e+02  -1.355602e+02
   3.951063e+02   2.472493e+02
   7.672311e+01   4.912508e+02
  -3.080126e+02   3.223473e+02
  -2.084905e+02  -3.169722e+01
  -8.402150e+01  -3.510872e+02
   2.739452e+01  -4.649493e+02
   2.969086e+02  -8.761090e+01
   1.041177e+02   3.838399e+02
  -1.019300e+02   2.228556e+02
  -2.342009e+02  -4.069790e+01
  -1.475858e+02  -2.976617e+02
   1.347619e+02  -2.833313e+02
   1.919798e+02  -8.943829e+00
   1.008272e+02   1.044595e+02
   1.459403e+01   2.168817e+02
  -1.236577e+02   9.438279e+01
  -9.509504e+01   2.268376e+00
   7.139454e+01  -6.489800e+01
   1.247179e+02  -2.491649e+01
   3.257026e+01   2.288292e+02
  -1.262822e+02   8.780966e+01
  -2.736131e+02  -2.157899e+01
  -9.644165e+01  -1.627939e+02
   1.699478e+02  -1.453442e+02
   1.946808e+02   3.150409e+01
   7.306580e+01   1.444577e+02
  -9.586492e+01   2.663985e+02
  -1.570921e+02   7.980457e+01
  -1.098531e+02  -2.513016e+01
   3.429104e+01  -1.890454e+02
   9.112446e+01  -1.644575e+02
   9.840141e+01   5.268087e+01
  -8.165012e+01   1.082468e+02
  -5.783729e+01  -2.869938e+01
  -1.961612e+02  -3.907398e+02
   1.074949e+02  -2.677212e+02
   2.009904e+02  -4.605320e+00
   1.319218e+02   1.908899e+02
  -5.446049e+01   1.730252e+02
  -1.967268e+02  -9.308740e+01
   1.191981e+02  -2.399234e+02
   1.463154e+02  -8.352718e+01
   2.552373e+02   1.662375e+02
   4.823656e+01   2.587049e+02
  -1.460750e+02   7.078297e+01
  -1.795647e+02  -5.495303e+01
  -1.837659e+02  -2.046176e+02
   2.579261e+01  -1.112272e+02
   1.807827e+02   2.514359e+01
   1.411256e+02   8.851458e+01
  -3.225566e+01   2.411062e+01
  -2.079943e+01  -5.653483e+01
   9.350694e+01  -3.908460e+01
   1.163810e+02   1.279916e+01
   7.271352e+01   1.131982e+02
  -6.131586e+01   5.090119e+01
  -9.088752e+01   5.687639e+01
  -1.047361e+02  -6.483438e+01
  -1.015052e+01  -4.861990e+01
   4.482385e+01  -7.550718e+01
   8.990875e+01  -1.163443e+02
   1.514289e+02   6.531545e+01
   4.213083e+01   1.985335e+02
  -9.065811e+01   1.405463e+02
  -9.736129e+01   2.454470e+01
  -2.625441e+01  -1.692795e+01
  -2.341483e+01   4.863928e+01
  -1.055488e+02  -2.369597e+01
  -1.210720e+02  -7.578144e+01
  -8.897178e+00  -9.040119e+01
   3.073765e+01  -8.764415e+01
   9.320407e+01  -3.350933e+01
   4.939755e+01   1.490078e+02
   3.135274e+01   1.097465e+02
  -9.610417e+01   3.918363e+01
  -1.050302e+02  -1.547026e+01
  -1.403643e+02  -1.421622e+02
   1.964322e+01  -1.695207e+02
   9.719688e+01   1.337979e+01
   8.905455e+01  -5.544542e+00
   4.955786e+01  -1.845892e+01
   7.634952e+01  -6.026491e+01
   1.676579e+02   2.152701e+01
   6.010190e+01   1.186393e+02
  -2.064051e+01   1.455973e+02
  -1.710254e+02   1.805433e+02
  -1.437534e+02   7.673266e+01
  -1.337764e+02  -4.448710e+01
  -2.577680e+01  -1.658254e+02
   8.432343e+01  -9.786942e+01
   6.337004e+01  -6.815342e+01
  -4.438932e+01   5.740488e+01
  -7.691121e+01  -5.837012e+00
  -1.321348e+01  -9.592052e+01
   4.743883e+01  -4.760667e+01
   4.082878e+01  -9.745670e+00
   8.141124e+00   7.672855e+01
  -9.817659e+01   4.234749e+01
  -9.232970e+01  -5.351296e+01
   1.870076e+01  -1.527779e+02
   5.737512e+01  -3.480211e+01
   9.693635e+01   2.930292e+01
   3.980214e+01   4.933696e+01
   3.461616e+01   8.936983e+01
  -4.347586e+01   7.926073e+01
  -6.205280e+01   3.602316e+01
  -5.680487e+01  -4.256838e+01
   2.494275e+01  -4.994968e+00
   5.757277e+00   3.531732e+01
  -3.668113e+01   1.384653e+01
  -6.914943e+01   3.482322e+01
  -7.218219e+00  -3.738145e+01
   6.137240e+01  -2.015957e+01
   7.658835e+00   7.927550e+00
  -5.326163e+01   1.199302e+01
  -6.396445e+01   9.600708e+00
  -7.055395e+01  -5.130142e+01
  -1.501197e+01  -8.837381e+01
   5.974007e+01  -1.225764e+02
   9.501657e+01   2.106332e+01
   5.791232e+01   3.083615e+01
  -1.657554e+01   1.835912e+01
  -1.171354e+01   1.466966e+01
  -1.809448e+00  -7.065352e+01
   8.197871e+01  -9.598050e+00
   4.334589e+01   6.262797e+01
  -4.956055e+00   9.087307e+01
  -2.726710e+01   3.764875e+01
  -5.705873e+01   2.723096e+01
   7.346767e+00   1.305187e+00
   3.217514e+01   6.023384e+00
   6.452229e+00   3.312091e+01
  -3.810073e+01   3.236184e+01
  -8.925058e+01   4.403644e+01
  -6.780792e+01  -1.613626e+01
   2.977984e+00  -8.994409e+01
   7.491341e+01  -2.341848e+01
   9.486181e+01  -3.364499e+00
   1.994125e+01   3.053017e+01
  -2.858419e+01   1.159603e+00
  -1.304971e+01   2.101993e+01
   1.440753e+01  -2.855778e+01
   9.374648e+00  -5.285530e+01
   4.748683e+01  -1.779413e+01
  -1.853716e+01  -1.867872e+01
  -4.102078e+01  -2.488338e+00
  -2.968759e+01  -6.343758e+01
   4.443376e+01  -2.949939e+01
   5.025049e+01   8.155492e+00
   6.691512e+01   7.136990e+01
   4.931988e+00   4.064691e+01
  -5.783745e+01   6.576612e+01
  -8.619966e+01   2.613731e+01
  -3.274716e+01  -4.876949e+01
  -4.299585e+00  -2.492327e+01
   6.007020e+00  -2.770964e+01
  -1.064818e+01  -1.286457e+01
   1.308783e+01  -2.533997e+01
   1.739970e+01  -4.307760e+01
   2.116379e+01  -5.797702e+01
   2.356510e+01   1.595885e+01
   2.786519e+01   2.776268e+01
  -6.370709e+01   3.001566e+01
  -1.809946e+01  -3.700920e+01
  -4.866804e+01  -1.137033e+02
   4.741176e+01  -2.005223e+01
   7.030198e+01  -6.525974e+01
   8.768123e+01   5.867019e+01
   4.689482e+01   6.343411e+01
  -1.725016e+01   5.649418e+01
  -4.938032e+01  -1.583154e+01
  -6.026705e+01   3.130309e+01
  -7.807108e+01   1.916973e+01
  -4.009437e+01  -3.853778e+00
  -4.250532e+01  -1.618928e+01
  -7.614986e+01  -1.605867e+01
  -2.258808e+01  -4.675770e+01
   5.021158e+01  -7.433179e+01
   8.520497e+01   3.912385e+01
   9.082644e+00   3.250313e+01
  -1.707032e+00   5.098118e+01
   1.932209e+00   3.811576e+01
  -3.720740e+01  -1.690905e+01
  -3.426767e+01  -8.659918e+00
  -4.221533e+01  -2.816689e+00
  -3.205035e+01  -1.742841e+01
  -1.889464e+01  -6.146512e+00
  -1.139750e+01  -1.814406e+01
   2.093507e+01   2.592081e+01
   1.108298e+00  -1.063382e-01
   4.523293e+01  -2.883138e+00
  -4.001748e-01   2.360686e+01
  -2.950685e+01   4.731118e+01
  -6.368049e+01  -8.197977e+00
  -3.017112e+01  -1.936441e+01
   3.345036e+01  -3.739556e+01
   1.534745e+01   4.129252e+01
  -1.968953e+01   6.155839e+01
  -2.564117e+01   2.708752e+01
  -3.813151e+01   1.103938e+01
   1.892328e+01  -4.017810e+01
  -1.019757e+01   1.759424e+01
  -1.806671e+00  -2.185515e+01
  -3.143892e+01  -2.969353e+01
   5.672481e+00  -3.132587e+01
   1.909285e+01  -7.292557e+01
   2.075293e+01  -3.698979e+01
   9.138568e+01  -2.995033e+01
   2.117670e+01   5.378242e+01
   4.049442e+00   3.035071e+01
  -4.308069e+01   3.889927e+01
  -2.493099e+01  -4.561091e+00
   2.064294e+01  -1.770087e+00
   6.985916e+01  -2.589135e+01
   3.960130e+01   5.055548e+01
  -2.009698e+01   1.880331e+01
  -1.053593e+02   3.777990e+01
  -5.898385e+01  -2.032589e+01
  -7.078290e+00  -1.308906e+01
   6.379436e+00  -2.106130e+01
   1.309979e+01  -1.268401e+01
  -1.342047e+01  -2.984877e+01
  -1.230834e+01  -1.566782e+01
  -1.068223e+01  -7.904794e+01
   4.035519e+01  -4.186012e+01
   3.233960e+01  -5.147836e+01
   5.444246e+01  -1.665726e+01
   1.495379e+01   8.983191e+01
  -1.858104e+01   2.648368e+01
  -3.101909e+01  -1.526481e+01
  -2.428505e+01  -5.944648e+01
   1.206782e+01  -1.861950e+01
   9.404125e+00   2.044670e+01
   3.122058e+01  -6.249577e+00
  -8.640594e+00   1.439453e+01
   3.914751e+01   3.066290e+00
   1.373441e+01  -3.157738e+00
  -3.281591e-01   2.353880e+01
   1.624238e+01   4.535658e+01
  -2.790978e+01   2.933424e+00
  -2.306908e+01  -2.903908e+01
  -1.635099e+01  -6.524205e+00
   9.351573e+00   3.848515e+00
   4.561950e+01  -3.515059e+01
   8.897274e+00  -2.090739e+01
  -3.639861e+00  -4.271341e+00
  -2.801583e+01   2.341412e+01
  -5.438919e+01   1.531196e+01
   3.398866e+01   9.638583e+00
  -1.481531e+01   2.804635e+00
  -1.128196e+01  -2.037273e+01
  -5.092110e+01  -2.799264e+00
  -1.981043e+01  -5.187878e+01
   2.039476e+01  -2.509146e+01
   9.830242e+01  -4.900297e+01
   5.059746e+01   2.730891e+01
  -1.730947e+01   3.235148e+01
  -6.790056e+01   5.361401e+01
  -3.715454e+01   2.444161e+01
  -3.159959e+01   5.624301e+00
  -2.477002e+01  -4.150463e+01
   3.064758e+01  -3.874311e+01
  -3.799751e+01  -2.064720e+01
  -4.357538e+01  -2.266216e+01
  -1.261567e-01  -4.469846e+01
   5.478482e+01  -5.796688e+01
   9.004347e+00   3.489098e+01
   1.508605e+01   9.858440e+01
  -9.352987e+00   1.585996e+01
  -2.449310e+01  -1.482262e+01
  -2.444197e+01  -4.069186e+01
  -6.257760e-01  -4.947276e+01
   2.743811e+01  -9.546375e+00
   2.803273e+01   3.549459e+01
   4.298033e+01   2.151830e+01
   2.743469e+00   1.581755e+01
  -2.265088e+01   2.326129e+01
   4.058238e+01  -3.528050e+00
   1.606162e+01   5.326660e+00
   6.730811e+00   1.187687e+01
  -3.004426e+01   1.360847e+01
  -1.304796e+01  -2.647044e+01
  -4.594962e+01  -1.622687e+01
  -2.845618e+01  -4.100655e+01
   1.337160e+01  -4.459211e+00
  -2.967729e+01   4.916421e+01
  -1.492006e+01   1.526241e+00
   2.638254e+01   7.346653e+01
   1.715336e+01   2.920863e-01
   9.771498e+00   4.350859e+00
  -4.473627e+01  -3.065046e+01
   4.141642e+01   8.926260e+00
  -1.449318e+01   1.963487e+01
   2.027844e+01   1.136759e+01
   1.733321e+01  -4.114724e+01
  -3.068831e+01  -3.572336e+01
  -1.890278e+00  -5.768487e+00
  -1.062064e+01   2.865275e+01
   2.278555e+00  -2.350915e+01
   1.695607e+01  -1.810755e+01
   1.623232e+01  -3.546900e+01
   1.504615e+01   4.683693e+01
   2.403890e+01   1.665550e+01
   2.998208e+01   3.622775e+01
  -2.685181e+01  -2.894234e+00
  -3.619131e+00  -2.505984e+01
   2.028374e+01  -6.031107e+00
   1.477100e+01  -5.640055e+01
   5.233935e+01   7.142454e+00
   3.194651e+00  -1.780182e+00
   1.308026e+01   2.417394e+01
  -6.687778e+00  -4.470807e+01
   1.594696e+01  -1.590857e+01
   4.310257e+01  -1.206073e+01
