
 $NMID
 id='ANONYMOUS ', fmtdat='(2E16.6)'
 volume=1.0
 tramp=1.0
 $END
  -4.570613e+03   3.984134e+02
  -2.815469e+03  -2.796772e+03
   6.331197e+02  -3.057123e+03
   2.306863e+03  -6.627274e+02
   9.352402e+02   1.075156e+03
  -9.547732e+02   5.854851e+02
  -1.064653e+03  -4.949508e+02
   4.177754e+01  -1.208213e+03
   1.010483e+03  -7.365054e+02
   1.091981e+03   2.011255e+02
   5.616621e+02   8.655217e+02
  -4.681375e+02   1.029807e+03
  -8.392770e+02   1.943937e+02
  -2.962863e+02  -8.613565e+02
   2.519331e+02  -7.947321e+02
   6.504292e+02   1.211248e+02
   2.132407e+02   6.574178e+02
  -3.627977e+02   6.740536e+02
  -6.303935e+02   1.227051e+00
  -3.923970e+02  -3.874344e+02
   4.268993e+01  -4.396896e+02
   2.962530e+02  -2.531168e+02
   2.533316e+02   5.389969e+00
  -1.315799e+02   1.550321e+02
  -4.306959e+02  -8.079380e+01
  -2.414887e+02  -3.965314e+02
   5.330637e+02  -4.265615e+02
   8.824714e+02  -2.031231e+01
   4.477332e+02   5.163788e+02
  -3.480961e+02   4.849960e+02
  -7.556938e+02  -4.530106e+01
  -4.658482e+02  -4.993019e+02
   3.312832e+02  -6.174605e+02
   5.820205e+02  -2.302476e+02
   3.979195e+02   2.534898e+02
   7.973353e+01   6.088424e+02
  -2.096006e+02   2.867051e+02
  -2.749787e+02  -1.998643e+02
   2.467804e+02  -5.234295e+02
   5.170283e+02   3.777849e+01
   2.598085e+02   7.582280e+02
  -3.470429e+02   7.100303e+02
  -6.865815e+02   1.159307e+02
  -2.692603e+02  -6.466711e+02
   3.703276e+02  -3.184480e+02
   4.608669e+02   3.070096e+02
  -9.426620e+00   5.327059e+02
  -6.006100e+02   1.355588e+02
  -6.391296e+02  -4.677102e+02
  -1.515967e+02  -6.821559e+02
   4.302680e+02  -3.424035e+02
   6.740012e+02   1.138871e+02
   3.557871e+02   4.450708e+02
  -1.468618e+02   4.263202e+02
  -5.293849e+02   4.672631e+01
  -2.877075e+02  -2.492250e+02
   7.373840e+01  -1.121533e+02
   1.581681e+02   1.856358e+02
  -1.991431e+02   2.326105e+02
  -3.859329e+02  -4.403292e+01
  -1.860635e+02  -2.926575e+02
   1.896536e+02  -2.424610e+02
   2.725245e+02  -1.423924e+01
   2.035507e+02   8.359861e+01
   1.608051e+01   1.826335e+02
  -2.910071e+02   2.821390e+02
  -3.696518e+02   2.362935e+02
  -3.058792e+02  -1.849427e+02
  -3.348598e+01  -4.697267e+02
   1.646624e+02  -3.964566e+02
   1.427755e+02  -8.507349e+01
   1.683907e+01   6.209171e+00
  -1.337749e+01  -7.863675e+01
   2.206334e+02  -1.832894e+02
   3.060740e+02   8.418086e+00
   1.957879e+02   2.433022e+02
   4.051157e+00   2.484100e+02
  -2.379870e+02  -4.467137e+01
  -2.230097e+02  -2.171152e+02
   3.140800e+01  -2.987327e+02
   2.265262e+02  -9.487540e+01
   4.035587e+02   1.828744e+02
   2.476776e+02   4.002676e+02
  -1.471508e+02   3.664903e+02
  -2.591725e+02   1.408270e+02
  -1.674151e+02  -1.715687e+01
  -6.881868e+01   1.753402e+01
  -2.077937e+02   9.531407e+01
  -3.608894e+02  -8.709785e+01
  -3.529093e+02  -2.359643e+02
   4.700427e+01  -4.300567e+02
   4.366761e+02  -4.811876e+02
   5.096395e+02  -2.027286e+02
   3.558683e+02   9.865368e+01
   7.341047e+01   2.838236e+02
  -1.575297e+02   2.288451e+02
  -7.737489e+01   5.543622e+01
   1.160540e+02  -1.246053e+02
   2.560260e+02   3.063972e+01
   8.669015e+01   2.264076e+02
  -1.487951e+02   2.525298e+02
  -1.358224e+02  -8.206212e+01
   1.824857e+01  -2.476249e+02
   2.206836e+02  -8.068554e+00
   1.396055e+02   3.212055e+02
  -9.136020e+01   3.691109e+02
  -1.729384e+02   2.019359e+02
  -3.799234e+02  -6.469545e+01
  -3.092669e+02  -2.212761e+02
  -1.394596e+02  -3.084412e+02
   9.410952e+01  -1.324164e+02
   2.026746e+02  -6.129487e+01
   8.875895e+01   1.814906e+01
  -5.781316e+01  -4.288419e+01
  -6.849378e+01  -1.531807e+02
   1.421228e+02  -1.058360e+02
   2.052783e+02   1.217230e+00
   6.508207e+01   1.027272e+02
  -9.070651e+01   5.914508e+01
  -7.618166e+01  -7.432831e+01
   8.601780e+01  -4.780661e+01
   2.496014e+02  -3.576894e+01
   2.872274e+02   1.293625e+02
   7.065441e+01   2.506411e+02
  -1.712096e+02   2.761912e+02
  -3.358246e+02   1.524140e+02
  -1.672917e+02  -2.119725e+01
  -1.861199e+01  -1.329765e+02
   1.207874e+02  -2.456368e+01
  -1.473229e+01   9.270238e+01
  -1.941566e+02   9.536222e+01
  -2.116366e+02  -7.696292e+01
  -7.756956e+01  -1.711023e+02
   1.044535e+02  -1.347148e+02
   1.822900e+02  -6.204396e+01
   7.131664e+01   6.589839e+01
  -3.190658e+01   4.390995e+01
  -6.032842e+01  -9.207030e+01
   9.462985e+01  -8.229533e+01
   1.838705e+02   2.061027e+00
   1.823030e+02   1.263722e+02
   2.346447e+01   2.110390e+02
  -1.394264e+02   1.122119e+02
  -1.948160e+02   9.049305e+00
  -5.992954e+01  -1.179061e+02
   4.290656e+01  -1.015753e+02
   8.635730e+01  -4.941552e+01
   5.731345e+01   4.531379e+01
  -6.036804e+01   4.057281e+01
   1.674497e+01   4.032760e+00
   8.871978e+01   1.687217e+01
   9.720145e+01   9.282068e+01
  -2.077486e+01   1.546291e+02
  -9.689218e+01   1.502214e+02
  -2.380086e+02   4.436486e+01
  -2.137861e+02  -1.621566e+02
  -7.263935e+01  -2.684196e+02
   1.297570e+02  -1.446780e+02
   1.297322e+02  -2.105873e+01
   6.807594e+01   2.541941e+01
   4.610347e+01   3.731877e-01
   2.127457e+01  -3.821842e+01
   5.550712e+01  -1.157333e+01
   3.585196e+01   6.735132e+01
  -2.875063e+01   8.521507e+01
  -7.522518e+01   4.407279e+01
  -6.096660e+01  -5.935847e+01
   3.177419e+01  -6.278586e+01
   1.167969e+02  -8.230291e+01
   1.951773e+02   4.605759e+01
   1.216927e+02   2.139675e+02
  -1.170057e+02   1.882931e+02
  -2.947808e+02   1.418142e+02
  -2.380807e+02  -9.233049e+01
  -1.183907e+02  -2.021833e+02
   8.779544e+01  -1.581108e+02
   5.383613e+01  -1.170622e+02
   7.025387e+01  -8.114504e+01
   8.579881e+01  -6.552389e+01
   9.022676e+01  -1.033146e+02
   1.309975e+02   2.849361e+01
   1.118255e+02   1.117151e+02
   6.633648e+01   2.647390e+02
  -7.714211e+01   1.692445e+02
  -2.215276e+02   1.447015e+01
  -1.316135e+02  -4.043632e+01
  -2.366400e+01  -1.617378e+02
   9.124409e+01  -5.707173e+01
   7.478188e+01  -2.835081e+01
  -2.573754e+01   4.994588e+01
  -1.316784e+01   6.328115e+01
   2.647210e+01   2.304811e+01
   9.153565e+01   4.956921e+01
   3.232965e+01   4.897220e+01
  -8.361322e+00   7.285927e+00
  -1.354251e+02   3.324073e+00
  -1.131917e+02  -5.533345e+01
  -3.482085e+01  -5.427754e+01
   8.886331e+01  -6.825830e+01
   1.332485e+02  -4.914477e+01
   4.161560e+01   5.062775e+01
  -6.443421e+01   1.993604e+01
  -9.764381e+01  -2.968813e+01
  -2.173597e+01  -4.391038e+01
   7.925749e+01  -8.891117e+00
   3.488795e+01  -2.101598e+01
  -2.626576e+01   1.111077e+02
   7.255372e+01   5.336554e+01
   8.952547e+01  -1.013814e+01
   6.013054e+01  -1.255886e+01
   1.756771e+01   9.173649e+01
  -6.380777e+01   1.431537e+02
  -1.365458e+02   1.627906e+02
  -1.209596e+02   2.498328e+01
  -1.759229e+02  -8.404986e+01
   1.714969e+01  -1.376643e+02
   1.068924e+02  -1.130475e+02
   9.675820e+01   6.400704e+01
  -9.689994e+01   2.454138e+01
  -1.514434e+02  -1.002594e+02
  -1.120040e+02  -1.043881e+02
   9.111902e+01  -1.030987e+02
   1.320022e+02  -6.455217e+01
   2.117178e+02   3.761630e+01
   2.027980e+01   7.760869e+01
  -3.559643e+01   7.030232e+01
  -6.767372e+01  -2.954189e+01
   3.840497e+01  -2.618422e+01
   1.070938e+02  -1.743190e+01
   7.428177e+00   1.787946e+02
  -1.447542e+02   1.612400e+02
  -1.590727e+02   5.330539e+01
  -1.120738e+02  -1.117586e+02
   4.694909e+01  -2.067131e+02
   5.967282e+01  -1.505006e+02
   1.158115e+02  -1.541771e+01
   7.546297e+01   9.052556e+01
   4.255576e+00   1.307280e+02
  -2.176755e+01   2.531501e+01
  -3.522939e+01  -6.070772e+00
  -1.812781e+01  -2.722186e+01
  -1.384689e+01   2.565855e+01
   3.280809e+01  -5.319685e+01
  -3.478493e+01  -1.294462e+02
  -3.693712e+01  -1.018554e+02
   2.089558e+01  -5.188112e+01
   9.576302e+01   4.009994e+01
   1.699435e+02   7.764568e+01
   3.551287e+01   4.768721e+01
  -6.085988e+01  -2.727191e+00
  -1.170471e+02  -2.196388e+01
  -8.386444e+00   2.840573e+01
   3.435282e+01  -2.272207e+01
   3.773953e+01  -2.569349e+01
  -4.487936e+01  -5.599771e+00
   1.297479e+01   3.040027e+01
   6.944992e+01  -2.034881e+01
   7.271819e+01   3.403213e+01
   3.111068e+01   5.504621e+01
  -8.846034e+01   8.017353e+01
  -1.663787e+02   5.545639e+01
  -1.499529e+02  -4.192943e+01
  -8.298002e+00  -1.782203e+02
   4.653498e+01  -1.105849e+02
   7.792419e+01  -8.921108e+01
   1.125308e+02   3.547679e+01
   4.119564e+01   1.465377e+01
   3.419990e+00   2.088418e+01
   2.132631e+01   2.103978e+01
   6.358021e+01   2.789790e+01
   2.505036e+01   8.319730e+01
   3.831884e+00   8.547576e+01
  -9.121999e+01  -2.178524e+01
  -4.139708e+01  -1.233828e+02
   1.987378e+01  -8.964393e+01
   9.090319e+01  -3.805493e+01
   1.215161e+02   9.844813e+01
   2.744224e+01   1.000563e+02
  -8.153093e+01   2.579290e+01
  -1.335691e+02   9.271732e+00
  -1.741709e+01  -5.189040e+01
   9.270865e+00   8.930222e-01
   2.188490e+01  -2.186068e+01
  -4.379518e+01   3.002469e+01
  -9.236531e+01   3.703495e+01
  -5.159809e+01  -6.082195e+00
   1.573301e+02  -4.138255e+01
   8.503203e+01  -1.205721e+02
   5.398986e+01  -1.461152e+01
  -1.147089e+01   4.712130e+01
  -4.813972e+01   8.229598e+01
  -2.909880e+01   2.274388e+01
   1.470846e+01  -6.219535e+01
  -1.106527e+00  -4.070416e+01
   5.553175e+01   2.965967e+01
   5.157015e+01   8.149031e+01
  -4.225494e+01   1.851449e+01
  -5.669402e+01  -1.595047e+01
  -3.799647e+01  -1.445041e+01
  -5.708091e+00   1.095252e+01
   4.620361e+01   1.213952e+01
   1.139157e+01  -3.403790e+01
  -5.751746e+00  -4.291575e+01
   4.959030e+01  -2.931358e+01
   4.593921e+01  -2.122945e+01
   3.063867e+01   5.629733e+01
  -2.683694e+01   1.606112e+01
  -5.879142e+01   3.549036e+01
  -6.904019e+01  -3.705314e+01
   4.851916e+00  -5.960913e+01
   7.150373e+01   3.218872e+00
   9.135513e+01   3.934052e+00
   3.936811e+01   1.880460e+01
  -2.446356e+01   1.015183e+01
  -7.686162e+01   1.846116e+01
  -6.258852e+00   1.817745e+01
   2.200561e+01   2.458197e+01
   1.663953e+01   2.618395e+01
   4.530317e+00   4.409198e+01
  -7.544418e+01   3.921940e+01
