
 $NMID
 id='ANONYMOUS ', fmtdat='(2E16.6)'
 volume=1.0
 tramp=1.0
 $END
   4.544249e+03  -9.797724e+02
   2.998952e+03   2.955675e+03
  -5.650512e+02   3.093016e+03
  -2.128121e+03   8.799639e+02
  -9.715619e+02  -7.751662e+02
   8.519846e+02  -8.090751e+02
   9.882347e+02   5.435837e+02
  -1.915026e+01   1.300935e+03
  -7.945105e+02   8.524053e+02
  -1.148388e+03  -1.656542e+02
  -5.476406e+02  -9.840195e+02
   3.324319e+02  -9.736226e+02
   7.779656e+02  -1.350522e+02
   3.626188e+02   9.214735e+02
  -1.616191e+02   8.434924e+02
  -6.515576e+02  -2.356905e+01
  -3.212310e+02  -6.919695e+02
   3.326668e+02  -6.825302e+02
   6.608947e+02  -6.708866e+01
   4.448675e+02   3.540852e+02
  -1.367387e+01   4.992297e+02
  -2.699784e+02   2.966435e+02
  -2.487081e+02   5.813645e+01
   7.390539e+01  -1.289129e+02
   4.041783e+02   8.234325e+01
   2.465469e+02   4.679991e+02
  -4.861240e+02   5.553818e+02
  -8.705563e+02   3.228808e+01
  -5.482044e+02  -4.902860e+02
   3.082085e+02  -4.684457e+02
   7.756398e+02  -3.611068e+01
   4.162197e+02   4.726207e+02
  -2.908509e+02   5.731600e+02
  -5.074874e+02   3.401972e+02
  -4.105041e+02  -2.703258e+02
  -9.874580e+01  -5.628466e+02
   1.483214e+02  -3.918755e+02
   3.004940e+02   1.634071e+02
  -1.749574e+02   4.843934e+02
  -4.731479e+02  -8.701583e+00
  -2.921237e+02  -6.511995e+02
   2.749957e+02  -7.643310e+02
   7.154661e+02  -1.034314e+02
   2.822922e+02   6.068587e+02
  -3.058582e+02   4.090157e+02
  -4.874941e+02  -3.133615e+02
  -2.678403e+01  -5.520877e+02
   5.733001e+02  -2.336623e+02
   7.170236e+02   3.673877e+02
   1.810648e+02   6.566097e+02
  -3.997196e+02   4.096463e+02
  -6.174570e+02  -1.367941e+02
  -3.951938e+02  -4.711947e+02
   1.901112e+02  -4.272816e+02
   5.357294e+02  -5.107449e+01
   1.960872e+02   1.790351e+02
  -1.439005e+02   1.714008e+02
  -1.583554e+02  -1.281298e+02
   2.516083e+02  -2.007415e+02
   3.942629e+02   9.018769e+00
   1.652879e+02   3.003804e+02
  -2.152149e+02   2.954849e+02
  -2.726265e+02   1.048964e+02
  -2.465182e+02  -4.704056e+01
   6.818680e+00  -2.233868e+02
   2.153400e+02  -3.098321e+02
   3.808947e+02  -2.803433e+02
   3.019955e+02   1.630392e+02
   7.252879e+01   4.795104e+02
  -1.058413e+02   4.040826e+02
  -1.340021e+02   1.475188e+02
  -4.906058e+01  -3.944224e+01
  -3.042024e+01   6.483002e+01
  -1.543484e+02   1.274217e+02
  -2.691998e+02  -6.961710e+01
  -2.248303e+02  -2.323556e+02
   4.637738e+01  -3.357038e+02
   2.272405e+02   8.941005e+00
   2.441248e+02   1.708305e+02
  -1.421018e+01   2.937176e+02
  -2.597154e+02   1.346170e+02
  -3.141994e+02  -2.059480e+02
  -2.042638e+02  -4.259835e+02
   1.222010e+02  -3.086749e+02
   2.452710e+02  -1.634569e+02
   1.615634e+02  -4.727740e+00
   8.785215e+01  -5.339754e+01
   1.922599e+02  -8.976899e+01
   3.557513e+02   5.832063e+01
   3.332626e+02   2.816995e+02
   1.112228e+00   4.482643e+02
  -3.859097e+02   4.518090e+02
  -5.116554e+02   1.773044e+02
  -3.317917e+02  -5.750712e+01
  -6.989625e+01  -2.808347e+02
   1.474425e+02  -2.675467e+02
   1.161812e+02  -8.226708e+01
  -1.287802e+02   1.360698e+02
  -2.113953e+02   3.649153e+01
  -8.780055e+01  -2.329714e+02
   1.602072e+02  -2.177724e+02
   1.608514e+02   2.475674e+01
   3.206305e+00   1.808666e+02
  -2.311675e+02   4.761308e+01
  -1.324402e+02  -2.861670e+02
   1.134911e+02  -3.584313e+02
   1.759374e+02  -1.858086e+02
   3.262829e+02   1.137012e+02
   2.751560e+02   2.409165e+02
   1.366375e+02   3.088944e+02
  -1.038509e+02   1.964823e+02
  -1.846685e+02   5.343705e+01
  -7.278446e+01  -3.891724e+01
   9.565091e+01   3.469734e+01
  -7.233009e+00   1.147295e+02
  -1.172781e+02   7.564587e+01
  -1.933737e+02  -1.680486e+01
  -2.874948e+01  -9.975224e+01
   6.536473e+01  -7.299261e-03
   6.902698e+01   1.605728e+01
  -9.709203e+01   4.970078e+01
  -2.480472e+02   1.404885e-01
  -2.789482e+02  -1.346395e+02
  -7.683196e+01  -2.995684e+02
   2.275556e+02  -2.429443e+02
   3.334022e+02  -1.410121e+02
   1.685308e+02  -3.287269e+01
  -1.527193e+01   1.415202e+02
  -9.556384e+01   3.716353e+01
   4.457057e+01  -1.029675e+02
   2.292506e+02  -1.018936e+02
   2.444534e+02   7.947807e+01
   4.006527e+01   1.736547e+02
  -5.989681e+01   2.036442e+02
  -2.128948e+02   9.911840e+01
  -7.935051e+01  -3.002520e+01
   6.022903e+01  -1.379054e+01
  -5.757707e+00   7.148403e+01
  -9.124418e+01   1.250564e+02
  -1.773929e+02   1.662728e+01
  -1.966292e+02  -1.377208e+02
  -2.883974e+01  -2.091628e+02
   1.367077e+02  -1.458483e+02
   1.969633e+02  -3.568015e+01
   9.538376e+01   1.590925e+02
   9.975846e+00   7.887940e+01
  -8.213633e+01   5.102532e+01
  -5.154814e+01   9.199430e+00
   2.084569e+01  -2.631885e+01
  -4.101000e+01  -6.464115e+00
  -9.851924e+01  -6.899725e+00
  -5.342691e+01  -9.243098e+01
   1.787718e+01  -1.895619e+02
   1.196400e+02  -1.323101e+02
   2.873829e+02  -5.466002e+01
   1.946305e+02   1.279387e+02
   3.814869e+01   2.622615e+02
  -8.410828e+01   1.879834e+02
  -1.262731e+02   1.190158e+01
  -5.607334e+01  -8.659855e+01
  -1.715138e+01  -4.721378e+01
  -2.338411e+01  -4.902994e+00
  -8.272544e+01  -1.927759e+00
  -6.122510e+01  -7.181315e+01
   1.028348e+01  -6.646029e+01
   1.034103e+02  -3.827594e+01
   8.844523e+01   4.797947e+01
  -2.716993e+01   8.130509e+01
  -1.265289e+02   9.118620e+01
  -2.520917e+02  -2.621891e+01
  -9.449071e+01  -2.468516e+02
   1.978298e+01  -2.280783e+02
   3.052699e+02  -1.190593e+02
   2.703851e+02   1.353845e+02
   1.016711e+02   1.988125e+02
  -1.931120e+01   1.513451e+02
  -6.366324e+01   6.625420e+01
  -9.999250e+01   6.742087e+01
  -8.595918e+01   1.218861e+02
  -7.805091e+01   1.138409e+02
  -1.372303e+02  -3.978934e+01
  -1.174477e+02  -1.793327e+02
  -8.607543e+00  -2.585829e+02
   1.185701e+02  -1.778518e+02
   2.711874e+02  -1.374186e+01
   1.486678e+02   7.916414e+01
   3.865360e+01   1.527616e+02
  -2.685498e+01   1.388622e+02
  -7.175329e+01   1.509099e+01
  -4.584103e+00  -5.620695e+01
   6.646212e+00  -4.154609e+01
  -2.897423e+01  -2.241609e+01
  -5.489189e+01  -3.378386e+01
  -6.298900e+01  -6.515472e+01
   3.331823e+01   6.428016e+00
   1.119664e+02  -7.761518e+00
   1.126443e+02  -3.442787e+00
  -2.850300e+01   1.092692e+02
  -8.569863e+01   1.217360e+02
  -1.856475e+02  -9.383505e+00
  -5.744935e+01  -3.254966e+01
   5.360532e+01  -5.060419e+01
   8.270160e+01   3.600280e+01
  -1.422084e+01   4.242771e+01
  -5.967416e+01   3.081925e+01
  -6.024863e+01   3.476865e+01
  -4.299007e+01  -8.875373e+01
  -8.045416e+01  -5.755476e+01
  -6.043997e+01  -5.498193e+00
  -8.592849e+01   1.278777e+01
  -2.075805e+01  -6.341216e+01
   2.304663e+01  -1.843910e+02
   1.136087e+02  -1.362436e+02
   1.561883e+02  -3.378905e+01
   1.135027e+02   8.206681e+01
   1.864920e+01   1.131589e+02
  -8.911172e+01   4.785791e+01
  -6.610582e+01  -3.053001e+01
   5.972630e+01  -2.828572e+01
   1.107433e+02   4.217108e+01
   8.657349e+01   1.137110e+02
  -8.435827e+01   8.634394e+01
  -1.738851e+02   6.070412e+01
  -2.005875e+02  -2.695506e+01
  -8.464862e+01  -8.680598e+01
   3.467948e+01  -9.503365e+01
   2.322133e+01  -2.874783e+01
  -6.127578e+01   3.554895e+01
  -1.056163e+02  -3.200625e+01
  -2.471755e+01  -1.380251e+02
   1.194795e+02  -1.550100e+02
   1.474763e+02  -5.753094e+01
   1.546932e+02   7.505650e+01
  -1.903845e+01   2.322837e+02
  -6.706730e+01   1.450961e+02
  -1.198406e+02  -2.173381e+01
  -9.169702e+01  -1.056259e+02
  -7.810586e+00  -1.468528e+02
   7.019794e+01  -8.548880e+00
   3.619667e+01   7.842694e+00
   1.364203e+01  -1.099310e+01
   1.223516e+00  -1.747431e+01
  -3.308378e+01  -8.981384e+00
   8.578342e+01   1.206392e+02
   5.528851e+01   1.154002e+02
  -4.944461e+01   2.871126e+01
  -1.090024e+02  -5.507148e+01
  -1.882207e+02  -6.278011e+01
  -8.296240e+00  -6.572953e+01
   7.075041e+01  -4.442280e+01
   8.340849e+01  -2.204518e+01
  -1.336056e+01  -1.403921e+01
  -6.475234e+01   3.067038e+01
  -2.993732e+01   2.765470e+01
   3.657745e+00   9.715745e-01
  -1.077479e+01   1.990880e+01
  -7.929177e+01  -1.488201e+01
  -9.550893e+01  -4.156791e+01
   1.351603e+01  -1.079264e+02
   1.693144e+02  -1.295515e+02
   1.649297e+02  -5.390595e+01
   1.625590e+02   9.017545e+01
   6.247090e+00   1.764255e+02
  -5.449091e+01   1.553534e+02
  -1.266988e+02   6.913366e+01
  -8.347977e+01   1.052488e+01
  -1.492211e+01  -3.708222e+01
  -4.330760e+01   3.099937e+01
  -3.733310e+00  -2.239454e+01
  -4.156233e+01  -4.567082e+01
  -9.783967e+00  -4.077507e+01
  -9.236187e+00  -8.608479e+01
   8.604368e+01   2.623177e+01
   3.889855e+01   9.023064e+01
  -9.190056e+00   1.064547e+02
  -9.855827e+01   3.187070e+01
  -9.599214e+01  -7.895429e+01
   2.800783e+00  -1.082135e+02
   4.836515e+01  -6.076873e+01
   1.338275e+02  -1.064195e+01
   8.376811e+01   5.646425e+01
  -1.709641e+01   3.135815e+01
  -5.380726e+01   6.295538e+01
   6.840157e+00   1.023287e+01
   8.378665e+01   2.937421e+00
   3.172872e+01   4.037187e+01
  -1.450574e+02   9.960961e+01
  -1.172519e+02   1.161690e+02
  -5.529309e+01   2.763172e+01
   4.147707e+01  -7.255074e+01
   3.355946e+01  -4.798306e+01
   8.360029e+01  -7.546728e+00
  -1.856923e+01   8.491844e+01
  -6.067364e+01   5.536136e+01
  -2.563481e+01  -1.085375e+01
  -6.817117e+01  -1.143710e+02
   1.262058e+01  -2.942163e+01
   8.559636e+01   7.383529e+00
  -2.803421e+00   3.483384e+01
   2.742440e+01   1.491227e+01
  -8.377193e+00  -6.104046e+00
  -9.684417e+00   2.148407e+01
   4.451416e+01   7.690606e+00
  -4.407550e+01   5.565875e+01
  -6.370291e+01   1.705027e+01
  -3.136284e+01  -2.145071e+01
  -1.758704e+01  -3.074110e+01
   3.406549e+01  -2.916286e+01
   4.503395e+01   7.160244e+01
   6.048993e+01   7.114859e+01
  -5.224517e+01   3.609303e+01
  -6.518110e+01  -2.795200e+01
  -5.537352e+01  -3.193282e+01
  -2.707750e+00  -5.277778e+01
   4.344613e+01  -3.198155e+01
   9.747212e+00   2.961937e+01
  -1.020397e+00  -8.890848e+00
  -2.922003e+01  -1.596258e+01
   7.286271e+01  -1.651936e+01
   9.913937e+01  -2.838339e+01
