
 $NMID
 id='ANONYMOUS ', fmtdat='(2E16.6)'
 volume=1.0
 tramp=1.0
 $END
   3.590388e+03  -2.352039e+02
   1.835835e+03   1.550714e+03
  -4.407939e+01   2.727871e+03
  -1.514608e+03   1.421633e+03
  -1.143664e+03  -2.226363e+02
   4.213424e+02  -4.574882e+02
   5.964517e+02   2.056293e+01
   1.338712e+02   8.716450e+02
  -7.469109e+02   7.896662e+02
  -7.999260e+02   6.507254e+01
  -3.470973e+02  -7.066465e+02
   5.955156e+01  -8.361200e+02
   5.565209e+02  -1.947691e+02
   3.792031e+02   5.259311e+02
  -1.706824e+02   6.362859e+02
  -5.576476e+02  -9.138053e+01
  -4.876499e+02  -5.196917e+02
   1.470317e+02  -6.274840e+02
   6.056684e+02  -1.893381e+02
   3.965246e+02   2.462893e+02
   1.652126e+01   3.957262e+02
  -1.519025e+02   2.635810e+02
  -1.249714e+02   9.465870e+01
   1.504118e+02   3.051699e+01
   2.678511e+02   6.264138e+01
   7.716492e+01   4.372460e+02
  -3.500795e+02   2.681828e+02
  -4.583541e+02  -1.097552e+02
  -4.302910e+02  -4.755927e+02
   2.700548e+02  -3.376159e+02
   6.431297e+02  -1.220591e+01
   2.312360e+02   4.058717e+02
  -2.213843e+02   4.320180e+02
  -4.551912e+02   2.226961e+02
  -3.475932e+02  -7.991855e+01
  -1.089535e+02  -3.091747e+02
   8.892190e+01  -2.707042e+02
   8.738665e+01   1.213966e+02
  -5.150968e+01   2.688387e+02
  -3.110386e+02  -5.832343e+01
  -1.148703e+02  -6.986677e+02
   1.479535e+02  -5.791111e+02
   3.640389e+02  -4.067446e+01
   3.527989e+02   4.125269e+02
  -2.371563e+02   3.372873e+02
  -2.120244e+02  -3.878168e+02
  -1.578950e+01  -4.299363e+02
   4.112945e+02  -1.836618e+02
   5.183253e+02   4.104929e+02
   2.744095e+02   4.153139e+02
  -3.214336e+02   2.629803e+02
  -5.789715e+02  -5.941616e+01
  -3.680537e+02  -2.218054e+02
   2.756010e+00  -2.474387e+02
   3.819208e+02  -6.263122e+01
   2.857123e+02   6.133950e+01
  -4.476355e+01   7.163494e+01
  -1.038735e+02  -5.477865e+01
   1.264564e+02  -1.152414e+02
   2.334440e+02  -3.243174e+01
   1.162851e+02   2.017568e+02
  -1.748846e+02   2.879510e+02
  -2.590764e+02   6.399545e+01
  -2.481610e+02  -5.656228e+01
   9.441363e+01  -2.207736e+02
   2.371791e+02  -3.485462e+02
   3.452680e+02  -1.929431e+02
   2.530897e+02   1.374015e+02
   8.606898e+01   3.587897e+02
  -7.297416e+01   3.572615e+02
  -6.981362e+01   1.385910e+02
  -7.581676e+01   1.790207e+01
  -7.427678e+01   8.275294e+01
  -1.538264e+02   1.202051e+02
  -1.994858e+02  -1.093935e+02
  -1.298117e+02  -1.899487e+02
   9.604862e+01  -1.895196e+02
   2.043717e+02  -3.876889e+01
   1.894059e+02   1.583390e+02
  -3.466614e+00   2.277404e+02
  -2.363285e+02   8.539328e+01
  -3.642915e+02  -2.749090e+02
  -2.253066e+02  -2.920258e+02
   8.415202e+01  -2.393468e+02
   1.709699e+02  -1.564919e+02
   1.217048e+02  -1.941297e+01
   1.414289e+02  -2.193138e+01
   2.192998e+02  -6.197211e+01
   3.697108e+02   5.723210e+01
   1.939659e+02   3.178217e+02
   2.998764e+01   3.923249e+02
  -3.794625e+02   4.237953e+02
  -4.740932e+02   1.848574e+02
  -2.856986e+02  -1.419295e+02
  -4.419721e+01  -2.349098e+02
   2.723454e+01  -2.847244e+02
   7.070407e+01  -1.033229e+01
  -1.265718e+02   6.209833e+01
  -1.464048e+02  -9.373805e+00
  -6.432107e+01  -1.357673e+02
   1.584540e+02  -1.129356e+02
   1.512251e+02   4.741149e+01
  -1.847331e+01   1.049353e+02
  -1.651590e+02   3.049934e+01
  -1.141650e+02  -1.810169e+02
   5.078601e+00  -3.786902e+02
   1.965992e+02  -1.565960e+02
   3.203307e+02   7.194544e+01
   2.308025e+02   2.452627e+02
   4.101852e+01   2.934129e+02
  -7.158130e+01   6.276210e+01
  -1.650318e+02  -1.886449e+01
  -5.246610e+01  -8.415410e+00
   7.071170e+01   4.706450e+01
   6.369418e+01   1.352838e+02
  -1.167285e+02   8.317343e+01
  -1.445143e+02   1.556422e+01
  -3.714779e+01  -1.115466e+01
   7.167069e+01  -2.499384e+01
   5.751181e+01   3.824559e+01
  -7.796732e+01   1.520420e+02
  -2.513234e+02  -1.199310e+01
  -2.161858e+02  -2.116699e+02
  -2.820041e+01  -2.208034e+02
   1.420307e+02  -2.296711e+02
   2.828260e+02  -5.334831e+01
   1.337448e+02   5.007044e+01
  -4.026091e+00   9.842432e+01
  -5.590472e+01  -3.533622e+00
   1.468550e+01  -7.561808e+01
   1.725907e+02  -2.611694e+01
   2.017418e+02   8.003420e+01
   3.034331e+01   1.849869e+02
  -7.063197e+01   1.583113e+02
  -1.152634e+02   4.380920e+01
  -4.647609e+01  -6.026996e+01
   3.173091e+01   9.805288e+00
   3.350300e+01   6.000799e+01
  -1.010805e+02   8.535945e+01
  -1.629560e+02   5.889787e+00
  -1.877168e+02  -1.185643e+02
  -4.088280e+01  -1.735647e+02
   1.985152e+02  -1.308672e+02
   1.148330e+02   6.427435e+00
   7.843519e+01   1.132631e+02
  -4.823856e+01   1.120063e+02
  -7.882974e+01  -9.995080e-01
  -2.899326e+01  -1.326462e+01
   4.256689e+01  -5.470718e+00
   1.783318e+01  -9.780425e+00
  -9.322272e+01  -3.347088e+00
  -7.941918e+01  -4.856750e+01
  -4.874424e+01  -1.394666e+02
   1.135841e+02  -1.327367e+02
   1.794309e+02   2.684775e+01
   1.941135e+02   1.823799e+02
   1.397822e+01   2.532766e+02
  -1.349995e+02   1.291402e+02
  -1.512876e+02  -9.109339e+00
  -7.620547e+01  -8.553519e+01
  -6.400864e+01  -9.797950e+01
  -8.955005e+01  -4.120383e+00
  -5.357433e+01   1.426116e+01
  -9.336283e+01  -2.284982e+01
   5.455023e+01  -7.418812e+01
   9.831673e+01  -4.104299e+01
   1.111069e+02   3.040989e+01
   7.482646e+00   1.233005e+02
  -1.598291e+02   1.033439e+02
  -1.828754e+02  -8.833212e+01
  -1.426601e+02  -2.149001e+02
   6.729781e+01  -2.094808e+02
   1.825219e+02  -1.451241e+02
   2.927321e+02   7.359356e+01
   5.406835e+01   1.397814e+02
  -3.639629e+01   1.342779e+02
  -8.656816e+01   1.142838e+02
  -4.439031e+01   6.050400e+01
  -1.094776e+01   6.020578e+01
  -1.051427e+02   9.091374e+01
  -8.959668e+01   5.548808e+01
  -1.310562e+02  -1.100614e+02
  -6.846572e+01  -1.938506e+02
   8.402696e+01  -1.692726e+02
   1.607091e+02  -2.284215e+01
   1.604460e+02   1.218645e+02
   2.108082e+01   1.419803e+02
  -3.576701e+01   1.005420e+02
  -1.800539e+01   2.639522e+01
   1.278690e+00  -5.133834e+01
  -1.597555e+01  -4.855120e+01
  -2.058145e+01  -6.152000e+00
  -6.935549e+01  -3.063369e+01
  -3.864355e+01   1.257833e+01
   6.203837e+01  -1.199276e+01
   1.294822e+02  -1.539080e+01
   1.281828e+02   2.945905e+01
  -2.097310e+01   1.056667e+02
  -1.297762e+02   9.749433e+01
  -1.444182e+02  -2.411438e+01
  -7.436998e+01  -8.600005e+01
   3.640724e+01  -4.635488e+01
   7.833019e+01   3.100742e+01
   2.036480e+01   6.910468e+01
  -3.852287e+01   3.775529e+01
  -5.412719e+01  -1.145602e+01
  -2.319336e+01  -4.809136e+01
  -4.578285e+01  -3.821400e+01
  -2.007185e+01  -7.308634e+00
  -8.331674e+01   5.472190e-01
  -6.846607e+00  -4.949965e+01
   3.519223e+01  -1.644488e+02
   6.181434e+01  -1.695890e+02
   2.003039e+02  -4.184983e+01
   8.623991e+01   6.802902e+01
   2.600333e+01   1.112595e+02
  -7.119929e+01   4.348888e+01
  -6.508021e+01   5.448063e+00
   4.477376e+01  -4.854608e+01
   1.387944e+02   4.456690e+01
   8.201722e+01   1.041720e+02
  -7.429999e+01   1.329081e+02
  -1.470119e+02   8.771453e+01
  -1.605553e+02   8.995654e+00
   8.484480e+00  -6.136437e+01
   9.807349e+01  -8.780304e+01
   3.517369e+01  -1.467022e+01
  -1.639512e+01   2.767521e+01
  -1.195902e+02   9.976025e-01
  -2.243916e+01  -9.286021e+01
   8.096643e+01  -1.642004e+02
   1.628038e+02  -7.103630e+01
   8.935505e+01   8.544639e+01
   2.029614e+01   1.908632e+02
  -7.094295e+01   1.461997e+02
  -1.382947e+02  -3.210361e+01
  -5.896582e+01  -8.609099e+01
  -1.340911e+01  -1.292693e+02
   1.512516e+01  -6.404411e+00
   3.042893e+01   2.979117e+01
   2.618396e+01  -2.389047e+00
   6.795624e+00  -2.377333e+01
   1.238486e+01   3.584805e+00
   3.362959e+01   7.040408e+01
  -2.204453e+00   5.623856e+01
  -2.779559e+01   2.455033e+01
  -1.610818e+02  -3.857358e+01
  -1.272295e+02  -6.255315e+01
  -3.315498e+01  -3.768559e+01
   1.091275e+02  -9.085017e+01
   9.653158e+01  -6.961727e+00
   1.272150e+01   2.593420e+00
  -5.525991e+01   3.054795e+01
  -2.178121e+01   2.315023e+01
   1.855257e+01  -3.649991e+01
   9.105292e+00  -8.405085e+00
  -3.726947e+01   8.408527e+00
  -7.447140e+01  -5.465682e+00
   7.985983e+00  -9.442068e+01
   1.063039e+02  -1.144470e+02
   1.841847e+02  -7.437879e+01
   1.729986e+02  -1.171823e+01
   4.126944e+01   1.111268e+02
  -3.452833e+01   9.589104e+01
  -1.003054e+02   8.197961e+01
  -1.008821e+02  -3.118362e+01
  -3.766589e+01  -3.335068e+01
  -1.925169e+01  -4.128576e+01
  -3.655337e+01  -1.893808e+01
  -6.414308e+01  -3.097530e+01
   2.836130e+01  -9.352319e+01
   3.726777e+01  -8.487676e+01
   5.071899e+01   5.528651e+01
   1.839347e+01   1.139565e+02
  -1.022565e+01   1.460760e+02
  -6.522171e+01   7.669344e+01
  -7.595853e+01  -8.491855e+01
  -2.258624e+01  -1.367951e+02
   3.679090e+01  -8.927831e+01
   9.237195e+01  -1.211452e+01
   6.102857e+01   4.164286e+01
  -6.457881e+01   9.401334e+01
  -3.198362e+01   4.969609e+01
   2.169794e+01  -1.551552e+01
   4.619818e+01  -1.787321e+01
   4.161367e+01  -1.605509e+01
  -9.463575e+01   6.324120e+01
  -1.332528e+02   8.625145e+01
  -7.027915e+01  -9.078225e-02
   2.052624e+01  -1.038780e+02
   6.200093e+01  -1.104142e+02
   7.341353e+01  -3.626484e+00
  -1.248519e+01   6.330688e+01
  -2.274185e+00   4.352189e+01
  -3.827744e+01  -1.163124e+01
  -3.609928e+01  -5.650369e+01
  -2.718681e+01  -1.875419e+01
   7.102457e+01   1.334786e+01
   4.745252e+01   1.759648e+01
  -7.265651e-01   2.716866e+01
   2.221924e+00  -8.483046e+00
   4.607257e+01   1.629122e+01
   2.397077e+00   5.264483e+01
  -4.010900e+01   5.707753e+01
  -4.789300e+01  -2.938763e+01
  -6.388368e+01  -7.485492e+01
   2.498256e+01  -5.596570e+01
   3.243127e+01   4.900397e+00
   4.424725e+01   5.570351e+01
   2.873212e+01   4.098012e+01
  -7.613178e+00   5.468569e+01
  -4.115352e+01   2.433977e+01
  -3.691258e+01  -4.817073e+01
   7.840636e+00  -7.383128e+00
   4.485375e+01  -2.065984e+01
   1.765362e+01   5.539652e+00
  -2.986060e+01   3.138484e+01
  -2.335434e+01   5.640638e+00
   4.055813e+01  -3.860401e+01
   6.651537e+01   1.282108e+01
