
 $NMID
 id='ANONYMOUS ', fmtdat='(2E16.6)'
 volume=1.0
 tramp=1.0
 $END
  -3.323766e+03   3.324563e+02
  -1.969349e+03  -1.570129e+03
  -3.954045e+02  -1.783057e+03
   8.033217e+02  -9.915389e+02
   5.241692e+02  -3.271546e+02
  -1.107044e+02   7.719115e+01
  -3.236678e+02  -2.699126e+02
  -1.276766e+02  -4.529830e+02
   3.624409e+02  -5.863303e+02
   5.046967e+02  -1.224339e+02
   4.099981e+02   4.844241e+02
  -4.957701e+01   6.052335e+02
  -2.329345e+02   2.822083e+02
  -2.267449e+02  -3.988631e+02
  -6.252445e+00  -5.350888e+02
   3.978357e+02  -9.680798e+01
   2.348995e+02   4.721580e+02
  -1.637057e+01   6.479203e+02
  -4.131036e+02   2.490499e+02
  -4.046473e+02  -7.974961e+00
  -3.749473e+01  -3.395622e+02
   1.667353e+02  -1.653417e+02
   2.093580e+01  -2.101586e+01
  -1.706958e+02  -3.206417e+01
  -2.890130e+02  -2.181880e+02
  -2.060836e+00  -2.866253e+02
   4.420878e+02  -1.705946e+02
   6.013869e+02   1.238915e+02
   1.836522e+02   3.167817e+02
  -3.302783e+02   1.676594e+02
  -3.907547e+02  -1.247280e+02
  -1.788532e+02  -3.615963e+02
   2.756153e+02  -3.894983e+02
   4.552979e+02  -1.676857e+02
   2.432730e+02   1.495972e+02
   1.785388e+01   2.208774e+02
  -3.783591e+01   1.530136e+02
  -3.593202e+01  -4.649216e+01
   2.372820e+02  -2.296844e+02
   1.309817e+02   1.500097e+02
   9.053511e+00   4.263197e+02
  -1.985966e+02   4.085326e+02
  -2.752660e+02   1.936386e+01
  -1.285824e+02  -2.801757e+02
   1.519658e+02  -1.169676e+02
   1.723002e+02   2.241310e+02
  -6.265924e+01   3.353610e+02
  -3.093143e+02   1.287353e+02
  -4.607588e+02  -2.978587e+02
  -1.972919e+02  -4.516039e+02
   2.343150e+02  -2.759739e+02
   4.007503e+02   2.327852e+01
   3.317677e+02   2.412597e+02
  -1.257988e+01   1.588148e+02
  -3.207615e+02   6.603349e+01
  -1.602724e+02   5.523561e+00
  -6.475779e+00  -6.495066e+01
   2.118422e+01   8.838293e+01
  -1.107389e+02   5.425218e+00
  -2.514538e+02  -3.825816e+01
  -9.289453e+01  -2.005029e+02
   1.392642e+02  -2.437131e+02
   2.768277e+02  -2.248110e+02
   2.575190e+02   8.198026e+01
  -2.057517e+01   2.796669e+02
  -2.213563e+02   3.987480e+02
  -3.902708e+02   1.501272e+02
  -2.598362e+02  -1.485823e+02
  -5.547334e+01  -2.993186e+02
  -6.270160e+01  -2.549942e+02
  -2.250022e+01  -1.297197e+02
  -4.082296e+00  -1.126614e+02
   1.283948e+02  -1.209431e+02
   2.150361e+02  -7.853724e+01
   2.670395e+02   1.172136e+02
   1.083908e+02   1.865495e+02
  -8.213686e+01   1.673022e+02
  -1.797144e+02  -4.549587e+01
  -1.678850e+02  -2.926240e+02
   6.090583e+01  -2.304207e+02
   2.244333e+02  -2.364052e+01
   3.621943e+02   1.460509e+02
   1.840711e+02   3.247700e+02
  -1.991442e+01   2.713875e+02
  -1.244378e+02   1.622646e+02
  -1.131539e+02   5.818098e+01
  -1.244915e+02   2.615618e+01
  -2.348138e+02   8.575529e+00
  -4.056929e+02  -1.054853e+02
  -3.350513e+02  -2.763032e+02
  -6.508588e+01  -4.334770e+02
   4.105634e+02  -4.571173e+02
   4.101766e+02  -1.522082e+02
   1.612990e+02   8.097026e+01
   2.743653e+01   2.145736e+02
  -1.038514e+02   1.698851e+02
  -9.591063e+00   3.260247e+01
   1.368691e+02  -5.180270e+00
   1.286540e+02   7.715793e+01
  -2.522500e+01   1.225531e+02
  -1.223768e+02   1.107477e+02
  -1.567138e+02  -2.238808e+01
   2.219766e+01  -1.436496e+02
   1.353114e+02  -4.715097e+01
   1.071573e+02   1.548416e+02
  -9.005680e+00   3.107640e+02
  -1.738424e+02   2.837951e+02
  -3.961896e+02  -3.594962e+01
  -2.626019e+02  -2.046461e+02
  -2.819746e+01  -2.683046e+02
   1.306466e+02  -9.061077e+01
   8.234028e+01  -1.193427e+01
   6.930911e+01   4.726941e+00
  -3.396375e+01  -5.651591e+01
  -3.495853e+01  -1.063274e+02
   1.077018e+02  -5.470698e+01
   8.204541e+01   1.750595e+01
   2.814137e+01   4.492671e+01
  -9.247408e+01  -9.779686e-01
  -4.431851e+01  -2.723634e+01
   1.353855e+02  -1.018045e+02
   2.431983e+02   5.199660e+01
   1.943227e+02   1.632305e+02
  -1.222598e+01   2.619481e+02
  -2.140415e+02   2.169553e+02
  -2.741749e+02   1.030808e+02
  -1.508499e+02  -2.405713e+01
   2.130695e+01  -4.935442e+01
   4.682979e+01   9.544577e+00
  -3.657165e+01   9.421249e+01
  -1.958955e+02   5.373222e+01
  -1.884565e+02  -1.135348e+02
  -3.225992e+01  -1.887358e+02
   5.560298e+01  -9.324691e+01
   8.317337e+01  -3.554907e+01
   1.556055e+01   2.919681e+01
  -3.789411e+01   2.306796e+01
  -5.201320e+01  -1.070341e+02
   5.517543e+01  -1.430877e+02
   2.282811e+02  -1.994718e+01
   1.893487e+02   1.400653e+02
   4.343822e+01   1.594639e+02
  -1.797805e+02   1.141834e+02
  -1.513727e+02   3.592171e+01
  -5.312697e+01  -1.038858e+02
   4.163261e+01  -9.626107e+01
   8.191041e+01   2.950497e+00
   2.601296e+01   3.053753e+01
  -2.025371e+00   1.207663e+01
   1.074581e+01  -2.958197e+01
   1.209062e+02  -2.135296e+01
   1.113224e+02   7.141809e+01
   1.386482e+01   1.505240e+02
  -1.395673e+02   1.309382e+02
  -1.976135e+02  -2.363757e-01
  -2.373742e+02  -1.865055e+02
  -3.659453e+01  -2.291850e+02
   1.440799e+02  -1.172532e+02
   1.032819e+02  -2.393134e+01
   7.283557e+01   5.862708e+01
   4.183491e+01   4.808182e+01
   6.168613e+01  -8.873609e+00
   9.606637e+01  -2.426053e+01
   4.781960e+01   3.177900e+01
  -2.219296e+01   9.531870e+01
  -8.328173e+01   6.860278e+01
  -9.804621e+01  -5.107986e+01
  -1.099709e+01  -1.019596e+02
   1.166039e+02  -1.406884e+02
   1.976843e+02   5.696340e+01
   7.075908e+01   1.961325e+02
  -8.840789e+01   2.655647e+02
  -2.464123e+02   3.374109e+01
  -2.357088e+02  -1.059629e+02
  -7.512049e+01  -1.549422e+02
   4.762046e+01  -1.741564e+02
   9.008322e+01  -1.187708e+02
   9.082252e+01  -5.914117e+01
   2.052219e+01  -8.843733e+01
   7.933986e+01  -7.592732e+01
   8.697756e+01   3.582165e-01
   8.780200e+01   1.493411e+02
  -5.148241e-01   2.408559e+02
  -1.095576e+02   1.689456e+02
  -1.318586e+02   1.872389e+01
  -8.097653e+01  -5.781378e+01
   1.942124e+01  -1.872693e+02
   4.324768e+01  -7.756610e+01
   2.950014e+01   2.645782e+01
   1.042782e-01   1.884520e+01
  -3.468106e+01   4.260077e+01
   2.753397e+01   3.875532e+01
   6.697838e+01   1.494933e+01
   7.007097e+01   1.895099e+01
  -7.967697e+01   7.293295e-01
  -1.092856e+02   1.322866e+01
  -1.121558e+02   6.466457e+00
  -7.034537e+00  -7.819583e+01
   1.424728e+02  -5.593362e+01
   1.729039e+02  -1.738618e+01
   9.018350e+00   6.405902e+01
  -5.284659e+01   3.524144e+01
  -4.737846e+01  -7.803754e+00
  -1.355269e+01  -7.920060e+01
   3.556883e+01  -4.846003e+01
   6.925517e+01  -8.072972e+00
   3.836659e+01   8.472745e+01
   3.258686e+01   5.595387e+01
   4.192289e+01  -2.057604e+00
   3.697268e+01  -1.881766e+01
   2.375260e+01   6.810389e+01
  -6.144442e+01   1.553278e+02
  -9.794552e+01   1.520287e+02
  -2.054524e+02   2.617091e+01
  -1.410862e+02  -6.909492e+01
  -2.400997e+01  -9.810958e+01
   1.144086e+02  -8.718445e+01
   5.769574e+01   4.219119e+01
  -3.317350e+01   2.130550e+01
  -1.375529e+02  -1.631075e+01
  -4.189935e+01  -1.428831e+02
   5.920884e+01  -9.907353e+01
   2.231613e+02  -9.889994e+01
   1.313655e+02  -1.486588e+01
   4.933449e+01   1.013724e+02
  -8.209669e+01   1.649427e+01
  -1.351018e+01   1.870614e+01
   6.571852e+01  -5.514451e+01
   7.343812e+01   1.173145e+01
   3.418381e+01   9.532419e+01
  -4.629911e+01   1.679733e+02
  -9.669952e+01   8.949511e+01
  -1.429422e+02  -7.388391e+01
   7.272679e+00  -1.803052e+02
   7.413586e+01  -1.407578e+02
   1.233621e+02   1.939902e+01
   9.227260e+01   1.045711e+02
  -4.192703e+00   8.646444e+01
  -3.205211e+01   4.968944e+01
  -6.398398e+01  -4.847175e+01
  -2.428735e+01  -2.357529e+01
   6.721396e+01   6.826991e+00
  -3.938205e+00  -6.148625e+01
  -1.058783e+02  -6.843910e+01
  -2.269157e+01  -1.388496e+02
   6.532815e+01  -1.485286e+01
   1.179708e+02   4.349383e+01
   1.591321e+02   4.563728e+01
   7.939245e+00   5.913624e+01
  -8.278490e+01   5.090382e+01
  -5.503505e+01  -1.838434e+01
  -3.638692e+01  -8.701252e+00
   1.381217e+01  -2.746084e+01
   4.495046e+01  -2.318134e+01
   1.427161e+01  -2.025498e+01
   2.666320e+01   3.309802e+01
   5.427840e+01  -1.511743e+01
   1.162535e+02   1.051056e+01
   1.481185e+01   7.461115e+01
  -1.328914e+02   1.257950e+02
  -1.547106e+02   7.556889e+01
  -9.818830e+01  -1.191997e+01
  -5.455306e+01  -1.068501e+02
   2.218838e+01  -1.385561e+02
   8.605227e+01  -7.104726e+01
   6.993690e+01   1.335005e+01
   4.488978e+01   1.945690e+01
   6.761325e+00  -2.532257e+01
   4.081728e+00   4.127381e+00
   4.219327e+01   3.303477e+01
   1.492563e+01   1.046377e+02
  -3.345047e+01   3.560792e+01
  -1.238103e+02   1.765902e+00
  -6.292635e+01  -6.980158e+01
   1.932370e+01  -1.229781e+02
   9.122922e+01  -4.423558e+01
   6.887343e+01  -3.780571e+00
   6.429455e+01   8.348262e+01
  -4.852123e+01   4.681910e+01
  -1.138595e+02   7.810177e+00
   3.305489e+00  -5.162559e+01
   6.510879e+01  -8.415517e+01
   3.131949e+01  -2.745982e+01
  -7.636401e+00  -2.365355e+01
  -5.534885e+01  -5.959384e+00
  -3.150487e+01  -1.055596e+01
   9.177717e+01  -5.086002e+01
   1.196630e+02  -5.453732e+01
   1.071329e+02   4.932965e+01
   8.006747e+00   8.754659e+01
  -4.518726e+01   7.407858e+01
  -3.483057e+01  -6.749702e+00
  -7.583602e+00  -5.149392e+01
  -1.294419e+01   8.561677e+00
  -5.989642e+00   2.741204e+01
   3.082756e+01   1.104464e+02
   3.372287e+01   2.087176e+01
  -6.121291e+00   2.719709e+01
   4.828347e+00  -1.434734e+01
  -5.181554e+01  -4.145010e+00
  -2.125434e+01   1.887341e+01
  -3.358844e+00  -8.424533e-01
   1.877149e+01  -6.106727e+01
   1.685910e+01  -5.469801e+01
   5.201958e+01  -4.025472e+01
   2.147202e+01   2.412789e+01
  -5.057113e+00   1.956881e+01
  -3.578490e+01   1.304370e+01
  -3.170511e+01  -5.019342e+01
  -3.595999e+01  -4.555962e+01
   1.780356e+01  -2.231497e+01
   1.207478e+02   1.742470e+01
   4.981807e+01   6.935335e+01
  -3.652275e+01   4.441742e+01
  -9.401193e+01   8.617258e+00
   2.324076e+01   3.106945e+01
   2.441192e+01  -1.174722e+01
   4.192833e+01   4.354964e+00
  -2.731003e+01   1.270782e+01
  -6.109012e+01   1.044940e+01
