
 $NMID
 id='ANONYMOUS ', fmtdat='(2E16.6)'
 volume=1.0
 tramp=1.0
 $END
   3.030426e+03  -1.507504e+02
   1.554914e+03   1.250304e+03
   1.010091e+02   1.936590e+03
  -8.317665e+02   8.793840e+02
  -4.374893e+02  -4.666313e+01
   2.189126e+02  -1.623463e+02
   3.798580e+02   3.221927e+02
   6.059136e+01   5.862801e+02
  -4.439117e+02   5.829339e+02
  -5.443404e+02   9.468054e+01
  -3.721158e+02  -4.973135e+02
   8.070837e+01  -5.761163e+02
   3.687493e+02  -1.297348e+02
   3.274472e+02   5.071548e+02
   4.086573e+00   4.914514e+02
  -4.081308e+02   8.309193e+01
  -1.773791e+02  -3.974866e+02
   1.962740e+01  -5.364767e+02
   4.574644e+02  -1.994783e+02
   3.158255e+02   1.766293e+02
   2.057678e+00   3.132350e+02
  -1.532719e+02   1.789377e+02
  -9.293961e+01  -3.226262e+01
   1.153319e+02   4.104548e+00
   2.681083e+02   1.398615e+02
   1.179992e+02   2.551581e+02
  -3.512574e+02   3.212937e+02
  -5.840538e+02  -8.724363e+01
  -2.336880e+02  -2.307645e+02
   1.835184e+02  -2.776603e+02
   4.819191e+02   2.436164e+01
   2.167192e+02   2.925518e+02
  -2.648274e+02   3.505883e+02
  -4.558360e+02   1.757925e+02
  -3.435799e+02  -1.656346e+02
  -7.748242e+01  -2.382489e+02
   1.083675e+02  -1.816808e+02
   4.336977e+01   1.156907e+02
  -1.102493e+02   2.890078e+02
  -2.127526e+02  -3.116095e+01
  -9.610022e+01  -4.314742e+02
   1.615654e+02  -4.368376e+02
   3.891794e+02  -8.849570e+01
   1.019697e+02   3.484313e+02
  -1.281659e+02   1.449696e+02
  -2.461834e+02  -1.569535e+02
  -1.775859e+00  -3.751335e+02
   3.514802e+02  -1.168562e+02
   3.815389e+02   2.579668e+02
   1.160626e+02   3.915034e+02
  -2.027223e+02   3.147528e+02
  -4.064440e+02   5.026097e+01
  -2.925690e+02  -2.661823e+02
  -8.879230e-01  -1.289079e+02
   2.392519e+02  -7.309087e+01
   1.765006e+02   5.378868e+01
  -3.133425e+01   4.641135e+01
  -3.799973e+01  -8.605445e+01
   7.226159e+01  -1.091062e+02
   1.872878e+02   1.810923e+01
   9.972777e+01   1.810570e+02
  -1.357315e+02   1.953281e+02
  -2.332054e+02   1.303607e+02
  -2.034768e+02  -4.823078e+01
   3.828250e+01  -2.104916e+02
   1.649047e+02  -3.093684e+02
   2.942740e+02  -1.615860e+02
   2.353462e+02   7.300375e+01
   1.615014e+01   3.025758e+02
  -3.183223e+01   2.786889e+02
  -4.216071e+01   1.161775e+02
   2.267167e+00   1.709934e+01
  -8.912340e+01   8.582411e+01
  -1.224571e+02   9.380129e+01
  -2.527384e+02  -5.030622e+01
  -1.598203e+02  -1.651220e+02
   2.846613e+01  -1.585273e+02
   1.613577e+02   6.160883e+00
   9.918007e+01   1.756216e+02
  -1.948573e+01   2.067827e+02
  -2.237671e+02   6.792724e+01
  -2.718567e+02  -1.457961e+02
  -1.453338e+02  -2.962234e+02
   3.561225e+01  -2.473128e+02
   1.764734e+02  -1.087779e+02
   5.850923e+01  -3.667419e+01
   1.226716e+02  -1.121559e+01
   1.731231e+02  -4.850272e+01
   2.914035e+02   9.025271e+01
   2.173444e+02   1.662496e+02
   8.128771e+01   3.117783e+02
  -3.364997e+02   2.551227e+02
  -3.772363e+02   1.532323e+02
  -1.521044e+02  -3.616199e+01
  -6.426104e+01  -1.854266e+02
   3.575952e+01  -1.566281e+02
   4.314420e+00  -7.504333e+01
  -7.861541e+01   8.522073e+01
  -1.311768e+02  -1.320312e+01
   2.148254e+00  -1.175338e+02
   9.320644e+01  -7.975623e+01
   1.237162e+02   2.050359e+01
  -3.256820e+01   1.447801e+02
  -1.432561e+02   6.019675e+01
  -7.428386e+01  -1.082570e+02
   1.375052e+01  -2.785988e+02
   2.085187e+02  -1.819996e+02
   3.006753e+02   2.867140e+01
   2.606815e+02   1.951229e+02
   9.089161e+01   2.432290e+02
  -1.136912e+02   1.031256e+02
  -1.432213e+02   1.934740e+01
  -5.108607e+01  -1.043198e+01
   7.507269e+01   6.059928e+01
   1.881323e+01   9.183540e+01
  -8.895775e+01   9.765510e+01
  -8.461953e+01   1.747089e+01
  -2.301082e+01  -1.096030e+02
   6.838218e+01   3.126784e+00
   1.007696e+02   9.848171e+01
  -7.623239e+01   9.172952e+01
  -1.925760e+02  -3.379995e+01
  -2.273105e+02  -7.742668e+01
  -4.401245e+01  -2.272814e+02
   1.483826e+02  -1.716493e+02
   1.759257e+02  -7.141654e+01
   1.004104e+02   3.828826e+01
  -4.431696e+01   4.588338e+01
  -8.995028e+01   1.712751e+01
   1.327653e+01  -9.613449e+01
   1.231224e+02  -3.625461e+01
   1.776507e+02   8.160782e+01
   8.277923e+01   1.490689e+02
  -8.632646e+01   1.205856e+02
  -4.655884e+01   2.860529e+01
  -6.589581e+01  -3.222759e+01
   2.222373e+01   1.416714e+01
   3.637517e+00   1.111126e+02
  -5.359994e+01   7.683552e+01
  -1.298268e+02   8.151654e+01
  -1.166761e+02  -8.861471e+01
  -3.449982e+01  -1.122203e+02
   1.368519e+02  -1.493519e+02
   9.882074e+01  -2.810612e+01
   4.330697e+01   2.214304e+01
  -6.514244e+01   7.509703e+01
  -4.679770e+01   2.723348e+01
  -1.709779e+01  -1.355957e+01
   7.120746e+01  -1.004550e+01
  -5.946586e+00   6.532902e+01
  -8.482763e+01  -1.073119e-01
  -8.590329e+01  -6.477748e+01
   2.428445e+00  -1.142880e+02
   8.031763e+01  -1.078108e+02
   1.353413e+02   3.623077e+01
   1.693023e+02   1.047703e+02
   1.964734e+01   1.738080e+02
  -8.407201e+01   1.148428e+02
  -9.706973e+01   3.438291e+01
  -2.825555e+01  -4.442701e+01
  -7.133041e+00  -1.404223e+01
  -3.312685e+01   4.023760e+00
  -9.051866e+01  -2.398253e+01
  -2.737890e+01  -2.160524e+01
   3.872949e+01  -8.925824e+01
   1.031026e+02  -2.640079e+01
   6.707492e+01   5.660405e+01
   3.411585e+01   8.288177e+01
  -1.013714e+02   8.781616e+01
  -1.662503e+02  -7.216531e+00
  -5.012022e+01  -1.917532e+02
   7.625983e+01  -1.661879e+02
   1.872731e+02  -2.754838e+01
   2.373391e+02   9.575747e+01
   8.562589e+01   1.409167e+02
  -4.488134e+01   1.311106e+02
  -6.884073e+01   5.698112e+01
  -9.947675e+00   4.359040e+01
  -3.347380e+01   5.790079e+01
  -9.147680e+01   3.392697e+01
  -1.005919e+02  -5.134223e+01
  -5.574513e+01  -1.398663e+02
  -1.486880e+01  -1.498762e+02
   1.335376e+02  -1.604129e+02
   8.314665e+01  -1.198182e+01
   1.154599e+02   7.416324e+00
   1.774552e+00   1.027089e+02
  -6.944462e+01   6.947778e+01
  -9.098640e+01   9.319132e+00
   2.687533e+01  -3.780777e+01
   4.502266e+01  -1.266921e+01
  -3.995301e+01  -4.137206e+01
  -5.535355e+01  -5.782768e+01
  -4.445016e+01   4.983276e+00
   6.739424e+01  -7.810825e+01
   1.621435e+02   1.964696e+01
   1.296908e+02   6.012801e+01
   2.914701e+01   8.563417e+01
  -8.824248e+01   1.174647e+01
  -1.228361e+02   2.216031e+01
  -3.555204e+01  -3.218489e+01
   3.158158e+01  -4.775991e+01
   5.167993e+01   3.624852e+01
   1.961605e+01   4.362559e+01
  -7.602807e+01   6.210167e+01
  -5.577867e+01   8.486002e+00
  -1.282033e+01  -5.725454e+01
   1.575346e+01   9.373961e+00
  -5.711125e+01   4.410505e+00
  -8.300445e+01  -4.956104e+00
  -3.426771e+01  -4.855326e+01
   2.590898e+01  -1.354601e+02
   5.823411e+01  -1.014627e+02
   1.109506e+02  -2.214296e+01
   1.103528e+02   5.603717e+01
   1.736922e+01   1.257566e+02
  -5.384192e+01   9.619503e+01
  -3.825737e+01   3.797197e+00
   7.616319e+01   1.743256e+00
   9.116456e+01   2.338984e+01
   2.924570e+01   9.756324e+01
  -3.667459e+01   1.074680e+02
  -1.502770e+02   6.477984e+01
  -1.397250e+02  -3.367617e+01
  -8.275074e+01  -5.037923e+01
   3.643368e+01  -3.831044e+01
   1.180974e+01   1.716021e+01
  -2.749998e+01  -1.920689e+01
  -6.849669e+01   6.962090e+00
  -1.184993e+01  -9.854399e+01
   4.037372e+01  -9.081841e+01
   1.120840e+02  -1.059411e+02
   5.702058e+01   7.294193e+01
  -6.028250e+00   1.506745e+02
   1.074478e+01   1.100081e+02
  -9.272638e+01   1.389504e+01
  -2.892479e+01  -1.057360e+02
   1.021649e+01  -4.632852e+01
   2.524138e+01  -3.160813e+01
   3.267268e+01   1.223693e+01
  -2.978611e+01   2.226532e+01
  -1.335063e+01   1.795890e+01
   4.250171e+01   2.381238e+01
   4.026502e+00   6.277696e+01
   1.957535e+01   1.159478e+02
  -4.918971e+01   3.961047e+01
  -6.499844e+01   6.147294e+00
  -1.075119e+02  -5.757913e+01
  -7.974582e+00  -3.173766e+01
   5.494645e+01   4.625181e+00
   1.003339e+02   2.356890e+01
  -3.289792e+00   3.700345e+01
  -3.705160e+01  -5.491306e+00
  -6.189853e+01  -1.454540e+01
   2.228153e+01  -1.442859e+01
   3.186106e+01  -5.683614e+01
  -5.149673e+01   3.400949e+01
  -8.361991e+01  -2.414919e+01
  -1.758355e+01  -3.495817e+01
   1.099783e+02  -9.314656e+01
   1.287828e+02  -3.974684e+01
   8.512049e+01   3.557968e+01
   9.553934e+01   1.030211e+02
  -3.395027e+01   1.388106e+02
  -5.318091e+01   7.546226e+01
  -4.002544e+01  -1.058790e+00
  -2.851390e+01  -3.379801e+01
   1.651607e+01  -4.765339e+01
  -3.524156e+01   1.694187e+01
  -5.163585e+01  -7.042412e+01
  -1.878881e+01  -7.490841e+01
   3.136227e+01  -5.913318e+01
   6.806365e+01  -6.492701e-01
   3.589318e+01   7.588197e+01
  -1.207320e+01   1.551633e+02
  -7.209191e+01   4.236441e+00
  -1.277606e+02  -1.971203e+01
  -1.349642e+01  -1.189562e+02
   5.566608e+01  -3.746793e+01
   6.714785e+01  -6.887491e+01
   1.563098e+01   5.764877e+01
   3.611213e+00   6.131710e+01
  -3.177567e+01   2.258621e+01
   6.085415e+00  -3.682139e+00
   4.368171e+01  -2.258670e+01
  -1.411139e+01   4.414980e+00
  -2.728290e+01   5.722080e+01
  -9.228233e+01   7.463424e+01
  -4.309532e+01   1.813964e+01
   3.612207e+01  -2.551228e+01
   4.998858e+01  -9.596770e+01
   2.016853e+01  -1.501357e+01
  -2.744519e+01   6.061942e+01
  -2.523514e+01   4.959641e+01
  -2.985382e+01  -1.836277e+01
  -5.378919e+01  -4.793953e+01
  -2.472665e+01  -3.511536e+01
   1.451605e+01   5.183609e-02
   4.347441e+01   1.448194e+01
   3.091518e+01   1.044201e+01
   3.381389e+01  -7.931665e+00
  -1.503854e+01  -1.175351e+01
  -1.330767e+01   2.345584e+01
  -2.109878e+01   1.921642e+01
  -3.981402e+01   1.479423e+01
  -5.612688e+00  -2.750469e+01
   9.830353e+00  -7.106017e+01
   8.533583e+01  -4.565619e+01
   2.585044e+01  -5.683131e+00
   4.566400e+01   2.331239e+01
  -2.541794e+01   3.191125e+01
  -7.042848e+01  -5.102144e+00
  -6.909573e+01  -6.807630e+01
  -5.542332e-01  -2.735652e+01
   6.253350e+01   9.583718e+00
   4.713402e-02  -3.092897e-01
  -2.377582e+01   1.608801e+00
  -3.817931e+01  -9.917878e+00
   8.465361e+00  -2.598812e+01
   9.707404e+01  -1.013286e+01
