
 $NMID
 id='ANONYMOUS ', fmtdat='(2E16.6)'
 volume=1.0
 tramp=1.0
 $END
   4.064387e+03  -4.028447e+02
   2.778865e+03   2.167886e+03
  -3.982671e+02   2.822537e+03
  -2.032885e+03   1.022261e+03
  -1.107988e+03  -7.763662e+02
   5.567642e+02  -6.909187e+02
   8.325769e+02   2.972546e+02
   1.252067e+02   1.094854e+03
  -8.237233e+02   8.608009e+02
  -9.340763e+02  -7.762072e+01
  -4.921970e+02  -7.310708e+02
   2.345451e+02  -8.761463e+02
   6.554474e+02  -1.643735e+02
   2.996929e+02   7.273745e+02
  -1.471050e+02   7.139360e+02
  -6.264552e+02   1.360173e+01
  -3.106915e+02  -5.882024e+02
   3.357925e+02  -5.900337e+02
   5.525800e+02  -1.323618e+02
   3.634644e+02   2.326420e+02
   2.816285e+01   3.908663e+02
  -2.805930e+02   3.210567e+02
  -1.797376e+02   5.602544e+01
   1.457040e+02  -1.322200e+02
   3.847592e+02   2.899839e+01
   2.106621e+02   3.940091e+02
  -3.843763e+02   4.415279e+02
  -7.759093e+02   6.728711e+01
  -4.970783e+02  -4.790733e+02
   2.455659e+02  -4.440691e+02
   6.847568e+02  -1.307527e+02
   4.133673e+02   4.310340e+02
  -2.633563e+02   5.300962e+02
  -4.980647e+02   2.649680e+02
  -3.762715e+02  -1.474376e+02
  -9.995106e+01  -4.590903e+02
   1.239824e+02  -2.893085e+02
   2.185607e+02   2.250529e+02
  -7.931278e+01   3.771118e+02
  -4.766463e+02   2.754942e+01
  -2.693770e+02  -6.432526e+02
   2.446676e+02  -6.843426e+02
   6.202141e+02  -7.674163e+01
   2.960648e+02   5.753728e+02
  -2.339428e+02   3.346132e+02
  -4.217020e+02  -2.398678e+02
   4.460025e+01  -4.245312e+02
   5.147838e+02  -2.059793e+02
   6.044921e+02   3.475726e+02
   2.429168e+02   5.889924e+02
  -2.735067e+02   2.812964e+02
  -6.011803e+02   2.147074e+01
  -3.743149e+02  -3.372016e+02
   5.660277e+01  -4.012882e+02
   4.095524e+02  -1.279556e+02
   3.046007e+02   1.188413e+02
  -7.279126e+01   1.079172e+02
  -1.786187e+02  -1.467761e+02
   1.128727e+02  -1.800971e+02
   3.606279e+02   9.496948e+00
   1.154698e+02   2.748825e+02
  -1.698037e+02   2.676058e+02
  -3.040707e+02   3.484485e+01
  -1.839243e+02  -6.058325e+01
   3.249152e+01  -1.539153e+02
   1.543035e+02  -2.780352e+02
   2.511435e+02  -2.250949e+02
   3.008538e+02   7.674071e+01
   8.631896e+01   4.598655e+02
  -7.199963e+01   3.139648e+02
  -1.126439e+02   4.202980e+01
  -1.497253e+01   2.121887e+01
  -2.540505e+01   5.356616e+01
  -1.278446e+02   1.038092e+02
  -2.569327e+02   3.702306e+00
  -1.382587e+02  -1.982061e+02
   2.164368e+00  -2.310786e+02
   1.904013e+02  -3.749754e+01
   2.245002e+02   2.025345e+02
   2.504803e+01   2.986709e+02
  -1.509553e+02   1.839131e+02
  -3.710805e+02  -1.087738e+02
  -2.094091e+02  -2.919254e+02
   5.842670e+01  -2.523077e+02
   2.207526e+02  -1.176452e+02
   1.090437e+02  -2.628595e+01
   6.368510e+01  -5.209586e+00
   2.099853e+02  -3.927981e+01
   3.941460e+02   3.574832e+01
   3.657967e+02   2.294286e+02
   1.332970e+01   3.718922e+02
  -3.572318e+02   4.636735e+02
  -3.781835e+02   1.795585e+02
  -3.213109e+02  -5.745294e+01
  -1.001495e+02  -2.564796e+02
   1.346066e+02  -2.372190e+02
   6.432823e+01  -3.643852e+01
  -5.220647e+01   1.176578e+02
  -2.022185e+02  -7.197035e+00
  -4.473352e+01  -2.074674e+02
   9.298719e+01  -1.888288e+02
   1.509691e+02   6.516276e+01
   4.476218e+01   1.924698e+02
  -2.065508e+02   5.833846e+01
  -1.903718e+02  -2.124410e+02
   7.175138e+01  -3.527601e+02
   1.164911e+02  -1.660889e+02
   3.095980e+02   3.810942e+01
   2.538799e+02   1.077937e+02
   1.107850e+02   2.396938e+02
  -7.138107e+01   1.529896e+02
  -1.962234e+02   4.007914e+01
  -3.483829e+01  -4.248926e+01
   9.146679e+01   1.360805e+01
   3.692881e+01   6.598873e+01
  -1.489270e+02   9.360843e+01
  -1.674782e+02  -4.456604e+00
  -4.541602e+01  -2.648845e+01
   7.585716e+01   6.056580e-01
   6.789944e+01   6.354714e+01
  -4.955387e+01   1.585713e+02
  -2.220176e+02   5.306226e+01
  -2.664432e+02  -8.233154e+01
  -7.479713e+01  -1.991294e+02
   9.653743e+01  -2.685780e+02
   2.267898e+02  -1.582885e+02
   1.412709e+02   2.068697e+01
   3.310718e+00   1.057139e+02
  -1.054020e+02   2.671735e+01
   7.371454e+00  -8.723560e+01
   1.222757e+02  -6.459631e+01
   2.342561e+02   4.854056e+01
   5.914296e+01   2.027738e+02
  -1.921685e+00   1.139800e+02
  -8.917820e+01   8.379981e+01
  -2.997575e+01  -3.296353e+01
   3.290897e+01  -2.404888e+00
   5.653647e+01   7.992329e+01
  -9.220863e+01   1.114261e+02
  -1.945747e+02  -3.346738e+01
  -1.818976e+02  -7.073625e+01
  -4.585624e+01  -2.057277e+02
   1.175400e+02  -1.333198e+02
   1.875170e+02  -2.970039e+01
   7.032649e+01   9.522547e+01
  -5.345344e+01   1.078189e+02
  -4.864338e+01   3.965680e+01
  -1.645801e+01  -5.417504e+01
   1.741007e+01  -2.535375e+00
  -3.668325e+01   1.805664e+01
  -7.311338e+01   3.590340e+01
  -7.873191e+01  -4.846148e+01
   6.230636e+00  -1.388605e+02
   1.563057e+02  -1.505094e+02
   2.100467e+02  -5.416194e+01
   2.047340e+02   1.139676e+02
   6.448935e+01   1.705531e+02
  -6.736161e+01   1.831816e+02
  -1.222920e+02   2.843496e+01
  -7.758118e+01  -7.281968e+01
  -6.275784e+01  -4.301315e+01
  -1.153366e+01   2.393909e+01
  -1.062050e+02   1.879855e+01
  -1.476622e+01  -2.221668e+01
  -1.339981e+01  -7.938193e+01
   7.819933e+01  -5.780972e+01
   5.585047e+01   3.388410e+01
   3.811019e+01   6.187453e+01
  -1.517320e+02   8.148482e+01
  -1.341739e+02  -5.642292e+01
  -1.134492e+02  -1.914244e+02
   1.068817e+02  -1.952470e+02
   2.474716e+02  -1.156352e+02
   1.873251e+02   1.558164e+01
   1.056943e+02   1.665939e+02
  -3.722716e+01   1.304626e+02
  -9.382755e+01   7.501685e+01
  -8.702517e+01   9.420018e+01
  -7.896369e+01   5.885257e+01
  -1.173905e+02   7.291286e+01
  -1.542084e+02  -3.101412e+01
  -7.932083e+01  -9.369926e+01
  -8.920866e+00  -1.979954e+02
   8.299387e+01  -1.246357e+02
   1.492053e+02  -3.955592e+01
   1.210047e+02   7.522472e+01
   2.241526e+01   1.122705e+02
  -5.105025e+01   1.019692e+02
  -6.993291e+01  -9.960804e-01
   1.424078e+01  -3.784711e+01
  -1.179125e-01  -4.434929e+01
  -2.044923e+00  -4.777053e+01
  -5.592141e+01  -3.713841e+01
  -9.087126e+01  -3.410537e+01
   5.149065e+01  -3.526449e+01
   1.427919e+02  -8.831117e+00
   1.027857e+02   3.115994e+01
   7.663859e+01   7.654551e+01
  -1.003024e+02   7.774541e+01
  -1.261119e+02   3.558450e+01
  -2.531340e+01  -5.395481e+01
   9.227016e+01  -6.202519e+01
   8.430247e+01   3.293088e+01
  -1.585759e+01   8.394931e+01
  -4.013378e+01   9.004202e+01
  -5.325240e+01  -2.120806e+01
  -5.349268e+01  -8.201455e+01
  -5.106874e+01  -4.673156e+01
  -5.090035e+01   2.124686e+01
  -3.170113e+01   1.201842e+01
  -2.242043e+01  -1.118404e+02
   2.192251e+01  -1.147383e+02
   1.533184e+02  -1.169893e+02
   1.636959e+02  -1.632131e+01
   9.938747e+01   9.639135e+01
   1.322026e+01   8.395129e+01
  -6.735925e+01   6.428212e+01
  -4.485881e+01  -1.502772e+01
   4.680410e+01  -2.798057e+01
   1.086910e+02   9.561230e+01
   8.245193e+01   1.106870e+02
  -4.147133e+01   5.280981e+01
  -2.120710e+02   7.593589e+01
  -6.647383e+01  -7.201459e+00
  -4.716762e+01  -8.383570e+01
   1.067607e+01  -6.239960e+01
   5.477187e+01  -1.380103e+01
  -4.166380e+01   6.168411e+01
  -6.122787e+01  -5.109649e+01
  -4.653370e+01  -1.340889e+02
   5.124760e+01  -1.139898e+02
   1.767489e+02  -8.554224e+01
   1.292904e+02   9.141551e+01
   2.429409e+01   1.936419e+02
  -6.672596e+01   1.573627e+02
  -6.823274e+01   4.089859e+00
  -4.723832e+01  -9.809566e+01
  -3.992878e+01  -9.763743e+01
   1.550589e+01  -3.748117e+01
   6.454197e+01   7.743873e-01
  -2.023317e+01   1.585396e+01
   3.422308e-01  -1.716032e+01
   2.517916e+01   2.648946e+01
   4.765217e+01   4.883788e+01
   7.364649e+01   3.480538e+01
  -6.381910e+01   3.219857e+01
  -1.164798e+02  -9.263293e+00
  -1.372336e+02  -6.117285e+01
  -2.249567e+01  -3.620748e+01
   8.823111e+01  -1.445182e+01
   8.626040e+01  -1.221443e+01
  -1.971626e+01   2.135438e+00
  -1.225482e+01   5.815538e+00
  -2.171352e+01   3.897976e+01
   5.497782e+00   6.580715e+01
  -9.839584e+00  -3.824827e+01
  -7.906005e+01   3.129944e+01
  -8.321992e+01  -5.003867e+01
   4.562454e+00  -8.341339e+01
   1.410653e+02  -1.077792e+02
   1.801462e+02  -6.505893e+01
   1.568191e+02   1.014769e+02
   4.080010e+01   1.602553e+02
  -6.563820e+01   1.238007e+02
  -1.023326e+02   4.992779e+01
  -5.489019e+01  -8.745428e+00
  -1.749653e+01  -2.802185e+01
   3.200114e+01  -3.037594e+01
   9.653651e+00   1.701466e+01
  -7.373662e+01  -1.442055e+01
   1.642419e+01  -7.494260e+01
  -2.591464e+00  -4.435438e+01
   7.531060e+01  -1.632460e+01
   1.011215e+02   5.040689e+01
   8.239029e-01   1.054378e+02
  -4.387152e+01  -3.602784e+01
  -8.653249e+01  -7.669125e+01
  -4.695798e+01  -1.021032e+02
   5.568190e+01  -4.569116e+01
   9.160425e+01   1.084208e+01
   2.626146e+01   2.169148e+01
  -6.913738e-01  -8.088791e+00
  -4.046047e+01   1.485080e+00
   2.501283e+01  -9.212058e+00
   4.007481e+01   2.498497e+00
   1.399815e+01   3.934590e+01
  -6.328207e+01   5.983874e+01
  -6.697874e+01   8.583398e+01
  -4.119928e+01  -2.588461e+01
   5.156626e+00  -1.089900e+02
   4.818706e+01  -7.802863e+01
   3.861426e+01   9.635939e+00
  -5.440831e+00   6.819327e+01
   6.935679e+00   6.313458e+00
  -1.732859e+01   5.760255e+00
   3.800947e+01  -4.661553e+01
   4.040606e+00  -3.924821e+01
   1.225223e+01   8.136504e-01
   9.330398e+00   3.587090e+01
   1.877874e+01   2.200108e+01
  -1.106892e+01   1.242280e+01
  -1.762343e+01   8.372046e+00
   1.557703e+01   1.812584e+01
  -3.536089e+01   6.617954e+01
  -3.727434e+01   5.396340e+01
  -4.506922e+01  -6.061650e+00
  -7.855115e+00  -3.943643e+01
   3.023815e+01  -3.264359e+01
   2.731926e+01   4.253223e+01
   9.223221e+00   8.600474e+01
  -3.514134e+01   1.749102e+01
  -7.086491e+01   3.799436e+01
   1.065288e+01   8.421548e-01
  -2.266932e+00  -2.265566e+01
   6.283090e+01  -5.062547e+01
   5.052577e+01  -2.938839e+01
  -2.029607e+00   9.299089e+00
  -3.017348e+01   5.454645e+00
  -1.320030e+01  -8.928005e+01
   4.795277e+01  -2.178969e+01
