
 $NMID
 id='ANONYMOUS ', fmtdat='(2E16.6)'
 volume=1.0
 tramp=1.0
 $END
   2.983643e+03  -1.002561e+03
   2.068092e+03   1.418406e+03
  -1.460189e+02   2.395470e+03
  -1.333302e+03   9.343866e+02
  -9.867116e+02  -5.047274e+01
   1.826836e+02  -2.942829e+02
   3.783031e+02   1.212469e+02
   1.234633e+01   6.926728e+02
  -6.120511e+02   4.269874e+02
  -7.090201e+02   7.494906e+01
  -2.074424e+02  -6.446528e+02
   1.226942e+02  -5.867623e+02
   3.214430e+02  -2.162304e+02
   1.956960e+02   3.579193e+02
  -1.530517e+02   6.143134e+02
  -3.747722e+02  -8.653939e+00
  -3.303446e+02  -4.236817e+02
   1.773011e+02  -6.061431e+02
   4.973784e+02  -5.928012e+01
   3.735602e+02   2.428587e+02
   3.552537e+01   3.964461e+02
  -1.669938e+02   1.944465e+02
  -1.069012e+02   7.127182e+01
   1.355903e+02   5.527483e+01
   3.502996e+02   2.521740e+02
   6.438781e+01   3.739283e+02
  -3.875086e+02   2.113177e+02
  -5.935260e+02  -1.069560e+02
  -3.231665e+02  -3.570929e+02
   2.395268e+02  -3.035479e+02
   5.291385e+02  -4.087239e+00
   2.930601e+02   4.090067e+02
  -2.742926e+02   3.123495e+02
  -4.426700e+02   2.112457e+02
  -3.741830e+02  -7.262810e+01
  -1.535374e+02  -3.224050e+02
   7.037131e+01  -1.698562e+02
   4.864870e+01   9.997520e+01
  -1.698086e+02   2.061364e+02
  -2.832072e+02  -8.971520e+01
  -7.707226e+01  -5.442735e+02
   2.789137e+02  -5.270486e+02
   3.866127e+02  -3.102912e+01
   1.411677e+02   3.333188e+02
  -1.631834e+02   5.941670e+01
  -1.168249e+02  -2.394527e+02
   6.441573e+01  -3.880325e+02
   4.584414e+02  -1.144295e+02
   4.414884e+02   3.339956e+02
   2.363144e+02   5.679519e+02
  -2.039461e+02   2.891434e+02
  -4.359473e+02   7.829783e+00
  -2.760006e+02  -2.820589e+02
   1.300341e+01  -2.908914e+02
   3.473935e+02  -3.562362e+01
   1.612579e+02   7.766483e+01
  -6.632232e+01   7.799679e+01
  -1.184667e+02  -4.935207e+01
   1.150941e+02  -3.295311e+01
   2.444587e+02   1.289449e+01
   2.413394e+02   2.024139e+02
  -1.966691e+02   1.933838e+02
  -3.450495e+02   1.037809e+02
  -1.715256e+02  -1.112463e+02
   3.893533e+01  -2.573752e+02
   2.591139e+02  -3.291508e+02
   2.930409e+02  -1.283238e+02
   2.127754e+02   1.680417e+02
   3.198707e+01   3.625350e+02
   2.702948e+01   2.912818e+02
  -6.395122e+01   1.465217e+02
  -4.586590e+01   5.531228e+01
  -1.188964e+02   1.158794e+02
  -2.380855e+02   8.299697e+01
  -2.350276e+02  -1.001283e+02
  -1.103771e+02  -2.218790e+02
   1.273093e+02  -1.994293e+02
   1.401512e+02  -6.952816e+00
   1.859772e+02   1.861523e+02
   5.724892e+01   2.288292e+02
  -1.966647e+02   8.310004e+01
  -3.164604e+02  -1.915729e+02
  -1.402836e+02  -2.852814e+02
   9.765323e+01  -2.237397e+02
   1.890409e+02  -1.129330e+02
   2.090516e+02  -3.105049e+00
   9.802811e+01  -8.314548e+01
   2.176275e+02  -1.908872e+01
   2.542137e+02   1.318897e+02
   2.004040e+02   3.427679e+02
  -2.981824e+01   4.054137e+02
  -4.422407e+02   2.864619e+02
  -4.381888e+02   4.732112e+01
  -2.947752e+02  -9.294225e+01
  -3.516261e+01  -2.752822e+02
   5.456725e+01  -2.616887e+02
   2.675967e+01  -2.743451e+01
  -1.225062e+02   5.248105e+01
  -1.342948e+02  -1.293804e+01
   1.733975e+01  -1.290286e+02
   1.363446e+02  -5.352470e+01
   9.582706e+01   6.590538e+01
  -6.207986e+01   1.442767e+02
  -1.551926e+02   1.237227e+01
  -2.071745e+02  -2.672959e+02
   5.190370e+01  -3.325192e+02
   2.113533e+02  -1.683047e+02
   2.832288e+02   5.304516e+01
   1.790533e+02   2.807802e+02
  -1.734325e+01   2.311809e+02
  -8.846182e+01   1.500111e+02
  -1.452858e+02   2.792470e+01
  -2.324706e+01   6.466586e+00
   1.100281e+01   7.067777e+00
  -1.611752e+01   9.780657e+01
  -1.107499e+02   5.417308e+01
  -1.550638e+02  -1.598201e+01
  -7.569267e+01  -2.620843e+01
   4.818087e+01  -3.470905e+01
   2.078921e+01   1.049328e+02
  -1.097334e+02   9.588920e+01
  -2.853078e+02  -1.633467e+00
  -1.840062e+02  -1.131639e+02
   2.617225e+00  -2.362259e+02
   1.370931e+02  -2.306687e+02
   2.688075e+02  -7.093203e+01
   1.208044e+02   3.099312e+00
  -6.031375e+00   7.691151e+01
  -5.658159e+01   2.262209e+00
   3.163302e+01  -8.177357e+01
   1.531303e+02   2.968012e+00
   1.736019e+02   1.142721e+02
   8.737041e+01   1.472150e+02
  -7.944519e+01   1.213282e+02
  -1.358054e+02   2.915739e+01
  -7.361690e+01  -5.375361e+00
  -7.172179e-01   3.402877e+01
   2.172211e+01   1.015031e+02
  -1.041559e+02   8.921998e+01
  -1.421264e+02  -1.406373e+01
  -1.965537e+02  -1.651279e+02
   8.168402e+00  -2.353158e+02
   1.820046e+02  -4.473576e+01
   1.650226e+02  -6.073428e+00
   3.675329e+01   9.115211e+01
  -5.608454e+01   1.209707e+02
  -4.114211e+01   4.298203e+01
  -4.639698e+01  -2.644846e+01
   8.208560e+00  -3.525743e+00
   7.314102e+00   3.652102e+01
  -4.220029e+01  -2.924114e+00
  -9.702351e+01  -7.359913e+01
  -3.246971e+01  -1.623753e+02
   1.279681e+02  -1.798574e+02
   2.144638e+02  -1.987053e+01
   1.418408e+02   1.447511e+02
   1.316836e+01   2.379275e+02
  -4.152016e+01   1.117381e+02
  -1.177349e+02   5.371816e-01
  -4.945355e+01  -3.745774e+01
  -5.447692e+01  -2.771598e+01
  -8.076677e+01   4.016903e+01
  -1.009126e+02  -1.439640e+00
  -8.340932e+01  -4.996563e+01
   3.505684e+01  -9.780944e+01
   1.190487e+02  -7.999398e+01
   1.018235e+02   4.162727e+01
  -2.434266e+01   1.084452e+02
  -1.266992e+02   9.729887e+01
  -1.686098e+02  -4.993148e+01
  -6.439129e+01  -1.862817e+02
   1.307146e+02  -1.665164e+02
   2.680237e+02  -1.259779e+02
   1.561428e+02   1.184999e+02
   1.199034e+02   1.216252e+02
  -7.494638e+01   1.037272e+02
  -1.034262e+02   9.960911e+01
  -6.216988e+01   8.680501e+01
  -4.719938e+01   6.241673e+01
  -7.495174e+01   8.195907e+01
  -1.202144e+02  -3.678466e+00
  -1.194965e+02  -1.610365e+02
  -3.827640e+01  -1.734113e+02
   6.521469e+01  -9.904426e+01
   1.292176e+02  -4.804158e-02
   9.132339e+01   1.315690e+02
   3.510714e+01   1.558638e+02
  -5.447626e+01   5.200582e+01
  -5.415951e+01   2.267870e+00
  -1.690474e+01  -4.374725e+01
   2.931164e+01  -4.636524e+01
  -4.311887e+01  -2.249158e+01
  -8.031298e+01  -1.071493e+01
  -4.386596e+01  -1.940922e+01
   1.098393e+02  -5.688053e+01
   1.507243e+02   4.978508e-01
   5.885048e+01   8.089936e+01
   3.679186e+01   4.638333e+01
  -1.420120e+02   6.273901e+01
  -9.996843e+01   4.736662e+01
  -4.373767e+01  -7.675406e+01
   5.933180e+01  -4.437571e+01
   7.840231e+01  -6.162857e+00
  -2.618419e+01   1.349255e+02
  -2.015519e+01   1.269950e+01
  -5.106497e+01   6.639206e+00
  -1.834169e+01  -7.123720e+01
  -4.869071e+01  -8.028342e+01
  -6.285982e+01   4.783171e+01
  -4.027666e+01  -3.126922e+01
  -3.979338e+01  -5.455310e+01
   5.564021e+01  -1.590691e+02
   1.203867e+02  -1.350820e+02
   1.531291e+02  -2.036202e+01
   1.448772e+02   8.734704e+01
   1.246293e+01   1.099777e+02
  -9.631505e+01   5.222091e+01
  -7.114736e+01  -2.498786e+01
   3.621273e+01  -5.240025e+01
   1.183066e+02   5.070185e+01
   7.388004e+01   7.621333e+01
  -1.169769e+02   1.201462e+02
  -1.828304e+02   5.750193e+00
  -1.357989e+02  -6.261944e+01
  -4.949638e+01  -5.571114e+01
   9.846653e+00  -4.377645e+01
   6.896997e+01   1.167238e+01
  -3.111261e+01   4.313400e+00
  -9.998273e+01  -8.036507e+00
  -7.627778e+00  -1.137959e+02
   7.489297e+01  -1.304251e+02
   1.293024e+02  -4.286241e+01
   1.440943e+02   1.037509e+02
   4.034497e+01   1.970110e+02
  -3.706542e+01   1.203916e+02
  -7.483472e+01   2.552771e+01
  -4.680110e+01  -1.174201e+02
  -7.968018e+00  -1.019251e+02
   7.977331e+01  -3.272708e+01
   6.762799e+01   9.591871e+00
  -5.696280e+01   1.846925e+01
  -2.473430e+01   2.114138e+01
   2.304197e+00   3.167001e+01
   1.928654e+01   9.394879e+01
   3.508082e+01   8.372053e+01
  -2.836223e+01  -4.242922e+00
  -1.456848e+02  -1.198836e+01
  -9.462076e+01  -9.983000e+01
   2.126322e+00  -4.222125e+01
   5.604549e+01  -4.836832e+01
   2.750592e+01  -3.882937e+01
   1.734907e+01   2.257128e+00
   1.974207e+00   2.606720e+01
  -2.283329e+01   3.729000e+01
   3.257541e+01   3.784266e+00
  -2.570363e+01  -2.064135e+01
  -1.285154e+02   1.288118e+00
  -8.514668e+01   9.618401e+00
   1.998474e+01  -1.003357e+02
   8.919213e+01  -1.277264e+02
   1.725795e+02  -5.153465e+01
   1.154405e+02   5.650907e+01
   2.159792e+01   1.453385e+02
  -8.805190e+01   1.520840e+02
  -1.577531e+02   6.997825e+01
  -5.647447e+01  -5.026906e+00
  -2.252854e+01  -2.298329e+01
   3.933320e+01  -2.577155e+01
  -2.407306e+01   1.144634e+01
  -4.125104e+01  -7.739433e+01
   9.335772e+00  -7.232403e+01
   2.167140e+01  -2.439317e+01
   6.630978e+01   4.897478e+01
   7.007783e+01   1.306763e+02
   2.609152e+00   8.369349e+01
  -3.339753e+01   4.155912e+01
  -7.066024e+01  -2.870826e+01
  -2.626419e+01  -9.635837e+01
   6.044936e+01  -7.179092e+01
   1.055354e+02  -6.930675e+00
   2.572307e+01   4.430971e+01
  -3.895077e+01   4.794507e+01
  -5.750552e+01  -8.463690e+00
   2.401767e+01  -1.089757e+01
   3.990321e+01  -2.486110e+01
   6.323369e+00  -1.493436e+01
  -3.313083e+01   7.737635e+01
  -1.545877e+02   2.653418e+01
  -4.823091e+01  -2.885271e+01
  -2.383022e+00  -9.062563e+01
   6.233271e+01  -1.117035e+02
   5.538153e+01   8.476809e+00
   2.360128e+01   4.731644e+01
  -2.026104e+01   5.962992e+01
  -3.875762e+01  -4.576031e+01
  -1.892505e+01  -1.248939e+01
   1.833205e+01  -6.284487e+01
   1.544264e+01   2.947631e+01
   3.018300e+01   3.292929e+01
   2.433414e+01   2.206896e+01
  -1.078131e+01   4.704092e+01
  -1.398404e+00   2.928383e+01
  -4.566500e+01   6.865138e+01
  -3.075269e+01   5.651019e+01
  -1.965671e+01  -2.392372e+01
  -1.538827e+00  -7.691150e-01
   6.677312e+00  -7.021873e+01
   2.019356e+01  -2.718416e+01
   6.651130e+01   8.694448e+00
   3.249360e+01   4.278468e+01
  -6.862451e+01   6.923838e+01
  -9.099570e+01  -1.007623e+00
  -5.551118e+01  -4.267129e+01
   4.156130e+01  -4.178546e+01
   2.083495e+01  -2.982484e+01
   8.024746e+01  -3.086286e+01
  -5.138694e+01   1.417432e+00
  -2.010151e+01  -7.298475e+00
  -5.297143e+00  -2.740682e+01
   5.922746e+01   2.334271e+01
