
 $NMID
 id='ANONYMOUS ', fmtdat='(2E16.6)'
 volume=1.0
 tramp=1.0
 $END
   4.297931e+03   1.966064e+01
   2.903996e+03   1.818128e+03
  -7.370232e+02   2.829943e+03
  -1.955988e+03   7.389401e+02
  -9.323723e+02  -9.373964e+02
   6.934668e+02  -5.618582e+02
   9.608089e+02   4.165403e+02
   2.632835e+01   1.107535e+03
  -7.343103e+02   7.520962e+02
  -8.948763e+02  -1.925614e+02
  -3.406847e+02  -8.576758e+02
   2.656717e+02  -7.180621e+02
   6.703363e+02  -3.422153e+01
   3.842594e+02   6.206400e+02
  -2.431426e+02   7.522918e+02
  -5.473996e+02  -3.090982e+01
  -2.630157e+02  -7.316457e+02
   2.607857e+02  -6.398636e+02
   5.294817e+02  -6.206835e+01
   4.388951e+02   3.715110e+02
   3.568039e+01   4.241462e+02
  -2.650871e+02   2.364891e+02
  -1.888229e+02   1.461959e+01
   9.514094e+01  -1.310912e+02
   4.261104e+02   2.422584e+01
   2.426280e+02   4.512148e+02
  -3.237457e+02   4.442364e+02
  -8.082173e+02   7.449012e+01
  -5.617168e+02  -4.641204e+02
   2.573661e+02  -5.034649e+02
   7.159434e+02  -5.509474e+01
   3.561313e+02   4.176559e+02
  -3.077909e+02   5.160150e+02
  -4.942546e+02   2.682197e+02
  -3.406326e+02  -2.007505e+02
  -4.485513e+01  -4.777186e+02
   1.684163e+02  -2.787262e+02
   2.242011e+02   2.293300e+02
  -1.569293e+02   4.687057e+02
  -4.942378e+02   7.372903e+01
  -3.008152e+02  -7.454711e+02
   2.434192e+02  -7.043060e+02
   6.311822e+02  -2.265538e+01
   2.140511e+02   5.603882e+02
  -3.183136e+02   3.251662e+02
  -4.732250e+02  -2.814465e+02
   6.973128e+01  -4.528236e+02
   5.581800e+02  -9.775709e+01
   5.658640e+02   3.812370e+02
   1.814260e+02   4.680110e+02
  -3.253371e+02   3.847559e+02
  -6.421449e+02   8.241622e+00
  -2.477842e+02  -3.449957e+02
   1.600521e+02  -3.128108e+02
   4.450083e+02  -1.371676e+02
   1.916343e+02   1.567024e+02
  -8.482882e+01   1.452137e+02
  -1.419964e+02  -1.276054e+02
   9.529427e+01  -1.559442e+02
   3.554824e+02   1.030682e+02
   1.411579e+02   2.511661e+02
  -1.826081e+02   2.356914e+02
  -3.144614e+02   4.053436e+01
  -1.831470e+02  -7.340222e+01
   1.413156e+01  -1.694830e+02
   1.756248e+02  -3.210835e+02
   2.545938e+02  -1.959940e+02
   2.930120e+02   1.166837e+02
  -1.711043e+01   4.383576e+02
  -8.506611e+01   4.250845e+02
  -9.050088e+01   8.870688e+01
  -3.758173e+01  -3.938470e+01
  -6.097469e+01   4.360027e+01
  -1.534985e+02   1.274739e+02
  -2.561700e+02  -4.600416e+01
  -2.493270e+02  -2.188491e+02
  -1.814651e+01  -2.148445e+02
   1.994052e+02  -2.779201e+01
   2.771685e+02   2.393061e+02
   1.797307e+01   2.581085e+02
  -2.018494e+02   1.744372e+02
  -3.443226e+02  -1.369702e+02
  -1.360270e+02  -3.718248e+02
   8.167125e+01  -2.922195e+02
   2.484566e+02  -6.504967e+01
   1.254321e+02  -2.340381e+01
   4.256020e+01  -9.650589e+00
   1.517243e+02  -3.812317e+01
   3.888341e+02   7.849458e+01
   3.231928e+02   2.747402e+02
   8.351574e+01   3.938821e+02
  -2.719654e+02   3.563897e+02
  -3.480425e+02   1.325378e+02
  -3.683119e+02  -1.277888e+02
  -1.492196e+02  -2.934108e+02
   7.545760e+01  -1.957119e+02
   9.983153e+01  -3.805801e+01
  -9.003585e+01   1.323775e+02
  -2.145809e+02   5.159317e+01
  -3.187787e+01  -1.394747e+02
   1.516483e+02  -1.900535e+02
   1.109046e+02   4.105087e+01
  -3.534958e+01   1.503725e+02
  -1.780082e+02   7.984628e+01
  -1.089333e+02  -2.375604e+02
   3.305019e+00  -2.310372e+02
   1.870716e+02  -2.243635e+02
   2.391191e+02   2.193904e+01
   2.697266e+02   1.635033e+02
   1.203424e+02   2.121119e+02
  -7.299876e+01   1.737765e+02
  -1.859942e+02   7.720209e+01
  -1.933285e+01  -3.179757e+01
   8.123015e+01   3.475611e+01
  -1.721254e+01   1.236373e+02
  -8.118349e+01   7.948034e+01
  -1.471994e+02   7.879920e+00
  -4.411880e+01  -9.243979e+01
   5.336858e+01  -1.256870e+01
   6.548828e+01   2.432231e+01
  -5.710515e+01   8.853671e+01
  -2.262800e+02   2.616604e+01
  -2.856429e+02  -1.268566e+02
  -1.201944e+02  -1.823478e+02
   1.526943e+02  -2.559662e+02
   2.327904e+02  -1.475945e+02
   1.447509e+02   6.112218e+01
  -3.119055e+00   1.119581e+02
  -1.133788e+02   1.062235e+01
   4.293003e+01  -9.694066e+01
   1.616736e+02  -8.474946e+01
   1.903896e+02   9.041089e+01
   4.728995e+01   2.256105e+02
  -5.643066e+01   1.611538e+02
  -1.770674e+02   6.442354e-01
  -6.007157e+01  -7.628491e+01
   5.513232e+01  -2.239317e+01
   1.845563e+01   5.660589e+01
  -6.452217e+01   8.287653e+01
  -1.239348e+02   5.515603e+01
  -1.633564e+02  -9.605197e+01
  -2.328140e+01  -2.115708e+02
   1.031137e+02  -1.465696e+02
   1.670201e+02  -1.290515e+01
   1.052259e+02   1.186905e+02
   7.405409e+00   9.838729e+01
  -1.081553e+02   2.962046e+01
  -1.045187e+01  -1.829632e+01
  -8.012267e-01  -4.237641e+01
  -4.097139e+01   2.618893e+01
  -5.112642e+01   1.954196e+01
  -8.920616e+01  -7.608110e+01
  -2.146062e+01  -1.078568e+02
   1.141832e+02  -1.163913e+02
   2.054720e+02  -6.906978e+01
   1.750744e+02   1.564190e+02
   3.761242e+01   2.035043e+02
  -9.641295e+01   1.608808e+02
  -1.087241e+02   3.526025e+01
  -8.470385e+01  -3.339046e+01
  -4.686930e+01  -4.224563e+01
  -5.498840e+01   3.287536e-01
  -6.982373e+01   4.624446e+01
  -4.530093e+01  -4.017862e+01
   3.823227e+01  -7.034156e+01
   9.845989e+01  -2.095755e+00
   5.028619e+01   1.367347e+01
  -1.381938e+01   1.224888e+02
  -9.310373e+01   1.290788e+02
  -1.660806e+02  -3.267581e+01
  -7.196313e+01  -1.710292e+02
   6.366215e+01  -2.135369e+02
   2.037982e+02  -7.653192e+01
   1.447759e+02   3.269612e+01
   1.321722e+02   1.749628e+02
  -2.079790e+01   1.021239e+02
  -5.516024e+01   1.093328e+02
  -4.838615e+01   7.249198e+01
  -4.469052e+01   9.071211e+01
  -1.046875e+02   4.406901e+01
  -1.308526e+02  -1.982643e+00
  -1.244783e+02  -1.095232e+02
  -1.554377e+01  -2.203137e+02
   5.622568e+01  -1.789334e+02
   1.832657e+02  -2.763694e+01
   1.123020e+02   3.030154e+01
   1.511814e+01   1.469912e+02
  -3.382337e+01   5.705770e+01
  -4.443758e+01  -3.293382e+01
   3.669578e+00  -2.992818e+01
  -1.654488e+01  -1.547872e+01
  -2.115130e+01   2.383574e+01
  -7.140797e+01  -2.358421e+01
   9.779595e-01  -2.631942e+01
   2.912010e+01  -6.433399e+00
   9.920936e+01  -5.729092e+01
   8.906732e+01   2.702878e+01
   2.603643e+01   1.048321e+02
  -8.159462e+01   6.660121e+01
  -1.122325e+02  -3.220442e+00
  -5.026446e+01  -3.501256e+00
   3.967564e+01  -6.406343e+01
   5.833848e+01   2.072736e+01
   8.657793e+00   1.804017e+01
  -3.208659e+01   7.573845e+01
  -4.593072e+01   4.098005e+00
  -2.621283e+01  -1.097846e+01
  -2.779781e+01  -5.146167e+00
  -1.032132e+01   4.780415e-01
  -5.000899e+01  -1.100815e+01
  -6.099742e+00  -6.204318e+00
   3.740329e+01  -1.020504e+02
   1.072040e+02  -1.336447e+02
   6.769792e+01  -3.688703e+01
   1.144319e+02   6.752996e+01
   8.198641e+00   1.276586e+02
  -8.589555e+01   7.062131e+01
  -7.106297e+01  -8.265431e+00
   7.152847e+01   2.866747e-01
   1.194976e+02   3.171877e+01
   8.792574e+01   8.393205e+01
  -2.305122e+01   8.493680e+01
  -1.158519e+02   8.817639e+01
  -1.117419e+02  -8.642499e+01
  -5.220821e+01  -8.108377e+01
   3.980213e+00  -1.040203e+02
   5.502132e+01   1.623578e+01
  -1.891448e+01   3.076509e+01
  -1.040732e+02  -2.404754e+01
   2.343127e+00  -1.104547e+02
   3.778536e+01  -1.368335e+02
   1.433477e+02  -3.979581e+01
   1.131111e+02   6.311909e+01
   9.609628e+00   1.242133e+02
  -6.108850e+01   9.646613e+01
  -1.361449e+02   5.737761e+00
  -4.031029e+01  -1.559800e+02
  -4.500844e+01  -8.028204e+01
   3.022582e+01  -2.725859e+01
   4.418491e+01  -2.034469e+01
   8.955290e+00   1.719118e+01
   3.580577e+00  -4.068512e+01
   5.218228e+01  -1.262019e+01
   5.050631e+01   5.314356e+01
   6.756096e+01   5.386613e+01
  -2.338222e+01   2.324242e+01
  -9.268434e+01  -6.043750e+01
  -1.251337e+02  -7.507238e+01
  -1.839802e+01  -8.357890e+01
   6.613537e+01  -6.819714e-01
   4.937736e+01  -3.741197e+00
   2.171332e+01   1.426616e+01
  -2.776852e+01   3.402057e+01
  -2.434346e+00   1.027395e+01
   4.222616e+01  -3.090963e+01
   8.646450e-01  -9.462541e+00
  -6.622246e+01  -1.289134e+01
  -3.867270e+01   2.901763e+00
   5.157748e+01  -6.907250e+01
   9.179633e+01  -1.073415e+02
   1.694380e+02  -7.419373e+01
   8.496253e+01   6.069841e+01
   4.557645e+01   1.669761e+02
  -8.306507e+01   1.652194e+02
  -1.193261e+02   6.523228e+01
  -8.124139e+01   2.372822e+01
  -1.839020e+01  -1.965536e+01
   4.499356e+01  -1.201676e+01
  -2.883386e+01   1.128789e+01
   1.716481e+01  -5.801687e+01
  -5.685317e+01  -5.146776e+01
   3.790071e+01  -6.121920e+01
   1.262358e+02  -3.817710e+01
   6.106115e+01   4.764436e+01
   1.711791e-01   1.104060e+02
  -9.228796e+01   5.487727e+01
  -5.412759e+01  -6.484750e+01
  -5.602905e+01  -7.516404e+01
   5.761556e+01  -5.755312e+01
   1.031779e+02   2.141727e+01
   5.221486e+01   4.279519e+01
  -3.771776e+00   3.313720e+01
  -6.897511e+01   2.088606e+01
   4.939684e+01   3.265647e+00
   2.983916e+01  -1.401041e+01
   2.616994e+01   5.988205e+01
  -9.782812e+01   5.199626e+01
  -8.451380e+01   4.659851e+01
  -5.414012e+01   5.165741e-01
   6.667487e+00  -5.683983e+01
   2.948228e+01  -4.057232e+01
   1.079578e+01   1.520696e+01
   1.948433e+00   4.441531e+01
  -8.754482e+00   2.544869e+01
  -3.983678e+01  -1.311996e+01
  -2.545583e+01   2.184529e+00
   6.386876e-01   2.775336e-01
   4.439091e+01  -1.815519e+00
   5.128273e+01  -2.018871e+01
   4.574904e+01  -6.706831e+00
   6.603181e+00  -1.169024e+01
   2.791300e+01   1.137083e+01
  -4.404083e+01   3.518371e+01
   1.130447e+01   3.026841e+01
  -1.167199e+01   4.488138e+01
  -5.721673e+01  -2.268121e+01
   7.414277e+01  -2.589424e+01
   3.112567e+01   8.013581e+00
   5.126867e+01   2.558913e+01
  -6.196111e+00   2.024548e+01
  -5.290592e+01   5.430015e+01
  -5.776543e+01  -4.886271e+01
  -1.681295e+01  -3.083461e+01
   4.133631e+00  -4.539939e+01
   2.530358e+01   5.310804e+00
   2.557554e+01   1.099632e+01
  -1.608185e+01  -2.763123e+00
  -6.161922e+01  -1.670423e+01
   6.646196e+01  -5.851759e+01
   1.041708e+02  -5.721051e+00
