
 $NMID
 id='ANONYMOUS ', fmtdat='(2E16.6)'
 volume=1.0
 tramp=1.0
 $END
   3.626340e+03  -3.413445e+02
   2.767745e+03   1.792636e+03
  -4.855750e+01   2.005157e+03
  -1.356978e+03   1.203395e+03
  -1.008163e+03   1.210093e+01
   1.369414e+02  -2.499202e+02
   4.442905e+02   2.178373e+02
   4.029570e+00   6.218252e+02
  -4.886028e+02   4.783129e+02
  -7.171876e+02   7.958156e+00
  -3.483109e+02  -6.149517e+02
   1.838154e+02  -5.446314e+02
   3.545178e+02  -3.232432e+01
   1.722142e+02   4.887187e+02
  -1.815098e+02   5.719690e+02
  -3.610551e+02  -3.935567e+01
  -3.846749e+02  -4.578849e+02
   1.591521e+02  -6.035405e+02
   4.225589e+02  -1.804131e+02
   5.167339e+02   2.197844e+02
   4.453718e+01   3.207513e+02
  -1.171131e+02   2.350158e+02
  -1.088492e+02   1.160323e+02
   1.462098e+02   8.779039e+01
   3.082634e+02   1.917045e+02
  -5.295967e+01   3.470251e+02
  -5.184440e+02   1.234465e+02
  -6.494048e+02  -1.195240e+02
  -2.840939e+02  -3.698134e+02
   3.483356e+02  -2.791748e+02
   5.667779e+02   4.648790e+01
   2.199786e+02   4.134069e+02
  -2.837174e+02   3.317387e+02
  -4.895052e+02   1.852021e+02
  -3.668688e+02  -1.393760e+02
  -1.242629e+02  -3.255705e+02
   1.075862e+02  -1.856764e+02
  -4.588593e+00   8.919736e+01
  -1.440996e+02   2.498766e+02
  -2.485656e+02  -9.281068e+01
  -1.791713e+02  -4.677069e+02
   3.413927e+02  -4.867036e+02
   3.634583e+02   3.214862e+00
   2.236068e+02   3.676437e+02
  -1.449243e+02   1.572848e+02
  -1.900655e+02  -2.395227e+02
   1.520671e+02  -4.182801e+02
   5.100268e+02  -5.522824e+01
   4.910381e+02   2.600194e+02
   2.081471e+02   4.742952e+02
  -3.113135e+02   2.214213e+02
  -5.481206e+02  -1.110951e+02
  -2.091169e+02  -2.472460e+02
   8.760826e+01  -2.936617e+02
   3.508435e+02  -3.904378e+01
   2.584482e+02   9.421987e+01
  -5.778610e+01   6.582218e+01
  -9.604353e+01  -4.992904e+01
   8.014760e+01  -1.103151e+02
   3.378311e+02   7.389843e+01
   1.715874e+02   2.148631e+02
  -1.839353e+02   2.168697e+02
  -3.440058e+02   1.806472e+02
  -2.055458e+02  -1.256169e+02
   1.434476e+01  -2.524575e+02
   3.053875e+02  -3.414870e+02
   3.329603e+02  -1.193148e+02
   2.234404e+02   2.177582e+02
   5.183691e+01   3.239475e+02
  -3.707861e+01   3.787491e+02
  -5.198901e+01   1.519461e+02
   4.111365e+00   9.458509e+01
  -1.433558e+02   1.166190e+02
  -2.917266e+02   1.066782e+02
  -2.355620e+02  -1.345359e+02
  -1.151461e+02  -3.063805e+02
   5.854368e+01  -1.855872e+02
   1.822493e+02   2.698229e+01
   1.087571e+02   2.737507e+02
   8.360144e-01   2.958899e+02
  -2.584828e+02   9.137479e+01
  -2.950297e+02  -1.282529e+02
  -1.621429e+02  -2.971857e+02
   2.639675e+01  -2.471367e+02
   1.974129e+02  -1.269168e+02
   1.601385e+02  -3.332740e+01
   1.166297e+02  -9.052494e+01
   2.814116e+02  -1.542987e+01
   3.982852e+02   8.359962e+01
   2.725232e+02   3.928782e+02
  -2.048870e+01   4.380157e+02
  -3.308676e+02   3.551590e+02
  -3.938060e+02   1.891831e+02
  -3.236090e+02  -1.100325e+02
  -9.004920e+01  -2.712081e+02
   8.760823e+01  -2.268578e+02
   4.188108e+01  -3.233091e+01
  -1.223225e+02   3.387454e+01
  -1.416770e+02  -3.243452e+01
   4.453648e+01  -1.569225e+02
   4.373493e+01  -8.617075e+01
   1.352936e+02   7.173793e+01
  -6.575555e+01   1.374783e+02
  -2.302376e+02   1.194672e+01
  -1.442994e+02  -2.338563e+02
   3.955330e+00  -3.622403e+02
   2.557132e+02  -2.345649e+02
   3.145351e+02   6.114591e+01
   2.956152e+02   2.752302e+02
   7.024792e+01   2.460298e+02
  -1.198192e+02   1.445294e+02
  -1.724632e+02   2.173773e+01
  -2.172210e+00  -1.730339e+01
   4.300185e+01   7.401544e+01
   2.960050e+01   9.294204e+01
  -1.144625e+02   1.143273e+02
  -1.749107e+02  -4.821961e+01
  -5.565294e+01  -1.336750e+02
   7.671902e+01  -2.842454e+01
   4.081632e+01   1.070918e+02
  -1.456159e+02   1.269219e+02
  -3.254064e+02  -1.436710e+01
  -2.591833e+02  -1.698539e+02
   2.543954e+01  -2.813719e+02
   1.704177e+02  -2.754178e+02
   2.605476e+02  -1.259557e+02
   1.170252e+02   2.712658e+01
  -3.838001e+01   5.982896e+01
  -9.062439e+01   1.316455e+01
   5.006808e+01  -1.101729e+02
   1.717061e+02  -4.398593e+01
   1.990736e+02   1.394447e+02
   8.941633e+01   1.428849e+02
  -8.934314e+01   7.802525e+01
  -1.520976e+02   3.363543e+01
  -1.048737e+02  -5.538154e+01
   3.255822e+01  -1.136853e+01
   2.670193e+01   1.052982e+02
  -1.225302e+02   9.321782e+01
  -1.722135e+02   6.337881e+00
  -1.968896e+02  -7.727765e+01
  -3.494448e+01  -1.814141e+02
   1.450492e+02  -1.413880e+02
   1.818499e+02   1.064996e+01
   4.135897e+01   6.527974e+01
  -5.752743e+01   1.069895e+02
  -7.666356e+01   3.860540e+01
  -3.127747e+01  -1.081871e+01
  -5.333754e+00  -3.436923e+01
  -7.833711e+00  -6.409210e-02
  -1.167562e+02  -2.150064e+01
  -1.153828e+02  -9.590511e+01
   2.823277e+01  -1.808376e+02
   1.583529e+02  -1.821799e+02
   2.547106e+02  -6.124740e+00
   1.652205e+02   1.397584e+02
   1.153016e+01   2.344838e+02
  -1.121011e+02   1.524106e+02
  -1.397358e+02   7.816999e+00
  -8.719256e+01  -9.086790e+01
  -2.632326e+01   3.898357e-01
  -3.789357e+01   3.636348e+01
  -8.023196e+01  -2.639962e+01
  -7.512766e+01  -7.827523e+01
   1.803193e+01  -5.025632e+01
   1.243950e+02  -9.440081e+01
   1.223602e+02   6.214572e+01
  -2.624865e+01   1.455994e+02
  -1.721726e+02   1.013109e+02
  -1.987111e+02  -8.312992e+01
  -8.698281e+01  -2.172457e+02
   1.487275e+02  -2.690779e+02
   2.407316e+02  -9.342108e+01
   2.643451e+02   1.541786e+02
   1.236123e+02   1.633486e+02
  -2.235341e+01   1.506012e+02
  -7.839684e+01   1.310902e+02
  -1.058883e+02   1.349533e+02
  -2.035886e+00   9.815023e+01
  -1.221948e+02   2.689330e+01
  -1.416203e+02  -3.164498e+01
  -1.301226e+02  -1.637701e+02
   4.631124e+00  -1.920016e+02
   1.267898e+02  -2.087461e+02
   1.190013e+02   9.853793e+00
   1.046593e+02   1.447547e+02
  -1.592426e+01   1.557626e+02
  -2.656569e+01   8.876442e+01
  -4.337393e+01  -1.639421e+00
   1.049140e+01  -6.752321e+01
   2.810773e+00   7.298926e+00
  -7.395439e+00   1.346100e+01
  -1.089035e+02  -3.506796e+01
  -1.700716e+01  -3.482518e+01
   4.573834e+01  -1.770514e+01
   1.538791e+02  -5.252455e+01
   1.492954e+02   8.220827e+01
   2.202926e+01   8.378706e+01
  -1.396449e+02   4.328381e+01
  -1.475915e+02   8.088147e+00
  -6.546747e+01  -5.951806e+01
   4.787803e+01  -4.872280e+01
   6.050513e+01   3.416863e+01
   6.271143e+01   4.592977e+01
  -6.828681e+01   4.046614e+01
  -7.463729e+01   9.812574e+00
  -3.513334e+01  -6.969416e+01
   2.215906e+00  -2.296095e+01
  -5.988490e+01  -1.680969e+00
  -6.877202e+01  -1.427263e+01
  -8.663041e+01  -7.357982e+01
   5.975614e+01  -1.961485e+02
   1.882282e+02  -1.787400e+02
   1.570831e+02  -3.920527e+01
   1.545841e+02   9.788688e+01
  -6.099968e+00   1.287048e+02
  -8.367316e+01   4.258841e+01
  -6.451545e+01  -1.068886e+01
   3.183288e+01  -3.240409e+00
   1.171007e+02  -9.769915e+00
   8.031845e+01   1.326835e+02
  -9.063024e+01   1.027181e+02
  -1.742271e+02   4.745945e+01
  -1.276154e+02  -2.796592e+01
  -3.272031e+01  -8.118904e+01
   4.489165e+01  -4.095011e+01
   1.073156e+02  -6.111624e+00
  -3.405030e+01   1.786789e+01
  -1.450618e+02  -2.043034e+01
  -1.234199e+01  -1.140210e+02
   9.575028e+01  -1.667081e+02
   1.677727e+02  -3.437811e+01
   1.491673e+02   1.073975e+02
  -6.272546e+01   1.742386e+02
  -9.134814e+01   1.242348e+02
  -1.086727e+02  -3.080420e+01
  -6.478675e+01  -1.120661e+02
   1.867396e+01  -1.088013e+02
   2.747460e+01   1.051155e+01
   4.282779e+01   5.730825e+01
   1.485512e+01   2.639034e+01
   5.490440e+01   5.132464e+00
   1.110104e+01   2.964264e+01
   5.810977e+01   1.400134e+02
   3.638461e+01   9.863954e+01
  -1.878793e+01   5.019273e+01
  -6.743979e+01  -4.803002e+01
  -1.139182e+02  -7.336368e+01
  -2.858254e+01  -4.220096e+01
   9.039402e+01  -4.294172e+01
   6.003245e+01   1.147864e+01
   4.834537e+01   1.224374e+01
  -1.393773e+01   6.146238e+01
  -1.644125e+01   2.125052e+01
  -1.051023e+01  -1.236816e+00
  -3.203154e+01  -3.868394e+01
  -4.057508e+01   4.649476e+01
  -7.391104e+01  -1.027484e+01
  -1.617319e+01  -3.392373e+01
   1.100160e+02  -1.027814e+02
   1.826194e+02  -7.992849e+01
   1.520003e+02   5.136344e+01
   2.874788e+01   1.475839e+02
  -4.863340e+01   1.851492e+02
  -1.309370e+02   7.908485e+01
  -7.187168e+01  -3.603084e+01
  -9.633608e+00  -7.412509e+01
   1.353327e+00  -1.042897e+01
   8.789440e-01   5.905470e+00
  -3.343627e+01  -4.757736e+01
  -5.285100e+01  -1.137256e+02
   4.218466e+01  -6.974302e+01
   6.410497e+01  -1.874227e+01
   4.630107e+01   7.879963e+01
  -9.202919e+00   1.266394e+02
  -5.618609e+01   3.076737e+01
  -6.648588e+01  -7.153090e+01
  -2.755308e+01  -1.128212e+02
   9.798493e+01  -6.353113e+01
   1.100566e+02   1.370273e+01
   3.522581e+01   4.579148e+01
  -2.229602e+01   7.671989e+01
  -5.797145e+01   1.735668e+01
   3.777286e+01  -2.608218e+01
   7.605751e+01   5.444630e+00
   2.406987e+01   4.242733e+01
  -3.105861e+01   7.687857e+01
  -1.160137e+02   7.550692e+01
  -4.816090e+01  -2.482819e+01
  -2.370263e+01  -8.853852e+01
   5.184315e+01  -7.583884e+01
   8.743382e+01  -3.123064e+01
  -1.393372e+01   3.677145e+01
  -3.254382e+01   5.801258e+01
  -4.546490e+01   2.009658e+00
  -6.910137e+00  -6.298288e+01
   2.181992e+01  -5.061397e+01
   5.987187e+01  -6.310011e+00
   5.702912e+01   1.422331e+01
   2.747060e+01   3.507551e+01
   6.569742e+00  -8.945653e+00
   2.778786e+01   5.079528e+00
   6.850555e+00   4.664158e+01
  -1.256356e+01   5.006862e+01
  -2.347496e+01   3.327027e+01
  -1.341255e+01  -2.525107e+01
   1.153253e+01  -2.857576e+01
   9.299301e+01  -2.496199e+01
   8.864289e+01   2.660305e+00
   5.750280e+01   6.352005e+01
  -6.364022e+01   5.665314e+01
  -9.892211e+01  -1.249534e+00
  -9.205535e+01  -7.002593e+00
   7.063620e+01  -7.649797e+01
   4.363374e+01   6.679765e+00
   5.191489e+01  -5.964168e+01
  -2.545766e+01   1.156449e+01
   4.468294e+00  -2.172151e+01
   3.333358e+01  -4.261302e+01
   6.655150e+01  -1.857319e+01
