
 $NMID
 id='ANONYMOUS ', fmtdat='(2E16.6)'
 volume=1.0
 tramp=1.0
 $END
  -4.011931e+03   9.738954e+01
  -2.768769e+03  -1.686676e+03
   5.749689e+02  -3.011112e+03
   2.104094e+03  -8.682585e+02
   8.817364e+02   7.894022e+02
  -5.393910e+02   5.727115e+02
  -7.990743e+02  -3.862441e+02
  -4.766338e+01  -1.111922e+03
   8.044312e+02  -7.918548e+02
   9.763405e+02   1.457904e+02
   4.088496e+02   8.003103e+02
  -2.240891e+02   8.203430e+02
  -7.092555e+02  -2.188398e+01
  -3.890153e+02  -5.881101e+02
   2.433034e+02  -7.422665e+02
   5.097379e+02  -8.758481e+00
   2.999389e+02   6.073248e+02
  -2.573811e+02   5.660266e+02
  -5.330288e+02   1.961647e+01
  -3.757576e+02  -3.362129e+02
   2.314205e+01  -3.563708e+02
   2.469882e+02  -2.271726e+02
   1.933567e+02  -3.460557e+01
  -5.181840e+01   7.619009e+01
  -4.066932e+02  -8.220756e+01
  -2.292595e+02  -4.360083e+02
   3.878343e+02  -4.469232e+02
   7.291733e+02  -1.024479e+02
   5.202769e+02   5.054271e+02
  -2.928487e+02   5.075510e+02
  -6.448763e+02   9.513839e+01
  -3.215882e+02  -3.596530e+02
   2.553486e+02  -4.458090e+02
   5.048920e+02  -2.462902e+02
   3.595601e+02   1.815828e+02
   1.000487e+02   4.854420e+02
  -1.558571e+02   2.974944e+02
  -2.477600e+02  -2.284989e+02
   9.581190e+01  -5.045301e+02
   4.615102e+02   1.219314e+00
   3.149387e+02   7.075147e+02
  -2.212923e+02   6.048442e+02
  -6.506662e+02  -8.821625e+00
  -2.646837e+02  -5.402035e+02
   2.578981e+02  -2.725699e+02
   4.222381e+02   3.070203e+02
   1.105613e+01   4.887809e+02
  -5.369293e+02   2.603874e+02
  -5.035869e+02  -3.261171e+02
  -2.457509e+02  -5.162366e+02
   2.478822e+02  -3.313146e+02
   6.165561e+02   7.679973e-01
   3.133852e+02   3.602929e+02
  -1.600665e+02   3.701874e+02
  -4.090418e+02   1.042507e+02
  -1.954517e+02  -1.891763e+02
   1.283612e+02  -1.012268e+02
   1.978730e+02   1.449126e+02
  -1.252476e+02   1.995757e+02
  -3.578298e+02  -1.216668e+02
  -1.337366e+02  -2.390870e+02
   1.410299e+02  -2.718630e+02
   3.130752e+02  -9.214887e+00
   1.154846e+02   8.374365e+01
   1.604116e+01   1.094589e+02
  -1.447394e+02   3.040219e+02
  -1.833111e+02   1.903865e+02
  -2.837563e+02  -9.019880e+01
  -2.285426e+01  -4.020100e+02
   9.908408e+00  -4.279527e+02
   1.765119e+02  -5.260405e+01
   5.281896e+00   3.901460e+01
   4.398065e+01  -7.279144e+01
   2.046928e+02  -1.545676e+02
   2.288928e+02   2.959444e+01
   2.157197e+02   1.840877e+02
  -2.820313e+01   1.832485e+02
  -2.101303e+02   1.424220e+01
  -2.306098e+02  -1.879599e+02
  -3.822148e+01  -2.671272e+02
   2.030044e+02  -1.665457e+02
   3.502167e+02   1.392907e+02
   1.296884e+02   3.453995e+02
  -6.194355e+01   2.845722e+02
  -2.322300e+02   8.129133e+01
  -1.466621e+02  -5.507644e+00
  -6.869952e+01  -5.854091e+00
  -1.959171e+02   1.008265e+02
  -3.284947e+02  -3.865638e+01
  -3.186683e+02  -2.400461e+02
  -6.720163e+01  -3.721569e+02
   2.803317e+02  -3.246146e+02
   4.432396e+02  -1.610820e+02
   3.451103e+02   9.745805e+01
   5.002323e+01   2.653006e+02
  -1.175468e+02   2.481203e+02
  -9.602351e+01   4.445347e+01
   7.011755e+01  -1.004544e+02
   1.941521e+02  -4.311946e+01
   4.609241e+01   1.395759e+02
  -1.649939e+02   1.634350e+02
  -1.899870e+02  -3.129398e+01
   8.732528e+00  -1.811967e+02
   1.906190e+02  -3.917869e+01
   1.351811e+02   2.606694e+02
  -4.246844e+01   2.927175e+02
  -1.330422e+02   1.670256e+02
  -2.471324e+02  -8.162986e+01
  -2.041883e+02  -1.739889e+02
  -1.120993e+02  -2.508132e+02
   8.218245e+01  -1.562038e+02
   2.188427e+02  -3.872389e+01
   7.891156e+01   3.018584e+01
  -1.004221e+02  -2.231570e+01
  -3.098934e+01  -8.221694e+01
   8.965377e+01  -8.801308e+01
   1.454023e+02  -2.518323e+01
   7.054336e+01   8.854844e+01
  -6.909465e+01  -1.361425e+00
  -3.272805e+01  -5.627463e+01
   1.171922e+02  -1.258989e+02
   2.469233e+02  -6.047550e+01
   2.580454e+02   1.499791e+02
   1.013576e+02   1.526661e+02
  -1.437472e+02   2.392497e+02
  -2.273701e+02   1.197933e+02
  -1.304476e+02  -3.466721e+01
  -1.542496e+01  -7.974369e+01
   7.320156e+01  -5.554726e+00
  -1.766691e+01   8.049902e+01
  -1.281776e+02   6.573924e+01
  -2.223747e+02  -2.678356e+01
  -6.360028e+01  -1.682093e+02
   1.015836e+02  -1.714825e+02
   1.334578e+02  -1.607413e+01
   8.028401e+01   3.776939e+01
   2.960999e+00   4.270690e+01
  -1.288526e+01  -6.604946e+01
   6.169312e+01  -1.076408e+02
   1.410996e+02  -2.766722e+01
   1.833282e+02   8.689055e+01
   4.585017e+01   1.833356e+02
  -1.383373e+02   1.300861e+02
  -1.946351e+02   4.887470e+01
  -7.264297e+01  -1.168360e+02
   6.384007e+01  -8.290359e+01
   1.056610e+02   2.168391e+00
   5.288506e+01   3.402072e+01
  -1.566677e+01   3.296741e+01
  -2.226974e+01   1.582819e+01
   8.081622e+01  -3.263726e+01
   1.061900e+02   5.537509e+01
   1.937030e+01   1.159455e+02
  -5.356295e+01   1.315878e+02
  -2.470642e+02   5.327967e+01
  -1.617367e+02  -1.390090e+02
  -5.182022e+01  -1.470182e+02
   4.829911e+01  -8.595057e+01
   1.232725e+02  -1.543275e+01
   4.531816e+01   6.200769e+01
  -9.645914e+00   1.649564e+01
   7.559978e+01  -2.252510e+01
   1.037316e+02  -1.736567e+01
   3.326109e+00   3.374857e+01
  -4.295104e+01   2.434781e+01
  -6.587242e+01   2.285132e+01
  -6.025324e+01  -4.621708e+00
   4.112997e+01  -4.661086e+01
   1.413314e+02  -7.644807e+01
   1.983658e+02  -6.691226e+00
   6.619871e+01   1.914288e+02
  -4.386082e+01   2.160349e+02
  -1.898235e+02   1.272718e+02
  -2.531280e+02  -1.039040e+02
  -9.147877e+01  -7.610857e+01
   4.084293e+01  -1.159010e+02
   8.801648e+01  -9.987809e+01
   5.136807e+01  -1.364508e+02
   4.191445e+01  -3.749556e+01
   8.407124e+01  -6.025396e+01
   1.076775e+02   5.382699e+01
   8.565080e+01   1.542457e+02
   5.539625e+01   1.573080e+02
  -6.883330e+01   1.332360e+02
  -1.501182e+02   7.011674e+01
  -1.829208e+02  -8.414041e+01
  -6.999401e+01  -1.284420e+02
   5.445119e+01  -9.362713e+01
   4.556889e+01  -1.666454e+01
  -9.152087e+00   4.700534e+01
   1.300943e+01   1.476324e+01
  -5.040237e+00   6.106610e+00
   5.567834e+01   4.276496e+01
   5.320046e+01   3.167063e+01
  -7.116395e+01   5.071877e+01
  -1.583808e+02   2.909925e+01
  -1.091620e+02   1.116477e+01
  -2.011704e+01  -1.001614e+02
   6.421278e+01  -7.582613e+01
   1.115600e+02  -3.200605e+01
   5.795942e+01   7.134288e+00
  -4.713169e+01   2.904371e+01
  -7.785832e+01  -2.878884e+00
  -1.331344e+01  -6.564157e+01
   5.913711e+01  -2.815203e+01
  -1.929172e+01   2.019616e+01
   5.310161e+01   4.551731e+01
   3.332215e+01   4.964081e+01
   7.929505e+01   1.769385e+01
   2.764484e+01   1.045758e+01
   5.625686e+01   2.650921e+01
   6.309237e-01   1.345723e+02
  -1.035374e+02   9.264702e+01
  -8.744868e+01   7.100331e+00
  -1.084884e+02  -9.646974e+01
  -2.989235e+01  -7.065904e+01
   1.643085e+01  -7.087206e+01
   5.546051e+01  -3.066185e+01
  -6.473794e+01   3.721950e+00
  -1.231337e+02  -1.074724e+02
  -6.870690e+01  -1.142041e+02
   4.950209e+01  -7.381998e+01
   1.311373e+02  -3.431518e+01
   1.320838e+02  -3.454503e+00
   2.596593e+01   4.866713e+01
  -6.727499e+01   6.885751e+01
  -3.279193e+00  -4.260361e+00
   4.636883e+01   5.183600e+00
   8.712297e+01   1.490062e+01
  -4.924424e+00   1.025019e+02
  -7.736660e+01   7.304004e+01
  -1.350259e+02   4.641866e+01
  -9.391881e+01  -2.243513e+01
   1.444202e+01  -1.698819e+02
   9.243255e+01  -1.487159e+02
   8.866614e+01   4.896718e+00
   1.052290e+02   5.879960e+01
   4.111517e+01   7.998233e+01
  -5.963244e+01   2.618231e+01
  -6.432029e+01   1.414919e+00
  -2.057112e+01  -1.807048e+01
   1.879820e+01   2.996943e+01
  -2.204819e+01   9.719049e+00
  -1.215721e+02  -7.675075e+01
  -3.166099e+01  -1.001207e+02
   1.267869e+01  -4.908257e+01
   1.009488e+02   1.184441e+01
   1.032357e+02   4.904421e+01
   2.570546e+01   5.039077e+01
  -9.041740e+01   5.071867e+01
  -4.209598e+01   9.512051e+00
  -7.154181e+00  -1.213587e+00
   4.021003e+01   6.381326e+00
   1.177647e+01   3.142612e+00
  -1.675455e+01  -3.948878e+01
  -2.516675e+01  -6.760064e+00
   8.718146e+01   3.854845e+00
   4.907861e+01   2.117955e+01
  -3.158430e+01   8.315321e+01
  -8.918695e+01   9.354884e+01
  -1.312768e+02   6.612305e+01
  -1.200952e+02  -6.925255e+01
  -6.851564e+01  -1.172396e+02
   1.167309e+02  -1.552841e+02
   7.751445e+01  -4.389342e+01
   3.609818e+01   1.754193e+01
   3.930607e+01   6.153727e+01
  -1.296140e+00   1.849385e+01
   9.198129e+00  -1.083729e+01
   6.052487e+01   4.040184e+01
   1.815609e+01   9.796128e+01
  -3.160196e+01   4.990459e+01
  -5.672980e+01  -1.082393e+01
  -5.254040e+01  -8.781586e+01
   9.803403e+00  -1.190909e+02
   5.644640e+01  -7.031189e+01
   6.522573e+01   4.831272e+01
   6.680771e+00   1.136329e+02
  -8.534106e+01   1.977700e+01
  -6.513806e+01  -1.284677e+01
  -2.979031e+01  -1.425522e+01
   1.585035e+01  -2.648524e+01
   3.208300e+01   9.433008e+00
  -3.774004e+01   1.832961e+01
  -5.418928e+01   3.779782e+00
  -2.873706e+01  -5.110417e+01
   1.143379e+02  -9.782967e+01
   9.558980e+01  -7.718382e+01
   5.684792e+01   4.593126e+00
  -9.858873e+00   9.612300e+01
  -2.062121e+01   4.050738e+01
  -4.970499e+00  -3.519786e+01
   6.188843e+01  -5.666178e+01
   2.743832e+01  -6.715987e+01
   2.880126e+01   3.947222e+01
   2.269641e+01   2.914725e+01
  -4.054580e+00   1.126945e+01
  -4.344846e+01   1.013384e+01
  -5.924581e+01  -1.099739e+01
   1.169306e+01   7.318501e+00
  -1.818983e+00  -9.445028e+00
  -6.695485e+00  -2.896743e+00
   1.508748e+01  -3.328550e+01
   3.305361e+01  -1.201467e+01
   2.955002e+01   1.689229e+00
   4.344219e+01   3.510659e+01
   1.290239e+01   5.590453e+01
  -4.045707e+01   6.371257e+01
  -6.356895e+00  -2.386945e+01
  -1.365390e+01  -7.200869e+01
   9.041799e+01  -5.073001e+01
   9.943439e+01  -3.163544e+01
   1.788258e+00   2.217977e+01
  -5.734741e+01   3.454816e+01
  -4.995722e+00  -2.347670e+00
  -2.284483e+01   2.719828e+01
   3.995224e+01   2.388283e+00
   3.797589e+01   2.753525e+01
   1.108999e+01   2.097286e+01
  -1.154824e+02   2.848105e+01
