
 $NMID
 id='ANONYMOUS ', fmtdat='(2E16.6)'
 volume=1.0
 tramp=1.0
 $END
  -4.566983e+03   2.364746e+02
  -3.123394e+03  -3.071418e+03
   1.056644e+03  -2.839980e+03
   2.483551e+03  -8.469622e+02
   1.066787e+03   8.721150e+02
  -8.476327e+02   6.502889e+02
  -1.009003e+03  -4.421031e+02
   2.577676e+01  -1.015511e+03
   8.931444e+02  -8.011975e+02
   9.241014e+02   1.172351e+01
   5.420462e+02   8.265906e+02
  -1.521096e+02   8.920759e+02
  -6.037944e+02   3.562099e+01
  -3.550632e+02  -8.076682e+02
   2.988237e+02  -8.153550e+02
   6.054613e+02   1.028607e+02
   1.972076e+02   9.419823e+02
  -4.372661e+02   6.604344e+02
  -5.587567e+02   1.403963e+02
  -3.481119e+02  -4.061290e+02
  -1.776813e+01  -4.075572e+02
   2.440034e+02  -2.742277e+02
   2.883713e+02  -3.663699e+01
  -7.215616e+01   1.550448e+02
  -4.445799e+02  -9.958722e+01
  -9.976415e+01  -4.696477e+02
   4.096887e+02  -4.527000e+02
   9.170289e+02   2.424241e+01
   5.125502e+02   6.735952e+02
  -4.469596e+02   6.009752e+02
  -8.239086e+02  -8.892473e+01
  -4.155681e+02  -4.607042e+02
   3.142765e+02  -4.932108e+02
   6.450378e+02  -2.796358e+02
   4.121422e+02   3.066909e+02
   6.465776e+01   4.984110e+02
  -3.295736e+02   3.574022e+02
  -2.812288e+02  -3.300902e+02
   1.637937e+02  -5.247230e+02
   5.266399e+02  -4.241840e+01
   2.109846e+02   6.989632e+02
  -2.573917e+02   8.711657e+02
  -7.564993e+02   7.659894e+01
  -3.017349e+02  -5.488330e+02
   2.740945e+02  -3.658645e+02
   3.999265e+02   3.705621e+02
  -3.442481e+01   5.722315e+02
  -6.332692e+02   1.869051e+02
  -6.869085e+02  -3.730404e+02
  -1.876203e+02  -5.811016e+02
   4.359427e+02  -4.065015e+02
   6.745538e+02   1.120211e+02
   4.044633e+02   4.168207e+02
  -1.906593e+02   3.855105e+02
  -4.192047e+02   7.835976e+01
  -2.997861e+02  -2.390382e+02
   1.600501e+02  -8.432423e+01
   1.357664e+02   1.626628e+02
  -9.834730e+01   1.991764e+02
  -4.551013e+02  -1.039900e+02
  -1.578111e+02  -3.647039e+02
   1.784177e+02  -2.210581e+02
   3.873233e+02  -7.318065e+01
   1.926690e+02   3.636648e+01
   4.841723e+01   2.779877e+02
  -2.216005e+02   3.323003e+02
  -3.037047e+02   2.280487e+02
  -2.767610e+02  -1.190950e+02
  -1.639339e+02  -4.548286e+02
   1.660994e+02  -4.335645e+02
   1.141927e+02  -5.797171e+01
   5.867391e+01   2.753588e+01
  -3.097360e+00  -1.101543e+02
   2.003989e+02  -1.794908e+02
   2.772040e+02  -1.294254e+01
   1.927952e+02   2.820396e+02
  -5.503504e+01   2.936077e+02
  -2.413795e+02   8.117589e+00
  -2.682941e+02  -1.789658e+02
  -5.030780e+00  -3.030098e+02
   2.804771e+02  -1.218436e+02
   4.302081e+02   1.335747e+02
   2.569687e+02   3.471735e+02
  -4.380481e+01   2.681780e+02
  -2.111519e+02   1.474670e+02
  -9.737099e+01   2.599284e+00
  -1.091199e+02   3.632662e+01
  -1.759062e+02   4.010216e+01
  -3.968513e+02  -5.631980e+01
  -3.320460e+02  -3.000865e+02
  -5.958079e+01  -4.524834e+02
   2.628360e+02  -4.205543e+02
   4.839276e+02  -1.951692e+02
   4.097806e+02   9.549360e+01
   5.363681e+01   3.267750e+02
  -1.440706e+02   2.864470e+02
  -1.102677e+02   2.379979e+01
   1.275126e+02  -1.364302e+02
   1.997165e+02  -1.834249e+01
   8.140759e+01   2.145529e+02
  -1.803227e+02   2.395074e+02
  -1.847490e+02  -7.752274e+01
   4.338710e+01  -1.926192e+02
   2.339964e+02  -5.885308e+01
   2.491308e+02   2.661294e+02
  -1.418294e+01   3.592699e+02
  -2.273785e+02   2.266827e+02
  -2.887632e+02  -5.689390e+01
  -2.432362e+02  -2.287920e+02
  -1.379874e+02  -2.594301e+02
   1.137382e+02  -1.690828e+02
   2.241158e+02  -3.483837e+01
   8.490692e+01   4.983027e+01
  -7.128152e+01  -3.302107e+01
  -1.314055e+01  -1.493820e+02
   8.768481e+01  -1.217359e+02
   1.862508e+02  -1.839614e+00
   6.391237e+01   3.830250e+01
  -1.048788e+02   2.637595e+01
  -4.847770e+01  -6.290312e+01
   1.235790e+02  -7.528572e+01
   2.613558e+02  -2.564950e+01
   2.284654e+02   1.558191e+02
   5.780161e+01   2.221252e+02
  -1.621968e+02   2.741087e+02
  -2.567209e+02   1.642993e+02
  -2.093633e+02  -7.262189e+01
   1.289897e+01  -1.126160e+02
   8.399949e+01  -1.428771e+01
  -9.535849e+00   1.349920e+02
  -1.891743e+02   6.761617e+01
  -2.237476e+02  -6.458449e+01
  -4.151071e+01  -1.947244e+02
   7.600597e+01  -1.937319e+02
   1.582478e+02  -5.187081e+01
   9.589070e+01   5.366027e+01
  -3.568902e+00  -1.108690e+01
  -1.823377e+01  -7.172224e+01
   9.782192e+01  -1.162343e+02
   1.986231e+02  -2.649730e+01
   1.728702e+02   8.320568e+01
   1.874297e+01   2.325334e+02
  -1.702134e+02   1.522504e+02
  -1.770899e+02  -2.941117e+01
  -2.436726e+01  -1.493896e+02
   5.586282e+01  -1.184294e+02
   1.175485e+02  -3.647350e+00
   2.932980e+01   3.566497e+01
  -2.384724e+01   1.409155e+01
  -8.953979e+00  -8.081196e+00
   6.336611e+01  -4.235734e+00
   9.082758e+01   8.098587e+01
   2.736516e+01   1.477392e+02
  -1.369973e+02   1.373848e+02
  -2.282674e+02   2.840719e+01
  -2.159478e+02  -1.302881e+02
  -4.625819e+01  -2.756458e+02
   1.239251e+02  -1.987211e+02
   1.390211e+02   1.667450e+01
   8.704212e+01   3.007022e+01
   7.584373e+01   4.536299e+01
   8.104402e+01  -3.007045e+01
   4.709722e+01  -7.003565e+00
   5.378166e+01   4.462340e+01
  -3.836986e+01   1.270419e+02
  -1.005910e+02   4.808252e+01
  -9.596218e+01  -1.995478e+01
   4.955866e+00  -8.717316e+01
   1.394810e+02  -1.096282e+02
   2.103540e+02  -1.473028e+01
   7.752298e+01   2.017455e+02
  -7.438698e+01   2.702474e+02
  -2.767680e+02   1.156281e+02
  -1.772960e+02  -5.303767e+01
  -1.164057e+02  -1.783462e+02
   5.052666e+01  -1.778337e+02
   6.695799e+01  -6.803626e+01
   4.165031e+01  -7.702877e+01
   7.797682e+01  -1.057114e+02
   1.018980e+02  -7.617613e+01
   9.671404e+01   1.579222e+01
   1.315322e+02   1.457912e+02
   5.647265e+01   1.809828e+02
  -8.700333e+01   1.719726e+02
  -1.941808e+02  -1.201967e+01
  -1.230834e+02  -1.379938e+02
  -3.073352e+01  -1.623865e+02
   8.803530e+01  -9.409856e+01
   3.205741e+01   3.490635e+00
  -2.433459e+01   4.109578e+01
  -2.886230e+00   2.116695e+01
   2.324088e+01   3.142995e+01
   7.957008e+01   5.738320e+01
   3.552000e+01   4.099867e+01
  -5.183227e+01   3.336456e+01
  -1.169309e+02  -1.188590e+01
  -1.181625e+02  -4.748114e+01
  -3.735980e+00  -1.001638e+02
   1.140397e+02  -7.412640e+01
   1.277731e+02  -3.714605e+01
   7.118887e+01   5.287474e+01
  -5.190560e+01   2.260143e+01
  -1.046126e+02   1.834850e+01
  -3.745030e+01  -6.845957e+01
   3.028703e+01  -6.992493e+01
   1.073720e+02  -1.107382e+01
   3.344348e+01   8.145329e+01
   4.882692e+01  -5.107076e+00
   1.192159e+02   1.875266e+00
   5.686912e+01   7.435186e+00
   3.600942e+01   4.644191e+01
  -6.272717e+00   1.479469e+02
  -1.013716e+02   1.750473e+02
  -2.436198e+02   7.033091e+01
  -1.232730e+02  -1.235251e+02
   1.614829e+01  -1.237974e+02
   7.149443e+01  -5.764724e+01
   4.569852e+01   2.134816e+01
  -6.299338e+01   1.135130e+01
  -1.713203e+02  -5.109285e+01
  -5.675933e+01  -1.049595e+02
   1.188343e+02  -1.089771e+02
   1.810268e+02  -6.650800e+01
   1.417230e+02   5.359621e+01
   1.913190e+01   5.397676e+01
  -3.706466e+01   2.782105e+01
  -3.561188e+01  -1.478387e+01
   7.578195e+00  -1.319048e+01
   1.140500e+02   2.739849e+01
   1.365973e+01   1.454769e+02
  -1.167002e+02   2.250121e+02
  -1.593782e+02   5.084595e+01
  -1.433895e+02  -6.068539e+01
  -2.813219e+01  -1.826138e+02
   8.251185e+01  -1.751927e+02
   1.110355e+02  -5.049324e+01
   6.147903e+01   1.119977e+02
  -3.134317e+01   7.979287e+01
  -5.233002e+01   3.351577e+01
  -2.716442e+01  -5.081014e+01
  -3.036938e+01   4.342712e+01
  -1.587133e+01   4.121991e+01
   4.559513e+01  -1.976881e+01
  -5.291797e+01  -9.344737e+01
  -3.912964e+01  -6.194901e+01
   6.549582e+01  -7.464424e+01
   2.018715e+02   1.015893e+01
   1.429930e+02   9.320099e+01
   1.035435e+01   7.123613e+01
  -7.325575e+01  -4.010849e+00
  -1.116211e+02   7.699866e-01
  -3.120684e+01  -3.085385e+01
   2.297099e+01  -6.804257e+00
  -2.025074e+01  -1.740175e+01
  -3.142812e+01  -2.551049e+01
  -2.078986e+01   2.995319e+01
   1.107870e+02   3.036088e+01
   9.081355e+01   4.150811e+01
   1.607429e+01   9.445990e+01
  -9.145505e+01   1.140402e+02
  -1.998465e+02   4.123511e+01
  -1.184452e+02  -1.718468e+01
  -5.547460e+01  -1.884865e+02
   7.727398e+01  -1.330827e+02
   1.142469e+02  -1.049331e+02
   8.720063e+01  -1.861740e+01
   1.473470e+01   4.075561e+01
   2.487312e+01  -1.072301e+01
   2.466353e+01   1.734540e+01
   6.606920e+01   6.304774e+01
   1.765317e+01   8.083983e+01
  -6.030622e+01   4.821188e+01
  -5.555984e+01  -1.266817e+01
  -9.255837e+01  -9.412774e+01
  -3.885860e+01  -1.155625e+02
   8.027840e+01  -5.244098e+01
   9.458016e+01   3.954255e+01
   5.996126e+01   5.453985e+01
  -7.192517e+01   6.466220e+01
  -1.148346e+02  -2.242349e+01
  -5.427633e+01  -4.381577e+01
   4.844342e+01  -5.509498e+01
   5.224536e+01  -3.877074e+01
  -4.805665e+01   5.376821e+00
  -6.058890e+01   6.725650e+01
   8.660849e+00  -7.217038e+01
   3.677577e+01  -4.355939e+01
   1.143969e+02  -5.438667e+01
   8.538758e+01   7.151099e+00
  -1.548204e+01   1.265684e+02
  -5.553031e+01   7.696072e+01
  -4.605331e+01  -4.988862e+00
  -2.311485e+01  -1.131304e+02
   3.337582e+01  -3.051098e+01
   4.037519e+01   2.543554e+01
  -3.384834e+01   1.242345e+02
   4.409212e+01   6.139645e+01
   1.798909e+01   9.723965e+00
  -2.366548e+01  -9.416597e+01
   1.417688e+01  -1.125285e+00
   2.842767e+01   1.988715e+01
   2.070780e+01  -3.365487e+01
   1.053954e+01   8.240965e+00
   1.834276e+01  -3.256264e+01
   5.084258e+01  -2.450104e+01
   5.832074e+01   7.368252e+01
  -5.631140e+01   6.651498e+01
  -6.839123e+01   5.583769e+01
  -7.876960e+01  -5.433914e+01
  -6.520607e+01  -5.647299e+01
   6.267833e+01  -3.362162e+01
   6.339842e+01   2.651329e+01
   4.764992e+01   6.222867e+01
  -1.591378e+00   1.780117e+01
  -5.440333e+01   1.276021e+01
  -5.940401e+01  -1.456862e+01
   7.360437e+01  -4.012420e+00
   4.373904e+01   2.146523e+01
  -3.774783e+01   2.068185e+01
  -1.203959e+02   4.023217e+01
