
 $NMID
 id='ANONYMOUS ', fmtdat='(2E16.6)'
 volume=1.0
 tramp=1.0
 $END
   4.486579e+03   4.003106e+01
   3.090107e+03   2.770965e+03
  -7.365999e+02   2.857497e+03
  -2.609845e+03   8.862706e+02
  -9.918428e+02  -7.850595e+02
   7.107602e+02  -5.066944e+02
   9.478049e+02   3.458836e+02
   1.317398e+01   9.841853e+02
  -9.352509e+02   8.596791e+02
  -9.460354e+02   4.894332e+01
  -5.375767e+02  -8.471131e+02
   7.460761e+01  -8.422995e+02
   5.103163e+02  -1.887746e+02
   3.894589e+02   7.077830e+02
  -2.064896e+02   8.093236e+02
  -6.492233e+02  -9.601349e+00
  -1.710919e+02  -7.529867e+02
   4.145857e+02  -7.295555e+02
   5.443509e+02  -2.034660e+02
   3.917698e+02   3.697003e+02
   4.208429e+01   4.058804e+02
  -2.123799e+02   2.455273e+02
  -2.237505e+02   1.861261e+01
   1.013231e+02  -8.764924e+01
   3.695453e+02   1.506712e+02
   1.985179e+02   4.418726e+02
  -4.032164e+02   4.330243e+02
  -9.464313e+02   4.068647e+01
  -4.809139e+02  -5.609159e+02
   5.088272e+02  -5.628276e+02
   8.251313e+02   7.832066e+01
   4.783276e+02   4.701454e+02
  -2.660629e+02   4.548811e+02
  -5.813478e+02   2.495711e+02
  -4.348006e+02  -2.630431e+02
  -8.904004e+01  -5.357668e+02
   1.956327e+02  -3.012229e+02
   2.161455e+02   2.146696e+02
  -1.513509e+02   4.276017e+02
  -4.616485e+02   2.444586e+01
  -2.262791e+02  -5.796095e+02
   3.554727e+02  -7.545360e+02
   7.093089e+02  -8.225596e+01
   2.432454e+02   5.462137e+02
  -2.342787e+02   2.581042e+02
  -3.524664e+02  -2.737712e+02
   5.149761e+01  -4.967222e+02
   5.599623e+02  -1.390394e+02
   5.827006e+02   3.409343e+02
   1.645022e+02   6.278726e+02
  -3.437609e+02   3.851249e+02
  -6.523691e+02  -8.623031e+01
  -4.202818e+02  -2.929440e+02
   2.283822e+02  -4.028071e+02
   4.456074e+02  -7.956543e+01
   2.360584e+02   2.577128e+02
  -9.958296e+01   9.322795e+01
  -2.054057e+02  -1.673523e+02
   1.571525e+02  -1.805105e+02
   3.469062e+02   4.931877e+01
   1.697435e+02   3.222510e+02
  -1.391016e+02   2.239374e+02
  -3.736192e+02   1.044046e+02
  -2.031039e+02  -7.497768e+01
   1.452422e+01  -2.881825e+02
   2.122034e+02  -2.812110e+02
   2.512833e+02  -1.855367e+02
   2.606145e+02   8.446620e+01
   1.437624e+02   4.436553e+02
  -1.467757e+02   3.535466e+02
  -1.060374e+02   1.018132e+02
  -5.449078e+01   5.658266e+00
  -6.007943e+01   8.986514e+01
  -2.423290e+02   1.581780e+02
  -2.930766e+02   3.433102e+01
  -1.739835e+02  -2.333529e+02
   1.006901e+02  -3.315000e+02
   2.049266e+02   1.228270e+01
   2.317339e+02   2.181117e+02
  -2.070819e+01   2.885146e+02
  -2.982792e+02   1.476940e+02
  -3.822822e+02  -1.580540e+02
  -2.237868e+02  -2.828063e+02
  -2.399649e+01  -3.285401e+02
   1.624822e+02  -1.867813e+02
   1.409657e+02  -2.669627e+01
   8.443181e+01  -9.361049e+00
   2.131598e+02  -3.810807e+01
   4.066471e+02   7.391807e+01
   3.947827e+02   2.554311e+02
   3.847316e+01   4.865209e+02
  -3.194353e+02   4.521419e+02
  -6.071916e+02   2.106558e+02
  -3.496169e+02  -6.200492e+01
  -8.955995e+01  -3.040522e+02
   1.396722e+02  -2.709890e+02
   6.573237e+01   6.239745e-01
  -8.657830e+01   1.035026e+02
  -2.063698e+02  -1.719782e+01
  -5.666686e+01  -1.843169e+02
   1.841818e+02  -1.846835e+02
   1.688900e+02   5.861717e+01
  -1.188831e+01   1.534091e+02
  -2.021611e+02   2.307413e+01
  -2.240285e+02  -2.423068e+02
  -3.335682e+00  -3.197720e+02
   2.410645e+02  -1.864426e+02
   2.632261e+02  -2.589000e+01
   2.724598e+02   2.252829e+02
   1.155792e+02   2.159512e+02
  -1.088181e+02   1.935706e+02
  -1.664450e+02  -1.067527e+01
  -9.697569e+01  -2.325950e+01
   6.946696e+01   3.856612e+01
   6.377375e+01   1.617326e+02
  -1.137177e+02   1.224404e+02
  -1.961669e+02   2.809197e+01
  -3.426087e+01  -4.691223e+01
   1.126493e+02  -1.243900e+01
   8.063896e+01   5.630585e+01
  -1.900745e+02   1.052683e+02
  -3.294306e+02  -1.516283e+01
  -3.202770e+02  -1.503328e+02
  -6.842311e+01  -2.651840e+02
   1.626652e+02  -2.813011e+02
   2.564565e+02  -1.851391e+02
   1.630493e+02   6.533180e+01
   2.188864e+01   1.217634e+02
  -8.912858e+01   3.129839e+01
   2.773206e+01  -1.221731e+02
   2.152770e+02  -1.233067e+02
   1.729283e+02   9.588392e+01
   1.706158e+01   2.421626e+02
  -7.777347e+01   1.410879e+02
  -1.978890e+02   4.398936e+01
  -8.719617e+01  -4.585448e+01
   4.332790e+01  -1.014326e+01
   4.449379e+01   1.246086e+02
  -8.244399e+01   9.688201e+01
  -2.256948e+02   3.359386e+01
  -1.949908e+02  -6.626294e+01
  -5.573842e+01  -2.204933e+02
   1.720830e+02  -1.776730e+02
   1.833355e+02  -3.712827e+01
   6.163861e+01   1.293095e+02
  -8.885512e+01   1.209372e+02
  -1.163183e+02   4.835680e+01
  -1.521355e+01  -4.297492e+01
   1.850302e+01  -4.631292e+00
  -5.145304e+00  -1.441683e+01
  -2.827645e+01   9.357570e+00
  -1.161588e+02  -8.821122e+01
  -3.292823e+01  -1.203270e+02
   9.753759e+01  -1.685695e+02
   2.540901e+02  -1.860043e+01
   1.818959e+02   6.604657e+01
   1.007021e+02   2.329531e+02
  -7.571311e+01   2.023805e+02
  -1.239195e+02   6.919209e+01
  -9.994557e+01  -3.182549e+01
  -6.247898e+01  -4.944692e-01
  -8.949497e+01   6.892237e+01
  -3.368583e+01   1.377136e+00
  -4.904444e+01  -4.294382e+01
   4.343828e+01  -7.253266e+01
   1.366661e+02  -5.774147e+01
   1.112025e+02   3.585305e+01
   2.423793e+01   1.094595e+02
  -1.577106e+02   6.466547e+01
  -1.984802e+02  -1.471975e+01
  -4.966513e+01  -1.718820e+02
   1.100668e+02  -2.052305e+02
   3.136723e+02  -1.043868e+02
   2.205389e+02   7.101529e+01
   8.869807e+01   1.725460e+02
  -3.690367e+01   1.443159e+02
  -7.283060e+01   9.790189e+01
  -6.985916e+01   7.323337e+01
  -4.116166e+01   9.396395e+01
  -9.555124e+01   6.203531e+01
  -1.204926e+02   1.158163e+01
  -1.454887e+02  -1.581125e+02
  -6.178033e+01  -2.320595e+02
   7.133335e+01  -1.816441e+02
   1.796029e+02   3.539011e+00
   1.369205e+02   1.456697e+02
   8.147443e+01   1.813998e+02
  -9.129460e+01   1.285376e+02
  -9.750285e+01   3.551906e+01
  -2.217073e+01  -4.315130e+01
   2.948144e+01  -2.099788e+01
  -5.455221e+00   7.241079e+00
  -9.114787e+01  -2.305612e+01
  -1.670484e+01  -3.311855e+01
   4.931799e+01  -5.656131e+01
   1.861862e+02  -1.280328e+01
   1.401140e+02   7.872271e+01
   2.512636e-01   1.033968e+02
  -1.027622e+02   1.088251e+02
  -1.235695e+02   4.519133e+01
  -2.602418e+01  -6.523046e+01
   9.827957e+01  -2.067576e+01
   6.269894e+01   5.571791e+00
   1.890232e+01   9.834041e+01
  -1.883495e+01   3.823855e+01
  -6.832885e+01  -2.266255e+01
  -4.344555e+01  -4.802793e+01
  -2.439035e+01  -3.636383e+00
  -7.500682e+01  -5.000040e+01
  -5.361349e+01   4.553836e+01
  -3.749734e+01  -1.023029e+02
   2.777253e+01  -1.451259e+02
   1.014067e+02  -1.271241e+02
   2.008838e+02  -5.321031e+01
   1.522389e+02   7.277214e+01
  -1.013222e+01   1.261653e+02
  -1.187226e+02   9.589130e+01
  -9.516116e+01  -2.278908e+01
   2.534752e+01  -5.426980e+01
   1.660028e+02   4.523551e+01
   6.432676e+01   8.921978e+01
  -1.169003e+02   1.358607e+02
  -2.074938e+02   6.274613e+01
  -2.096995e+02  -3.091740e+01
  -1.405339e+01  -3.118528e+01
   6.636122e+01  -3.595196e+01
   6.589247e+01   3.999336e+01
  -1.922180e+01   5.911173e+01
  -1.128988e+02  -1.732588e+01
  -5.226730e+01  -1.151735e+02
   1.063394e+02  -1.417736e+02
   1.439692e+02  -4.631310e+01
   1.671705e+02   8.235889e+01
   3.884306e+01   1.852897e+02
  -8.784025e+01   1.927684e+02
  -9.354897e+01   7.711613e+01
  -4.775110e+01  -1.587016e+02
  -1.603509e+01  -8.670102e+01
   3.942334e+01  -3.038218e+01
   5.708443e+01   3.837405e+01
  -3.169711e+00  -8.688864e+00
   4.742768e-01  -5.198084e+01
   1.699450e+01  -1.934032e+01
   1.195348e+01   1.651919e+02
   2.040609e+01   9.927284e+01
  -4.201137e+01   5.362006e+01
  -1.743207e+02  -5.246172e+01
  -1.306175e+02  -3.530614e+01
  -5.361266e+01  -6.246952e+01
   7.196734e+01  -3.314020e+01
   1.206993e+02   2.278497e+01
   1.326706e+01   1.062084e+01
  -5.719854e+01  -2.611507e+00
   2.826509e+01   4.386688e+01
   1.116445e+01   2.010676e+01
  -2.065401e+01  -1.004303e+01
  -7.050428e+01  -4.146093e+00
  -6.508645e+01  -4.816483e+01
  -1.928138e+00  -7.082512e+01
   1.145440e+02  -9.260153e+01
   1.795423e+02  -5.920679e+01
   1.423516e+02   3.370426e+01
   2.818258e+01   1.588458e+02
  -4.238493e+01   1.625666e+02
  -1.782359e+02   1.050820e+02
  -4.612135e+01  -4.208962e+01
  -2.413852e+01  -4.140266e+01
  -2.777578e+01  -3.506734e+01
  -1.826496e+01  -2.053483e+00
  -3.011955e+01  -7.360048e+01
   3.031696e+01  -1.027366e+02
   3.996687e+01  -5.390045e+01
   6.917629e+01  -9.326739e+00
   9.871817e+01   1.355801e+02
   2.635334e+01   1.093134e+02
  -6.296078e+01   3.591591e+01
  -9.156729e+01  -4.917146e+01
  -5.081382e+01  -6.916910e+01
   9.894179e+01  -8.475172e+01
   1.313416e+02  -2.187374e+01
   7.888685e+01   6.777341e+01
  -3.345182e+01   1.662847e+01
  -2.588745e+01   6.220424e+01
   2.687006e+01   2.072913e+01
   1.170854e+02   1.780682e+01
   2.700616e+01   5.261557e+01
  -3.346794e+01   6.698887e+01
  -1.393788e+02   4.174233e+01
  -8.114534e+01   5.119128e+00
  -2.090286e+01  -6.558587e+01
   6.209818e+01  -6.186311e+01
   5.261964e+01  -1.452229e+01
   3.038956e+00   7.689603e+01
  -2.873271e+01  -3.055501e+00
  -5.590095e+01  -5.793045e+01
  -3.344898e+01  -9.126034e+01
  -4.094751e+01  -1.806752e+01
   3.958430e+00  -3.260353e+01
   4.869699e+01   9.814476e-01
  -3.561084e-01  -1.488928e+00
   1.548211e+01  -2.698836e+01
  -6.073808e+01   1.599324e+00
  -1.337115e+01   3.232826e+01
   6.420632e+00   6.131042e+01
  -2.200090e+01  -2.375092e+01
  -2.208305e+01  -5.631302e+01
  -2.414358e+00  -3.378050e+01
   1.966150e+01  -1.887871e+01
   4.064725e+01   3.441737e+01
  -2.166625e-01   3.185033e+01
  -1.032354e+02   1.213650e+01
  -9.761441e+01   3.506313e+01
  -5.705710e+01  -3.712109e+01
   5.398541e+01  -4.625451e+01
   4.368414e+01  -6.533031e+01
  -6.463608e+00  -1.893564e+01
  -2.799780e+00   1.185914e+01
  -5.450247e+01  -3.379210e+00
   3.065990e+01  -2.902426e+01
   1.065377e+02  -2.129960e+01
