
 $NMID
 id='ANONYMOUS ', fmtdat='(2E16.6)'
 volume=1.0
 tramp=1.0
 $END
   3.903482e+03  -7.444450e+01
   2.208313e+03   1.983272e+03
  -1.991482e+02   2.283194e+03
  -1.584644e+03   1.159299e+03
  -9.818454e+02  -2.889651e+02
   7.650002e+01  -9.082808e+01
   4.172303e+02   2.415993e+02
   1.619635e+01   6.102696e+02
  -4.854418e+02   5.742023e+02
  -8.004848e+02   7.355123e+01
  -5.397817e+02  -4.757251e+02
  -3.657653e+01  -6.747401e+02
   4.568635e+02  -2.271557e+02
   2.672611e+02   4.785016e+02
  -1.507288e+02   6.356327e+02
  -3.780383e+02   1.807748e+02
  -1.854864e+02  -6.516816e+02
   2.366982e+02  -6.704455e+02
   4.575539e+02  -2.260216e+02
   4.023665e+02   2.217727e+02
   9.719166e+01   3.062622e+02
  -1.620866e+02   2.615186e+02
  -1.684955e+02   5.315457e+01
   1.216740e+02   8.457246e+01
   3.167851e+02   2.429377e+02
   1.479019e+02   3.133499e+02
  -4.565545e+02   2.479137e+02
  -6.686182e+02  -2.552843e+02
  -3.365477e+02  -3.809186e+02
   3.152976e+02  -2.424335e+02
   4.615414e+02   1.608903e+02
   2.662267e+02   4.083683e+02
  -2.592839e+02   3.501209e+02
  -5.394748e+02   1.104675e+02
  -3.367555e+02  -1.976851e+02
  -2.190551e+01  -4.324941e+02
   1.034329e+02  -1.912591e+02
   5.551209e+01   9.188748e+01
  -2.555059e+02   2.501223e+02
  -2.091747e+02  -8.393206e+01
  -4.635222e+01  -4.526899e+02
   3.465302e+02  -5.182619e+02
   4.897925e+02  -4.652176e+01
  -5.395749e+01   3.627993e+02
  -2.106734e+02   1.471115e+02
  -2.207649e+02  -2.073565e+02
   7.035496e+01  -4.797011e+02
   5.032597e+02  -1.359665e+02
   3.742856e+02   3.787819e+02
   1.290215e+02   5.484595e+02
  -3.381633e+02   3.189153e+02
  -5.688599e+02  -4.514781e+01
  -3.614830e+02  -2.913470e+02
   1.106865e+02  -3.380539e+02
   2.899923e+02  -8.744395e+01
   2.365771e+02   9.571958e+01
  -2.727490e+01   6.104789e+01
  -3.756927e+01  -7.264616e+01
   7.452748e+01  -7.321170e+01
   2.986605e+02   5.613734e+00
   1.476685e+02   2.566444e+02
  -1.170856e+02   2.520198e+02
  -3.894929e+02   1.760826e+02
  -1.547853e+02  -1.134054e+02
   4.866596e+01  -3.024409e+02
   2.856896e+02  -3.017754e+02
   3.622187e+02  -9.332022e+01
   1.670006e+02   1.626609e+02
   9.153660e+00   3.971221e+02
  -4.567778e+01   2.674922e+02
  -6.733073e+01   1.627364e+02
  -3.218946e+01   8.190335e+01
  -1.204241e+02   1.219264e+02
  -1.907952e+02   1.242897e+02
  -2.234118e+02  -9.692485e+01
  -1.085298e+02  -1.796898e+02
   7.790297e+01  -1.629348e+02
   1.601548e+02   5.624287e+01
   1.588689e+02   2.593539e+02
  -1.917580e+01   2.880116e+02
  -2.379760e+02   3.712843e+01
  -3.006088e+02  -1.620466e+02
  -1.127764e+02  -2.792530e+02
   5.641548e+01  -2.684750e+02
   1.412734e+02  -1.798800e+02
   2.168456e+02  -3.479061e+01
   1.584695e+02  -4.124194e+01
   2.033036e+02   1.702236e+01
   3.556034e+02   9.742793e+01
   3.160787e+02   3.266697e+02
  -1.173501e+02   4.863439e+02
  -4.036218e+02   4.167643e+02
  -4.284399e+02   1.982071e+02
  -2.835624e+02  -1.340898e+02
  -3.421166e+01  -2.481370e+02
   1.053197e+02  -1.781514e+02
   8.291296e+01  -3.705971e+01
  -1.534788e+02   5.279233e+01
  -1.908488e+02   1.561317e+00
   2.197200e+01  -1.270920e+02
   1.307509e+02  -9.694954e+01
   8.883108e+01   8.613816e+01
  -3.920099e+01   1.081707e+02
  -1.569268e+02   7.319430e+01
  -1.724054e+02  -2.336515e+02
  -8.710238e+00  -3.054211e+02
   2.589153e+02  -1.937560e+02
   3.310958e+02   3.598969e+01
   2.557150e+02   2.224804e+02
   4.850739e+01   2.449296e+02
  -1.138675e+02   1.587308e+02
  -1.214026e+02   1.073649e+01
  -3.227990e+01  -4.796772e+00
   2.473294e+01   4.785000e+01
  -2.544359e+01   7.977231e+01
  -1.259500e+02   4.773184e+01
  -1.835220e+02  -3.437936e+01
  -8.356232e+01  -4.003260e+01
   9.050999e+01   2.037329e+00
   2.858307e+01   7.433936e+01
  -1.536268e+02   7.409562e+01
  -2.790056e+02  -4.615506e+00
  -2.205722e+02  -1.260225e+02
  -2.922539e+01  -2.464177e+02
   1.688808e+02  -2.532137e+02
   2.399570e+02  -1.558615e+02
   1.411036e+02   1.328849e+01
  -1.200377e+01   1.415612e+02
  -6.531922e+01  -5.356223e+00
   3.248675e+01  -1.166014e+02
   1.771318e+02  -4.620951e+01
   1.268474e+02   1.003587e+02
   5.837939e+01   1.781164e+02
  -3.761918e+01   1.144775e+02
  -1.233997e+02   2.728179e+01
  -8.449650e+01   6.783892e+00
   1.188217e+01   4.904433e-02
   1.394461e+01   1.100492e+02
  -7.700388e+01   1.559854e+02
  -1.662999e+02   2.031710e+01
  -1.380104e+02  -1.208936e+02
   8.299426e+00  -2.301168e+02
   1.687346e+02  -1.343591e+02
   1.679155e+02  -4.961121e-01
   9.170098e+01   1.014902e+02
  -6.614580e+01   9.493866e+01
  -8.345243e+01   3.319002e+01
   4.996192e+01   4.296253e-01
   3.989521e+01   1.348184e+00
  -1.041445e+01   3.415240e+01
  -7.321390e+01  -4.285971e+01
  -1.201416e+02  -7.595876e+01
   4.789914e+01  -1.911246e+02
   1.628046e+02  -1.440118e+02
   2.391935e+02   1.737415e+01
   1.777906e+02   1.081274e+02
   2.521541e+01   2.225407e+02
  -1.005097e+02   1.724066e+02
  -1.361113e+02   1.663507e+01
  -5.947483e+01  -9.498862e+01
  -8.279573e+00  -2.982253e+01
  -5.565731e+01  -5.753127e+00
  -1.056629e+02  -2.728438e+01
  -7.723588e+01  -4.020583e+01
   6.110821e+01  -8.980035e+01
   9.608509e+01  -9.232592e+01
   1.363749e+02   2.958825e+01
  -1.270396e+01   1.315766e+02
  -1.515080e+02   1.099220e+02
  -2.001326e+02  -7.226611e+01
  -6.176168e+01  -1.520887e+02
   1.381649e+02  -2.115585e+02
   2.839293e+02  -8.506118e+01
   1.899704e+02   7.915035e+01
   9.175596e+01   1.599844e+02
  -1.993844e+01   1.406011e+02
  -5.777157e+01   1.027305e+02
  -1.142393e+02   1.071091e+02
  -5.228477e+01   4.493154e+01
  -1.033556e+02   9.233010e+01
  -1.139804e+02  -3.595663e+01
  -8.703699e+01  -1.663193e+02
   2.020239e-01  -2.237122e+02
   6.587059e+01  -1.199667e+02
   1.534963e+02  -1.086651e+01
   1.302310e+02   1.411404e+02
   2.829250e+01   1.265148e+02
  -6.950259e+01   4.998088e+01
  -2.585853e+01  -3.755256e+01
  -1.625950e+01  -7.495213e+01
   3.982896e+01  -3.921706e+01
  -1.546481e+01   2.519156e+01
  -3.579785e+01  -3.018036e+01
  -4.679262e+01  -9.188222e+01
   8.163455e+01  -2.950995e+01
   1.760893e+02   1.237334e+00
   1.302404e+02   8.507366e+01
   2.829569e+01   8.406054e+01
  -1.253980e+02   8.874144e+01
  -1.332900e+02   1.291813e+01
  -1.365505e+01  -5.664158e+01
   3.499363e+01  -6.809067e+00
   9.519386e+01   2.724489e+01
   1.924239e+01   8.131895e+01
  -1.773144e+01   9.851734e+01
  -7.991124e+01   2.644034e-01
  -5.407810e+01  -8.793469e+01
  -2.740885e+01   2.622352e+00
  -4.589501e+01  -2.308920e+01
  -4.809031e+01  -1.200838e+01
  -2.331878e+01  -8.061164e+01
   3.170262e+01  -1.137281e+02
   1.459906e+02  -1.029999e+02
   2.102091e+02  -2.035633e+01
   1.256783e+02   8.534492e+01
   5.685571e+01   1.465578e+02
  -1.370764e+02   7.948964e+01
  -3.774145e+01  -1.175312e+01
   6.849346e+01   1.557336e+01
   1.148459e+02   1.489822e+01
   4.992663e+01   8.775122e+01
  -1.002634e+02   1.022858e+02
  -2.175887e+02   4.953400e+00
  -1.722288e+02  -2.970659e+01
  -5.592795e+01  -3.091039e+01
   1.493779e+01  -5.338440e+01
   6.717186e+01   2.903761e+00
  -2.323361e+01   2.248817e+01
  -1.056659e+02  -1.381809e+01
  -4.848054e+01  -1.355548e+02
   8.436689e+01  -1.752140e+02
   1.471472e+02  -6.587272e+01
   1.360093e+02   1.513089e+02
  -7.780055e+01   1.897850e+02
  -9.067424e+01   1.382125e+02
  -1.267518e+02   3.291590e+00
  -1.881268e+01  -1.597225e+02
  -1.792126e+01  -1.319108e+02
   2.077927e+01  -3.532497e+01
   3.068998e+01   1.855792e+01
   1.162430e+01   1.860515e+01
   3.021360e+01  -1.053639e+02
   3.851899e+00   2.628504e+01
   5.828428e+01   6.123014e+01
   2.198118e+01   1.164971e+02
  -1.950570e+01   4.024214e+01
  -1.844468e+02  -2.493491e+01
  -1.479315e+02  -3.726758e+01
  -5.222512e+01  -2.801241e+01
   1.168753e+02  -4.654580e+00
   8.082438e+01  -2.424376e+00
  -8.967113e+00   7.862404e+00
  -6.321788e+01   4.059902e+01
   2.787161e+00   2.883709e+01
   3.974382e+01   4.159612e+01
  -1.927998e+01   1.044870e+01
  -1.080052e+02  -1.277729e+01
  -1.012404e+02  -1.641909e+01
  -4.662984e+01  -7.852848e+01
   2.852074e+01  -1.014965e+02
   1.985177e+02  -2.248390e+01
   1.330523e+02   9.622314e+01
   3.545224e+01   1.936685e+02
  -8.453956e+01   1.722347e+02
  -1.453160e+02   1.023826e+02
  -7.692796e+01  -2.318716e+01
  -2.063485e+01  -2.758352e+01
  -6.305456e+00  -1.911850e+01
  -1.919863e+01   3.239344e+00
  -4.097191e+01  -6.501800e+01
  -5.318733e+01  -7.362726e+01
   2.400032e+01  -7.822385e+01
   6.101167e+01   2.478882e+01
   4.858022e+01   1.527673e+02
  -2.331943e+00   1.277308e+02
  -7.494117e+01   6.090820e+01
  -8.994892e+01  -6.447895e+01
  -1.796099e+01  -9.467039e+01
   4.239595e+01  -7.276170e+01
   1.620719e+02  -2.137066e+00
   5.440207e+01   8.564362e+01
  -2.204937e+01   7.560091e+01
  -1.462942e+01   4.897500e+01
  -1.189017e+01  -6.872543e+00
   7.884136e+01  -2.670459e+01
   7.702851e+01   1.197216e+01
  -9.488459e+01   5.821087e+01
  -1.261554e+02   5.747119e+01
  -6.464495e+01  -1.723503e+01
  -6.512674e+00  -9.606164e+01
   1.797756e+01  -1.045027e+02
   1.062604e+01   7.671105e-01
   4.995373e+00   4.268921e+01
  -4.172304e+01   8.402082e+01
  -4.568542e+00   1.296109e+01
  -5.920512e+01  -3.316369e+01
  -8.377688e-01  -2.950364e+01
   2.694987e+01  -1.806441e+01
   4.518510e+01   4.593282e+01
   1.641270e+01   1.840920e+01
  -1.148270e+01  -2.783562e+01
  -3.064507e+01   1.943561e+01
   1.499315e+01   4.540317e+01
  -2.502357e+01   2.308974e+01
  -2.035983e+01  -6.350034e+00
  -1.738753e+01  -5.369504e+01
  -2.565591e-02  -3.935202e+01
   7.126619e+01  -1.895543e+01
   6.853385e+01   3.924771e+01
   1.266389e+01   9.858884e+01
  -4.698784e+01   5.529072e+01
  -8.106496e+01  -4.432636e+00
  -5.147264e+01  -5.948699e+01
   9.242278e+00  -4.674902e+01
   2.357572e+01   3.516423e+00
   2.457360e+01  -1.853939e+01
  -2.097255e+01   9.867303e+00
  -4.358273e+01  -4.516792e-02
   7.778996e+00  -2.626936e+01
   7.098426e+01   8.669952e+00
