
 $NMID
 id='ANONYMOUS ', fmtdat='(2E16.6)'
 volume=1.0
 tramp=1.0
 $END
  -3.666256e+03  -1.573544e+02
  -1.827976e+03  -1.827652e+03
   3.067292e+02  -2.301969e+03
   1.323459e+03  -1.395763e+03
   8.422772e+02   3.445150e+01
  -9.065354e+01   1.601907e+02
  -3.245681e+02  -2.986907e+02
   6.162383e+00  -6.341500e+02
   4.392894e+02  -5.897886e+02
   7.229723e+02  -1.928743e+01
   3.780561e+02   3.975589e+02
   1.637725e+01   6.310990e+02
  -4.079154e+02   2.593202e+02
  -2.346238e+02  -3.652120e+02
   1.659751e+02  -6.609275e+02
   3.664413e+02  -8.523301e+01
   2.619829e+02   6.491523e+02
  -2.157839e+02   6.427626e+02
  -4.419501e+02   2.503839e+02
  -4.426806e+02  -1.572807e+02
  -1.124193e+02  -2.813667e+02
   7.226836e+01  -2.669374e+02
   4.195388e+01  -4.166008e+01
  -1.331081e+02  -1.259760e+02
  -3.606277e+02  -2.750358e+02
  -5.895201e+01  -2.635852e+02
   4.470402e+02  -1.409227e+02
   6.375787e+02   2.467867e+02
   2.653778e+02   3.662046e+02
  -2.860553e+02   2.152070e+02
  -5.179349e+02  -7.852084e+01
  -1.273198e+02  -3.697465e+02
   3.000797e+02  -3.355727e+02
   5.592443e+02  -9.725152e+01
   3.868761e+02   1.608582e+02
   4.426192e+01   4.210411e+02
  -5.576062e+01   2.486046e+02
  -3.661650e+01  -4.906114e+01
   1.809907e+02  -2.353549e+02
   2.243840e+02   9.811956e+01
   1.089137e+02   4.440137e+02
  -4.004789e+02   4.909323e+02
  -4.283187e+02  -4.874608e+01
  -1.273172e+01  -3.434374e+02
   1.796684e+02  -7.687148e+01
   2.081914e+02   1.938396e+02
  -6.139328e+01   4.574520e+02
  -6.047953e+02   1.388237e+02
  -4.104703e+02  -3.470938e+02
  -1.347427e+02  -6.076555e+02
   3.748416e+02  -3.263351e+02
   5.196623e+02   5.913234e+01
   3.733033e+02   3.148262e+02
  -7.469421e+01   3.194223e+02
  -2.475796e+02   5.759300e+01
  -2.247657e+02  -8.022619e+01
   5.388201e+01  -7.288637e+01
   5.380203e+01   9.139444e+01
  -1.078693e+02   4.303365e+00
  -3.071000e+02  -2.412313e+00
  -7.629481e+01  -2.193162e+02
   1.728847e+02  -2.346206e+02
   3.509372e+02  -1.263150e+02
   2.005162e+02   1.031978e+02
  -5.745233e+01   2.504446e+02
  -3.242330e+02   3.393009e+02
  -3.419772e+02   1.107025e+02
  -2.386473e+02  -1.304397e+02
  -2.981746e+01  -3.020414e+02
   1.226355e+01  -3.361499e+02
   6.883338e+01  -1.920742e+02
   6.595689e+01  -9.239926e+01
   1.004925e+02  -6.008913e+01
   2.332722e+02  -4.748065e+01
   2.268825e+02   1.088900e+02
   1.578959e+02   1.611559e+02
  -9.456834e+01   1.718324e+02
  -1.567323e+02  -6.128789e+01
  -1.668026e+02  -2.799792e+02
   5.499741e+01  -3.005813e+02
   2.411790e+02  -7.454650e+01
   2.626845e+02   1.268108e+02
   1.373387e+02   3.531939e+02
  -6.763688e+01   2.623251e+02
  -1.878911e+02   1.897506e+02
  -1.931422e+02   4.307802e+01
  -9.557099e+01   7.442526e+01
  -1.590617e+02   4.847210e+00
  -2.902893e+02  -7.819366e+01
  -2.858248e+02  -2.955479e+02
   8.997101e+01  -4.776075e+02
   4.210073e+02  -4.124062e+02
   4.141076e+02  -2.040359e+02
   3.024465e+02   9.977915e+01
   4.725869e+01   2.425316e+02
  -1.017103e+02   2.411965e+02
  -2.091853e+01   2.608551e+01
   1.146616e+02  -4.552076e+01
   1.714560e+02   1.678313e+01
  -2.414164e+01   9.304051e+01
  -8.816769e+01   9.311523e+01
  -8.423040e+01  -3.476321e+01
   6.915771e+01  -1.182586e+02
   1.495551e+02  -3.995341e+00
   1.360187e+02   1.963928e+02
   1.060546e+01   3.129898e+02
  -2.435227e+02   1.691661e+02
  -4.118269e+02  -5.453299e+01
  -1.814603e+02  -1.656359e+02
  -7.532512e+01  -2.397100e+02
   1.352895e+02  -1.615545e+02
   1.189547e+02  -4.610189e+00
   5.958382e+01   1.618646e+01
  -4.855606e+01  -5.494991e+01
   3.636545e+00  -1.046892e+02
   1.480311e+02  -4.980411e+01
   1.648230e+02  -3.530901e+00
   8.296140e+00   4.028850e+01
  -7.722109e+01   2.448764e+01
  -2.107473e+01  -7.867477e+01
   1.361136e+02  -6.293804e+01
   2.366168e+02   4.592422e+01
   2.391315e+02   1.574330e+02
   5.600276e+01   2.384739e+02
  -2.282609e+02   2.594728e+02
  -2.638546e+02   9.716044e+01
  -1.188057e+02  -2.781253e+01
   2.879015e+01  -8.968245e+01
   6.929558e+01   4.323232e+01
  -7.524725e+01   5.588150e+01
  -1.735774e+02   5.706244e+01
  -2.081731e+02  -1.042745e+02
  -4.011988e+01  -2.063021e+02
   4.095299e+01  -8.975758e+01
   1.546835e+02  -3.358400e+01
   3.513943e+01   3.227720e+01
  -7.171253e+01  -7.253255e+00
  -1.634544e+01  -4.213866e+01
   7.258677e+01  -1.133725e+02
   1.160748e+02  -6.183222e+00
   1.601224e+02   1.289673e+02
   8.983245e+00   2.220144e+02
  -1.891967e+02   9.887592e+01
  -1.330531e+02   2.368720e+01
  -5.864993e+01  -7.517778e+01
   1.220950e+02  -8.602757e+01
   8.139713e+01  -6.494802e+00
  -3.377317e+01   5.474394e+01
  -5.137556e+01  -1.798160e+01
   6.335736e+00   7.540300e+00
   5.701859e+01   3.357490e+01
   9.480341e+01   9.501704e+01
  -4.574602e+00   1.878023e+02
  -1.175165e+02   1.400247e+02
  -1.965830e+02   4.828748e+00
  -1.419079e+02  -1.548508e+02
  -8.035033e+01  -2.708653e+02
   9.873895e+01  -1.592484e+02
   1.173111e+02   3.112126e+00
   8.427051e+01   7.150377e+01
   3.020420e+01   3.333891e+01
   7.803900e+00   9.867690e+00
   1.168192e+02  -4.515648e+01
   7.137241e+01   7.725607e+01
  -4.017122e+01   1.464477e+02
  -1.100926e+02   7.249423e+01
  -9.577055e+01  -1.592113e+01
   5.878564e+01  -1.189949e+02
   1.368410e+02  -9.252910e+01
   1.594757e+02   4.493788e+01
   5.046859e+01   1.892860e+02
  -1.074922e+02   1.906566e+02
  -2.587873e+02   6.506418e+01
  -1.435957e+02  -1.022688e+02
  -6.081257e+01  -1.711993e+02
   4.836169e+01  -1.366802e+02
   6.198910e+01  -1.048435e+02
   1.199768e+02  -6.106312e+01
   3.086413e+01  -6.666661e+01
   1.417384e+02  -4.607820e+00
   1.070479e+02  -2.144278e+00
   1.214461e+02   1.662101e+02
  -2.306909e+01   1.572590e+02
  -1.324642e+02   1.388163e+02
  -1.670527e+02   1.446100e+01
  -1.060346e+02  -1.106769e+02
   4.322272e+01  -1.469082e+02
   7.948138e+01  -8.504311e+01
   8.067547e+01   8.590844e-01
  -2.940814e+01   2.242636e+01
  -4.599532e+01   2.519447e+01
   3.458006e+01   1.363804e+01
   1.003698e+02   1.508500e+01
   4.948828e+01   5.025893e+01
  -8.423150e+01   4.088578e+01
  -1.751135e+02  -1.708963e+01
  -1.167673e+02  -1.607152e+01
  -3.994650e+01  -1.024379e+02
   1.247761e+02  -9.235020e+01
   1.491314e+02   6.394447e+00
   1.375193e+01   4.911301e+01
  -9.108673e+01   4.633488e+01
  -8.147251e+01   1.522643e+01
   2.315151e+01  -8.005275e+01
   4.863754e+01  -6.695576e+01
   5.649247e+01  -1.824411e+01
   6.879269e+01   7.444493e+01
   4.787483e+01   5.860170e+01
   5.279439e+01   2.617026e+01
   6.744101e+01  -1.739660e+01
   4.153069e+01   8.043622e+01
  -5.545485e+01   1.415731e+02
  -1.158396e+02   1.226682e+02
  -1.674444e+02   5.377838e+01
  -1.437081e+02  -1.185237e+02
   2.571642e-01  -1.042086e+02
   1.005749e+02  -6.484600e+01
   5.199890e+01   1.991258e+01
  -7.530463e+01  -2.599844e+00
  -1.492088e+02  -1.527453e+01
  -6.336914e+01  -1.011357e+02
   8.531493e+01  -6.064254e+01
   1.939976e+02  -2.729716e+01
   1.255785e+02  -5.098275e+00
   5.374490e+01   7.230256e+01
  -6.697045e+01   6.551636e+01
  -8.067410e+01  -9.857154e+00
   5.841760e+01  -2.460074e+01
   8.702531e+01  -6.205358e+00
   4.919249e+01   1.508527e+02
  -4.633896e+01   1.609195e+02
  -1.689071e+02   3.076958e+01
  -1.039905e+02  -1.012488e+02
   3.346245e+01  -1.523355e+02
   7.930217e+01  -1.657614e+02
   6.481137e+01   2.329385e+01
   2.298942e+01   1.358341e+02
  -1.106814e+01   1.098443e+02
  -4.917890e+01   3.576036e+01
  -5.489057e+01  -4.213977e+01
  -8.274338e+00  -1.177159e+01
  -1.950717e+00   1.146155e+01
   1.008314e+01   2.463816e+01
  -7.606516e+01  -8.407972e+01
  -2.764544e+01  -1.048116e+02
   6.241776e+00  -4.917428e+01
   1.583482e+02   1.515595e+01
   7.518314e+01   8.393426e+01
   2.260353e+01   5.890499e+01
  -9.911074e+01   4.014704e+01
  -7.026702e+01   9.501295e-01
  -4.858040e+01  -1.117378e+00
   5.487109e+01  -1.291713e+01
   1.872561e+01  -2.140802e+01
   1.786375e+00   5.977275e+00
   1.260736e+01  -5.311662e+00
   1.167384e+02  -2.757313e+01
   8.497294e+01   7.151853e+00
   2.251827e+00   9.159781e+01
  -1.049965e+02   1.451076e+02
  -2.120961e+02   6.341124e+01
  -1.336483e+02  -3.316595e+01
  -7.458637e+01  -1.831840e+02
   6.192860e+01  -1.544083e+02
   1.270987e+02  -2.945381e+01
   7.192383e+01   2.828315e+01
   1.975940e+01   2.875834e+01
   4.202869e+00   5.622061e+01
   6.509988e+00   3.017027e+01
   5.234771e+01   3.854509e+01
   2.599265e+01   1.182200e+02
  -5.145918e+01   7.331463e+01
  -8.901589e+01   1.693525e+00
  -8.087392e+01  -8.231832e+01
  -2.023122e+01  -1.009063e+02
   8.380073e+01  -2.048430e+01
   6.664037e+01   2.506516e+01
  -9.961486e+00   3.099104e+01
  -7.993677e+01   6.383551e+01
  -1.137433e+02   8.159320e+00
  -2.147659e+01  -6.669408e+01
   4.992857e+01  -4.490048e+01
  -1.185856e+01  -5.079526e+01
  -1.176163e+01   3.042880e+01
  -7.348011e+01   2.437167e+01
  -2.389139e+01  -6.821339e-01
   1.097713e+02  -8.668866e+01
   1.076573e+02  -5.931567e+01
   5.893013e+01   2.818109e+01
  -1.253092e+01   9.225043e+01
  -7.470244e+01   7.797133e+01
  -2.672531e+01  -3.764375e+01
   5.798286e+00  -3.581030e+01
  -3.135496e+01  -2.291827e+01
   1.676975e+01   5.453942e+00
   3.781841e+00   8.993687e+01
   2.172488e+01   2.173602e+01
   1.815913e+01  -2.654597e+01
  -4.230071e+01  -4.756497e+01
  -8.782904e+01  -3.916002e+01
  -1.358662e+01   6.847612e+01
  -2.115976e+00   9.781933e+00
  -3.244445e+01  -1.808879e+01
   5.806922e+00  -8.734281e+01
   1.428594e+01  -2.521580e+01
   1.531889e+01  -1.209828e+01
   1.922486e+01   4.852274e+01
  -5.561027e+01   9.397236e+01
  -2.435477e+01  -2.624705e+01
   9.816058e-01  -5.915371e+01
   5.444730e+01  -3.213586e+01
   1.350245e+02   1.053556e+01
   5.425997e+01   7.192142e+01
  -6.351812e+01   2.271194e+01
  -6.094167e+01  -1.117303e+01
  -4.345883e+01   1.637175e+01
   3.611805e+01   1.278790e+01
  -8.006257e-01   1.473192e+01
   7.597725e+00   2.209675e+01
  -9.426640e+01   3.786994e+00
