
 $NMID
 id='ANONYMOUS ', fmtdat='(2E16.6)'
 volume=1.0
 tramp=1.0
 $END
  -4.157939e+03   5.924737e+02
  -2.850445e+03  -2.602738e+03
   4.675395e+02  -2.958049e+03
   2.122787e+03  -8.888868e+02
   1.038842e+03   7.297785e+02
  -6.653850e+02   6.119323e+02
  -7.519183e+02  -3.658569e+02
  -5.711821e+01  -1.083900e+03
   8.287300e+02  -8.384625e+02
   1.005326e+03   6.458415e+01
   4.894814e+02   7.441682e+02
  -2.886721e+02   8.363179e+02
  -5.975318e+02   1.472687e+02
  -2.911956e+02  -6.063472e+02
   2.037471e+02  -7.307097e+02
   5.723890e+02   2.211323e+00
   2.317703e+02   6.674092e+02
  -3.630035e+02   5.943636e+02
  -4.646797e+02   1.999362e+01
  -2.804934e+02  -3.467338e+02
  -9.672280e+00  -3.866930e+02
   2.779594e+02  -2.019975e+02
   1.797505e+02  -2.236590e+01
  -6.685088e+01   9.794402e+01
  -4.402787e+02  -1.950017e+01
  -2.430638e+02  -3.880552e+02
   3.774400e+02  -4.791213e+02
   7.596358e+02  -2.005103e+01
   4.886709e+02   4.920542e+02
  -3.626552e+02   5.927408e+02
  -6.819088e+02   3.955822e+00
  -3.812644e+02  -4.173254e+02
   1.693691e+02  -5.527761e+02
   4.962278e+02  -2.177033e+02
   3.910385e+02   2.204232e+02
   7.729382e+01   4.783967e+02
  -1.388693e+02   2.605685e+02
  -1.988509e+02  -1.494814e+02
   1.550013e+02  -4.510256e+02
   4.893016e+02  -4.043419e+01
   3.297114e+02   5.970124e+02
  -2.406849e+02   7.587843e+02
  -6.087807e+02   7.370025e+01
  -3.486424e+02  -5.353633e+02
   2.643069e+02  -3.627374e+02
   4.139073e+02   2.325994e+02
   6.030488e+00   4.783323e+02
  -5.156919e+02   2.270275e+02
  -5.602872e+02  -2.596840e+02
  -2.241700e+02  -6.015381e+02
   3.628089e+02  -3.701405e+02
   5.569888e+02   4.899419e+01
   3.585463e+02   3.145860e+02
  -2.006820e+02   4.096032e+02
  -3.929536e+02   8.160307e+01
  -2.362516e+02  -2.652051e+02
   1.121354e+02  -9.723006e+01
   2.096309e+02   1.420205e+02
  -1.622042e+02   2.428196e+02
  -3.941175e+02  -4.007681e+01
  -1.440455e+02  -2.420641e+02
   1.728468e+02  -1.986935e+02
   3.854543e+02  -3.315712e+01
   1.508446e+02   6.822522e+01
  -5.043593e+01   1.810795e+02
  -8.433227e+01   3.005144e+02
  -2.923858e+02   1.563942e+02
  -2.776898e+02  -1.128377e+02
  -9.312857e+01  -3.025077e+02
   1.066476e+02  -3.281508e+02
   1.178408e+02  -1.155592e+02
  -5.871048e+00   3.587311e+01
  -1.413584e+01  -1.010548e+02
   1.492323e+02  -1.995718e+02
   2.667342e+02   2.428998e+01
   1.507387e+02   2.395425e+02
  -2.994499e+01   2.916861e+02
  -1.783131e+02   4.871628e+01
  -1.674022e+02  -2.272112e+02
  -5.324382e-01  -2.382330e+02
   2.355293e+02  -1.368057e+02
   3.247551e+02   1.166243e+02
   2.046539e+02   2.770500e+02
  -4.890841e+01   2.258506e+02
  -1.835510e+02   1.076068e+02
  -1.257458e+02   1.671688e+01
  -9.808919e+01   5.708445e+01
  -1.599080e+02   9.835396e+01
  -2.969286e+02  -4.066019e+01
  -3.341978e+02  -2.202711e+02
   2.133582e+00  -4.087406e+02
   2.686286e+02  -4.071928e+02
   4.092473e+02  -2.142942e+02
   3.907060e+02   4.733282e+01
   8.241360e+01   2.579379e+02
  -4.021547e+01   2.260644e+02
  -2.930458e+01   7.818071e+01
   4.555018e+01  -1.200224e+02
   2.150832e+02  -2.963180e+01
   6.673065e+01   1.690648e+02
  -1.807252e+02   1.352355e+02
  -1.705803e+02  -3.750193e+01
  -8.883549e+01  -1.833137e+02
   1.823232e+02  -4.937836e+01
   1.426713e+02   2.146494e+02
  -5.697985e+01   2.420453e+02
  -1.498343e+02   1.102251e+02
  -2.942759e+02  -1.948198e+00
  -1.802886e+02  -1.859546e+02
  -1.268297e+02  -2.064490e+02
   7.426373e+01  -1.360835e+02
   1.741119e+02  -8.313064e+00
   5.362226e+01  -1.926854e+01
  -1.051224e+02   9.018564e+00
  -5.297786e+01  -9.187213e+01
   8.783726e+01  -6.527052e+01
   1.703070e+02  -3.143263e+01
   1.072384e+02   6.139820e+01
  -7.788791e+01   4.232631e+01
  -3.727081e+01  -5.856241e+01
   1.395837e+02  -1.083823e+02
   2.810441e+02  -6.455022e+00
   2.622759e+02   6.425790e+01
   5.448281e+01   2.034792e+02
  -1.316317e+02   2.300138e+02
  -2.247333e+02   1.174870e+02
  -1.821049e+02  -7.497191e+00
   1.224508e+01  -9.471869e+01
   7.857575e+01  -2.496810e+01
   3.032988e+01   1.085267e+02
  -1.586729e+02   1.153995e+02
  -1.851688e+02  -8.212260e+01
  -1.253786e+02  -2.059878e+02
   9.016694e+01  -1.162279e+02
   1.195120e+02  -1.850054e+01
   6.024830e+01   4.388404e+01
  -3.207457e+01   2.844179e+01
  -2.948976e+01  -6.390088e+01
   4.637519e+01  -1.131889e+02
   1.890338e+02  -5.018825e+01
   1.506522e+02   1.248061e+02
   5.468257e+00   1.664418e+02
  -1.469686e+02   1.503017e+02
  -1.528720e+02  -1.356923e+01
  -1.047688e+02  -7.869912e+01
   3.510409e+01  -1.033179e+02
   9.048940e+01  -6.631741e+01
   7.589440e+00   5.863166e+01
   1.944694e-01   3.424933e+00
  -1.578647e+01   1.165394e+01
   5.797419e+01  -2.877216e+00
   6.559290e+01   4.981679e+01
  -4.343120e+00   1.460652e+02
  -1.126908e+02   2.017708e+02
  -2.255284e+02   5.044114e+01
  -2.225643e+02  -1.187814e+02
  -2.358034e+01  -1.940906e+02
   7.780417e+01  -1.777587e+02
   1.462432e+02  -3.133386e+01
   8.465334e+01   5.968012e+01
   2.416574e+01   9.634413e+00
   3.385118e+01  -3.177216e+01
   6.761091e+01   8.479108e+00
   5.682734e+00   1.533292e+01
  -2.066929e+01   8.597427e+01
  -1.060374e+02   3.897827e+01
  -9.862834e+01  -5.372812e+01
  -1.656798e+01  -1.089217e+02
   9.870296e+01  -4.806541e+01
   1.457803e+02  -1.564656e+01
   1.265245e+02   1.753514e+02
  -5.692339e+01   1.824937e+02
  -2.515606e+02   1.027677e+02
  -2.533977e+02  -3.365159e+01
  -1.220601e+02  -1.321859e+02
   1.346551e+00  -1.106222e+02
   7.974432e+01  -7.764074e+01
   8.361154e+01  -6.830743e+01
   6.494368e+01  -9.152730e+01
   7.192539e+01  -1.079054e+02
   9.761101e+01   4.907119e+00
   1.628546e+02   1.041547e+02
   5.858810e+01   2.178795e+02
  -8.199191e+01   1.711577e+02
  -1.111800e+02   5.718691e+01
  -1.084003e+02  -1.162691e+02
  -3.178721e+01  -1.354956e+02
   1.899127e+01  -8.672013e+01
   2.901697e+01  -4.454350e+01
   2.234973e+01   1.274987e+01
  -1.649548e+01  -3.337408e+01
   5.028890e+01   3.916486e+01
   7.284394e+01   4.303225e+01
   5.609566e+01   5.269823e+01
  -4.045653e+01   3.478706e+01
  -1.203437e+02   1.732840e+01
  -1.007595e+02  -1.617929e+01
  -3.418725e+01  -7.686466e+01
   9.252793e+01  -8.038003e+01
   1.590308e+02  -4.408664e+00
   5.241093e+01   5.731723e+01
  -5.067710e+01   1.291873e+01
  -5.682449e+01  -2.129463e+01
  -3.417349e+00  -7.747812e+01
   3.682402e+01  -4.824232e+01
   6.333790e+01   1.780613e+01
   4.302412e+01   2.108696e+01
   1.605074e+01   3.461359e+01
   9.905482e+01  -7.903954e+00
   7.805681e+01   5.626855e+01
   2.507603e+01   4.762328e+01
  -3.294248e+01   6.802470e+01
  -6.284851e+01   6.191829e+01
  -1.361409e+02   2.693824e+01
  -1.090914e+02  -3.359611e+01
  -1.358166e+01  -6.289720e+01
   1.051652e+02  -5.446624e+01
   1.907807e+01   1.846139e+01
  -5.438540e+01  -2.767105e+00
  -1.331263e+02  -4.470721e+01
  -7.484366e+01  -9.506335e+01
   8.264821e+01  -1.125896e+02
   1.940136e+02  -5.224606e+01
   1.678777e+02   1.652280e+01
   4.449427e+01   5.593835e+01
  -7.778144e+01   4.800865e+01
  -6.616990e+01  -3.014044e+01
   4.316838e+01  -6.272856e+00
   5.357856e+01   3.342544e+01
   5.923891e+01   9.598689e+01
  -5.863018e+01   1.188884e+02
  -1.346499e+02   1.098265e+02
  -1.263399e+02  -7.070160e+01
   1.095143e+01  -1.672282e+02
   6.827133e+01  -1.413987e+02
   7.809069e+01  -9.492375e+00
   1.045886e+02   1.490836e+02
   1.850848e+01   7.003336e+01
  -3.949486e+01   2.325619e+01
  -7.265729e+01  -2.032654e+01
  -4.550339e+01   3.600437e+01
   6.196721e-01  -1.343369e+01
  -1.286363e+01  -2.639648e-01
  -4.380761e+01  -6.487389e+01
  -8.547921e+01  -8.000950e+01
   9.079011e+01  -3.760787e+01
   1.321617e+02  -1.426386e+01
   1.405370e+02   3.933872e+01
   2.863122e+01   7.447978e+01
  -5.605543e+01   2.336975e+01
  -8.032565e+01   4.383004e+01
  -3.228642e+00   1.746813e+01
   5.960496e+01   1.915039e+01
  -3.844896e+00  -1.529072e+00
  -3.851422e+01  -9.066542e+00
   2.992319e+01  -2.965130e+00
   2.164288e+01  -3.106777e+01
   9.637035e+01   1.229115e+01
  -1.636796e+01   4.292119e+01
  -9.137623e+01   1.331988e+02
  -1.942999e+02   8.371828e+01
  -9.991139e+01  -7.921179e+01
  -5.447607e+01  -1.422301e+02
   1.039772e+02  -9.714140e+01
   8.624571e+01  -2.160561e+01
   8.103749e+01   1.706981e+01
  -2.592817e+01   1.371865e+01
  -1.551968e+01   1.425506e+01
   4.265010e+01   3.170586e+01
   5.437538e+01   4.103488e+01
   2.080887e+01   9.581772e+01
  -1.584639e+01   1.040666e+02
  -1.053465e+02  -2.793346e+01
  -8.087970e+01  -1.015846e+02
   9.750925e+00  -1.247075e+02
   8.158358e+01  -5.127251e+01
   9.652675e+01   7.949286e+01
  -1.169159e+01   9.490051e+01
  -2.379960e+01   3.262807e+01
  -1.120955e+02   1.227490e+00
  -4.891059e+01  -1.114733e+01
   3.440532e+01  -3.509761e+01
   3.770064e+01   1.374481e+01
  -3.109051e+01   3.421325e+01
  -9.043877e+01   4.678747e+01
   2.050253e+00   1.733529e+01
   6.761600e+01  -7.639351e+01
   6.601126e+01  -4.662803e+01
   4.178123e+01   4.150735e+00
   3.322236e+00   4.367392e+01
  -3.286299e+01   1.147380e+02
  -1.773501e+01   1.029379e+01
  -1.291654e+01  -3.965801e+01
   6.916338e-01  -6.579110e+01
   3.503947e+01  -4.210513e+01
   1.654225e+01   1.032728e+02
  -1.388533e+01  -4.654030e+01
  -1.095267e+01   3.146817e+01
  -3.495649e+01  -1.612149e+00
  -9.278483e+00  -3.910406e+00
   2.201069e+01  -1.362501e+01
   1.495366e+01   3.352925e+00
  -2.579335e+01  -4.576184e+01
   2.716557e+01  -3.169854e+01
   4.356046e+01  -4.551359e+01
   5.131234e+00   7.521258e+01
   9.070830e+00   8.655301e+01
  -3.439937e+01  -7.488626e+00
  -7.416848e+01   1.277083e+01
   1.388519e+01  -6.137029e+01
   4.221355e+01  -3.663374e+01
   7.658358e+01  -2.882413e+01
   2.947681e+01   6.221133e+01
  -6.023677e+01   6.096280e+01
  -3.487516e+01   3.873587e+01
  -1.097891e+01   9.403694e-02
   7.067934e+01   2.201608e+00
   6.788556e+01   1.083602e+01
  -1.555431e+01   7.118017e+01
  -1.044729e+02   3.906675e+01
