
 $NMID
 id='ANONYMOUS ', fmtdat='(2E16.6)'
 volume=1.0
 tramp=1.0
 $END
   4.070116e+03  -8.244949e+02
   2.367790e+03   2.399023e+03
  -5.580678e+02   2.373557e+03
  -1.897576e+03   6.187471e+02
  -8.318595e+02  -7.306609e+02
   6.092377e+02  -6.392948e+02
   7.880325e+02   4.178805e+02
   9.008118e+01   9.342765e+02
  -7.187687e+02   6.872292e+02
  -8.804640e+02   1.560585e+00
  -4.532278e+02  -7.512673e+02
   2.336695e+02  -7.016730e+02
   5.867268e+02  -1.432992e+02
   2.787410e+02   4.789734e+02
  -2.001508e+02   7.533009e+02
  -5.943661e+02   3.916524e+01
  -1.980688e+02  -5.668085e+02
   2.507096e+02  -5.988404e+02
   4.843210e+02  -6.072575e+01
   3.317578e+02   3.104454e+02
   5.582353e+01   2.577023e+02
  -2.445534e+02   2.016510e+02
  -1.957781e+02   3.188382e+01
   2.671398e+01  -1.070330e+02
   3.902201e+02   5.827110e+01
   1.859088e+02   3.247914e+02
  -3.462392e+02   3.924099e+02
  -7.500194e+02   1.493980e+01
  -5.250299e+02  -4.532746e+02
   2.863703e+02  -4.851216e+02
   6.503848e+02  -6.138711e+01
   3.598880e+02   4.323427e+02
  -1.381088e+02   5.097437e+02
  -4.369690e+02   2.053814e+02
  -3.476524e+02  -1.884730e+02
  -8.790125e+01  -4.126523e+02
   2.056062e+02  -2.766118e+02
   1.708532e+02   1.838421e+02
  -1.507986e+02   4.546403e+02
  -4.424184e+02   9.188025e+01
  -2.653651e+02  -5.471067e+02
   2.068695e+02  -6.663297e+02
   6.001789e+02  -8.322314e+01
   2.394394e+02   4.944039e+02
  -2.606060e+02   2.975638e+02
  -4.061203e+02  -2.952529e+02
   1.645524e+01  -4.649186e+02
   4.607611e+02  -2.256308e+02
   5.139096e+02   2.886727e+02
   2.013418e+02   5.404103e+02
  -3.206717e+02   3.586419e+02
  -5.550360e+02  -5.385098e+01
  -2.872306e+02  -3.270850e+02
   1.768246e+02  -3.783302e+02
   3.826355e+02  -1.376611e+02
   2.343438e+02   2.179386e+02
  -1.010710e+02   1.425546e+02
  -1.618701e+02  -1.472827e+02
   1.282364e+02  -2.054481e+02
   3.326835e+02   7.778824e+01
   1.203306e+02   2.762584e+02
  -1.538267e+02   2.035828e+02
  -2.653699e+02   5.920228e+01
  -1.518895e+02  -6.065813e+01
   2.084638e+01  -1.548645e+02
   7.301304e+01  -3.029398e+02
   2.497770e+02  -1.798628e+02
   2.159212e+02   6.458306e+01
   3.401697e+01   3.022506e+02
  -8.418164e+01   3.492395e+02
  -1.078160e+02   6.912039e+01
   2.046024e+01   5.957151e+00
  -8.850969e+00   5.128071e+01
  -1.466724e+02   1.347733e+02
  -2.261819e+02  -4.877142e+01
  -1.430523e+02  -1.888401e+02
   1.669060e+01  -2.343789e+02
   1.755351e+02  -6.167526e+01
   1.921111e+02   1.701900e+02
  -1.362015e+01   2.426390e+02
  -2.326225e+02   1.098961e+02
  -3.402926e+02  -1.374667e+02
  -1.962131e+02  -2.936128e+02
   3.612700e+01  -2.593271e+02
   1.612444e+02  -1.141227e+02
   1.483331e+02  -3.818135e+01
   2.838873e+01  -5.400991e+01
   1.607830e+02  -5.004794e+01
   3.347413e+02   2.681204e+01
   3.576636e+02   2.256246e+02
   1.913895e+01   4.221434e+02
  -2.236082e+02   3.779349e+02
  -3.701003e+02   1.737242e+02
  -3.178224e+02  -4.292854e+01
  -6.767707e+01  -2.537000e+02
   9.064774e+01  -2.315368e+02
   5.481748e+01  -9.924993e+00
  -4.960391e+01   1.248582e+02
  -1.699296e+02  -1.002619e+01
  -3.619954e+01  -1.591398e+02
   1.236204e+02  -1.506213e+02
   1.724811e+02   1.272928e+01
   2.091099e+01   1.311473e+02
  -1.384083e+02   6.651177e+01
  -1.086227e+02  -1.852894e+02
   4.185195e+01  -2.351840e+02
   1.901367e+02  -1.516904e+02
   2.711074e+02   1.646338e+01
   1.790223e+02   1.771995e+02
   1.868018e+02   2.033271e+02
  -9.191363e+01   1.298107e+02
  -1.218974e+02   2.035114e+01
  -7.521069e+01  -3.831660e+01
   9.195289e+01   2.254207e+01
   4.339265e+01   9.799103e+01
  -6.546827e+01   9.886108e+01
  -1.310005e+02  -2.301839e+01
  -8.465458e+01  -3.725546e+01
   5.284442e+01  -2.750341e+01
   3.458498e+01   4.887960e+01
  -7.370443e+01   1.105656e+02
  -2.396544e+02   3.375982e-01
  -1.920811e+02  -4.576913e+01
  -6.124564e+01  -2.060019e+02
   6.634333e+01  -2.097172e+02
   2.492347e+02  -1.168457e+02
   1.692132e+02   3.382738e+01
  -3.190607e+00   7.649475e+01
  -7.984430e+01   2.757107e+01
  -1.988734e+01  -6.062502e+01
   1.355491e+02  -9.703795e+01
   1.510839e+02   2.555545e+01
   8.521242e+01   1.615425e+02
  -4.662647e+01   1.290714e+02
  -1.380260e+02   2.302426e+01
  -2.974149e+01   6.701213e+00
   3.772909e+01  -1.797021e+01
  -1.215430e+01   4.738259e+01
  -7.732145e+01   7.998107e+01
  -9.894323e+01   2.313162e+01
  -1.470922e+02  -9.477484e+01
  -4.978419e+01  -1.719601e+02
   1.423909e+02  -1.253204e+02
   1.619154e+02  -3.546179e+00
   1.000388e+02   9.428288e+01
  -2.898497e+01   9.043701e+01
  -6.691238e+01   3.399748e+01
  -1.428869e+01  -5.940935e+01
   2.441896e+01  -4.322522e+01
   2.375398e+01  -3.078021e+01
  -1.198007e+02   2.827892e+01
  -9.620963e+01  -5.931799e+01
  -3.865983e+01  -9.136496e+01
   1.012682e+02  -1.396331e+02
   1.639966e+02  -9.100304e+01
   1.878303e+02   1.034918e+02
   9.280145e+01   2.158933e+02
  -9.198966e+01   1.313388e+02
  -8.632710e+01   4.379561e+01
  -2.345323e+01  -2.328151e+01
  -5.757214e+00  -2.401429e+01
  -3.730562e+01  -5.958479e+00
  -5.452677e+01   2.866240e+01
  -1.625266e+01  -1.710874e+01
  -1.398088e+00  -5.431078e+01
   6.149260e+01  -7.387081e+01
   7.196422e+01   1.635404e+01
  -2.213452e+01   6.281628e+01
  -9.076585e+01   8.016804e+01
  -1.430187e+02  -4.236621e+01
  -1.028849e+02  -1.221416e+02
  -1.256689e+01  -2.005563e+02
   2.451323e+02  -8.495221e+01
   2.355541e+02   3.855271e+01
   1.478304e+02   1.506024e+02
  -1.283639e+01   1.282136e+02
  -7.593394e+01   1.037268e+02
  -3.704507e+01   8.801357e+01
  -4.338948e+01   6.236411e+01
  -4.964946e+01   2.487122e+01
  -4.796108e+01   7.309004e+00
  -7.628594e+01  -1.182309e+02
  -1.079787e+02  -1.642756e+02
   3.551922e+01  -1.567566e+02
   1.276504e+02  -3.420063e+01
   1.240576e+02   8.103123e+01
   2.550870e+00   8.378986e+01
  -1.101754e+01   4.841044e+01
  -4.231449e+01  -2.672061e+00
  -9.485671e-01  -4.467767e+01
   9.885234e+00  -2.662530e+01
  -3.464657e+01  -6.296269e+00
  -2.022416e+01   1.403472e+00
  -3.944081e+01  -6.387505e+01
   1.460710e+01  -2.658325e+01
   1.387649e+02  -3.243319e+01
   9.684770e+01   2.722809e+01
   2.386783e+01   9.777697e+01
  -1.151503e+02   9.887273e+01
  -9.193102e+01   3.994749e+00
  -7.548752e+01  -3.108436e+01
   6.555620e+01  -3.880881e+01
   7.121154e+01   3.487833e+01
   2.593617e+01   6.551238e+01
  -3.604343e+01   4.403563e+01
  -2.393051e+01  -3.151750e+01
  -5.661704e+01  -8.059225e+01
  -2.644492e+01  -2.470182e+01
  -5.352722e+01   3.213717e+01
  -6.088985e+01  -2.676381e+01
  -6.012057e+00  -5.421694e+01
   3.623205e+01  -1.064166e+02
   8.589746e+01  -1.135714e+02
   8.858275e+01  -2.656520e+01
   1.607815e+02   6.897890e+01
   3.192193e+01   8.081349e+01
  -5.405190e+01   5.496977e+01
  -5.529008e+00  -2.263138e+01
   2.640246e+01  -2.823535e+01
   1.367362e+02  -1.605570e+01
   7.859452e+01   1.048091e+02
  -1.056936e+02   5.813341e+01
  -1.262101e+02   7.684581e+01
  -1.190727e+02  -3.951676e+01
  -4.363644e+01  -9.713864e+01
   7.459778e+01  -3.829278e+01
   3.975328e+01  -3.537826e+01
  -7.794594e+01   2.007685e+01
  -9.117316e+01  -2.848454e+01
  -3.565945e+01  -1.058315e+02
   3.479312e+01  -9.832395e+01
   1.141161e+02  -6.978177e+01
   1.224887e+02   1.190505e+02
   3.631314e+01   1.491097e+02
  -6.400396e+01   1.043524e+02
  -8.406606e+01   7.459532e+01
  -8.739529e+01  -7.580749e+01
  -3.318779e+01  -6.922249e+01
   3.301704e+01  -3.812320e+01
   9.526245e+01   1.230790e+01
   6.974683e+00  -1.781937e+01
  -3.611903e+01  -2.643748e+01
  -1.870582e+00   2.793499e+01
   5.127089e+01   7.509605e+01
   6.875269e+01   7.705263e+01
  -5.279127e+01   2.363513e+01
  -1.003040e+02  -1.269070e+01
  -6.507919e+01  -3.563753e+01
  -2.566497e+01  -5.025363e+01
   8.206139e+01  -3.140718e+01
   4.222975e+00  -5.875205e+00
  -1.890526e+01  -4.960995e+00
  -1.583447e+01   2.847614e+01
   2.643048e+00   5.412508e+00
   1.108277e+01   4.616181e+01
  -1.398495e+01  -1.574513e+01
  -7.916577e+01  -2.249328e+01
  -8.818484e+01  -3.769641e+01
  -2.313020e+01  -6.870412e+01
   8.817261e+01  -8.061072e+01
   1.538117e+02  -1.293279e+01
   1.031171e+02   7.634071e+01
   4.862086e+01   1.553466e+02
  -8.054852e+01   1.067668e+02
  -1.271707e+02   2.173930e+01
  -2.405847e+01  -3.401631e-01
  -2.845832e+01  -1.427332e+01
   2.733083e+01  -4.569914e+01
  -2.280646e+01  -2.318311e+00
   1.992926e+01   5.051355e+00
  -5.259279e+01  -8.939838e+01
   3.143940e+01  -5.903746e+01
   6.002211e+01   6.268080e+00
   8.296938e+01   1.247381e+02
  -1.961667e+01   7.236048e+01
  -5.420362e+01   6.965754e+00
  -1.112333e+02  -6.281186e+01
  -4.275961e+01  -6.246693e+01
   5.010787e+01  -5.133180e+01
   8.931591e+01   7.540866e+00
   3.417547e+01   3.969973e+01
   2.227891e+01   2.378951e+01
  -3.232969e+01   4.771831e+01
   2.536759e+01   2.750628e+01
   4.667931e+01   1.227899e+01
  -4.603985e+00   2.292927e+01
  -9.192320e+01   8.491469e+01
  -8.045423e+01   7.494052e+01
  -1.268005e+01   2.399143e+00
   4.373579e+01  -1.872068e+01
   4.045033e+01  -8.051587e+01
   1.263941e+01  -4.025740e+01
  -4.953855e+00   5.595866e+01
  -3.230628e+01   1.305081e+01
  -2.141609e+01   1.681962e+01
  -1.915547e+01  -3.341009e+01
  -4.625883e+00  -2.348104e+01
   2.129873e+01   1.633490e+01
   9.356205e+01   2.402131e+01
  -1.900243e+01   1.749575e+01
   2.433855e+00   9.148935e-01
   2.168769e+01  -1.095167e+01
   2.170136e+01   4.643419e+01
  -2.103171e+01   7.367487e+01
  -8.493780e+01  -1.814290e+01
  -6.566584e+01  -5.344422e+01
  -1.480395e+00  -8.273438e+01
   4.864909e+01  -1.786323e+01
   3.431370e+01   2.635365e+01
  -1.142528e+01   6.286574e+01
  -6.311786e+01   6.335680e+01
  -9.805459e+01   1.755080e+01
  -3.395607e+01  -1.795506e+01
   3.404523e+01  -7.669001e+01
   1.764984e+01   1.222361e+01
   1.913969e+01  -3.555686e+00
  -2.071193e+01   1.514254e+01
  -3.135255e+01  -4.021896e+01
   5.248796e+00  -3.838834e+01
   8.205854e+01  -3.982055e-01
