
 $NMID
 id='ANONYMOUS ', fmtdat='(2E16.6)'
 volume=1.0
 tramp=1.0
 $END
  -3.537071e+03  -1.007786e+03
  -1.648446e+03  -1.708815e+03
   4.416710e+02  -1.993451e+03
   1.160479e+03  -1.008158e+03
   7.373947e+02  -1.397262e+02
  -1.724310e+01   1.178591e+02
  -2.266451e+02  -1.709224e+02
  -9.691396e+00  -5.490771e+02
   3.618411e+02  -6.966286e+02
   7.088914e+02   1.023135e+02
   3.619251e+02   3.471954e+02
   6.061268e+01   5.572470e+02
  -2.914933e+02   1.552347e+02
  -2.432712e+02  -4.539982e+02
   2.264406e+02  -5.261673e+02
   4.124805e+02  -9.452326e+01
   1.734635e+02   4.735031e+02
  -1.742939e+02   6.249833e+02
  -3.965067e+02   2.566471e+02
  -4.621667e+02  -1.829044e+02
  -1.239634e+02  -3.407610e+02
   1.146713e+02  -2.283247e+02
   9.338278e+01  -6.929570e+01
  -2.303585e+02  -5.244363e+01
  -3.490427e+02  -2.913128e+02
  -6.967431e+01  -2.968159e+02
   3.894500e+02  -2.350175e+02
   6.008603e+02   1.940375e+02
   2.373282e+02   3.673300e+02
  -3.037669e+02   1.626931e+02
  -5.417225e+02  -1.215313e+02
  -1.262661e+02  -3.098638e+02
   2.292738e+02  -3.554328e+02
   5.035594e+02  -4.978276e+01
   2.674421e+02   2.102606e+02
   1.817194e+01   3.001277e+02
   6.943711e+00   2.054904e+02
  -3.874457e+01  -1.374904e+02
   1.861131e+02  -1.051054e+02
   2.246559e+02   1.177772e+02
   2.320051e+01   4.933254e+02
  -2.946055e+02   3.675361e+02
  -3.556366e+02   7.541312e+00
  -8.020088e+01  -2.819492e+02
   1.404443e+02  -1.525022e+02
   2.133070e+02   1.781413e+02
  -1.131040e+02   3.782457e+02
  -4.623318e+02  -2.219594e+01
  -4.668426e+02  -3.670338e+02
  -2.316869e+01  -4.363312e+02
   2.866946e+02  -2.509902e+02
   5.284990e+02   5.624752e+01
   2.949079e+02   2.168743e+02
  -1.144879e+02   2.361926e+02
  -2.012059e+02   9.678040e+01
  -1.938134e+02  -3.840891e+01
   1.141179e+01  -3.786264e+01
   2.981986e+01   2.435004e+01
  -7.243499e+01   5.979599e+01
  -2.359481e+02  -5.741733e+01
  -7.614980e+01  -1.979097e+02
   1.304092e+02  -2.505304e+02
   2.963341e+02  -9.132836e+01
   2.132800e+02   7.794737e+01
   2.925398e+00   3.136231e+02
  -3.079701e+02   3.532542e+02
  -2.568480e+02   1.885493e+02
  -2.287875e+02  -1.226208e+02
   2.140641e+01  -3.280453e+02
   5.007715e+01  -2.558062e+02
   2.010510e+01  -1.495435e+02
  -7.671377e+00  -8.445976e+01
   1.141534e+02  -1.013088e+02
   2.465826e+02  -5.044747e+01
   1.743982e+02   1.148731e+02
   9.112787e+01   2.841600e+02
  -1.285745e+02   1.560256e+02
  -1.843741e+02  -4.914410e+01
  -1.027666e+02  -2.723036e+02
   6.867750e+01  -1.692131e+02
   2.836288e+02  -4.930405e+01
   3.044348e+02   1.175830e+02
   1.471879e+02   2.527374e+02
  -1.204415e+02   2.063861e+02
  -8.861630e+01   1.147868e+02
  -1.191348e+02  -3.785149e+00
  -1.410818e+02   4.681617e+01
  -2.015392e+02   6.787815e+01
  -4.005843e+02  -7.728746e+01
  -3.153209e+02  -2.091070e+02
   5.365952e+01  -3.360316e+02
   3.923652e+02  -3.093585e+02
   4.182112e+02  -1.944848e+02
   2.732318e+02   7.710524e+01
   2.579032e+00   2.133587e+02
  -1.814298e+02   1.610366e+02
  -3.019869e+01   3.986877e+01
   1.518211e+02  -4.231240e+01
   1.317409e+02   9.369641e+01
  -1.346282e+01   1.245861e+02
  -1.002205e+02   1.507408e+02
  -8.434772e+01  -7.826831e+01
   2.143707e+01  -1.055919e+02
   1.316892e+02  -4.492538e+00
   1.294514e+02   2.116098e+02
  -2.038025e+00   2.969779e+02
  -2.844690e+02   1.539404e+02
  -2.703201e+02  -9.607728e+01
  -3.150799e+02  -1.793104e+02
  -7.369971e+01  -2.623866e+02
   1.094895e+02  -1.147736e+02
   1.270038e+02  -1.043703e+01
   1.184807e+01   6.707157e+00
  -7.104705e+01  -8.916049e+01
   2.868424e+01  -1.360788e+02
   1.194948e+02  -7.905290e+01
   1.515258e+02   4.974687e+01
   4.907304e+01   5.181945e+01
  -4.280407e+01  -4.411121e+01
  -7.324041e+01  -1.119100e+02
   1.093316e+02  -1.160187e+02
   2.477954e+02   1.142737e+02
   2.634571e+02   1.770069e+02
   2.307976e+01   2.237183e+02
  -1.735974e+02   1.855473e+02
  -2.353480e+02   8.806003e+01
  -7.222655e+01  -7.411071e+01
   6.250784e+01  -5.193631e+01
   6.572678e+01  -1.053296e+01
  -9.277758e+01   3.012827e+01
  -1.320585e+02   2.387856e+01
  -1.774923e+02  -9.792068e+01
   1.231154e+00  -1.586335e+02
   8.930016e+01  -1.368533e+02
   9.169551e+01  -1.630478e+01
   3.919755e+01   2.367192e+01
  -3.203430e+01  -5.015342e+01
  -1.449435e+01  -1.270224e+02
   9.400373e+01  -1.024262e+02
   2.142097e+02   3.001964e+01
   1.700832e+02   1.298798e+02
  -5.338256e+00   2.128924e+02
  -1.249724e+02   1.780515e+02
  -1.453632e+02  -2.882645e+01
  -4.378510e+01  -1.202509e+02
   4.870181e+01  -7.733565e+01
   7.164087e+01   1.444002e+00
  -4.474020e+00   3.312438e+01
   1.557347e+01  -3.765671e+01
   1.454107e+01  -4.344519e+01
   1.062767e+02  -2.239108e+01
   1.074415e+02   7.643383e+01
   2.380381e+01   1.386239e+02
  -1.156051e+02   6.854172e+01
  -2.175208e+02  -5.445362e+01
  -1.499753e+02  -1.264728e+02
  -3.312587e+01  -2.261047e+02
   1.182565e+02  -1.539775e+02
   1.136378e+02  -2.635300e+01
   8.144302e+01   7.592708e+01
   3.811415e+01   2.112787e+01
   3.244400e+01  -8.434285e+00
   9.290074e+01  -8.550430e+00
   3.336170e+01   3.216068e+01
  -7.383180e+01   1.176384e+02
  -7.573556e+01   9.053788e+01
  -8.942333e+01   2.774209e+00
   4.637310e+01  -9.066130e+01
   1.589023e+02  -7.270658e+01
   1.565528e+02   1.236433e+01
   3.780678e+01   1.603310e+02
  -1.802184e+02   1.882931e+02
  -2.310266e+02   1.314711e+01
  -2.407221e+02  -4.524514e+01
  -6.767022e+01  -1.560129e+02
   5.637864e+01  -1.092788e+02
   9.126069e+01  -7.361892e+01
   8.158776e+01  -3.212979e+01
   1.627268e+01  -6.576591e+01
   9.176045e+01  -8.164742e+01
   1.169596e+02   1.671377e+01
   6.543907e+01   1.553313e+02
   1.349141e+01   2.077004e+02
  -1.148511e+02   1.346477e+02
  -1.738349e+02  -7.356827e+00
  -1.450556e+02  -1.486777e+02
   1.392978e+00  -1.457508e+02
   3.684628e+01  -1.092853e+02
   5.331095e+01   1.977072e+01
   7.856141e+00   2.017803e+01
  -2.269047e+01   5.543020e+01
  -6.416047e+00   5.551034e+00
   7.888273e+01  -3.891687e+00
   2.653723e+01   5.439788e+01
  -8.970350e+01   2.952286e+00
  -1.791765e+02  -1.873710e+01
  -1.196188e+02  -4.928658e+01
   2.692865e+01  -6.978961e+01
   9.676649e+01  -4.526102e+01
   1.135808e+02   2.156699e+01
   3.583307e+01   6.701112e+01
  -8.637014e+01   2.368899e+01
  -1.090151e+02   3.564535e+00
  -1.449805e+01  -6.340888e+01
   4.588329e+01  -4.018982e+01
   5.233590e+01   3.981155e+00
   6.184680e+01   5.186419e+01
   1.910708e+01   3.730143e+01
   2.638666e+01  -8.696017e+00
   4.487344e+01  -8.445401e-01
   5.844347e+01   6.251916e+01
  -2.516366e+01   1.311367e+02
  -1.125169e+02   1.397717e+02
  -1.372734e+02   3.451583e+01
  -1.116309e+02  -1.323745e+02
  -1.158299e+01  -1.281413e+02
   7.611818e+01  -2.878836e+01
   4.149565e+01  -1.274619e+01
  -6.242401e+01   1.411473e+01
  -1.537591e+02  -6.394195e+01
  -5.886162e+01  -4.614900e+01
   8.645675e+01  -9.395235e+01
   1.526116e+02  -2.461581e+01
   1.449695e+02   6.077346e+01
   5.024206e+01   1.024255e+02
  -5.561192e+01   4.223207e+01
  -2.390542e+01   6.616321e+00
   2.752868e+01   2.680077e-01
   1.028903e+02   1.819520e+01
   7.370189e+01   1.361031e+02
  -8.294066e+01   1.219521e+02
  -1.443703e+02   4.432537e+01
  -9.978226e+01  -6.507753e+01
   7.547818e+00  -1.990106e+02
   1.031053e+02  -1.184311e+02
   7.851319e+01   5.881421e+01
   5.692397e+01   1.220389e+02
  -3.058927e+01   1.031879e+02
  -4.950845e+01   5.986332e-01
  -5.332141e+01  -3.670010e+01
  -1.238135e+01  -2.577313e+01
  -7.284178e+00   1.097768e+01
  -3.523198e+01  -6.030660e+01
  -5.945617e+01  -6.307186e+01
  -3.734204e+01  -7.209937e+01
   3.808578e+01  -4.969392e+01
   1.612063e+02   5.154810e+01
   1.137084e+02   7.142915e+01
  -9.013176e-01   2.470320e+01
  -6.729030e+01   3.807808e+01
  -8.860884e+01   4.272081e+01
  -2.545252e+01  -1.280903e+01
  -5.324098e+00  -5.242740e+00
   4.167497e+01  -5.577264e+01
  -2.359151e+01   7.667187e+00
   1.499954e+01  -1.135982e+01
   8.921743e+01  -4.632566e+00
   9.790848e+01   3.555594e+01
   3.497423e+01   6.337205e+01
  -1.219392e+02   1.090785e+02
  -1.774046e+02   6.221071e+01
  -1.762421e+02  -2.288596e+01
  -1.719143e+01  -1.824986e+02
   6.264252e+01  -1.404844e+02
   8.797456e+01  -5.991363e+01
   5.305842e+01   1.679584e+01
  -3.367758e+00   3.821333e+01
   2.253847e+01   1.792308e+00
   4.064835e+01   2.614783e+01
   9.544279e+00   3.981996e+01
   1.511332e+01   1.255307e+02
  -2.163183e+01   9.729377e+01
  -7.087392e+01   1.352999e+01
  -9.545839e+01  -7.404097e+01
   1.033516e+01  -8.147369e+01
   9.281514e+01  -2.049943e+01
   1.213320e+02   5.164035e+01
   1.154538e+01   4.071450e+01
  -8.402388e+01   2.419521e+01
  -1.050389e+02   2.189373e+01
  -4.137893e+01  -5.526916e+01
  -9.500753e-02  -3.322969e+01
   4.506718e+01  -3.020614e+00
  -1.791281e+01   1.967298e+01
  -9.864108e+01  -5.023964e+01
   1.680850e+01   2.953529e+00
   7.813302e+01  -2.179792e+01
   9.750218e+01  -6.568171e+01
   7.313482e+01  -2.691389e+00
  -3.042515e+01   8.816012e+01
  -5.770989e+01   7.240727e+01
  -6.646945e+01  -6.108282e+00
  -1.632480e+01  -5.650948e+01
  -4.756483e+00  -6.316890e+01
   2.126839e+01   9.748517e+00
   8.919539e+00   7.514020e+01
   9.020982e+00   3.142961e+01
  -1.042331e+01   7.604282e+00
  -3.099575e+01  -5.027342e+01
  -3.380048e+01  -1.891145e+00
   1.070215e+01   1.770777e+01
  -3.231440e+01  -1.368593e+00
  -1.157351e+00   3.942596e-01
   1.803464e+01  -2.196670e+01
   2.119051e+00  -5.855185e+01
   1.793691e+01  -7.973827e+00
   1.306711e+01   6.241069e+01
  -2.451845e+01   6.244201e+00
  -4.263653e+01  -4.945777e+01
   1.713589e+01  -6.212182e+01
   2.766980e+01  -2.809815e+01
   1.209128e+02  -5.693698e+00
   5.837067e+01   7.481374e+01
  -4.317033e+01   6.977096e+01
  -5.590495e+01   8.210628e-01
  -1.299590e+01   2.493426e+01
   2.819733e+01  -4.527304e+01
   3.493952e+01  -1.931186e-02
  -3.305642e+01   3.362638e+01
  -7.134286e+01   1.730683e+01
