
 $NMID
 id='ANONYMOUS ', fmtdat='(2E16.6)'
 volume=1.0
 tramp=1.0
 $END
   4.414171e+03   7.834875e+02
   2.125354e+03   3.277411e+03
  -1.388122e+03   2.591580e+03
  -2.340784e+03   1.465876e+02
  -6.272579e+02  -9.708010e+02
   7.507994e+02  -5.647593e+02
   8.957632e+02   5.384347e+02
  -1.653275e+02   1.128878e+03
  -1.107128e+03   6.789732e+02
  -8.944510e+02  -3.260848e+02
  -3.849049e+02  -9.379506e+02
   3.740858e+02  -8.856000e+02
   6.082528e+02  -1.748620e+01
   3.286524e+02   7.945613e+02
  -3.880386e+02   6.428929e+02
  -5.813466e+02  -4.947290e+01
  -1.426243e+02  -6.744172e+02
   5.124800e+02  -5.395420e+02
   5.928252e+02  -4.495054e+01
   2.486711e+02   3.608497e+02
  -1.211142e+02   4.211605e+02
  -3.059841e+02   2.473954e+02
  -2.229432e+02  -5.723021e+01
   1.185460e+02  -9.887212e+01
   4.503265e+02   1.864617e+02
   1.396699e+02   4.163482e+02
  -4.971039e+02   3.498447e+02
  -9.106000e+02  -3.055949e+02
  -3.319516e+02  -7.844527e+02
   5.201541e+02  -5.697233e+02
   7.477275e+02   1.524583e+02
   2.298181e+02   5.052979e+02
  -3.317984e+02   5.078446e+02
  -5.730121e+02   8.454375e+01
  -4.451811e+02  -2.816708e+02
   3.383135e+01  -5.201880e+02
   2.858260e+02  -2.231813e+02
   1.431159e+02   3.079132e+02
  -2.238932e+02   4.593699e+02
  -4.589837e+02  -1.364901e+02
  -1.944639e+02  -6.969026e+02
   3.556554e+02  -6.796262e+02
   5.903564e+02   8.024908e+01
   1.531394e+02   5.755857e+02
  -2.972984e+02   3.305335e+02
  -2.675674e+02  -3.926187e+02
   2.127904e+02  -5.515514e+02
   5.726374e+02  -7.776679e+01
   4.920027e+02   4.919506e+02
   1.692952e+01   6.691386e+02
  -4.446033e+02   3.359257e+02
  -6.192606e+02  -1.674383e+02
  -3.085724e+02  -3.640195e+02
   2.279075e+02  -2.814088e+02
   4.430099e+02   2.193050e+01
   1.779090e+02   3.000090e+02
  -1.956248e+02   1.017851e+02
  -1.591964e+02  -2.091398e+02
   1.815896e+02  -1.911073e+02
   3.842147e+02   1.720166e+02
   6.228528e+01   3.591660e+02
  -2.600540e+02   1.988669e+02
  -3.384395e+02   6.313570e+01
  -1.784058e+02  -5.373209e+01
   1.122863e+02  -1.900911e+02
   1.821728e+02  -2.174678e+02
   3.102337e+02  -1.488782e+02
   3.054656e+02   1.226718e+02
   6.562143e+01   3.689658e+02
  -1.585241e+02   4.136008e+02
  -1.277703e+02   4.092850e+01
  -1.472090e+01  -3.022675e+01
  -2.695304e+01   8.078246e+01
  -1.490386e+02   1.239682e+02
  -3.535399e+02  -4.076498e+01
  -1.338193e+02  -3.318983e+02
   1.380975e+02  -3.102459e+02
   2.551949e+02   4.046160e+01
   1.744435e+02   2.324607e+02
  -4.915853e+01   2.515317e+02
  -3.717089e+02   5.947462e+01
  -3.924683e+02  -2.007555e+02
  -1.808587e+02  -3.892406e+02
   1.383661e+02  -2.911406e+02
   2.617404e+02  -9.397568e+01
   1.197119e+02   7.452385e+00
   7.290318e+01   3.421760e+01
   2.163202e+02  -6.795181e+01
   3.489844e+02   4.656205e+01
   2.877768e+02   2.705400e+02
  -1.168300e+02   3.566929e+02
  -2.390404e+02   2.880864e+02
  -4.512988e+02   2.092539e+02
  -3.399371e+02  -1.093515e+02
  -4.233789e+00  -2.897214e+02
   1.929068e+02  -2.135765e+02
   7.113555e+01  -4.660153e+01
  -1.466688e+02   8.575102e+01
  -2.233408e+02  -3.924681e+00
  -3.132172e+01  -2.262567e+02
   1.849500e+02  -1.903157e+02
   1.948692e+02   1.083331e+02
  -1.017770e+01   1.857898e+02
  -1.991522e+02   2.063035e+01
  -1.333936e+02  -2.672445e+02
   4.878995e+01  -3.661205e+02
   2.421214e+02  -1.584805e+02
   2.385995e+02   3.292817e+01
   2.764580e+02   2.670623e+02
   7.243161e+01   2.395924e+02
  -9.743892e+01   1.469020e+02
  -1.849550e+02  -8.409466e+00
  -9.849260e+01  -2.001384e+01
   9.964019e+01   4.514469e+01
   7.971321e+01   1.555917e+02
  -1.563986e+02   9.214006e+01
  -1.900856e+02  -1.023673e+01
  -1.039793e+02  -8.758837e+01
   6.117178e+01  -1.288432e+01
   2.805601e-01   4.566242e+01
  -9.560354e+01   1.632742e+01
  -2.562485e+02  -3.266573e+01
  -2.522373e+02  -1.408061e+02
  -9.847255e+01  -2.575795e+02
   2.005110e+02  -2.009065e+02
   2.621254e+02  -8.556869e+01
   1.412291e+02   5.042152e+01
  -8.622018e+01   1.477899e+02
  -1.125976e+02   3.691853e+00
   3.806446e+01  -7.861550e+01
   2.048414e+02  -8.445573e+00
   1.925988e+02   1.144896e+02
  -4.416242e+00   2.318889e+02
  -1.162548e+02   1.248450e+02
  -1.587612e+02   3.083423e+01
  -6.042630e+01  -1.035596e+02
   1.240865e+01   1.304003e+01
   1.960111e+01   4.346904e+01
  -6.188281e+01   8.372471e+01
  -1.524765e+02   6.269004e+01
  -1.516384e+02  -1.329509e+02
  -1.401641e+01  -2.318213e+02
   1.583142e+02  -1.308398e+02
   2.168863e+02   2.341823e+01
   6.392577e+01   1.157456e+02
  -6.539602e+01   1.063983e+02
  -8.857350e+01   7.215286e+00
  -2.538084e+01  -6.462366e+00
   2.383013e+01  -4.675852e+01
  -3.279027e+01   6.871855e+00
  -2.888772e+01   1.214142e+01
  -4.607013e+01  -9.878752e+01
  -5.207585e+00  -1.614902e+02
   1.236782e+02  -1.583955e+02
   2.065820e+02   6.173429e+01
   1.384003e+02   1.766499e+02
   3.524865e+01   2.138593e+02
  -1.148977e+02   1.724617e+02
  -1.356483e+02   9.168214e+00
  -7.543155e+01  -3.808731e+01
  -1.737434e+01  -3.483301e+01
  -5.529671e+01   3.331429e+01
  -2.505085e+01  -7.695137e+00
  -3.675654e+01  -8.605939e+01
   8.215763e+01  -9.056871e+01
   1.259145e+02  -6.286906e+01
   6.935307e+01   3.481322e+01
  -2.031766e+01   8.301118e+01
  -1.474556e+02   3.342470e+01
  -1.978973e+02  -7.571872e+01
  -9.178980e+01  -1.941683e+02
   1.301088e+02  -2.233249e+02
   2.543499e+02  -8.076048e+01
   2.620796e+02   1.404498e+02
   8.052189e+01   2.141797e+02
  -4.051843e+01   1.327115e+02
  -1.076920e+02   5.612329e+01
  -1.005103e+02   5.905218e+01
  -7.988695e+01   5.799410e+01
  -8.006233e+01   6.306418e+01
  -7.123057e+01  -5.989974e+00
  -1.076600e+02  -1.757992e+02
  -4.410555e+01  -1.802566e+02
   1.044753e+02  -1.767873e+02
   1.957136e+02  -8.507442e+00
   1.346514e+02   1.534511e+02
   3.622034e+01   2.082159e+02
  -5.885644e+01   9.812928e+01
  -2.389425e+01   3.882758e+00
   1.583591e+01  -9.114681e+00
  -1.179618e+01  -4.413754e+01
  -3.698165e+01  -2.342461e+01
  -5.481459e+01  -4.263537e+01
  -1.976721e+01  -1.885409e+01
   8.312725e+01  -2.064207e+01
   1.222863e+02   2.145593e+00
   1.491673e+02   4.462598e+01
   9.144228e+00   3.882484e+01
  -9.594074e+01   6.644795e+01
  -1.270617e+02  -7.994836e+00
  -5.376289e+01  -3.076775e+00
   8.103630e+01  -2.458086e+00
   6.800805e+01   6.149610e+00
  -7.276676e+00   5.524165e+01
  -6.623751e+01   7.340928e+01
  -3.137986e+01  -2.008535e+01
  -3.222551e+01  -5.275295e+01
  -5.650906e+01   1.651222e+00
  -6.304145e+01  -5.316925e+01
  -2.630845e+01   2.852552e+01
  -4.785711e+01  -2.826296e+01
   1.095706e+02  -1.274742e+02
   1.684234e+02  -1.326024e+02
   1.213644e+02  -8.430510e+00
   1.227149e+02   1.284202e+02
  -7.477485e+00   1.217652e+02
  -1.051944e+02   3.392818e+01
  -8.086845e+01  -6.247282e+01
   8.950998e+01  -4.969554e+01
   1.568995e+02   8.017553e+01
   4.416883e+01   1.279908e+02
  -1.157987e+02   7.834825e+01
  -2.028149e+02   4.958202e+01
  -1.594682e+02  -7.145881e+01
  -2.199349e+01  -1.094044e+02
   6.822941e+01  -8.681473e+01
   6.499430e+01   2.111425e+00
  -7.450057e+01   1.543270e+01
  -8.817200e+01  -3.542270e+01
  -5.421400e+01  -1.286424e+02
   1.204017e+02  -1.725938e+02
   1.383956e+02  -3.931757e+01
   8.984536e+01   6.693814e+01
  -5.071173e+00   1.966865e+02
  -1.099450e+02   1.104364e+02
  -1.108468e+02  -2.397628e+01
  -2.585620e+01  -1.101292e+02
   1.839794e+01  -1.237602e+02
   7.136730e+01  -3.798284e+01
   5.414740e+01   5.042420e+01
   3.511129e+00  -6.062004e+01
   1.787872e+01  -5.070997e+01
   3.351543e+00   4.602280e+00
   3.610689e+01   1.102256e+02
   3.528597e+01   9.280893e+01
  -9.360144e+01   3.672242e+01
  -1.344944e+02  -7.513179e+01
  -1.243639e+02  -1.210068e+02
   6.128794e+00  -5.623908e+01
   9.562941e+01   7.977752e+00
   9.186591e+01  -6.666587e+00
  -1.215022e+01   1.228865e+00
  -3.990822e+01   2.132182e+01
   1.583968e+01  -4.674029e+00
  -2.499838e+00   4.091370e+00
   6.252532e+00  -1.205012e+01
  -3.231008e+01  -1.264565e+01
  -7.351905e+01  -1.603993e+01
  -3.630472e+01  -6.911773e+01
   1.550685e+02  -7.005007e+01
   1.253929e+02  -3.653174e+01
   1.336056e+02   4.145442e+01
  -4.399282e+01   1.786304e+02
  -9.382680e+01   1.207777e+02
  -9.812181e+01   3.410975e+01
  -4.678300e+01  -1.279950e+01
  -5.738880e-01  -1.702747e+01
  -3.955044e+00   8.198797e+00
  -5.488711e+00   3.464690e+00
  -1.191201e+01  -2.752392e+01
  -2.493633e+00  -8.764463e+01
   4.741941e+01  -7.468056e+01
   9.337336e+01   2.548134e+00
   4.021089e+01   9.775043e+01
  -9.919612e+00   7.829588e+01
  -1.159076e+02  -1.792348e+01
  -7.254762e+01  -8.291673e+01
   3.126350e+01  -1.168365e+02
   8.992288e+01  -3.967595e+01
   9.074144e+01   1.531188e+01
   6.333149e+01   2.531099e+01
  -6.834045e+01   2.843647e+01
  -1.888388e+01   2.067171e+01
   7.744118e+00   5.617804e+01
   7.412671e+01   1.707243e+00
   4.954042e+00   6.406701e+01
  -8.033274e+01   3.973335e+01
  -6.807807e+01   2.977352e+01
  -4.661973e+01  -8.681643e+00
   2.623184e+01  -6.845422e+01
   5.860941e+01  -7.194646e+01
   3.237064e+01   3.147973e+01
  -1.240288e+01   3.873778e+01
  -5.662013e+01   3.703057e+01
  -7.467868e+01  -1.904106e+01
  -6.317476e+01  -5.588658e+01
  -1.535792e+01  -5.049749e+01
   1.876035e+01   1.151191e+01
   6.228229e+01   1.301587e+01
  -4.540977e+00  -1.014616e+01
  -2.511693e+01  -3.058183e+01
  -1.772506e+01  -1.242384e+01
  -1.959157e+01   1.072230e+01
  -4.465452e+01   2.913410e+01
  -1.958969e+01  -1.211818e+01
  -2.312834e+01  -5.733178e+01
  -5.458237e+00  -1.125470e+01
   3.991563e+01   2.955842e+01
   4.525541e+01   5.395674e+01
  -3.198502e+01   4.693687e+01
  -4.655813e+01   4.791477e+01
  -3.415755e+01   7.909140e+00
  -4.926641e+01   6.632116e+00
   4.984047e+01  -5.298732e+01
   5.363218e+01   2.913408e+00
   3.483313e+01  -1.146081e+01
   4.016418e+00  -1.162148e+01
  -5.460050e+01  -2.045129e+01
   4.788118e+01  -3.927365e+01
   9.180364e+01   7.797903e+00
