
 $NMID
 id='ANONYMOUS ', fmtdat='(2E16.6)'
 volume=1.0
 tramp=1.0
 $END
   4.411161e+03   5.231251e+02
   2.152843e+03   2.523210e+03
  -6.530626e+02   2.376094e+03
  -1.892145e+03   7.602482e+02
  -8.464991e+02  -6.254311e+02
   3.483776e+02  -3.155077e+02
   6.873385e+02   3.885626e+02
   1.097083e+01   7.543323e+02
  -5.180698e+02   5.557557e+02
  -7.291117e+02  -2.258772e+02
  -3.639145e+02  -7.383929e+02
   6.349652e+01  -7.900446e+02
   5.908284e+02  -2.360066e+02
   3.566911e+02   5.285200e+02
  -2.667558e+02   6.720098e+02
  -5.653825e+02   2.061049e+01
  -1.137870e+02  -6.123425e+02
   3.092370e+02  -4.918100e+02
   4.489246e+02  -1.471458e+02
   4.188745e+02   2.245155e+02
   3.382343e+01   3.116834e+02
  -1.446268e+02   2.133062e+02
  -1.641169e+02  -2.823237e+01
   1.499328e+02  -7.016980e+01
   3.430925e+02   2.163467e+02
   8.856355e+01   4.403017e+02
  -4.400784e+02   2.768987e+02
  -7.203126e+02  -2.013413e+02
  -2.841250e+02  -5.164367e+02
   4.143236e+02  -3.768568e+02
   7.027199e+02   1.859224e+02
   2.768925e+02   4.877821e+02
  -2.999818e+02   4.208718e+02
  -5.531864e+02   1.621487e+02
  -3.037792e+02  -2.434298e+02
   1.064243e+01  -4.185481e+02
   2.656668e+02  -1.912092e+02
   4.295321e+01   2.119672e+02
  -2.327900e+02   3.347846e+02
  -3.226337e+02  -2.037611e+01
  -1.844197e+02  -4.691703e+02
   3.412299e+02  -4.928031e+02
   5.069990e+02   7.818901e+01
   1.948510e+02   4.780896e+02
  -2.750892e+02   2.624976e+02
  -3.084689e+02  -3.828694e+02
   7.302890e+01  -5.033793e+02
   4.957651e+02  -9.888535e+00
   4.814718e+02   3.401535e+02
   1.076707e+02   5.135884e+02
  -3.728076e+02   2.499986e+02
  -5.775675e+02  -1.213866e+02
  -3.569490e+02  -3.569076e+02
   1.327134e+02  -3.290368e+02
   3.519661e+02  -4.901813e+01
   2.047730e+02   1.403466e+02
  -8.662896e+01   9.383286e+01
  -6.277678e+01  -1.188489e+02
   1.361649e+02  -1.685290e+02
   3.210028e+02   1.316373e+02
   8.783894e+01   3.076197e+02
  -1.450637e+02   2.005287e+02
  -2.975837e+02   1.171070e+02
  -1.989098e+02  -2.761770e+01
   4.185727e+01  -2.210603e+02
   2.485287e+02  -2.795713e+02
   2.966418e+02  -1.925562e+02
   2.568924e+02   1.561405e+02
   1.129867e+02   4.093753e+02
  -4.233613e+01   3.285441e+02
  -8.356362e+01   6.850689e+01
  -3.039951e+01   4.436060e+01
  -7.489117e+01   7.381486e+01
  -2.358007e+02   9.897360e+01
  -2.963355e+02  -6.042840e+01
  -9.760157e+01  -2.879074e+02
   1.714578e+02  -1.963238e+02
   2.181569e+02   8.646228e-01
   1.854006e+02   2.389641e+02
  -5.997557e+01   2.726782e+02
  -2.626586e+02   6.041747e+01
  -2.726504e+02  -1.365857e+02
  -2.273354e+02  -3.171276e+02
   6.212652e+01  -3.777892e+02
   2.104584e+02  -1.790547e+02
   1.100457e+02  -2.318512e+01
   1.334416e+02  -1.055861e+02
   3.265279e+02  -5.878880e+01
   4.021669e+02   9.203622e+01
   4.060208e+02   2.738240e+02
  -7.790402e+01   5.220197e+02
  -3.714986e+02   3.784196e+02
  -4.266934e+02   1.840812e+02
  -3.030219e+02  -1.272457e+02
  -3.187462e+01  -2.769124e+02
   1.210989e+02  -2.009576e+02
   7.820924e+01  -7.666283e+01
  -9.618826e+01   8.553806e+01
  -1.733998e+02   5.445965e+00
  -5.243709e+01  -1.844791e+02
   1.925315e+02  -1.296602e+02
   1.586589e+02   9.750527e+01
  -1.672708e+01   1.653246e+02
  -1.876109e+02   3.694108e+00
  -1.438733e+02  -2.433871e+02
   1.704632e+01  -3.462982e+02
   2.958558e+02  -1.721539e+02
   3.751853e+02   2.256763e+01
   2.506068e+02   2.902518e+02
   8.412534e+01   1.964992e+02
  -1.340026e+02   1.588101e+02
  -1.418816e+02   1.900793e+01
  -6.904642e+01  -9.304321e+00
   6.421824e+01   6.890334e+01
   1.289402e+01   1.445052e+02
  -1.151340e+02   1.016536e+02
  -1.819264e+02  -3.121048e+01
  -5.791008e+01  -3.969255e+01
   5.451728e+01  -1.399030e+01
   3.398306e+01   1.440808e+02
  -1.636763e+02   7.112864e+01
  -3.061055e+02  -4.135377e+01
  -2.676081e+02  -1.080666e+02
  -3.879551e+01  -2.578802e+02
   2.484310e+02  -2.696377e+02
   3.049089e+02  -1.965920e+02
   1.564963e+02   5.956524e+01
  -5.674089e+00   7.407277e+01
  -4.810418e+01  -3.798216e+00
   2.825986e+01  -8.365666e+01
   1.855570e+02  -7.168091e+01
   2.190514e+02   1.146902e+02
   3.910194e+01   2.171620e+02
  -4.956053e+01   1.211080e+02
  -1.435208e+02   2.115171e+01
  -6.492411e+01  -3.306028e+01
   3.340099e+01   4.324278e+01
   2.912690e+01   8.762637e+01
  -8.904903e+01   7.448071e+01
  -1.997128e+02   7.057374e+01
  -1.755635e+02  -1.263707e+02
  -2.490098e+01  -1.786747e+02
   1.375980e+02  -8.011022e+01
   2.010566e+02   3.240637e+01
   8.402599e+01   5.962110e+01
  -1.212338e+02   9.925567e+01
  -7.987283e+01   2.669926e+01
   1.270665e+00  -2.999778e+00
   2.874774e+01   2.177635e+01
  -1.110945e+01  -8.501743e+00
  -6.957079e+01   4.124363e+01
  -5.329214e+01  -8.630336e+01
  -2.348128e+01  -1.437069e+02
   1.110304e+02  -1.562627e+02
   2.241453e+02  -1.308455e+00
   2.108108e+02   1.706583e+02
   1.720368e+01   2.468667e+02
  -1.344612e+02   1.618034e+02
  -1.200049e+02   7.149710e+01
  -4.186841e+01  -8.410740e+01
   1.412593e+01  -3.849257e+01
  -3.285301e+01   4.283423e+01
  -7.890390e+01  -9.418440e+00
  -3.754798e+01  -5.471614e+01
   3.020382e+01  -6.828059e+01
   1.205555e+02  -3.530839e+01
   1.058089e+02   9.116172e+01
   9.320535e-01   1.031720e+02
  -1.725556e+02   9.688272e+01
  -1.790068e+02  -4.574839e+01
  -8.449235e+01  -1.798942e+02
   9.467790e+01  -2.453376e+02
   3.082534e+02  -2.477948e+01
   2.575787e+02   8.660403e+01
   1.810264e+02   2.065965e+02
  -2.389343e+01   1.477325e+02
  -6.098127e+01   4.082268e+01
  -9.219829e+01   9.449361e+01
  -7.584054e+01   7.988793e+01
  -1.150277e+02   9.462701e+01
  -1.541219e+02  -1.647571e+01
  -1.237621e+02  -1.543820e+02
  -2.640507e+01  -1.963927e+02
   1.052143e+02  -2.596423e+02
   1.734582e+02  -6.700475e+00
   1.092245e+02   1.040433e+02
   1.052244e+00   1.172737e+02
  -8.945589e+01   8.780511e+01
  -1.789801e+01  -2.225873e+00
   1.083738e+01  -3.049069e+01
   3.325043e+01  -3.886327e+01
  -2.136652e-01   3.995931e+01
  -1.140849e+02  -3.321711e+01
  -4.514506e+01  -3.527418e+01
   7.180074e+01  -2.941479e+01
   1.754339e+02   4.525270e+01
   1.648448e+02   5.505334e+01
   5.533053e+00   7.229466e+01
  -1.344850e+02   9.693434e+01
  -1.503300e+02  -2.513134e+00
  -4.424540e+01  -3.589756e+01
   6.514043e+01  -2.068020e+01
   6.500335e+01   1.421403e+00
   4.134486e+01   3.767978e+01
  -4.461177e+01   7.566811e+01
  -7.336715e+01   8.164061e+00
  -3.728106e+01  -7.840621e+01
  -3.847135e+01  -2.616116e+01
  -5.274539e+01  -2.414249e+01
  -4.119048e+01   5.947510e+00
   1.783996e+00  -5.919963e+01
   4.453946e+01  -1.279427e+02
   1.438023e+02  -9.940545e+01
   1.712784e+02  -2.689512e+01
   1.678205e+02   7.148086e+01
   1.886945e+01   1.437392e+02
  -1.058965e+02   8.410659e+01
  -9.414586e+01   2.863223e+01
   6.373140e+01  -2.844218e+01
   8.508326e+01   5.535279e+01
   6.347760e+01   1.221980e+02
  -1.367153e+02   1.150108e+02
  -1.144616e+02   8.488412e+01
  -1.885550e+02  -9.558194e+00
  -2.783098e+01  -9.157766e+01
   5.374518e+01  -5.704360e+01
   7.238622e+01   1.495407e+01
  -5.595074e+01   9.037078e-01
  -7.745386e+01  -3.960142e+01
  -4.954034e+01  -7.711248e+01
   5.555461e+01  -1.548459e+02
   1.113733e+02  -7.041518e+01
   9.966838e+01   6.919424e+01
  -1.414247e+01   2.196353e+02
  -1.082181e+02   1.714943e+02
  -8.791400e+01  -5.763345e-01
  -5.573110e+01  -1.166743e+02
  -2.098580e+01  -9.080071e+01
   6.814556e+01  -2.798408e+01
   1.736389e+01   3.484739e+01
   3.377778e+01   4.784290e+00
   4.344673e+00   5.621601e+00
   5.162077e+00   3.478745e+01
   6.993626e+01   1.025966e+02
   5.050660e+01   7.275277e+01
  -2.332821e+01   9.286149e+01
  -1.323675e+02  -2.204934e+01
  -1.214787e+02  -6.826706e+01
  -1.016833e+01  -6.534021e+01
   8.034539e+01   6.566766e+00
   7.653539e+01   2.263449e+01
   5.067685e+00   1.372930e+01
  -3.919226e+01   4.669111e+01
   2.066880e+01   5.280070e+01
   1.314092e+00   2.699340e+01
  -1.089164e+00   2.101524e+01
  -4.415581e+01   6.236316e+00
  -1.022253e+02   2.389235e+00
  -2.210599e+01  -3.074534e+01
   4.437515e+01  -1.428493e+02
   1.706110e+02  -2.593014e+01
   8.270968e+01   5.139099e+01
  -8.192194e+00   1.389881e+02
  -6.941021e+01   1.430995e+02
  -1.235344e+02   6.088274e+01
  -9.007486e+01  -5.017144e+00
  -2.208998e+01  -3.453576e+01
  -1.174515e+01  -1.142344e+01
  -2.620360e+01   9.274893e+00
  -2.660224e+01   2.233744e-01
  -3.816001e+01  -9.153521e+01
   2.165012e+01  -6.408406e+01
   8.181319e+01  -7.172245e+00
   5.172117e+01   5.982642e+01
   1.496576e+01   9.272952e+01
  -8.549254e+01   2.579257e+01
  -1.237416e+02  -5.059154e+01
  -4.661369e+01  -1.284042e+02
   2.775720e+01  -8.771481e+01
   9.525342e+01   4.328713e+01
   6.229786e+01   8.057227e+01
  -5.016129e+01   8.229761e+01
  -4.728146e+01   2.315403e+01
   1.080872e+01  -2.508830e+01
   4.571565e+01  -2.137497e+01
   2.270402e+01   3.849371e+01
  -1.020426e+02   9.800470e+01
  -8.358552e+01   2.753658e+01
  -4.535303e+01  -5.115534e+00
  -4.197253e+00  -6.341076e+01
   2.967906e+01  -6.949086e+01
  -5.593492e-01   2.345032e+01
  -1.936431e+01   6.615598e+01
  -1.693690e+01   4.891877e+00
  -4.520925e+00  -5.928886e+00
  -1.140180e+01  -9.316558e+01
   3.779230e+01  -6.506360e+01
   3.539821e+01   1.950897e+01
   5.893061e+01   3.842005e+01
   1.197202e+01   3.588621e+00
  -1.985044e-01  -3.393773e+01
  -1.420846e+01   1.487235e+01
  -2.455263e+01   7.445521e+01
   3.431676e+00   5.278999e+01
  -8.592007e+00   2.527873e+01
  -3.199785e+01  -6.810265e+01
   2.646336e+01  -1.918479e+01
   4.487338e+01  -2.362342e+01
   9.060044e+01   6.947997e+01
   1.953431e+01   8.061999e+01
  -1.914647e+01   3.232317e+01
  -9.686090e+01  -6.550212e+01
  -4.932313e+01  -5.658505e+01
   6.881450e+00  -1.646440e+01
   7.756819e+01  -1.189392e+01
   2.431896e+01  -2.195549e+01
  -2.169386e+01  -2.504799e+01
  -3.428472e+01   4.615754e+00
   2.122795e+00  -8.062948e-01
   9.773129e+01  -2.986107e+00
