
 $NMID
 id='ANONYMOUS ', fmtdat='(2E16.6)'
 volume=1.0
 tramp=1.0
 $END
   4.365481e+03   1.301303e+03
   2.092049e+03   2.378174e+03
  -7.481825e+02   2.327684e+03
  -1.363978e+03   9.106727e+02
  -6.469775e+02  -1.342809e+02
   1.520709e+02  -1.261802e+02
   4.620990e+02   1.772950e+02
   2.380618e+01   6.646393e+02
  -4.060044e+02   7.380969e+02
  -7.902567e+02  -1.493359e+02
  -3.998786e+02  -5.576350e+02
   5.932825e+00  -7.332834e+02
   4.946971e+02  -1.810695e+02
   3.597928e+02   6.319388e+02
  -2.249188e+02   6.312399e+02
  -4.995053e+02   8.780132e+01
  -1.482424e+02  -4.952032e+02
   2.380196e+02  -5.570632e+02
   4.364393e+02  -3.045502e+02
   4.341680e+02   2.663117e+02
   1.152978e+02   3.030771e+02
  -2.082387e+02   2.197261e+02
  -1.085136e+02   4.123012e+01
   1.913508e+02   1.499425e+01
   3.601041e+02   1.897361e+02
   7.477134e+01   3.800120e+02
  -4.285014e+02   2.840455e+02
  -6.101352e+02  -1.600285e+02
  -2.407734e+02  -5.218133e+02
   4.806531e+02  -2.736559e+02
   6.983477e+02   1.381079e+02
   1.629739e+02   4.750505e+02
  -3.060751e+02   3.752790e+02
  -5.792501e+02   4.452312e+01
  -3.520645e+02  -2.536986e+02
   5.416029e+01  -4.388567e+02
   9.462742e+01  -2.510608e+02
   1.063322e+02   1.217883e+02
  -1.784430e+02   2.013146e+02
  -3.288094e+02  -5.102826e+01
  -8.650843e+01  -5.087382e+02
   3.858892e+02  -4.466040e+02
   4.564359e+02   1.530410e+02
   1.112234e+02   3.749599e+02
  -2.529881e+02   2.061874e+02
  -2.612396e+02  -2.060716e+02
   1.395547e+02  -4.402520e+02
   4.827671e+02  -3.040948e+01
   5.566109e+02   3.755056e+02
   1.963634e+01   5.539556e+02
  -3.702159e+02   2.275584e+02
  -5.662008e+02  -1.263179e+02
  -3.181242e+02  -2.732154e+02
   1.649757e+02  -3.236349e+02
   3.116741e+02  -7.991577e+01
   1.716412e+02   7.661373e+01
  -7.750322e+01   2.805516e+01
  -3.388238e+01  -1.234683e+02
   1.340919e+02  -1.033592e+02
   2.882972e+02   1.028564e+02
   3.627589e+01   2.444076e+02
  -1.417554e+02   2.200515e+02
  -3.282653e+02   1.119174e+02
  -2.124492e+02  -9.913288e+01
   3.589269e+01  -2.636514e+02
   2.735101e+02  -3.408619e+02
   2.516641e+02  -1.817846e+02
   2.766372e+02   1.555951e+02
  -4.557113e+01   3.651873e+02
  -7.052605e+01   3.318729e+02
  -6.820590e+01   1.027630e+02
  -5.266246e+01   1.006988e+02
  -1.494387e+02   9.574944e+01
  -2.170199e+02   9.743920e+01
  -2.757413e+02  -1.101701e+02
  -1.484300e+02  -2.908290e+02
   9.975431e+01  -2.273005e+02
   1.984585e+02   1.121977e+02
   1.481421e+02   3.038477e+02
  -5.727290e+01   1.951694e+02
  -2.765639e+02   7.794711e+01
  -3.353290e+02  -1.494034e+02
  -1.411740e+02  -3.091463e+02
   3.332743e+01  -2.878381e+02
   1.665981e+02  -1.733899e+02
   1.812327e+02  -4.341023e+01
   9.232381e+01  -6.717307e+01
   2.505549e+02  -3.889933e+01
   4.368506e+02   5.477777e+01
   3.454851e+02   2.767869e+02
  -3.563730e+01   3.902968e+02
  -4.061857e+02   3.449549e+02
  -4.618839e+02   1.206005e+02
  -2.837490e+02  -1.008612e+02
  -1.943682e+01  -2.753112e+02
   1.480439e+02  -1.980718e+02
   4.261498e+01  -2.154536e+01
  -1.060831e+02   9.523904e+01
  -1.585025e+02  -6.201956e+01
  -1.081134e+01  -1.725973e+02
   1.662608e+02  -1.336228e+02
   8.465628e+01   6.053778e+01
   1.460079e+01   1.304900e+02
  -1.841880e+02   3.228010e+00
  -1.390220e+02  -2.555390e+02
  -5.952481e+01  -3.147686e+02
   3.193831e+02  -1.853013e+02
   3.154450e+02   1.245063e+02
   2.753577e+02   2.129903e+02
   9.324342e+01   2.353612e+02
  -1.835094e+02   1.190854e+02
  -1.584429e+02  -2.608194e+01
  -8.944831e+01  -2.588872e+01
   7.209635e+01   8.503292e+01
  -4.291661e+01   1.190854e+02
  -1.316019e+02   6.111550e+01
  -1.663007e+02  -4.433250e+01
  -1.589568e+01  -3.327357e+01
   6.463594e+01   2.851131e+01
   5.654183e+01   9.373317e+01
  -1.504536e+02   8.549053e+01
  -2.975354e+02  -7.580628e+01
  -3.100425e+02  -1.628045e+02
  -8.508976e+00  -2.647630e+02
   2.133289e+02  -1.738897e+02
   2.538436e+02  -1.693394e+02
   1.422546e+02   6.758796e+01
  -1.872645e+01   5.967669e+01
  -8.836497e+01  -1.428745e+01
   5.557163e+01  -8.892621e+01
   1.799214e+02  -6.339514e+01
   1.992703e+02   5.761227e+01
   5.618594e+01   2.183485e+02
  -4.923609e+01   1.425453e+02
  -1.529761e+02  -1.996022e+01
  -5.541559e+01  -3.134854e+01
   3.835217e+01   4.751364e+01
   3.330835e+01   9.151039e+01
  -1.132758e+02   1.576635e+02
  -1.984240e+02   4.099258e+01
  -1.949988e+02  -1.556947e+02
  -3.360930e+00  -2.536315e+02
   1.416103e+02  -1.839218e+02
   1.957326e+02  -2.313988e+01
   6.649034e+01   8.594709e+01
  -7.456057e+01   1.300413e+02
  -8.389906e+01   5.173823e+00
   2.632128e+01  -8.438367e+01
   1.160922e+01   6.416266e+00
  -2.092329e+00  -2.911915e+00
  -7.350438e+01   8.593729e-01
  -7.898254e+01  -1.095958e+02
  -4.000880e+01  -1.602107e+02
   1.495130e+02  -1.155416e+02
   2.530942e+02  -1.623248e+01
   2.142718e+02   1.430554e+02
   9.362090e+01   2.261810e+02
  -1.207479e+02   1.653537e+02
  -1.112860e+02   3.524037e+01
  -9.254493e+00  -8.049691e+01
  -3.412177e+01  -3.927602e+01
  -2.808533e+01  -7.802481e+00
  -1.031684e+02  -4.178992e+01
  -2.440410e+01  -7.921811e+01
   3.793035e+01  -1.342318e+02
   1.073992e+02  -8.327772e+01
   1.218228e+02   6.069575e+01
  -1.553224e+01   1.727655e+02
  -1.871594e+02   1.053401e+02
  -1.558240e+02  -2.927200e+01
  -9.550920e+01  -1.877271e+02
   1.451865e+02  -2.174501e+02
   2.699767e+02  -3.223450e+01
   1.993702e+02   6.902783e+01
   7.969448e+01   2.181831e+02
  -6.285550e+01   1.408609e+02
  -1.155898e+02   7.605598e+01
  -9.313957e+01   3.968008e+01
  -3.469691e+01   9.806262e+01
  -6.851321e+01   5.588807e+01
  -1.422022e+02  -1.703789e+01
  -5.433150e+01  -1.334842e+02
  -3.618088e+00  -2.032068e+02
   1.091392e+02  -1.391909e+02
   1.432559e+02  -4.820308e+01
   1.699727e+02   1.003261e+02
  -2.019116e+01   1.103625e+02
  -8.920343e+01   9.728972e+01
  -5.709365e+01  -3.926391e+00
   2.716289e+01  -2.845440e+01
   1.307637e+01  -6.132493e+01
  -2.204674e+01  -6.122956e+01
  -5.258811e+01  -2.439404e+01
  -2.597157e+01  -5.398205e+00
   6.120935e+01  -4.524155e+01
   1.945144e+02   9.800387e+01
   1.315284e+02   5.773856e+01
   7.209566e+00   1.250121e+02
  -1.202942e+02   5.941905e+01
  -1.555637e+02   5.907624e-01
  -4.319548e+01  -1.828740e+01
   6.050850e+01   3.177919e+01
   5.105946e+01   7.548090e+01
   1.726157e+00   8.409512e+01
  -3.144928e+01   4.215751e+01
  -5.598050e+01   9.904666e+00
  -3.141825e+01  -7.746301e+01
  -1.067014e+01  -5.774976e+01
  -5.620467e+01  -2.890133e+01
  -8.097494e+01  -2.715526e+01
  -1.378972e+01  -8.208766e+01
   7.148177e+01  -1.822737e+02
   7.821847e+01  -1.023061e+02
   1.624935e+02  -1.084161e+01
   9.492798e+01   8.619633e+01
  -6.793893e+01   1.218427e+02
  -9.579603e+01   1.079008e+02
  -6.696833e+01  -2.221424e+01
   7.254019e+01  -1.391829e+01
   1.264640e+02   6.861836e+01
   3.984185e+01   5.632707e+01
  -6.923953e+01   1.322358e+02
  -1.664237e+02   2.034941e+01
  -1.724619e+02  -4.579060e+01
  -3.658055e+01  -9.778633e+01
   9.718191e+01  -6.918038e+01
   5.826955e+01   4.192512e+01
  -3.726116e+01   2.751842e+01
  -9.548640e+01  -6.212883e+01
  -6.058057e+01  -1.113934e+02
   1.056632e+02  -1.375591e+02
   1.518113e+02  -4.428441e+01
   7.265007e+01   1.171145e+02
   1.199339e+01   1.972099e+02
  -6.739315e+01   1.345101e+02
  -6.340340e+01   6.626674e+00
  -4.518664e+01  -5.909757e+01
   2.009020e+01  -1.110764e+02
   2.673401e+01  -2.944644e+01
   6.900730e+01   3.953389e+01
   1.859235e+01   6.666023e+01
   2.023747e+01  -1.424172e+01
  -1.798496e+01  -3.012132e+00
   4.797706e+01   1.366878e+02
   3.420051e+01   6.292175e+01
  -6.089355e+01   7.401936e+01
  -1.165666e+02  -4.397731e+01
  -1.075824e+02  -1.068694e+02
  -2.147987e+01  -6.036267e+01
   8.104593e+01  -5.390404e+01
   8.227127e+01  -2.245795e+01
   5.878004e+00   1.892303e+01
  -4.629901e+01   1.791991e+01
  -1.349244e+01   1.156935e+01
   5.792237e+01   2.105493e+01
   3.929443e+01   9.855183e+00
  -9.940578e+01  -2.375231e+01
  -1.296356e+02  -1.932984e+01
  -3.668074e+00  -8.396583e+01
   9.646581e+01  -1.390738e+02
   2.443043e+02  -2.481487e+01
   1.330434e+02   3.234993e+01
  -4.652738e+01   1.562954e+02
  -8.599050e+01   1.344806e+02
  -1.430144e+02   3.825597e+01
  -7.623445e+01  -6.203538e+01
  -4.265990e+01  -5.220685e+01
  -1.716226e+01  -1.874227e+01
  -3.288402e+01  -5.115191e+01
  -3.232041e+01  -5.436924e+01
  -6.270364e+01  -9.001947e+01
  -1.161022e+01  -2.785392e+01
   1.317025e+02   1.588341e+01
   8.642772e+01   9.470593e+01
   2.051481e+01   1.072676e+02
  -9.087307e+01   1.266490e+01
  -8.757891e+01  -2.788469e+01
  -1.658799e+01  -1.286747e+02
   1.058153e+02  -6.666483e+01
   9.464124e+01  -6.854170e+00
   3.130807e+01   4.228796e+01
  -2.377339e+01   7.218022e+01
  -1.088622e+01   5.288659e+00
   5.064884e+01  -1.713121e+01
   6.707994e+01   2.457679e+01
   5.821338e+00   9.135290e+01
  -8.680306e+01   2.197154e+01
  -9.202455e+01   1.138109e+01
  -8.815401e+01   1.848918e+01
   3.236762e+01  -9.178651e+01
   9.033431e+01  -8.873568e+01
   1.978392e+01  -2.987767e+00
  -1.215020e+01   3.058599e+01
  -3.983166e+01   2.819659e+01
  -2.453746e+01  -1.279152e+01
  -4.072847e+01  -1.305764e+01
  -1.077479e+01  -3.281505e+01
   1.029146e+00  -2.207820e+01
   3.364063e+01   3.098870e+01
   4.161614e+01  -2.518558e+01
  -7.323015e-01   8.771706e+00
  -2.584769e+01   3.448202e+00
  -6.831320e-01   5.110781e+01
  -4.204090e+01   8.743576e+01
  -2.380938e+01   2.001600e+01
   1.284957e-02   3.400065e+01
   2.802888e+01  -6.905150e+01
   5.688360e+01  -1.419687e+01
   3.968189e+01   4.925106e+01
   2.703474e+01   5.960303e+01
  -2.758657e+01  -9.500611e+00
  -1.103622e+02  -4.196820e+01
  -4.766914e+01  -5.776321e+01
   2.696423e+01  -4.581214e+01
   5.819373e+01  -1.824080e+01
   2.864441e+01  -2.952291e+01
  -4.987414e+01  -1.566134e+01
  -5.071555e+01   9.171538e+00
   3.466523e+01  -2.999239e+01
   7.198409e+01  -3.795299e+01
