
 $NMID
 id='ANONYMOUS ', fmtdat='(2E16.6)'
 volume=1.0
 tramp=1.0
 $END
   3.328099e+03  -2.562158e+02
   1.933664e+03   2.296941e+03
  -6.602944e+02   2.350165e+03
  -1.742375e+03   1.021388e+03
  -9.793163e+02  -2.741067e+02
   2.117188e+02  -3.116400e+02
   5.404622e+02   1.282314e+02
  -2.787733e+01   9.363659e+02
  -6.957737e+02   7.553193e+02
  -8.608251e+02  -1.708863e+02
  -4.350292e+02  -6.201517e+02
   1.054358e+02  -7.795831e+02
   4.261237e+02  -2.435205e+02
   2.946880e+02   4.254882e+02
  -2.533953e+02   6.355725e+02
  -4.821157e+02   1.002664e+02
  -2.171185e+02  -5.377528e+02
   2.118000e+02  -4.871213e+02
   5.427905e+02  -1.207945e+02
   3.202875e+02   2.628913e+02
   6.469584e+01   3.820006e+02
  -1.868549e+02   2.856360e+02
  -1.856100e+02   3.764597e+01
   6.546088e+01  -1.113506e+01
   3.350869e+02   1.899884e+02
   1.200657e+02   4.067532e+02
  -4.004815e+02   2.448032e+02
  -5.770465e+02  -1.550310e+02
  -3.154195e+02  -4.624440e+02
   3.275359e+02  -2.946628e+02
   5.960770e+02   1.357324e+02
   2.534473e+02   3.859663e+02
  -2.536461e+02   4.422548e+02
  -4.557196e+02   1.392454e+02
  -2.104478e+02  -2.368963e+02
  -4.766332e+01  -3.442735e+02
   1.033211e+02  -2.376015e+02
   2.739934e+01   1.536808e+02
  -2.108862e+02   2.582446e+02
  -2.982104e+02  -8.943693e+01
  -1.414868e+02  -6.073566e+02
   3.702193e+02  -5.962471e+02
   5.489680e+02   3.392569e+01
   2.400897e+02   4.136661e+02
  -2.448124e+02   3.054285e+02
  -2.817186e+02  -2.603160e+02
   4.015298e+01  -3.489032e+02
   4.727527e+02  -1.053787e+02
   5.250956e+02   4.374505e+02
   1.669244e+02   4.876948e+02
  -3.332342e+02   2.355306e+02
  -6.258418e+02  -1.099681e+02
  -3.391559e+02  -2.366073e+02
   1.926721e+02  -2.559008e+02
   4.129279e+02  -3.583218e+01
   2.039919e+02   1.400492e+02
  -8.984641e+01   7.725544e+01
  -9.836292e+01  -1.152323e+02
   8.883434e+01  -1.155769e+02
   1.689674e+02   8.136555e+01
   1.230485e+02   2.499098e+02
  -1.046215e+02   2.530249e+02
  -2.994476e+02   1.839848e+01
  -1.798559e+02  -1.062441e+02
   1.168450e+01  -2.202110e+02
   2.296880e+02  -2.841659e+02
   2.618719e+02  -1.600019e+02
   2.153918e+02   2.223288e+02
   8.556059e+01   3.746868e+02
  -5.507938e+01   3.869400e+02
  -6.014869e+01   1.755267e+02
  -5.899926e+00   3.408921e+01
  -6.303323e+01   1.181512e+02
  -2.153077e+02   1.145952e+02
  -2.346170e+02  -8.855673e+01
  -1.222899e+02  -2.190418e+02
   9.886333e+01  -2.727125e+02
   1.859917e+02  -7.998757e-01
   1.015946e+02   1.962136e+02
  -4.905426e+01   2.390198e+02
  -2.530266e+02   5.728152e+01
  -2.603550e+02  -1.538692e+02
  -1.445061e+02  -2.941888e+02
   8.148886e+01  -2.111816e+02
   1.720479e+02  -1.469390e+02
   1.142352e+02  -4.158045e+01
   8.530923e+01  -5.099900e+01
   2.138099e+02  -7.871343e+01
   3.567376e+02   3.755374e+01
   3.157338e+02   2.448968e+02
   2.172700e+01   3.972732e+02
  -3.136060e+02   3.378728e+02
  -4.382145e+02   2.111361e+02
  -3.598639e+02  -1.223327e+02
  -1.216391e+01  -2.952404e+02
   9.674052e+01  -2.302874e+02
   2.191493e+01  -4.142436e+01
  -7.817407e+01   8.544839e+01
  -1.110112e+02  -5.357706e+01
  -9.072613e+01  -1.508425e+02
   1.122126e+02  -1.319746e+02
   1.187843e+02   7.315292e+01
  -2.443231e+01   1.447875e+02
  -2.027029e+02   6.527873e+00
  -1.817631e+02  -2.270480e+02
   2.301787e+01  -2.541409e+02
   2.280662e+02  -2.015313e+02
   2.807681e+02   2.508918e+01
   2.543312e+02   2.659811e+02
   8.228141e+01   2.447157e+02
  -1.725372e+02   1.100591e+02
  -1.546714e+02   1.356447e+01
  -8.044172e+01  -2.414101e+01
   2.797771e+01   3.181240e+01
  -1.496441e+01   1.034307e+02
  -1.285093e+02   1.241184e+02
  -1.682967e+02   1.553769e+01
  -4.849304e+01  -8.284186e+01
   6.500148e+01   9.866076e+00
  -7.855030e+00   8.872275e+01
  -1.592931e+02   6.429480e+01
  -2.853754e+02  -1.377854e+01
  -2.230955e+02  -9.685443e+01
  -4.464236e+01  -1.846667e+02
   1.926309e+02  -1.841773e+02
   2.536984e+02  -6.565614e+01
   1.439012e+02   3.865018e+01
  -1.805274e+00   7.177314e+01
  -8.846501e+01   4.540633e+01
   6.523031e+01  -1.239942e+02
   1.747732e+02  -9.302524e+01
   1.841140e+02   1.246137e+02
   6.367655e+01   1.830883e+02
  -8.538101e+01   1.114192e+02
  -1.635757e+02  -3.243039e+00
  -4.571643e+01  -3.509319e+01
   1.771764e+01   6.504890e+00
   4.000220e+01   1.172922e+02
  -6.900562e+01   9.030327e+01
  -1.604522e+02   7.549387e+01
  -1.805021e+02  -9.555029e+01
  -2.139886e+00  -1.911460e+02
   1.717247e+02  -1.116878e+02
   1.780651e+02   1.278342e+01
   1.713121e+01   9.515418e+01
   1.788663e+01   4.754941e+01
  -9.057909e+01   8.191977e-01
   1.294659e+01  -2.400670e+01
   3.377105e+01   2.508175e+01
   8.308288e+00  -1.172031e+01
  -6.248739e+01  -1.583883e+00
  -9.210305e+01  -7.457900e+01
  -2.692918e+01  -1.481214e+02
   1.179920e+02  -1.233888e+02
   2.202688e+02   1.790075e+01
   1.992736e+02   1.175511e+02
   7.723113e+00   1.730055e+02
  -3.114605e+01   1.245904e+02
  -1.273406e+02   1.930954e+01
  -4.511176e+01  -2.040045e+01
  -4.384360e+00  -1.539124e+01
  -3.037397e+01  -3.050646e+00
  -5.922086e+01  -1.354437e+01
  -9.365473e+01  -5.869614e+01
   1.180594e+01  -1.003565e+02
   1.001321e+02  -5.931575e+01
   1.191280e+02   4.852475e+01
  -1.467704e+01   1.022513e+02
  -1.190285e+02   1.067365e+02
  -1.930670e+02  -6.524255e+01
  -6.523077e+01  -1.778463e+02
   8.668791e+01  -2.098015e+02
   2.296375e+02  -6.246692e+01
   2.368757e+02   8.882055e+01
   1.086149e+02   8.934507e+01
  -2.635181e+01   9.867490e+01
  -7.509481e+01   7.826327e+01
  -8.318533e+01   4.769659e+01
  -7.756404e+01   1.103207e+02
  -8.752063e+01   5.608676e+01
  -1.613346e+02  -4.249776e+01
  -9.515579e+01  -1.675242e+02
  -1.299124e+01  -2.027320e+02
   7.659533e+01  -1.218306e+02
   1.515415e+02  -6.219368e+01
   1.291313e+02   1.276506e+02
   1.829758e+01   1.528562e+02
  -2.635836e+01   1.048374e+02
  -5.177093e+01  -2.512133e+01
  -9.974260e+00  -2.488774e+01
   1.357235e+01   3.441055e+00
  -3.161814e+01  -1.103499e+01
  -4.173448e+01  -1.101113e+01
  -3.357377e+01  -6.882448e+01
   5.490257e+01  -1.993912e+01
   1.816554e+02  -4.205312e+00
   1.567738e+02   2.499582e+01
   3.278119e+01   7.304459e+01
  -1.642497e+02   3.354593e+01
  -1.046549e+02   4.482940e+01
  -3.618977e+01  -4.661149e+01
   3.733138e+01  -4.881276e+01
   2.646860e+01   4.584667e+00
   4.199531e-02   6.886653e+01
  -5.317576e+01   8.767227e+01
  -4.445976e+01  -4.096337e+01
  -2.285186e+01  -4.004317e+01
  -3.883120e+01  -5.275973e+01
  -4.522528e+01   7.917360e+00
  -4.744701e+01  -1.980535e+01
  -2.389177e+01  -5.948804e+01
   5.765897e+01  -1.430170e+02
   1.269215e+02  -9.449791e+01
   1.868872e+02  -3.085464e+01
   1.109236e+02   6.634139e+01
   2.763427e+01   1.163053e+02
  -7.741191e+01   3.399113e+01
  -4.110843e+01   8.142865e+00
   7.378716e+01   4.846107e-01
   1.670391e+02   1.501661e+01
   6.615084e+01   1.106932e+02
  -6.139768e+01   1.158525e+02
  -1.712394e+02   1.040438e+01
  -1.091624e+02  -2.438703e+01
  -2.279729e+01  -4.855929e+01
   5.720653e+01  -5.210460e+01
   1.639623e+01  -4.816719e+01
  -1.461999e+01   2.363650e+01
  -8.704835e+01  -1.657909e+01
   1.654862e+00  -1.347625e+02
   3.416148e+01  -1.243549e+02
   1.411334e+02  -1.511274e+01
   1.085244e+02   9.397030e+01
   3.199503e+01   1.302897e+02
  -1.115341e+02   1.101565e+02
  -5.401911e+01   3.540290e+01
  -9.131517e+01  -7.099982e+01
   1.909147e+00  -9.479699e+01
   1.866054e+01  -8.692108e+00
   4.398262e+01   7.286548e+00
   5.075432e+01  -6.772956e-01
  -1.119187e+00  -2.393602e+00
   6.711889e+01   2.453373e+01
   2.564401e+01   7.967840e+01
   2.928247e+01   9.189824e+01
  -7.508327e+01   2.293345e+01
  -9.053883e+01  -6.531444e+00
  -1.342726e+02  -4.928661e+01
  -2.925845e+01  -2.795928e+01
   8.747109e+01  -6.642024e+00
   8.571334e+01   3.461213e+01
   3.654530e+01   2.142767e+01
  -2.384995e+01   3.394635e+01
   1.915619e+01  -4.541819e+00
   1.111295e+01   5.991505e+01
  -1.181175e+00  -2.680823e+01
  -7.125610e+01   3.160157e+01
  -6.591711e+01  -3.505076e+01
  -3.980261e-01  -6.615032e+01
   1.577880e+02  -1.147681e+02
   1.635646e+02  -8.161450e+01
   1.361958e+02   1.532281e+01
   4.178723e+01   1.207970e+02
  -9.433188e+01   1.399825e+02
  -1.010836e+02   6.298869e+01
  -8.618579e+01  -7.396594e+00
  -3.485445e+01  -2.054949e+01
  -2.802561e+01  -6.373414e+00
  -8.497959e+00  -7.049016e+00
  -2.987097e+01  -7.018693e+00
  -5.209005e+01  -8.275535e+01
   2.355310e+01  -5.845210e+01
   4.715668e+01   2.195580e+01
   6.784584e+01   8.342658e+01
  -5.531967e+01   1.001087e+02
  -7.455040e+01   2.403994e+01
  -6.173121e+01  -6.856188e+01
  -6.816688e+01  -4.888688e+01
   3.874613e+01  -6.374602e+01
   6.205965e+01  -2.545418e+00
   5.831873e+01   5.268774e+01
  -1.073497e+01   3.236495e+01
  -9.502989e+00   2.596714e+01
   4.636751e+01  -1.177025e+01
   6.014907e+01   2.391782e+00
  -3.973892e+00   1.690033e+00
  -9.399992e+01   5.938841e+01
  -9.915275e+01   4.794586e+01
  -6.566770e+01   9.661271e+00
  -2.493513e+01  -2.915383e+01
   6.817761e+01  -1.170103e+02
   1.393510e+01   1.349586e+01
   2.010443e+01   3.591512e+01
  -3.866356e+01   6.328497e+01
  -4.624745e+01   1.232322e+01
  -3.979702e+01  -2.161767e+01
   1.491608e+01  -4.895909e+01
   4.356508e+01   4.887263e+01
   2.124879e+01   2.587329e+01
  -1.675817e+01   1.771169e+01
   2.299898e+00  -2.367986e+01
  -5.377925e+01   2.211966e+01
   3.456744e+01  -4.568512e-01
   2.637446e+01  -3.315318e+00
  -3.998716e+01   4.721444e+01
  -2.960509e+00  -3.478005e+01
  -1.630893e+01  -3.773653e+01
   3.796535e+01  -4.397882e+00
   1.100895e+01   3.301226e+01
  -9.362087e+00   8.484711e+01
  -8.550582e+01   3.938505e+01
  -6.785011e+01  -1.177578e+01
  -5.148031e+01  -3.127885e+01
   1.513401e+01  -4.815083e+01
   2.851273e+01  -1.550554e+01
   2.989770e+01   1.876247e+00
  -3.984241e+01   3.143047e+00
  -5.323256e+01   3.367723e+01
   2.008224e+01  -2.240221e+01
   4.473849e+01  -5.425498e+01
