
 $NMID
 id='ANONYMOUS ', fmtdat='(2E16.6)'
 volume=1.0
 tramp=1.0
 $END
  -2.466283e+03   4.546881e+02
  -1.410684e+03  -2.012484e+03
   4.566793e+02  -1.758648e+03
   1.423819e+03  -1.890196e+02
   6.279027e+02   5.138647e+02
  -3.738610e+02   3.989908e+02
  -4.153361e+02  -2.481951e+01
   1.592881e+00  -6.667519e+02
   4.498458e+02  -3.647977e+02
   6.538574e+02   1.725465e+02
   2.297236e+02   5.550682e+02
  -1.403722e+02   5.190578e+02
  -3.702089e+02   1.720858e+02
  -2.541796e+02  -3.074976e+02
   1.453387e+02  -3.649547e+02
   3.008865e+02  -6.968759e+01
   8.681112e+01   3.550467e+02
  -1.603310e+02   2.905629e+02
  -3.469158e+02   2.407060e+00
  -2.431860e+02  -2.074009e+02
   9.321037e+00  -3.019914e+02
   1.254842e+02  -1.612316e+02
   1.142636e+02  -3.016638e+00
  -4.395364e+01   3.090056e+01
  -2.061850e+02  -1.183115e+01
  -1.171024e+02  -2.416848e+02
   2.278929e+02  -1.477682e+02
   4.238237e+02   6.900327e+01
   2.258513e+02   2.637187e+02
  -2.115381e+02   2.140589e+02
  -4.955786e+02  -1.490112e+02
  -1.240537e+02  -2.715757e+02
   1.565654e+02  -3.156425e+02
   3.474756e+02  -1.248057e+02
   1.619054e+02   1.673443e+02
   5.341663e+01   2.267921e+02
  -1.537644e+02   1.619676e+02
  -4.464566e+01  -1.766615e+02
   6.298349e+01  -2.202229e+02
   1.757028e+02  -2.820287e+01
   1.510343e+02   4.622186e+02
  -2.626441e+02   4.472227e+02
  -3.926898e+02  -1.158236e+00
  -2.059250e+02  -3.527646e+02
   1.566915e+02  -1.789143e+02
   2.307579e+02   2.350898e+02
  -6.286623e+01   2.698992e+02
  -3.096945e+02   7.860608e+01
  -3.290389e+02  -2.760890e+02
  -9.352164e+01  -3.596902e+02
   2.347939e+02  -1.681027e+02
   4.434070e+02   1.149634e+02
   2.514645e+02   1.394663e+02
  -9.660369e+01   1.542139e+02
  -2.339037e+02  -1.187086e+01
  -1.569621e+02  -1.459596e+02
   8.851361e+01  -7.249925e+01
   9.614415e+01   8.952753e+01
  -8.525208e+01   1.303572e+02
  -1.870933e+02  -6.401220e+01
  -1.097072e+02  -1.748131e+02
   6.881540e+01  -1.343038e+02
   2.020865e+02   3.153608e+01
   1.137802e+02   2.393256e+01
   1.843177e+01   1.074275e+02
  -1.257926e+02   1.969980e+02
  -1.699758e+02   1.440359e+02
  -1.267371e+02  -1.032286e+02
  -2.711275e+01  -2.407971e+02
   7.735217e+01  -2.859560e+02
   3.028551e+01  -8.005846e+01
   2.158959e+01  -1.951665e+01
   3.223972e+01  -9.294275e+00
   9.625750e+01  -9.000173e+01
   8.560227e+01   2.636983e+01
   6.761902e+01   1.547525e+02
  -7.884102e+01   2.021629e+02
  -1.140092e+02   4.029440e+01
  -8.393203e+01  -1.199444e+02
   3.841301e+01  -1.470355e+02
   1.357160e+02  -2.747545e+01
   1.890463e+02   9.209430e+01
   9.522486e+01   2.254839e+02
  -1.474831e+01   1.897928e+02
  -7.176771e+01   4.994834e+01
  -7.773083e+01  -3.280796e+00
  -8.464914e+01   2.041879e+01
  -1.383453e+02   2.932025e+01
  -2.356652e+02  -2.426074e-01
  -1.880476e+02  -1.488622e+02
   5.662913e+01  -2.644506e+02
   9.409995e+01  -1.989559e+02
   2.486846e+02  -4.695164e+01
   2.262547e+02   6.350127e+01
   5.370621e+00   1.885003e+02
  -5.111652e+01   1.277420e+02
  -6.708183e+01   1.486764e+01
   6.695079e+01  -6.765562e+01
   7.458528e+01   5.031655e+00
   2.392023e+01   9.150467e+01
  -8.646512e+01   1.019969e+02
  -9.464714e+01  -2.781311e+01
  -2.776820e+01  -1.116896e+02
   1.376363e+02  -9.473322e+00
   1.864655e+02   1.376177e+02
  -1.433822e+01   1.451488e+02
  -9.593748e+01   8.712459e+01
  -1.380873e+02   1.324268e+01
  -1.301525e+02  -1.576033e+02
  -4.882665e+01  -1.207185e+02
   7.461341e+01  -1.180820e+02
   8.371614e+01   1.853571e+01
   2.925283e+01   2.038272e+01
  -2.772465e+01  -3.407031e+01
  -4.141685e+01  -3.591306e+01
   3.975642e+01  -4.937862e+01
   8.274923e+01  -5.249939e+00
   2.107836e+01   5.227087e+01
  -7.716921e+01   1.544673e+01
  -1.664396e+01  -3.933715e+01
   6.677703e+01  -4.636021e+01
   1.754718e+02   7.078425e+00
   1.394073e+02   1.133355e+02
   5.726597e+01   1.406755e+02
  -1.326925e+02   1.300839e+02
  -1.435926e+02   9.147236e+01
  -1.143859e+02  -5.354654e+01
  -2.665057e+00  -6.612348e+01
   3.505386e+01  -5.615617e+00
  -4.615397e+01   7.366280e+01
  -1.492682e+02  -4.649274e+00
  -1.598549e+02  -7.052698e+01
  -3.142917e+01  -1.470081e+02
   5.186718e+01  -6.606417e+01
   1.224961e+02   5.497280e+00
   1.369113e+01   7.148113e+00
  -2.149888e+01   4.857878e+01
  -5.774632e+01  -4.835151e+00
   4.432944e+01  -4.583422e+01
   1.279503e+02  -2.570074e+01
   1.116865e+02   8.912173e+01
   1.046716e+01   1.437687e+02
  -8.264619e+01   6.859445e+01
  -1.213870e+02  -5.838322e+01
  -5.589434e+01  -4.448430e+01
   3.093530e+01  -4.777006e+01
   6.153856e+01  -2.049039e+01
   1.196989e+01   3.935480e+01
  -4.072734e+01   3.691737e+01
  -3.076702e+00   8.854654e+00
   2.911282e+01   3.942963e+01
   1.745026e+01   4.494716e+01
   5.488334e+00   7.961137e+01
  -5.966373e+01   1.183469e+02
  -1.618868e+02  -4.149576e+01
  -6.385439e+01  -8.795908e+01
  -1.797295e+01  -1.463092e+02
   3.069386e+01  -7.383415e+01
   9.063844e+01  -4.502666e+01
   5.083953e+01   3.873176e+01
   7.955277e+00  -1.320362e+01
   3.275512e+01  -6.033408e+00
   6.704849e+00  -1.758754e+01
   5.390921e+01   5.903260e+01
   3.671039e+00   4.836472e+01
  -1.992252e+01   1.520592e+01
  -5.640182e+01  -3.130443e+01
  -9.358244e+00  -5.981521e+01
   1.040771e+02  -2.032460e+01
   7.358175e+01   6.729438e+01
   1.047611e+02   1.339846e+02
  -2.332641e+01   1.280238e+02
  -1.866622e+02   5.537899e+01
  -1.300061e+02  -5.869000e+01
  -8.490007e+01  -4.738361e+01
   4.361527e+01  -4.165237e+01
   6.958152e+01  -2.962674e+01
   5.393168e+01  -4.753864e+01
   6.217420e+01  -2.641588e+01
   9.863696e+01  -7.422679e+01
   7.822368e+01   6.661378e+00
   8.917593e+01   1.111087e+02
   1.999532e+01   1.213602e+02
  -3.616197e+01   1.253407e+02
  -1.193363e+02   6.499889e+01
  -1.209282e+02  -9.120199e+01
  -8.029400e+00  -1.318357e+02
   5.391284e+01  -6.924561e+01
   5.110347e+01  -1.724615e+01
   2.487460e+01   4.231131e+01
  -8.633432e+00   5.732773e+01
   1.880682e+01   1.474930e+01
   3.002457e+01  -3.627818e+01
  -5.474627e+00   2.974533e+01
   3.502448e-01   9.033011e+00
  -1.284254e+02   4.519530e+01
  -9.268521e+01  -5.044633e+01
   1.956890e+01  -3.656200e+01
   1.002124e+02  -2.346682e+01
   1.096744e+02  -2.745716e+01
   4.652967e+01   4.684384e+01
  -2.116972e+01   3.743007e+01
  -6.059655e+01   2.954889e+01
   1.139757e+00  -5.443044e+01
   3.847800e+01  -4.988201e+01
   8.810738e+01   4.098865e+01
  -7.384581e+00   2.140945e+01
   1.489846e+01  -1.002888e+01
   3.079228e+01  -6.474851e+00
   2.419009e+01   8.289309e+00
   2.124691e+01   1.874823e+01
  -3.952401e+01   8.865736e+01
  -7.880426e+01   6.172178e+01
  -7.348998e+01  -1.596242e+01
  -1.069119e+02  -7.498297e+01
  -1.009696e+01  -9.231374e+01
   7.964003e+01  -3.515519e+01
   3.502928e+01   2.392184e+00
  -6.246389e+01  -3.045695e+01
  -1.238176e+02  -3.407569e+01
  -2.637116e+01  -5.049694e+01
   1.040153e+02  -1.124284e+02
   1.513222e+02  -4.524304e+01
   8.865505e+01   1.349498e+01
   1.702446e+01   6.484612e+01
  -5.974102e+01   1.918884e+01
  -4.940463e+01  -1.370357e+00
   3.966127e+01  -4.948124e+00
   5.170028e+01   2.951858e+01
   3.041008e+01   4.394205e+01
  -5.998712e+01   7.361290e+01
  -8.946858e+01  -1.718324e+00
  -5.667556e+01  -5.848795e+01
  -4.750357e+01  -1.191000e+02
   4.387830e+00  -7.977775e+01
   5.539570e+01   2.770300e+01
  -7.442571e+00   9.358499e+01
   1.722106e+00   4.554878e+01
  -6.146823e+01   2.784887e+01
  -4.036115e+01   4.496438e+00
   9.268833e+00   1.102412e+00
  -6.971692e+00   4.432130e+01
  -1.911429e+01  -3.261164e+01
  -2.791735e+01  -8.602844e+01
  -4.672062e+01  -6.997623e+01
   5.561999e+01   3.014986e+00
   7.221738e+01   3.750041e+01
   8.476932e+01   3.113332e+00
  -3.165471e+00   7.065673e+00
  -6.326327e+01   3.605039e+01
  -5.612408e+01   2.280377e+01
   3.367827e+01   8.080360e+00
   4.742265e+01   6.955549e+00
  -1.130096e+01  -1.644396e+01
   2.218144e+01   4.679942e+00
   2.288253e+01  -1.938013e+01
   5.735188e+01  -1.275046e+00
   1.586681e+01   1.869104e+01
   6.187031e+00   4.863839e+01
  -5.984474e+01   1.003509e+02
  -1.120421e+02   6.475365e+01
  -7.641357e+01  -1.350974e+01
  -3.917285e+01  -7.662926e+01
   3.487299e+01  -6.513245e+01
   7.220311e+01  -3.443855e+01
   2.295515e+01  -5.981743e+00
   5.130334e+00   2.750394e+01
  -2.366713e+01   2.485266e+01
  -5.428330e+00  -4.151822e+01
   6.546973e+00   6.407359e+00
   1.870300e+00   3.211192e+01
   2.391376e+01   2.993252e+01
  -6.655796e+01  -2.600331e+00
  -6.272134e+01  -4.842431e+01
  -9.842623e+00  -2.036504e+01
   3.907274e+01  -7.735238e+00
   6.177484e+01   5.672715e+01
   5.256560e+01   7.833482e+01
  -6.971301e+01   4.079523e+01
  -4.005367e+01  -1.283791e+01
  -2.584167e+01  -1.491759e+01
  -7.712031e+00  -4.478667e+01
   1.268180e+01  -3.563649e+01
  -5.663381e+01  -8.323396e+00
  -4.367028e+01  -3.717063e-01
  -1.936314e+01   2.798025e+01
   5.069276e+01  -2.342175e+01
   6.657633e+01   1.626874e+01
   3.152311e+01   1.478502e+01
   2.631885e+00   4.061949e+01
  -3.138080e+01   4.605318e+01
  -2.998697e+00   2.650143e+00
   6.404788e+00  -5.079550e+01
   8.289465e+00  -2.905224e+01
   3.517082e+01  -2.900945e+01
   5.052874e+00   3.482708e+01
  -2.273023e+00   2.754078e+01
  -3.304122e+01  -3.155962e+00
  -5.029241e+00  -4.063216e+01
  -4.007140e+01  -1.616451e+01
   2.015728e+00   5.628425e-01
   6.162815e+00  -1.741920e+01
  -1.070506e+01  -1.638684e+01
   1.992420e+01  -3.602668e+01
   4.546597e+01  -2.286803e+01
   3.040834e+01   6.771656e+01
   3.483390e+01   4.669264e+01
  -5.719633e+01   9.884368e+00
   4.372289e+00  -2.257356e+01
  -8.376218e+00  -8.095185e+01
   2.309072e+01  -2.981183e+01
   9.255292e+00   9.696832e+00
   1.366651e-01   2.271371e+01
  -5.932095e+00   8.100950e+00
  -7.133829e+01   2.211033e+01
  -7.290715e+00   2.037030e+01
   5.635363e+01   6.824146e+00
  -3.375730e+00   1.079683e+00
  -1.009705e+01  -7.117245e-01
  -5.447077e+01  -1.291175e+01
