
 $NMID
 id='ANONYMOUS ', fmtdat='(2E16.6)'
 volume=1.0
 tramp=1.0
 $END
   4.372667e+03   5.685691e+02
   1.789057e+03   3.104119e+03
  -1.499155e+03   2.528728e+03
  -2.047837e+03   3.835857e+02
  -7.398093e+02  -7.127967e+02
   6.992207e+02  -6.175239e+02
   9.457970e+02   4.669135e+02
  -3.918837e+01   9.306736e+02
  -8.725395e+02   5.693553e+02
  -9.251919e+02  -2.652481e+02
  -3.033576e+02  -8.880876e+02
   2.430038e+02  -6.888789e+02
   7.681973e+02  -4.098072e+01
   4.091490e+02   6.895851e+02
  -4.151119e+02   6.845942e+02
  -5.516392e+02  -1.204692e+02
  -1.608740e+02  -5.456631e+02
   4.454984e+02  -4.833715e+02
   5.495469e+02  -2.702856e+00
   3.064044e+02   4.177408e+02
  -3.669188e+01   4.074620e+02
  -2.661670e+02   1.856280e+02
  -1.890352e+02  -9.581265e+00
   8.253427e+01  -1.078721e+02
   3.144591e+02   1.429940e+02
   1.734699e+02   3.539264e+02
  -4.646605e+02   3.423798e+02
  -7.496423e+02  -2.211945e+02
  -2.567571e+02  -6.697086e+02
   4.769071e+02  -4.354573e+02
   7.798095e+02   9.958109e+01
   1.947005e+02   4.803613e+02
  -2.102615e+02   4.039685e+02
  -5.911070e+02   1.412028e+02
  -3.705311e+02  -2.248526e+02
  -1.524846e+01  -4.283483e+02
   2.596413e+02  -2.330731e+02
   1.249146e+02   2.757427e+02
  -2.263269e+02   4.452421e+02
  -4.891008e+02  -1.282214e+02
  -2.299888e+02  -6.470633e+02
   4.022777e+02  -6.165258e+02
   5.475709e+02   1.398350e+02
   1.864245e+02   6.220204e+02
  -3.405838e+02   3.190014e+02
  -2.698229e+02  -3.931522e+02
   1.099817e+02  -5.320079e+02
   4.513168e+02  -4.573631e+01
   4.987645e+02   4.017031e+02
  -1.965508e+01   5.671050e+02
  -4.329125e+02   1.817924e+02
  -5.644370e+02  -2.353842e+02
  -3.002617e+02  -3.708193e+02
   2.171008e+02  -3.237117e+02
   4.452320e+02  -4.293482e+01
   2.075335e+02   2.444607e+02
  -1.301937e+02   9.935082e+01
  -1.347785e+02  -1.991615e+02
   2.125112e+02  -1.491060e+02
   3.558914e+02   1.387143e+02
   4.610536e+01   2.812365e+02
  -2.046191e+02   2.286534e+02
  -2.430065e+02  -1.721553e+01
  -1.341290e+02  -5.831760e+01
   8.568461e+01  -1.898132e+02
   2.485486e+02  -2.547060e+02
   3.287761e+02  -1.493392e+02
   2.484753e+02   1.242556e+02
   6.585889e+01   4.371169e+02
  -2.180058e+02   3.620903e+02
  -1.069365e+02   8.589364e+01
  -2.440014e+01  -4.538162e+01
  -9.433484e+00   4.776195e+01
  -1.926400e+02   7.882802e+01
  -2.631923e+02  -1.881388e+00
  -9.495122e+01  -2.700012e+02
   1.284283e+02  -2.215378e+02
   2.177006e+02   1.103322e+01
   1.817215e+02   2.473378e+02
  -3.345282e+01   2.335616e+02
  -2.613586e+02   4.784644e+01
  -2.682112e+02  -1.800452e+02
  -1.188412e+02  -3.669818e+02
   1.139747e+02  -2.857726e+02
   2.314975e+02  -7.462062e+01
   1.520895e+02  -5.686448e+00
   1.182099e+02  -4.189734e+00
   1.297022e+02  -2.562488e+01
   3.519693e+02   6.850945e+01
   2.478057e+02   2.823413e+02
  -3.345887e+01   3.950342e+02
  -3.193006e+02   3.204068e+02
  -4.361484e+02   1.241208e+02
  -3.316835e+02  -8.620370e+01
  -6.808745e+01  -2.631243e+02
   1.404069e+02  -2.901193e+02
   9.052192e+01  -1.275933e+01
  -1.540390e+02   1.147145e+02
  -1.890459e+02  -5.590687e+01
  -1.664970e+01  -1.751152e+02
   1.810138e+02  -1.059988e+02
   2.215186e+02   5.715100e+01
   6.009032e+01   2.213650e+02
  -2.180372e+02   2.410235e+01
  -1.220004e+02  -2.251712e+02
   4.758041e+01  -2.927750e+02
   2.174442e+02  -1.174227e+02
   2.432585e+02   3.260973e+01
   2.613762e+02   2.698997e+02
   4.766126e+01   2.435360e+02
  -1.321353e+02   6.416475e+01
  -1.328695e+02   2.004734e+01
  -4.612928e+01   6.040802e+00
   8.636041e+01   5.037377e+01
  -1.394678e+01   9.955358e+01
  -1.101862e+02   6.849811e+01
  -1.866187e+02   1.222755e+00
  -5.070156e+01  -1.086523e+01
   1.034535e+02  -1.094264e+01
   4.592561e+01   8.371564e+01
  -1.210341e+02   6.033075e+01
  -2.730054e+02  -1.058645e+02
  -2.266736e+02  -1.344904e+02
  -1.054169e+01  -2.158236e+02
   2.102679e+02  -2.263578e+02
   2.567270e+02  -8.903657e+01
   1.776723e+02   9.705343e+01
  -2.226387e+00   8.254425e+01
  -5.990789e+01  -4.907757e+01
   1.716441e+01  -6.432876e+01
   1.224723e+02   9.409907e+00
   1.881992e+02   1.120834e+02
   5.615335e+01   1.992171e+02
  -9.080318e+01   1.039814e+02
  -1.323890e+02  -3.375757e+01
  -5.031070e+01  -5.905142e+01
   5.050385e+00  -1.200014e+00
   4.358457e+01   5.681344e+01
  -5.259586e+01   1.092847e+02
  -1.225196e+02   2.043440e+01
  -1.489543e+02  -1.508721e+02
   3.200813e+01  -2.013807e+02
   1.698227e+02  -1.304159e+02
   1.671247e+02   2.404974e+01
   4.303537e+01   9.885077e+01
  -5.067267e+01   1.071323e+02
  -7.654971e+01  -4.020948e+00
  -4.780142e+01  -4.546342e+01
   2.612203e+01   5.061997e+01
  -2.325366e+01  -2.152314e+01
  -1.737786e+01  -2.875578e+01
  -5.271877e+01  -8.808362e+01
   5.776427e+01  -1.189490e+02
   1.219973e+02  -1.333969e+02
   2.119034e+02  -4.426231e+00
   1.421349e+02   1.193055e+02
   2.039584e+01   2.496554e+02
  -1.384395e+02   1.485075e+02
  -1.383959e+02  -2.180780e+01
  -4.597601e+01  -1.030423e+02
  -4.893296e+01  -6.373494e+01
  -6.233194e+01   2.750397e+01
  -5.195735e+01   6.903307e+00
  -1.390608e+01  -3.763782e+01
  -2.727112e+01  -7.269670e+01
   4.963146e+01  -7.146934e+01
   5.800674e+01   2.410488e+01
  -5.650457e+00   1.044788e+02
  -1.327394e+02   1.059418e+01
  -1.569087e+02  -6.602075e+01
  -1.010733e+02  -1.895484e+02
   1.218752e+02  -1.898417e+02
   2.278354e+02  -4.246739e+01
   2.095833e+02   8.262527e+01
   8.198506e+01   1.711098e+02
   9.153113e+00   1.262336e+02
  -1.069560e+02   5.400226e+01
  -7.458788e+01   4.001314e+01
  -6.294193e+01   7.583393e+01
  -1.040548e+02   3.584604e+01
  -8.899714e+01  -6.211979e+01
  -4.058525e+01  -1.290271e+02
   2.906652e+01  -1.969598e+02
   7.168420e+01  -1.710141e+02
   1.569929e+02   1.177534e+01
   9.105768e+01   1.918673e+02
   1.135376e+01   1.270435e+02
  -1.104577e+02   5.889276e+01
  -2.822893e+01   2.970470e+01
   1.260413e+01  -1.095303e+00
  -2.559281e+01  -6.192975e+01
  -8.394375e+00  -4.649129e+01
  -9.953990e+01  -2.195348e+01
  -1.800114e+01  -3.701572e+01
   5.036996e+01  -6.857780e+01
   1.528561e+02   3.814267e+01
   1.051482e+02   2.077780e+01
  -6.641107e+00   5.559430e+01
  -4.602608e+01   5.813559e+01
  -1.282958e+02  -6.198241e+00
  -3.003724e+01  -7.236939e+01
   7.615038e+01   7.965059e+00
   8.770136e+01   4.534331e+01
  -3.633515e+01   8.794276e+01
  -9.596408e+01   6.291830e+01
  -7.118880e+01  -6.325868e+00
  -3.570691e+01  -6.725731e+01
  -3.548708e+01  -6.047732e+01
  -6.749987e+01  -1.595122e+01
  -5.634414e+01  -7.600192e+00
  -2.122033e+01  -7.369466e+01
   6.623459e+01  -1.252312e+02
   8.149635e+01  -1.269472e+02
   1.502678e+02  -2.908449e+01
   1.381307e+02   1.102567e+02
  -1.675222e+00   9.170559e+01
  -8.198602e+01   4.939570e+01
  -6.358298e+01  -3.075770e+01
   5.345856e+01  -7.317392e+00
   9.600730e+01   6.567889e+01
   6.744149e+01   1.568433e+02
  -9.754095e+01   3.529972e+01
  -1.936728e+02   1.916105e+01
  -1.297013e+02  -4.494802e+01
  -4.695653e+01  -7.511013e+01
   3.106681e+01  -3.473517e+01
   3.272400e+01   1.815865e+01
  -3.655007e+01   3.316939e+01
  -8.507963e+01  -2.675655e+01
  -1.094888e+01  -1.064969e+02
   1.235937e+02  -1.242876e+02
   1.687319e+02  -6.217722e+01
   9.424248e+01   1.199228e+02
   2.675876e+01   2.147536e+02
  -7.122542e+01   9.165658e+01
  -8.348703e+01  -1.904388e+00
  -5.007731e+01  -1.156531e+02
   2.813224e+00  -1.125527e+02
   4.014238e+01   9.947342e-01
   5.304299e+01   1.123231e+01
   1.592625e+01   2.870188e+01
  -7.544796e+00   1.236953e+00
   4.042817e+01   1.433348e+01
   5.118852e+01   1.113395e+02
   4.303981e+01   7.654755e+01
  -5.576783e+00   6.275088e+01
  -1.232270e+02  -6.113653e+01
  -9.863514e+01  -6.892765e+01
  -1.444735e+01  -4.041230e+01
   8.278800e+01  -2.416266e+00
   7.712373e+01  -1.005449e+01
   4.808396e+01   1.836880e+01
  -5.071191e+01   5.724748e+01
   5.541176e+00   1.301805e+01
   7.242160e+00   1.574183e+01
  -2.380356e+01  -1.210095e+01
  -1.019858e+02  -9.700235e+00
  -4.273734e+01  -3.160283e+00
  -1.823314e+00  -1.101175e+02
   8.860562e+01  -8.854993e+01
   1.650640e+02  -1.652767e+01
   1.298142e+02   3.354965e+01
   2.346477e+01   1.929585e+02
  -7.131843e+01   1.160085e+02
  -1.331016e+02   2.048384e+01
  -5.992057e+01  -7.031797e+01
  -2.115389e+01   2.321566e+00
   1.447188e+00  -2.055997e+01
   2.282789e+01   5.014323e+00
  -1.911532e+01  -5.289179e+01
  -5.214558e+01  -1.096472e+02
   5.434904e+01  -5.724760e+01
   6.100381e+01   3.275446e+01
   3.061839e+01   8.845129e+01
  -1.189279e+00   9.758564e+01
  -6.068384e+01  -2.230195e+00
  -4.532707e+01  -1.221130e+02
   1.620320e+01  -6.005130e+01
   3.183335e+01  -5.471230e+01
   9.597054e+01   2.655726e+01
   3.846125e+01   4.511256e+01
  -3.725119e+01   3.850936e+01
  -2.263294e+01   2.412876e+01
   1.955301e+01   4.252727e+00
   5.005195e+01   1.855200e+01
  -1.754706e+01   1.995048e+01
  -8.133364e+01   1.384594e+01
  -1.121441e+02   4.056294e+01
  -6.226812e+01  -1.705494e+01
   4.122102e+01  -7.562783e+01
   4.123010e+01  -6.994822e+01
   6.325439e+01   1.015044e+01
  -4.059412e+01   3.653730e+01
  -7.264882e+01   4.462857e+01
  -3.721555e+01   2.600695e+01
   3.687521e+00  -2.181692e+01
  -7.802622e+00  -1.032684e+01
   4.582702e+01   9.507613e+00
   1.614528e+01   3.849527e+01
   3.219541e+01   2.470646e+01
  -1.804932e+01   6.248241e+00
   2.337104e+01   3.563766e+00
  -3.369231e+01   6.689981e+01
   3.855711e+00   4.201665e+01
   1.551613e+01   7.319807e+00
  -1.740161e+01  -7.436253e+01
   1.475117e+01  -8.274391e+01
   6.152314e+01  -4.147762e+01
   3.676063e+01   4.118448e+01
   1.077504e+01   9.507612e+01
  -6.965046e+01   5.136292e+01
  -5.201831e+01   5.973483e+00
  -3.618988e+01  -6.027800e+01
   3.866449e+01  -1.738686e+01
   9.400309e+01   1.652228e+00
   6.155739e+01  -2.457943e+00
  -3.389141e+01  -6.386375e+00
  -5.664329e+01  -1.931230e+01
   3.106851e+01  -2.295646e+01
   1.205376e+02   2.106896e+01
