
 $NMID
 id='ANONYMOUS ', fmtdat='(2E16.6)'
 volume=1.0
 tramp=1.0
 $END
  -4.591594e+03  -4.560148e+02
  -1.906603e+03  -3.471195e+03
   1.438394e+03  -2.696735e+03
   2.375311e+03  -4.543924e+02
   7.446750e+02   9.917629e+02
  -7.625690e+02   6.100210e+02
  -8.538421e+02  -5.204883e+02
   2.154496e+02  -9.656923e+02
   9.663660e+02  -6.675809e+02
   9.115765e+02   1.783360e+02
   3.159762e+02   8.910458e+02
  -3.035803e+02   7.623454e+02
  -7.001263e+02  -1.572519e+01
  -3.284564e+02  -7.642594e+02
   4.350991e+02  -6.609831e+02
   6.007288e+02   1.460519e+02
   1.767880e+02   7.522322e+02
  -5.170509e+02   5.291931e+02
  -5.841396e+02   5.003505e+00
  -2.881868e+02  -4.183297e+02
   1.322288e+02  -4.658582e+02
   2.892365e+02  -2.163701e+02
   2.755999e+02   2.970399e+01
  -8.951454e+01   7.862922e+01
  -4.581071e+02  -1.856467e+02
  -1.341276e+02  -4.114428e+02
   4.936431e+02  -4.182233e+02
   8.147493e+02   2.698638e+02
   2.571236e+02   6.723330e+02
  -5.506714e+02   5.139799e+02
  -7.295524e+02  -1.778145e+02
  -2.028252e+02  -5.027190e+02
   2.321215e+02  -4.776933e+02
   6.308608e+02  -1.226364e+02
   4.690861e+02   2.868000e+02
  -5.804817e+01   4.346196e+02
  -2.903019e+02   2.292361e+02
  -1.797148e+02  -2.856895e+02
   2.935405e+02  -3.863416e+02
   4.013986e+02   1.505291e+02
   1.566364e+02   6.202282e+02
  -3.337722e+02   6.247326e+02
  -5.673794e+02  -9.864021e+01
  -2.084445e+02  -6.305977e+02
   3.503102e+02  -3.347799e+02
   2.860125e+02   3.549696e+02
  -1.693847e+02   5.270578e+02
  -5.617532e+02   1.128360e+02
  -4.294599e+02  -4.732554e+02
  -2.888274e+01  -5.867632e+02
   4.323268e+02  -2.948230e+02
   5.598084e+02   1.826409e+02
   3.381502e+02   4.057405e+02
  -2.263812e+02   3.816454e+02
  -4.576137e+02  -3.947718e+00
  -1.578409e+02  -2.306654e+02
   1.812649e+02  -1.041329e+02
   1.551822e+02   1.686506e+02
  -2.276655e+02   1.547978e+02
  -3.506711e+02  -2.130694e+02
  -1.070144e+02  -3.406624e+02
   2.844317e+02  -2.209335e+02
   2.848753e+02  -3.834371e+01
   1.369080e+02   5.183863e+01
  -1.108574e+02   2.018114e+02
  -3.087280e+02   1.831573e+02
  -3.051109e+02   1.278832e+02
  -3.398350e+02  -1.043507e+02
   2.989282e+01  -3.877075e+02
   1.963218e+02  -4.170704e+02
   8.333128e+01  -4.559911e+01
   4.497896e+01   4.895654e+01
   1.532608e+01  -5.583876e+01
   1.559408e+02  -1.211986e+02
   2.555776e+02   4.547526e+01
   9.188509e+01   3.311299e+02
  -1.871820e+02   2.331884e+02
  -2.572285e+02   3.717520e+01
  -1.863935e+02  -2.137317e+02
   2.931607e+01  -2.002196e+02
   2.661222e+02  -7.563296e+01
   2.985311e+02   1.811652e+02
   1.274094e+02   3.621527e+02
  -1.283151e+02   2.737262e+02
  -2.143532e+02   7.967688e+01
  -9.057232e+01   1.872624e+01
  -7.614165e+01   1.946062e+01
  -2.046775e+02   9.156575e+01
  -3.909765e+02  -4.528234e+01
  -2.309591e+02  -3.676225e+02
   3.530861e+01  -4.114422e+02
   3.409927e+02  -2.659487e+02
   4.596093e+02  -1.553983e+02
   3.121793e+02   1.479162e+02
   7.931629e+01   2.829199e+02
  -1.651444e+02   2.584622e+02
  -1.052989e+02   2.255254e+01
   1.180318e+02  -1.061202e+02
   1.722619e+02   3.540999e+00
   2.326303e+01   1.809498e+02
  -1.765269e+02   1.096493e+02
  -1.839532e+02  -5.731493e+01
   9.942599e+00  -1.965858e+02
   1.927111e+02   1.527878e+01
   1.121486e+02   2.651848e+02
  -3.610985e+01   3.241915e+02
  -2.518477e+02   1.627860e+02
  -2.350332e+02  -5.608549e+01
  -2.697209e+02  -2.547898e+02
  -2.227012e+01  -2.109666e+02
   1.205096e+02  -7.427673e+01
   1.907289e+02   1.311833e+01
   1.116079e+02   6.370039e+00
  -7.412093e+01  -4.538270e+01
  -6.411775e+01  -1.122567e+02
   9.008867e+01  -1.328557e+02
   1.658301e+02   7.705283e+01
   4.970706e+01   4.954819e+01
  -5.099596e+01  -7.253363e+00
  -4.209476e+01  -1.055244e+02
   1.047660e+02  -4.114271e+01
   3.162429e+02   4.874769e+01
   2.304528e+02   1.630385e+02
   8.760629e+01   2.717071e+02
  -2.303455e+02   2.428014e+02
  -2.862117e+02   8.123396e+01
  -1.381360e+02  -8.416580e+01
   2.715218e+01  -9.280840e+01
   1.054849e+02   5.902376e+00
  -2.965390e+01   8.163999e+01
  -1.864159e+02   5.121582e+01
  -1.694647e+02  -1.004797e+02
  -3.147842e+01  -2.349732e+02
   8.960666e+01  -1.535257e+02
   1.045290e+02  -4.321845e+01
   1.630399e+01   1.546785e+01
  -2.657249e+01  -5.953654e+01
  -2.124159e+01  -1.135724e+02
   4.981570e+01  -1.044242e+02
   1.640208e+02  -4.130668e+01
   1.446540e+02   1.402456e+02
  -1.938588e+00   2.350047e+02
  -1.970540e+02   1.605283e+02
  -1.908087e+02  -1.533636e+01
  -2.130733e+01  -1.126146e+02
   1.007673e+02  -1.285193e+02
   4.868472e+01   7.581309e+00
  -1.042326e+01   1.498175e+01
  -7.155115e+00   2.433162e+01
   2.976208e+01   2.298481e+01
   5.470888e+01   2.622284e+01
   8.875938e+01   1.071700e+02
   5.316504e+00   1.119187e+02
  -1.815587e+02   9.441631e+01
  -2.061537e+02  -1.753506e+01
  -1.214145e+02  -1.231733e+02
   2.441502e+00  -2.059460e+02
   1.349341e+02  -1.285899e+02
   1.411276e+02   2.942571e+01
   9.184832e+01   5.545302e+01
   3.705450e+01   1.305534e+01
   8.021204e+01  -1.905407e+01
   4.762988e+01   6.301148e+01
   3.863108e+01   7.819534e+01
  -5.316058e+01   1.090808e+02
  -9.833884e+01   6.973795e+01
  -1.110231e+02  -4.117883e+01
   3.860258e+01  -7.724376e+01
   1.668702e+02  -3.606304e+01
   1.723311e+02   6.347413e+01
   1.293003e+02   2.298017e+02
  -1.219580e+02   1.952088e+02
  -2.489783e+02   5.013949e+01
  -2.745234e+02  -1.450284e+02
  -5.098031e+01  -2.089346e+02
   1.622287e+01  -9.364967e+01
   8.431315e+01  -3.412120e+01
   4.883120e+01  -6.662276e+01
   1.332779e+02  -1.004704e+02
   5.713183e+01  -2.821843e+01
   1.429674e+02   1.866151e+01
   1.124191e+02   1.581489e+02
  -2.039122e+01   2.368162e+02
  -1.038957e+02   1.594779e+02
  -1.346003e+02   3.693519e+01
  -9.418926e+01  -1.608742e+02
   1.323157e+01  -1.750082e+02
   6.821405e+01  -9.717715e+01
   5.933179e+01   7.886737e+00
  -4.284580e+00   3.466660e+01
   4.949313e+01   1.698331e+01
  -2.083017e+01   1.710792e+01
   3.661780e+01  -7.110373e+00
   1.622499e+01   2.105693e+01
  -6.249407e+01   6.724949e+01
  -1.513788e+02  -3.416268e+01
  -9.475130e+01  -3.295514e+01
   1.094214e+01  -8.078756e+01
   1.387215e+02  -7.348730e+01
   1.195088e+02  -1.045681e+01
   4.514162e+01   3.764342e+01
  -4.429340e+01   1.721388e+01
  -5.884169e+01  -6.168877e+01
   7.248853e+00  -9.620976e+01
   7.694023e+01  -2.431281e+01
   3.940939e+01   2.367729e+01
   3.812517e+01   6.276311e+01
   1.855247e+01   6.315494e+01
   7.169917e+01   1.996611e+00
   4.477793e+01   3.042662e+01
   1.858507e+01   7.014513e+01
  -5.938136e+01   1.228668e+02
  -1.610128e+02   1.122577e+02
  -1.528390e+02   1.772016e+01
  -9.794971e+01  -1.209185e+02
  -4.316027e+00  -1.014162e+02
   7.791455e+01  -2.834707e+01
   4.799911e+01   6.344660e+01
  -1.118322e+02   3.378956e+01
  -1.243024e+02  -6.702165e+01
  -4.988724e+01  -1.684944e+02
   7.892661e+01  -1.011697e+02
   1.627538e+02  -4.615499e+01
   1.708233e+02   3.166848e+01
   2.996156e+01   1.035235e+02
  -2.718444e+01   5.371924e+01
  -5.167310e+01   1.854446e+01
   3.763826e+01  -5.877198e-01
   8.076914e+01   5.866468e+01
   7.705473e+01   1.545855e+02
  -1.042667e+02   1.178248e+02
  -1.734735e+02  -1.055568e+01
  -9.591343e+01  -1.360982e+02
  -3.065991e+01  -2.151113e+02
   1.177297e+02  -1.129615e+02
   1.175014e+02   2.891447e+01
   4.143605e+01   1.140106e+02
  -2.050647e+01   1.401432e+02
  -5.393162e+01  -1.105664e+00
  -5.916694e+01  -9.481457e+01
  -5.050669e+01  -2.583035e+01
  -1.512892e+01   4.536223e+01
  -2.097794e+01  -3.283317e+01
  -4.017939e+01  -9.971882e+01
   2.734556e+01  -9.481657e+01
   6.795501e+01  -3.863957e+01
   1.414132e+02   9.857781e+01
   9.414260e+01   1.318493e+02
  -6.798982e-01   6.264038e+01
  -1.027350e+02   2.610996e+01
  -9.714246e+01  -5.764082e+01
  -5.930931e+00  -2.543568e+01
   1.833651e+01   6.709678e+00
   1.764171e+01  -1.739913e+01
  -1.957399e+00  -4.409352e+01
   7.899351e+00   1.162265e+01
   4.093677e+01  -1.728818e+00
   1.010182e+02  -8.768630e+00
  -3.384878e+01   3.469647e+01
  -1.057323e+02   7.762406e+01
  -2.011104e+02   3.164862e+01
  -1.185608e+02  -5.446028e+01
   1.484772e+01  -1.681237e+02
   1.144796e+02  -1.055099e+02
   1.058908e+02  -4.843568e+01
   3.495319e+01   1.447824e+01
   1.298331e+01   1.876094e+01
   2.591291e+01   3.071552e-01
  -3.798819e+01   4.197100e+00
   5.838654e+01   6.726027e+00
   3.458300e+01   8.176389e+01
  -4.491098e+01   5.433242e+01
  -6.878789e+01  -5.668899e+01
  -4.272429e+01  -1.068915e+02
  -1.718868e+01  -8.105738e+01
   7.941479e+01  -2.787700e+01
   8.040026e+01   1.202506e+02
   2.859418e+01   1.122641e+02
  -8.187163e+01   3.932270e+01
  -6.858215e+01  -3.661313e+01
  -9.947036e+00  -2.796252e+01
   2.758217e+01  -3.939902e+01
   2.547034e+01  -1.586996e+01
  -1.364175e+01  -1.190864e+01
  -8.819588e+01   2.695197e+01
  -2.009771e+01  -2.396628e+00
   4.665471e+01  -4.594448e+01
   1.431676e+02  -2.062615e+01
   2.600558e+01   2.386155e+01
  -2.848893e+01   5.122247e+01
  -4.847636e+01   8.282130e+01
  -7.269281e+01  -1.588911e+01
  -1.251276e+01  -7.629938e+01
   2.355139e+01  -4.854403e+01
   7.760415e+01   4.467412e+01
  -2.308265e+01   3.801196e+01
   3.562055e+01  -8.940468e+00
  -3.463788e+01  -2.138615e+01
  -5.117255e+01  -2.435376e+01
  -4.952473e+01  -1.622642e+00
  -2.900360e+01  -5.750089e-01
   1.413566e+01  -2.891986e+01
   3.478878e+01  -3.760508e+01
   2.790287e+01  -7.832365e+01
   7.455745e+00  -2.565308e+01
   1.999598e+01   4.662269e+01
   1.557811e+01   5.741184e+01
  -3.689419e+01   2.325307e+01
  -9.069894e+01  -3.973424e+01
  -4.949078e+00  -4.127437e+01
   8.241898e+01  -1.704322e+01
   9.421996e+01   2.086840e+01
   2.446870e+01   5.122681e+01
  -6.908073e+01   1.668024e+01
  -7.184636e+01   1.810861e+01
  -2.478770e+01  -3.324395e+01
   4.972190e+01  -1.463091e+01
   2.296268e+00   2.170973e+01
  -1.364802e+01   2.004239e+01
  -6.660327e+01  -1.715467e+01
