
 $NMID
 id='ANONYMOUS ', fmtdat='(2E16.6)'
 volume=1.0
 tramp=1.0
 $END
   2.326745e+03   8.310309e+02
   1.471679e+03   8.459782e+02
   1.210334e+02   1.324292e+03
  -1.040320e+03   1.049418e+03
  -8.603123e+02   1.861004e+02
  -1.049220e+02  -2.216031e+02
   1.893509e+02   1.898481e+01
   2.015813e+01   5.877890e+02
  -4.318458e+02   5.215115e+02
  -5.170660e+02   1.176433e+01
  -5.138789e+02  -4.105406e+02
   2.690001e+01  -5.182619e+02
   2.692434e+02  -1.455358e+02
   2.794640e+02   3.193949e+02
  -1.528879e+02   3.363797e+02
  -4.322559e+02   1.439671e+02
  -1.666810e+02  -3.465431e+02
   2.032854e+02  -4.732439e+02
   5.074299e+02  -2.372733e+02
   3.684978e+02   1.769313e+02
   1.766692e+02   2.883397e+02
  -1.453658e+02   1.974676e+02
  -5.461908e+01   1.227749e+02
   2.018635e+02   1.172559e+02
   2.102038e+02   2.938061e+02
   3.260785e+01   3.888931e+02
  -4.562308e+02   1.281573e+02
  -4.962392e+02  -1.457764e+02
  -2.560944e+02  -3.389331e+02
   3.079038e+02  -1.438242e+02
   3.010268e+02   1.866435e+02
   1.950955e+02   2.097996e+02
  -2.591921e+02   2.959509e+02
  -2.638797e+02   7.971970e+01
  -2.572826e+02  -1.564976e+02
   3.264629e+00  -2.133250e+02
   2.522331e+01  -1.081122e+02
   1.598652e+01   1.602274e+02
  -1.244934e+02   1.174523e+02
  -2.044475e+02  -1.278691e+02
  -7.096248e+01  -4.541442e+02
   1.245837e+02  -2.985866e+02
   2.603467e+02   5.412752e+01
   1.291624e+02   2.684901e+02
  -1.877976e+02   9.488754e+01
  -1.546357e+02  -2.452135e+02
   8.674888e+01  -3.512103e+02
   3.475575e+02  -5.302430e+01
   4.158570e+02   2.968330e+02
   1.660500e+02   3.539319e+02
  -2.060687e+02   2.509673e+02
  -4.590717e+02  -6.285580e+01
  -2.713769e+02  -1.699872e+02
   8.054360e+01  -1.584562e+02
   3.054809e+02  -1.251931e+02
   2.122382e+02   1.595341e+01
  -6.894279e+00  -4.427793e+01
   5.253269e+01   3.782038e+01
   8.122699e+01  -6.267196e+01
   2.080727e+02   2.841916e+01
   8.899245e+01   1.173791e+02
  -1.083102e+02   2.652640e+02
  -2.050076e+02   1.600573e+02
  -2.491031e+02  -9.648382e+01
  -5.802531e+00  -3.228442e+02
   2.139510e+02  -3.050260e+02
   3.049277e+02  -1.905004e+02
   2.177882e+02   1.071250e+02
   3.550552e+01   2.766012e+02
   4.552980e+01   2.201827e+02
  -6.153861e+01   1.411266e+02
   1.790697e+01   1.477205e+02
  -1.092890e+02   9.251962e+01
  -2.015508e+02   1.318239e+01
  -2.172733e+02  -8.306970e+01
  -2.625896e+01  -2.358620e+02
   9.900471e+01  -1.780608e+02
   1.285827e+02   4.615023e+01
   6.384494e+01   1.802643e+02
  -6.313791e+01   1.758808e+02
  -2.060067e+02   1.966952e+01
  -2.651629e+02  -1.460104e+02
  -2.327297e+02  -2.102062e+02
   1.657795e+01  -2.132250e+02
   1.766926e+02  -9.329905e+01
   1.219269e+02  -7.704821e+01
   1.879674e+02  -2.767046e+01
   2.532251e+02  -1.563063e+01
   3.616669e+02   9.614910e+01
   2.808013e+02   2.419886e+02
  -4.781802e+01   3.345901e+02
  -3.063754e+02   3.182489e+02
  -3.930249e+02   1.631517e+02
  -2.182390e+02  -1.105577e+02
   4.937490e+01  -2.048601e+02
   5.974816e+01  -1.154453e+02
   2.016275e+01  -3.291769e+01
  -1.208844e+02   2.183807e+01
  -1.427753e+02  -2.969158e+01
  -7.297056e+00  -1.112443e+02
   1.137342e+02  -1.035574e+02
   1.285877e+02   3.119877e+01
   2.782670e+01   1.326970e+02
  -1.007260e+02  -2.780602e+00
  -7.392459e+01  -1.826198e+02
   1.847963e+01  -2.945144e+02
   2.028898e+02  -1.120647e+02
   2.610580e+02   1.030355e+01
   2.393292e+02   2.632339e+02
   6.896309e+01   2.863881e+02
  -1.193834e+02   1.354817e+02
  -1.585855e+02   3.575912e+00
  -1.259176e+01  -1.408928e+01
   7.351132e+01   1.943409e+01
  -2.213425e+01   1.219251e+02
  -1.128756e+02   1.172682e+00
  -1.186139e+02  -1.898617e+01
  -3.681630e+01  -6.000953e+01
   7.031096e+01  -1.915913e+00
   1.778884e+01   5.422391e+01
  -1.311648e+02   8.415882e+01
  -2.034464e+02  -2.881969e+01
  -2.833437e+02  -2.001054e+02
  -5.584620e+00  -2.499833e+02
   1.543329e+02  -1.269178e+02
   2.429410e+02  -1.078456e+02
   9.204224e+01   1.042396e+01
  -5.048087e+00   5.578372e+01
  -4.268095e+01  -3.514820e+00
   8.992548e+01  -6.259802e+01
   1.506313e+02  -2.219986e+01
   1.978915e+02   4.455910e+01
   8.991142e+00   1.548565e+02
  -7.155337e+01   1.291295e+02
  -1.563258e+02  -2.698727e+01
  -3.065665e+01  -4.225467e+01
   3.266183e+01   4.947633e+01
   1.634853e+01   9.942399e+01
  -1.058345e+02   1.007575e+02
  -1.833414e+02  -3.022380e+01
  -1.899511e+02  -1.220238e+02
   1.176122e+01  -1.650403e+02
   1.457424e+02  -1.650125e+02
   1.367770e+02  -1.666084e+01
   6.893282e+01   4.206209e+01
  -5.799096e+01   4.929844e+01
  -5.272338e+01   1.591429e+01
  -1.830685e+01  -5.865843e+00
   2.940331e+01  -5.623873e+00
  -3.020651e+01   2.813099e+01
  -1.233617e+02  -1.085670e+01
  -5.550909e+01  -4.364237e+01
   1.659199e+01  -1.196958e+02
   1.043900e+02  -1.120268e+02
   2.384578e+02   1.400359e+01
   1.569538e+02   1.221054e+02
   2.666001e+01   1.828257e+02
  -9.210404e+01   1.662114e+02
  -1.160078e+02   6.957946e+01
  -7.676972e+01  -1.539669e+01
  -1.820643e+01  -1.867969e+01
  -5.006857e+01   2.490803e+01
  -1.391717e+02  -3.662919e+00
  -6.410250e+00  -6.293198e+01
   3.259644e+01  -9.872080e+01
   6.617992e+01  -4.234105e+01
   8.552834e+01   1.452869e+01
  -8.367257e+00   1.063866e+02
  -1.428423e+02   6.712058e+01
  -1.408043e+02  -5.719990e+01
  -4.837148e+01  -2.015263e+02
   1.441718e+02  -2.033974e+02
   2.195969e+02  -3.908203e+01
   2.080712e+02   4.792722e+01
   1.069937e+02   1.465484e+02
   1.953553e+01   1.312077e+02
  -1.295833e+02   4.363807e+01
  -9.892387e+01   6.570873e+01
  -3.973185e+01   7.125017e+01
  -4.594349e+01   1.010307e+02
  -1.401492e+02  -1.996377e+01
  -1.225802e+02  -1.272488e+02
  -4.023259e+01  -2.149843e+02
   6.475331e+01  -8.985298e+01
   1.525202e+02  -4.153259e+01
   6.230570e+01   1.054702e+02
  -2.099496e+01   1.112479e+02
  -2.378248e+01   1.001316e+02
  -6.488314e+01  -1.058008e+01
  -4.075672e+01  -7.488697e+01
   1.209786e+01  -2.526129e+01
  -2.428920e+01  -1.235732e+00
  -5.144299e+01   2.325336e+01
  -2.108631e+01  -3.394192e+01
   4.459429e+01  -3.065488e+01
   8.338884e+01   1.446632e+01
   1.065755e+02   2.511106e+01
   2.502289e+01   7.099190e+01
  -1.111300e+02   4.116671e+01
  -1.419657e+02  -4.781351e-01
  -4.130282e+01  -6.987333e+01
   4.153734e+01   1.795920e+01
   4.856276e+01  -2.384886e+01
   1.332251e+01   2.600655e+01
  -2.894111e+01   7.450385e+01
  -8.808609e+01   6.328898e+00
  -3.193188e+01  -5.852497e+01
  -5.908889e+01  -3.510743e+01
  -2.731355e+01  -5.331476e+00
  -6.600926e+01  -2.701622e+01
  -5.919242e+01  -4.629785e+01
   2.535677e+01  -9.880137e+01
   6.647308e+01  -9.128475e+01
   1.657312e+02  -7.471838e+01
   1.489270e+02   2.893832e+01
   2.797424e+01   7.005465e+01
  -7.493674e+01   7.773310e+01
  -3.596922e+01  -5.877307e+00
   8.902065e+01   1.964775e+00
   1.135378e+02   5.431299e+01
   7.387397e+01   1.092029e+02
  -3.644877e+01   5.750607e+01
  -1.757097e+02  -5.840466e+01
  -1.225418e+02  -3.670633e+01
  -1.593982e+01  -3.438549e+01
  -3.737726e-01  -7.366948e+01
   2.539416e+01   9.051489e-01
  -4.130136e+01   1.801484e+01
  -6.439336e+01  -1.487742e+01
  -1.962207e+01  -1.677817e+02
   6.940993e+01  -1.450932e+02
   1.058021e+02  -3.548537e+01
   1.198131e+02   7.281221e+01
   1.989399e+01   1.290811e+02
  -6.767239e+01   8.361719e+01
  -5.008191e+01   3.960078e+00
  -2.161565e+01  -8.089210e+01
  -2.243194e+01  -8.713071e+01
   4.298074e+01  -1.074536e+01
   3.345138e+01   6.894882e+01
   2.568609e+00   1.141728e+01
   3.620397e+01  -4.177771e+01
   3.696328e+01   4.960938e+01
   6.110404e+01   7.420637e+01
  -5.597255e+00   1.084254e+02
  -6.879866e+01   2.507205e+01
  -1.339526e+02  -1.199430e+01
  -9.457603e+01  -2.542497e+01
  -1.570437e+00  -1.357280e+01
   5.545710e+01   2.887608e+01
   2.244172e+01   1.168598e+01
  -1.170199e+01  -2.922527e+01
  -2.662461e+01  -3.056629e+00
  -2.997509e+01   3.068617e+01
  -2.617376e+01  -3.353304e+01
  -5.966897e+00   4.231924e+00
  -5.629705e+01   2.737694e+00
  -8.705303e+01  -4.358563e+01
  -4.768828e+01  -8.332298e+01
   6.515887e+01  -1.016100e+02
   1.147131e+02  -3.730479e+01
   1.243937e+02   5.190294e+01
   3.282145e+01   1.336802e+02
  -8.745757e+01   1.439903e+02
  -7.699234e+01   5.472911e+01
  -5.338643e+01  -2.536073e+01
  -1.737234e+01  -2.256369e+00
   1.246287e+01  -3.392550e+01
  -2.655570e+01  -8.626118e+00
  -5.428330e+01  -8.615403e+01
  -2.390156e+01  -1.023995e+02
   3.223286e+01  -7.006256e+01
   8.889941e+01   3.664565e+01
   5.806999e+01   6.091092e+01
   2.332873e+01   8.672962e+01
  -3.736960e+01   3.090559e+01
  -4.663389e+01  -6.425033e+01
  -4.664955e+01  -1.031211e+02
   6.863946e+01  -4.812485e+01
   4.861349e+01   3.449636e+01
   3.039695e+01   5.750278e+01
  -1.488233e+01   2.458801e+01
  -6.963600e+01   5.299494e+01
   1.714850e+01  -1.675030e+01
   3.821734e+01  -2.013210e+01
   4.937862e+01   1.111230e+01
  -5.544911e+01   6.460401e+01
  -8.958448e+01   3.948371e+01
  -7.076033e+01  -2.178715e+01
  -2.518824e+00  -9.476739e+01
   1.558252e+01  -1.162069e+02
   1.321496e+01  -4.787642e+01
   6.888629e+00   3.915055e+01
  -5.340029e+01   3.444911e+01
  -1.120836e+01  -1.386357e+01
  -4.554906e+00  -6.390250e+01
   1.758707e+01  -2.532071e+01
  -4.432614e+00   1.065039e+01
   7.105335e+01   2.892797e+01
   3.810399e+01   6.478352e+00
  -2.021591e+01  -2.012575e+01
  -6.745472e+00   8.853105e+00
  -1.554827e+01   2.482817e+01
   4.810643e+01   3.889634e+01
  -4.057221e+01   1.133675e+01
  -5.460834e+01   3.139045e+00
  -7.354388e+01  -5.748473e+01
   1.919776e+01   8.429469e-01
   5.184446e+01   6.279155e+01
  -2.688079e+01   7.268259e+01
  -1.115943e+01   6.110088e+01
  -9.526905e+01   2.201129e+01
  -6.387358e+01  -7.273707e+01
   1.120689e+01   1.664624e+01
   6.807955e+01  -6.210653e+01
  -2.317454e+01  -4.050462e+01
  -5.233797e+01  -3.187771e+01
  -6.276822e+01   2.732519e+01
  -1.920384e+01  -3.767372e+00
   9.416557e+01  -6.089352e+01
