
 $NMID
 id='ANONYMOUS ', fmtdat='(2E16.6)'
 volume=1.0
 tramp=1.0
 $END
  -2.816207e+03   3.576447e+01
  -1.899593e+03  -1.325654e+03
   1.638944e+01  -2.020547e+03
   1.473117e+03  -9.700309e+02
   9.564513e+02   7.547341e+01
  -2.541936e+01   2.522303e+02
  -3.763545e+02   6.438468e+01
   1.090668e+02  -5.200117e+02
   5.059702e+02  -4.975224e+02
   6.767231e+02   2.321077e+01
   5.373837e+02   4.493327e+02
   3.883171e-01   5.401618e+02
  -3.356582e+02   2.695847e+02
  -2.720123e+02  -3.137572e+02
   1.168768e+02  -5.698996e+02
   4.333842e+02  -2.422631e+01
   2.793458e+02   5.243060e+02
  -1.250699e+02   4.804250e+02
  -4.847623e+02   2.761838e+02
  -3.887450e+02  -1.678746e+02
  -1.051771e+02  -3.826732e+02
   1.770221e+02  -2.450069e+02
   7.538512e+01  -1.075585e+02
  -1.593268e+02  -5.048786e+01
  -2.246851e+02  -2.720510e+02
   1.966163e+01  -3.161914e+02
   3.814321e+02  -1.465670e+02
   4.639323e+02   1.588521e+02
   2.126171e+02   3.903711e+02
  -3.060762e+02   1.508363e+02
  -4.168468e+02  -2.074618e+02
  -1.375544e+02  -2.445980e+02
   3.114221e+02  -3.634459e+02
   4.797188e+02  -5.592903e+01
   2.217209e+02   2.026711e+02
   1.381825e+02   2.408204e+02
  -3.586369e+01   2.315591e+02
   2.463876e+01  -8.014659e+01
   2.045335e+02  -9.635178e+01
   1.859133e+02   1.046434e+02
  -3.470200e+01   4.392825e+02
  -3.051950e+02   3.282999e+02
  -3.797721e+02   8.279733e+00
  -3.129798e+01  -3.429580e+02
   1.941052e+02  -1.009252e+02
   2.217363e+02   2.238876e+02
  -7.865524e+01   3.841086e+02
  -4.997295e+02  -4.371579e+00
  -3.828603e+02  -4.198630e+02
  -7.981462e+01  -4.476566e+02
   2.869163e+02  -2.674134e+02
   4.205262e+02   9.331211e+01
   3.494169e+02   1.907439e+02
  -6.526021e+01   2.101459e+02
  -3.184922e+02   7.309225e+01
  -2.207955e+02  -4.935529e+01
  -1.172730e+01  -1.884376e+01
   3.295219e+01   3.406484e+01
  -1.007571e+02   6.800729e+01
  -1.603579e+02  -3.415622e+01
  -1.480558e+02  -2.556140e+02
   1.500271e+02  -2.696794e+02
   3.218775e+02  -4.441327e+01
   2.460559e+02   6.221912e+01
  -1.599738e+01   2.828987e+02
  -3.525400e+02   2.836877e+02
  -3.609347e+02   1.439184e+02
  -1.697743e+02  -1.466046e+02
  -3.773498e+01  -2.964160e+02
   2.298846e+01  -2.813270e+02
   3.458103e+01  -1.355571e+02
   3.915870e+01  -9.866741e+01
   1.620923e+02  -1.442457e+02
   2.576902e+02  -2.666374e+01
   2.552401e+02   1.006911e+02
   1.975631e+01   1.747337e+02
  -9.864467e+01   1.842662e+02
  -2.074848e+02  -8.071928e+01
  -8.655187e+01  -2.802709e+02
   5.038144e+01  -2.342418e+02
   2.026950e+02  -2.164599e+01
   3.394762e+02   1.748288e+02
   1.407139e+02   3.241225e+02
  -3.211543e+01   2.478188e+02
  -1.598864e+02   1.385526e+02
  -1.834382e+02   2.677321e+01
  -1.291466e+02   3.132092e+01
  -2.464708e+02   4.446289e+01
  -3.724012e+02  -1.431843e+02
  -2.704681e+02  -2.528683e+02
   4.788986e+01  -4.082432e+02
   3.305133e+02  -4.134866e+02
   4.956995e+02  -1.541425e+02
   2.660065e+02   7.321754e+01
  -3.902811e+00   2.226268e+02
  -1.169139e+02   1.932021e+02
  -1.332212e+01   4.214754e+01
   1.448424e+02  -2.890251e+01
   8.126203e+01   5.154980e-01
   5.282127e+01   1.113671e+02
  -9.511690e+01   8.257278e+01
  -4.369955e+01  -4.337438e+01
   1.445907e+01  -1.743325e+02
   1.666067e+02  -2.194039e+01
   1.553904e+02   1.983930e+02
  -1.884236e+01   3.302364e+02
  -2.130378e+02   1.507505e+02
  -3.551234e+02  -9.564535e+00
  -2.598718e+02  -2.220742e+02
  -4.271159e+01  -2.843549e+02
   1.327194e+02  -1.124053e+02
   1.281826e+02  -2.384712e+00
   2.336297e+01   7.254550e+00
  -3.378666e+01  -5.368161e+01
   4.649876e+01  -1.152534e+02
   1.059977e+02  -9.711407e+01
   1.225617e+02   5.250606e+01
   5.551662e+01   5.640463e+01
  -6.561123e+01  -3.957626e+01
  -3.063104e+01  -6.415923e+01
   1.736180e+02  -6.757972e+01
   2.667297e+02   3.625697e+00
   2.891105e+02   1.695337e+02
   6.767822e+01   2.173308e+02
  -1.831485e+02   2.368537e+02
  -2.239736e+02   7.814951e+01
  -1.487174e+02  -7.022461e+01
   5.639464e+00  -9.042064e+01
   4.205840e+01   7.475587e+00
  -6.420403e+01   8.707890e+01
  -2.156851e+02   3.456641e+01
  -1.564016e+02  -6.719248e+01
  -5.605968e+01  -1.912290e+02
   1.013976e+02  -1.282562e+02
   8.753648e+01   1.785650e+01
   1.070087e+01   4.985136e+01
   1.856549e+01  -3.986076e+01
   1.347060e+01  -1.237797e+02
   1.190807e+02  -1.710445e+02
   1.353156e+02   2.330038e+01
   1.611508e+02   8.830062e+01
  -6.355395e+00   1.906902e+02
  -1.491858e+02   1.310045e+02
  -1.592671e+02   5.618794e+01
  -6.353622e+01  -1.070563e+02
   2.025235e+01  -6.899069e+01
   6.691842e+01  -5.007970e+01
  -8.705776e+00   3.033613e+01
  -3.277771e+01  -6.284951e+00
   2.067142e+01  -3.237920e+01
   9.840012e+01  -1.289666e+00
   8.219199e+01   1.127454e+02
  -2.692782e+01   1.797162e+02
  -1.396879e+02   1.390075e+02
  -2.467610e+02   4.967027e+00
  -1.725470e+02  -1.503854e+02
  -2.718173e+01  -2.016832e+02
   8.475938e+01  -1.659025e+02
   1.419737e+02  -2.464580e+01
   1.011000e+02   4.316655e+01
   3.158115e+01   1.698308e+00
   4.744368e+01   3.516323e+00
   1.054041e+02   2.575175e+00
   6.060238e+01   3.259482e+01
  -6.228083e+01   1.377134e+02
  -1.424615e+02   6.640381e+01
  -8.351715e+01  -6.920000e+01
   2.914482e+01  -1.197774e+02
   9.956294e+01  -5.840750e+01
   1.681174e+02   6.176299e+01
   9.235080e+01   2.486879e+02
  -1.387024e+02   1.687147e+02
  -2.273000e+02   6.468540e+01
  -1.961524e+02  -1.209604e+02
  -5.681559e+01  -1.725304e+02
   4.060821e+01  -1.284543e+02
   9.972955e+01  -6.170770e+01
   5.373258e+01  -7.048382e+01
   9.745700e+01  -1.088983e+02
   8.096759e+01  -1.029198e+02
   8.532460e+01   2.085000e+01
   7.668697e+01   1.746783e+02
   2.140793e+01   2.512357e+02
  -8.935217e+01   1.144967e+02
  -1.543934e+02   1.322335e+00
  -1.256525e+02  -1.247603e+02
   2.747073e+01  -1.261822e+02
   6.803294e+01  -8.254885e+01
   7.159821e+01  -5.761126e+00
  -1.853678e+01   7.322369e+01
  -2.212347e+01  -6.844694e+00
   6.084630e+01  -1.617693e+01
   7.598281e+01  -1.696839e+01
   6.285812e+01   4.214092e+01
  -6.566722e+01   7.525107e+01
  -1.289284e+02   1.217202e+01
  -1.535035e+02  -3.678815e+01
  -3.523287e+01  -1.066551e+02
   1.429705e+02  -6.807432e+01
   1.418584e+02   2.168077e+01
   1.660195e+01   4.775578e+01
  -8.307872e+01   4.034335e+01
  -8.635694e+01   8.880124e+00
  -2.347648e+01  -4.412564e+01
   1.927717e+00  -7.031742e+01
   7.946778e+01  -6.715359e+00
   3.089889e+01   4.475052e+01
   1.328318e+01   5.259041e+01
   7.415619e+01   9.973719e+00
   4.091559e+01   2.391904e+00
   4.239201e+01   7.996976e+01
  -9.154038e+00   1.729430e+02
  -1.160356e+02   1.036270e+02
  -1.414865e+02   5.855129e+01
  -1.259576e+02  -1.211342e+02
   2.278034e+01  -1.223988e+02
   5.776029e+01  -9.174110e+01
   9.618084e+01   4.628923e+00
  -7.477761e+01   3.165689e+01
  -1.209452e+02  -4.984741e+01
  -5.674928e+01  -6.890139e+01
   6.191811e+01  -1.337504e+02
   1.713186e+02  -3.738708e+01
   1.433380e+02  -3.002615e+01
   6.048768e+00   9.251652e+01
  -4.305704e+01   3.474414e+01
  -4.804520e+01   2.504140e+01
   5.288568e+01  -1.934017e+01
   6.119805e+01   4.003931e+01
   2.535069e+01   1.130606e+02
  -1.067954e+02   1.778592e+02
  -1.196630e+02   7.853170e+01
  -1.266755e+02  -1.115170e+02
  -4.561243e+01  -1.327061e+02
   2.325260e+01  -7.403686e+01
   1.129811e+02  -1.350381e+01
   8.047208e+01   1.106842e+02
  -9.046092e+00   6.585219e+01
  -2.344305e+01   3.720080e+01
  -9.663900e+01  -4.239208e+01
   1.336167e+01  -5.650009e+01
   9.882972e+00   1.550637e+01
  -2.755738e+01  -3.910139e+01
  -4.585711e+01  -8.562429e+01
  -5.527786e+00  -6.407095e+01
   1.084186e+02  -1.929680e+01
   1.294492e+02   2.224969e+01
   9.613686e+01   4.453732e+01
   1.052366e+01   7.735247e+01
  -4.152932e+01   6.794577e+01
  -8.051855e+01   2.025616e+01
  -5.217095e+01   1.344069e+01
  -2.495177e+01  -3.505280e+01
  -4.844727e+00   4.334407e+00
  -6.689943e-01  -3.338850e+01
   1.170278e+00   3.280236e+00
   5.499626e+01   1.564674e+01
   9.592218e+01   4.260087e+01
   3.367414e+01   1.206912e+02
  -8.206928e+01   1.376814e+02
  -1.490500e+02   4.443495e+01
  -1.279874e+02  -1.006370e+02
  -2.736842e+01  -1.173908e+02
   7.665347e+01  -8.504902e+01
   1.051975e+02  -9.979782e+01
   1.448278e+02   3.961903e+01
   2.172952e+01   4.841342e+01
   2.289678e-01   4.600976e+01
   3.022961e+00   5.797832e+00
   2.820143e+01   5.115732e+01
  -1.793879e+01   9.788749e+01
  -2.943030e+01   8.497059e+01
  -7.038057e+01   6.806959e-01
  -7.142378e+01  -1.394057e+02
  -1.143590e+01  -1.266664e+02
   9.708590e+01  -1.942352e+01
   5.690797e+01   8.355792e+01
   4.022544e+01   8.104377e+01
  -8.815682e+01   7.147080e+01
  -1.176549e+02  -1.193182e+01
  -1.268547e+01  -5.295251e+01
   9.583770e+00  -6.920917e+01
   4.769559e+01  -2.463690e+01
   7.388465e+00  -1.634179e+01
  -8.418913e+01  -1.002044e+01
   3.243092e+01  -3.964148e+01
   5.496314e+01  -5.817873e+01
   1.299910e+02  -4.046545e+01
   3.622732e+01   2.827529e+01
  -3.607577e+01   8.706116e+01
  -6.580635e+01   3.540394e+01
  -3.071068e+01   3.325072e+01
  -3.671618e+01  -5.767029e+01
   6.986455e+01  -6.763964e+01
   4.798679e+01   6.252915e+00
   3.773767e+01   9.229479e+01
   3.640256e+00  -3.365096e+00
  -1.083598e+01  -1.153933e+01
  -4.439394e+01  -2.064220e+01
  -3.009315e+01   5.346491e+00
  -3.824139e-01   4.241386e+01
   1.220380e+01   3.320070e+01
  -8.840440e+00  -5.195290e+01
  -2.802623e+01  -3.674272e+01
   5.411488e+01  -4.990097e+01
   6.667589e+01  -1.292483e+01
   2.888451e+01   9.785590e+01
  -2.090529e+01   4.115675e+01
  -3.406864e+00   7.840408e+00
  -8.981057e+00  -6.480780e+01
   8.821002e+01  -3.261688e+01
   9.092369e+01   1.594800e+01
   6.430172e+01   7.017362e+00
  -3.230142e+01   3.277034e+01
  -4.154588e+01   3.214972e+01
  -3.073653e+01  -3.126267e+00
   5.029271e+01  -2.397390e+01
   4.843141e+01   2.316332e+01
  -1.576931e+01   3.442558e+01
  -7.962352e+01   8.796188e+00
