
 $NMID
 id='ANONYMOUS ', fmtdat='(2E16.6)'
 volume=1.0
 tramp=1.0
 $END
   2.472242e+03  -1.968591e+02
   1.023128e+03   1.522194e+03
  -6.521131e+02   1.791557e+03
  -1.353740e+03   7.108590e+02
  -7.765871e+02  -3.438538e+02
   1.888255e+02  -3.853084e+02
   5.127427e+02  -2.775605e+01
  -1.054168e+01   4.930506e+02
  -5.615446e+02   3.100798e+02
  -5.866186e+02  -1.505028e+02
  -3.607961e+02  -5.986510e+02
   2.514715e+01  -4.692866e+02
   3.199055e+02  -1.384146e+02
   2.482416e+02   2.583511e+02
  -1.602787e+02   4.267248e+02
  -3.783363e+02   8.709887e+01
  -1.939114e+02  -4.594007e+02
   1.653848e+02  -3.686904e+02
   4.018393e+02  -6.663972e+01
   2.450673e+02   1.448286e+02
   2.342960e+01   2.947056e+02
  -1.748097e+02   1.396648e+02
  -8.500219e+01   2.748316e+01
   6.443054e+01   8.181413e+00
   2.040432e+02   1.341711e+02
  -1.703085e-01   2.156870e+02
  -2.844464e+02   1.306685e+02
  -4.330952e+02   4.725006e+00
  -1.996291e+02  -2.431879e+02
   2.050845e+02  -2.101287e+02
   3.896475e+02   5.823449e+01
   1.123666e+02   2.551284e+02
  -2.579970e+02   2.418559e+02
  -3.861462e+02   4.310393e+01
  -2.035081e+02  -1.841012e+02
  -1.401604e+02  -2.396918e+02
   8.660571e+01  -1.660882e+02
   5.761505e+01   1.490675e+02
  -5.456954e+01   1.984981e+02
  -1.826684e+02  -4.250302e+01
  -1.086606e+02  -4.484164e+02
   2.914807e+02  -3.697713e+02
   3.412399e+02   6.071818e+01
   1.335785e+02   3.171529e+02
  -2.009112e+02   9.554179e+01
  -1.831863e+02  -2.149913e+02
   4.026432e+01  -3.184300e+02
   4.000904e+02  -5.858939e+01
   3.805894e+02   3.849895e+02
   8.574105e+01   3.563241e+02
  -2.612062e+02   1.867533e+02
  -3.385073e+02  -6.839486e+01
  -3.305160e+02  -2.817163e+02
   1.165429e+02  -2.168627e+02
   2.558179e+02  -2.851174e+01
   1.724655e+02   7.070861e+01
  -8.590057e+01   4.793674e+01
  -8.445359e+01  -4.766351e+01
   7.698579e+01  -6.644914e+01
   1.216316e+02   5.381207e+01
   1.052356e+02   1.858505e+02
  -1.177392e+02   1.575240e+02
  -1.713266e+02  -6.727794e+00
  -1.807888e+02  -1.209657e+02
   2.543718e+01  -2.018569e+02
   3.002218e+02  -1.902912e+02
   2.134785e+02  -1.258565e+02
   1.569666e+02   8.780005e+01
   5.352076e+01   2.775991e+02
  -1.019739e+02   2.232153e+02
  -7.720910e+01   1.343740e+02
  -3.391081e+01   3.716933e+01
  -2.783654e+01   3.181791e+01
  -2.048097e+02   5.011449e+01
  -1.730872e+02  -7.117673e+01
  -5.307028e+01  -1.477845e+02
   8.222488e+01  -1.437855e+02
   1.557809e+02  -1.699771e+01
   1.007984e+02   2.235333e+02
  -2.020134e+01   1.736881e+02
  -1.919269e+02   7.316088e+01
  -2.630514e+02  -1.193022e+02
  -1.213136e+02  -2.547561e+02
   8.620657e+01  -2.093959e+02
   1.596575e+02  -1.045519e+02
   4.735677e+01   4.789028e+00
   8.745172e+01  -4.469435e+01
   1.968843e+02  -2.956266e+01
   2.866541e+02   1.370724e+02
   2.412387e+02   1.926152e+02
   6.503813e+00   3.232832e+02
  -2.513939e+02   3.357834e+02
  -3.669388e+02   1.106376e+02
  -1.638017e+02  -2.824824e+01
   3.761065e+01  -1.631436e+02
   6.236259e+01  -1.611654e+02
   2.902474e+01  -2.561725e+01
  -7.647207e+01  -5.244082e+00
  -8.133724e+01   1.402270e+01
  -7.959382e+01  -1.059545e+02
   1.000511e+02  -5.550754e+01
   4.683738e+01   1.711100e+01
  -1.549709e+01   1.276930e+02
  -8.530477e+01   4.099207e+01
  -4.565570e+01  -1.319045e+02
   3.151748e+01  -2.308929e+02
   1.771086e+02  -6.456928e+01
   3.199104e+02   3.451221e+01
   1.675118e+02   1.752687e+02
   3.267637e+01   2.807034e+02
  -1.553679e+02   1.012098e+02
  -1.140091e+02   1.549430e+01
  -3.803180e+01  -1.686808e+01
   6.733546e+01   6.296409e+01
   2.341504e+01   7.762365e+01
  -1.044935e+02   2.336708e+01
  -1.181719e+02  -5.005830e+01
   1.060848e+01  -5.058596e+01
   6.009469e+01   7.565643e+00
   3.097115e+01   6.499466e+01
  -9.211037e+01   7.323684e+01
  -2.812985e+02  -5.423720e-02
  -1.579154e+02  -6.962821e+01
  -6.326093e+01  -1.339313e+02
   1.230561e+02  -1.802321e+02
   1.951801e+02  -8.473723e+01
   1.127353e+02   4.088110e+01
  -3.159485e+01   6.433383e+01
  -5.822176e+01  -3.645933e+00
   1.689141e+01  -6.845009e+01
   1.425664e+02  -4.715865e+01
   1.246006e+02   8.286401e+01
   5.008117e+00   1.514788e+02
  -5.312555e+01   1.390980e+02
  -1.033073e+02  -2.028142e+01
  -5.119101e+01  -2.757449e+01
   1.156084e+01   3.873050e+01
   1.029764e+01   1.342882e+02
  -8.959536e+01   7.798935e+01
  -1.940915e+02   4.129334e+01
  -1.127689e+02  -8.524498e+01
   3.250991e+01  -1.299563e+02
   1.474455e+02  -9.912767e+01
   1.018877e+02  -3.039622e+01
   6.266880e+00   5.156754e+01
  -7.675465e+01   3.364589e+01
  -8.549412e+01  -2.910315e+00
   8.321164e-01   6.977249e+00
   4.122071e+01   6.774181e+00
  -7.119476e+00  -1.197572e+01
  -3.014015e+01  -2.676384e+00
  -6.790407e+01  -8.817235e+01
  -2.997180e+01  -1.350652e+02
   9.444272e+01  -1.079613e+02
   1.350710e+02   1.305187e+01
   1.428220e+02   1.461897e+02
   3.242050e+01   1.822284e+02
  -2.550862e+01   1.041353e+02
  -7.925087e+01   1.709400e+01
  -3.859350e+01  -4.237730e+01
  -4.750399e+01  -1.041097e+01
  -3.683923e+01  -1.417884e+01
  -5.802158e+01   1.806558e+00
   2.247449e+01  -3.200968e+01
   9.217065e+01  -8.301797e+01
   8.226053e+01  -2.855604e+01
   7.335829e+01   6.548699e+01
  -6.406840e+00   8.872753e+01
  -1.069765e+02   6.159860e+01
  -1.091218e+02  -5.362032e+01
  -6.522366e+01  -1.415249e+02
   6.968208e+01  -1.552598e+02
   1.350187e+02  -9.638852e+01
   1.894214e+02   6.711273e+01
   2.871700e+01   4.994312e+01
  -3.171737e+01   9.232080e+01
  -3.343130e+01   7.751165e+01
  -8.450388e+01   3.711322e+01
  -8.238747e+01   4.083898e+01
  -8.260704e+01   4.480458e+01
  -7.865929e+01  -3.563938e+01
   8.548464e-01  -1.055794e+02
  -4.215594e+01  -1.614035e+02
   1.010230e+02  -1.226860e+02
   1.304691e+02   3.493173e-01
   3.882022e+01   5.978697e+01
  -4.552381e+00   1.017070e+02
  -7.310273e+01   1.205123e+01
  -3.479269e+01   3.996570e+00
   3.875522e+01  -2.452534e+01
  -1.235465e+01  -2.516402e+01
  -3.503825e+01  -1.112219e+01
  -8.009385e+01  -2.482342e+00
  -5.400327e+01  -5.243212e+00
   8.987152e+00   3.888325e-02
   1.141306e+02   2.287955e+01
   6.715373e+01   4.772907e+01
   1.261122e+01   6.157781e+01
  -1.118381e+02   7.092532e+01
  -1.054733e+02   1.242404e+01
  -7.857168e+00  -4.534303e+01
   2.270398e+01  -2.415560e+01
   5.116411e+01  -6.032193e+00
   2.522342e+01   2.689440e+01
  -3.123651e+01   4.096957e+01
  -9.214187e+01  -1.558970e+01
  -4.737777e+01   3.312609e+00
  -7.034128e+00  -1.799655e+01
  -3.233582e+01   1.234763e+01
  -6.454255e+01   4.814977e+01
  -1.264588e+01  -2.831979e+01
   3.133248e+01  -1.141225e+02
   6.088372e+01  -6.930607e+01
   1.160009e+02  -1.198442e+01
   5.125612e+01   6.330435e+01
  -2.490276e+01   1.262136e+02
  -2.141875e+01   2.978188e+01
  -5.947956e+01   1.187250e+01
   6.526361e+01  -9.892867e+00
   8.423126e+01   3.192013e+01
   1.997302e+01   5.982774e+01
  -7.286216e+01   7.989090e+01
  -1.530464e+02  -1.625646e+01
  -1.353759e+02  -3.572326e+01
  -5.072996e+01  -5.148676e+01
   3.587350e+01  -7.181690e+01
   4.095482e+01  -6.013258e+00
  -3.153507e+01   2.592190e+01
  -4.601513e+01  -1.170907e+00
  -2.838072e+01  -1.235297e+02
   6.276771e+01  -7.469259e+01
   1.476383e+02  -9.359020e+01
   8.075702e+01   5.604456e+01
   4.588047e+00   1.819182e+02
  -6.023874e+01   3.855938e+00
  -9.650679e+01  -1.722451e+01
   8.292477e+00  -1.159691e+02
   1.418811e+01  -1.033662e+02
  -1.680335e+01  -1.505456e+01
   9.117970e+01   2.773797e+01
   2.812029e+01  -7.880267e+00
  -1.552685e+01   3.787864e+01
   2.579162e+01   4.117851e+01
   1.921707e+01   8.419233e+01
   6.186671e+01   8.011005e+01
  -6.549465e+00  -1.668723e+00
  -4.248420e+01  -1.991730e+01
  -9.654001e+01  -7.597311e+01
  -3.527744e+01  -9.243934e+00
   3.847764e+01   1.874761e+01
   4.733499e+01   3.582263e+00
   7.298730e+00   3.292120e+01
   1.072641e+00  -8.289416e+00
  -6.920228e+00  -7.504628e+00
   1.715457e+01  -8.482822e+00
  -2.824827e+01  -1.795714e+01
  -6.781303e+01  -2.432216e+01
  -3.523040e+01  -5.162729e+01
   3.364322e+01  -7.257392e+01
   8.232730e+01  -8.960983e+01
   1.269278e+02  -3.308646e+01
   6.948200e+01   1.042386e+02
   3.066705e+01   4.452538e+01
  -6.760445e+01   7.563423e+01
  -7.656419e+01   2.615447e+01
  -4.478233e+01  -7.132077e+01
   3.424225e+00   9.343128e+00
  -1.733602e+01  -3.269338e+01
  -1.818228e+01  -2.195156e+01
  -5.205657e+01  -1.383802e+01
  -2.291597e+01  -4.606491e+01
   2.019577e+01  -3.951164e+01
   5.900785e+01  -9.029989e-01
   5.742551e+01   6.548660e+01
   9.610119e+00   8.607903e+01
  -2.943537e+01  -2.201172e+00
  -5.788811e+01  -3.311265e+01
  -8.282966e+01  -5.412052e+01
   4.507596e+01  -7.738454e+01
   3.667862e+01   1.913241e+01
   4.168573e+01   2.476766e+01
  -4.174913e+01   5.317001e+01
  -3.582960e+00   8.094057e+00
  -2.062861e+00   6.879667e+00
   2.871516e+01   6.039823e+00
  -1.986829e+01   5.940495e+01
  -4.795057e+01   8.308639e+01
  -7.907561e+01   2.614345e+01
  -5.154539e+01  -2.185462e+01
   2.053855e+01  -5.397911e+01
   5.898576e+01  -2.808333e+01
   3.558091e+01   1.397733e+01
  -9.809220e+00   2.612084e+01
  -7.289402e+01   3.024897e+01
  -6.330322e+01   4.041278e-01
  -5.424539e+01   2.718788e+01
  -1.714388e+00  -9.239539e+00
   4.371413e+01  -1.722943e+01
   1.605791e+01   5.490706e+01
   1.120717e+01   1.267408e+01
   1.552241e+01   4.248226e+00
   3.435970e+01  -3.714364e+01
   1.738816e+01   3.005236e+01
  -3.623738e+01   4.652551e+01
  -7.862462e+01   3.218599e+01
  -4.789063e+01  -3.648421e+01
   1.356593e+01  -7.544469e+01
   4.910979e+01  -6.570707e+01
   2.676476e+01   2.863644e+01
   3.423663e+01   2.154335e+01
  -7.590699e+01   4.308249e+01
  -3.165850e+01   1.858906e+01
  -4.360697e+01  -6.187674e+01
   1.406638e+01  -6.867051e+01
   5.849645e+01  -1.567885e+01
   6.341526e+00  -4.589489e+00
  -2.235476e+01   8.269478e+00
  -1.430941e+00  -3.985778e+01
   2.768366e+01   7.244007e+00
   7.980658e+01   3.392900e+00
