
 $NMID
 id='ANONYMOUS ', fmtdat='(2E16.6)'
 volume=1.0
 tramp=1.0
 $END
   4.285851e+03   2.871110e+02
   2.124765e+03   2.674945e+03
  -8.987353e+02   2.289382e+03
  -2.095314e+03   4.657812e+02
  -7.546533e+02  -9.245304e+02
   7.512452e+02  -6.870357e+02
   9.524678e+02   4.909326e+02
  -6.612025e+01   1.015493e+03
  -8.029431e+02   8.089257e+02
  -8.333600e+02  -1.379938e+02
  -3.567539e+02  -8.891090e+02
   3.038093e+02  -1.018953e+03
   5.890572e+02  -3.038416e+01
   3.362057e+02   7.401176e+02
  -3.629340e+02   6.901923e+02
  -6.420948e+02  -4.865463e+01
  -2.006815e+02  -6.961453e+02
   4.659024e+02  -5.846825e+02
   5.000177e+02  -6.375250e+01
   3.651685e+02   3.658526e+02
  -1.221510e+01   4.627159e+02
  -2.596866e+02   2.201448e+02
  -1.785977e+02   4.479941e+01
   8.661388e+01  -4.434971e+01
   4.022821e+02   1.616590e+02
   2.158104e+02   4.498945e+02
  -5.444637e+02   4.944204e+02
  -8.013440e+02  -1.215875e+02
  -2.995563e+02  -5.670757e+02
   4.871093e+02  -4.412144e+02
   7.462011e+02   7.364581e+01
   3.382738e+02   4.224317e+02
  -2.035989e+02   5.676844e+02
  -5.347637e+02   8.708643e+01
  -4.186416e+02  -2.003744e+02
  -1.826927e+01  -4.581114e+02
   1.838718e+02  -1.827433e+02
   1.186319e+02   2.711404e+02
  -1.779555e+02   3.397235e+02
  -4.440846e+02  -9.398735e+01
  -2.338687e+02  -6.339174e+02
   3.458592e+02  -6.419219e+02
   5.426347e+02   8.515937e+01
   2.613556e+02   5.229370e+02
  -3.062657e+02   2.923009e+02
  -4.148932e+02  -3.689926e+02
   1.100232e+02  -5.537784e+02
   5.489901e+02  -5.733611e+01
   6.877288e+02   4.402664e+02
   8.556132e+01   5.743579e+02
  -3.538984e+02   2.847722e+02
  -5.793889e+02  -1.154032e+02
  -3.935552e+02  -3.651632e+02
   2.025684e+02  -3.676169e+02
   4.738178e+02  -1.104391e+01
   2.340674e+02   2.798149e+02
  -1.221361e+02   9.997072e+01
  -8.550849e+01  -2.070105e+02
   2.039028e+02  -2.297884e+02
   2.910481e+02   1.450953e+02
   1.605889e+02   2.793319e+02
  -2.816858e+02   2.471895e+02
  -2.017096e+02   9.865165e+01
  -2.087907e+02  -9.543970e+01
   5.569596e+01  -2.086054e+02
   1.642764e+02  -2.865452e+02
   2.613476e+02  -1.879180e+02
   2.890808e+02   9.675224e+01
   1.186036e+02   4.504805e+02
  -1.527744e+02   3.210261e+02
  -1.397300e+02   1.029059e+02
  -3.775721e+01  -1.175904e+01
  -5.174020e+01   8.377811e+01
  -1.893297e+02   9.388165e+01
  -2.561141e+02  -5.648429e+01
  -1.226147e+02  -2.501225e+02
   5.737272e+01  -2.038215e+02
   2.347197e+02  -1.570927e+01
   1.619972e+02   2.759453e+02
  -4.357756e+00   2.890061e+02
  -2.023597e+02   8.640899e+01
  -3.307030e+02  -2.187019e+02
  -1.483273e+02  -2.840159e+02
   8.489205e+01  -2.827538e+02
   2.753556e+02  -8.552975e+01
   1.028393e+02  -1.748553e+01
   5.524344e+01  -2.196615e+01
   2.026953e+02  -7.751980e+01
   3.482786e+02   2.128415e+01
   3.312189e+02   2.708914e+02
  -8.414351e+01   3.868128e+02
  -4.308710e+02   4.038015e+02
  -5.106509e+02   1.632749e+02
  -3.223259e+02  -5.003451e+01
  -3.960349e+01  -2.752791e+02
   1.560248e+02  -2.337025e+02
   7.179727e+01  -4.086235e+01
  -1.486086e+02   1.229551e+02
  -1.679263e+02  -1.897424e+01
  -5.694897e+01  -2.201780e+02
   1.388529e+02  -1.390946e+02
   2.126643e+02   5.436644e+01
  -1.454866e+01   1.860394e+02
  -1.793165e+02  -2.766379e+00
  -1.403626e+02  -1.855025e+02
   2.854983e+01  -4.030574e+02
   2.183326e+02  -1.361493e+02
   3.331194e+02   7.048588e+01
   1.863758e+02   2.450898e+02
   9.688922e+01   2.845159e+02
  -6.982407e+01   1.706408e+02
  -1.603667e+02   1.559896e+01
  -2.774582e+01  -2.644239e+01
   3.917710e+01   5.668330e+00
   2.395089e+01   1.437456e+02
  -1.216197e+02   1.260246e+02
  -1.586576e+02  -3.246219e+01
  -2.296450e+01  -6.533858e+01
   9.751323e+01   2.049937e+00
   3.127406e+01   1.007630e+02
  -9.596271e+01   2.866411e+01
  -2.519464e+02  -2.200805e+01
  -2.093357e+02  -1.627288e+02
  -7.331815e+01  -2.693659e+02
   2.192031e+02  -2.069031e+02
   2.658190e+02  -8.799223e+01
   1.563400e+02   4.397170e+01
   3.440475e+00   1.210349e+02
  -1.035111e+02  -8.844342e+00
   5.857503e+01  -8.759325e+01
   1.452605e+02  -9.170232e+01
   1.565544e+02   5.282463e+01
   9.451765e+01   2.076677e+02
  -1.442028e+02   1.485762e+02
  -1.312151e+02  -1.295667e+01
  -1.058750e+02  -7.008064e+01
   3.653331e+01  -2.489464e+01
   6.825313e+01   1.026205e+02
  -4.111587e+01   7.602757e+01
  -9.892467e+01   2.875037e+00
  -1.790181e+02  -1.398274e+02
   4.153235e+01  -2.417438e+02
   1.764676e+02  -1.668366e+02
   1.677488e+02   4.252872e-01
   9.846017e+01   1.191638e+02
  -6.979377e+01   9.223388e+01
  -1.166474e+02   1.410044e+01
  -5.455862e+01   5.105389e+00
   4.109524e-02  -2.716256e+01
  -1.822835e+00   7.240078e-01
  -3.146214e+01   4.227562e+01
  -9.002642e+01  -1.107072e+02
  -5.184905e+01  -1.361831e+02
   1.118693e+02  -1.407725e+02
   1.421707e+02   4.805639e+01
   1.736653e+02   1.524470e+02
   8.797880e+01   2.228243e+02
  -1.389847e+02   1.604649e+02
  -1.060639e+02   1.218222e+01
  -8.113152e+01  -7.293115e+01
  -4.305063e+01  -3.970476e+01
  -4.854582e+01   3.774156e+01
  -8.661259e+01  -2.375451e+00
  -4.470775e+01  -9.237119e+00
  -1.406899e+01  -1.060166e+02
   8.776760e+01  -1.451602e+01
   9.131229e+01   1.553125e+01
  -4.623142e+01   9.012035e+01
  -9.472487e+01   6.197334e+01
  -1.944996e+02  -4.909420e+01
  -1.299401e+02  -1.851730e+02
   8.668848e+01  -1.789620e+02
   2.402143e+02  -1.533043e+02
   2.357122e+02   8.508506e+01
   1.185330e+02   1.684642e+02
  -4.005983e+01   1.703762e+02
  -1.075980e+02   4.332055e+01
  -8.078719e+01   1.143683e+02
  -6.577573e+01   7.745976e+01
  -9.779059e+01   7.499419e+01
  -1.219137e+02  -2.589508e+01
  -8.849766e+01  -1.927480e+02
  -5.934656e+01  -2.399333e+02
   4.643309e+01  -1.464186e+02
   1.637329e+02   2.973969e+01
   6.541931e+01   1.689168e+02
   2.861410e+01   1.307457e+02
  -4.852173e+01   1.045824e+02
  -4.713795e+01   2.412952e+01
  -1.432880e+01   6.853264e+00
   1.498384e+01   7.622154e+00
  -4.584807e+01  -2.732430e+01
  -7.016004e+01  -3.700024e+01
  -5.105670e+01  -1.181002e+01
   7.486580e+01  -7.284223e+01
   1.430729e+02  -1.507216e+01
   1.432671e+02   2.681763e+01
   9.286627e+00   1.386634e+02
  -1.327112e+02   4.432330e+01
  -1.381902e+02   4.693647e+01
  -4.918384e+01  -6.808834e+01
   1.249357e+02  -2.569675e+01
   3.942717e+01  -5.673781e+00
   2.676372e+01   8.552192e+01
  -7.891724e+01   7.894316e+01
  -3.058942e+01  -2.553216e+01
   1.712388e+01  -4.385861e+01
  -4.289373e+01  -3.875260e+01
  -7.329973e+01  -6.261562e+01
  -4.943437e+01  -1.281804e+01
  -8.047456e+01  -6.014857e+01
   3.509293e+01  -1.296940e+02
   1.040456e+02  -8.391493e+01
   1.368546e+02  -7.300080e+01
   8.130889e+01   1.019807e+02
   6.883870e+00   1.028524e+02
  -6.626143e+01   4.989532e+01
  -3.660682e+01  -4.796539e+01
   6.778243e+01  -2.625610e+01
   1.240492e+02   3.545234e+01
   3.119018e+01   6.897613e+01
  -7.486678e+01   1.174930e+02
  -1.795491e+02   2.460896e+01
  -1.686509e+02  -4.953514e+01
  -1.126242e+01  -9.677098e+01
   2.387261e+01  -9.166624e+01
   4.025340e+01  -4.249722e+01
  -4.571089e+01   1.307698e+01
  -1.078690e+02   9.771271e+00
  -2.312769e+01  -1.287152e+02
   1.102391e+02  -1.114934e+02
   1.690355e+02  -7.480667e+01
   1.345714e+02   1.278255e+02
   3.775216e+01   1.581264e+02
  -7.756448e+01   1.746767e+02
  -9.539677e+01  -4.175404e+01
  -9.230199e+01  -1.082892e+02
   8.658573e+00  -1.127254e+02
   3.641020e+01  -1.469434e+01
   3.114264e+01   1.751032e+01
   2.264590e+01   1.597951e+01
  -8.579380e-01  -1.802465e+01
   1.236926e+01   1.321770e+01
   3.610111e+01   8.669015e+01
   5.875189e+01   8.268758e+01
  -7.372884e+01   9.942941e+01
  -7.690550e+01  -1.838509e+01
  -1.364285e+02  -1.204046e+02
  -1.516966e+00  -4.567320e+01
   9.485897e+01  -3.928040e+01
   4.340061e+01  -4.662672e+01
  -5.084310e-01  -3.270641e+01
   2.430713e-02  -1.275325e+00
  -2.398903e+01  -2.133657e+00
   1.328647e+01  -5.235652e+01
  -3.833452e+00   4.534716e+00
  -9.956236e+01  -5.166706e+01
  -1.182698e+02  -7.320151e+00
  -2.407988e+01  -8.095472e+01
   1.165445e+02  -1.051988e+02
   1.753594e+02  -5.923549e+01
   1.442814e+02   6.042077e+01
   2.568569e+01   1.112944e+02
  -8.572974e+01   1.383168e+02
  -1.006152e+02   2.854429e+01
  -6.604786e+01  -1.102277e+01
  -4.796546e+01  -4.160041e+01
   9.172084e+00   1.834832e+00
   7.945666e+00  -1.217354e+00
  -3.601326e+01  -6.329108e+01
  -1.910248e+01  -7.360600e+01
   3.399307e+01  -5.284286e+01
   4.639120e+01   1.956935e+01
   9.695019e+01   9.202405e+01
   2.815078e+01   1.155308e+02
  -7.879351e+01  -3.162247e+01
  -7.123557e+01  -4.475552e+01
   1.271829e+01  -1.369603e+02
   4.769753e+01  -3.512735e+01
   8.411258e+01  -3.885379e+01
  -1.088628e+01   1.937460e+01
  -4.508855e+01   5.648506e+01
  -9.813662e+00   2.571824e+01
   1.507771e+01   1.553809e+01
   5.989016e+01  -2.481984e+01
   1.056804e+01   1.343969e+01
  -5.379271e+01   2.812931e+01
  -1.066401e+02   8.158429e+01
  -4.946499e+00  -5.386803e+01
  -6.160193e+00  -1.002660e+02
   7.273412e+01  -7.604798e+01
   7.218601e+01   1.510253e+01
   3.657829e+01   6.323083e+01
  -8.318298e+01   4.625176e+01
  -7.628753e+00  -1.020450e+01
  -7.103257e+01  -2.723292e+01
  -2.726343e+00  -4.406562e+01
  -3.488749e+00  -9.982128e+00
   4.836872e+01   3.955134e+01
   3.982548e+01   4.531587e+01
   6.999646e+00  -4.314309e+01
   1.460246e+01  -2.741127e+00
   3.813789e+00  -2.147995e+00
   2.044690e+00   6.733025e+01
  -2.572516e+00  -4.217083e-01
   2.876058e+01  -4.117092e+01
   1.471238e+01  -4.648836e+01
   4.000026e+01   1.296179e+01
   2.901320e+01   4.106699e+01
   2.098379e+01   6.843675e+01
  -6.339857e+01   3.459581e+01
  -1.007273e+02  -3.612426e+01
  -5.485823e+01  -3.203798e+01
   1.836456e+01  -7.267970e+01
  -3.255733e+00   2.085117e+00
   1.158433e+01  -3.361166e+01
  -5.465230e+01  -5.717838e+00
  -1.862393e+01  -7.552104e+00
   7.836412e-01  -1.106893e+01
   1.060528e+02  -4.290962e+01
