
 $NMID
 id='ANONYMOUS ', fmtdat='(2E16.6)'
 volume=1.0
 tramp=1.0
 $END
  -4.265915e+03   4.451995e+02
  -2.404317e+03  -2.574974e+03
   5.859716e+02  -2.969217e+03
   1.896409e+03  -1.261596e+03
   9.411422e+02   6.178992e+02
  -8.296342e+02   7.800041e+02
  -9.186212e+02  -5.227773e+02
   3.331645e+01  -1.231970e+03
   7.982743e+02  -9.046490e+02
   9.262656e+02   2.439487e+02
   4.474378e+02   1.005483e+03
  -2.474279e+02   8.452558e+02
  -7.423686e+02   1.340774e+02
  -4.399513e+02  -7.927541e+02
   2.322658e+02  -7.473948e+02
   6.975337e+02  -4.188491e+01
   2.537177e+02   6.738092e+02
  -3.120728e+02   5.946411e+02
  -6.154553e+02   6.912733e+01
  -3.777228e+02  -3.383404e+02
  -3.246259e+01  -4.413693e+02
   2.512687e+02  -3.157274e+02
   2.109585e+02   3.291786e+01
  -1.291083e+02   1.763378e+02
  -4.875087e+02  -5.840208e+01
  -2.570723e+02  -4.587254e+02
   5.155890e+02  -4.294942e+02
   8.660713e+02   7.788455e+01
   5.347056e+02   5.699634e+02
  -4.627412e+02   4.437566e+02
  -7.990550e+02  -2.092143e+01
  -3.329656e+02  -4.989021e+02
   2.517577e+02  -6.284232e+02
   6.326609e+02  -2.256400e+02
   4.405760e+02   2.072181e+02
   6.592816e+01   4.397822e+02
  -2.110335e+02   1.911619e+02
  -1.796830e+02  -2.665469e+02
   4.753537e+01  -4.975172e+02
   4.580625e+02  -1.134894e+01
   2.897752e+02   7.895224e+02
  -2.470837e+02   6.812584e+02
  -6.162539e+02  -3.639446e+01
  -3.585820e+02  -5.908201e+02
   3.139283e+02  -4.205640e+02
   4.224586e+02   2.850368e+02
  -7.666104e+01   5.876342e+02
  -6.017456e+02   1.599607e+02
  -6.452028e+02  -4.081682e+02
  -1.616750e+02  -5.729087e+02
   3.435237e+02  -3.986651e+02
   5.795415e+02   1.780443e+01
   4.642029e+02   4.427692e+02
  -1.496800e+02   4.105493e+02
  -4.190072e+02   6.215130e+01
  -2.278128e+02  -2.453537e+02
   1.362990e+02  -1.262034e+02
   1.467618e+02   1.746623e+02
  -1.941538e+02   2.441593e+02
  -3.196520e+02  -8.998688e+01
  -1.466273e+02  -3.535403e+02
   2.165256e+02  -2.224034e+02
   3.096536e+02  -1.726408e+01
   2.679976e+02   8.333571e+01
   1.866805e+01   2.173169e+02
  -1.690366e+02   3.717814e+02
  -3.059038e+02   2.704102e+02
  -2.635914e+02  -1.086346e+02
  -4.558046e+01  -4.658509e+02
   9.902499e+01  -3.765755e+02
   1.495620e+02  -1.124902e+02
  -1.143016e+01   4.753260e+01
  -3.022978e+00  -5.515826e+01
   1.247247e+02  -2.000461e+02
   2.789748e+02   6.368090e+01
   2.025920e+02   2.513598e+02
  -7.307879e+01   3.229899e+02
  -2.385433e+02   5.975562e+00
  -2.484457e+02  -2.286105e+02
  -5.061499e+01  -2.871568e+02
   2.710886e+02  -1.259008e+02
   3.916509e+02   1.536480e+02
   2.035328e+02   3.871284e+02
  -1.440601e+02   3.982963e+02
  -2.464341e+02   1.274510e+02
  -1.649655e+02   9.725124e+00
  -6.805163e+01   4.757211e+01
  -1.597960e+02   6.945349e+01
  -4.795261e+02  -1.722432e+01
  -3.139272e+02  -2.830317e+02
   4.500330e+01  -4.350405e+02
   3.931012e+02  -4.140957e+02
   5.169500e+02  -2.341050e+02
   2.619119e+02   1.093834e+02
   5.662411e+01   2.291613e+02
  -1.540578e+02   3.009557e+02
  -9.239552e+01   2.591034e+01
   5.580663e+01  -1.243598e+02
   2.088825e+02  -2.191563e+01
   6.544609e+01   2.114533e+02
  -1.731763e+02   1.721662e+02
  -1.814128e+02  -1.578557e+00
  -2.414880e+00  -2.377143e+02
   2.226667e+02  -2.659279e+01
   1.615031e+02   2.240676e+02
  -2.989057e+01   3.380894e+02
  -2.555135e+02   1.386434e+02
  -3.536949e+02  -5.285220e+01
  -2.630785e+02  -2.470900e+02
  -1.492886e+02  -2.641973e+02
   1.526510e+02  -2.304344e+02
   1.540131e+02  -3.973231e+01
   7.273996e+01   3.037049e+01
  -7.339909e+01   2.448585e+00
  -5.315577e+01  -1.469227e+02
   1.173123e+02  -1.298994e+02
   1.661269e+02  -6.780502e+00
   1.118826e+02   1.059199e+02
  -1.103152e+02   4.698925e+01
  -9.001380e+01  -6.056060e+01
   1.238885e+02  -9.127233e+01
   2.267320e+02   4.127664e+01
   2.638951e+02   1.660184e+02
   2.915913e+01   2.158041e+02
  -1.472447e+02   2.907002e+02
  -3.200531e+02   2.129655e+02
  -1.485237e+02  -3.373748e+01
   5.800848e+01  -1.490458e+02
   1.059506e+02   2.197802e+01
  -3.521364e+01   9.687557e+01
  -2.223737e+02   5.219391e+01
  -2.615647e+02  -9.275069e+01
  -8.678716e+01  -1.724843e+02
   1.147534e+02  -1.714183e+02
   1.417338e+02  -2.481936e+01
   9.818504e+01   4.372276e+01
  -2.653225e+01   3.472320e+01
  -5.043694e+01  -8.063401e+01
   5.373819e+01  -1.437143e+02
   1.852425e+02  -3.779139e+01
   1.817358e+02   6.842622e+01
   1.457926e+01   2.248744e+02
  -2.196380e+02   1.806435e+02
  -2.065036e+02   4.184878e+01
  -7.670481e+01  -9.030077e+01
   5.614978e+01  -1.328544e+02
   8.259401e+01  -7.097274e+00
   3.813438e+01   1.576919e+01
  -6.702642e+00   8.718585e+01
   2.882629e+00  -7.597779e+00
   4.723978e+01   2.846118e+01
   1.144593e+02   8.961733e+01
   2.805044e+01   1.378790e+02
  -1.129785e+02   1.493187e+02
  -2.257821e+02   1.852424e+01
  -2.204988e+02  -1.443623e+02
  -6.098153e+01  -2.592142e+02
   1.770352e+02  -1.459089e+02
   1.589937e+02   1.745309e+00
   4.956750e+01   8.666825e+01
   4.194783e+00   4.828568e+01
   5.753344e+01   9.684347e+00
   7.665278e+01  -4.201938e+01
   7.949002e+01   2.979109e+01
  -2.977478e+01   4.368215e+01
  -1.004037e+02   7.412568e+01
  -4.387792e+01  -4.197268e+01
  -4.922828e+00  -5.943749e+01
   1.221519e+02  -8.923859e+01
   2.173006e+02   5.237012e+01
   9.674575e+01   1.763171e+02
  -5.453103e+01   2.136149e+02
  -3.053961e+02   1.370027e+02
  -2.496836e+02  -6.889550e+01
  -1.508532e+02  -1.592706e+02
   3.057897e+00  -1.619596e+02
   5.022166e+01  -4.325380e+01
   8.449174e+01  -9.373802e+01
   1.180660e+02  -6.698400e+01
   9.924356e+01  -7.062213e+01
   1.377362e+02   1.622283e+01
   1.483433e+02   1.097517e+02
   8.728533e+01   2.295956e+02
  -9.348724e+01   2.032540e+02
  -1.845808e+02   5.956337e+01
  -1.276866e+02  -1.176266e+02
  -4.014542e+01  -1.288946e+02
   6.201551e+01  -1.066822e+02
   6.681613e+00  -1.218659e+01
  -1.765116e+01   7.145460e+01
  -4.357172e+01   9.750712e+01
   2.960969e+01   1.686084e+01
   1.247541e+02   1.550009e+01
   6.648588e+00   4.130629e+01
  -6.064718e+01   5.398399e+01
  -1.428932e+02   6.167714e+00
  -1.338463e+02  -4.348361e+01
  -1.795525e+01  -1.029872e+02
   1.007387e+02  -7.482332e+01
   1.497044e+02  -8.666747e+01
   4.216976e+01   6.776109e+01
  -5.322064e+01   4.650649e+01
  -1.185400e+02  -4.806094e+01
  -1.830701e+01  -5.854748e+01
   6.302465e+01  -7.517232e+01
   8.819536e+01  -3.690853e-01
   5.567485e+01   7.578029e+01
   6.207233e+01   6.402575e+01
   4.413457e+01   1.457372e-01
   4.296367e+01  -8.535923e+00
   2.109270e+01   6.455185e+01
  -3.732606e+01   1.387416e+02
  -1.362925e+02   1.474719e+02
  -1.730904e+02   8.743204e+01
  -1.058721e+02  -1.042501e+02
  -2.006001e+01  -1.172396e+02
   8.902298e+01  -7.223068e+01
   3.130278e+01   5.902422e+01
  -5.502916e+01   2.539428e+01
  -1.367274e+02  -2.713609e+01
  -1.382144e+02  -1.264131e+02
   9.346664e+01  -8.436768e+01
   1.637344e+02  -7.211306e+01
   1.228395e+02  -4.158015e+01
   6.251760e+01   8.379851e+01
  -6.771854e+01   9.877403e+01
  -5.838297e+01   1.391757e+01
   6.458579e-01  -4.212434e+01
   1.166336e+02   1.940077e+01
   4.575540e+01   1.138769e+02
  -6.357346e+01   1.505899e+02
  -1.497209e+02   1.000141e+02
  -1.234313e+02  -6.685727e+01
  -2.511636e+00  -2.596940e+02
   6.599399e+01  -1.688230e+02
   1.070897e+02  -1.124699e+00
   9.409862e+01   1.287414e+02
   9.003958e+00   7.569998e+01
  -8.481000e+01   2.198996e+01
  -6.810633e+01  -1.861536e+01
  -3.443607e+01  -4.439777e+00
   4.385402e+01   1.544290e+01
  -3.171406e+01  -1.580075e+01
  -6.391145e+01  -6.389948e+01
  -5.978588e+01  -3.156434e+01
   6.257684e+01  -5.143001e+01
   1.261670e+02   5.791029e+00
   1.187458e+02   9.793610e+01
   7.545472e+00   5.633378e+01
  -1.147159e+02   6.436840e+01
  -1.192155e+02   4.581083e+01
  -7.819722e+00   7.406870e+00
   7.071567e+01  -5.257980e+01
   8.308650e+00  -3.579484e+01
  -1.589669e+01   1.612973e+01
  -2.070119e+01   3.992712e+00
   4.777499e+01  -1.334582e+01
   8.048661e+01   3.267720e+01
   1.703935e+01   9.520848e+01
  -1.363518e+02   1.087437e+02
  -1.418621e+02   9.781517e+01
  -1.102152e+02  -9.432236e+01
   1.781337e+01  -1.684825e+02
   4.479038e+01  -1.017015e+02
   7.333054e+01  -5.086643e+01
   7.222540e+01   1.061201e+01
   1.314923e+01   6.097235e+01
   2.748596e+01   2.814464e+00
   2.555614e+01  -3.186248e+01
   4.304892e+01   3.643906e+01
   5.949695e+01   1.014319e+02
  -4.945488e+01   9.976361e+01
  -1.015113e+02  -3.324654e+01
  -8.662229e+01  -1.242397e+02
  -1.128971e+01  -6.750862e+01
   7.486394e+01  -6.071396e+00
   9.915004e+01   5.320927e+01
   4.081943e+01   1.159856e+02
  -6.305324e+01   6.710605e+01
  -1.058384e+02  -2.236182e+01
  -3.485113e+01  -7.965360e+01
  -1.217240e+01  -7.632189e+01
   1.712617e+01  -8.423591e+00
  -2.277118e+01   1.349881e+00
  -4.384972e+01   2.067873e+01
  -7.545767e+01  -8.435006e+01
   6.494394e+01  -5.154949e+01
   9.889721e+01  -6.495536e+01
   5.471600e+01   2.171628e+01
  -8.064243e+00   1.044798e+02
  -2.680118e+01   5.825843e+01
  -1.564815e+01  -2.048085e+01
   8.632953e+00  -5.252540e+01
   9.447531e+00  -5.477504e+01
   4.845464e+01   1.301080e+01
   1.969811e+01   1.287896e+02
  -1.182184e+01   2.066348e+01
  -3.383391e+00   9.193252e+00
   1.205734e+01  -3.747158e+01
  -2.368029e+01  -2.204240e+01
  -3.446179e+01  -1.631382e+01
  -2.832297e+00  -4.751281e+00
   1.956281e+00  -4.554741e+01
   1.462159e+01  -2.296170e+01
   1.479447e+01   1.850972e+01
   6.974529e+00   6.527334e+01
   7.564640e+00   5.197028e+01
  -4.217745e+01   2.594283e+01
  -1.670677e+01  -2.329502e+00
  -2.210292e+01  -6.120380e+01
   5.037401e+01  -5.839109e+01
   6.514789e+01  -5.722936e+01
   3.683393e+01   3.720604e+01
  -4.640803e+01   3.047460e+01
  -7.372455e+01   2.823276e+01
  -5.565291e+01   2.125385e+00
   2.184229e+01   2.204936e+01
   1.614691e+01   1.963175e+01
  -7.033556e+00   1.191548e+01
  -1.148234e+02   3.609235e+01
