
 $NMID
 id='ANONYMOUS ', fmtdat='(2E16.6)'
 volume=1.0
 tramp=1.0
 $END
   4.279368e+03  -3.612846e+02
   2.393569e+03   2.731173e+03
  -1.051789e+03   2.871028e+03
  -2.138248e+03   6.951337e+02
  -9.148193e+02  -4.230643e+02
   7.455319e+02  -6.908516e+02
   7.901024e+02   5.111174e+02
  -3.639773e+01   1.195846e+03
  -9.574537e+02   8.829508e+02
  -9.326556e+02  -2.171642e+02
  -4.422329e+02  -1.070553e+03
   2.661251e+02  -9.931091e+02
   6.532409e+02  -5.208201e+01
   2.764488e+02   8.516563e+02
  -3.551248e+02   6.839708e+02
  -6.750553e+02  -1.438741e+02
  -2.985356e+02  -6.174952e+02
   2.505744e+02  -6.520027e+02
   6.608881e+02  -4.904260e+01
   3.813770e+02   4.178611e+02
   2.063638e+01   4.747911e+02
  -3.144086e+02   2.292869e+02
  -2.201659e+02   2.675578e+00
   1.020960e+02  -4.435520e+01
   4.010392e+02   7.014634e+01
   1.799446e+02   5.028748e+02
  -5.753342e+02   3.975630e+02
  -7.907501e+02  -5.460396e+01
  -4.750889e+02  -5.976254e+02
   4.497934e+02  -5.069709e+02
   7.034735e+02  -2.379805e+00
   2.753890e+02   4.725321e+02
  -2.806481e+02   5.590057e+02
  -4.756570e+02   2.322418e+02
  -3.819616e+02  -1.959569e+02
  -5.848990e+01  -4.331434e+02
   1.892316e+02  -2.279033e+02
   1.418487e+02   2.393346e+02
  -1.516788e+02   3.818639e+02
  -4.956204e+02  -1.015095e+02
  -2.824799e+02  -7.797458e+02
   3.304549e+02  -7.140753e+02
   6.247234e+02  -1.476131e+01
   2.868897e+02   5.650847e+02
  -2.985385e+02   3.556820e+02
  -3.666789e+02  -4.129406e+02
   8.536409e+01  -6.257081e+02
   5.078125e+02  -1.384661e+02
   6.071536e+02   4.419756e+02
   1.183876e+02   6.008248e+02
  -3.267050e+02   2.999428e+02
  -5.879093e+02  -6.609432e+01
  -3.519690e+02  -4.134389e+02
   1.518009e+02  -3.493209e+02
   4.975512e+02  -4.450229e+01
   2.356523e+02   2.587285e+02
  -9.963906e+01   7.548416e+01
  -1.339168e+02  -1.497315e+02
   2.086081e+02  -1.664768e+02
   4.060301e+02   6.118885e+01
   1.316527e+02   3.114763e+02
  -2.322349e+02   3.234164e+02
  -3.034577e+02   2.229162e+01
  -2.651390e+02  -8.891022e+01
   4.464657e+01  -2.664347e+02
   1.916658e+02  -2.745945e+02
   3.870314e+02  -1.539247e+02
   3.002069e+02   1.449186e+02
   6.176543e+01   4.371939e+02
  -1.580274e+02   4.152054e+02
  -7.800909e+01   1.132934e+02
  -3.266858e+01   3.765399e+00
  -2.952279e+01   9.905724e+01
  -2.163229e+02   1.627471e+02
  -2.659650e+02  -9.106606e+01
  -1.101612e+02  -2.710902e+02
   9.568138e+01  -2.990972e+02
   2.564160e+02  -4.043107e+01
   2.317572e+02   2.339788e+02
  -1.657923e+01   2.844023e+02
  -2.735050e+02   1.494781e+02
  -4.076651e+02  -2.020653e+02
  -1.773395e+02  -3.838225e+02
   1.647405e+02  -3.212975e+02
   2.374132e+02  -1.226945e+02
   1.568587e+02  -7.106255e+00
   1.092422e+02  -9.966631e+01
   2.433023e+02  -8.267352e+01
   4.172302e+02   3.769114e+01
   2.681430e+02   3.459192e+02
   5.933029e+01   4.640262e+02
  -3.602749e+02   3.450869e+02
  -5.381482e+02   2.297801e+02
  -2.751450e+02  -2.670758e+01
  -9.098560e+01  -3.417634e+02
   1.174646e+02  -2.308783e+02
   1.060137e+02   2.319601e+01
  -1.146002e+02   6.784204e+01
  -1.819135e+02  -5.764912e+01
  -6.505412e+01  -1.968111e+02
   1.751821e+02  -2.144143e+02
   1.654929e+02   2.104598e+01
  -2.251337e+01   2.317143e+02
  -1.650246e+02   3.007163e+01
  -1.241543e+02  -2.465641e+02
   9.426078e+01  -4.000738e+02
   2.091789e+02  -2.203694e+02
   3.498948e+02   3.975390e+01
   2.791113e+02   2.884581e+02
   8.778899e+01   2.484496e+02
  -1.479963e+02   1.301857e+02
  -1.693929e+02   8.490714e+00
  -5.787102e+01  -3.099642e+01
   5.002330e+01  -6.803206e+00
   5.958435e+01   1.209731e+02
  -1.590673e+02   1.344734e+02
  -1.940546e+02  -1.591500e+00
  -5.396275e+01  -7.618085e+01
   7.427150e+01  -1.630513e+01
   6.151331e+01   7.496813e+01
  -1.444722e+02   9.822072e+01
  -2.914434e+02  -1.733026e+01
  -2.603624e+02  -1.669848e+02
  -9.775568e+01  -2.748151e+02
   1.880942e+02  -2.847187e+02
   3.089347e+02  -1.043388e+02
   2.080329e+02   1.037546e+02
  -3.893631e+01   8.520207e+01
  -8.852476e+01   7.770827e+01
   6.133428e+00  -8.596066e+01
   2.254491e+02  -1.706862e+01
   2.519766e+02   1.577888e+02
   5.474309e+01   2.167073e+02
  -4.912043e+01   1.564872e+02
  -1.610449e+02   1.983233e+01
  -9.610968e+01  -7.386803e+01
   1.920292e+01  -8.452821e+00
   5.040394e+00   1.263789e+02
  -7.824494e+01   8.982583e+01
  -2.081851e+02   6.434386e+01
  -1.976330e+02  -1.345835e+02
  -5.515613e+01  -2.821727e+02
   1.787816e+02  -1.444844e+02
   1.919258e+02  -1.150092e+01
   6.763620e+01   1.152022e+02
  -2.549497e+01   8.308074e+01
  -1.055769e+02   1.286374e+01
   1.055750e+01  -3.798156e+01
   6.852706e-01  -3.677067e+01
  -9.616305e+00   1.379508e+01
  -4.688780e+01   9.441499e+00
  -7.763442e+01  -5.558348e+01
  -6.619132e+00  -9.008291e+01
   1.123970e+02  -1.450696e+02
   2.129362e+02  -5.611081e+01
   1.790279e+02   1.815166e+02
   5.788915e+01   2.695516e+02
  -1.166641e+02   1.651918e+02
  -1.272962e+02   1.502068e+01
  -7.557381e+01  -9.507516e+01
  -6.193656e+00  -4.244931e+01
  -5.303584e+01  -1.031603e+01
  -1.223307e+02   6.506815e+00
  -7.181667e+01  -4.792966e+01
   6.360265e+01  -1.116020e+02
   1.225816e+02  -5.058914e+01
   5.938959e+01   4.916561e+01
  -2.346186e+01   9.718206e+01
  -1.182925e+02   5.349609e+01
  -1.869193e+02  -1.131143e+02
  -1.279674e+02  -2.202727e+02
   9.700071e+01  -2.908689e+02
   2.314459e+02  -8.508063e+01
   2.968412e+02   6.630917e+01
   1.588363e+02   1.938013e+02
  -1.669700e+00   1.861810e+02
  -6.318634e+01   1.050315e+02
  -7.913278e+01   6.161304e+01
  -1.210755e+02   9.483680e+01
  -8.885353e+01   6.947337e+01
  -9.603411e+01   2.791914e+01
  -1.379619e+02  -1.885513e+02
   2.629273e+01  -2.691676e+02
   1.662058e+02  -1.692631e+02
   1.423514e+02  -2.366620e+01
   1.511541e+02   1.676354e+02
  -1.577273e+01   1.505219e+02
  -6.920821e+01   1.258834e+02
  -9.291455e+01  -1.536874e+01
  -2.484367e+01  -5.724156e+01
   2.664875e+00  -1.049889e+01
  -3.366399e+01  -2.827544e+01
  -5.719600e+01  -3.866529e+01
  -4.933327e+01   7.623909e-01
   7.661452e+01  -5.867423e+01
   1.246933e+02  -1.523583e+01
   1.474246e+02   6.811406e+01
   5.067383e+01   9.574323e+01
  -1.076330e+02   7.389038e+01
  -1.401755e+02  -4.035413e+00
  -3.354630e+01  -1.157271e+01
   7.223072e+01  -2.983444e+01
   1.116748e+02   2.402164e+01
  -5.914680e+00   5.195004e+01
  -7.767422e+01   8.888395e+01
  -2.209456e+01   7.032995e+00
  -1.014304e+02  -5.047981e+01
  -8.307628e+01  -3.652814e+01
  -8.078803e+01  -2.259612e+01
  -6.426042e+01  -2.651576e+01
  -2.788152e+01  -9.720343e+01
   7.894193e+01  -1.453776e+02
   1.727384e+02  -1.151000e+02
   1.364482e+02  -9.095136e+01
   1.649062e+02   8.260196e+01
   3.135545e+01   1.243620e+02
  -9.732735e+01   6.387001e+01
  -3.016091e+01   5.544089e-01
   2.340106e+01  -3.023258e+01
   1.619258e+02  -1.590185e+01
   5.262848e+01   7.281437e+01
  -5.140294e+01   1.529105e+02
  -2.177724e+02   3.621501e+01
  -1.800614e+02  -1.317009e+01
  -2.982469e+01  -1.048462e+02
   7.698286e+01  -7.701216e+01
   6.176266e+01  -2.137632e+00
  -4.687721e+01   2.417090e+01
  -6.608760e+01  -5.171325e+01
  -4.736397e+01  -1.240708e+02
   5.362694e+01  -1.387910e+02
   1.451863e+02  -7.606626e+01
   1.103016e+02   9.440948e+01
   1.925601e+01   2.061490e+02
  -1.293488e+02   1.359976e+02
  -1.011223e+02  -1.600041e+01
  -5.093880e+01  -1.139532e+02
   6.945985e+00  -9.882872e+01
   9.257880e+01  -3.538276e+01
   7.082190e+01   6.959544e+00
   3.662725e+01   3.010199e+01
   2.868976e+01  -1.173674e+01
   1.546357e+01   2.628473e+01
   8.602812e+01   4.233205e+01
   3.670806e+01   1.125908e+02
  -4.290081e+01   3.437930e+01
  -1.561448e+02  -6.843033e+01
  -1.229161e+02  -8.487195e+01
  -2.533658e+01  -6.969222e+01
   1.104755e+02  -5.670598e+01
   7.660961e+01  -1.642561e+01
   3.484967e+01  -5.533302e+00
  -5.889935e+01   1.124226e+01
  -1.942388e+01   2.721160e+01
   5.981063e+00   2.122079e+01
  -1.273189e+00   1.970869e+01
  -8.578541e+01  -1.519321e+01
  -1.023139e+02  -3.134753e+00
   1.515323e+00  -9.410521e+01
   1.248940e+02  -1.198393e+02
   2.001256e+02  -6.219322e+01
   1.462832e+02   4.542038e+01
  -4.014758e+00   1.605206e+02
  -6.246473e+01   1.750530e+02
  -9.381526e+01   8.881995e+01
  -8.857071e+01  -6.304207e+01
  -2.756218e+01  -1.218638e+01
   1.664738e+01  -2.260345e+01
  -3.273550e+01   2.482538e+01
  -5.593093e+01  -6.830092e+01
  -2.925195e+01  -1.135218e+02
   3.342515e+01  -7.764570e+01
   8.375860e+01   2.946450e+01
   8.991332e+01   1.504011e+02
  -4.262757e+01   1.287464e+02
  -8.703749e+01   5.113454e+01
  -9.542803e+01  -8.123428e+01
  -4.412045e+01  -7.086873e+01
   9.881898e+01  -1.079912e+02
   6.609247e+01   6.967373e+00
   1.046582e+01   2.115797e+01
  -2.859604e+01   7.987095e+01
  -9.122677e+01   1.564833e+01
   2.049828e+01  -1.808087e+01
   5.544730e+01   1.561299e+01
  -1.400418e+01   7.498986e+00
  -8.388751e+01   7.130011e+01
  -8.453880e+01   4.214176e+01
  -9.616594e+01  -4.405806e+01
   5.428922e+01  -8.322374e+01
   1.336516e+01  -7.152133e+01
   2.261518e+01  -3.753006e+00
   9.993701e+00   7.892978e+01
  -4.322488e+01  -3.195423e+01
  -7.453665e+01  -4.750776e+01
  -2.542913e+01  -2.648494e+01
   2.055321e+01  -5.071075e+01
   2.518752e+01   1.483339e+00
   8.881909e-01   3.903062e+01
   2.221528e+01  -4.290842e+00
   7.025781e+00  -3.627245e+01
  -3.897738e+01   2.732998e+01
  -9.435950e+00   4.241625e+01
  -2.995846e+01   5.880232e+01
  -4.120199e+01   6.859118e+00
  -9.841175e+00  -5.518030e+01
   2.347632e+01  -7.664433e+01
   4.773227e+01  -3.521716e+01
   7.022379e+01   5.606440e+01
  -1.756183e+01   2.837677e+01
  -2.870523e+01   5.719291e+00
  -1.201191e+02  -2.537503e+01
  -4.973450e+01  -1.115814e+01
  -2.277457e+01  -3.085699e+01
   6.631885e+01  -1.476579e+01
   1.482553e+01   1.525225e+01
  -1.727317e+01   6.795983e+00
  -5.664629e+01  -2.468487e+01
   5.434356e+01  -4.171373e+01
   1.021962e+02  -1.354105e+01
