
 $NMID
 id='ANONYMOUS ', fmtdat='(2E16.6)'
 volume=1.0
 tramp=1.0
 $END
   2.794439e+03  -1.280097e+02
   2.030441e+03   1.542083e+03
   3.570807e+02   1.816060e+03
  -1.338959e+03   8.825635e+02
  -8.457076e+02   1.644718e+02
  -2.073039e+01  -2.220902e+02
   4.679059e+02   4.040995e+01
   5.064264e+00   5.442074e+02
  -4.626627e+02   5.452729e+02
  -5.995447e+02   1.754121e+02
  -4.502616e+02  -4.450995e+02
  -2.294151e+01  -6.713824e+02
   3.074550e+02  -8.565366e+01
   3.294360e+02   4.210140e+02
  -8.033689e+00   4.206585e+02
  -3.888546e+02   6.275991e+01
  -2.658467e+02  -3.944182e+02
   1.265062e+02  -4.943829e+02
   4.292034e+02  -2.407980e+02
   4.109603e+02   1.867623e+02
   8.854162e+01   3.463325e+02
  -1.373218e+02   2.551788e+02
  -7.298152e+01   5.685350e+01
   1.673455e+02   9.957224e+01
   1.805446e+02   2.988837e+02
   4.700645e+00   3.514494e+02
  -4.657583e+02   2.063757e+02
  -5.476693e+02  -1.909952e+02
  -1.435074e+02  -2.988047e+02
   2.643840e+02  -1.981933e+02
   4.089560e+02   1.791013e+02
   1.728916e+02   2.699024e+02
  -2.588287e+02   4.218808e+02
  -3.634206e+02   1.228184e+02
  -2.394336e+02  -1.552236e+02
  -5.486136e+01  -2.611465e+02
   3.934005e+00  -1.261705e+02
  -4.232239e+01   8.316060e+01
  -2.053562e+02   2.165575e+02
  -2.335910e+02  -1.151507e+02
   2.911045e+01  -5.187930e+02
   2.746919e+02  -4.384840e+02
   2.473196e+02   2.074521e+01
   4.353337e+01   3.278583e+02
  -1.585724e+02   1.462975e+02
  -1.475809e+02  -2.451359e+02
  -1.427974e+01  -3.382640e+02
   3.193293e+02  -1.183625e+02
   4.583956e+02   4.059539e+02
   1.359366e+02   4.548591e+02
  -2.424161e+02   2.715454e+02
  -4.719945e+02  -1.089900e+02
  -3.197895e+02  -2.388492e+02
   2.215032e+01  -1.819417e+02
   2.825007e+02  -2.645291e+01
   2.249570e+02   1.123271e+02
   4.968095e+01   5.726465e+01
  -4.614034e+01   2.127849e+01
   1.093695e+02  -8.548383e+01
   2.549023e+02   2.456950e+01
   1.481905e+02   1.315959e+02
  -1.801435e+02   2.236491e+02
  -2.712639e+02   1.560335e+02
  -2.490855e+02  -1.597764e+02
   4.192007e+01  -3.185580e+02
   2.533045e+02  -3.672809e+02
   3.673253e+02  -1.870279e+02
   2.152926e+02   2.055770e+02
   7.556138e+01   3.545007e+02
  -4.824024e+01   2.850077e+02
  -3.509270e+01   1.468486e+02
  -4.954201e+01   1.104626e+02
  -1.205399e+02   8.684607e+01
  -2.252430e+02   5.458716e+01
  -2.140456e+02  -4.653458e+01
  -8.649093e+01  -2.288339e+02
   9.006735e+01  -1.621945e+02
   1.733985e+02   3.693455e+01
   1.260609e+02   2.506948e+02
  -6.684818e+01   1.840719e+02
  -1.859754e+02   5.461142e+01
  -3.029482e+02  -1.581472e+02
  -2.042601e+02  -3.293277e+02
   4.153545e+01  -2.420467e+02
   1.314819e+02  -2.090634e+02
   1.134416e+02  -8.335575e+01
   1.766544e+02  -6.988830e+01
   2.518980e+02   1.992866e+00
   4.348171e+02   1.903599e+02
   2.425508e+02   2.748163e+02
  -5.360532e+01   3.778054e+02
  -3.702471e+02   3.512401e+02
  -3.626346e+02   1.409160e+02
  -2.190303e+02  -1.386022e+02
  -1.550889e+00  -2.074291e+02
   7.188150e+01  -1.818692e+02
  -6.726006e+00  -4.723027e+01
  -7.912187e+01   4.135404e+00
  -1.100547e+02  -5.451034e+01
  -6.016085e+00  -1.085343e+02
   1.599533e+02  -6.927107e+01
   1.066445e+02   7.428338e+01
  -1.784747e+01   1.419926e+02
  -1.215087e+02  -6.569830e+00
  -1.402594e+02  -1.640712e+02
  -3.271960e+00  -3.411558e+02
   2.290688e+02  -1.614463e+02
   2.994261e+02   3.502251e+01
   2.408145e+02   2.203123e+02
   4.437545e+00   3.087406e+02
  -7.713933e+01   1.047967e+02
  -1.388709e+02   3.682704e-01
  -2.489441e+01  -4.126375e+01
   3.919248e+01   8.790227e+01
  -1.689088e+01   9.971875e+01
  -6.389437e+01   5.721352e+01
  -1.305827e+02   1.541664e+01
  -4.162174e+01  -3.020328e+01
   1.066598e+02   1.075127e+01
   1.635457e+00   7.111073e+01
  -1.285213e+02   1.086954e+02
  -2.537658e+02  -6.786905e+00
  -2.280424e+02  -2.224140e+02
  -5.428587e+01  -2.132957e+02
   1.759991e+02  -1.875909e+02
   2.921238e+02  -1.005785e+02
   1.585668e+02   4.877030e+01
  -5.114764e+01   7.760866e+01
  -5.202093e+01   7.915099e+00
   1.029953e+02  -5.315405e+01
   1.766815e+02  -9.368122e+01
   1.742160e+02   8.851567e+01
   9.886713e+01   1.643018e+02
  -8.074369e+01   7.546574e+01
  -1.241888e+02   4.935647e+01
  -8.173754e+00  -3.364668e+01
   7.498826e+01   4.955178e+00
   5.504159e+01   1.112548e+02
  -7.064397e+01   1.180425e+02
  -1.835784e+02   4.512191e+01
  -1.665913e+02  -1.483043e+02
  -2.915759e+01  -1.904803e+02
   1.590996e+02  -9.723372e+01
   1.596531e+02  -7.233183e+00
   5.262922e+01   7.530587e+01
  -8.854087e+01   1.065785e+02
  -6.113092e+01   5.729722e+01
   1.974007e+01  -4.026294e+01
   6.149003e+01  -1.254553e+01
   4.388617e+01  -1.902574e+01
  -5.445428e+01   1.959636e+01
  -8.785004e+01  -8.262150e+01
   1.471913e+01  -1.476398e+02
   1.409277e+02  -1.264108e+02
   2.222440e+02   2.137436e+01
   1.544634e+02   1.463218e+02
   4.448704e+01   1.953801e+02
  -1.288918e+02   1.574007e+02
  -6.373571e+01  -1.149763e+01
  -1.163582e+02  -3.381330e+01
  -2.393907e+01  -5.461609e+01
  -8.344361e+01   6.655634e+00
  -7.378304e+01   3.735043e+01
  -9.771859e+01  -7.075671e+01
   5.580481e+01  -5.355853e+01
   1.136968e+02  -8.221054e+01
   8.754292e+01   2.908290e+01
  -3.406285e+01   1.043796e+02
  -1.016877e+02   1.092375e+02
  -2.598360e+02  -2.476053e+01
  -6.096631e+01  -2.083718e+02
   1.181159e+02  -2.257801e+02
   2.563677e+02  -7.543492e+01
   2.183756e+02   1.001792e+02
   1.287015e+02   1.940025e+02
  -2.066050e+01   1.031544e+02
  -1.163819e+02   4.758832e+01
  -6.093420e+01   7.801379e+01
  -7.280683e+01   1.238543e+02
  -8.994249e+01   9.664653e+01
  -1.505414e+02  -2.301761e+01
  -1.643869e+02  -1.548461e+02
   4.209948e+01  -1.900755e+02
   1.177023e+02  -1.584975e+02
   1.344960e+02  -1.778028e+01
   1.256777e+02   1.332988e+02
  -1.132238e+01   1.499559e+02
  -7.312459e+01   6.076818e+01
  -5.212937e+01  -5.507986e+00
  -1.065651e+00  -5.357034e+01
   6.141165e+01  -3.365069e+01
  -5.741414e+00  -1.569682e+01
  -8.236267e+01   8.105364e+00
  -3.097981e+00  -6.791044e+01
   9.427706e+01  -3.651461e+01
   1.298162e+02  -3.276554e+00
   1.597588e+02   5.467342e+01
   2.128912e+01   7.679316e+01
  -9.925439e+01   9.521932e+01
  -1.463973e+02   4.241180e+01
  -2.990918e+01  -6.347785e+01
   6.706470e+01  -5.132826e+01
   1.004457e+02   6.713887e+00
   4.336020e+01   7.970732e+01
  -6.560178e+01   7.487200e+01
  -8.128796e+01   3.148695e+01
  -4.801860e+01  -2.457547e+01
  -4.534075e+01  -7.556505e+01
  -3.422609e+01   2.231286e+01
  -5.671205e+01   2.928425e+00
  -4.693038e+01  -5.585304e+01
   5.291517e+01  -1.615703e+02
   1.674435e+02  -9.967755e+01
   1.839331e+02  -4.762317e+01
   1.312876e+02   1.019089e+02
   4.526967e+01   1.237415e+02
  -8.631766e+01   6.474675e+01
  -3.370523e+01  -2.574895e+01
   3.236863e+01  -3.144408e+01
   1.053258e+02   3.807783e+01
   5.521419e+01   1.125694e+02
  -1.211325e+02   7.483812e+01
  -1.390271e+02   9.480716e+00
  -9.985528e+01  -3.273686e+01
  -5.600686e+00  -9.445005e+01
   5.289383e+01  -6.165567e+01
   7.570558e+01   4.476330e+00
  -5.568209e+01   2.063147e+01
  -9.428036e+01  -3.566176e+01
  -2.906553e+01  -1.218181e+02
   7.433400e+01  -1.427031e+02
   1.890784e+02  -5.603657e+01
   1.238481e+02   5.648782e+01
   5.047364e+01   2.167326e+02
  -8.363758e+01   1.237329e+02
  -1.057639e+02  -2.401518e+00
  -6.605796e+01  -9.123660e+01
  -4.967526e+00  -8.724946e+01
   4.694359e+01  -4.082349e+01
   1.542298e+01   5.638592e+01
   3.680690e+01  -3.591315e+01
  -4.810147e+00  -2.870857e+01
   4.541804e+01   6.134992e+00
   5.951642e+01   6.659393e+01
   5.166719e+01   9.149364e+01
  -9.963005e+01   2.750481e+01
  -1.244686e+02  -1.988610e+01
  -1.167414e+02  -8.619634e+01
  -3.875122e+01  -1.556562e+01
   7.803256e+01  -3.834719e+01
   5.597470e+01  -2.057806e+01
   2.446634e+01   4.843271e+01
  -5.301257e+01  -9.402872e+00
  -4.920533e+01   3.148903e+01
   1.088278e+01   2.919535e+01
  -3.548011e+00  -5.518922e-02
  -2.085427e+01   1.905410e+01
  -8.056168e+01  -6.810054e+00
  -3.749740e+00  -7.242838e+01
   8.030312e+01  -1.113826e+02
   1.688802e+02  -3.110986e+01
   1.480986e+02   7.282825e+01
   2.622985e+01   1.810964e+02
  -7.357698e+01   1.116334e+02
  -7.396323e+01   8.834983e+01
  -1.065550e+02  -4.398105e+01
  -2.597771e+01  -3.384802e+01
  -1.079573e+01  -3.765015e+01
   6.208071e+00  -3.168188e+01
   1.558055e+00  -8.554842e+01
  -5.578699e+01  -7.727316e+01
   2.670208e+01  -6.724966e+01
   8.425108e+01  -8.223610e+00
   6.709220e+01   9.282184e+01
   1.114986e+01   1.337200e+02
  -3.919417e+01  -6.496893e+00
  -1.171112e+02  -7.457534e+01
  -6.002139e+01  -1.416463e+02
   9.172156e+01  -5.714679e+01
   7.442211e+01  -6.943811e+00
   4.186792e+01   3.674563e+01
  -4.222843e+01   7.128049e+01
  -2.812980e+01  -5.243780e+00
   1.517005e+01  -8.390413e+00
   8.401452e+01  -3.348956e+01
   3.892338e+01   2.510095e+01
  -1.124884e+02   9.382512e+01
  -1.153715e+02   5.751942e+01
  -9.244452e+01  -5.161941e+00
  -1.260545e+01  -1.001919e+02
   8.362191e+01  -6.090132e+01
   2.670072e+01  -4.349646e+00
  -2.349508e+00   4.312919e+01
  -4.565021e+01   4.916317e+01
  -5.722109e+01  -2.380403e+01
  -2.733534e+01   2.039208e+01
   3.992804e+01  -2.079589e+01
  -5.695942e+00   1.991469e-01
   6.182962e+01   2.293544e+01
   2.190408e+01  -3.780983e+01
  -4.797863e+00  -2.979636e+01
   1.976757e+01  -3.813540e+01
   4.557685e+01   2.682008e+01
  -3.430785e+01   7.134759e+01
  -3.955800e+01   3.329406e+01
  -6.296137e+01  -3.069575e+01
  -4.101945e+00  -8.514135e+01
   4.453962e+01  -4.524388e+01
   7.266893e+01   1.367504e+01
   5.537452e+01   9.772526e+01
  -2.482135e+01   4.311324e+01
  -8.416165e+01  -1.527441e+01
  -9.013678e+01  -3.246262e+01
   3.649253e+01  -5.473338e+01
   9.329115e+01  -3.111568e+01
   3.137672e+01  -7.115227e-01
  -1.611589e+01  -1.683990e+01
  -3.793981e+01   8.498292e+00
   6.296295e+01  -3.227577e+01
   6.348936e+01   3.286939e+00
