
 $NMID
 id='ANONYMOUS ', fmtdat='(2E16.6)'
 volume=1.0
 tramp=1.0
 $END
  -2.738037e+03   6.903923e+01
  -1.935219e+03  -1.412764e+03
  -1.429436e+02  -1.898549e+03
   1.248189e+03  -1.084977e+03
   7.104314e+02  -1.778280e+02
   6.313112e+01   3.080760e+02
  -5.270115e+02  -5.796404e+01
   6.453791e+00  -4.107600e+02
   4.138298e+02  -5.107675e+02
   5.689301e+02  -2.544075e+02
   5.129213e+02   4.843042e+02
   8.217747e+01   6.486377e+02
  -3.505557e+02   1.396620e+02
  -3.825276e+02  -4.337602e+02
  -1.225256e+01  -5.346996e+02
   3.654015e+02   1.118981e+01
   2.718781e+02   3.921475e+02
  -6.598328e+01   4.854010e+02
  -4.696924e+02   2.745779e+02
  -4.673950e+02  -1.987908e+02
  -1.104465e+02  -3.017372e+02
   1.834913e+02  -2.306616e+02
   2.233416e+01  -4.383337e+01
  -1.658293e+02  -1.304368e+02
  -1.783199e+02  -2.553304e+02
   6.355493e+00  -2.964165e+02
   4.658789e+02  -2.009479e+02
   5.161541e+02   1.839580e+02
   1.829009e+02   3.721774e+02
  -3.864865e+02   1.661965e+02
  -3.649949e+02  -1.953998e+02
  -2.391054e+02  -2.579665e+02
   3.179516e+02  -3.439047e+02
   3.730461e+02  -1.757598e+02
   3.246885e+02   1.010670e+02
   1.015781e+02   2.590949e+02
  -3.504360e+01   1.943483e+02
   6.028661e+01  -1.035368e+02
   2.068323e+02  -2.086315e+02
   1.362485e+02   1.064871e+02
  -7.362762e+01   4.574648e+02
  -1.849907e+02   4.019939e+02
  -2.794380e+02   1.764843e+01
  -1.075959e+02  -3.113869e+02
   1.330891e+02  -1.202216e+02
   1.572343e+02   2.385997e+02
   1.200661e+01   3.902104e+02
  -3.629437e+02   6.704755e+01
  -4.197425e+02  -3.334286e+02
  -1.621807e+02  -4.180909e+02
   2.628629e+02  -2.437396e+02
   4.367876e+02  -5.333763e+00
   3.734981e+02   2.434095e+02
  -4.800558e+01   2.707330e+02
  -3.252967e+02   4.224621e+01
  -2.077361e+02  -1.116588e+01
  -6.957923e+01  -1.676505e+01
   6.154908e+01  -3.247329e+01
  -7.457914e+01   9.734494e+01
  -2.343237e+02  -4.477601e+01
  -1.303625e+02  -2.054266e+02
   1.654218e+02  -1.731485e+02
   3.262593e+02  -1.498548e+02
   2.137333e+02   1.237475e+02
  -4.431969e+01   2.497833e+02
  -2.499990e+02   3.034669e+02
  -3.619108e+02   1.624548e+02
  -2.519524e+02  -1.753276e+02
  -9.343804e+01  -3.242555e+02
   5.010930e+01  -3.053103e+02
   2.334435e+01  -1.707888e+02
   5.284700e+01  -1.292906e+02
   1.449725e+02  -1.088623e+02
   2.084767e+02  -2.047716e+01
   2.330423e+02   5.582368e+01
   9.602848e+01   2.060958e+02
  -7.514458e+01   1.640594e+02
  -1.920041e+02  -8.136475e+01
  -1.167371e+02  -2.141215e+02
  -1.387461e+01  -2.060926e+02
   2.132401e+02  -6.536202e-01
   2.777984e+02   2.027019e+02
   2.078339e+02   3.261495e+02
  -5.923373e+01   3.081912e+02
  -1.491965e+02   1.397268e+02
  -1.413961e+02   8.277736e+01
  -1.336544e+02   3.942074e+01
  -2.576948e+02   1.520803e+01
  -3.800612e+02  -1.346832e+02
  -3.033827e+02  -2.981413e+02
   9.715839e+00  -3.581341e+02
   3.908604e+02  -3.699663e+02
   4.056433e+02  -1.265704e+02
   1.921020e+02   1.110183e+02
  -8.173958e+00   2.128237e+02
  -6.810876e+01   2.166617e+02
  -2.605079e+01   1.982502e+01
   6.604140e+01  -5.953889e+01
   9.263137e+01   3.608202e+01
   5.387943e+01   1.328261e+02
  -1.422604e+02   6.219548e+01
  -9.014949e+01  -3.392717e+01
   2.998690e+01  -1.690195e+02
   1.502074e+02  -2.631668e+01
   1.125475e+02   2.514339e+02
  -3.304369e+01   3.171715e+02
  -2.389303e+02   2.050279e+02
  -3.212168e+02  -8.456687e+01
  -2.020459e+02  -2.141548e+02
  -2.637837e+01  -2.401446e+02
   1.018731e+02  -1.344311e+02
   1.546586e+02   1.770948e+00
   4.825529e+01   4.430579e+01
  -3.695588e+01  -5.807556e+01
   3.531500e+01  -9.921815e+01
   1.146534e+02  -4.667422e+01
   1.134191e+02   3.131618e+01
   2.437706e+01   2.317620e+01
  -5.756686e+01  -2.329346e+01
  -1.044521e+01  -9.634272e+01
   1.695090e+02  -6.830203e+01
   2.483804e+02   5.284192e+01
   2.959858e+02   1.597747e+02
   2.950766e+01   2.212723e+02
  -2.021694e+02   2.157894e+02
  -2.531329e+02   5.885002e+01
  -1.378505e+02  -3.389650e+01
   3.953657e+01  -7.344697e+01
   4.162057e+01   5.664077e+01
  -3.560869e+01   4.637445e+01
  -1.534724e+02   2.948844e+01
  -1.727834e+02  -9.694084e+01
  -5.535142e+01  -1.845568e+02
   8.499808e+01  -1.356031e+02
   7.712939e+01  -1.810977e+01
   5.567684e+01  -1.246587e+00
  -9.060863e+01  -1.900553e+01
  -7.856822e+01  -9.632889e+01
   5.666141e+01  -1.205252e+02
   2.594963e+02  -1.119357e+01
   1.608322e+02   1.447053e+02
   2.457753e+00   1.702092e+02
  -1.359569e+02   1.609361e+02
  -2.014418e+02   4.219006e+01
  -5.709137e+01  -9.501880e+01
   5.006164e+01  -1.042159e+02
   6.819653e+01  -6.734672e-01
   5.496241e+00   2.171303e+01
  -3.967694e+00   4.565755e+01
   3.727525e+01  -4.481999e+01
   1.009697e+02  -2.112653e+01
   1.139719e+02   8.339010e+01
  -2.760352e+01   1.724665e+02
  -1.444711e+02   1.249247e+02
  -2.157984e+02   1.859541e+01
  -2.142965e+02  -1.845833e+02
   9.425876e+00  -2.017232e+02
   1.222221e+02  -1.042073e+02
   9.631560e+01  -3.374486e+01
   3.897350e+01   1.182436e+01
   4.358877e+01   3.961773e+01
   3.900934e+01  -2.817010e+01
   8.399697e+01   3.523792e+01
   5.070874e+01   5.156532e+01
  -1.749703e+01   5.468813e+01
  -9.865405e+01   7.711364e+01
  -8.813585e+01  -4.519839e+01
  -7.851265e+00  -1.111969e+02
   1.367394e+02  -8.204051e+01
   1.835977e+02   8.523264e+01
   6.427520e+01   2.342521e+02
  -1.398636e+02   1.276675e+02
  -2.567426e+02   5.086075e+01
  -2.352468e+02  -8.792247e+01
  -7.830855e+01  -1.593168e+02
  -1.837469e+01  -1.503713e+02
   8.516270e+01  -7.750046e+01
   4.974812e+01  -7.677118e+01
   5.689089e+01  -1.002956e+02
   1.032896e+02  -7.919954e+01
   1.872711e+02  -2.375998e+00
   1.018227e+02   1.894481e+02
  -8.656423e+00   1.957818e+02
  -9.110531e+01   1.484598e+02
  -2.036476e+02  -1.858826e+01
  -1.205239e+02  -1.195575e+02
   5.257607e+00  -1.877887e+02
   7.272484e+01  -5.800494e+01
   1.013626e+02   1.810941e+01
   1.124712e+01   6.370720e+01
  -2.526527e+01   4.778317e+01
   2.338665e+01   4.718777e+01
   6.713289e+01   7.612190e+01
   4.589317e+01   4.729866e+01
  -5.710149e+01   4.541900e+01
  -1.672022e+02   2.094876e+00
  -1.127932e+02  -5.793771e+01
   3.616641e+01  -6.602579e+01
   1.268836e+02  -3.117221e+01
   1.570999e+02  -3.748098e+01
   4.315192e+01   7.300848e+01
  -1.033187e+02   9.164471e+01
  -7.916313e+01  -1.688047e+01
  -3.534884e+01  -7.076514e+01
   3.955709e+01  -7.389493e+01
   7.125508e+01   7.222286e+00
   5.211943e+01   1.859473e+01
   3.015725e+01   5.294109e+01
   6.764792e+01  -1.338052e+01
   6.832464e+01   1.523851e+01
   2.916182e+01   7.287663e+01
  -3.919317e+01   1.893290e+02
  -1.404180e+02   1.317238e+02
  -2.246960e+02   4.539277e+01
  -1.494024e+02  -5.983612e+01
   2.569198e+00  -1.313818e+02
   9.680703e+01  -5.257279e+01
   9.267497e+01   8.430470e+00
  -3.279667e+01   4.540158e+00
  -1.211669e+02  -4.124271e+01
  -2.799170e+01  -9.542126e+01
   6.909094e+01  -1.056524e+02
   1.837621e+02  -5.047354e+01
   1.155485e+02   3.356566e+01
  -1.142322e+01   1.256904e+02
  -1.228275e+02   5.246815e+01
  -3.253694e+01   1.203568e+01
   1.920424e+01  -3.287281e+01
   7.219572e+01   4.808996e+01
   2.744278e+01   1.340114e+02
  -4.922304e+01   1.210217e+02
  -1.788926e+02   7.299898e+01
  -1.317173e+02  -5.574474e+01
  -2.292309e+00  -2.377190e+02
   4.245666e+01  -1.476150e+02
   1.072583e+02   6.862556e-01
   6.715141e+01   1.144513e+02
   3.847163e+01   1.101710e+02
  -6.656348e+01   6.022675e+00
  -2.726990e+01  -1.373801e+01
   1.780472e+01   4.460132e+00
  -8.835466e+00   1.220658e+01
  -2.615013e+01  -3.639573e+01
  -2.501617e+01  -5.880205e+01
  -3.502565e+01  -1.103503e+02
   7.024237e+01  -3.328465e+01
   1.572812e+02   1.882830e+01
   9.305273e+01   7.218280e+01
   4.427492e+01   5.642609e+00
  -4.781657e+01   7.119776e+01
  -6.762732e+01   1.201795e+01
  -1.597621e+00   6.419585e+00
   8.625324e+01  -8.014308e+00
  -2.485919e+01   2.775413e+00
  -2.111637e+01   1.388992e+01
   1.424517e+01  -9.894669e+00
   5.076561e+01   1.580543e+01
   1.004034e+02   6.098130e+01
   5.357335e+00   8.625213e+01
  -1.111699e+02   1.474757e+02
  -1.755734e+02   6.517555e+01
  -1.369978e+02  -8.778115e+01
   2.207174e+00  -1.583845e+02
   6.018173e+01  -7.705766e+01
   1.204748e+02  -6.151723e+01
   9.373004e+01   7.384377e+00
   7.925934e+00   4.553669e+01
   2.419142e+01  -4.381262e-01
  -8.405757e+00   1.223324e+01
   4.321581e+01   5.103172e+01
   3.207620e+01   1.001791e+02
   4.605562e-01   9.244776e+01
  -9.437719e+01  -2.119061e+01
  -9.715463e+01  -9.158586e+01
  -5.915356e+01  -1.260283e+02
   6.140642e+01  -6.668327e+01
   1.202025e+02   7.396470e+01
   3.207121e+01   9.719492e+01
  -8.611967e+01   7.311087e+01
  -8.649464e+01   3.573801e+01
  -6.146870e+01  -5.617488e+01
   7.957889e+01  -7.076035e+01
   5.938988e+01  -1.737666e+01
  -4.487485e+01  -1.409968e+01
  -1.122757e+02   1.122885e+00
   1.124653e+01  -3.131620e+01
   8.301745e+01  -4.241076e+01
   1.195196e+02  -2.306212e+01
   5.532178e+01   2.505029e+00
  -4.687612e+01   1.074359e+02
  -5.753398e+01   6.244612e+01
  -7.310486e+01   3.726221e-03
  -1.795678e+00  -6.494542e+01
   1.379870e+01  -6.611908e+01
   2.436652e+01  -1.325762e+01
   3.698067e+01   5.729167e+01
  -2.310941e+00   8.827868e+00
  -2.439120e+01  -5.759336e+00
  -4.553052e+01  -6.507956e+01
  -5.714297e-01  -2.188544e+01
  -6.965235e+00   6.890711e+01
   3.191185e+00   1.153162e+01
  -1.337588e+01  -5.477563e+01
   1.596432e+01  -5.156843e+01
   4.292309e+01  -9.224154e+00
   1.279167e+01   4.876942e+01
   1.993030e+00   6.907743e+01
  -8.672605e+01   3.056092e+01
  -8.036005e+01  -2.213946e+01
  -1.197871e+01  -9.099061e+01
   3.448966e+01  -1.911562e+01
   1.036340e+02  -3.103690e+01
   4.501056e+01   3.810939e+01
  -4.949163e+01   7.100252e+01
  -6.239590e+01   1.316103e+01
  -8.569414e+00   2.667932e+01
   8.718780e+00   1.955116e+01
   8.185409e+01  -4.055291e+01
  -4.047595e+01   2.030170e+01
  -8.799696e+01   2.995641e+00
