
 $NMID
 id='ANONYMOUS ', fmtdat='(2E16.6)'
 volume=1.0
 tramp=1.0
 $END
   3.494845e+03  -9.570035e+01
   1.657525e+03   1.522591e+03
  -3.168364e+02   2.029212e+03
  -1.176126e+03   9.181322e+02
  -9.146534e+02   2.139761e+01
   2.334954e+02  -3.930017e+02
   6.620726e+02   2.315696e+02
  -2.319663e+01   6.717215e+02
  -4.934539e+02   5.101504e+02
  -5.956184e+02  -7.021726e+00
  -3.926564e+02  -5.743410e+02
   9.213024e+01  -7.336032e+02
   3.773388e+02  -1.853917e+02
   3.554368e+02   5.076041e+02
  -1.597877e+02   6.542989e+02
  -4.673775e+02   3.651149e+01
  -2.413823e+02  -5.174345e+02
   9.922785e+01  -5.846644e+02
   4.367187e+02  -1.608370e+02
   4.168193e+02   2.011543e+02
   2.371955e+01   3.250931e+02
  -1.335690e+02   2.020759e+02
  -1.393489e+02   6.311383e+01
   1.273661e+02  -1.001027e+01
   3.469132e+02   2.006113e+02
   1.190628e+01   3.698130e+02
  -4.083569e+02   2.495222e+02
  -5.698950e+02  -6.823851e+01
  -3.462442e+02  -3.926408e+02
   2.744092e+02  -2.870700e+02
   4.727643e+02   1.618525e+02
   2.368446e+02   4.054939e+02
  -2.708585e+02   3.519512e+02
  -4.913506e+02   1.800456e+02
  -2.877286e+02  -2.059404e+02
  -9.387923e+01  -3.454036e+02
   7.526976e+01  -1.904086e+02
   4.736880e+01   7.936398e+01
  -1.407997e+02   2.216302e+02
  -2.853422e+02  -8.504890e+01
  -4.982287e+01  -5.713034e+02
   1.864352e+02  -5.081990e+02
   3.832258e+02   1.581424e+01
   5.048701e+01   4.256606e+02
  -2.475999e+02   1.432472e+02
  -2.937605e+02  -2.361586e+02
   8.369234e+01  -3.742300e+02
   3.757481e+02  -7.067992e+01
   4.378642e+02   4.092161e+02
   8.830485e+01   4.190995e+02
  -2.689964e+02   2.155841e+02
  -5.203517e+02  -5.994605e+01
  -4.060193e+02  -2.838649e+02
   6.974656e+01  -2.942021e+02
   2.999023e+02  -4.382616e+01
   1.700570e+02   5.833147e+01
  -4.954930e+01  -1.813176e+01
  -8.733810e+01  -7.435482e+01
   8.382973e+01  -7.377295e+01
   1.800587e+02   5.765069e+01
   1.042397e+02   2.040700e+02
  -1.671906e+02   2.736737e+02
  -2.113884e+02   7.516881e+01
  -2.249594e+02  -1.006201e+02
  -1.115052e+01  -2.658772e+02
   1.655182e+02  -2.279399e+02
   3.198221e+02  -1.439376e+02
   2.134742e+02   1.438923e+02
   6.360505e+01   3.709772e+02
  -3.409885e+01   3.257662e+02
  -1.121919e+02   1.172809e+02
  -1.706999e+01   1.144322e+01
  -7.587993e+01   4.299729e+01
  -1.487939e+02   8.475600e+01
  -2.210151e+02  -1.248774e+02
  -9.045829e+01  -2.530091e+02
   5.339997e+01  -2.046725e+02
   2.009062e+02   1.355539e-01
   1.596084e+02   1.518318e+02
  -1.034297e+01   1.994166e+02
  -1.427759e+02   5.396661e+01
  -3.382732e+02  -9.216387e+01
  -1.361728e+02  -2.893114e+02
   6.424229e+01  -2.798667e+02
   2.102998e+02  -1.437095e+02
   1.537808e+02  -6.224443e+01
   1.129209e+02  -3.684677e+01
   2.306040e+02  -4.605887e+01
   3.763526e+02   9.199876e+01
   2.317618e+02   3.224277e+02
   9.584631e+01   3.716687e+02
  -3.500902e+02   3.850122e+02
  -4.212333e+02   1.969558e+02
  -2.257161e+02  -1.232499e+02
  -4.577489e+01  -2.275059e+02
   9.201513e+01  -1.813599e+02
   5.762033e+01  -2.339627e+01
  -1.116655e+02   4.540897e+01
  -1.274179e+02   1.342519e+01
  -7.309070e+01  -1.342051e+02
   1.548000e+02  -7.899804e+01
   1.206070e+02   6.566956e+01
   1.680594e+01   1.169340e+02
  -1.162306e+02   4.362850e+01
  -1.170517e+02  -1.692400e+02
   1.608464e+01  -3.070766e+02
   1.970936e+02  -2.030187e+02
   3.243817e+02   4.181380e+01
   2.854632e+02   2.081341e+02
   4.163748e+01   2.498718e+02
  -1.268399e+02   1.303362e+02
  -1.163920e+02   3.122378e+01
  -3.712387e+01   2.691973e+01
   5.229552e+01   3.030233e+01
   1.662871e+01   7.056105e+01
  -1.264875e+02   8.039798e+01
  -1.500846e+02  -5.068095e+01
  -3.004528e+01  -5.693726e+01
   1.014835e+02  -2.159579e+01
   9.102979e+01   4.375811e+01
  -1.155360e+02   9.388130e+01
  -2.302353e+02   6.634072e+01
  -2.134648e+02  -1.739261e+02
  -5.095103e+01  -2.446647e+02
   1.447146e+02  -2.269246e+02
   2.815723e+02  -8.856553e+01
   1.126450e+02   2.263904e+01
  -3.366818e+01   1.071984e+02
  -8.533308e+01  -2.268122e+01
   1.759794e+01  -6.948873e+01
   1.771815e+02  -7.326892e+01
   1.629482e+02   1.122964e+02
   7.514631e+01   1.674570e+02
  -7.985859e+01   1.428914e+02
  -1.060596e+02   4.809254e+01
  -1.374888e+01  -4.766174e+01
   3.427088e+01  -1.719095e+00
   1.848002e+01   6.683401e+01
  -3.713083e+01   9.993205e+01
  -1.662599e+02   1.284394e+01
  -1.630449e+02  -1.132609e+02
  -6.929131e+01  -2.208826e+02
   1.190762e+02  -1.753238e+02
   1.402562e+02   1.159476e+01
   4.838682e+01   1.112433e+02
  -5.617585e+01   5.226295e+01
  -7.211102e+01   3.049492e+01
   6.734132e+00  -4.336597e+01
   2.233968e+01  -4.107295e+01
   5.870586e+00  -9.628178e+00
  -1.011686e+02   1.997629e+01
  -7.603818e+01  -9.054032e+01
   2.978588e+01  -2.041178e+02
   1.231034e+02  -1.534114e+02
   2.231119e+02   7.274478e+01
   1.786595e+02   9.846850e+01
  -2.096850e+01   1.938235e+02
  -1.124430e+02   1.107931e+02
  -1.056455e+02   3.336221e+01
  -3.399853e+01  -6.408590e+01
  -7.079318e+00  -4.694037e+01
  -6.139451e+01   9.134904e+00
  -8.084476e+01  -1.014037e+01
  -5.070062e+01  -4.062040e+01
   7.038403e+01  -9.573119e+01
   1.197453e+02  -1.637292e+01
   1.124200e+02   9.434814e+01
  -1.130029e+01   9.297639e+01
  -5.928462e+01   6.066927e+01
  -1.308444e+02  -6.052622e+01
  -7.502123e+01  -2.044911e+02
   7.383200e+01  -1.466435e+02
   2.651741e+02  -1.043490e+02
   2.119651e+02   5.236966e+01
   7.971759e+01   1.840220e+02
  -5.199519e+01   1.253160e+02
  -3.506488e+01   8.834054e+01
  -6.257103e+01   6.170097e+01
  -6.649798e+01   4.980920e+01
  -3.367260e+01   7.871382e+01
  -1.499548e+02  -1.426036e+01
  -4.962055e+01  -9.016233e+01
  -8.248792e+00  -2.175104e+02
   9.779070e+01  -1.910509e+02
   1.932339e+02   1.290918e+01
   8.582566e+01   9.805596e+01
  -2.424409e+01   1.712005e+02
  -8.120161e+01   8.309501e+01
  -5.299674e+01   3.353785e+01
   7.031010e+00  -6.651453e+00
   3.009456e+01  -5.382165e+01
  -3.301348e+01  -2.508494e+01
  -5.431440e+01   1.282136e+01
  -6.044943e+01  -1.929912e+01
   5.200269e+01  -1.554764e+01
   1.991655e+02  -2.325011e+01
   1.474160e+02   4.479938e+01
   2.085428e+01   5.439038e+01
  -7.285221e+01   6.849801e+01
  -1.446520e+02  -4.498757e+00
  -1.057752e+01  -3.046996e+01
   4.289330e+01  -5.153941e+01
   1.187123e+02   3.912376e+01
  -7.645988e+00   5.703901e+01
  -1.003180e+01   4.321943e+01
  -6.741164e+01   1.565677e+01
  -9.205099e+01  -4.349502e+01
  -1.926317e+01  -4.190304e+01
  -7.665201e+01  -2.586813e+01
  -4.497939e+01  -9.114991e+00
  -6.599276e+01  -1.161219e+02
   2.711706e+01  -1.481748e+02
   1.185401e+02  -1.243114e+02
   1.687665e+02  -2.670925e+01
   4.318684e+01   7.769311e+01
   2.806479e+01   8.065272e+01
  -8.892943e+01   5.273946e+01
  -1.908394e+01  -1.378310e+01
   5.067078e+01  -4.944277e+00
   9.293260e+01  -1.399721e+01
   1.101974e+02   1.022585e+02
  -4.361288e+01   1.000646e+02
  -1.464141e+02   1.189454e+02
  -1.070055e+02  -1.960285e+01
  -5.188391e+01  -9.860064e+01
   6.015122e+01  -3.543123e+01
   4.560773e+01  -1.204328e-02
  -1.807191e+01   2.840471e+01
  -9.290208e+01  -4.851336e+01
  -2.619986e+01  -1.171013e+02
   7.017024e+01  -9.913249e+01
   1.669987e+02  -6.210343e+01
   1.347886e+02   6.776754e+01
  -1.035506e+01   1.662589e+02
  -1.256120e+02   1.616946e+02
  -1.063475e+02  -1.237781e+01
  -2.221472e+01  -8.071985e+01
  -3.186984e+01  -9.338845e+01
   5.156666e+01   5.332506e+00
   5.500218e+01   1.274981e+01
   9.200653e+00  -1.415145e-01
  -1.583978e+01   1.333883e+00
   4.864384e+01   3.928761e+01
   3.052197e+01   1.195802e+02
   3.271577e+01   9.274735e+01
  -3.678271e+01   7.010322e+01
  -1.804557e+02  -4.033366e+01
  -1.432309e+02  -6.387338e+00
  -2.287411e+01  -5.838169e+01
   8.395995e+01  -8.581866e+00
   5.439382e+01  -2.011771e+01
  -8.409480e+00   1.760611e+01
  -6.202520e+01   5.006258e+01
  -4.458349e+01  -4.500285e+01
   2.602097e+01   8.759822e+00
   2.224870e+00   2.585082e+01
  -3.167777e+01  -2.130460e+01
  -9.597670e+01  -3.182050e+01
  -1.906785e+01  -5.464070e+01
   1.104443e+02  -1.221798e+02
   1.741469e+02  -1.012849e+02
   1.177573e+02   7.316922e+01
   7.297077e+01   1.770023e+02
  -6.529379e+01   1.903830e+02
  -7.841970e+01   8.485344e+01
  -5.874266e+01  -1.274706e+01
  -2.873649e+01  -4.056529e+00
   3.829744e+00   3.107441e+01
   1.130473e+01  -9.210351e+00
  -4.292688e+01  -3.266224e+01
  -4.444464e+01  -7.242842e+01
   3.731326e+01  -5.931452e+01
   6.263322e+01  -1.611505e+01
   4.893292e+01   7.815947e+01
   7.060863e+00   1.070417e+02
  -6.296104e+01   2.232663e+01
  -8.694004e+01  -4.269008e+01
  -9.044650e+01  -4.120878e+01
   2.557064e+01  -3.335240e+01
   7.918901e+01  -3.409041e+00
   3.572071e+01   6.559856e+01
  -1.885919e+01   7.076749e+01
  -6.220160e+01   1.647556e+01
   6.189793e+01   1.435441e+01
   3.517827e+01  -1.097201e+01
   3.429413e+00  -1.258231e+00
  -4.995210e+01   5.278477e+01
  -1.239614e+02   4.405378e+01
  -5.632488e+01   5.211765e+01
   5.697028e+01  -4.745990e+01
   4.420053e+01  -1.170518e+02
   3.093358e+01   3.877758e+00
   2.240793e+01   7.223999e+01
  -4.138975e+01   8.369649e+01
  -3.674371e+01   9.792066e-01
  -1.289878e+01  -1.236535e+01
   1.721500e+01  -5.941626e+01
   2.779924e+01   7.297841e+00
   2.801474e+01   3.265825e+01
   1.169859e+01   4.791895e+00
  -1.202249e+01  -6.384035e+01
   1.812363e+01   1.473914e+01
  -9.867652e+00   2.592689e+01
  -2.089246e+01   6.273516e+01
  -1.886757e+00   1.389416e+01
  -1.134019e+01  -2.683370e+01
  -2.187926e+01  -7.895969e+01
   4.654573e+00  -9.188683e+00
   3.810792e+01   1.204376e+01
   2.925463e+01   5.443083e+01
  -4.717305e+01   5.523984e+01
  -8.109066e+01   4.345746e+00
  -2.973628e+01  -3.926386e+01
   2.920179e+01  -2.117091e+01
   8.589664e+01  -4.637607e+01
   1.780332e+01   2.146426e+01
  -1.745139e+01   1.811277e+01
  -4.104159e+01   6.572647e+01
   1.006403e+01  -5.716487e+01
   6.545342e+01  -3.758824e+01
