
 $NMID
 id='ANONYMOUS ', fmtdat='(2E16.6)'
 volume=1.0
 tramp=1.0
 $END
  -2.280472e+03   1.050149e+01
  -1.669519e+03  -1.419874e+03
   3.273212e+02  -1.535778e+03
   1.035420e+03  -4.974071e+02
   6.954154e+02   4.765349e+02
  -5.745588e+02   4.750228e+02
  -8.152561e+02  -4.159066e+02
  -5.612449e+01  -6.771896e+02
   4.220154e+02  -5.238977e+02
   6.057318e+02  -1.372833e+01
   2.112691e+02   5.459181e+02
  -2.605332e+02   5.986200e+02
  -4.111372e+02   7.850578e+01
  -2.827165e+02  -4.412671e+02
   3.843346e+01  -5.231305e+02
   4.205416e+02   3.585245e+01
   1.689873e+02   3.712546e+02
  -2.540138e+02   2.990438e+02
  -3.111013e+02  -1.161455e+01
  -2.563979e+02  -1.342196e+02
  -1.452589e+01  -3.014798e+02
   1.909448e+02  -2.118605e+02
   1.545918e+02  -2.542314e+01
  -8.571932e+01   8.229234e+01
  -2.851369e+02  -3.554622e+01
  -2.223790e+02  -3.321921e+02
   2.371325e+02  -3.508180e+02
   4.796746e+02   6.324798e+00
   2.491458e+02   2.087573e+02
  -7.284545e+01   3.379293e+02
  -4.496097e+02   6.053323e+01
  -2.981133e+02  -2.617518e+02
   1.684814e+02  -3.477276e+02
   2.361713e+02  -1.559879e+02
   1.566463e+02   1.168896e+02
   4.066941e+01   2.801193e+02
  -1.285263e+02   1.341325e+02
  -5.933989e+01  -3.236385e+01
  -7.119542e+01  -2.601126e+02
   2.579507e+02  -1.047367e+02
   2.177340e+02   3.651534e+02
  -1.968584e+02   4.615008e+02
  -3.553811e+02   4.841980e+01
  -2.165032e+02  -3.521209e+02
   2.130924e+02  -2.192397e+02
   2.249738e+02   2.298012e+02
   9.854662e+01   2.882166e+02
  -2.896730e+02   2.572354e+02
  -4.523643e+02  -2.780275e+02
  -1.369674e+02  -3.293369e+02
   2.165591e+02  -2.642433e+02
   3.040804e+02   2.335398e+01
   3.343077e+02   3.115456e+02
  -9.958115e+01   2.485743e+02
  -3.033293e+02   5.452839e+00
  -1.587922e+02  -2.002341e+02
   8.081527e+01  -4.679879e+01
   9.277831e+01   1.219132e+02
  -5.867046e+01   1.142861e+02
  -1.911359e+02   2.642956e+01
  -1.196416e+02  -1.300820e+02
   1.001524e+02  -1.409396e+02
   1.551545e+02  -2.066941e+01
   9.433874e+01   4.867953e+01
   2.325516e+01   1.261320e+02
  -2.108540e+01   2.213952e+02
  -2.101911e+02   2.153389e+02
  -1.486207e+02  -9.244766e+01
  -1.091979e+02  -3.574710e+02
   8.107596e+01  -2.067781e+02
   1.072376e+02  -1.334687e+02
   7.160432e+00   5.950506e+01
  -3.503265e+01  -3.658238e+01
   8.850052e+01  -1.455122e+02
   1.527236e+02   1.698336e+01
   1.626993e+02   1.878916e+02
  -2.058011e+01   1.497901e+02
  -1.405760e+02  -5.354096e+00
  -1.269354e+02  -8.649987e+01
  -3.356974e+00  -1.805978e+02
   9.714381e+01  -7.909240e+01
   1.456644e+02   6.327143e+01
   1.190338e+02   1.814311e+02
  -7.298921e+01   2.415063e+02
  -1.223779e+02   6.893639e+01
  -1.391589e+02   1.716719e+01
  -4.506371e+01   3.732630e+01
  -1.354061e+02   5.979455e+00
  -2.182829e+02  -5.419393e+01
  -1.973209e+02  -1.663469e+02
   9.608042e+00  -2.693892e+02
   1.759501e+02  -3.114503e+02
   3.253582e+02  -1.072930e+02
   1.513438e+02   2.117360e+01
   4.113667e+01   1.541876e+02
  -4.592776e+01   1.748107e+02
  -9.160705e+01   4.452719e+01
   3.695363e+01  -8.350914e+01
   1.313039e+02   1.770489e+00
   1.489941e+01   1.029324e+02
  -8.995633e+01   1.394884e+02
  -1.259916e+02  -3.754081e+01
   1.859065e+01  -1.228433e+02
   1.306295e+02  -2.572667e+01
   1.447763e+02   1.014834e+02
  -2.328882e+01   1.753645e+02
  -9.793445e+01   1.041282e+02
  -2.167547e+02  -1.064688e+01
  -1.543418e+02  -1.035509e+02
  -1.107954e+02  -1.612698e+02
   4.456292e+00  -1.301077e+02
   9.304536e+01  -6.830324e+00
   4.800951e+01   3.162948e+01
  -2.936569e+01  -5.183023e+01
   8.131790e+00  -4.838457e+01
   3.979794e+01  -9.719144e+01
   1.003797e+02  -2.507164e+01
   7.012745e+01   2.996547e+01
  -4.651646e+01   2.578831e+01
  -4.980057e+01  -5.510780e+01
  -1.148870e+01  -5.095931e+01
   1.203710e+02   2.739246e+01
   1.408692e+02   6.485422e+01
   7.501835e+01   1.304029e+02
  -8.211616e+01   1.621831e+02
  -1.416401e+02   1.358091e+02
  -7.221595e+01  -1.256964e+01
   1.037724e+01  -4.376702e+01
   3.739424e+01  -2.362148e+01
  -2.527523e+01   4.156177e+01
  -1.185873e+02   9.057796e+01
  -1.774638e+02  -6.181284e+00
  -8.894864e+01  -1.350524e+02
   5.938672e+01  -8.600592e+01
   8.884547e+01  -6.970215e+01
   4.469305e+01   2.730846e+01
  -1.305824e+01   2.893742e+01
  -2.314755e+01  -7.832738e+01
  -1.070924e+01  -5.361355e+01
   1.481780e+02  -1.294333e+01
   1.592662e+02   6.637656e+01
  -1.912864e+01   1.484417e+02
  -1.063098e+02   1.530076e+02
  -1.345671e+02   1.300336e+01
  -5.639978e+01  -5.549977e+01
   4.106308e+01  -3.538012e+01
   4.264734e+01  -4.185907e+01
   5.290751e+00   2.319749e+01
   8.605802e+00   4.847451e+01
   8.349153e+00  -5.704645e+00
   2.188840e+01   8.858068e+00
   4.750394e+01   1.218681e+01
  -2.381294e+00   7.654093e+01
  -3.077780e+01   9.424829e+01
  -1.138679e+02   8.544315e+01
  -1.191876e+02  -8.394173e+01
  -8.121865e+01  -1.102003e+02
   5.147168e+01  -1.130638e+02
   7.627980e+01  -6.447936e+01
   6.149613e+01   2.006656e+01
  -2.308772e+00   5.610683e+01
  -3.103246e+00   5.865785e+01
   4.155772e+01  -3.467630e+01
   9.231952e+00   1.128460e+01
  -2.334229e+01   5.397105e+01
  -5.673327e+01   5.394560e+01
  -2.229760e+01  -4.121514e+00
   4.091682e+01  -3.364558e+01
   7.792181e+01  -2.831783e+01
   1.198371e+02   6.488580e+00
   8.191756e+01   1.167069e+02
  -3.582612e+01   1.462736e+02
  -1.607161e+02   5.502733e+01
  -1.133250e+02  -1.801459e+01
  -4.390590e+01  -9.973264e+01
   2.824691e+01  -7.570316e+01
   7.211995e+00  -5.218210e+01
   3.059350e+01  -6.038693e+01
   2.918912e+00  -3.030659e+01
   6.744756e+01  -7.964957e+01
   1.047120e+02   9.785848e+00
   4.657337e+01   6.404226e+01
   6.155591e+01   1.213936e+02
  -3.998802e+01   9.681028e+01
  -1.214992e+02   1.801266e+01
  -7.381387e+01  -2.294961e+01
  -3.181075e+01  -5.875423e+01
   6.927930e+01  -9.336800e+01
   3.964311e+01  -5.381863e+01
  -2.845955e+01   2.780464e+01
   7.204690e+00   4.918793e+01
   2.597895e+01   3.070571e+01
   3.916914e+01   7.906939e+00
   3.517607e+01   1.024309e+01
  -2.248458e+01   1.494976e+01
  -9.223260e+01   2.725548e+01
  -6.337263e+01  -9.113055e+00
  -4.100694e+01  -6.078191e+01
   7.327744e+01  -1.995248e+01
   1.091438e+02  -3.297934e+01
   1.646142e+01   1.700181e+01
  -1.607333e+01   2.643961e+01
  -4.757186e+01  -5.870693e+01
  -1.454148e+01  -5.576146e+01
  -4.176464e+00  -3.314996e+01
   1.742749e+01   4.230200e+00
   3.128175e+01  -9.939377e+00
   3.690059e+01   5.642363e+00
   1.517303e+01  -2.186647e+01
   4.813526e+01  -2.268249e+00
  -1.262483e+00   4.696009e+01
  -1.339097e+00   3.363597e+01
  -7.476749e+01   5.874671e+01
  -7.464975e+01   4.239801e+01
  -1.021244e+02  -4.004825e+01
  -2.896579e+01  -6.376288e+01
   1.654111e+01  -7.031223e+01
   4.076609e+01   1.223593e+01
  -7.420273e+01   3.565463e+00
  -6.986035e+01   4.569395e+00
   2.858413e+01  -6.361397e+01
   4.052409e+01  -6.298061e+01
   6.932243e+01  -1.734510e+01
   9.873807e+01   3.459588e+01
   1.132915e+01   7.119491e+01
  -2.501975e+01   5.214712e+01
  -3.757860e+01  -3.636266e+00
  -7.888197e+00  -5.875832e+01
   5.727818e+01  -1.033325e+01
   9.146608e+00   8.261455e+01
  -6.326022e+01   1.085785e+02
  -8.374801e+01   8.061127e+01
  -8.450262e+01  -3.393535e+01
  -2.433370e+01  -1.321034e+02
   1.433180e+01  -7.163585e+01
   6.093984e+01   3.655073e+01
   5.549350e+01   5.977890e+00
   2.447443e+01   6.585064e+01
  -2.395654e+01   3.050369e+01
  -2.050615e+01  -1.816088e+01
  -4.385349e+01   3.782943e+01
   3.040517e+01   2.933265e+01
  -2.611888e+00  -1.790715e+01
  -3.180382e+01  -6.043340e+01
  -2.281596e+01  -4.122111e+01
   1.444946e+01  -4.299153e+01
   6.935482e+01   1.671691e+01
   1.003409e+02   1.216406e+01
  -7.619161e+00  -2.468276e+01
  -1.084162e+01   4.062471e+01
  -8.483415e+01   2.653280e+01
  -8.665548e+00   2.381292e+00
   2.808548e+01  -2.102863e+01
  -5.369178e+00  -4.033797e+01
   1.007466e+01  -1.592554e+01
   1.719224e+01   5.290024e-01
   2.076540e+01  -3.100373e+01
   4.865036e+01   4.804421e+00
  -1.230860e+01   2.482040e+01
  -1.210740e+02   9.960773e+01
  -1.665390e+02   3.168015e+01
  -8.845767e+01  -4.422364e+00
   9.540789e-01  -9.720333e+01
   3.427455e+00  -5.283820e+01
   7.820091e+01  -4.112947e+01
   2.250798e+01   1.478777e+01
   5.474693e+01   4.258435e-01
  -1.591647e+01   2.769042e+00
  -7.174443e+00   2.630351e+01
   1.190510e+01  -7.823056e-01
  -1.338285e+01   3.811588e+01
  -3.772016e+01   7.822416e+00
  -4.585885e+01  -3.651668e+00
  -1.944377e+01  -3.828481e+01
   2.153501e+01  -4.409022e+01
   2.800776e+01  -1.619097e+01
   9.955388e+00  -4.256147e+00
   5.900391e+00   2.572285e+01
  -8.153685e+01   6.159780e+01
  -3.947547e+01   4.728469e+00
  -3.358178e+01  -4.599841e+01
   3.242811e+01  -1.035234e+02
   2.919575e+00  -2.153808e+01
  -2.770848e+01  -5.609492e+00
   2.951744e+01  -1.190144e+01
  -4.173684e+01  -5.832540e+00
   1.479553e+01  -5.074164e+01
   2.545359e+01  -4.801567e+01
   1.620888e+01  -2.634222e+01
   1.303066e+01   9.236210e+01
   1.562266e+00   3.473239e+01
  -1.139721e+01   2.379979e+01
  -1.453680e+01  -4.786179e+01
   6.778372e+01  -4.350177e+01
   2.450864e+01   3.648506e+00
   8.907754e+00   3.281483e+01
   6.782019e+00   1.832945e+01
  -4.341133e+01   3.265159e+01
  -2.082145e+01  -9.272349e+00
  -4.217429e+01   2.718657e+01
  -4.215445e+01  -3.192297e+00
   1.155587e+01   1.815126e+01
   1.605772e+01  -2.710255e+01
  -1.559305e+01   7.285193e+00
   1.872389e+01  -3.032669e+01
  -4.233442e+00   2.440429e+00
   3.479228e+01   1.016556e+01
  -3.331541e+00  -1.664520e-01
  -1.451556e+01  -1.343468e+01
  -1.939849e+01  -3.899467e+01
   1.671575e+01  -3.696525e+01
   1.834873e+01  -3.071538e+01
  -1.319883e+00   8.330047e+01
  -2.884897e+01  -6.539039e-01
  -5.306357e+01  -3.376191e+00
  -2.179150e+01   7.106020e+01
   5.177900e+00  -2.799334e+01
   4.061742e+01   2.559932e+00
  -5.080525e+00  -3.031338e+00
  -1.095802e+02   3.586952e+01
