
 $NMID
 id='ANONYMOUS ', fmtdat='(2E16.6)'
 volume=1.0
 tramp=1.0
 $END
   3.351120e+03  -5.881736e+02
   2.276412e+03   1.505947e+03
   3.955849e+01   2.309780e+03
  -1.026283e+03   1.163481e+03
  -8.650361e+02   6.327297e+01
   4.603340e-01  -1.879196e+02
   4.975286e+02   1.643601e+02
  -2.208459e+01   5.001756e+02
  -3.941236e+02   3.275482e+02
  -6.380724e+02   2.395547e+02
  -4.013484e+02  -5.173757e+02
   4.194172e+01  -5.759846e+02
   2.765904e+02  -1.079741e+02
   2.850510e+02   3.517302e+02
  -7.970738e+01   6.264001e+02
  -5.131133e+02   6.884794e+01
  -2.856878e+02  -2.935963e+02
   6.266687e+01  -5.524902e+02
   3.851047e+02  -1.583312e+02
   3.964776e+02   1.770124e+02
   1.128453e+02   3.290404e+02
  -9.075035e+01   2.402757e+02
  -1.066016e+02   6.823785e+01
   1.374450e+02   8.644391e+01
   2.153852e+02   2.547371e+02
  -1.271677e+01   3.278589e+02
  -4.136389e+02   1.934412e+02
  -5.232891e+02  -1.792667e+02
  -2.105061e+02  -3.161248e+02
   3.037727e+02  -2.093704e+02
   5.299773e+02   6.956939e+01
   2.279424e+02   3.556939e+02
  -2.069875e+02   3.104075e+02
  -4.571980e+02   1.126319e+02
  -3.181475e+02  -5.785267e+01
  -8.441965e+01  -1.929371e+02
   3.508090e+01  -1.703502e+02
  -2.918346e+01   6.239802e+01
  -1.359348e+02   1.883438e+02
  -2.938153e+02  -1.101386e+02
  -5.302555e+01  -4.046623e+02
   1.872950e+02  -4.506744e+02
   2.859659e+02   2.366608e+01
   1.359861e+02   3.367816e+02
  -2.003214e+02   1.684850e+02
  -1.858970e+02  -2.517380e+02
   1.319283e+02  -4.154112e+02
   4.335005e+02  -1.499743e+02
   3.827065e+02   4.654828e+02
   1.890579e+02   4.048405e+02
  -2.625300e+02   2.517495e+02
  -5.124162e+02  -9.257723e+01
  -3.465742e+02  -2.997381e+02
   3.832724e+01  -2.476135e+02
   2.629748e+02  -2.130306e+01
   1.467979e+02   1.369553e+01
   3.180051e+01   5.347187e+01
  -9.192096e+01  -5.271420e+01
   1.119805e+02  -6.402212e+01
   2.108094e+02  -6.656603e+00
   2.074605e+02   2.113450e+02
  -9.161021e+01   2.098440e+02
  -3.154702e+02   1.034956e+02
  -2.433735e+02  -1.268090e+02
   3.958850e+01  -2.496370e+02
   2.179561e+02  -3.090506e+02
   3.292876e+02  -9.783873e+01
   2.606612e+02   1.291100e+02
   6.478904e+01   3.462196e+02
  -3.498333e+01   3.218817e+02
  -3.797742e+01   1.191629e+02
  -8.640490e+01   1.038804e+02
  -8.887462e+01   9.140975e+01
  -2.183114e+02   7.160235e+01
  -2.487237e+02  -1.094290e+02
  -3.258464e+01  -2.570785e+02
   8.121110e+01  -1.367938e+02
   1.644380e+02  -3.115899e+00
   1.002924e+02   2.239329e+02
   9.612843e+00   2.357181e+02
  -1.984917e+02   5.916810e+01
  -2.510466e+02  -1.860417e+02
  -1.180777e+02  -3.163069e+02
   2.978442e+01  -2.580395e+02
   1.145149e+02  -1.423580e+02
   1.036007e+02  -6.417664e+01
   1.199096e+02  -3.080948e+01
   2.598572e+02  -2.243181e+01
   3.588465e+02   1.404466e+02
   2.098059e+02   3.037068e+02
  -7.126534e+01   4.033896e+02
  -3.469297e+02   3.348178e+02
  -4.233750e+02   1.359202e+02
  -1.974354e+02  -9.695390e+01
  -8.087581e+01  -2.009421e+02
   6.004451e+01  -1.857597e+02
   5.212927e+01  -3.287239e+01
  -9.878462e+01   3.355048e+01
  -1.313463e+02  -1.454023e+01
  -4.877559e+01  -1.687235e+02
   1.474352e+02  -5.449100e+01
   1.408109e+02   1.435969e+00
  -4.318801e+01   1.038849e+02
  -1.580376e+02   2.662302e+01
  -1.615272e+02  -2.051306e+02
   1.269127e+01  -3.442027e+02
   1.956016e+02  -2.193163e+02
   3.161400e+02  -6.218096e+00
   2.463003e+02   2.010452e+02
   2.886056e+01   2.256258e+02
  -1.635432e+02   1.922984e+02
  -1.591595e+02   4.884280e+01
  -6.663983e+01  -2.645722e+01
   1.911818e+01   9.650869e+01
   2.567780e+01   1.594144e+02
  -1.281634e+02   3.493807e+01
  -1.575139e+02  -1.921885e+01
  -6.522802e+01  -6.361091e+01
   7.549636e+01  -3.103124e+01
   2.128613e+01   8.044429e+01
  -1.570654e+02   1.230978e+01
  -2.983526e+02   1.804549e+01
  -2.024258e+02  -1.989253e+02
  -2.936881e+01  -2.461669e+02
   2.166017e+02  -2.729404e+02
   2.763965e+02  -6.800214e+01
   1.458724e+02   6.495186e+01
  -5.900714e+01   8.360518e+01
  -6.159306e+01  -1.474230e+01
   8.393880e+00  -6.597386e+01
   1.565966e+02  -4.559058e+00
   1.886944e+02   8.261535e+01
   1.016739e+02   1.603320e+02
  -5.397632e+01   9.276459e+01
  -1.556785e+02  -4.433089e+00
  -1.032596e+01  -2.169314e+01
   6.207167e+01  -3.132984e+01
   5.854044e+01   6.093612e+01
  -1.176083e+02   7.247482e+01
  -2.112112e+02   4.052806e+01
  -1.800688e+02  -1.311533e+02
  -1.035630e+01  -1.459923e+02
   1.038868e+02  -6.638718e+01
   1.873929e+02  -2.396050e+01
   4.620051e+01   7.197870e+01
  -1.924996e+01   1.161651e+02
  -6.495773e+01   5.588755e+01
   2.926153e+01   1.359372e+01
   2.784238e+01   2.601010e+00
  -2.640501e+01   1.638357e+01
  -5.403623e+01   1.686144e+01
  -1.464607e+02  -1.070505e+02
   1.188704e+01  -1.866936e+02
   1.516130e+02  -1.132474e+02
   1.895041e+02   1.451613e+01
   1.689188e+02   1.682517e+02
   8.524600e+00   2.167732e+02
  -1.721875e+02   1.541785e+02
  -1.161614e+02   2.857090e+01
  -1.137479e+01  -3.048920e+01
   9.445523e+00  -6.613404e+01
  -5.221459e+01   4.861235e+01
  -5.979535e+01  -1.385658e+01
  -4.913604e+01  -5.003593e+01
   3.785009e+00  -6.540017e+01
   1.229226e+02  -6.069881e+01
   1.142514e+02   1.383504e+01
  -2.406621e+01   1.516464e+02
  -1.757483e+02   6.790595e+01
  -2.006133e+02  -4.657455e+01
  -8.362178e+01  -1.826559e+02
   8.780749e+01  -2.302697e+02
   2.547182e+02  -7.019608e+01
   1.780607e+02   1.287143e+02
   9.057432e+01   1.624614e+02
  -3.694318e+01   1.550957e+02
  -4.379311e+01   6.084805e+01
  -9.038397e+01   8.016785e+01
  -1.012440e+02   9.037632e+01
  -9.754386e+01   6.860375e+01
  -1.146443e+02  -1.909426e+01
  -1.461306e+02  -1.589925e+02
   1.268100e+01  -2.292823e+02
   7.319501e+01  -1.888189e+02
   1.411412e+02  -5.319832e+00
   1.175967e+02   1.177425e+02
   1.193496e+01   1.656509e+02
  -5.479587e+01   8.403707e+01
  -6.634492e+01  -8.690706e+00
   3.820418e+01  -1.020376e+01
   9.575164e+00  -2.070264e+01
  -1.302347e+01  -4.575124e+00
  -6.739287e+01  -1.926750e+01
  -2.782242e+01  -4.123788e+01
   5.008268e+01  -5.397801e+01
   1.419372e+02  -1.418699e+01
   1.083569e+02   8.020046e+01
   1.000572e+01   7.771024e+01
  -1.499097e+02   5.738212e+01
  -1.556919e+02   1.004591e+01
  -2.516621e+01  -5.365821e+01
   6.748707e+01  -5.147614e+01
   5.869228e+01   2.182848e+01
   2.992613e+01   4.945578e+01
   1.896637e+00   6.646536e+01
  -8.635894e+01   3.592130e+01
  -5.731435e+01  -4.528047e+01
  -7.333790e+01  -5.310499e+01
  -7.553683e+01  -5.844989e-01
  -6.487269e+01  -2.750461e+01
  -6.647649e+01  -3.017915e+01
  -6.432413e+00  -1.296408e+02
   1.131323e+02  -1.353175e+02
   1.768828e+02  -4.103525e+01
   9.647162e+01   1.099067e+02
   1.418796e+01   1.375400e+02
  -6.824396e+01   8.031024e+01
  -7.143283e+01   7.435326e+00
   5.910835e+01  -6.703110e+01
   1.347093e+02  -2.747534e+01
   7.425237e+01   9.405281e+01
  -7.581758e+01   1.089033e+02
  -1.751420e+02   4.971750e+01
  -1.243364e+02  -4.191806e+01
  -3.002933e+01  -8.210499e+01
   5.371248e+01  -3.490775e+01
   7.506411e+00  -2.571565e+00
  -5.064379e+01   2.995349e+01
  -1.153265e+02   1.465495e+01
   8.721054e+00  -4.114056e+01
   2.613669e+01  -1.482900e+02
   1.266643e+02  -6.552084e+01
   1.177432e+02   7.454453e+01
   3.145550e+01   1.448916e+02
  -6.662598e+01   1.219067e+02
  -1.034118e+02  -1.965869e+01
  -2.765326e+01  -1.277554e+02
  -2.947994e+01  -9.711446e+01
   6.157484e+00  -1.226673e+01
   5.781002e+01   1.699394e+01
   3.792000e+00   2.926964e+01
  -3.904109e+01  -3.219017e+01
   3.455561e+01  -2.554352e+01
   2.207872e+01   6.695671e+01
   6.457323e+01   1.188978e+02
  -4.562445e+01   5.258373e+01
  -1.652772e+02  -4.575954e+01
  -7.421355e+01  -5.921793e+01
  -9.995002e+00  -6.440877e+01
   9.542206e+01  -7.722318e+01
   8.943820e+01   3.510647e+01
   2.562354e+01   2.731278e+01
   2.017842e+00   2.219509e+01
  -9.120113e+00   1.800716e+01
   1.111495e+01  -2.335349e+01
   9.573259e+00  -2.171843e+01
  -5.627375e+01  -5.940296e+00
  -6.208478e+01  -2.399476e+01
   1.136330e+01  -8.722329e+01
   1.328853e+02  -1.621061e+02
   1.538452e+02  -4.298896e+01
   1.172377e+02   3.763113e+01
   3.943472e+01   1.561685e+02
  -8.267435e+01   1.898168e+02
  -1.273310e+02   1.240576e+02
  -5.955682e+01  -6.826071e+01
  -2.646972e+01  -3.029968e+01
  -3.223494e+01   1.775434e+00
  -9.557293e+00  -1.395361e+01
  -5.543111e+01  -6.158378e+01
  -6.390999e+01  -3.393024e+01
   9.909631e+00  -8.401076e+01
   9.514454e+01   6.500529e+01
   5.287700e+01   1.113315e+02
  -1.497404e+01   7.787892e+01
  -1.017672e+02   1.118061e+01
  -8.049385e+01  -4.974817e+01
  -4.330601e+01  -1.266426e+02
   3.646153e+01  -5.672150e+01
   8.653447e+01  -2.063368e+01
   3.861809e+01   6.408412e+01
  -1.295036e+01   3.901737e+01
  -8.584602e+01   4.610532e+01
   1.106590e+01  -1.041492e+01
   3.647596e+01  -3.918049e+01
   5.810951e+00   2.193590e+01
  -1.190899e+02   8.711815e+01
  -1.325070e+02   8.003745e+00
  -5.852839e+01  -3.612430e+01
   4.549700e+01  -5.138851e+01
   6.750311e+01  -7.953801e+01
   4.681332e+01   1.610438e+01
   1.517412e+01   3.391819e+01
  -2.312804e+01   7.353848e+01
   8.980971e+00  -1.027731e+01
  -7.728452e+01  -3.086048e+01
  -3.041696e+00  -3.556659e+01
   2.208635e+01   2.453474e+01
   1.746180e+01   2.313465e+01
  -6.663350e+00   1.471092e+01
  -1.966398e+01   2.099733e+01
  -1.740037e+01   4.332090e+01
   2.048523e+01   3.866403e+01
  -1.722965e+01   4.871718e+01
  -3.358389e+01   2.942294e+01
  -3.321322e+01  -4.552893e+01
  -1.579489e+01  -6.277050e+01
   1.074158e+01   9.385895e-01
   4.548533e+01   1.165666e+01
   3.127088e+01   5.847291e+01
  -3.728532e+01   5.404092e+01
  -1.122557e+02   8.558558e+00
  -7.547054e+01  -3.754258e+01
   2.398145e+01  -3.842369e+01
   1.354467e+01  -1.403531e+01
   3.748498e+01  -2.493661e+01
  -2.717842e+01   4.525254e+01
  -7.192704e+01   1.205753e+01
   4.953246e+01   7.228786e+00
   9.521062e+01  -3.154866e+01
