
 $NMID
 id='ANONYMOUS ', fmtdat='(2E16.6)'
 volume=1.0
 tramp=1.0
 $END
  -2.494026e+03  -8.631481e+01
  -2.102230e+03  -1.351710e+03
   4.412205e+02  -2.253854e+03
   1.574257e+03  -1.179395e+03
   7.749268e+02   3.098770e+02
  -4.236594e+02   1.258822e+02
  -7.508872e+02  -3.161947e+02
   2.603553e+01  -8.332304e+02
   5.116507e+02  -6.513410e+02
   6.979714e+02  -1.167380e+01
   4.042579e+02   6.888196e+02
  -1.740733e+02   6.393084e+02
  -4.815482e+02   1.954634e+02
  -2.961607e+02  -4.989328e+02
   1.586918e+02  -5.331311e+02
   5.127639e+02   2.136226e+00
   2.424431e+02   5.162019e+02
  -1.827328e+02   4.658853e+02
  -4.228946e+02   1.193211e+02
  -3.972932e+02  -2.300132e+02
  -4.502956e+01  -2.959948e+02
   1.568920e+02  -1.995816e+02
   1.953824e+02  -6.066813e+01
  -9.475319e+01   6.590099e+01
  -3.106352e+02  -3.660074e+01
  -1.286481e+02  -3.385141e+02
   3.166549e+02  -3.239346e+02
   6.177236e+02  -1.342629e+02
   4.167820e+02   3.260241e+02
  -3.169878e+02   4.279500e+02
  -6.033923e+02   2.279626e+01
  -3.407859e+02  -3.067720e+02
   2.131892e+02  -4.365069e+02
   4.790954e+02  -2.711988e+02
   2.600777e+02   1.473095e+02
   1.129088e+02   2.854024e+02
  -7.812426e+01   2.941011e+02
  -1.586316e+02  -7.913214e+01
   1.206704e+02  -3.211530e+02
   3.940389e+02  -1.253051e+02
   1.765879e+02   6.139990e+02
  -1.514644e+02   5.743544e+02
  -4.622182e+02   6.026589e+01
  -2.353232e+02  -4.550437e+02
   2.279153e+02  -2.816779e+02
   2.276506e+02   2.562312e+02
   1.859619e+01   4.005289e+02
  -4.529641e+02   2.067320e+02
  -4.851217e+02  -2.727328e+02
  -1.635074e+02  -4.185480e+02
   2.666095e+02  -3.328264e+02
   4.768451e+02  -1.127134e+02
   2.709629e+02   3.722776e+02
  -1.018453e+02   2.769374e+02
  -2.680722e+02   5.859912e+01
  -1.933685e+02  -1.861897e+02
   1.161135e+02  -8.426413e+01
   9.863466e+01   1.033946e+02
  -1.566785e+02   1.638523e+02
  -2.527061e+02  -3.283708e+01
  -1.394221e+02  -2.967620e+02
   1.650027e+02  -1.612586e+02
   2.623982e+02  -1.198786e+02
   1.655376e+02   3.805391e+01
   7.914270e-01   1.642797e+02
  -1.679627e+02   3.364105e+02
  -3.082166e+02   2.219646e+02
  -2.470074e+02  -7.082614e+01
  -5.633439e+01  -3.464964e+02
  -6.973360e+01  -3.267697e+02
   1.203078e+02  -1.145701e+02
   3.128356e+01   3.860001e+01
   4.590897e+01  -1.382124e+01
   1.269439e+02  -1.405489e+02
   2.024654e+02   8.398982e+01
   1.688995e+02   2.066271e+02
  -1.668834e+01   2.058933e+02
  -1.586758e+02   3.006535e+01
  -1.958867e+02  -1.660427e+02
   3.677396e+01  -2.462843e+02
   1.639695e+02  -1.474730e+02
   2.301591e+02   1.143606e+02
   2.134570e+02   2.458149e+02
  -9.755177e+01   2.429709e+02
  -2.064359e+02   9.854597e+01
  -8.179841e+01  -1.055145e+00
  -6.868717e+01   5.546342e+01
  -1.548351e+02   3.876937e+01
  -3.671950e+02   6.705324e+00
  -2.428062e+02  -2.737837e+02
  -1.239744e+02  -3.745698e+02
   2.845359e+02  -2.616396e+02
   2.899726e+02  -1.949149e+02
   2.748948e+02   3.354603e+01
   1.148476e+02   2.138927e+02
  -7.385530e+01   2.171917e+02
  -9.165503e+01  -1.131965e+01
   6.034260e+01  -1.030383e+02
   1.340297e+02  -2.881299e+01
   7.242951e+01   1.608652e+02
  -7.725661e+01   1.339052e+02
  -1.310723e+02  -3.087875e+01
  -1.625457e+00  -1.338143e+02
   1.275076e+02  -2.521111e+01
   8.923223e+01   1.759915e+02
   1.067279e+01   2.829575e+02
  -1.402080e+02   1.444867e+02
  -2.117539e+02  -2.725635e+01
  -2.198875e+02  -1.463170e+02
  -1.193096e+02  -1.739685e+02
   7.879144e+01  -1.735215e+02
   1.461745e+02  -3.485669e+01
   2.700910e+01   4.880342e+01
  -2.927671e+01  -2.974396e+01
  -2.643844e+01  -1.025706e+02
   7.307678e+01  -1.266136e+02
   1.650265e+02   1.035044e+00
   1.464156e+01   1.195752e+02
  -2.579291e+01  -7.985901e+00
  -7.574776e+01  -3.427285e+01
   4.847971e+01  -1.211467e+02
   1.983583e+02  -4.581892e+01
   1.849978e+02   5.477446e+01
   8.896158e+01   1.385500e+02
  -1.372569e+02   1.980180e+02
  -2.418612e+02   1.224111e+02
  -1.599556e+02  -3.348381e+01
  -6.432966e+00  -6.373033e+01
   9.578955e+01  -1.695058e+01
  -3.164040e+00   8.850444e+01
  -1.907765e+02   7.161470e+01
  -1.672840e+02  -5.369757e+01
  -6.824855e+01  -1.511809e+02
   2.661073e+01  -1.336150e+02
   1.106877e+02  -4.052851e+01
   5.191087e+01   2.908387e+01
  -3.806578e+01   2.051289e+01
  -7.719721e+00  -5.269926e+00
   4.508714e+01  -1.120478e+02
   8.903182e+01  -3.313068e+01
   1.444814e+02   8.888579e+01
   2.524483e+01   1.373196e+02
  -1.306133e+02   1.500384e+02
  -1.527383e+02   2.200837e+01
  -2.929309e+01  -9.480986e+01
   2.997591e+01  -1.076313e+02
   3.240057e+01  -1.217627e+01
   3.546499e+01   2.329607e+01
   4.296633e+00  -7.062341e-01
  -6.321531e+00  -1.780956e+01
  -8.186496e+00  -8.661612e+00
   9.545687e+01   3.587888e+01
   3.383447e+01   1.234413e+02
  -8.872031e+01   7.625975e+01
  -1.908111e+02   1.359897e+01
  -1.123892e+02  -1.066811e+02
  -3.401935e+01  -1.763726e+02
   5.093190e+01  -1.112097e+02
   1.407919e+02  -1.371530e+01
   3.068674e+01   6.682552e+01
   2.666059e+01   5.156236e+01
   2.952021e+01   8.595622e+00
   7.134734e+01   3.078690e+01
   4.781536e+01   2.119717e+01
   1.551684e+01   7.338577e+01
  -7.098541e+01   2.096466e+01
  -5.522625e+01  -4.671656e+00
  -2.350289e+01  -1.383523e+02
   7.254529e+01  -8.263213e+01
   1.990640e+02   1.494613e+01
   7.314942e+01   1.801810e+02
  -9.817282e+00   1.755703e+02
  -2.115390e+02   4.986308e+01
  -1.573859e+02  -3.204521e+01
  -6.597285e+01  -1.392122e+02
  -7.932064e+00  -1.001024e+02
   6.340848e+01  -4.735188e+01
   7.716561e+01  -8.850390e+00
   4.554028e+01  -6.206541e+01
   1.017029e+02  -2.416268e+01
   6.341063e+01   1.496514e+01
   1.289841e+02   8.782594e+01
   6.444499e+01   1.449673e+02
  -4.199820e+01   1.016408e+02
  -1.485741e+02   8.202694e+00
  -1.215169e+02  -8.589533e+01
  -2.835211e+01  -1.226604e+02
   6.244270e+01  -6.654763e+01
   1.235485e+01  -2.289263e+01
   2.853655e+01   3.713005e+01
   2.304875e+00   1.219499e+01
   3.203151e+01   8.450368e-01
   7.903009e+01   3.176815e+01
  -1.233627e+00   1.588030e+01
  -7.755732e+01   1.180200e+01
  -9.780014e+01   4.543125e+01
  -1.247228e+02  -4.837269e+01
  -2.822483e+01  -3.336849e+01
   7.287840e+01  -4.280430e+01
   1.376552e+02  -1.397735e+01
   5.541965e+01   1.470064e+01
  -1.703446e+01   4.458493e+01
  -3.685581e+01  -1.621111e+01
  -3.488721e+01  -3.942864e+01
   6.530403e+01  -8.139047e+01
   6.164445e+01   5.005904e-01
   3.174759e+01   2.178760e+01
   3.838218e+01  -2.223059e+01
   6.071325e+01   4.283238e+01
   1.012834e+02  -1.139418e+01
   3.516703e+01   2.751190e+00
  -7.500113e+00   9.374175e+01
  -4.828236e+01   1.285687e+02
  -1.603452e+02   4.501172e+01
  -9.894945e+01  -1.039712e+02
  -1.860103e+01  -1.137019e+02
   6.498489e+01  -7.716242e+01
   8.803685e+00   2.548851e+01
  -4.331493e+01   3.918803e+01
  -9.074190e+01  -4.943360e+01
  -6.799147e+01  -1.164410e+02
   4.690642e+01  -5.966058e+01
   1.400429e+02  -4.254419e+01
   1.612260e+02  -1.353767e+01
   2.650404e+01   4.671233e+01
  -2.677575e+01   6.355944e+01
  -5.988302e+01  -1.178193e+01
   1.739518e+01  -4.010632e+01
   1.181711e+02   4.420600e+01
   5.653636e+01   7.089869e+01
  -4.160732e+01   1.306914e+02
  -8.436551e+01   3.952696e+01
  -1.103419e+02  -2.739345e+01
   9.767512e+00  -1.601610e+02
   6.362765e+01  -8.181243e+01
   9.699125e+01  -1.392579e+01
   6.193025e+01   1.133138e+02
  -2.643203e+01   7.057751e+01
  -4.906237e+01   3.559896e+01
  -2.228671e+01  -2.377333e+01
   1.775758e-01  -5.252428e-01
  -2.168973e+01   3.238796e+01
  -4.125502e+01  -1.320015e+01
  -6.577670e+01  -5.167849e+01
  -4.835249e+01  -9.176678e+01
   6.255776e+01  -3.035805e+01
   1.347939e+02  -4.692265e+00
   1.368701e+02   1.950799e+01
   1.468832e-01   8.859608e+00
  -9.629522e+01   4.140243e+01
  -9.019318e+01   1.514490e+01
  -2.994009e+01  -3.224151e+01
   5.760653e+00  -1.330359e+01
   2.199312e+01  -1.952509e+01
   3.632094e+00   2.329902e+01
  -3.549327e-01   6.897679e+00
   4.614833e+01  -3.083774e+01
   1.003302e+02   4.945489e+01
   2.345068e+01   7.158421e+01
  -8.408432e+01   8.627150e+01
  -1.002227e+02  -8.427990e+00
  -1.124172e+02  -2.409557e+01
  -5.644283e+01  -6.308841e+01
  -1.433545e+00  -1.041453e+02
   7.761441e+01  -5.356932e+01
   7.201686e+01   2.182423e+01
   3.430961e+01  -1.034838e+00
  -3.761782e+00   1.113558e+01
   2.770122e+01   1.181649e+01
   1.730424e+01   4.326008e+01
   3.596700e+01   4.806901e+01
  -2.658508e+00   5.300065e+01
  -5.534166e+01   1.897861e+01
  -7.444423e+01  -1.022901e+02
  -1.163885e+01  -6.367093e+01
   7.919569e+01  -3.045795e+00
   5.067669e+01   5.511599e+01
   5.910754e+01   2.282286e+01
  -8.360470e+01   4.458907e+01
  -8.718505e+01  -3.934156e+01
  -2.677378e+01  -7.149398e+01
   2.577284e+01  -8.061073e+01
   1.541693e+01  -3.564272e+01
  -4.038800e+01   5.776679e+00
  -3.660599e+01  -2.485446e+01
  -9.776249e+00  -1.577679e+01
   1.721093e+01  -4.505099e+01
   1.123790e+02  -2.939307e+01
   1.462161e+01   3.675301e+01
  -2.907265e+01   6.337788e+01
  -1.346097e+01   9.493836e+01
  -4.399730e+01   1.697522e+01
  -3.084424e+01  -2.662705e+01
   1.749327e+01  -5.604894e+01
   6.308634e+01   1.417719e+01
   2.367637e+01   3.050919e+01
   2.532657e+01  -1.291125e+01
   1.439757e+01   5.429435e+00
  -5.449302e+01  -2.095511e+01
  -4.886758e+01   5.006758e+00
  -5.028837e+00  -1.677030e+00
   5.487843e+01   2.451283e+01
   8.164934e+00   1.592607e+01
  -9.590892e+00  -4.373271e+01
  -3.260100e+01  -3.881539e+01
  -1.030933e+01   2.298608e+01
   1.365374e+00   5.168299e+01
  -1.070365e+01   9.081362e+00
  -5.247450e+01  -2.284246e+01
  -1.274090e+01  -3.961169e+01
   3.921190e+01  -6.488208e+01
   5.438049e+01  -2.425682e+01
   1.059457e+01   3.281557e+01
  -5.493887e+01   2.560825e+01
  -4.645179e+01  -4.566139e+01
  -5.325947e+01  -8.371123e+00
   2.226155e+01   1.789589e+01
   2.385250e+01   7.215383e-01
  -5.259073e+01   8.733389e+00
  -7.394013e+01   2.106965e+01
