
 $NMID
 id='ANONYMOUS ', fmtdat='(2E16.6)'
 volume=1.0
 tramp=1.0
 $END
   3.891549e+03   5.323867e+02
   2.604694e+03   2.157611e+03
  -7.985347e+02   2.687560e+03
  -1.900124e+03   1.137734e+03
  -9.367969e+02  -3.613691e+02
   7.042395e+02  -5.244673e+02
   8.640762e+02   4.594658e+02
  -6.498078e+01   1.029483e+03
  -8.015530e+02   8.405813e+02
  -9.544070e+02  -1.070184e+02
  -4.572029e+02  -9.710355e+02
   2.231084e+02  -8.464353e+02
   5.713449e+02  -5.563767e+01
   3.479527e+02   6.192188e+02
  -2.751964e+02   6.867190e+02
  -6.384504e+02  -4.769325e+01
  -3.310470e+02  -5.888702e+02
   3.170534e+02  -5.999226e+02
   5.831459e+02  -5.711115e+01
   4.178034e+02   2.382882e+02
   1.806200e+01   4.800516e+02
  -2.625476e+02   2.517439e+02
  -2.050607e+02   1.101300e+02
   1.295821e+02  -8.905175e+01
   3.596040e+02   9.793227e+01
   2.387693e+02   4.142145e+02
  -4.021150e+02   4.169362e+02
  -8.052218e+02   8.740044e+01
  -4.492038e+02  -4.796681e+02
   3.678658e+02  -5.107687e+02
   8.295535e+02  -2.223989e+01
   4.108904e+02   4.148681e+02
  -3.114766e+02   4.673009e+02
  -6.055992e+02   2.609866e+02
  -4.121288e+02  -2.118545e+02
  -1.071762e+02  -4.018069e+02
   1.453069e+02  -2.785496e+02
   1.959668e+02   2.016416e+02
  -8.365366e+01   4.507419e+02
  -5.286848e+02   3.992349e+01
  -2.320853e+02  -7.315734e+02
   1.851452e+02  -6.723252e+02
   5.971291e+02  -5.978293e+01
   2.308956e+02   6.439759e+02
  -2.953504e+02   3.097649e+02
  -3.680827e+02  -3.873480e+02
   2.338309e+01  -4.361049e+02
   5.808708e+02  -1.821141e+02
   6.197170e+02   3.627552e+02
   1.584326e+02   5.113345e+02
  -3.371228e+02   3.490880e+02
  -6.167460e+02   2.508060e+01
  -3.324380e+02  -4.497729e+02
   9.940927e+01  -3.775357e+02
   4.048953e+02  -8.086497e+01
   2.496619e+02   2.649589e+02
  -1.358689e+02   1.216180e+02
  -1.346345e+02  -1.027120e+02
   1.622420e+02  -2.269170e+02
   3.271019e+02   5.393036e+01
   1.534544e+02   3.437610e+02
  -2.255206e+02   2.321003e+02
  -2.415574e+02   7.260966e+01
  -1.999427e+02  -6.734167e+01
  -1.366540e+01  -1.945097e+02
   1.681939e+02  -3.062411e+02
   3.533835e+02  -2.203596e+02
   2.791620e+02   6.991339e+01
   1.054129e+02   5.075786e+02
  -1.083093e+02   3.810922e+02
  -1.385561e+02   9.185500e+01
  -3.058636e+01  -4.120152e+01
  -9.251650e+00   6.855332e+01
  -2.195673e+02   1.864077e+02
  -2.484347e+02  -3.351940e+01
  -1.893259e+02  -2.491181e+02
   5.074487e+01  -3.123903e+02
   1.763728e+02   2.749912e+01
   2.444555e+02   1.760245e+02
  -7.263457e+00   2.700132e+02
  -2.168916e+02   1.469814e+02
  -3.265948e+02  -1.454093e+02
  -2.247256e+02  -3.341546e+02
   5.701185e+01  -2.942367e+02
   2.381756e+02  -7.309333e+01
   1.646298e+02   4.249122e+01
   7.614991e+01  -3.090502e+01
   2.121350e+02  -5.357163e+01
   4.341831e+02   4.222472e+01
   3.136935e+02   2.225614e+02
   9.547057e+01   4.079286e+02
  -3.644637e+02   2.922218e+02
  -5.032447e+02   1.895247e+02
  -3.598960e+02  -6.619407e+01
  -9.209325e+01  -2.616467e+02
   1.146891e+02  -2.532765e+02
   6.299740e+01   2.757812e+01
  -8.985031e+01   1.591361e+02
  -1.798005e+02   2.391291e+01
  -3.854612e+01  -1.843819e+02
   1.692251e+02  -1.911677e+02
   1.759407e+02   3.297241e+01
  -6.612675e+00   2.340926e+02
  -2.049352e+02   6.011192e+01
  -1.344466e+02  -3.019461e+02
   1.989164e+01  -3.458092e+02
   1.717812e+02  -2.002135e+02
   3.065704e+02   7.274713e+01
   2.567872e+02   2.228340e+02
   1.098140e+02   2.554926e+02
  -8.612091e+01   1.663076e+02
  -1.740031e+02   2.159691e+00
  -5.449148e+01  -1.662466e+01
   2.090331e+01   4.630195e+01
   3.228385e+01   1.138890e+02
  -1.279167e+02   1.162244e+02
  -1.853842e+02  -2.037494e+01
  -7.828564e+01  -4.918248e+01
   9.258226e+01  -8.500476e+01
   7.372133e+01   7.373934e+01
  -9.759800e+01   9.817831e+01
  -2.113347e+02  -2.534494e+01
  -2.090394e+02  -1.002590e+02
  -8.628069e+01  -2.498177e+02
   1.345185e+02  -2.755716e+02
   3.252094e+02  -1.622590e+02
   1.376575e+02   5.130440e+01
   1.240734e+01   1.148702e+02
  -8.706466e+01  -1.342887e+01
   3.441550e+01  -1.178057e+02
   1.447467e+02  -7.640911e+01
   2.307568e+02   9.103962e+01
   5.717806e+01   2.072491e+02
  -1.040073e+02   1.448846e+02
  -1.235009e+02   3.155028e+01
  -1.096533e+02  -3.776822e+01
   2.118399e+01   2.923636e+01
   3.376337e+00   8.338009e+01
  -9.968833e+01   4.968372e+01
  -1.944600e+02  -2.681410e+01
  -1.974671e+02  -1.133206e+02
  -6.848932e+01  -2.232382e+02
   1.406972e+02  -1.816005e+02
   1.764160e+02  -8.050201e+01
   3.703122e+01   1.489816e+02
  -5.028461e+01   1.303591e+02
  -9.834357e+01   3.016520e+01
  -2.078143e+01  -2.980218e+01
   1.765284e+01  -3.466961e+00
  -4.818931e+01  -1.440808e+00
  -3.602075e+01  -8.818351e+00
  -8.586292e+01  -9.040654e+01
  -2.227639e+01  -1.452254e+02
   9.426943e+01  -1.481331e+02
   2.428503e+02  -7.286655e+01
   2.048198e+02   1.475267e+02
   5.657948e+01   2.550927e+02
  -7.221076e+01   1.334302e+02
  -1.230680e+02   8.098150e+00
  -7.970049e+01  -6.401518e+01
  -3.323495e+01  -3.767640e+01
  -2.328345e+01  -5.771343e+00
  -7.006140e+01  -2.502235e+00
  -3.636036e+01  -4.003059e+01
   2.064278e+01  -3.898357e+01
   5.312765e+01  -4.666726e+01
   7.345706e+01  -3.285059e+00
  -4.435927e+00   1.012004e+02
  -1.227290e+02   5.508800e+01
  -1.828083e+02  -3.168860e+01
  -9.179526e+01  -1.881604e+02
   9.488354e+01  -2.092321e+02
   2.682101e+02  -7.988363e+01
   2.433200e+02   2.093702e+01
   6.843105e+01   1.619480e+02
  -7.662493e+00   1.330119e+02
  -9.575998e+01   7.006162e+01
  -3.875937e+01   5.577177e+01
  -7.883216e+01   7.657836e+01
  -8.484628e+01   6.812594e+01
  -1.149293e+02   1.578153e+01
  -1.443153e+02  -1.684514e+02
  -5.737881e+01  -1.627335e+02
   6.797701e+01  -1.666450e+02
   1.676892e+02  -5.484363e+01
   1.496383e+02   1.286132e+02
   4.041393e+00   1.756606e+02
  -7.778826e+01   7.315125e+01
  -7.571022e+01   6.206896e+00
  -4.530319e+01  -9.301473e+00
  -6.262730e+00  -4.445489e+01
  -1.318143e+01  -1.122744e+01
  -1.000893e+02  -5.835785e+01
  -2.825829e+01  -8.794046e+01
   7.607949e+01  -7.823756e+01
   1.234238e+02   6.135136e+00
   1.515108e+02   8.424491e+01
   4.070286e+00   7.235773e+01
  -8.567871e+01   2.317413e+01
  -1.218864e+02   4.875453e+01
  -7.569535e+01  -4.797016e+01
   5.284119e+01  -6.370512e+01
   7.956429e+01  -3.670767e+00
   2.158809e+01   8.890429e+01
  -3.356447e+01   8.375095e+01
  -2.650915e+01  -1.474067e+01
   1.765869e+00  -2.566934e+01
  -1.553178e+01  -5.317238e+01
  -2.791608e+01   2.669416e+01
  -4.160449e+01  -1.352093e+01
  -3.517228e+01  -6.127984e+01
   3.713363e+01  -7.886639e+01
   1.027393e+02  -1.349004e+02
   1.592625e+02  -8.901796e+00
   1.136416e+02   1.051171e+02
  -1.221024e+01   1.472096e+02
  -4.555486e+01   7.636675e+01
  -4.609178e+01  -7.100705e+00
   6.263427e+01  -4.488619e+01
   9.222814e+01  -1.752046e+01
   7.090140e+01   1.384080e+02
  -3.587584e+01   8.754273e+01
  -1.314002e+02   6.793528e+01
  -1.754885e+02  -2.825275e+01
  -2.504251e+01  -8.054770e+01
   1.192537e+01  -8.800480e+01
   5.554714e+01  -1.367073e+01
  -6.965114e+00   5.523559e+01
  -1.214706e+02  -3.492880e+01
  -3.358567e+01  -1.094740e+02
   6.087618e+01  -1.268574e+02
   1.298219e+02  -8.764104e+01
   9.776757e+01   7.871365e+01
   5.881550e+00   1.630496e+02
  -5.566944e+01   1.442848e+02
  -1.329147e+02   1.309558e+00
  -4.681312e+01  -1.480455e+02
  -1.412032e+01  -1.014212e+02
   7.780119e+01  -6.567935e+00
   7.542775e+01   4.477750e+01
   5.236358e+01   1.502070e+01
   3.271418e+01  -1.173897e+01
   5.057192e+01  -2.816289e+00
   1.052511e+02   8.054712e+01
   4.400653e+01   1.097339e+02
  -6.475339e+01   7.464969e+01
  -1.258423e+02  -1.938391e+01
  -1.239098e+02  -9.516524e+01
  -1.810890e+01  -6.930651e+00
   1.139743e+02  -2.306371e+01
   9.844118e+01  -3.620942e+01
   6.686757e+01  -1.179494e+01
  -6.769901e+01   1.456786e+01
  -7.197178e+00   2.405456e+01
  -4.529713e+00  -1.442440e+01
  -5.020299e+01  -7.555386e+00
  -8.206445e+01   1.830996e+01
  -5.410211e+01  -3.787559e+01
  -3.194324e+01  -7.995452e+01
   9.659109e+01  -1.031443e+02
   1.288274e+02  -5.649198e+01
   8.530211e+01   5.987625e+01
   3.756883e+01   1.511797e+02
  -2.653364e+01   1.203963e+02
  -1.099829e+02   3.000462e+01
  -8.854422e+01  -4.927994e+01
  -2.615263e+01  -2.370591e+01
   1.119510e+01   5.252406e+00
  -4.828996e+01  -1.063645e+01
  -2.338967e+01  -3.339187e+01
  -1.431458e+01  -6.896570e+01
  -2.118910e+01  -9.376100e+01
   6.879817e+01   2.879046e+01
   9.334430e+01   1.275598e+02
   6.914550e+00   9.585824e+01
  -4.584123e+01   1.850530e+01
  -8.464387e+01  -4.820174e+01
  -1.783048e+01  -1.178303e+02
   7.219317e+01  -6.847476e+01
   6.315849e+01   1.467606e+00
   7.755495e+00   2.901804e+01
  -5.827176e+01   6.091615e+01
   1.106278e+01   4.279025e+01
   4.920166e+01  -2.864915e+01
   7.458175e+01   6.227007e+00
   4.567394e+01   2.509764e+01
  -3.613731e+01   3.605286e+01
  -7.367260e+01   3.702644e+01
  -9.143736e+01  -2.670105e+01
  -4.224371e+01  -8.803616e+01
   5.932985e+01  -4.960667e+01
   7.432719e+01   9.825068e+00
  -3.238210e+01   1.536782e+01
  -6.849045e+01   4.585781e+01
  -4.600774e+01  -6.080321e+01
  -2.435277e+00  -5.351580e+01
  -4.320233e+01  -2.879757e+01
   9.899373e+00   1.107474e+01
   2.784098e+01   1.744056e+01
   8.437804e+01  -3.524741e+01
   9.458251e+00   1.426616e+01
  -3.528915e+01  -2.252242e+01
  -4.343859e+00   4.017541e+01
  -5.093219e+00   8.063169e+01
  -4.554911e+01   1.832012e+01
  -1.437373e+01  -6.843710e+01
   1.235313e+01  -4.879749e+01
   6.827813e+01  -2.529560e+01
   7.254470e+01   4.160787e+00
   1.097892e+00   5.083432e+01
  -2.722182e+00   7.255786e+01
  -7.828025e+01   4.798865e+01
  -4.463808e+00  -2.723085e+01
   6.616567e+01  -4.024393e+01
   6.340338e+01  -6.625579e+00
   6.332260e+01  -2.283698e+01
  -3.332410e+01  -9.117473e+00
   3.520097e+00  -1.329774e+01
   1.632886e+01  -5.046580e+01
   5.590249e+01  -2.719267e+01
