
 $NMID
 id='ANONYMOUS ', fmtdat='(2E16.6)'
 volume=1.0
 tramp=1.0
 $END
  -4.430545e+03   8.102538e+02
  -2.587320e+03  -2.471510e+03
   4.414323e+02  -2.843347e+03
   2.264045e+03  -7.792138e+02
   1.198926e+03   5.816767e+02
  -7.827845e+02   7.427581e+02
  -7.627009e+02  -3.415983e+02
   7.117069e+01  -1.271366e+03
   1.024024e+03  -7.770454e+02
   1.091913e+03  -3.758768e+01
   3.281164e+02   9.665405e+02
  -3.439416e+02   9.541595e+02
  -6.634658e+02   1.952456e+02
  -3.557272e+02  -7.759874e+02
   1.198038e+02  -7.081125e+02
   6.044000e+02   2.195621e+01
   3.738237e+02   8.118722e+02
  -3.676417e+02   7.743354e+02
  -6.886627e+02   7.838676e+01
  -3.796493e+02  -4.036535e+02
   1.018804e+01  -4.862315e+02
   2.746018e+02  -2.939235e+02
   2.311006e+02  -4.445798e+01
  -9.663635e+01   9.824872e+01
  -4.707387e+02  -7.147406e+01
  -1.164760e+02  -4.569780e+02
   5.041569e+02  -3.571161e+02
   9.270554e+02   9.331291e+00
   4.478737e+02   5.392943e+02
  -2.935151e+02   4.925006e+02
  -6.361241e+02   9.849759e+00
  -3.871898e+02  -3.413677e+02
   3.791138e+02  -5.979460e+02
   5.489364e+02  -2.102159e+02
   4.561473e+02   2.299418e+02
   1.408639e+02   5.013796e+02
  -2.212214e+02   2.747075e+02
  -1.556784e+02  -2.097009e+02
   5.845433e+01  -4.553691e+02
   4.217103e+02  -2.134869e+01
   3.252119e+02   7.168605e+02
  -2.890442e+02   7.106085e+02
  -6.769760e+02   1.270370e+01
  -2.385281e+02  -4.893099e+02
   2.860943e+02  -3.373937e+02
   3.813371e+02   3.538056e+02
  -5.636485e+01   5.662335e+02
  -6.310651e+02   1.954281e+02
  -5.764837e+02  -3.717017e+02
  -2.370262e+02  -5.491042e+02
   4.228586e+02  -3.760405e+02
   6.869419e+02   7.528877e+01
   3.398912e+02   3.748723e+02
  -1.695383e+02   4.188824e+02
  -4.403807e+02   2.353056e+01
  -2.534250e+02  -2.689281e+02
   1.145059e+02  -8.596147e+01
   1.721101e+02   1.559471e+02
  -1.425528e+02   1.827032e+02
  -3.450629e+02  -5.890429e+01
  -2.088101e+02  -2.659944e+02
   2.600871e+02  -2.663877e+02
   3.317526e+02  -7.439033e+01
   2.828230e+02   5.880389e+01
  -5.789054e+01   1.880224e+02
  -2.431819e+02   3.593137e+02
  -3.180218e+02   2.045623e+02
  -2.959430e+02  -1.134086e+02
  -1.123740e+02  -3.753569e+02
   7.364162e+01  -3.993261e+02
   4.812644e+01  -1.261552e+02
   4.049963e+01   1.590489e+01
   1.319892e+01  -8.636857e+01
   2.260244e+02  -1.550391e+02
   3.245974e+02   4.876698e+01
   1.420306e+02   2.338592e+02
  -3.901868e+01   2.499112e+02
  -2.315458e+02   2.327118e+01
  -2.136558e+02  -2.233196e+02
   1.393953e+01  -2.994999e+02
   3.143183e+02  -1.424764e+02
   3.494487e+02   1.900179e+02
   1.513569e+02   3.935459e+02
  -7.650096e+01   2.222477e+02
  -2.347235e+02   1.499422e+02
  -1.531576e+02   2.388799e+01
  -1.494627e+02   8.002583e+00
  -2.122996e+02   8.719873e+01
  -3.493447e+02  -1.193056e+02
  -2.946541e+02  -2.961557e+02
  -4.672751e+01  -4.191409e+02
   3.249017e+02  -4.379941e+02
   5.396711e+02  -1.583682e+02
   3.922015e+02   2.583976e+01
   1.080804e+02   2.754829e+02
  -7.879436e+01   2.399184e+02
  -8.842952e+01   1.378680e+01
   8.257417e+01  -1.066221e+02
   2.297269e+02  -3.402375e+01
   4.121381e+01   1.948913e+02
  -2.157897e+02   1.974512e+02
  -1.586833e+02   2.105588e+01
   9.762857e+01  -2.250921e+02
   2.094139e+02  -3.986311e+01
   1.713604e+02   1.654395e+02
  -1.111372e+00   3.176768e+02
  -2.446335e+02   1.891017e+02
  -3.217002e+02  -5.060148e+01
  -2.705612e+02  -2.824304e+02
  -9.481897e+01  -2.903307e+02
   6.775980e+01  -1.744437e+02
   2.171838e+02  -3.045912e+01
   9.360763e+01   3.503158e+01
  -5.453979e+01  -8.589563e+01
  -4.665844e+00  -1.399939e+02
   1.438807e+02  -1.395639e+02
   1.639775e+02   2.096349e+01
   8.223199e+01   8.202796e+01
  -4.902228e+01   6.201993e+01
  -9.303039e+01  -6.941187e+01
   1.330671e+02  -4.631415e+01
   2.877697e+02  -3.625532e+01
   3.300194e+02   1.321769e+02
   9.238164e+01   2.745482e+02
  -1.481355e+02   2.847242e+02
  -2.430262e+02   1.349066e+02
  -1.344619e+02  -4.368101e+01
   2.795930e+01  -1.390801e+02
   1.182668e+02  -7.291030e+01
  -1.370495e+01   1.243625e+02
  -1.824052e+02   2.219112e+01
  -2.057428e+02  -9.073711e+01
  -9.078181e+01  -2.251907e+02
   1.410785e+02  -1.439205e+02
   1.501223e+02  -6.887693e+01
   4.536252e+01   2.483929e+01
  -2.168242e+01  -1.062565e+01
  -1.550056e+01  -4.264404e+01
   7.655962e+01  -1.222317e+02
   1.553339e+02  -1.406796e+01
   1.851054e+02   1.643894e+02
  -8.981666e+00   2.369143e+02
  -1.882707e+02   1.460653e+02
  -1.728939e+02   1.556327e+00
  -4.391322e+01  -1.571446e+02
   1.927310e+01  -1.178367e+02
   4.866482e+01  -6.642128e+01
  -2.296166e+01  -4.877417e-01
  -1.071647e+01   4.692484e+01
   2.998622e+01   3.560177e+01
   5.634935e+01   2.129135e+01
   8.500000e+01   6.542051e+01
   2.473833e+01   1.480560e+02
  -7.100575e+01   1.591704e+02
  -2.349844e+02   3.496343e+01
  -1.809581e+02  -1.269595e+02
  -5.162607e+01  -2.192281e+02
   7.620083e+01  -2.358392e+02
   1.670427e+02  -7.063244e+01
   1.152886e+02   1.150959e+02
   1.850517e+01   2.967441e+01
   7.238445e+01  -2.659581e+01
   6.487132e+01   2.352168e+01
   2.575191e+01   1.594448e+01
  -4.630588e+00   1.293807e+02
  -1.381952e+02   1.580204e+01
  -1.445753e+02  -3.801757e+01
  -2.331102e+01  -1.105473e+02
   1.147745e+02  -8.527388e+01
   1.855131e+02   2.717968e+01
   9.575737e+01   2.371597e+02
  -9.857383e+01   2.279351e+02
  -2.723671e+02   1.059542e+02
  -2.987525e+02  -1.081341e+02
  -1.132943e+02  -1.800079e+02
   4.158465e+01  -1.385868e+02
   1.097404e+02  -1.284163e+02
   8.986464e+01  -7.504516e+01
   6.747367e+01  -6.878295e+01
   8.073338e+01  -5.802936e+01
   6.673547e+01  -2.728387e+01
   1.358515e+02   1.115924e+02
  -2.699794e+01   2.495933e+02
  -5.988386e+01   1.855033e+02
  -1.712127e+02   1.963452e+01
  -1.501966e+02  -1.286757e+02
  -2.928861e+01  -1.585057e+02
   7.888884e+01  -9.626519e+01
   4.523997e+01   5.295870e+00
  -1.345798e+01   5.336926e+01
   1.398900e+00   3.212535e+01
   4.812342e+01   2.580603e+01
   7.855660e+01   1.403264e+01
   6.963833e+01   3.080799e+01
  -5.360912e+01   5.252276e+01
  -1.608974e+02   1.712797e+01
  -1.650174e+02  -6.167142e+01
  -2.619837e+01  -1.210050e+02
   1.463548e+02  -7.064313e+01
   1.648500e+02  -1.114186e+01
   4.568823e+01   3.906694e+01
  -3.758178e+01   5.106013e+01
  -8.041403e+01  -1.604315e+01
  -1.675158e+01  -6.203134e+01
   9.358397e+01  -3.206595e+01
   9.794388e+01   1.090439e+01
   4.850509e+01   4.330595e+01
   3.909129e+01   3.367332e+01
   8.731175e+01  -4.958941e+01
   1.044981e+02  -2.385052e+01
   7.685913e+01   5.076075e+01
  -1.543676e+01   1.417343e+02
  -1.353196e+02   1.661842e+02
  -1.199435e+02   5.285121e+01
  -1.214938e+02  -8.795969e+01
  -5.891087e+01  -1.472907e+02
   7.469454e+01  -5.113795e+01
   3.794685e+01   4.044654e+01
  -5.953317e+01   7.313786e+01
  -1.272660e+02  -5.803192e+01
  -9.344424e+01  -7.341851e+01
   9.537838e+01  -1.349063e+02
   1.787668e+02  -7.608698e+01
   2.029384e+02   3.757132e+01
   7.177041e+01   3.429351e+01
  -8.270225e+01   7.848850e+01
  -5.519829e+01  -7.499362e+00
   4.436285e+01  -5.418093e+01
   4.118930e+01   6.638862e+00
   5.567796e+01   1.181463e+02
  -7.007458e+01   1.661427e+02
  -1.725082e+02   5.407906e+01
  -1.281688e+02  -7.806084e+01
  -2.941281e+01  -2.013934e+02
   6.896571e+01  -1.324921e+02
   8.060276e+01  -1.078725e+01
   1.088957e+02   7.141840e+01
   2.842372e+01   1.132695e+02
  -5.416051e+01   2.068816e+01
  -6.087806e+01   4.252062e+00
   1.302890e+01  -6.152502e+01
   6.243220e+00   1.804621e+01
  -3.320420e+01  -1.913806e+01
  -5.641794e+01  -7.955238e+01
  -2.564481e+01  -1.172391e+02
   5.574426e+01  -2.000595e+01
   1.769004e+02   8.299097e+01
   1.605993e+02   1.047213e+02
   8.986921e+00   7.563954e+01
  -1.172537e+02  -1.721356e+00
  -8.388504e+01   2.140907e+01
  -2.255436e+01  -3.745109e+01
   5.982798e+01   9.991521e-04
   2.210308e+01  -1.438936e+01
  -7.362946e+00  -2.966358e+01
   2.113160e+00   8.162562e+00
   5.858034e+01   2.186212e+01
   1.171940e+02   8.446697e+00
  -4.094864e+01   1.046548e+02
  -9.723068e+01   9.814049e+01
  -2.242976e+02   8.749284e+01
  -1.333911e+02  -1.079429e+02
  -4.192987e+01  -1.659335e+02
   6.766886e+01  -1.352424e+02
   8.938511e+01  -6.492477e+01
   3.710492e+01   2.468367e+00
   7.058586e+01   3.266890e+00
   1.438254e+01   2.042733e+01
  -2.218398e+01   3.169878e+01
   1.976159e+01   7.550758e+01
   8.292340e+01   7.653475e+01
  -6.975106e+00   9.981895e+01
  -5.008273e+01  -2.760586e+01
  -4.557086e+01  -1.232289e+02
  -1.245855e+01  -1.042605e+02
   9.331000e+01  -3.055979e+01
   1.070936e+02   8.232071e+01
  -2.857426e+00   7.081351e+01
  -7.734146e+01   9.544818e+01
  -1.003113e+02   2.009519e+01
  -1.059669e+01  -4.474637e+01
   6.911901e+01  -4.252640e+01
   6.429177e+01  -3.932610e+00
  -3.073633e+01   4.707017e+01
  -3.297284e+01   2.107720e+00
  -3.783197e+00  -4.397344e+00
   8.278538e+01  -7.593696e+01
   1.335538e+02  -7.891202e+01
   9.214871e+01   1.480723e+01
   1.881847e+00   8.316236e+01
   4.918231e+00   1.280324e+02
  -5.992015e+01   1.158932e+01
   7.651091e+00  -2.604565e+01
   3.366936e+01  -6.028420e+01
   5.149144e+01   4.041876e+01
   8.219023e+00   7.823702e-01
  -1.509154e+01   4.038970e+01
  -2.998681e+01  -5.752692e+00
  -3.472432e+01   1.853032e+01
  -3.247429e+01  -9.448169e+00
   7.412576e+00   4.002177e+00
   7.844539e+00  -3.984340e+01
   1.694210e+01  -2.093857e+01
  -1.347188e+01  -5.155226e+01
   4.522440e+01   2.732150e+01
   2.989682e+01   3.620187e+01
  -2.750048e+01   8.124549e+01
  -2.403763e+01  -7.427468e+00
  -5.100485e+01   8.887364e-02
   3.206499e+01  -7.139873e+01
   6.802492e+01  -7.037408e+01
   9.539894e+01   3.266175e+01
   6.919257e+00   3.901137e+01
  -1.317003e+01   2.826818e+01
  -7.446304e+01  -8.733080e+00
  -3.476384e+01   5.979653e+00
   5.146659e+00  -9.115079e+00
   2.288267e+01  -8.083677e+00
  -4.503391e+01   6.138946e+01
  -6.129225e+01   3.675476e+01
