
 $NMID
 id='ANONYMOUS ', fmtdat='(2E16.6)'
 volume=1.0
 tramp=1.0
 $END
  -4.582749e+03   7.506662e+02
  -2.557707e+03  -2.278794e+03
   5.053046e+02  -2.960272e+03
   1.757430e+03  -9.932197e+02
   8.397683e+02   3.811378e+02
  -6.001276e+02   4.585415e+02
  -7.453818e+02  -3.146387e+02
   1.351032e+02  -9.390041e+02
   7.856729e+02  -6.362960e+02
   9.859227e+02  -1.595185e+02
   4.566951e+02   8.154881e+02
  -3.153367e+02   8.974134e+02
  -6.558463e+02   1.184792e+02
  -4.095005e+02  -6.854838e+02
   2.041975e+02  -7.408515e+02
   6.233955e+02   1.951314e+01
   2.855414e+02   4.831177e+02
  -2.131948e+02   6.859297e+02
  -5.376692e+02   3.744656e+01
  -3.523149e+02  -3.367831e+02
  -4.324679e+01  -4.494890e+02
   1.930295e+02  -2.567853e+02
   1.928456e+02   3.659377e+01
  -1.699508e+02   4.217217e+01
  -4.217519e+02  -1.631786e+02
  -1.329683e+02  -3.846199e+02
   4.022892e+02  -3.137511e+02
   8.456180e+02   1.318087e+02
   4.200418e+02   5.134361e+02
  -3.362493e+02   4.252149e+02
  -8.431110e+02  -6.815724e+00
  -3.831282e+02  -4.992798e+02
   2.099484e+02  -4.453202e+02
   5.751837e+02  -2.511858e+02
   3.990424e+02   1.258258e+02
   1.616635e+02   4.861152e+02
  -1.723334e+02   2.542434e+02
  -1.394647e+02  -1.930251e+02
   1.722082e+02  -3.854640e+02
   4.185190e+02   5.749979e+01
   2.386314e+02   6.554576e+02
  -2.587750e+02   6.708411e+02
  -4.525236e+02  -3.574371e+01
  -2.633787e+02  -5.397455e+02
   2.416227e+02  -3.185573e+02
   3.369097e+02   2.237553e+02
  -4.049118e+01   5.203067e+02
  -4.316200e+02   1.640711e+02
  -5.900365e+02  -3.996080e+02
  -2.442666e+02  -5.391720e+02
   3.265039e+02  -3.283039e+02
   6.246636e+02   1.069373e+02
   3.329227e+02   4.032892e+02
  -1.298180e+02   4.346349e+02
  -3.853288e+02  -7.798472e+00
  -2.163961e+02  -1.521279e+02
   3.788991e+01  -1.395995e+02
   1.147048e+02   1.265912e+02
  -1.966426e+02   1.804329e+02
  -3.680313e+02  -1.281671e+01
  -1.820897e+02  -2.592775e+02
   2.027035e+02  -2.176578e+02
   2.835442e+02  -4.163817e+01
   1.954490e+02   1.233285e+02
  -5.779163e+01   2.556105e+02
  -1.770717e+02   3.628606e+02
  -3.579322e+02   2.070787e+02
  -3.141682e+02  -1.869122e+02
  -9.712867e+01  -4.111406e+02
   1.134099e+02  -3.330576e+02
   8.363384e+01  -1.267828e+02
   3.280266e+01  -4.738368e+00
   4.322213e+01  -1.356469e+02
   2.144131e+02  -8.786654e+01
   2.958954e+02   8.160491e+01
   1.660812e+02   2.900084e+02
  -5.851459e+01   2.446107e+02
  -2.165422e+02  -1.480167e+01
  -1.754416e+02  -2.894393e+02
  -3.653969e+01  -2.739195e+02
   2.513742e+02  -1.529664e+02
   3.736865e+02   1.749958e+02
   1.483845e+02   3.389770e+02
  -1.139075e+02   3.215138e+02
  -2.717999e+02   1.398921e+02
  -1.398974e+02   4.616630e+01
  -1.528627e+02  -7.649022e+00
  -2.394155e+02   3.070173e+01
  -3.995730e+02  -5.297134e+01
  -3.084034e+02  -3.591100e+02
   8.560547e+01  -4.458747e+02
   3.452965e+02  -4.533227e+02
   5.164383e+02  -2.548129e+02
   3.049885e+02   1.071332e+02
   1.059510e+02   2.771323e+02
  -1.160958e+02   2.434689e+02
  -1.178770e+02   2.246896e+01
   8.789724e+01  -7.536392e+01
   2.096451e+02  -1.119774e+01
   5.984812e+01   1.668147e+02
  -1.668378e+02   1.901495e+02
  -1.706529e+02  -2.743744e+01
   3.496771e+01  -1.766672e+02
   1.747326e+02  -6.042964e+01
   1.923237e+02   2.505571e+02
   2.129217e+01   3.842006e+02
  -2.047710e+02   2.763602e+02
  -3.387602e+02  -7.329101e+01
  -2.996853e+02  -2.912624e+02
  -1.028972e+02  -2.473870e+02
   8.647762e+01  -1.671026e+02
   1.308886e+02  -3.954612e+01
   8.867059e+01   3.871052e+00
  -6.051229e+01  -7.128315e+01
  -4.007840e+01  -1.087360e+02
   1.499692e+02  -1.070734e+02
   1.526058e+02   3.289257e+01
   4.870696e+01   6.704642e+01
  -8.562035e+01  -6.648938e+00
  -7.823691e+01  -1.030922e+02
   1.610443e+02  -1.196948e+02
   2.699595e+02  -2.020825e+00
   2.475848e+02   1.223899e+02
   3.847608e+01   2.164232e+02
  -1.781919e+02   2.331568e+02
  -3.217631e+02   1.011726e+02
  -1.588396e+02  -5.132172e+01
   4.981622e+01  -1.327808e+02
   1.534178e+02   4.850432e+00
  -5.141826e+01   3.081592e+01
  -1.784417e+02   3.285913e+00
  -2.079836e+02  -9.777765e+01
  -1.449128e+02  -2.341600e+02
   8.722895e+01  -1.537921e+02
   1.709141e+02  -2.729343e+01
   1.182272e+02   2.482078e+01
  -4.599336e+01   2.490041e+01
  -3.266800e-01  -5.387751e+01
   8.280418e+01  -9.959430e+01
   2.184433e+02  -6.225463e-01
   1.958194e+02   1.495061e+02
  -2.322435e+01   1.539310e+02
  -1.876138e+02   1.473577e+02
  -1.778082e+02   5.335535e+01
  -3.408413e+01  -1.067737e+02
   7.609755e+01  -1.452759e+02
   7.489679e+01  -7.326248e+01
  -3.107991e+00   3.537942e+01
  -8.590595e+00   2.573132e+01
   2.534303e+01  -2.738803e+01
   9.420356e+01   8.319128e+00
   1.291948e+02   9.003144e+01
   6.643572e+01   1.228188e+02
  -9.471577e+01   1.610464e+02
  -2.005044e+02  -2.041889e+00
  -2.294077e+02  -1.505554e+02
  -7.545886e+01  -2.584859e+02
   6.858816e+01  -1.685754e+02
   1.104135e+02   3.197995e+01
   4.812764e+01   2.375413e+01
  -1.386173e+01   5.867785e+01
   5.609918e+01  -5.251424e+01
   9.487812e+01  -1.574872e+01
   4.947143e+01   3.293657e+01
  -6.775415e+01   9.011995e+01
  -7.541456e+01   4.143178e+01
  -9.013383e+01  -3.272743e+01
   2.016545e+00  -1.141656e+02
   1.453012e+02  -4.357200e+01
   2.027919e+02   4.348720e+01
   6.440447e+01   2.282632e+02
  -1.245299e+02   2.113010e+02
  -2.394759e+02   1.659004e+02
  -2.329068e+02  -1.794773e+02
  -1.650304e+02  -1.275392e+02
   1.324660e+01  -1.113612e+02
   7.065015e+01  -7.639046e+01
   6.858588e+01  -1.026541e+02
   3.962889e+01  -1.182784e+02
   6.654538e+01  -7.065218e+01
   1.747549e+02   4.638652e+01
   8.483811e+01   1.394248e+02
  -3.372919e+01   2.324540e+02
  -7.490711e+01   1.692116e+02
  -2.134028e+02  -1.568914e+01
  -1.654178e+02  -6.388644e+01
  -3.489550e+01  -1.762930e+02
   8.885148e+01  -6.898499e+01
   9.196001e+01   2.571479e+01
   2.080218e+01   4.553709e+01
   1.153383e+01   1.877656e+01
   1.795851e+01   4.296633e+01
   1.174318e+02   4.964080e+00
   4.309463e+01   2.941935e+01
  -8.676039e+01   6.767126e+01
  -1.201445e+02   4.866056e+01
  -1.554224e+02  -1.361055e+01
  -1.798917e+01  -1.003572e+02
   9.577650e+01  -9.708510e+01
   1.582864e+02  -3.933834e+00
   6.938828e+01   7.996383e+01
  -5.729563e+01   1.179554e+01
  -6.485189e+01  -1.580330e+01
  -4.017156e-01  -6.973278e+01
   4.458396e+01  -7.918835e+01
   4.639435e+01  -2.086915e+01
   4.435522e+01   5.490335e+00
   3.557740e+01   1.518024e+01
   7.632906e+01   8.524325e+00
   4.351765e+01   4.548795e+00
   4.545856e+01   3.309480e+01
  -5.261493e+01   1.765675e+02
  -1.211529e+02   1.954426e+02
  -1.802300e+02   9.335303e+01
  -1.401081e+02  -8.354786e+01
  -1.767464e+01  -1.119299e+02
   4.274336e+01  -1.007904e+02
   8.795735e+01  -2.452865e+01
  -8.405349e+01   2.252578e+01
  -1.501368e+02  -1.240535e+01
  -9.128076e+01  -6.606253e+01
   5.952770e+01  -1.493242e+02
   1.906690e+02  -6.131715e+01
   1.690641e+02   2.008315e+01
   6.738073e+01   6.133003e+01
  -5.630298e+01   8.176990e+01
  -5.292214e+01   4.807769e+01
   2.369721e+01  -8.430607e+00
   1.139289e+02   2.975464e+01
   2.960515e+01   1.151766e+02
  -6.029974e+01   1.394258e+02
  -1.761531e+02   7.033658e+01
  -1.316495e+02  -4.216268e+01
  -3.870739e+01  -1.982099e+02
   3.984215e+01  -1.563373e+02
   6.948960e+01   7.216855e+00
   7.338675e+01   1.513113e+02
  -1.032548e+01   1.139991e+02
  -1.833118e+01   2.972384e+01
  -5.615437e+01   1.869969e+01
   1.166371e+01  -1.806046e+01
   2.064767e+01   3.504087e+01
  -1.746913e+01  -2.541473e+01
  -4.696344e+01  -5.667954e+01
  -4.891058e+01  -1.274259e+02
   5.720799e+01  -5.233956e+01
   1.574517e+02   7.692421e+01
   1.336981e+02   1.253728e+02
   4.147539e+01   1.782076e+01
  -9.529192e+01   3.372728e+01
  -8.657499e+01   3.704519e+01
  -3.176775e+00  -5.781622e+00
   4.838189e+00  -4.378550e+01
   2.511063e+01  -3.640299e+01
   4.258345e+00   1.276742e+01
   1.968962e+01  -1.354824e+01
   6.666916e+01  -2.396931e+01
   3.527384e+01   1.829705e+01
  -1.822836e+01   5.923065e+01
  -1.064647e+02   8.633945e+01
  -2.194142e+02   3.627796e+01
  -1.046645e+02  -7.792454e+01
  -6.518813e+01  -1.411665e+02
   9.015096e+01  -1.632143e+02
   1.179665e+02  -8.237495e+01
   6.178643e+01   2.140060e+01
  -1.878097e+01   4.132234e+01
   1.184873e+01  -2.531031e+01
   2.404638e+01  -6.805320e-01
   5.081624e+01   3.902481e+01
   5.825765e+01   1.322679e+02
  -5.936713e+00   9.997470e+01
  -1.049835e+02  -1.697913e+01
  -2.202439e+01  -4.778428e+01
  -5.119105e+00  -9.902408e+01
   6.222318e+01  -5.519926e+01
   9.997118e+01   6.669340e+01
   3.680904e+01   8.693635e+01
  -9.108791e+01   8.058609e+01
  -8.608008e+01   3.840494e+01
  -6.232742e+01  -4.439449e+01
   4.067508e+01  -3.314481e+01
   3.645819e+01  -4.792178e+01
  -4.900391e+01   3.569464e+01
  -4.586611e+01   1.867028e+01
  -2.945758e+01  -5.475662e+01
   6.596664e+01  -6.794050e+01
   1.411829e+02  -5.397343e+01
   7.827522e+01  -1.552456e+01
  -6.851268e+01   7.599725e+01
  -3.556720e+01   1.053883e+02
  -5.862632e+01  -3.273951e+01
  -4.456175e+00  -2.931852e+01
   4.059360e+01  -2.695981e+01
   6.606856e-01   3.517416e+01
   7.333132e+01   1.169628e+01
   1.549991e+01   4.056559e+01
  -3.416682e+01   1.219583e+01
  -4.131600e+01   4.222155e+01
  -3.148187e+00  -2.998195e+01
   6.005807e+00   4.001845e+01
  -3.529373e+00  -1.058812e+01
   3.902955e+01  -3.294396e+01
   1.090590e+01  -4.211202e+01
   5.061257e+01   5.975726e+00
   5.832725e+01   4.617613e+01
   3.927710e+01   3.092669e+01
  -4.609112e+01  -3.351448e+00
  -4.765382e+01  -6.815166e+00
   2.435950e+01  -1.025832e+02
   2.901420e+01  -4.195238e+01
   7.541877e+01   1.106562e+01
   4.627274e+01   5.643998e+00
  -5.172054e+01   4.613217e+01
  -6.347674e+01   4.923786e+01
  -1.287910e+01  -1.350807e+01
   4.823464e+01  -4.660307e+01
   3.488395e+01  -8.804666e+00
  -5.349292e+01   2.117440e+01
  -1.045687e+02   4.096833e+01
