
 $NMID
 id='ANONYMOUS ', fmtdat='(2E16.6)'
 volume=1.0
 tramp=1.0
 $END
  -2.348439e+03   1.737746e+02
  -1.921915e+03  -1.198802e+03
  -2.231634e+02  -1.928717e+03
   5.211524e+02  -9.966833e+02
   8.433856e+02  -4.094545e+02
   3.886036e+02   4.573188e+01
  -3.123323e+02  -1.002029e+02
  -5.159004e+01  -2.032459e+02
   3.208468e+02  -2.478061e+02
   4.673465e+02  -2.182303e+02
   4.178329e+02   4.151712e+02
   4.477143e+01   4.712733e+02
  -1.766803e+02   8.656932e+01
  -1.507740e+02  -3.199867e+02
   1.264411e+02  -4.579918e+02
   3.455999e+02  -6.044564e+01
   3.700520e+02   2.823524e+02
  -2.281636e+01   4.832255e+02
  -3.537261e+02   2.770860e+02
  -4.412269e+02  -7.427509e+01
  -1.024616e+02  -2.571724e+02
   7.615417e+01  -1.847301e+02
   1.805509e+01  -1.008012e+02
  -1.792274e+02  -1.658393e+02
  -1.622426e+02  -2.568503e+02
   7.084781e+01  -2.592104e+02
   4.303726e+02  -6.042778e+01
   3.904212e+02   2.025834e+02
   1.395373e+02   2.074938e+02
  -2.354994e+02   1.611849e+02
  -4.470414e+02  -1.201666e+02
  -1.579631e+02  -2.998822e+02
   1.754429e+02  -2.533947e+02
   3.574424e+02  -1.056662e+02
   2.881119e+02   2.287290e+01
   1.348321e+02   2.293030e+02
   5.221082e+01   1.258005e+02
   7.468506e+01  -6.891991e+01
   1.844817e+02  -1.207743e+02
   1.652286e+02   1.749879e+02
  -1.249395e+02   2.938272e+02
  -1.598471e+02   3.509147e+02
  -1.678624e+02  -2.349380e+01
  -4.226530e+01  -2.567768e+02
   1.301614e+02  -8.980815e+01
   4.062394e+01   2.718499e+02
  -1.137710e+02   3.532095e+02
  -3.520467e+02   1.194500e+02
  -3.377461e+02  -3.484411e+02
  -1.356218e+02  -3.790439e+02
   2.658114e+02  -1.988012e+02
   3.940142e+02   8.956080e+01
   3.419853e+02   2.610466e+02
   2.613716e+01   1.940716e+02
  -1.637358e+02   2.447105e+01
  -1.574680e+02   3.326888e+01
  -6.551682e+01  -1.460194e+01
  -5.832420e+00   4.715506e+01
  -9.441263e+01   8.264372e-01
  -1.893257e+02   1.274379e+01
  -1.344109e+02  -1.176514e+02
   9.626409e+01  -1.894526e+02
   3.265605e+02  -1.896575e+02
   2.004550e+02   8.709496e+01
  -4.739826e+01   3.044238e+02
  -2.311302e+02   3.513203e+02
  -3.544418e+02   1.056921e+02
  -2.579200e+02  -1.359534e+02
  -3.438802e+01  -3.151151e+02
   4.203711e+01  -2.578771e+02
   1.000260e+01  -1.287455e+02
   4.276585e+01  -9.519867e+01
   1.005077e+02  -1.265888e+02
   2.432527e+02  -2.581125e+00
   1.943225e+02   1.550110e+02
   5.351874e+01   1.775745e+02
  -1.036505e+02   8.908827e+01
  -2.032223e+02  -3.933193e+01
  -1.427942e+02  -1.909013e+02
   7.603145e+01  -2.316293e+02
   1.799333e+02  -2.092907e+01
   1.964740e+02   1.594701e+02
   1.132549e+02   2.252884e+02
  -6.578302e+01   2.345727e+02
  -9.751734e+01   1.448916e+02
  -1.043964e+02   1.024433e+02
  -1.371654e+02   3.466303e+01
  -2.614585e+02  -1.035881e+01
  -3.371071e+02  -1.089191e+02
  -1.523531e+02  -3.321736e+02
   4.754710e+01  -3.583620e+02
   3.218573e+02  -2.874280e+02
   3.339787e+02  -6.344827e+01
   1.796423e+02   1.125036e+02
   5.057255e+01   1.955402e+02
  -9.872855e+01   1.488465e+02
   2.041007e+01   4.526101e+01
   1.090215e+02  -1.442822e+01
   1.180169e+02   2.324903e+01
  -2.613679e+01   1.539643e+02
  -1.258584e+02   4.689830e+01
  -5.798930e+01  -2.284088e+01
   2.024464e+01  -1.251498e+02
   1.333148e+02   1.033235e+01
   3.872937e+01   2.530026e+02
  -8.130771e+01   2.793242e+02
  -1.957896e+02   2.002927e+02
  -3.048992e+02  -4.390474e+01
  -2.389248e+02  -2.367121e+02
   2.407009e+01  -2.938824e+02
   1.451192e+02  -1.378772e+02
   1.074497e+02   1.113712e+00
   3.144899e+01  -4.754855e+00
  -2.043335e+01  -6.660536e+01
  -1.791288e+00  -9.894565e+01
   1.205602e+02  -1.587055e+01
   1.423420e+02   3.501407e+01
   3.889892e+01   6.380996e+01
  -1.034783e+02   2.639110e+01
  -3.294928e+01  -8.064913e+01
   1.359077e+02  -6.115742e+01
   2.541636e+02  -1.662782e+00
   2.557283e+02   2.087897e+02
   2.598454e+01   1.921925e+02
  -1.863357e+02   2.421535e+02
  -2.555923e+02   2.304470e+01
  -1.197286e+02  -5.465668e+01
  -1.259748e+01  -6.140461e+01
   1.251960e+01   8.193506e+00
  -4.618541e+01   1.058662e+02
  -1.724485e+02  -3.708417e+01
  -1.498157e+02  -8.798661e+01
  -6.545063e+01  -1.648947e+02
   7.199984e+01  -8.914485e+01
   1.316657e+02  -1.196491e+01
   1.466723e+00   4.962586e+01
  -6.773585e+01  -6.315408e+01
  -1.205096e+01  -1.184542e+02
   5.777612e+01  -7.068257e+01
   2.535354e+02   1.512310e+01
   1.760676e+02   1.275641e+02
   2.836842e+01   1.452396e+02
  -1.331585e+02   9.080887e+01
  -1.554628e+02   1.433471e+01
  -2.757412e+01  -6.822738e+01
   5.816421e+01  -1.079185e+02
   7.569792e+01  -3.316799e+01
   2.589844e+01   4.751448e+01
  -3.514357e+01  -1.495056e+01
   3.417330e+00   7.997230e+00
   9.747004e+01   1.705699e+01
   7.845738e+01   1.328513e+02
   1.327624e+01   1.747112e+02
  -1.105399e+02   1.190799e+02
  -2.270727e+02  -2.653766e+01
  -1.183364e+02  -1.624040e+02
  -6.656945e+00  -1.890216e+02
   1.178951e+02  -1.167661e+02
   6.547960e+01  -2.218216e+01
   1.237037e+01   4.445743e+01
   2.131244e+01   8.604434e+00
   3.848871e+01  -4.382170e+00
   9.220779e+01  -6.058127e+00
   6.986602e+01   2.310961e+01
  -4.298579e+01   1.102923e+02
  -7.137107e+01   8.164006e+01
  -1.231656e+02  -9.606702e+00
   1.231651e+01  -1.469509e+02
   1.441961e+02  -7.801057e+01
   1.617241e+02   7.959298e+01
   8.180277e+01   2.211891e+02
  -1.236411e+02   1.867302e+02
  -2.853011e+02   5.468918e+01
  -1.500102e+02  -4.423741e+01
  -8.585149e+01  -1.251187e+02
   3.209282e+01  -1.017171e+02
   3.877908e+01  -4.956897e+01
   2.331566e+01  -3.240656e+01
   6.648785e+01  -6.290040e+01
   7.299750e+01  -3.858821e+01
   8.866402e+01   5.963961e+01
   7.246068e+01   1.391819e+02
  -1.046238e+01   1.576230e+02
  -1.159988e+02   1.410695e+02
  -1.367377e+02  -4.997094e+01
  -1.222921e+02  -1.311374e+02
  -8.557416e+00  -1.353117e+02
   5.730843e+01  -2.055581e+01
   5.536693e+01   3.626038e+01
  -7.109650e+00   4.752227e+01
  -5.315300e+01  -1.988124e+00
   4.380182e+01   1.994373e+01
   5.383549e+01   2.154210e+01
   3.953846e+01   4.549925e+01
  -7.244059e+01   1.581603e+00
  -1.701104e+02   1.163401e+01
  -1.417695e+02  -3.106638e+01
  -6.956990e-01  -5.784649e+01
   1.167778e+02  -3.343449e+01
   1.798158e+02   1.351284e+01
  -9.387432e+00   3.145304e+01
  -7.267616e+01   5.935935e+01
  -8.507307e+01  -1.398599e+01
  -3.007754e+01  -2.579907e+01
   3.242283e+01  -7.845820e+01
   5.602013e+01  -2.276409e+01
   8.933605e+01   3.804025e+01
   8.844900e+00  -2.848556e+00
   6.941075e+01   8.704768e+00
   5.762095e+01  -2.244207e+01
   1.570820e+01   8.462010e+01
  -6.735925e+01   1.351352e+02
  -1.102496e+02   1.369617e+02
  -1.617308e+02   3.134571e+01
  -9.951407e+01  -8.639108e+01
   3.082632e+01  -8.700630e+01
   9.744724e+01  -3.466124e+01
   5.744347e+01   6.410385e+01
  -8.040499e+01   4.424663e+01
  -1.431342e+02  -7.285801e+01
  -5.928558e+01  -8.488727e+01
   8.578656e+01  -8.095718e+01
   1.400549e+02  -1.053599e+02
   1.194832e+02   1.902556e+01
  -4.932514e+01   4.858061e+01
  -5.734366e+01   2.371356e+01
  -4.378142e+01  -1.146265e+01
   7.312679e+01  -2.576255e+01
   1.050914e+02   2.937209e+01
   5.087956e+01   3.829440e+01
  -7.512078e+01   8.453023e+01
  -1.279223e+02   5.389471e+01
  -9.045615e+01  -5.678207e+01
   3.968233e+00  -1.181427e+02
   6.774910e+01  -1.028881e+02
   8.546644e+01   2.964316e+01
   4.672288e+01   1.064318e+02
  -3.959955e+00   8.077326e+01
  -1.908269e+01   6.139864e+01
  -2.973869e+01  -5.516644e+00
  -6.708133e+00  -4.456265e+01
  -4.530573e+00   5.930143e+00
  -5.538220e+01  -5.837379e+01
  -3.114913e+01  -7.667377e+01
  -1.987621e+01  -9.692265e+01
   5.318648e+01  -1.471792e+01
   1.064188e+02   1.819086e+01
   8.477659e+01   6.207117e+01
   2.024234e+01   4.415260e+01
  -5.162317e+01   1.314876e+01
  -8.171264e+01  -1.309008e+01
  -1.812762e+01  -4.519067e+01
   2.376881e+01  -2.514392e+01
   1.864949e+01  -1.111134e+01
  -1.815285e+01  -2.360830e+01
  -1.353787e+01  -2.977610e+00
   7.431942e+01  -1.734509e+01
   8.510232e+01   1.886648e+01
   1.844170e+01   7.981121e+01
  -6.929648e+01   1.302618e+02
  -1.497972e+02   5.322233e+01
  -9.447798e+01  -5.312919e+01
  -2.812480e+01  -1.811040e+02
   9.711456e+01  -1.192991e+02
   1.137856e+02  -6.446789e+00
   5.510136e+01   9.847892e+00
   2.561583e+01  -2.064331e+01
   4.186367e+00   1.323651e+01
   1.336237e+01   2.578557e+00
  -5.831970e-01   2.828760e+01
   6.987684e+00   4.543920e+01
  -7.375179e+01   6.184589e+01
  -1.207665e+02  -1.650159e+01
  -7.132039e+01  -1.080194e+02
  -2.636961e+01  -6.738688e+01
   9.038477e+01  -2.771018e+01
   9.803726e+01  -2.529629e+00
   1.559446e+01   8.967572e+01
  -9.476187e+01   7.704626e+01
  -6.405807e+01   2.567706e+01
  -3.732852e+00  -4.546528e+01
   2.922807e+01  -4.039388e+01
  -1.421287e+01  -3.639815e+01
   1.864139e+01   2.110362e+01
  -6.536193e+01  -9.563564e+00
  -3.696963e+00  -2.793313e+01
   8.358305e+01  -4.413469e+01
   1.401402e+02  -4.891511e+01
   1.718994e+01   3.314873e+01
  -2.136591e+01   1.203996e+02
  -2.753857e+01   4.803957e+01
  -4.022150e+01  -3.951884e+00
  -2.874752e+01  -2.502704e+01
   2.046391e+01  -6.905291e+01
   2.557848e+01   6.105758e+01
   2.855256e+01   4.717437e+01
   1.923081e+01   2.962762e+01
  -5.612497e+01   1.171752e+01
  -2.215665e+01  -2.712700e+01
  -8.800698e+00  -5.528546e+01
   2.646596e+01   3.082627e+01
   1.988894e+01   1.175708e+00
  -4.794323e+01   8.267199e+00
   1.556997e+01  -6.545742e+01
   3.688593e+01  -6.231220e+01
   2.894072e+01   2.255324e+01
  -2.718367e+01   4.462728e+01
  -3.422935e+01   1.057595e+00
  -6.596449e+01  -4.875218e+01
  -2.730093e+01  -8.761094e+01
   4.928885e+01  -8.933053e+00
   1.004552e+02  -3.595667e+00
   1.841370e+01   4.526631e+01
  -3.710797e+01   7.551097e+01
  -2.298559e+01   5.107490e+01
  -4.060655e+01  -1.150821e+01
   6.042802e+01  -1.019550e+01
   1.304807e+01   1.119201e+00
  -5.126416e+01   1.181306e+01
  -6.782074e+01   2.138587e+01
