
 $NMID
 id='ANONYMOUS ', fmtdat='(2E16.6)'
 volume=1.0
 tramp=1.0
 $END
   2.167211e+03  -9.645032e+01
   1.889518e+03   9.036038e+02
   1.339501e+02   1.321124e+03
  -4.063009e+02   8.273442e+02
  -5.106325e+02   5.824148e+02
  -2.374725e+02  -3.962822e+01
   2.666419e+02   1.212040e+02
   1.263083e+02   1.985325e+02
  -1.897225e+02   3.746032e+02
  -3.831027e+02   2.715756e+02
  -2.447613e+02  -2.665957e+02
  -1.795500e+02  -4.265079e+02
   1.483682e+02  -1.669019e+02
   1.708642e+02   4.512961e+02
  -8.121645e+01   3.847279e+02
  -2.637425e+02   9.546873e+01
  -2.769555e+02  -3.067158e+02
  -5.702475e+01  -4.743606e+02
   3.673650e+02  -2.547165e+02
   3.883894e+02   7.649893e+01
   7.625690e+01   2.129396e+02
  -1.849185e+01   2.040029e+02
   8.498564e+00   1.305401e+02
   1.466234e+02   9.594536e+01
   1.269474e+02   2.533741e+02
  -1.354090e+02   2.872914e+02
  -4.453279e+02   1.747301e+01
  -4.338576e+02  -4.379314e+01
  -1.130380e+02  -1.500267e+02
   2.018752e+02  -7.722324e+01
   3.117219e+02   1.084217e+02
   2.466302e+02   2.712419e+02
  -2.027021e+02   2.598122e+02
  -2.760698e+02   6.916231e+01
  -2.883521e+02  -2.235747e+01
  -1.015266e+02  -1.727071e+02
  -9.065612e+01  -1.418902e+02
  -1.115098e+02   8.363028e+01
  -9.942538e+01   1.083821e+02
  -1.068491e+02  -1.331339e+02
   6.752643e+01  -2.624691e+02
   1.272869e+02  -2.492594e+02
   1.289080e+02  -6.110044e+01
  -3.202070e+00   1.685206e+02
  -8.681855e+01  -1.142998e+01
  -1.733708e+00  -2.572128e+02
   1.197121e+02  -2.610747e+02
   2.848421e+02  -7.131607e+00
   2.397874e+02   2.677007e+02
   1.373394e+02   3.403468e+02
  -1.919805e+02   2.476178e+02
  -2.797598e+02  -2.498529e+01
  -2.391965e+02  -1.852571e+02
   1.227668e+01  -1.031219e+02
   1.601234e+02  -8.552871e+01
   1.461003e+02  -3.059718e+01
   1.732839e+01   4.096095e+01
  -4.157806e+01  -1.732742e+01
   1.166764e+02   3.639025e+00
   1.220480e+02  -3.405599e+01
   8.290812e+01   1.093914e+02
  -7.636241e+01   1.190762e+02
  -3.151556e+02   1.489663e+02
  -2.205617e+02  -2.382983e+01
   1.756458e+01  -2.314160e+02
   2.237330e+02  -2.827419e+02
   2.820412e+02  -1.102050e+02
   2.304427e+02   1.139057e+02
   2.623320e+01   2.822107e+02
   2.243737e+01   2.261344e+02
   1.613362e+00   1.238038e+02
  -1.626297e+01   9.755391e+01
  -1.701253e+02   1.462299e+02
  -2.087072e+02   1.165812e+01
  -1.780466e+02  -9.287771e+01
  -9.187893e+01  -2.116028e+02
   6.629025e+01  -1.180087e+02
   1.620928e+02   6.700164e+01
   1.148064e+02   1.709643e+02
  -1.622060e+01   1.864380e+02
  -1.673656e+02   1.601042e+01
  -2.198842e+02  -1.368860e+02
  -1.515615e+02  -2.562852e+02
   6.274457e+01  -2.320613e+02
   1.178512e+02  -1.482478e+02
   1.178544e+02  -9.414895e+01
   1.232723e+02  -2.509155e+01
   2.655820e+02  -1.406843e+01
   3.686092e+02   2.087866e+01
   1.230985e+02   2.421736e+02
  -1.156545e+01   3.236192e+02
  -2.968956e+02   2.423969e+02
  -3.198076e+02   5.779041e+01
  -1.557056e+02  -5.008599e+01
   4.888668e+00  -1.486765e+02
   6.198046e+01  -1.401348e+02
  -5.708514e+00  -1.004597e+01
  -1.008613e+02  -2.379869e+00
  -9.139086e+01  -1.420347e+01
   7.285664e+00  -1.571023e+02
   7.214654e+01  -6.538121e+00
   7.622715e+01  -1.732922e+01
   1.551177e+01   1.254714e+02
  -1.493449e+02  -8.599000e+00
  -8.811818e+01  -2.070645e+02
   2.111746e+01  -1.883650e+02
   1.925237e+02  -2.212139e+02
   3.281764e+02  -1.033633e+01
   1.865793e+02   1.771854e+02
  -8.765597e+00   2.258447e+02
  -1.010439e+02   1.495975e+02
  -1.202177e+02   1.492892e+01
  -1.264349e+01  -2.900185e+01
  -8.479819e+00   8.170945e+01
   1.581240e+00   9.310875e+01
  -9.702184e+01   3.964117e+01
  -1.206307e+02  -1.724767e+01
  -4.468085e+01  -1.056777e+01
   8.584919e+01   1.164873e+01
   4.544990e+01   4.064617e+01
  -9.991064e+01   9.171626e+01
  -2.282683e+02  -5.031845e+01
  -1.750693e+02  -1.465862e+02
  -5.843637e+01  -1.872197e+02
   1.329452e+02  -2.131512e+02
   1.891281e+02  -4.188245e+01
   5.344216e+01   4.132518e+01
  -3.017047e+01   6.380770e+01
  -2.921564e+01  -3.268888e+01
   3.744147e+01  -6.071122e+01
   9.550650e+01   1.099325e+01
   1.419815e+02   1.087541e+02
   3.609998e+01   1.752594e+02
  -8.127239e+01   4.962903e+01
  -9.494422e+01   2.165729e+01
   3.731993e+00  -3.397585e+01
   1.291979e+01   1.935608e+01
  -1.834974e+01   1.103237e+02
  -8.921541e+01   6.764778e+01
  -2.003346e+02   1.064662e+01
  -1.216546e+02  -1.136808e+02
  -3.513669e+00  -1.212357e+02
   9.383189e+01  -6.751709e+01
   1.020357e+02  -2.153079e+01
   7.199694e+01   1.220581e+01
  -6.917888e+01   8.750831e+01
  -8.408958e+01   3.773595e+01
  -3.144255e+01  -2.162283e+01
   3.755999e+01  -2.406188e+01
   3.529389e+00   2.731121e+01
  -3.955497e+01   4.145790e+00
  -6.586293e+01  -7.929790e+01
  -3.433303e+01  -1.660904e+02
   1.832827e+02  -1.315204e+02
   1.617492e+02  -1.288928e+01
   1.171296e+02   1.240812e+02
  -4.454684e+01   1.546045e+02
  -1.190994e+02   1.366234e+02
  -8.262380e+01   1.679062e+01
  -5.584934e+01  -2.653283e+01
  -7.661102e+01   3.874607e+00
  -6.768428e+01  -1.233045e+01
  -1.002956e+02  -1.337471e+01
  -2.400933e+01   1.215879e+01
  -1.517440e+01  -7.554967e+01
   1.109726e+02  -1.076530e+02
   9.745271e+01   3.245346e+00
   1.136892e+00   1.287245e+02
  -1.416338e+02   8.868196e+01
  -1.620075e+02  -5.593137e+01
  -3.453957e+01  -1.344457e+02
   7.929248e+01  -1.261812e+02
   1.937015e+02  -1.002736e+02
   2.094465e+02   7.863985e+01
   8.818720e+01   1.375692e+02
   2.034012e+01   1.393862e+02
  -4.684161e+01   6.829943e+01
  -4.123312e+01   2.363185e+01
  -3.157268e+01   1.021809e+02
  -6.098080e+01   8.166077e+01
  -5.710324e+01  -4.216052e+01
  -1.108157e+02  -1.080415e+02
  -2.694690e+01  -1.595097e+02
   1.337488e+02  -1.281634e+02
   1.767142e+02   1.380533e+01
   8.800861e+01   8.616693e+01
  -1.227693e+01   1.477016e+02
  -8.066603e+01   2.531580e+01
  -7.481294e+01  -1.110828e+01
   4.423987e+00  -4.355828e+01
   9.496420e-01  -5.317590e+01
  -3.378156e+01  -3.192463e+01
  -7.091764e+01   1.715455e+01
  -5.015698e+01  -6.404655e+01
   1.052545e+02  -3.115331e+01
   1.352025e+02   3.774645e+01
   1.241991e+02   7.640905e+01
  -2.838460e+01   5.240472e+01
  -5.335729e+01   1.898921e+01
  -9.235231e+01  -7.393321e+00
  -1.811859e+01  -4.701353e+01
   5.395926e+01  -3.691250e+01
   7.239812e+01   2.924526e+01
   2.416132e+01   1.054533e+01
  -9.564985e+00   2.644474e+01
  -6.695364e+01   1.914743e+01
  -2.420878e+01  -3.124604e+01
  -4.925052e+01  -4.152387e+01
  -4.622173e+01  -2.031980e+01
  -6.541447e+01   1.590158e+01
  -4.558724e+01  -4.526435e+01
   4.033016e+01  -8.596920e+01
   1.142458e+02  -1.559219e+02
   1.347313e+02  -3.254369e+01
   8.609433e+01   7.001996e+01
   1.442805e+01   7.881347e+01
  -8.979117e+01   6.077440e+01
  -4.711836e+01   2.518272e+00
   6.207263e+01  -1.575807e+01
   5.532854e+01   1.250349e+01
   3.612174e+01   1.104475e+02
  -1.247262e+02   3.933713e+01
  -1.294729e+02   6.838711e+01
  -1.487346e+02  -5.876155e+01
  -2.567908e+01  -5.009324e+01
   3.026544e+01  -1.715527e+01
   5.199013e+01   4.246265e+01
  -2.003887e+01   7.352474e+01
  -6.130254e+01  -4.092291e+01
  -1.551799e+01  -8.221102e+01
   1.028849e+02  -9.030426e+01
   1.191321e+02  -5.458518e+01
   6.874205e+01   8.286907e+01
  -8.219607e+00   1.190547e+02
  -2.446519e+01   1.237688e+02
  -9.387868e+01  -5.602178e+00
  -3.568929e+00  -6.595628e+01
   3.352507e+01  -1.169595e+02
   2.037822e+01   2.003125e+01
   3.467765e+01   3.134930e+01
   2.141195e+01  -2.487225e+01
   7.065769e+00  -2.699311e+01
   5.288295e+00   4.012196e+01
   2.750443e+01   3.098078e+01
   1.581140e+01   1.006429e+02
  -5.007769e+01   4.703362e+01
  -1.023021e+02  -2.713392e+01
  -7.381888e+01  -2.359214e+01
  -3.659178e+00  -2.765000e+01
   8.536747e+01  -2.699535e+01
   1.036915e+02   2.060091e+01
   9.650841e+00   2.386443e+01
  -6.848026e+01   9.043041e-01
  -4.002275e+01  -2.993971e-01
  -9.854572e+00  -2.347505e+01
  -1.742538e+01   2.745822e+00
  -7.178087e+01   3.261418e+00
  -7.646940e+01  -1.775744e+01
  -7.203826e+01  -3.198478e+01
   1.123519e+02  -9.784220e+01
   1.624715e+02  -8.159260e+01
   9.970332e+01   7.740266e+00
   1.851939e+01   1.058388e+02
  -8.263501e+01   1.425381e+02
  -7.859335e+01   6.264337e+01
  -1.074049e+02  -5.226979e+01
  -8.453431e+00  -6.177735e+01
  -2.464114e+01   1.131839e+01
  -2.963681e+01   3.402662e+01
  -3.195559e+01  -1.505832e+01
  -2.515939e+01  -3.045623e+01
   2.672599e+00  -8.329438e+01
   9.676347e+01   8.795079e+00
   1.667910e+01   4.367945e+01
  -2.684295e+01   7.706973e+01
  -7.397220e+01   3.161041e+01
  -8.069652e+01  -5.502553e+01
  -1.262944e+01  -5.916651e+01
   7.876331e+01  -5.559386e+01
   1.057420e+02   6.801145e+00
   1.326810e+01   9.665122e+01
   3.085256e+00   4.320819e+01
  -2.247826e+01   7.686020e+00
   3.591345e+01  -1.245543e+01
   6.124812e+01  -2.947642e+01
   3.039814e+01   5.516452e+01
  -4.830066e+01   3.880362e+01
  -1.025371e+02   6.887388e+01
  -5.427044e+01  -2.029257e+01
   2.314115e+01  -6.562622e+01
   3.481770e+01  -4.377812e+01
   2.402011e+01  -7.333087e+01
   4.940545e+01   3.439553e+01
  -2.475800e+01   4.830806e+01
  -5.303431e+01  -3.618167e+01
  -4.647169e+01  -5.267434e+01
   3.164035e+01  -4.627139e+01
   7.515314e+01   1.260406e+01
   4.792385e+01   5.188988e+01
  -6.488522e+00   2.964257e+01
  -1.498956e-01   6.787723e-01
  -4.719593e+00  -4.470403e+01
   2.565080e+01   1.383891e+01
  -1.234712e+00   6.972492e+01
   4.404036e+00   1.146254e+01
  -4.776459e+01   7.425277e+00
   5.270554e+00  -4.210902e+01
   7.101647e+00  -6.000004e+01
   8.389472e+01   5.782828e+01
   1.870088e+01   2.924668e+01
  -8.797159e+01   6.982067e+01
  -8.836647e+01   3.759310e+00
  -5.603925e+01  -6.867111e+01
   1.231798e+00  -3.552790e+01
   7.710863e+01  -4.353133e+01
   4.192945e+01  -6.872396e+00
  -9.258379e+00   6.292180e+00
  -3.422912e+01   2.224417e+01
   9.124901e+00   1.236270e+01
   3.176349e+01  -3.798959e+00
