
 $NMID
 id='ANONYMOUS ', fmtdat='(2E16.6)'
 volume=1.0
 tramp=1.0
 $END
  -2.985750e+03   1.734997e+01
  -2.142912e+03  -1.157603e+03
  -1.451463e+02  -1.621515e+03
   9.125910e+02  -1.229019e+03
   7.917690e+02  -4.802720e+02
   1.905640e+02   1.604133e+02
  -4.211175e+02  -2.165298e+02
  -1.131319e+02  -5.281071e+02
   4.146020e+02  -5.540419e+02
   5.508146e+02  -1.848641e+02
   4.521835e+02   4.127066e+02
   5.905866e+01   6.408468e+02
  -2.300657e+02   1.277337e+02
  -2.667245e+02  -5.115309e+02
   1.506320e+02  -5.065547e+02
   3.653181e+02  -1.352035e+02
   3.284231e+02   4.466832e+02
   1.423722e+01   5.319785e+02
  -4.174809e+02   3.288632e+02
  -4.389342e+02  -1.939525e+02
  -1.927877e+02  -3.805151e+02
   9.936052e+01  -1.635723e+02
   4.978073e+01  -1.575247e+02
  -1.896285e+02  -8.353853e+01
  -2.802960e+02  -2.635953e+02
   5.738566e+01  -2.926933e+02
   5.070944e+02  -1.495417e+02
   6.092735e+02   5.762426e+01
   2.102122e+02   2.763819e+02
  -2.681308e+02   1.774080e+02
  -4.390320e+02   3.630071e+00
  -3.179102e+02  -3.038625e+02
   2.853526e+02  -2.770016e+02
   3.249749e+02  -1.288421e+02
   3.723962e+02   7.779352e+01
   1.088382e+02   2.965765e+02
  -1.250368e+01   1.959502e+02
   9.321418e+01  -6.740228e+01
   1.286648e+02  -1.005478e+02
   1.497659e+02   7.330213e+01
  -4.886756e+00   3.799020e+02
  -1.125046e+02   3.178759e+02
  -2.726751e+02   7.113930e+01
  -2.114706e+01  -2.249829e+02
   1.568186e+02  -6.315977e+01
   1.037964e+02   2.659031e+02
  -1.215180e+02   3.759133e+02
  -3.877548e+02   1.124779e+01
  -3.602988e+02  -2.544426e+02
  -1.778793e+02  -4.500893e+02
   2.810569e+02  -2.911347e+02
   5.017293e+02   1.105845e+01
   2.807522e+02   2.668140e+02
  -6.982133e+01   2.289582e+02
  -2.503882e+02   1.598454e+02
  -1.695450e+02   4.700524e+01
  -2.026538e+01  -5.035337e+01
   2.588084e+01  -4.217674e+00
  -1.073954e+02   2.542750e+01
  -1.741121e+02   3.758110e+01
  -1.316486e+02  -1.552842e+02
   1.291308e+02  -2.296873e+02
   2.890360e+02  -1.380241e+02
   2.207323e+02   7.123922e+00
   1.571835e+01   2.923270e+02
  -2.266215e+02   3.658266e+02
  -3.457648e+02   1.088431e+02
  -1.603014e+02  -1.844973e+02
  -2.247161e+01  -3.439886e+02
   1.273943e+01  -2.718251e+02
   2.797460e+00  -1.375739e+02
   3.557292e+01  -1.316192e+02
   1.267716e+02  -1.214559e+02
   2.587472e+02  -3.650636e+01
   1.973717e+02   7.069788e+01
   1.670569e+02   1.979832e+02
  -8.728309e+01   1.770831e+02
  -1.986159e+02  -9.125191e+01
  -1.719266e+02  -2.458646e+02
   1.226548e+01  -2.515876e+02
   2.170156e+02  -4.878514e+01
   2.627943e+02   1.480187e+02
   1.458401e+02   2.790029e+02
  -7.790978e+00   2.450777e+02
  -1.546544e+02   1.373471e+02
  -1.178325e+02   1.232381e+02
  -1.421457e+02   2.898662e+01
  -3.270698e+02   4.864615e+01
  -3.689634e+02  -4.678515e+01
  -2.103517e+02  -2.934823e+02
  -5.277996e+01  -3.612320e+02
   3.793279e+02  -2.749786e+02
   3.946503e+02  -1.119350e+02
   2.493924e+02   1.019092e+02
  -1.273088e+01   1.875678e+02
  -9.820366e+01   2.048911e+02
   1.312971e+00  -1.892080e+00
   9.762123e+01  -1.926732e+01
   1.884635e+02   1.199211e+01
   2.249137e+01   1.216318e+02
  -8.580575e+01   9.429274e+01
  -7.211190e+01  -1.182022e+01
  -2.304765e+01  -1.464694e+02
   1.402048e+02   5.243445e+01
   8.635096e+01   1.993301e+02
   1.211724e+01   3.459170e+02
  -1.948456e+02   2.552048e+02
  -2.870032e+02  -6.852919e+01
  -2.804320e+02  -2.775879e+02
  -5.565354e+01  -2.356125e+02
   1.783550e+02  -1.392643e+02
   1.209727e+02  -2.136828e+01
   4.881839e+01   8.596739e+00
  -8.099190e+01  -6.945368e+01
  -2.030368e+01  -8.267682e+01
   9.231919e+01  -4.045121e+01
   1.095844e+02  -7.840330e+00
   5.981124e-01   6.794793e+00
  -9.236088e+01   2.775480e+01
  -6.144369e+01  -6.573892e+01
   9.971638e+01  -1.201894e+02
   3.008967e+02  -5.707309e+00
   2.558429e+02   1.608250e+02
   2.021723e+01   2.823108e+02
  -2.010986e+02   2.578400e+02
  -2.371774e+02   8.780996e+01
  -1.344107e+02  -3.827131e+01
   3.810903e+00  -3.812803e+01
   9.846560e+01   2.287612e+00
  -4.626147e+01   9.799412e+01
  -1.805779e+02   2.231450e+01
  -1.481900e+02  -8.792150e+01
  -9.990134e+01  -1.948966e+02
   6.906825e+01  -1.362872e+02
   7.797418e+01  -1.786132e+01
   3.349998e+01   5.620022e+01
  -4.196944e+01  -3.936428e+01
  -2.349612e+01  -1.263451e+02
   1.056614e+02  -1.173962e+02
   2.557043e+02  -1.469840e+01
   1.619832e+02   1.420006e+02
  -1.384187e-01   1.541729e+02
  -1.365960e+02   1.156409e+02
  -1.559366e+02   1.557816e+00
  -2.712267e+01  -1.061642e+02
   5.007420e+01  -1.272529e+02
   8.142358e+01  -1.688375e+01
   3.599357e+01  -1.385337e-01
  -4.894559e+01  -2.810683e+00
   2.801352e+01  -4.776474e+01
   9.368449e+01  -1.485192e+01
   1.368598e+02   6.133154e+01
  -1.161521e+01   1.812648e+02
  -1.569368e+02   1.829953e+02
  -1.937766e+02   1.551018e+01
  -1.313071e+02  -1.178503e+02
  -2.293537e+01  -1.848924e+02
   1.227575e+02  -1.249289e+02
   1.275166e+02  -2.477207e+01
   7.277532e+01   6.347678e+00
  -1.415963e+01  -6.308313e+00
   4.384650e+01  -3.554206e+00
   6.649081e+01   1.251333e+01
   1.363462e+01   2.707480e+01
  -4.392822e+01   7.640525e+01
  -1.016723e+02   6.745346e+01
  -8.307570e+01  -5.087003e+01
   3.854387e+01  -1.489359e+02
   1.904589e+02  -1.120528e+02
   1.518699e+02   9.231165e+01
   7.446757e+01   1.869782e+02
  -6.481709e+01   1.942843e+02
  -2.439226e+02   9.937745e+01
  -2.312807e+02  -4.418179e+01
  -9.053747e+01  -1.963825e+02
   4.322438e+01  -1.168267e+02
   8.324285e+01  -4.723291e+01
   4.152715e+01  -6.125755e+01
   4.577534e+01  -1.254149e+02
   8.784035e+01  -3.815698e+01
   1.417464e+02   3.354552e+01
   1.173496e+02   1.866906e+02
   4.323533e+01   1.892229e+02
  -1.198871e+02   1.587840e+02
  -1.791901e+02   1.866580e+01
  -1.038620e+02  -1.254996e+02
  -3.972303e+01  -1.672321e+02
   5.301466e+01  -5.678596e+01
   7.595591e+01   6.426625e+01
  -7.592477e+00   2.699034e+01
  -1.785917e+01   1.651310e+01
   3.682901e+01   1.058401e+01
   1.020303e+02   1.347281e+01
   1.452995e+01   6.244257e+01
  -9.039802e+01   4.943040e+01
  -1.678863e+02  -2.369417e+01
  -1.034158e+02  -6.162281e+01
  -2.189426e+01  -3.523219e+01
   1.233564e+02  -5.660962e+01
   1.063523e+02   4.090077e+01
   2.792784e+01   4.138075e+01
  -6.006167e+01   5.485248e+01
  -6.924555e+01  -7.112078e+00
  -3.288331e+01  -3.904848e+01
   5.357744e+01  -6.325794e+01
   5.954814e+01  -3.307018e+01
   4.767205e+01   6.203864e+01
   2.430702e+01   5.325824e+01
   2.507075e+01  -2.024715e+01
   2.745497e+01   1.160732e+01
   4.527882e+01   7.466398e+01
   1.241576e+01   1.674464e+02
  -1.209236e+02   1.485383e+02
  -1.794012e+02  -1.063930e+01
  -1.147397e+02  -6.404097e+01
   3.223037e+00  -1.690468e+02
   9.484978e+01  -3.494346e+01
   6.466227e+01   3.713372e+01
  -8.260670e+01   1.616381e+01
  -1.062350e+02   4.198466e+01
  -1.294909e+02  -1.345984e+02
   1.265563e+02  -1.279137e+02
   1.769282e+02   2.505503e+00
   1.194507e+02   5.849411e+01
   4.544213e+01   9.751794e+01
  -6.166062e+01   6.406431e+01
  -2.199341e+01   3.774893e+01
   4.794300e+01  -3.243911e+01
   1.166611e+02   2.262376e+01
   3.617863e+01   1.213511e+02
  -6.613747e+01   1.448715e+02
  -1.266222e+02   8.339127e+01
  -1.269098e+02  -4.988099e+01
  -2.600913e+01  -1.370246e+02
   6.458831e+01  -1.730419e+02
   1.266074e+02  -1.884203e+01
   6.390666e+01   1.001218e+02
   2.453665e+01   7.572590e+01
  -7.581542e+01  -7.459570e+00
  -2.612698e+01  -1.674657e+01
  -2.790374e+01  -1.799753e+01
  -4.674442e+00   1.668516e+01
  -2.189075e+01  -4.092411e+01
  -8.389009e+01  -9.698090e+01
  -2.135914e+01  -7.776322e+01
   6.274476e+01  -3.136188e+00
   1.092531e+02  -1.272744e+01
   7.633455e+01   6.551259e+01
   1.967647e+01   2.193138e+01
  -1.091901e+02   2.028664e+01
  -5.454550e+01  -6.756649e+00
  -3.299521e+01  -4.052230e+00
   2.028741e+01   1.727073e+01
   8.375509e+00  -2.920675e+01
  -3.044585e+01   2.716412e-01
  -1.819506e+01  -2.494212e-01
   5.128524e+01  -3.226072e+01
   9.505204e+01   5.768540e+01
   4.551100e+01   6.892793e+01
  -1.292953e+02   1.321265e+02
  -1.918536e+02   5.293948e+01
  -1.427065e+02  -7.896565e+01
  -4.144563e+01  -1.309400e+02
   5.599342e+01  -2.260447e+02
   1.076673e+02  -7.124777e+01
   1.012026e+02   1.917092e+01
   4.520399e+01   5.778849e+00
   2.531772e+01   1.628887e+00
  -1.025037e+01  -2.366913e+01
   1.498367e+01   5.129768e+01
  -9.515742e+00   6.324130e+01
  -1.539370e+01   9.016314e+01
  -8.066104e+01  -1.114361e+00
  -8.718616e+01  -1.266385e+02
   8.465384e+00  -1.162477e+02
   9.242541e+01  -5.244696e+01
   8.816038e+01   5.836948e+01
   2.374899e+01   6.645047e+01
  -2.930030e+01   1.045079e+02
  -8.841962e+01   3.449412e+00
  -2.546351e+01  -8.104087e+01
   1.153438e+01  -5.390094e+01
   7.944815e+00  -2.019310e+01
  -3.919741e+01   4.979617e+01
  -1.042462e+02   2.384578e+01
  -5.907271e+00   1.080510e+01
   5.983251e+01  -5.295790e+01
   8.494821e+01  -5.903487e+01
   3.976609e+01   6.251773e+00
  -3.694375e+01   9.045288e+01
  -7.390448e+01   9.319820e+01
  -7.260586e+01   3.406074e+01
  -1.499196e+01  -3.669473e+01
   3.382292e+01  -7.457622e+01
   3.701063e+01   2.043370e+01
   5.026374e+00   5.500049e+01
   5.654125e+00   4.444674e+01
  -2.724138e+01  -3.890076e+01
  -3.659768e+01  -4.322918e+01
  -4.438553e+01  -2.677027e+01
   1.230000e+01   7.137854e+00
  -9.312337e+00  -3.672064e+01
  -6.483471e+01  -4.441142e+01
   7.167432e+00  -5.331296e+01
  -7.307309e+00  -2.129414e+01
   6.660215e+01   1.666179e+01
   1.465855e+01   4.529430e+01
  -7.372974e+01  -2.501884e+01
  -9.860874e+01  -4.504832e+01
  -3.741342e+01  -8.389917e+01
   3.257151e+01  -4.389044e+01
   8.073952e+01   7.306134e+00
   4.051949e+01   1.866892e+01
  -4.773212e+01   5.334210e+01
  -5.738462e+01   7.476047e+01
  -4.368310e+01   1.128998e+01
   2.968421e+00  -1.280123e+01
   2.943410e+01  -3.028029e+01
  -6.859563e+01   3.870765e+01
  -1.064456e+02  -2.511236e+00
