
 $NMID
 id='ANONYMOUS ', fmtdat='(2E16.6)'
 volume=1.0
 tramp=1.0
 $END
  -3.368535e+03  -6.823966e+01
  -2.300487e+03  -1.646548e+03
   4.704089e+02  -2.220349e+03
   1.231152e+03  -1.320980e+03
   1.007973e+03  -1.195247e+02
   7.966749e+01   2.605115e+02
  -4.480726e+02  -1.576116e+02
  -3.268647e+01  -3.953273e+02
   4.135726e+02  -4.425714e+02
   6.727801e+02  -5.167577e+01
   2.703828e+02   5.976119e+02
  -1.418971e+02   5.466880e+02
  -2.846274e+02   9.619203e+01
  -2.043939e+02  -4.626917e+02
   2.199614e+02  -5.582897e+02
   3.526420e+02  -1.148709e+02
   3.882401e+02   4.704207e+02
  -1.231271e+02   5.865788e+02
  -4.588171e+02   1.506571e+02
  -3.707359e+02  -1.907605e+02
  -1.640593e+02  -3.613052e+02
   1.461699e+02  -2.534552e+02
   9.594418e+01  -6.350963e+01
  -1.350057e+02  -7.056698e+01
  -2.510561e+02  -2.445917e+02
  -1.077338e+01  -3.324476e+02
   4.550727e+02  -1.357729e+02
   6.164657e+02   1.672514e+02
   2.038561e+02   2.834765e+02
  -2.431799e+02   2.995288e+02
  -4.244869e+02   6.448118e+01
  -1.584839e+02  -3.610712e+02
   2.211334e+02  -2.887914e+02
   4.287220e+02  -1.333159e+02
   3.465516e+02   1.399339e+02
   8.764476e+01   3.579127e+02
  -2.529835e+01   1.782012e+02
   4.582219e+01  -1.262011e+02
   1.475051e+02  -2.257107e+02
   2.401987e+02   1.661175e+02
   2.173192e+00   4.045958e+02
  -1.642055e+02   5.241673e+02
  -4.605917e+02  -1.789038e+01
  -1.536359e+02  -2.154280e+02
   1.064920e+02  -1.517175e+02
   1.290527e+02   3.052401e+02
  -1.255415e+02   4.705488e+02
  -4.880056e+02   9.056361e+01
  -3.919888e+02  -2.716893e+02
  -1.254520e+02  -4.957180e+02
   3.146729e+02  -3.401642e+02
   4.316754e+02   3.821387e+01
   3.789085e+02   3.450451e+02
  -6.049371e+01   3.029260e+02
  -2.120035e+02   9.083853e+01
  -1.982517e+02   5.751925e+00
   6.292051e+01  -7.911816e+01
   1.031729e+02   4.193062e+01
  -1.104786e+02   9.553666e+01
  -1.881977e+02   3.012248e+00
  -9.935245e+01  -2.157895e+02
   1.166210e+02  -1.698803e+02
   3.538662e+02  -1.236476e+02
   3.075126e+02   1.081619e+02
  -1.085476e+01   2.936727e+02
  -2.979888e+02   3.414634e+02
  -3.705384e+02   7.475469e+01
  -2.449128e+02  -1.371672e+02
  -1.995490e+01  -3.817315e+02
  -1.936099e+01  -2.955998e+02
   5.022974e+01  -1.448074e+02
   4.216207e+01  -3.421477e+01
   9.068024e+01  -1.003737e+02
   2.534725e+02  -1.893531e+01
   2.454164e+02   1.463492e+02
   1.156845e+02   1.946883e+02
  -7.862386e+01   2.065848e+02
  -1.615687e+02   5.552770e+00
  -1.474561e+02  -1.725034e+02
   7.305482e+01  -2.676444e+02
   2.538880e+02  -8.932131e+01
   2.554332e+02   1.430978e+02
   1.423747e+02   2.623347e+02
  -1.179596e+02   2.689196e+02
  -2.062584e+02   1.089602e+02
  -1.645219e+02   8.041796e+01
  -1.028888e+02   7.534141e+01
  -2.223728e+02   5.353829e+01
  -3.542183e+02  -8.834609e+01
  -2.612978e+02  -3.602739e+02
  -3.211380e+01  -4.439822e+02
   3.754861e+02  -3.739947e+02
   5.097897e+02  -1.426633e+02
   2.791862e+02   1.272564e+02
   4.342894e+01   2.100619e+02
  -1.534027e+02   2.168098e+02
   2.479275e+01   5.902687e+01
   9.966243e+01  -4.194866e+01
   1.755204e+02   5.893732e+01
   1.948808e+01   1.774670e+02
  -7.990632e+01   8.613326e+01
  -1.510372e+02  -1.031660e+00
  -1.091981e+01  -1.331142e+02
   1.816214e+02  -1.442491e+01
   1.409483e+02   2.975760e+02
  -3.204501e+01   2.990154e+02
  -1.842083e+02   1.794253e+02
  -3.798411e+02  -9.486719e+01
  -2.466086e+02  -2.419609e+02
  -6.013873e+01  -2.576085e+02
   1.801527e+02  -1.764144e+02
   1.308285e+02  -1.324717e+01
   1.331601e+01   7.883995e+01
  -6.192712e+01  -5.705645e+01
  -5.351395e+01  -9.452972e+01
   1.124398e+02  -3.832040e+01
   1.664442e+02  -2.713037e+01
   5.637202e+01   4.534907e+01
  -9.092892e+01   3.199146e+00
  -5.385500e+01  -7.786583e+01
   1.064293e+02  -6.192416e+01
   2.533454e+02   2.230356e+01
   2.210915e+02   1.464104e+02
   5.319287e+01   2.495498e+02
  -2.005064e+02   2.440091e+02
  -2.032411e+02   9.297682e+01
  -1.334235e+02  -7.899736e+01
   8.290131e+01  -5.553778e+01
   6.250959e+01   9.409498e+00
  -4.346994e+01   6.761877e+01
  -1.844610e+02   2.862576e+01
  -1.484220e+02  -1.811598e+02
  -6.309816e+01  -1.661209e+02
   8.626409e+01  -1.271046e+02
   1.380063e+02  -9.039298e+00
   2.656560e+01   1.813060e+01
  -3.731179e+01  -3.671105e+01
  -6.907533e+01  -9.325666e+01
   8.597235e+01  -1.126559e+02
   1.912424e+02  -1.696184e+01
   1.187006e+02   1.248443e+02
   5.584823e+01   1.978398e+02
  -1.229942e+02   1.791402e+02
  -2.451562e+02  -2.439642e+01
  -6.244659e+01  -1.104753e+02
   3.862470e+01  -9.466563e+01
   9.957542e+01  -8.838682e+00
   9.746619e+00   1.516764e+01
  -7.045924e+01  -2.247952e+01
   1.144136e+00  -6.954497e+01
   5.373123e+01  -3.308858e+01
   1.280729e+02   1.099618e+02
   4.498858e+01   1.527373e+02
  -1.787703e+02   1.102857e+02
  -2.000272e+02   3.209099e+01
  -1.320721e+02  -1.884807e+02
  -1.758575e+01  -1.999562e+02
   1.253901e+02  -1.854023e+02
   1.258578e+02  -1.601267e+01
   5.284254e+01   4.548599e+01
  -1.900083e+01  -1.921870e+01
   2.335272e+01   1.814518e+01
   8.134773e+01   3.820105e+01
   6.851213e+01   5.487416e+01
  -5.196038e+01   1.270109e+02
  -1.142262e+02   5.548284e+01
  -1.283544e+02  -2.729140e+01
   6.057210e+00  -1.079825e+02
   1.314396e+02  -1.285604e+02
   1.868890e+02   1.052222e+02
   1.677841e+02   1.944706e+02
  -1.244041e+02   1.823939e+02
  -2.793061e+02   6.043108e+01
  -1.837737e+02  -8.136481e+01
  -9.093893e+01  -1.437998e+02
   5.360409e+01  -1.470940e+02
   8.773673e+01  -2.772232e+01
   8.443052e+01  -6.300978e+01
   6.872223e+01  -6.132750e+01
   8.678883e+01  -9.639757e+01
   1.074701e+02   9.630506e+00
   8.063132e+01   1.435881e+02
  -2.411788e+01   1.810351e+02
  -1.055679e+02   1.583654e+02
  -1.767314e+02   3.293283e+01
  -1.358621e+02  -1.276677e+02
  -2.544693e+01  -1.583424e+02
   7.563158e+01  -7.445330e+01
   3.066277e+01   2.037599e+01
  -2.836517e+01   3.630976e+01
  -3.722161e+01  -1.248772e+01
  -2.114935e-01   6.094344e+00
   1.144106e+02   3.808341e+01
   7.285871e+01   5.439585e+01
  -6.900533e+01   2.743888e+01
  -1.265149e+02   2.051794e+01
  -1.337951e+02  -5.860409e+01
  -1.065511e+01  -9.048141e+01
   1.549262e+02  -4.670603e+01
   1.636136e+02   1.004244e+01
   2.113345e+01   7.264576e+01
  -7.221663e+01   1.510571e+01
  -8.849522e+01  -7.024208e+01
  -9.401946e+00  -8.385616e+01
   3.367183e+01  -4.184310e+01
   7.109357e+01   1.333907e+01
   1.897765e+01   2.844425e+01
   9.334174e+01   4.009696e+01
   6.804146e+01   9.396115e+00
   5.620383e+01   3.945478e+01
   4.648438e+01   4.976503e+01
  -1.404452e+01   1.346830e+02
  -1.243004e+02   1.772164e+02
  -1.779724e+02   2.242743e+01
  -1.598467e+02  -1.273546e+02
  -7.457814e+00  -1.260976e+02
   1.264588e+02  -6.823536e+01
   4.383740e+01   8.223959e+00
  -4.400986e+01   4.080539e+01
  -1.136989e+02  -2.302099e+01
  -8.496312e+01  -1.049834e+02
   3.092667e+01  -1.177375e+02
   2.046592e+02  -5.548302e+01
   1.372468e+02   4.802725e+01
   4.197248e+00   6.280227e+01
  -6.450405e+01   5.299931e+01
  -5.790282e+01  -5.367662e+01
   5.414351e+01  -4.297448e+01
   4.877005e+01   2.604658e+00
   3.672554e+01   1.041357e+02
  -9.145827e+01   1.632821e+02
  -9.193930e+01   5.694447e+01
  -1.215528e+02  -7.178611e+01
  -5.405904e+00  -1.754900e+02
   9.514472e+01  -1.024218e+02
   7.957125e+01   1.611592e+01
   3.609286e+01   1.206699e+02
  -2.120774e+01   8.391440e+01
  -5.465185e+01   3.186371e+01
  -1.077436e+01  -2.962330e+01
  -9.207082e+00  -4.098426e+00
  -1.345814e+01   1.403815e+01
  -1.309213e+01   1.464709e+00
  -3.212113e+01  -5.618445e+01
   2.089607e+01  -8.599258e+01
   7.351099e+01  -5.493667e+00
   1.354766e+02   7.059850e+01
   8.895579e+01   6.094227e+01
   4.339083e+01   4.316163e+01
  -5.281872e+01   1.706796e+01
  -8.290084e+01   8.598456e-01
  -4.488543e+01  -2.194158e+00
   2.317105e+01  -4.256190e+01
   5.091573e+00  -4.178652e+01
  -2.576833e+01  -2.199449e+00
   5.824729e+00   4.325490e+01
   6.799497e+01   1.134650e+01
   1.240016e+02   4.378460e+00
   1.558114e+01   5.911071e+01
  -6.947554e+01   9.995738e+01
  -1.588474e+02   3.887220e+01
  -1.329896e+02  -3.077070e+01
  -1.772539e+01  -1.632334e+02
   5.992147e+01  -1.602280e+02
   1.099816e+02  -8.465489e+01
   3.931619e+01   1.174550e+01
  -9.288907e-01   3.354704e+01
  -3.211577e+01   2.168917e-01
   4.575030e+00   5.924948e+00
   4.105695e+01   3.360190e+01
   4.358500e+01   4.954754e+01
  -2.146965e+01   8.926105e+01
  -3.794520e+01  -5.115166e+01
  -1.940548e+01  -9.372802e+01
  -3.404757e+01  -8.456061e+01
   7.110702e+01  -1.418262e+01
   8.077858e+01   6.466472e+01
   3.174600e+01   1.060173e+02
  -3.830326e+01   9.741997e+01
  -1.147399e+02  -4.808477e+00
  -4.918312e+01  -4.368006e+01
   2.931439e+01  -6.816813e+01
   8.450017e+01   1.073452e+01
  -4.365949e+01  -3.472805e+01
  -9.344096e+01   1.027774e+01
  -2.433352e+01  -1.097652e+01
   7.827369e+01  -7.610767e+01
   1.313234e+02  -3.986012e+01
   5.029725e+01   2.949080e+01
  -7.853370e+01   9.427354e+01
  -3.306439e+01   7.248048e+01
  -6.702930e+01  -4.298677e+00
  -4.704883e+01  -2.525555e+01
  -1.483815e+01  -5.543348e+01
   3.970988e+01   2.168538e+01
   7.501561e+01   3.684942e+01
   2.458180e+01   7.575698e+00
  -2.678484e+01  -4.946467e-01
  -5.376126e+01  -5.868965e+01
  -2.768681e+01  -3.138672e+01
  -2.489330e+01   2.463468e+01
   6.417010e+01   2.766246e+01
  -8.863296e+00  -3.627367e+01
  -3.852857e+00  -4.163785e+01
   3.912951e+01  -1.712991e+01
   6.545884e+01   1.247322e+01
  -3.008656e+01   3.414176e+01
  -6.122273e+01   1.162162e+01
  -2.992944e+01  -6.171310e+01
  -7.276629e+00  -4.643825e+01
   6.441322e+01  -3.103390e+01
   9.048188e+01  -5.039062e+00
   6.708445e+01   6.352244e+01
  -4.223339e+01   2.332800e+01
  -6.501204e+01   6.662148e+01
  -5.106719e+01   4.893219e+01
   2.548233e+01  -1.821292e+01
   9.610626e+00   8.996569e+00
   4.396025e+00   4.138119e+01
  -6.450145e+01  -8.822973e+00
