
 $NMID
 id='ANONYMOUS ', fmtdat='(2E16.6)'
 volume=1.0
 tramp=1.0
 $END
   2.288193e+03  -1.019766e+02
   1.964966e+03   1.048822e+03
   1.127084e+02   1.379950e+03
  -4.793520e+02   1.522920e+03
  -8.920754e+02   3.892685e+02
  -3.703094e+02  -3.297620e+01
   6.782375e+01   6.014722e+01
   2.514880e+02   2.043657e+02
  -1.415233e+02   4.542301e+02
  -5.006177e+02   1.161200e+02
  -3.401454e+02  -4.312567e+02
  -3.874180e+01  -4.972540e+02
   1.113229e+02  -1.271112e+02
   6.646500e+01   2.934506e+02
  -7.268283e+01   4.334475e+02
  -2.793523e+02   1.522889e+02
  -3.767859e+02  -3.586222e+02
  -6.894364e+00  -6.152003e+02
   3.792083e+02  -2.824629e+02
   4.364154e+02   3.399853e+01
   1.645330e+02   2.998288e+02
  -7.667908e+01   1.781576e+02
  -2.971244e+01   1.373185e+02
   1.255376e+02   1.451683e+02
   1.483596e+02   2.587958e+02
  -7.611022e+01   2.702103e+02
  -3.874599e+02   7.386680e+01
  -4.535814e+02  -2.084341e+02
  -1.712460e+02  -2.566963e+02
   2.542341e+02  -1.681666e+02
   3.990734e+02   8.186598e+00
   7.203895e+01   3.571098e+02
  -1.904186e+02   1.775309e+02
  -3.479075e+02   6.282723e+01
  -2.857106e+02  -8.491664e+01
  -6.327496e+01  -2.661768e+02
  -3.641284e+01  -1.615570e+02
  -6.845807e+01   3.445480e+01
  -1.279927e+02   6.718755e+01
  -8.362595e+01  -1.737380e+02
   1.021842e+02  -2.618396e+02
   2.329197e+02  -3.711422e+02
   2.055982e+02   7.456703e+00
  -5.967808e+00   1.157203e+02
  -2.555015e+01   3.782839e+01
  -6.301618e+01  -2.261903e+02
   2.066311e+02  -3.268042e+02
   3.900885e+02  -2.551652e+01
   3.335717e+02   2.777441e+02
   1.624630e+02   3.936649e+02
  -2.515360e+02   2.611254e+02
  -4.094832e+02  -8.135460e+01
  -2.751773e+02  -2.033353e+02
   5.781805e+01  -1.502846e+02
   1.986795e+02  -1.567714e+02
   2.208837e+02  -7.810640e+01
   4.157930e+01  -4.007587e+00
  -2.195245e+01   5.237835e+00
   7.733736e+01  -3.242778e+00
   1.618866e+02   3.915695e+01
   1.036935e+02   1.367701e+02
  -5.851944e+01   1.606846e+02
  -3.430788e+02   1.221647e+02
  -2.782236e+02  -4.001207e+01
   3.391537e+01  -2.636204e+02
   3.353446e+02  -3.125979e+02
   3.642134e+02  -1.029034e+02
   1.535755e+02   1.466740e+02
  -7.750064e+01   3.475004e+02
   3.633584e+01   2.401319e+02
   1.711659e+01   1.532693e+02
  -2.594918e+01   7.571286e+01
  -1.300871e+02   1.031326e+02
  -2.246242e+02   3.473633e+01
  -1.704029e+02  -2.160928e+02
  -9.886104e+01  -2.204607e+02
   3.743326e+01  -1.332026e+02
   1.340695e+02   7.047418e+01
   7.911946e+01   2.211644e+02
  -4.744983e+01   2.579954e+02
  -1.516475e+02   4.441153e+01
  -2.245558e+02  -1.703726e+02
  -7.897978e+01  -1.562609e+02
   9.471972e+01  -2.412401e+02
   1.020942e+02  -1.045484e+02
   1.251372e+02  -9.462251e+01
   1.443181e+02  -7.445683e+01
   2.463320e+02  -6.268517e+01
   3.746763e+02   5.366848e+01
   2.700456e+02   3.251756e+02
  -1.644027e+01   3.759514e+02
  -3.731045e+02   3.152987e+02
  -4.277129e+02   1.023951e+02
  -2.494917e+02  -6.112855e+01
  -2.398943e+01  -2.146994e+02
   6.194268e+01  -1.458652e+02
  -4.603893e+01  -9.460400e+00
  -9.769393e+01   2.763688e+01
  -7.387378e+01  -7.121325e+01
  -4.816682e+01  -1.310711e+02
   7.171517e+01  -5.985745e+01
   7.652911e+01  -3.389453e+00
  -2.998579e+01   1.373964e+02
  -1.318146e+02  -3.835598e+01
  -1.428756e+02  -2.409439e+02
   4.838757e+01  -2.732558e+02
   2.284037e+02  -2.000243e+02
   3.409998e+02   5.968739e+01
   2.488113e+02   2.372433e+02
  -1.121892e+01   2.253783e+02
  -1.391413e+02   1.516913e+02
  -9.809107e+01   1.242478e+01
   1.634472e+01  -1.587282e+01
   2.915819e+01   7.283683e+01
   6.223724e-01   6.789616e+01
  -1.130181e+02   4.492552e+01
  -8.948564e+01  -5.827933e+01
   3.200405e+01  -7.918344e+01
   8.673730e+01   3.279608e+01
   3.145550e+01   7.216309e+01
  -1.323806e+02   8.125276e+01
  -2.655722e+02  -1.543065e+01
  -2.170851e+02  -1.876714e+02
   3.108922e+01  -1.999357e+02
   1.766966e+02  -1.768317e+02
   2.356324e+02  -3.266870e+01
   1.078046e+02   6.695350e+01
  -5.731870e+01   5.539195e+01
  -3.509510e+01   1.183434e+01
   7.377103e+01  -3.003835e+01
   1.498969e+02   3.299091e+01
   1.353231e+02   1.352226e+02
   7.674567e+01   1.610184e+02
  -8.063692e+01   6.982265e+01
  -1.157560e+02   1.218631e+01
  -3.227505e+01  -1.135016e+01
   4.041314e+01   1.418903e+01
   1.762615e+01   8.966439e+01
  -1.394858e+02   9.282157e+01
  -2.156465e+02   3.790300e+01
  -1.338073e+02  -1.184858e+02
  -2.749852e+01  -1.834286e+02
   1.138023e+02  -1.231522e+02
   2.004165e+02   1.026614e+01
   1.976630e+01   5.646800e+01
  -6.816408e+01   9.473233e+01
  -3.415960e+01   4.787462e+01
   2.818023e+01   3.020035e+01
  -4.511653e-01  -5.693257e+01
   1.230362e+01   1.690293e+01
  -8.560935e+01  -6.487835e+00
  -8.957415e+01  -1.258439e+02
  -3.828570e+01  -1.683043e+02
   1.247082e+02  -1.534685e+02
   1.831907e+02  -8.886502e+00
   1.144067e+02   1.501487e+02
  -8.775810e+00   1.884487e+02
  -1.121840e+02   1.242628e+02
  -9.190558e+01   2.941369e+01
  -5.239845e+01  -2.053782e+01
  -5.775794e+01  -6.420372e+01
  -3.879130e+01   4.074733e+01
  -8.547673e+01  -7.581151e+00
  -3.947645e+01  -1.761508e+01
   6.206928e+01  -9.479225e+01
   1.070889e+02  -6.860560e+01
   8.593921e+01   2.688035e+00
  -9.043892e+00   9.400196e+01
  -1.336747e+02   8.102892e+01
  -1.651406e+02  -8.789027e+01
  -1.407459e+02  -1.834074e+02
   1.444658e+02  -2.235439e+02
   2.797609e+02  -8.831793e+01
   1.777868e+02   6.458546e+01
   7.508287e+01   1.505442e+02
  -8.037798e+01   1.279676e+02
  -8.177938e+01   5.764356e+01
  -7.162910e+01   4.613201e+01
  -6.497184e+01   5.751870e+01
  -8.856286e+01   4.885325e+01
  -1.363648e+02  -8.477042e+00
  -1.369252e+02  -7.928921e+01
   1.511341e+01  -1.694221e+02
   3.822609e+01  -1.220255e+02
   1.684111e+02  -1.533739e+00
   9.818608e+01   9.341072e+01
  -9.901928e+00   1.053596e+02
  -3.411621e+01   6.115580e+01
  -6.755612e+01   1.081745e+00
   3.709026e+01  -1.357825e+01
   6.333092e+01  -4.277889e+00
  -1.557680e+01   1.903761e+01
  -7.950684e+01  -3.079166e+01
  -7.856315e+01  -5.310576e+01
   6.231475e+01  -2.091389e+01
   1.717922e+02   1.597159e+00
   1.056683e+02   5.560780e+01
   6.975094e+00   7.553634e+01
  -1.270909e+02   5.516669e+01
  -1.217859e+02  -1.508578e+01
  -4.454391e+00  -4.004198e+01
   7.731849e+01  -6.385522e+01
   5.172115e+01   4.155701e+01
   2.851728e+01   7.288753e+01
   1.698499e+01   8.106273e+01
  -7.232936e+01   3.172735e+01
  -2.573745e+01   2.159302e+00
  -3.177534e+01  -5.394286e+01
  -3.158776e+01   8.256483e+00
  -7.257270e+01  -2.650916e+01
  -3.296682e+01  -5.570268e+01
   7.415945e+01  -1.111216e+02
   1.295058e+02  -1.091917e+02
   1.523869e+02   2.862762e+01
   9.868087e+01   7.572775e+01
   2.696715e+01   1.218317e+02
  -8.392776e+01   6.418640e+01
  -8.468763e+01  -4.675714e+01
   2.268488e+01  -4.714181e+01
   1.173422e+02  -4.622372e+00
   7.083343e+01   7.814469e+01
  -4.668573e+01   1.001397e+02
  -1.647071e+02   3.877427e+01
  -1.481719e+02   2.197067e+01
  -6.932926e+01  -7.824805e+01
   5.099836e+01  -7.322217e+01
   2.235731e+01  -7.954209e+00
  -1.182464e+01   3.394268e+01
  -7.662530e+01  -3.080123e+01
  -1.935293e+01  -7.620148e+01
   5.618686e+01  -1.138204e+02
   1.360474e+02  -5.603758e+01
   1.494937e+02   2.347852e+01
   3.366054e+01   1.655718e+02
  -7.766509e+01   1.353743e+02
  -9.376667e+01  -1.715007e+01
  -5.726221e+01  -1.132849e+02
   1.247425e+01  -9.724995e+01
   3.197132e+01   2.455448e+01
   2.000131e+01   3.996693e+01
   3.298511e+01   4.033792e+01
   4.094612e+01   1.089069e+01
   9.654433e+00   1.421603e+01
   4.708630e+01   3.383443e+01
  -1.243216e+01   1.068662e+02
  -5.602350e+01   7.337565e+00
  -1.202765e+02  -5.687362e+01
  -9.218013e+01  -5.709827e+01
  -3.115079e+01  -6.043401e+00
   4.352361e+01  -8.161180e+01
   7.111571e+01  -2.016380e+01
   1.017576e+01   2.539052e+01
  -1.966567e+01   3.159717e+01
   1.821113e+00  -5.963748e+00
   3.378047e+01   1.543614e+01
   1.305561e+01  -2.272703e-01
  -3.956948e+01   1.115587e+01
  -8.546268e+01  -1.054638e+01
  -6.194573e+01  -6.907709e+01
   1.013728e+02  -9.435957e+01
   1.855181e+02  -5.011525e+01
   1.100880e+02   9.500444e+00
   3.622381e+01   1.582429e+02
  -4.588964e+01   1.342498e+02
  -8.179022e+01   4.223645e+01
  -8.743963e+01  -2.843347e+01
  -4.778396e+01  -4.869269e+01
  -8.833004e+00   1.988969e+01
  -5.013517e+01  -1.875357e+01
  -1.042165e+01  -4.687746e+01
   4.119888e+00  -6.835394e+01
   3.675032e+01  -4.744181e+01
   1.136375e+02   5.197777e+01
   8.758263e+01   6.948156e+01
   3.431556e+01   1.075636e+02
  -4.464435e+01   7.127285e+01
  -1.213765e+02  -4.531592e+01
  -8.888806e+00  -8.894466e+01
   6.679660e+01  -5.216019e+01
   1.232167e+02   1.122069e+01
   5.101425e+00   4.961372e+01
  -3.889464e+01   3.312579e+01
  -9.952940e+01   2.597877e+01
   1.603918e+01  -3.672633e+01
   1.093467e+02  -2.102496e+01
  -7.170819e+00   1.075438e+01
  -7.037593e+01   5.821829e+01
  -9.269370e+01   3.982501e+01
  -4.434377e+00   1.702517e+00
   3.710921e+01  -6.594050e+01
   4.056037e+01  -1.186398e+02
   4.220566e+01  -2.699181e+01
   1.898482e+01   1.432730e+01
  -5.236633e+01   4.868273e+01
  -1.967786e+01  -2.889599e+01
   1.378900e+01  -4.836262e+01
  -1.768828e+01  -4.856181e+01
  -1.250874e+01  -4.042837e+00
   6.816678e+01   4.031343e+01
   6.201200e+00   3.449656e+00
  -1.631178e+01   2.030432e+00
  -2.000617e+00  -2.758947e+01
  -6.253891e+00   1.531713e+01
   3.130411e+01   1.046851e+02
  -2.402578e+01   8.340030e+00
  -4.301137e+01  -5.287833e+01
  -3.380244e+01  -4.053508e+01
   1.327030e+01  -3.602048e+01
   9.287711e+01   3.756734e+01
   1.570247e+01   4.870842e+01
  -4.373200e+01   4.213736e+01
  -9.355952e+01   1.417186e+01
  -6.821572e+01  -1.593607e+01
   6.208811e+01  -5.784022e+01
   4.947025e+01  -5.042929e+01
   1.674060e+01   2.920401e+00
  -2.574778e+01   2.899279e+00
  -2.899774e+01   2.046671e+01
   1.085941e+01  -3.215990e+01
   6.834970e+01  -4.232731e+01
