
 $NMID
 id='ANONYMOUS ', fmtdat='(2E16.6)'
 volume=1.0
 tramp=1.0
 $END
  -4.288977e+03   1.573538e+02
  -2.082862e+03  -2.248420e+03
   6.814135e+02  -2.289378e+03
   2.041890e+03  -7.830998e+02
   9.134673e+02   5.782907e+02
  -2.189631e+02   4.523942e+02
  -6.714465e+02  -2.342986e+02
  -1.154178e+02  -8.317693e+02
   7.308880e+02  -6.542567e+02
   9.409333e+02  -6.847744e+00
   2.051409e+02   6.748955e+02
  -1.132739e+02   7.126107e+02
  -5.093348e+02   1.338598e+02
  -3.635643e+02  -5.710891e+02
   2.750376e+02  -6.610097e+02
   5.348957e+02  -7.527067e+00
   2.971564e+02   5.783134e+02
  -2.361927e+02   6.111782e+02
  -5.833191e+02   1.895491e+02
  -3.999617e+02  -3.630257e+02
  -1.125721e+02  -4.276708e+02
   1.778914e+02  -2.020371e+02
   1.817336e+02  -2.034822e+01
  -1.586154e+02  -3.257538e+01
  -3.377319e+02  -1.844239e+02
  -8.111188e+01  -3.579110e+02
   4.216665e+02  -2.849944e+02
   7.919926e+02   1.467054e+02
   3.095780e+02   4.527162e+02
  -2.484181e+02   3.986738e+02
  -6.402574e+02  -1.057997e+02
  -1.858385e+02  -5.261233e+02
   2.710778e+02  -4.258579e+02
   5.095384e+02  -1.711811e+02
   4.223098e+02   1.833266e+02
   4.504088e+01   4.008597e+02
  -1.578510e+02   2.223857e+02
  -5.417704e+01  -1.679893e+02
   2.124112e+02  -3.751621e+02
   3.143563e+02   1.052600e+02
   2.056473e+02   5.179921e+02
  -2.820764e+02   5.046198e+02
  -5.012977e+02  -3.143580e+01
  -1.492588e+02  -4.108721e+02
   2.131866e+02  -2.407700e+02
   2.336237e+02   3.386563e+02
  -1.308937e+02   4.332526e+02
  -3.770836e+02   2.709360e+01
  -4.412266e+02  -3.999927e+02
  -1.151383e+02  -5.636816e+02
   3.799600e+02  -3.077622e+02
   6.894906e+02   1.450431e+02
   3.082547e+02   2.547117e+02
  -1.372163e+02   3.074433e+02
  -3.627311e+02   7.873842e+01
  -2.052732e+02  -1.236001e+02
   5.925029e+01  -3.510740e+01
   9.400960e+01   1.019807e+02
  -1.337190e+02   1.057692e+02
  -3.223946e+02  -7.654633e+01
  -1.096150e+02  -2.306924e+02
   1.966897e+02  -2.285141e+02
   3.670054e+02  -1.336926e+02
   1.415744e+02   7.506067e+01
  -6.183272e+01   2.551339e+02
  -2.846016e+02   2.921410e+02
  -3.754606e+02   1.393033e+02
  -2.900789e+02  -1.532103e+02
  -6.026607e+01  -3.145670e+02
   1.195634e+02  -3.191629e+02
   8.370326e+01  -1.514733e+02
   3.140756e+01   2.408471e+00
   9.651256e+01  -7.879237e+01
   1.774764e+02  -5.397563e+01
   1.574031e+02   5.123121e+01
   1.457907e+02   2.660838e+02
  -1.324051e+02   1.513173e+02
  -1.988517e+02   1.250239e+01
  -1.384457e+02  -2.653473e+02
   5.982951e+01  -2.725502e+02
   3.001526e+02  -9.336043e+01
   3.237279e+02   1.546867e+02
   1.832633e+02   3.318620e+02
  -1.136119e+02   2.456936e+02
  -2.262545e+02   7.860269e+01
  -1.286588e+02  -1.005901e+01
  -9.798922e+01   3.844933e+01
  -2.798764e+02   7.553390e+01
  -4.150616e+02  -1.187876e+02
  -2.871330e+02  -2.963671e+02
  -9.082344e+00  -4.360021e+02
   3.648078e+02  -3.697661e+02
   4.340911e+02  -1.606039e+02
   3.176525e+02   5.620555e+01
   1.286092e+01   2.451566e+02
  -1.142736e+02   1.670815e+02
  -6.635712e+01   9.730166e+00
   1.174963e+02  -6.159520e+01
   1.476579e+02   6.243814e+01
   4.044142e+01   1.780440e+02
  -1.887398e+02   1.625084e+02
  -1.561019e+02  -8.993496e+01
   4.096233e+01  -1.866791e+02
   1.704671e+02  -1.531043e+01
   1.736292e+02   2.254980e+02
  -3.974900e+01   2.845676e+02
  -2.178078e+02   2.179827e+02
  -2.776059e+02  -8.265397e+01
  -2.577519e+02  -2.977409e+02
  -6.247673e+01  -2.634838e+02
   1.687248e+02  -1.484476e+02
   1.987123e+02   9.754651e+00
   2.368076e+01   5.178769e+01
  -4.943105e+01  -5.733934e+01
  -1.536514e+01  -1.074566e+02
   7.643737e+01  -5.203497e+01
   1.596653e+02   4.995687e+01
   4.251949e+01   1.082762e+02
  -4.526668e+01  -9.464485e+00
  -9.153166e+01  -9.956239e+01
   1.491581e+02  -5.038958e+01
   2.511509e+02   3.939571e+01
   2.696267e+02   1.145524e+02
  -2.782811e+00   2.281537e+02
  -1.872007e+02   2.131068e+02
  -2.649636e+02   7.337146e+01
  -1.378543e+02  -4.208325e+01
  -1.440901e+01  -1.019412e+02
   9.429553e+01   3.717422e+01
  -8.028113e+01   5.910376e+01
  -1.588902e+02   4.810118e+01
  -1.805665e+02  -1.332434e+02
  -7.170457e+01  -1.111761e+02
   9.065910e+01  -1.626654e+02
   1.331155e+02  -3.170412e+00
   5.342325e+01   2.602925e+01
  -3.818953e+00   1.788784e+01
  -2.415842e+01  -7.565026e+01
   9.029921e+01  -1.276004e+02
   1.938806e+02  -6.472714e+00
   1.899833e+02   1.143164e+02
   3.869998e+01   2.046330e+02
  -1.594167e+02   1.616717e+02
  -1.864988e+02  -7.034696e+00
   4.163677e+00  -7.755620e+01
   8.981854e+01  -1.034145e+02
   7.928023e+01  -1.535460e+01
   2.104863e+01   2.237720e+01
  -3.715209e+01  -2.403815e+01
   1.099513e+01  -2.644673e+01
   1.139606e+02  -8.362470e+00
   9.368801e+01   9.446182e+01
   2.447222e+01   1.545913e+02
  -1.682724e+02   1.502823e+02
  -2.669005e+02   7.919781e+00
  -1.339375e+02  -1.308718e+02
  -4.032139e+01  -2.039360e+02
   1.046498e+02  -1.472194e+02
   1.259271e+02  -6.841870e+01
   5.206549e+01   4.568421e+01
   1.370178e+01  -1.090543e+01
   5.106825e+01  -1.417599e+01
   9.600596e+01  -1.948794e+01
  -5.623439e-01   5.455300e+01
  -3.324618e+01   6.089920e+01
  -1.126182e+02   9.588919e+01
  -9.723455e+01  -4.254972e+01
   1.236326e+00  -1.207610e+02
   2.008118e+02  -1.172037e+02
   1.619040e+02   6.642011e+01
   6.200840e+01   2.001569e+02
  -1.254006e+02   1.836517e+02
  -2.825232e+02   6.702234e+01
  -2.091634e+02  -7.661278e+01
  -1.291045e+02  -1.669778e+02
  -1.478377e+01  -1.374327e+02
   1.290735e+02  -6.891676e+01
   7.418879e+01  -7.723903e+01
   8.181143e+01  -9.207058e+01
   1.236112e+02  -6.508023e+01
   1.298089e+02   5.319717e+01
   8.263443e+01   1.529293e+02
   7.691026e+00   1.975349e+02
  -7.904552e+01   1.552819e+02
  -1.414326e+02  -1.411880e+01
  -1.222269e+02  -1.316331e+02
  -2.709757e+01  -2.001239e+02
   3.751035e+01  -1.074621e+02
   7.202244e+01   3.150529e+01
  -4.134786e+01   4.569888e+01
  -4.036375e+01   5.312634e+01
   5.797291e+01   5.497067e+00
   8.616015e+01  -1.398878e+00
   4.091033e+01   6.268936e+00
  -4.536918e+01   3.231554e+01
  -1.567515e+02   4.048915e+00
  -1.220158e+02  -5.918083e+01
   1.348298e+01  -8.635845e+01
   9.024337e+01  -6.838735e+01
   9.596428e+01  -6.779332e+00
   2.958577e+01   6.111427e+01
  -3.324259e+01   2.291734e+01
  -5.634086e+01  -5.847380e+01
  -3.273090e+01  -5.897781e+01
   4.542631e+01  -4.484099e+01
   9.662909e+01  -3.801536e+01
   3.616225e+01   4.901405e+01
   5.101697e-01   6.672939e+01
   7.720727e+01  -9.708706e+00
   5.237423e+01  -1.158818e+01
   1.091974e+01   9.308548e+01
  -2.288788e+01   1.057125e+02
  -9.907746e+01   1.650766e+02
  -2.156144e+02   2.904881e+01
  -6.171099e+01  -7.469572e+01
   8.543358e+00  -1.269874e+02
   8.662237e+01  -8.292436e+01
   4.021421e+01   4.169173e+01
  -4.957576e+01   3.636370e+00
  -9.914821e+01  -9.952996e+00
  -7.943752e+01  -1.295903e+02
   5.791953e+01  -1.003455e+02
   1.943588e+02  -5.027347e+00
   1.033837e+02   8.625473e+01
   1.878131e+00   1.205244e+02
  -8.621037e+01   1.769902e+01
  -3.811719e+01   6.418060e+00
  -7.434022e+00  -4.537202e+01
   1.338558e+02   5.537504e+01
   2.099705e+01   1.008132e+02
  -3.993041e+01   1.355373e+02
  -1.880614e+02   4.742345e+01
  -1.269375e+02  -1.050018e+02
  -3.666426e+01  -1.641748e+02
   1.229461e+02  -1.522387e+02
   1.313607e+02   2.474865e+01
   3.379972e+01   1.441068e+02
  -1.173114e+01   1.245767e+02
  -6.252732e+01   1.810747e+01
  -5.930178e+01  -1.330482e+01
  -3.602646e+01  -3.511883e+01
  -9.979483e+00   3.043624e+01
  -1.505551e+01  -5.503733e+01
  -5.704774e+01  -3.932324e+01
  -3.035756e+01  -9.164638e+01
   2.221703e+01  -2.964021e+01
   1.469774e+02   2.445873e+01
   1.600511e+02   4.106993e+01
   4.043684e+01   6.383118e+01
  -7.480249e+01   9.654612e+00
  -6.136291e+01   1.515943e+01
   7.022229e+00  -6.393720e+01
   6.007180e+01  -1.635034e+01
  -1.593091e+01  -2.549206e+01
  -6.023323e+01   1.788023e+01
  -1.077778e+01   2.502911e+01
   5.250945e+01   4.564646e+00
   1.380454e+02   2.448346e+01
  -1.558668e+01   5.899028e+01
  -1.576670e+02   1.302299e+02
  -1.571781e+02   2.089166e+01
  -1.544910e+02  -5.926189e+01
  -2.552931e+01  -1.622173e+02
   9.398856e+01  -1.132596e+02
   9.080968e+01  -3.576322e+01
   7.847961e+01  -5.906457e+00
   3.542441e+01   4.111742e-01
  -6.707276e+00  -1.260774e+01
   2.417374e+01   3.332861e+01
   2.791847e+01   1.114761e+01
  -9.142548e+00   4.814735e+01
  -5.365537e+01   6.869267e+01
  -1.175807e+02  -5.277927e+00
  -8.822857e+01  -8.972412e+01
  -3.768527e+00  -1.228889e+02
   5.843817e+01  -4.419794e+01
   7.629327e+01   1.314576e+02
   3.350528e+01   7.560719e+01
  -4.335167e+01   6.442855e+01
  -1.005826e+02   3.076924e+01
  -3.907210e+01  -3.930385e+01
   5.572467e+01  -6.911025e+01
   1.268461e+01  -4.457140e+01
  -8.025561e+01  -1.666386e+01
  -8.163225e+01  -1.481939e+01
  -3.233912e+01  -3.808897e+01
   9.043363e+01  -4.987733e+01
   1.289155e+02  -4.033380e+01
   5.678561e+01   4.020225e+01
  -2.274783e+01   1.101405e+02
  -9.697177e+01   2.745704e+01
  -5.239488e+01   1.588623e+01
   8.108231e+00  -5.713071e+01
   3.513449e+01  -2.903158e+00
   2.837249e+01   2.354131e+01
   6.701767e-01   1.535700e+01
  -1.186530e+01   1.004707e+01
  -4.454300e+01   1.862444e+01
   2.134474e+01  -4.799726e+01
  -5.527594e+01   1.176941e+01
  -3.563228e+01  -1.896891e+00
   5.892285e+01   3.919531e+01
   2.447941e+01  -4.888210e+01
  -1.022712e+01  -1.693316e+01
   2.703523e+01  -6.143474e+01
   9.178870e+00   6.307067e+01
   2.290685e+01   7.173151e+01
  -5.038159e+01   4.054290e+01
  -7.082818e+01  -2.711196e+01
  -8.920401e+00  -6.807816e+01
   4.216681e+01  -2.676339e+01
   1.015413e+02   2.700804e+01
   4.246020e+01   7.450333e+01
  -2.939569e+01   2.685615e+01
  -3.483954e+01  -4.354133e+00
  -2.086798e+01  -3.737685e+01
   4.310773e+01  -1.729514e+01
   5.711594e+01  -1.823791e+01
  -8.080065e+01   6.448715e+01
  -4.586479e+01   3.879171e+00
