
 $NMID
 id='ANONYMOUS ', fmtdat='(2E16.6)'
 volume=1.0
 tramp=1.0
 $END
   1.188338e+03  -3.014209e+02
   9.338322e+02   6.236572e+02
   2.515127e+02   1.038407e+03
  -5.991157e+02   4.061493e+02
  -3.325675e+02   2.983061e+02
  -3.617021e+02   1.051918e+02
  -3.101311e+01  -7.102856e+01
   7.197595e+01   7.532780e+01
  -1.842216e+02   1.936429e+02
  -2.030464e+02   1.459425e+02
  -2.691433e+02  -1.259289e+02
  -1.203084e+02  -9.970346e+01
   7.460705e+00  -1.530911e+02
   5.226295e+00   1.634920e+02
   1.060742e+02   1.511226e+02
  -1.670578e+02   2.311143e+01
  -6.356745e+01  -2.189100e+02
  -6.536150e+01  -2.866127e+02
   1.710382e+02  -2.469410e+02
   1.920051e+02   1.054262e+02
   9.373081e+01   1.671453e+02
  -3.372612e+01   1.316312e+02
  -1.943948e+01   1.800263e+01
   1.662290e+02   6.281551e+01
   1.186512e+02   1.859891e+02
  -7.315487e+01   1.492305e+02
  -1.936581e+02  -2.246069e+01
  -2.133999e+02  -2.085720e+02
   3.622309e+01  -2.288145e+02
   1.771489e+02  -8.072676e+01
   2.848725e+02   1.552893e+02
   1.213715e+01   1.961627e+02
  -9.711440e+01   1.179920e+02
  -1.900023e+02   1.039863e+02
  -1.749149e+02  -4.595641e+01
  -1.933230e+01  -9.058010e+01
   2.495408e+01  -2.856854e+01
  -5.506844e+01   3.959615e+01
  -1.737079e+02  -1.558083e+01
  -2.617996e+01  -1.767789e+02
  -5.576313e+01  -2.691965e+02
   1.415219e+02  -1.076870e+02
   1.372722e+02   3.755196e+01
   8.707541e+01   9.494856e+01
   1.086594e+01   2.081697e+01
  -4.879899e+01  -1.298578e+02
   3.890622e+01  -1.664804e+02
   2.106184e+02  -1.774733e+01
   2.441395e+02   1.680817e+02
   9.363635e+01   2.137536e+02
  -8.578753e+01   1.368869e+02
  -1.624333e+02  -7.084185e+01
  -1.850982e+02  -6.736129e+01
  -3.085490e+01  -3.282342e+01
   1.065223e+02  -5.429841e+01
   1.439727e+02  -1.687440e+01
   4.419449e+01  -4.369073e+01
   4.154872e+01   3.812052e+01
   2.057392e+01   2.914867e+01
   3.872547e+01   1.356360e+01
   4.102759e+01   8.038484e+01
  -7.748133e+01   5.559405e+01
  -2.135017e+02   4.506392e+01
  -1.933491e+02  -4.250433e+01
  -4.741211e+01  -1.614884e+02
   1.675027e+02  -2.647926e+02
   2.379099e+02  -1.109938e+02
   8.108026e+01   1.015702e+02
   6.042119e+01   1.799897e+02
  -2.446912e+01   1.210736e+02
   4.982898e+01   1.187871e+02
  -1.703361e+01   7.991239e+01
  -7.013756e+01   4.299280e+01
  -1.510659e+02   1.907746e+01
  -6.949495e+01  -4.497385e+01
  -2.479146e+01  -1.559282e+02
   8.491860e+01  -9.103751e+01
   4.939592e+01   3.550105e+01
   2.573399e+01   1.378340e+02
  -4.206835e+01   1.155345e+02
  -1.497207e+02   2.711814e+01
  -7.694368e+01  -5.808184e+01
  -1.252748e+02  -1.087986e+02
   2.318689e+01  -7.535804e+01
   7.166404e+01  -8.952140e+01
   1.954408e+01  -7.457295e+01
   7.375459e+01  -8.099847e+01
   1.247570e+02  -3.539708e+00
   2.553441e+02   7.134949e+01
   2.149164e+02   1.034906e+02
  -6.386799e+01   1.949609e+02
  -1.505034e+02   1.941126e+02
  -1.960447e+02   1.236405e+02
  -1.801840e+02   1.371249e+01
   2.958436e+01  -1.428615e+02
   5.179035e+01  -9.990724e+01
  -2.444023e+01  -5.677436e+01
  -6.937342e+01  -5.969719e+00
  -4.567060e+01  -1.080413e+01
   2.955767e+01  -8.814248e+01
   7.733965e+01  -2.205943e+01
  -1.463402e+00   4.009923e+01
  -6.007789e+01   2.913065e+01
  -8.074800e+01   3.576847e+01
  -1.285347e+02  -1.636068e+02
   3.480442e+00  -8.379054e+01
   1.181419e+02  -1.184796e+02
   1.994179e+02  -1.365994e+01
   1.245323e+02   1.537327e+02
   2.657664e+01   1.119251e+02
  -5.444571e+01   7.789692e+01
  -3.227266e+01  -3.210671e+01
  -4.113526e+00   1.631786e+01
   3.080675e+01   2.948150e+01
  -5.267784e+01   2.954491e+01
  -6.061438e+01  -2.302792e+01
  -9.784380e+01  -5.004972e+01
  -3.817868e+01  -2.128281e+01
   5.337391e+01   3.840345e+01
  -1.020141e+01   6.305985e+01
  -1.016577e+02   3.858772e+01
  -1.767524e+02  -1.448663e+01
  -9.871565e+01  -9.263852e+01
   4.898821e+01  -1.043192e+02
   1.324978e+02  -1.425344e+02
   2.022471e+02  -1.057656e+02
   7.210732e+01   3.255437e+01
  -2.917352e+01   1.342118e+01
  -3.869734e+01  -1.768361e+00
   4.387087e+01  -4.756299e+01
   1.016694e+02  -3.464457e+01
   1.071147e+02   1.671127e+01
   4.772323e+01   8.780478e+01
  -6.821373e+00  -1.484371e+00
  -8.154612e+01   3.046324e+01
  -3.002227e+01   1.698175e+01
   2.798554e+01   5.249958e+01
  -1.599014e+01   7.817290e+01
  -3.635876e+01   1.010878e+02
  -1.070818e+02   1.022765e+01
  -8.388111e+01  -6.373783e+01
   2.947398e+00  -1.281532e+02
   5.464048e+01  -6.005917e+01
   7.468842e+01   4.284606e+01
   3.084106e+01   4.842353e+01
  -3.045573e+01   8.466569e+01
  -4.239690e+01  -3.567052e+00
  -7.947686e+00   1.373646e+00
  -8.436682e+00  -1.964429e+01
  -6.276056e+00   2.475767e+01
  -8.342595e+01  -9.708276e+00
  -7.019425e+01  -6.251297e+01
  -8.185750e+00  -5.399814e+01
   3.458870e+01  -4.996779e+01
   1.491112e+02  -2.022980e+01
   9.753586e+01   3.457848e+01
   4.106516e+01   5.352380e+01
  -3.607118e+01   9.071495e+01
  -5.700793e+01   2.613365e+01
  -3.525301e+01  -2.414056e+01
  -3.800640e+01  -2.596692e+01
  -1.475072e+01   8.773162e+00
  -2.423675e+01   1.519622e+01
   2.528794e+01  -2.422339e+01
   6.774770e+01  -6.970882e+01
   4.274591e+01  -2.224865e+01
   4.121351e+01   2.970996e+01
  -3.390927e+01   2.512777e+01
  -9.219018e+01   4.110249e+01
  -6.366963e+01  -1.680124e+01
  -2.752754e+01  -5.788946e+01
   2.874305e+01  -1.612552e+02
   1.271349e+02  -5.204823e+01
   1.049840e+02   5.425575e+01
   2.066654e+01   6.755971e+01
  -1.668317e+01   3.179497e+01
  -7.383319e+01   6.631083e+01
  -3.811983e+01   4.250793e+01
  -6.055387e-01   3.895877e+01
  -6.327326e+01   4.775153e+01
  -4.516650e+01   1.026692e+01
  -3.470333e+01  -1.283184e+02
  -3.477536e+01  -1.027198e+02
   3.394150e+01  -5.872270e+01
   8.333736e+01   2.846263e+01
   7.830767e+01   9.247980e+01
  -2.831334e+00   5.893718e+01
  -3.523553e+01   4.235867e+01
  -2.423239e+01  -2.541609e+01
   2.149583e+00  -3.301146e+01
   2.996274e+01   4.553731e+00
  -4.237916e+01  -1.059830e+01
  -5.321251e+01   3.481641e+01
  -3.994764e+00  -3.964672e+01
   3.094544e+01  -5.455306e+00
   1.213680e+02  -2.552031e+01
   5.131048e+01   2.730048e+01
  -2.737192e+01   7.366973e+01
  -7.383340e+01   3.131267e+01
  -4.272214e+01   1.556545e+01
  -1.781622e+01  -7.634517e+01
   7.474557e+01  -7.836343e+01
   1.878176e+01  -3.902700e+01
   2.035258e+01   3.605801e+01
  -5.737276e+01   6.570980e+00
  -1.227472e+00   4.996627e+01
  -1.868323e+01  -4.596505e+01
  -6.346192e+01  -2.635074e+01
  -6.351471e+01  -2.015394e+01
  -1.914364e+01  -3.105293e+01
  -6.066515e+01  -5.252264e+01
   3.379990e+01  -1.151919e+02
   1.004730e+02  -1.972837e+01
   8.021020e+01  -8.659305e+01
   6.277281e+01   7.889527e+00
  -9.976609e-01   1.312088e+02
  -5.341284e+01   4.032677e+01
   3.821469e+01  -3.007794e+01
   2.013922e+01   1.867141e+01
   5.987216e+01   2.890220e+01
   4.500819e+01   1.094765e+02
  -8.904471e+01   4.302976e+01
  -8.071485e+01  -1.523425e+00
  -6.303184e+01  -3.467588e+01
  -4.824368e+00  -3.704816e+01
   5.753733e+01  -2.942496e+01
   8.280658e+00  -3.555493e+01
  -4.150048e+00   4.021802e+00
  -8.073661e+01  -5.222042e+01
  -7.836989e+00  -6.344162e+01
   6.559756e+01  -8.958437e+01
   1.150559e+02  -3.781065e+01
   4.249680e+01   1.471094e+01
   6.979016e+01   9.612741e+01
  -3.681776e+01   6.091355e+01
  -5.111126e+01   1.300579e+01
  -4.475971e+01  -5.999999e+01
   3.128707e+01  -5.802869e+01
   1.881144e+01  -2.297761e+01
  -1.328544e+01   1.248481e+00
   1.322140e+01  -1.122261e+01
  -3.176252e+01  -3.042154e+01
   2.604011e+00   1.858752e+01
   2.566797e+01   9.933662e+01
   5.675758e+01   2.301739e+01
   5.384449e+00   3.735796e+01
  -5.818314e+01  -1.798839e+01
  -6.394113e+01  -1.659462e+01
   2.555800e+01   1.987980e+01
   2.385432e+01   8.993145e+00
   2.214560e+01   9.196504e+00
   3.594452e+00   9.036428e+00
  -1.170626e+01  -7.429413e+00
  -4.738835e+01   2.949522e+00
   1.178632e+00   2.821502e+01
   6.177859e+00  -1.733770e+01
  -1.461476e+01   1.067404e+00
  -3.736329e+01  -1.737421e+01
  -3.454397e+01  -3.304895e+01
   1.631546e+01  -1.774455e+01
   1.075411e+02  -1.889138e+01
   9.187342e+01  -3.090112e+01
   1.426755e+01   1.156393e+02
   4.504768e+00   4.852369e+01
  -3.768502e+01   4.884796e+01
  -5.877718e+01   4.466930e+01
  -4.288168e+00  -3.054356e+00
  -1.844215e+01   3.375265e+01
   9.869391e+00   2.410679e+00
  -1.027825e+01   4.042751e+00
   1.093883e+01  -3.144406e+01
   4.445727e+01  -8.064496e+01
   3.651865e+01  -1.923353e+01
   1.710312e+01   8.313036e+01
   1.175413e+01   3.487392e+01
   8.270765e+00   6.818864e+00
  -5.265614e+01  -7.068156e+00
   1.100701e+01  -8.187205e+01
   1.345290e+01  -2.715655e+01
   9.453769e+01  -4.147717e+00
   1.237624e+01   3.968479e+01
  -7.676857e+00   3.968856e+01
  -5.363241e+01   8.434983e-01
   2.492409e+01  -8.770356e+00
   5.009258e+01  -3.061450e+01
   2.733996e+01   1.158095e+01
  -3.752787e+01   5.589314e+01
  -6.248669e+01   1.356907e+01
  -3.453555e+01   1.394513e+01
   2.784050e+01  -3.529179e+01
   3.458906e+01  -3.333287e+01
   1.620733e+01   6.918000e+00
  -1.009753e+01   4.919305e+01
  -3.102708e+01   1.759623e+01
  -4.598930e+01  -2.084451e+01
   2.327233e+01  -1.224001e+01
   3.621843e+01  -3.427897e+01
   2.947552e+01   2.618748e+01
  -1.300429e+01   3.642586e+01
   3.615323e+01  -7.596721e+00
  -1.220943e+01   1.877287e+01
  -2.143263e+01  -8.336099e+00
   3.945725e+01   9.821459e+00
   8.940566e+00   3.863193e+01
  -1.601102e+01   2.001095e+01
  -4.038838e+01  -1.338666e+00
  -2.544826e+01  -2.794170e+01
   2.019813e+01  -2.427176e+01
   8.660392e+01   2.765329e+01
   3.438119e+01  -1.350135e+01
  -2.229165e+01  -4.785822e+00
  -4.898479e+01  -2.132461e+01
  -6.282125e+00   6.931744e+00
  -1.846817e+01  -1.195867e+01
   5.551212e+01   1.646770e+01
   5.135273e+01   8.330872e-01
   4.312745e+00   8.153744e+00
  -8.461727e+00   1.783424e+01
  -6.467924e+00   1.665575e+01
   4.563691e+01   7.484346e+00
