
 $NMID
 id='ANONYMOUS ', fmtdat='(2E16.6)'
 volume=1.0
 tramp=1.0
 $END
  -3.234423e+03  -3.019989e+01
  -2.213276e+03  -1.682635e+03
  -1.798802e+02  -1.595891e+03
   1.151031e+03  -1.398910e+03
   9.133617e+02  -3.522033e+02
  -8.997278e+01   3.040026e+02
  -3.711261e+02  -1.611946e+01
  -1.119743e+02  -3.442012e+02
   2.023114e+02  -5.317997e+02
   5.099125e+02  -6.001215e+01
   4.342859e+02   4.951748e+02
   3.264797e+01   5.533338e+02
  -2.337127e+02   2.726448e+02
  -1.347382e+02  -3.378528e+02
   5.867789e+01  -4.592544e+02
   4.326013e+02  -2.148520e+02
   2.641536e+02   4.254335e+02
  -1.502748e+01   4.897338e+02
  -3.970716e+02   2.879880e+02
  -3.697386e+02  -2.350164e+02
  -1.227265e+02  -3.016283e+02
   4.968491e+01  -1.964015e+02
   4.649364e+01  -8.005017e+01
  -1.774473e+02  -8.498508e+01
  -2.037434e+02  -2.815738e+02
   6.073459e+01  -2.874305e+02
   3.449069e+02  -1.650314e+02
   5.250245e+02   1.279360e+02
   1.948797e+02   2.782191e+02
  -3.114014e+02   2.709213e+02
  -4.062226e+02  -7.038045e+01
  -1.255762e+02  -3.561283e+02
   2.074335e+02  -3.136489e+02
   3.719836e+02  -7.870644e+01
   2.503515e+02   1.600279e+02
   1.216963e+02   2.976865e+02
  -1.263135e+01   1.951705e+02
   4.932698e+01  -5.312884e+01
   3.901360e+01  -1.791007e+02
   2.289650e+02   1.083324e+02
   2.807074e+01   4.186084e+02
  -2.338332e+02   2.353307e+02
  -2.188139e+02   1.951120e+01
  -1.881366e+02  -2.318307e+02
   1.094312e+02  -1.480012e+02
   2.132190e+02   1.572554e+02
  -1.272868e+02   3.374602e+02
  -3.519172e+02  -1.274091e+01
  -3.584304e+02  -3.449908e+02
  -1.804784e+02  -3.709933e+02
   2.258520e+02  -2.948848e+02
   3.914216e+02  -2.956679e+01
   3.138491e+02   1.951703e+02
  -2.464006e+01   2.013284e+02
  -1.878779e+02   1.181004e+02
  -1.632292e+02  -1.322340e+00
  -1.680942e+01  -7.708501e+00
   7.511491e+01   5.879270e+01
  -8.870680e+01   4.670716e+01
  -2.134048e+02  -6.586988e+01
  -1.459182e+02  -2.114292e+02
   1.426693e+02  -2.433195e+02
   3.094798e+02  -1.282174e+02
   2.812649e+02   5.989749e+01
  -2.660328e+01   3.324732e+02
  -2.299777e+02   2.503662e+02
  -3.465260e+02   1.697880e+02
  -2.358456e+02  -1.774524e+02
   7.652145e+00  -2.948100e+02
   7.762551e+01  -3.228943e+02
   9.057626e-01  -1.846316e+02
   5.011221e+01  -1.162741e+02
   1.594175e+02  -9.566686e+01
   2.400877e+02   7.669652e-01
   2.141820e+02   1.484179e+02
   9.842143e+01   2.503290e+02
  -9.958512e+01   1.516261e+02
  -1.769239e+02  -3.525275e+01
  -7.205250e+01  -2.082258e+02
   8.458625e+01  -1.758188e+02
   1.531928e+02  -3.151337e+01
   2.921882e+02   1.835159e+02
   2.194337e+02   3.356058e+02
  -5.281257e+01   3.465238e+02
  -1.413203e+02   1.238300e+02
  -1.300438e+02   1.034145e+02
  -1.347041e+02   1.049492e+02
  -2.740501e+02   1.136278e+02
  -3.951023e+02  -5.125051e+01
  -3.357203e+02  -2.937052e+02
  -1.809832e+01  -3.894952e+02
   3.117625e+02  -3.132227e+02
   4.243846e+02  -1.224936e+02
   2.043186e+02   1.346043e+01
   1.913177e+01   2.103182e+02
  -9.410949e+01   1.852059e+02
   1.094910e+01   1.724328e+01
   1.157094e+02  -2.930036e+01
   1.229192e+02   8.079987e+01
   2.204106e+01   1.185122e+02
  -1.237508e+02   1.283088e+02
  -7.694722e+01  -9.082054e+01
  -1.870120e+01  -1.134640e+02
   1.427804e+02   8.239414e+00
   1.271506e+02   1.599417e+02
   3.778563e+01   3.014104e+02
  -2.876794e+02   1.722110e+02
  -3.144256e+02  -3.156624e+00
  -2.726302e+02  -2.475144e+02
  -7.612597e+01  -2.598977e+02
   1.415234e+02  -1.049319e+02
   1.061851e+02   5.880810e+00
   6.388940e+01  -1.550716e+01
  -1.100352e+02  -4.563274e+01
   6.504747e+00  -1.524950e+02
   1.035334e+02  -9.838525e+01
   1.037184e+02   2.302127e+01
  -2.033458e+01   9.101812e+00
  -8.539778e+01  -4.440999e+00
  -2.606992e+01  -5.878936e+01
   1.256101e+02  -8.827827e+01
   2.663832e+02   3.904074e+01
   2.080353e+02   1.299533e+02
   3.996469e+01   2.184823e+02
  -2.059099e+02   2.276132e+02
  -2.532869e+02   1.281995e+02
  -1.437437e+02  -3.917043e+01
   4.725334e+01  -6.647699e+01
   9.787208e+01   3.318398e+01
  -4.330528e+01   1.108098e+02
  -1.836201e+02   9.835742e+01
  -1.790647e+02  -9.764865e+01
  -6.061506e+01  -2.151697e+02
   7.280958e+01  -1.341094e+02
   7.756655e+01  -2.360221e+00
  -1.676125e+01   5.646153e+01
  -1.424838e+01   3.794084e+01
  -2.029853e+01  -1.259314e+02
   9.926832e+01  -9.749694e+01
   2.256611e+02  -1.974168e+01
   2.154099e+02   1.353279e+02
  -4.023440e+01   1.822966e+02
  -1.303102e+02   1.860713e+02
  -1.692283e+02  -7.919981e+00
  -4.230436e+01  -9.713975e+01
   6.973533e+01  -9.243059e+01
   7.080210e+01   3.213646e+01
   1.231380e+01   1.765147e+01
  -2.192028e+01   1.535801e+01
   6.632437e+00  -3.350183e+01
   8.036600e+01   1.734673e+00
   1.036945e+02   9.981389e+01
   2.855136e+00   1.398311e+02
  -1.294921e+02   1.174886e+02
  -1.833789e+02   5.100330e+01
  -1.868645e+02  -1.312488e+02
  -8.007741e+01  -1.809531e+02
   1.187603e+02  -2.160104e+02
   1.298630e+02  -4.947155e+01
   1.000183e+02   4.893060e+01
   5.004630e+01   9.223608e+00
   9.512511e+01  -1.668296e+01
   9.642543e+01   7.388137e+00
   3.523221e+01   5.460901e+01
  -6.061626e+01   1.066626e+02
  -1.252554e+02   4.331863e+01
  -1.113280e+02  -5.492752e+01
  -2.076418e+01  -1.286391e+02
   1.525904e+02  -5.959208e+01
   2.108822e+02   1.832081e+01
   7.678614e+01   1.966665e+02
  -1.527423e+02   1.933549e+02
  -2.860357e+02   1.058782e+02
  -2.408361e+02  -3.868206e+01
  -6.067738e+01  -1.699314e+02
   6.696915e+01  -9.895863e+01
   9.002873e+01  -4.135852e+01
   7.482420e+01  -6.622359e+01
   6.410923e+01  -6.352216e+01
   8.378010e+01  -1.077763e+02
   1.066936e+02   1.249236e+01
   1.056849e+02   1.342954e+02
   7.574688e+01   2.003630e+02
  -9.734352e+01   1.553466e+02
  -1.202491e+02   1.584881e+01
  -8.758605e+01  -1.110009e+02
   9.925422e+00  -1.965655e+02
   1.738749e+01  -6.167039e+01
   9.418638e+01   1.616035e+01
  -8.506229e+00   5.346030e+01
  -1.152896e+01   1.659543e+01
   4.042335e+01   3.431478e+01
   4.587831e+01  -2.976495e+00
   4.877198e+01  -2.978040e+00
  -7.056855e+01   3.107264e+01
  -1.374986e+02   5.210883e+01
  -1.292162e+02  -5.537345e+01
   4.078176e+00  -4.777411e+01
   1.104485e+02  -4.409096e+01
   1.226879e+02   3.577078e+01
   2.004115e+01   8.060159e+01
  -6.032506e+01   3.235077e+01
  -6.328265e+01  -2.459031e+01
  -2.561775e+01  -3.403074e+01
   2.252400e+01  -5.250035e+01
   8.271789e+01   3.225057e-02
   4.651122e+01   7.400152e+01
   8.292117e+01   3.711687e+01
   5.483218e+01   3.840419e+01
   1.036970e+02  -1.866336e+01
   7.278943e+01   6.751355e+01
  -7.566208e+00   1.601039e+02
  -1.046207e+02   1.115053e+02
  -2.234235e+02   2.228350e+01
  -1.345791e+02  -1.397812e+02
   1.666346e+00  -1.415995e+02
   4.930489e+01  -6.507539e+01
   4.096479e+01  -6.535508e+00
  -9.851886e-01   3.460289e+01
  -5.929721e+01  -1.901157e+01
  -6.918345e+01  -7.073023e+01
   8.036708e+01  -8.333686e+01
   1.652514e+02  -5.452979e+01
   9.639897e+01   5.393019e+01
   2.285047e+01   5.650818e+01
  -4.763636e+01   3.470363e+01
  -7.426244e+01   3.808316e+01
   5.184330e+00  -7.556147e+01
   7.939602e+01  -7.115820e-01
   1.783094e+01   8.960346e+01
  -8.795568e+01   1.536535e+02
  -1.035816e+02   8.245885e+01
  -7.613290e+01  -8.170019e+01
  -5.239696e+01  -1.657927e+02
   8.489281e+01  -1.261151e+02
   6.751586e+01  -2.437180e+00
   3.123492e+01   1.173926e+02
   1.127518e+01   6.276033e+01
  -7.896067e+01  -2.834023e+00
  -2.873762e+01  -3.677074e+01
  -2.099740e-01  -3.189952e+01
   6.232185e+00   1.722977e+01
  -2.641923e+01  -4.921354e+01
  -3.783059e+01  -8.707922e+01
  -1.129340e+01  -1.320193e+02
   5.519815e+01  -5.647479e+01
   1.528536e+02   3.433736e+01
   1.136579e+02   4.649547e+01
  -8.028016e+00   5.255410e+01
  -4.459784e+01   4.023116e+01
  -6.917023e+01   9.900326e+00
  -6.151516e+00   2.306691e+01
   3.847961e+01   8.671982e+00
   1.903921e+01   3.287872e+01
  -4.330050e+01  -8.627278e+00
   3.742765e+01   4.277314e+01
   3.900751e+01   6.049800e+00
   8.352699e+01   5.136052e+01
   9.812567e+00   5.004518e+01
  -1.119082e+02   7.499919e+01
  -1.338635e+02   2.792819e+01
  -1.584654e+02   1.466800e+01
   4.408759e+00  -1.494975e+02
   8.729422e+01  -5.806661e+01
   1.131606e+02  -7.933691e+01
   1.126749e+02  -3.410627e+01
   2.536608e+01   1.441507e+01
   4.605235e+01   4.460143e+01
   5.077838e+01   3.810437e+01
   4.062645e+01   3.431994e+01
   2.774013e+01   6.643362e+01
   8.297258e+00   6.054127e+01
  -7.652447e+01   2.292895e+01
  -9.333321e+01  -1.232318e+02
  -1.931195e+01  -1.097829e+02
   3.450422e+01  -3.299062e+01
   9.469323e+01   2.755616e+01
   4.280884e+01   6.770905e+01
  -4.436565e+01   6.179510e+01
  -1.055477e+02  -6.416628e-01
  -6.188217e+01  -3.567518e+01
   2.501811e+01  -4.989340e+01
   1.788163e+01  -4.530684e+01
  -6.106510e+00   2.431992e+01
  -9.255281e+01  -4.306349e+01
  -3.945238e+01  -2.549355e+01
   4.385908e+01  -8.711308e+01
   1.318057e+02  -7.526670e+01
   6.749116e+01   3.326474e+00
  -3.368551e+01   9.687251e+01
  -8.212569e+01   7.084968e+01
  -2.790847e+01   7.190553e-01
   1.219355e+01  -5.390012e+01
   3.702434e+01  -1.887644e+01
   2.220862e+01   4.987892e+01
   3.020151e+01   6.275006e+01
   2.845332e+01   6.311629e+01
  -2.379226e+01  -2.162961e+01
   2.147244e+00  -3.299580e+01
  -2.675621e+01  -1.349964e+01
  -2.754404e+01   6.819373e+01
   1.656003e+01   3.413520e+01
  -2.015359e+01  -4.758178e+01
   5.909605e+00  -5.587085e+01
   3.511603e+01  -6.503719e+00
   4.309370e+01  -1.413005e+00
   1.620805e+01   4.981728e+01
  -2.880596e+01   1.699671e+01
  -3.684421e+01   1.046974e+01
   5.462503e+00  -4.625195e+01
   4.504821e+01  -3.869687e+00
   7.916256e+01   2.935788e+01
   1.395908e+01   1.329139e+01
  -2.093796e+01   9.462196e+00
  -6.853135e+01   4.350570e+01
  -2.862387e+01   4.185154e+00
   8.089136e+00   1.536315e+01
   3.696384e+01  -9.466304e+00
  -1.879734e+01   4.855197e+01
  -1.159868e+02   1.710436e+01
