
 $NMID
 id='ANONYMOUS ', fmtdat='(2E16.6)'
 volume=1.0
 tramp=1.0
 $END
  -1.525599e+03   2.079350e+02
  -1.283921e+03  -9.456786e+02
   6.938804e+01  -1.235248e+03
   6.702189e+02  -1.094355e+03
   7.385608e+02  -2.835254e+02
   1.518216e+02   8.155385e+01
  -1.985641e+02  -1.694237e+02
  -1.457970e+01  -3.207207e+02
   3.700865e+02  -4.166986e+02
   2.618882e+02  -9.450353e+01
   2.269711e+02   2.642127e+02
   7.513261e+01   4.491364e+02
  -1.644116e+02   2.012976e+02
  -2.165312e+02  -3.022888e+02
   7.932407e-01  -3.375991e+02
   3.204485e+02  -1.266427e+02
   1.928797e+02   2.987615e+02
  -5.199220e+01   3.777280e+02
  -3.704675e+02   2.864687e+02
  -3.102517e+02  -1.054829e+02
  -1.113785e+02  -2.493903e+02
   6.994528e+01  -1.652405e+02
   4.125825e+01  -7.477988e+01
  -1.627791e+02  -9.796638e+01
  -9.738449e+01  -3.041145e+02
   1.472043e+01  -2.276278e+02
   3.147905e+02  -8.551196e+01
   3.729705e+02   1.892282e+02
   1.349141e+02   2.285101e+02
  -2.389912e+02   2.010016e+02
  -2.301583e+02  -1.418113e+01
  -5.946143e+01  -2.103507e+02
   2.301126e+02  -2.844054e+02
   1.864260e+02  -7.080202e+01
   1.547694e+02   1.061815e+02
   6.598310e+01   1.549615e+02
  -2.907575e+01   1.308713e+02
  -7.529320e+00  -3.909984e+01
   4.937953e+01   1.501019e+01
   1.050994e+02   1.348853e+02
  -2.416416e+01   3.365359e+02
  -1.702539e+02   2.417110e+02
  -5.495744e+01  -5.546121e+00
  -2.083377e+01  -2.835942e+02
   1.674557e+02  -6.391514e+01
   1.625256e+02   1.760923e+02
  -9.589259e+01   2.538162e+02
  -2.072719e+02   5.253120e+01
  -3.640566e+02  -2.014608e+02
  -2.061462e+01  -2.258875e+02
   2.004880e+02  -1.255650e+02
   3.673736e+02   3.387251e+01
   1.849393e+02   1.660027e+02
   6.501997e+01   1.510148e+02
  -2.533892e+02   7.466277e+01
  -1.032472e+02  -5.631454e+01
  -6.388702e+01   2.367515e+01
   3.075564e+01  -2.035350e+01
  -7.395243e+01   2.967375e+01
  -1.069699e+02  -9.874857e+00
  -1.003921e+02  -6.909902e+00
   1.799100e+02  -1.536070e+02
   2.072730e+02  -1.321027e+02
   1.901499e+02   3.073114e+01
   4.971446e+00   2.022754e+02
  -2.345348e+02   2.816861e+02
  -2.608719e+02   1.366729e+02
  -1.952662e+02  -1.337774e+02
  -2.367966e+01  -2.207703e+02
   2.810257e+00  -2.643776e+02
  -2.956477e+01  -1.326476e+02
  -2.004231e+00  -1.042774e+02
   1.117158e+02  -1.138060e+02
   2.319098e+02  -5.095713e+01
   1.964380e+02   9.772563e+01
   5.397370e+01   1.768574e+02
  -3.038156e+01   4.463023e+01
  -8.633107e+01  -9.283699e+01
  -7.552822e+01  -1.931437e+02
   1.098472e-01  -1.613282e+02
   1.219433e+02   3.972026e+01
   2.121535e+02   8.304319e+01
   7.415939e+01   1.868289e+02
  -1.381380e+01   1.903781e+02
  -6.276435e+01   1.821023e+02
  -8.905450e+01   7.480479e+01
  -1.394497e+02   1.005139e+01
  -2.267874e+02  -1.645503e+00
  -2.906188e+02  -1.342603e+02
  -2.484322e+02  -2.424033e+02
   2.755142e+01  -2.890874e+02
   3.078249e+02  -2.515524e+02
   2.966677e+02  -2.812396e+01
   1.861101e+02   7.821005e+01
   2.421347e+01   1.396451e+02
  -7.733023e+01   1.548207e+02
   2.253017e+01   4.067992e+01
   1.300445e+02  -2.609754e+01
   3.836764e+01   3.354673e+01
   1.264274e-01   1.113139e+02
  -7.412561e+01   6.299446e+01
  -7.755693e+01  -7.186173e+01
   1.789734e+01  -7.022336e+01
   9.043663e+01  -1.887526e+01
   9.834150e+01   7.854750e+01
   3.274606e+01   2.050490e+02
  -1.512806e+02   1.164015e+02
  -2.557361e+02  -3.298937e+01
  -2.017951e+02  -2.312142e+02
  -3.020858e+01  -1.876664e+02
   9.856333e+01  -7.679005e+01
   9.806620e+01  -1.843423e+01
   4.995480e+01   4.043723e+01
  -8.421094e+01  -2.171187e+01
  -6.483485e+00  -5.364006e+01
   7.749081e+01  -1.739793e+01
   1.070490e+02   2.081982e+01
   8.879784e+00   1.765929e+01
  -3.258576e+01  -1.462200e+01
  -2.294306e+01  -8.588616e+01
   7.660642e+01  -1.179476e+02
   2.071178e+02   9.542462e+00
   2.029480e+02   1.631553e+02
   1.196085e+01   1.675728e+02
  -1.755373e+02   1.547966e+02
  -1.250577e+02   1.112357e+02
  -1.267195e+02  -5.449533e+01
   1.624457e+01  -5.501557e+01
   3.290389e+01  -2.253279e+01
  -4.234468e+01   4.840907e+01
  -1.399080e+02   3.642241e+01
  -2.084989e+02  -8.580148e+01
  -5.499033e+01  -7.372099e+01
   5.814448e+01  -1.294936e+02
   6.177511e+01  -3.241341e+01
   2.225633e+00   6.350476e+01
  -4.421203e+01  -5.052860e+00
  -1.096420e+01  -6.765518e+01
   8.527399e+01  -5.115489e+01
   1.250379e+02  -3.208165e+01
   1.304996e+02   1.023207e+02
   9.428418e+00   1.521136e+02
  -1.188196e+02   1.216275e+02
  -8.896853e+01  -1.241883e+01
  -6.258204e+01  -8.294279e+01
   4.135184e+01  -1.197082e+02
   3.218942e+01  -2.707103e+01
  -2.823591e+01   1.001741e+01
  -2.037406e+01   1.386175e+01
   2.220374e+01  -3.378599e+01
   7.652675e+01   8.451248e+00
   8.757580e+01   7.405367e+01
  -1.919216e+01   1.226303e+02
  -1.156144e+02   7.163380e+01
  -1.634246e+02  -1.800044e+01
  -1.560448e+02  -1.376052e+02
  -1.667822e+01  -1.716930e+02
   5.343042e+01  -7.724473e+01
   9.744700e+01  -1.235678e-01
   6.379299e+01   3.076396e+01
   1.949887e+01   5.565838e+01
   2.962025e+01  -1.228866e+01
   4.900710e+01  -1.993817e+01
   4.276197e+01   3.039350e+01
  -4.156897e+01   8.281545e+01
  -8.066365e+01   9.380609e+01
  -6.181201e+01  -2.896576e+01
  -1.146320e+01  -9.489072e+01
   1.376633e+02  -7.534549e+01
   1.943175e+02   5.345136e+01
   7.299233e+01   2.240205e+02
  -9.816122e+01   1.912806e+02
  -1.675860e+02   2.529104e+01
  -1.631065e+02  -9.307227e+01
  -5.918372e+01  -1.186054e+02
   6.454387e+00  -1.116841e+02
   6.522774e+01  -3.350047e+01
   3.958500e+01  -4.041686e+01
   4.127118e+01  -1.029375e+02
   7.722471e+01  -5.932427e+01
   7.428981e+01   4.371044e+00
   1.094916e+02   1.225466e+02
  -2.345872e+01   1.446017e+02
  -8.445452e+01   1.690942e+02
  -1.145348e+02   4.910379e+00
  -8.093735e+01  -1.066265e+02
  -1.396990e+01  -5.743460e+01
   6.544857e+01  -4.078039e+01
   5.524088e+01   5.284198e+00
  -2.220541e+01   1.519099e+01
  -3.163201e+01   7.890488e+01
   2.095007e+01  -2.230360e+01
   6.067573e+01   7.414830e+00
   1.899295e+01   2.380194e+01
  -3.432212e+01   3.378498e+01
  -1.184713e+02  -2.139023e+01
  -1.057241e+02  -5.385159e+01
   2.063978e+01  -1.067006e+02
   1.052902e+02  -6.760730e+01
   1.155219e+02  -6.431971e+01
   1.167562e+01   5.728621e+01
  -5.440857e+01   7.613509e+01
  -3.413462e+01  -5.792661e+01
   7.482005e+00  -5.808057e+01
  -9.443714e+00  -6.878984e+01
   4.533503e+01  -5.451906e+01
   7.239329e+01  -1.058447e+01
   4.259879e+01   1.692749e+01
   2.300868e+01   3.712160e+01
   2.305593e+01  -3.464284e+01
   5.613623e+01   7.867254e+01
   6.775456e+00   1.526258e+02
  -7.058237e+01   2.049817e+01
  -9.879878e+01  -9.529443e+00
  -6.592316e+01  -3.829890e+01
  -4.150366e+01  -6.528528e+01
   5.571590e+01  -1.141124e+01
   1.775340e+01   3.505974e+01
  -3.218710e+01   2.492673e+01
  -9.112965e+01   1.388800e+01
  -2.032158e+01  -7.698626e+01
   1.041638e+02  -7.261554e+01
   6.918764e+01  -4.740001e+01
   7.996113e+01   4.913871e+01
   5.217543e+01   4.796178e+01
  -1.445466e+01   3.480197e+01
  -6.232597e+01   8.567638e+00
   4.215925e+01  -2.207123e+01
   7.058335e+01   6.209893e+00
   2.753159e+01   6.218304e+01
  -6.033932e+01   9.001793e+01
  -1.480342e+02   7.377050e+01
  -5.537113e+01  -5.602925e+01
  -8.928756e-02  -1.224032e+02
   9.503970e+01  -7.065766e+01
   1.039020e+02   1.708016e+01
   1.860289e+00   6.189790e+01
   1.547376e+01   2.865061e+01
  -4.765364e+01   8.131245e-01
  -3.063464e+01  -6.482656e+01
  -1.771036e+01   4.266138e+01
  -2.608662e+01   3.109451e+01
  -8.830246e+00  -3.371689e+01
  -3.093228e+01  -7.528360e+01
  -5.265614e+01  -9.985831e+01
   8.341569e+01  -9.488550e+00
   1.076280e+02   3.227982e+01
   1.385066e+02   4.265527e+01
   1.050960e+01  -7.242783e-01
  -4.378460e+01   2.251949e+01
  -7.485361e+01  -1.285488e+01
  -3.674814e-02   2.140981e+01
  -3.726191e+00  -5.393237e+01
  -1.065305e+01  -2.488189e+01
   2.254634e+01  -8.588866e+00
  -2.257011e+01  -1.029002e+01
   4.507737e+01  -3.254347e+01
   5.373946e+01   2.762883e+01
   3.342363e+01   1.368851e+02
  -1.000696e+02   1.046280e+02
  -1.503592e+02   8.015709e+01
  -1.286318e+02  -6.557106e+01
  -5.534316e+01  -5.284812e+01
   2.654152e+01  -9.810932e+01
   9.880739e+01  -6.661625e+01
   4.831793e+01   2.926661e+01
  -6.588534e+00   2.778020e+01
  -4.112151e+00  -2.055100e+01
   4.155970e+00   1.520413e+00
   1.698106e+01   6.614328e+01
   5.699680e+01   3.989439e+01
  -1.873572e+00   5.450242e+01
  -5.708458e+01  -1.898409e+01
  -6.467252e+01  -1.020165e+02
  -4.647191e+01  -5.569270e+01
   6.384692e+01  -5.891989e+00
   5.306762e+01   5.329396e+01
   2.314504e+01   6.445105e+01
  -1.802129e+01   6.335262e+01
  -6.879399e+01   4.426877e+00
  -5.645499e+00   1.017547e+01
   2.923495e+01  -8.106079e+01
   2.380732e+01  -3.012092e+01
  -3.382658e+01   7.654461e+00
  -5.321192e+01   2.504186e+01
   4.623311e+01   1.141756e+01
   5.059682e+01  -5.495804e+01
   1.027730e+02  -6.276632e+01
   5.368373e+01   3.278519e+01
  -4.449315e+01   4.215973e+01
  -3.768082e+01   6.311091e+01
  -7.013838e+01   1.176773e+01
  -2.918499e-01  -3.233715e+00
   6.027861e+01  -2.626332e+01
   8.752677e+00   2.634436e+01
  -3.652255e+01   3.747613e+01
   1.347224e+01   2.733262e+01
  -1.132206e+01   2.026563e+01
  -2.834377e+01  -4.195349e+01
   6.716715e+00   1.511295e+01
   2.825187e+01  -1.848492e+01
   4.670101e+01   4.016205e+00
  -1.582970e+01  -3.936250e+01
   8.444109e-01  -1.962205e+01
   3.022771e+01  -1.959168e+01
   5.739545e+01   1.254408e+01
   3.400993e+01   6.446296e+01
  -3.892502e+01   6.082790e+01
  -6.414159e+01  -2.342239e+00
  -3.405388e+01  -6.703961e+01
   4.680425e+01  -3.082117e+01
   6.118603e+01   9.943321e-01
   1.932198e+01   6.799627e+01
  -2.620963e+00   6.257724e+01
  -2.892631e+01  -9.784600e+00
  -4.146999e+01   8.243201e+00
   2.153623e+01  -1.219275e+01
   2.222676e+01  -3.235732e+01
  -1.014904e+01   2.848961e+01
  -2.075940e+01   1.168894e+01
