
 $NMID
 id='ANONYMOUS ', fmtdat='(2E16.6)'
 volume=1.0
 tramp=1.0
 $END
  -2.545152e+03   1.699825e+02
  -1.796112e+03  -7.149387e+02
  -2.287298e+01  -1.357341e+03
   8.413494e+02  -1.206995e+03
   6.411547e+02  -4.262389e+02
   3.456576e+01   1.132393e+02
  -1.815652e+02  -6.309582e+01
  -1.290007e+02  -5.429207e+02
   3.569979e+02  -6.089170e+02
   4.566307e+02  -2.012270e+02
   5.006943e+02   2.319386e+02
   2.942737e+01   4.936669e+02
  -2.943844e+02   2.501977e+02
  -4.236614e+01  -3.215948e+02
  -7.110603e+01  -4.085856e+02
   3.321283e+02  -1.427159e+02
   2.146339e+02   3.414392e+02
  -4.076086e+01   4.633802e+02
  -3.488606e+02   3.456691e+02
  -3.888550e+02  -1.750951e+01
  -1.414884e+02  -2.583763e+02
   8.102943e+01  -1.940804e+02
  -1.482387e+01  -9.558165e+01
  -1.798636e+02  -1.009047e+02
  -1.610545e+02  -2.195481e+02
   4.789394e+01  -3.431178e+02
   4.072796e+02  -1.173530e+02
   3.651836e+02   7.828930e+01
   1.287220e+02   3.064328e+02
  -3.284287e+02   5.636899e+01
  -4.440875e+02  -1.123153e+02
  -9.859880e+01  -1.869878e+02
   2.700819e+02  -1.975088e+02
   3.987427e+02  -5.862801e+01
   2.865946e+02   9.876341e+01
   9.915334e+01   1.991072e+02
   6.833338e+01   1.687750e+02
   5.272588e+01   1.552242e+01
   1.794044e+02  -4.129455e+01
   1.677830e+02   9.317251e+01
  -9.477156e+00   4.696925e+02
  -2.580783e+02   2.105574e+02
  -1.448115e+02   8.929465e+01
  -2.711324e+01  -3.436230e+02
   2.673214e+02  -1.016054e+02
   9.837109e+01   3.657462e+02
  -5.243189e+01   3.159504e+02
  -3.118489e+02   7.577520e+01
  -4.587436e+02  -2.833896e+02
  -9.721825e+01  -3.437272e+02
   1.652303e+02  -2.027473e+02
   4.091614e+02   6.878461e+01
   2.617694e+02   1.259092e+02
   9.740010e+00   1.183816e+02
  -2.588432e+02   1.049023e+02
  -1.882602e+02   3.903441e+01
  -3.708286e+01  -5.113289e+01
   3.941841e+01   8.294278e+01
  -1.759799e+02  -7.551613e+00
  -1.916500e+02   1.756876e+01
  -7.838223e+01  -8.765832e+01
   1.012686e+02  -2.493292e+02
   2.128660e+02  -1.386075e+02
   2.149965e+02   7.783033e+01
  -9.683022e+00   3.069156e+02
  -2.447185e+02   3.721900e+02
  -3.425472e+02   1.155543e+02
  -2.291741e+02  -1.112024e+02
  -7.677279e+01  -2.839409e+02
   4.567083e+01  -2.667310e+02
   1.022087e+01  -1.752008e+02
   4.338017e+01  -1.361643e+02
   1.200214e+02  -1.049796e+02
   2.322747e+02  -5.458002e+00
   2.605140e+02   5.505552e+01
   9.005008e+01   2.163461e+02
  -8.161016e+01   2.162350e+02
  -1.717593e+02  -1.000387e+02
  -8.494896e+01  -1.606668e+02
   1.609639e+01  -2.077032e+02
   2.248976e+02  -7.274625e+01
   2.675183e+02   1.067424e+02
   2.193494e+02   2.477429e+02
  -6.843973e+00   2.660905e+02
  -1.199776e+02   1.416254e+02
  -1.122004e+02   1.290789e+02
  -1.289845e+02   7.122225e+01
  -2.479788e+02   1.421105e+00
  -3.772235e+02  -1.166441e+02
  -2.982260e+02  -2.903510e+02
   3.580801e+01  -3.317869e+02
   4.040377e+02  -3.446446e+02
   4.051434e+02  -1.440358e+02
   1.814916e+02   1.209635e+02
   6.016960e+01   2.208317e+02
  -8.643361e+01   1.496588e+02
   9.482573e+00   1.672258e+01
   1.416964e+02  -4.390887e+01
   6.139793e+01   5.708947e+01
   2.562440e+01   1.416916e+02
  -8.879420e+01   1.121273e+02
  -4.469934e+01  -5.537229e+01
   6.225576e+01  -1.020612e+02
   1.402534e+02   1.726896e+00
   1.323747e+02   1.619014e+02
  -2.700654e+01   2.995533e+02
  -2.232193e+02   2.089974e+02
  -3.137712e+02   1.305485e+01
  -2.908220e+02  -2.610557e+02
  -1.264401e+02  -3.036006e+02
   1.220547e+02  -1.379993e+02
   1.495192e+02   9.775973e+00
   2.627344e+00   3.618378e+01
  -4.832970e+01  -9.074226e+01
   1.475650e+01  -6.883139e+01
   9.253448e+01  -3.393840e+01
   1.431882e+02   5.418868e+00
  -1.968215e+01  -2.792602e+01
  -7.992704e+01   2.605268e+01
  -7.307662e+01  -8.621957e+01
   1.062468e+02  -6.095593e+01
   2.770515e+02   9.818253e+00
   2.326220e+02   1.663208e+02
   1.872700e+01   2.483938e+02
  -2.203669e+02   2.170178e+02
  -2.443889e+02   1.246400e+02
  -1.456493e+02  -3.415319e+01
   2.319551e+01  -5.108488e+01
   2.057202e+01  -2.250646e+00
  -1.132431e+02   5.676794e+01
  -1.507118e+02   1.599933e+01
  -1.904783e+02  -9.361678e+01
  -5.689569e+00  -1.560250e+02
   1.114949e+02  -1.165167e+02
   1.197039e+02  -9.196208e+00
   2.403688e+01   5.998359e+01
  -4.787701e+01  -3.929041e+01
  -5.105384e+01  -1.208398e+02
   1.022043e+02  -9.597066e+01
   2.090255e+02   1.300742e+01
   1.612903e+02   1.356469e+02
   4.142705e+00   1.389406e+02
  -1.548034e+02   1.487286e+02
  -1.149288e+02   2.186752e+01
   6.658677e+00  -7.030005e+01
   5.308782e+01  -1.000931e+02
   9.532208e+01  -1.151367e+01
   2.570099e+01   3.405816e+00
   2.133194e+01   1.327934e+00
  -1.633323e+01  -4.939541e+01
   1.165618e+02  -4.798126e+00
   1.038979e+02   9.506447e+01
   1.271233e+01   1.999072e+02
  -1.487210e+02   1.300855e+02
  -2.140317e+02  -2.111119e+01
  -1.772501e+02  -1.189951e+02
  -3.742361e+01  -2.241298e+02
   1.101188e+02  -1.581487e+02
   1.358293e+02   4.116739e+00
   3.037239e+01  -1.719194e+00
   2.459779e+01   3.519382e+01
   5.443420e+01  -3.581055e+01
   5.838259e+01   1.014798e+01
   5.874728e+01   4.498834e+01
  -4.404709e+01   1.029473e+02
  -6.566722e+01   4.946367e+01
  -9.411779e+01  -4.617910e+01
   5.336395e+01  -7.653312e+01
   1.335357e+02  -5.089669e+01
   1.962710e+02   6.410142e+01
   7.501594e+01   1.899313e+02
  -1.617768e+02   1.464641e+02
  -2.245030e+02   5.642007e+01
  -2.123905e+02  -1.088608e+02
  -9.966389e+01  -1.962963e+02
   2.519028e+01  -1.227824e+02
   6.776544e+01  -7.197265e+01
   7.308286e+01  -7.139908e+01
   6.468982e+01  -8.539106e+01
   9.949417e+01  -9.700536e+01
   1.093309e+02  -2.351455e+00
   8.350655e+01   1.670126e+02
  -1.255386e+00   1.649277e+02
  -1.002093e+02   1.478719e+02
  -1.265125e+02  -1.076072e+01
  -1.137408e+02  -1.254271e+02
  -6.670811e+01  -9.881311e+01
   1.048796e+02  -6.725712e+01
   9.176836e+01   2.693354e+00
   8.926710e+00   2.613054e+01
  -1.255383e+01   3.020365e+01
   1.896477e+01  -1.101697e+01
   7.424971e+01  -9.276741e+00
   3.795124e+01   4.591047e+01
  -4.528054e+01   6.544540e+01
  -1.588491e+02  -1.707231e+01
  -9.338623e+01  -4.025226e+01
   1.146900e+01  -5.065620e+01
   1.295345e+02  -7.861186e+01
   1.187222e+02  -2.713103e+01
   4.399097e+01   5.009882e+01
  -4.631589e+01   9.259258e+01
  -7.981707e+01  -2.957997e+01
   2.840140e+01  -2.719543e+01
   4.204592e+01  -5.992734e+01
   3.347280e+01  -1.434214e+01
   6.885864e+01   9.112709e+01
   5.645195e+01   1.005063e+02
   5.728835e+01  -1.622260e+01
   4.841437e+01   3.237978e+01
   6.035016e+01   9.041893e+01
  -1.534222e+01   1.325331e+02
  -1.382590e+02   1.267980e+02
  -1.091473e+02   3.816066e+01
  -1.247785e+02  -3.116388e+01
   5.652347e+00  -9.033945e+01
   5.334379e+01  -3.750132e+01
   4.019788e+01  -5.208750e+00
  -2.150266e+01   1.757393e+01
  -1.772628e+01  -5.207259e+01
  -8.325283e+01  -9.017895e+01
   5.629736e+01  -8.572852e+01
   1.327404e+02  -2.704804e+01
   1.147115e+02   4.370547e+01
   3.526910e+01   5.695430e+01
  -5.783069e+01   1.116487e+01
  -5.247158e+01   3.086534e+01
   4.167893e+01  -2.883772e+01
   4.477181e+01   3.949528e+00
   2.727135e+01   8.904243e+01
  -2.543527e+01   1.821321e+02
  -1.496830e+02   8.036605e+01
  -9.723787e+01  -4.322613e+01
  -3.451292e+01  -1.655123e+02
   4.783855e+01  -1.198364e+02
   9.913240e+01   1.492696e+01
   7.133627e+01   8.139594e+01
  -5.033263e+01   1.022760e+02
  -2.750214e+01   2.356202e+01
  -1.509736e+01  -2.891522e+01
  -6.959987e+01  -2.479613e+01
  -3.287668e+01  -1.654123e+01
  -2.288303e+01  -4.057529e+00
  -2.648726e+01  -8.912668e+01
  -4.150337e+01  -1.142373e+02
   1.570047e+01  -2.326101e+01
   1.344976e+02   5.415754e+01
   8.558347e+01   8.203609e+01
   2.648573e+01   1.112191e+01
  -6.295528e+01   2.118665e+01
  -9.792517e+01  -1.623979e+01
  -8.732158e+00  -5.922155e+01
  -2.388127e+01  -3.322534e+01
   6.320936e+00  -1.062773e+01
  -1.114592e+01   2.494908e+01
  -3.031736e+01  -1.747365e+01
   3.563257e+01   2.654804e+01
   7.888064e+01  -5.135645e+00
   5.254282e+00   9.916001e+01
  -8.467079e+01   8.781098e+01
  -1.181580e+02   5.203979e+01
  -1.565942e+02  -5.551943e+01
  -5.060586e+01  -7.854328e+01
   6.068835e+01  -1.127870e+02
   8.788227e+01  -6.176802e+01
   5.468315e+01  -4.900567e+00
  -1.649388e+01   4.471450e+01
   1.847976e+01  -1.041173e+01
   9.955918e+00   1.358185e+01
   3.173534e+01   2.497517e+01
  -6.425428e-01   1.297198e+02
  -4.737818e+01   5.968805e+01
  -1.174711e+02  -2.967645e+01
  -8.548142e+01  -1.028059e+02
  -3.906765e+01  -1.406040e+02
   1.004655e+02  -2.787503e+01
   7.410775e+01   3.891223e+01
   4.546865e+01   8.693289e+01
  -6.140313e+01   1.046037e+02
  -1.040948e+02   2.725290e+01
  -4.788113e+01  -5.080961e+01
   1.711770e+01  -8.254586e+01
   3.406259e+01  -1.511319e+01
  -2.218568e+00   2.151835e+01
  -8.342526e+01   5.797570e+01
   3.693885e+00  -3.146767e+01
   5.202357e+01  -2.634183e+01
   1.511309e+02  -6.307581e+01
   7.267546e+01   8.211807e+00
   9.099278e+00   9.023862e+01
  -4.679404e+01   7.282306e+01
  -5.770769e+01  -1.878668e+00
   1.850022e+00  -1.031822e+02
   6.131668e+01  -4.272014e+01
   8.388277e+01   3.137102e+00
   3.056444e+01   7.214493e+01
  -1.470818e+01   6.938343e+01
  -1.954576e+01   4.294221e+00
  -6.633643e+01   3.521200e+00
  -5.065595e+00  -1.006146e+01
  -3.660586e+00   4.991434e+00
  -3.236032e+01  -2.749083e+00
  -4.499072e+00  -2.696270e+01
  -2.084550e+01  -6.783170e+01
   2.191840e+01  -4.005157e+01
   5.593424e+01   5.803837e+00
   3.350521e+01   5.400898e+01
  -4.072789e+01   5.940049e+00
  -3.120392e+01  -3.960366e+01
  -5.465149e+01  -4.961446e+01
   5.785885e+01  -5.065727e+01
   8.034990e+01  -1.297559e+01
   6.702272e+01   4.984798e+00
  -7.024584e+00   4.701149e+01
  -7.304658e+01   3.093272e+01
  -3.607640e+01  -2.413210e+01
   1.285150e+01  -2.065072e+01
   2.645039e+01  -1.878305e+01
  -1.609216e+01   5.480418e+01
  -6.959882e+01  -6.435979e+00
