
 $NMID
 id='ANONYMOUS ', fmtdat='(2E16.6)'
 volume=1.0
 tramp=1.0
 $END
  -5.920441e+07   1.747284e+05
  -3.542532e+07  -3.724469e+07
   8.299546e+06  -4.029809e+07
   2.923105e+07  -1.475519e+07
   1.703563e+07   8.082759e+06
  -3.822585e+06   9.757663e+06
  -1.021532e+07  -1.770846e+06
  -2.474851e+06  -1.032882e+07
   6.787795e+06  -9.333837e+06
   1.006827e+07  -1.722090e+06
   7.188093e+06   6.406779e+06
   8.504175e+05   8.769150e+06
  -4.062062e+06   2.916033e+06
  -2.629274e+06  -5.351687e+06
   3.985375e+06  -6.480102e+06
   8.149555e+06   1.582993e+06
   4.484141e+06   1.064049e+07
  -4.041406e+06   1.222201e+07
  -1.054113e+07   6.173419e+06
  -1.134723e+07  -2.015595e+06
  -7.148788e+06  -7.801090e+06
  -8.939900e+05  -9.283293e+06
   3.248555e+06  -6.604007e+06
   2.436022e+06  -2.728234e+06
  -8.249312e+05  -1.784184e+06
  -4.158563e+05  -3.931941e+06
   5.162662e+06  -4.542414e+06
   9.680728e+06  -7.676046e+05
   7.303797e+06   4.057802e+06
   5.650831e+05   5.216706e+06
  -3.510726e+06   2.855317e+06
  -2.534057e+06   3.680424e+05
   2.289488e+05  -6.868390e+05
   1.867709e+06  -5.789151e+05
   2.146372e+06   1.085200e+06
   9.640286e+05   3.763445e+06
  -1.701843e+06   4.072916e+06
  -3.537631e+06   1.419086e+05
  -2.057195e+06  -3.771192e+06
   7.729393e+05  -2.308629e+06
   5.236407e+05   2.222255e+06
  -2.435530e+06   2.237475e+06
  -2.460701e+06  -3.375230e+06
   2.744671e+06  -6.406051e+06
   7.519651e+06  -1.001327e+06
   5.429940e+06   7.355116e+06
  -2.094093e+06   8.993007e+06
  -7.760214e+06   2.535423e+06
  -7.040841e+06  -4.606973e+06
  -1.714315e+06  -6.136545e+06
   3.575709e+06  -2.623614e+06
   5.216629e+06   1.701551e+06
   2.284051e+06   3.613376e+06
  -2.599285e+06   2.202931e+06
  -4.667249e+06  -1.044056e+06
  -1.946783e+06  -2.871486e+06
   1.805087e+06  -1.408233e+06
   1.700626e+06   1.076362e+06
  -1.520592e+06   8.308937e+05
  -2.548114e+06  -2.078559e+06
   8.950226e+05  -3.764569e+06
   5.063927e+06  -1.929404e+06
   5.546378e+06   1.596093e+06
   2.334762e+06   4.220080e+06
  -1.789379e+06   5.398863e+06
  -4.943179e+06   4.967771e+06
  -6.246595e+06   1.892439e+06
  -4.775571e+06  -3.110886e+06
  -1.045064e+06  -6.246748e+06
   1.979327e+06  -4.786227e+06
   1.893840e+06  -1.051099e+06
   5.990194e+04   4.837301e+05
  -3.266053e+05  -9.033096e+05
   1.345296e+06  -1.926059e+06
   2.727604e+06  -4.856062e+05
   2.093267e+06   1.698530e+06
   1.844895e+05   2.019986e+06
  -1.378606e+06   2.433010e+05
  -1.602973e+06  -1.933232e+06
  -6.401345e+04  -2.858530e+06
   2.704591e+06  -1.739435e+06
   4.553653e+06   1.068659e+06
   3.389959e+06   3.787897e+06
   2.925729e+04   4.406462e+06
  -2.373898e+06   2.874474e+06
  -2.372880e+06   1.160102e+06
  -1.900338e+06   6.151974e+05
  -2.936963e+06   4.053963e+05
  -4.309021e+06  -8.062416e+05
  -3.431907e+06  -2.761685e+06
  -1.115727e+05  -4.064886e+06
   3.133286e+06  -3.839194e+06
   4.057915e+06  -2.148316e+06
   2.632134e+06   3.176079e+05
   3.752012e+05   2.164691e+06
  -1.001317e+06   1.947714e+06
  -5.644598e+05   3.326886e+02
   1.040883e+06  -1.306203e+06
   1.903337e+06  -4.063396e+05
   9.572295e+05   1.202787e+06
  -4.771819e+05   1.092812e+06
  -3.602946e+05  -3.984359e+05
   1.152885e+06  -5.920417e+05
   1.838256e+06   1.494861e+06
   4.407229e+05   3.595756e+06
  -1.842684e+06   3.267454e+06
  -3.199661e+06   8.373250e+05
  -3.135578e+06  -1.589356e+06
  -2.068080e+06  -2.695016e+06
  -3.878762e+05  -2.488892e+06
   1.191758e+06  -1.425707e+06
   1.529493e+06  -2.447222e+05
   4.844569e+05   4.566761e+04
  -3.484153e+05  -7.446615e+05
   4.360031e+05  -1.349538e+06
   1.933923e+06  -5.708121e+05
   2.029239e+06   9.283880e+05
   3.511358e+05   1.437354e+06
  -1.172576e+06   5.439347e+05
  -8.341917e+05  -4.606262e+05
   8.723092e+05  -4.424531e+05
   2.092797e+06   4.118260e+05
   1.606341e+06   1.350083e+06
  -3.104319e+05   1.870650e+06
  -2.270982e+06   1.562491e+06
  -2.721694e+06   2.409472e+05
  -1.201581e+06  -1.276679e+06
   9.286017e+05  -1.519797e+06
   1.587019e+06  -1.942620e+05
   2.220776e+05   1.092007e+06
  -1.508847e+06   7.320455e+05
  -1.688618e+06  -8.024650e+05
  -2.803530e+05  -1.639016e+06
   1.121872e+06  -9.134153e+05
   1.227188e+06   3.716549e+05
   1.966576e+05   7.934356e+05
  -8.151881e+05   4.279271e+04
  -7.366165e+05  -1.050369e+06
   5.599394e+05  -1.413153e+06
   1.978595e+06  -5.475337e+05
   2.015583e+06   1.033267e+06
   3.732175e+05   2.057411e+06
  -1.445725e+06   1.617907e+06
  -1.713154e+06   1.816523e+05
  -4.721407e+05  -8.711053e+05
   6.653377e+05  -7.773580e+05
   5.978987e+05  -7.413428e+04
  -1.438637e+05   3.073394e+05
  -4.482813e+05   1.512654e+05
  -4.036117e+04  -5.476269e+04
   4.851583e+05   1.452591e+05
   4.852426e+05   7.219747e+05
  -2.491251e+05   1.180778e+06
  -1.382540e+06   8.662474e+05
  -2.052020e+06  -4.244599e+05
  -1.440767e+06  -1.924918e+06
   2.211639e+05  -2.373741e+06
   1.590529e+06  -1.347458e+06
   1.626167e+06   1.612147e+05
   7.823714e+05   8.528894e+05
   2.887790e+05   5.578041e+05
   5.117550e+05   1.630541e+05
   6.707122e+05   3.287187e+05
   9.569115e+04   7.879773e+05
  -8.844191e+05   8.740139e+05
  -1.417166e+06   2.835276e+05
  -9.889762e+05  -7.066366e+05
   2.805145e+05  -1.390365e+06
   1.695067e+06  -1.014893e+06
   2.191879e+06   4.948004e+05
   1.080521e+06   2.081753e+06
  -1.045669e+06   2.329547e+06
  -2.540044e+06   9.755709e+05
  -2.291246e+06  -7.054951e+05
  -8.708787e+05  -1.325775e+06
   2.434276e+05  -8.759985e+05
   3.477623e+05  -4.485759e+05
   8.250834e+03  -7.450889e+05
   6.915991e+04  -1.328796e+06
   6.747225e+05  -1.299835e+06
   1.296493e+06  -3.218257e+05
   1.324591e+06   1.061421e+06
   5.494709e+05   1.862606e+06
  -6.086136e+05   1.412605e+06
  -1.260603e+06  -1.517296e+04
  -7.834088e+05  -1.287169e+06
   4.232198e+05  -1.377298e+06
   1.187019e+06  -3.552528e+05
   8.028904e+05   7.522804e+05
  -1.675156e+05   1.095096e+06
  -5.864400e+05   7.619729e+05
  -1.084477e+05   3.869977e+05
   4.360774e+05   3.183183e+05
   6.513693e+04   3.718613e+05
  -1.150886e+06   1.970345e+05
  -2.057710e+06  -3.428804e+05
  -1.590146e+06  -1.043797e+06
   7.506855e+04  -1.439917e+06
   1.607995e+06  -1.132167e+06
   1.819023e+06  -2.432817e+05
   8.073456e+05   5.362716e+05
  -2.764524e+05   5.822486e+05
  -5.169690e+05   1.284405e+04
  -4.524758e+04  -4.429129e+05
   4.199724e+05  -2.624986e+05
   4.797628e+05   3.354146e+05
   2.859857e+05   6.999431e+05
   1.291426e+05   4.681600e+05
   1.316069e+05  -6.743545e+04
   2.472444e+05  -2.549193e+05
   2.636731e+05   2.332563e+05
  -1.212305e+05   9.571823e+05
  -8.867321e+05   1.056021e+06
  -1.384068e+06   1.989741e+05
  -8.836560e+05  -8.969738e+05
   4.069579e+05  -1.157362e+06
   1.262666e+06  -3.710554e+05
   7.283774e+05   5.503238e+05
  -7.013384e+05   6.297457e+05
  -1.544766e+06  -1.185460e+05
  -9.350163e+05  -8.617645e+05
   5.172986e+05  -9.392384e+05
   1.464162e+06  -4.112587e+05
   1.175381e+06   2.202368e+05
   1.097795e+05   4.961837e+05
  -6.441874e+05   2.441780e+05
  -3.917339e+05  -3.021938e+05
   5.542431e+05  -5.353931e+05
   1.167922e+06   4.387510e+04
   7.040534e+05   1.142216e+06
  -5.255595e+05   1.693932e+06
  -1.432126e+06   9.080668e+05
  -1.240353e+06  -7.215714e+05
  -2.129765e+05  -1.748703e+06
   7.218965e+05  -1.249284e+06
   9.005546e+05   1.996129e+05
   3.958537e+05   1.173100e+06
  -2.527290e+05   9.293931e+05
  -5.635269e+05   6.701574e+04
  -4.290824e+05  -3.624681e+05
  -1.280753e+05  -1.240107e+05
  -6.012409e+04   8.349135e+04
  -3.231642e+05  -3.114634e+05
  -5.216540e+05  -9.563407e+05
  -1.505570e+05  -1.050258e+06
   7.463861e+05  -3.826697e+05
   1.442305e+06   4.491707e+05
   1.220531e+06   8.161607e+05
   1.796367e+05   6.931649e+05
  -8.007267e+05   4.199587e+05
  -9.519873e+05   1.702697e+05
  -3.840972e+05  -7.134317e+04
   1.276484e+05  -2.262524e+05
   7.591134e+04  -1.804567e+05
  -2.156375e+05  -6.621086e+04
  -6.876637e+04  -1.276459e+05
   5.989269e+05  -2.559986e+05
   1.035306e+06  -1.379254e+04
   5.014330e+05   6.840800e+05
  -7.700491e+05   1.196440e+06
  -1.695114e+06   7.986498e+05
  -1.452269e+06  -3.803862e+05
  -3.070788e+05  -1.371815e+06
   7.503632e+05  -1.379026e+06
   1.027035e+06  -5.758109e+05
   6.412049e+05   1.931063e+05
   1.572469e+05   3.518508e+05
  -2.680571e+04   9.497008e+04
   9.516078e+04   1.522538e+04
   2.778090e+05   3.726920e+05
   2.342728e+05   7.925389e+05
  -1.569454e+05   6.816637e+05
  -6.628522e+05  -7.554853e+04
  -7.717582e+05  -8.923727e+05
  -1.849353e+05  -1.019097e+06
   7.076060e+05  -3.039607e+05
   1.047143e+06   6.474789e+05
   3.939023e+05   1.069409e+06
  -6.824995e+05   7.156826e+05
  -1.126844e+06  -4.004961e+04
  -5.616984e+05  -6.272864e+05
   2.743961e+05  -7.171400e+05
   4.074055e+05  -3.791803e+05
  -1.994729e+05   1.261511e+04
  -6.271248e+05   5.727676e+04
  -1.651751e+05  -3.094365e+05
   8.013145e+05  -6.761286e+05
   1.269115e+06  -5.192190e+05
   7.983106e+05   1.970906e+05
  -7.566719e+04   8.756425e+05
  -5.682198e+05   8.711415e+05
  -4.614021e+05   1.997634e+05
  -8.587485e+04  -4.521147e+05
   2.187967e+05  -4.579927e+05
   3.469719e+05   9.745896e+04
   2.678287e+05   5.620967e+05
  -3.253037e+04   4.594236e+05
  -3.877461e+05  -1.814324e+04
  -4.883086e+05  -2.960117e+05
  -2.411007e+05  -1.161612e+05
   5.767848e+04   1.796603e+05
   8.301916e+04   1.083710e+05
  -7.665849e+04  -3.210750e+05
  -4.429719e+04  -5.886641e+05
   2.831694e+05  -2.982071e+05
   5.150041e+05   3.139091e+05
   2.428175e+05   6.279572e+05
  -3.738480e+05   3.395560e+05
  -6.888703e+05  -2.325962e+05
  -2.844025e+05  -5.421978e+05
   5.048240e+05  -3.774070e+05
   8.965433e+05   3.576466e+04
   4.930303e+05   3.604447e+05
  -2.805154e+05   4.330667e+05
  -6.361003e+05   2.785364e+05
  -2.801922e+05   3.062683e+04
   2.919452e+05  -1.100011e+05
   3.842183e+05   5.018243e+03
  -1.199875e+05   2.616374e+05
  -6.618456e+05   2.861374e+05
