
 $NMID
 id='ANONYMOUS ', fmtdat='(2E16.6)'
 volume=1.0
 tramp=1.0
 $END
  -2.894560e+07   2.735700e+06
  -1.974062e+07  -1.551411e+07
   1.132990e+06  -1.991371e+07
   1.339175e+07  -9.911971e+06
   9.503731e+06   1.934353e+06
  -7.868615e+05   5.180050e+06
  -5.467595e+06   4.744824e+05
  -2.548016e+06  -4.981001e+06
   2.535495e+06  -5.867825e+06
   5.108188e+06  -1.997873e+06
   4.099679e+06   3.030898e+06
   7.824757e+05   4.743386e+06
  -2.071768e+06   1.535811e+06
  -1.681895e+06  -3.188375e+06
   1.712661e+06  -4.101387e+06
   4.356496e+06   9.216005e+04
   3.034363e+06   5.204802e+06
  -1.306222e+06   6.531787e+06
  -5.007736e+06   3.594417e+06
  -5.643808e+06  -6.652512e+05
  -3.549109e+06  -3.519710e+06
  -6.854137e+05  -4.113363e+06
   8.444462e+05  -3.045049e+06
   2.313530e+05  -1.812248e+06
  -9.333852e+05  -1.801985e+06
   7.251470e+03  -2.668497e+06
   3.240335e+06  -2.462550e+06
   5.473001e+06  -2.832100e+05
   3.881817e+06   2.149461e+06
  -2.028894e+04   2.619372e+06
  -2.234996e+06   1.183618e+06
  -1.229606e+06  -3.385307e+05
   9.059420e+05  -7.518488e+05
   1.813230e+06  -9.398737e+04
   1.261065e+06   1.228089e+06
   1.263476e+05   2.381201e+06
  -9.614797e+05   1.984522e+06
  -1.395271e+06  -1.496478e+05
  -7.255522e+05  -1.747729e+06
   2.398222e+05  -6.462964e+05
  -4.149531e+04   1.658217e+06
  -1.412981e+06   1.505565e+06
  -1.588980e+06  -1.536270e+06
   6.829064e+05  -3.422442e+06
   3.268411e+06  -1.068879e+06
   2.974982e+06   3.175230e+06
  -4.030538e+05   4.490749e+06
  -3.759768e+06   1.634543e+06
  -4.144300e+06  -2.120935e+06
  -1.490243e+06  -3.373999e+06
   1.846001e+06  -1.853658e+06
   3.249581e+06   5.076835e+05
   1.766940e+06   1.852010e+06
  -1.095767e+06   1.429423e+06
  -2.537437e+06  -1.750290e+05
  -1.293113e+06  -1.327568e+06
   8.271844e+05  -8.420521e+05
   1.123533e+06   4.956759e+05
  -5.140500e+05   7.812242e+05
  -1.546362e+06  -4.784020e+05
  -2.643832e+05  -1.712509e+06
   2.041891e+06  -1.409519e+06
   2.912422e+06   1.930093e+05
   1.561996e+06   1.912682e+06
  -8.448492e+05   2.950403e+06
  -2.806043e+06   2.802129e+06
  -3.434793e+06   1.051666e+06
  -2.506374e+06  -1.679861e+06
  -6.505133e+05  -3.441172e+06
   7.720730e+05  -2.882573e+06
   8.918806e+05  -1.056138e+06
   3.431282e+05  -1.247199e+05
   3.837764e+05  -5.540084e+05
   1.176608e+06  -8.169036e+05
   1.666983e+06   1.312752e+05
   1.080158e+06   1.361503e+06
  -1.799123e+05   1.375483e+06
  -1.136223e+06   5.074109e+04
  -1.105749e+06  -1.401343e+06
   1.677645e+04  -1.817705e+06
   1.631169e+06  -9.292375e+05
   2.518196e+06   6.871600e+05
   1.808687e+06   2.004727e+06
   1.012151e+05   2.227780e+06
  -1.059430e+06   1.507876e+06
  -1.085882e+06   7.716431e+05
  -1.004053e+06   5.795925e+05
  -1.771562e+06   4.689855e+05
  -2.680267e+06  -2.818510e+05
  -2.225255e+06  -1.575351e+06
  -1.937084e+05  -2.548841e+06
   1.925294e+06  -2.470898e+06
   2.574023e+06  -1.304352e+06
   1.591608e+06   3.190962e+05
   7.269162e+04   1.381295e+06
  -7.265322e+05   1.133501e+06
  -3.241371e+05  -5.142646e+04
   6.789252e+05  -8.025328e+05
   1.137482e+06  -2.812774e+05
   5.419859e+05   6.881363e+05
  -3.409665e+05   6.957337e+05
  -3.574698e+05  -2.399615e+05
   5.576360e+05  -6.147904e+05
   1.257566e+06   4.725164e+05
   7.797154e+05   2.022573e+06
  -6.121967e+05   2.368621e+06
  -1.893502e+06   1.113418e+06
  -2.293645e+06  -6.736309e+05
  -1.662877e+06  -1.762758e+06
  -3.701979e+05  -1.731608e+06
   7.847927e+05  -9.413198e+05
   9.984075e+05  -1.390620e+05
   3.092858e+05   1.916653e+04
  -2.440300e+05  -4.600833e+05
   1.898474e+05  -8.232337e+05
   1.117532e+06  -4.163628e+05
   1.277456e+06   4.471034e+05
   3.132281e+05   8.425586e+05
  -7.097198e+05   4.052096e+05
  -6.134710e+05  -2.720054e+05
   5.086061e+05  -4.289019e+05
   1.462604e+06   7.887800e+04
   1.237536e+06   8.438491e+05
  -7.751334e+04   1.334827e+06
  -1.440684e+06   1.143373e+06
  -1.749963e+06   2.455203e+05
  -7.914518e+05  -7.371734e+05
   5.090160e+05  -9.217372e+05
   9.168673e+05  -1.569800e+05
   1.299363e+05   6.351775e+05
  -9.191927e+05   4.869336e+05
  -1.105179e+06  -4.286465e+05
  -2.956694e+05  -1.036409e+06
   6.385233e+05  -6.953677e+05
   8.268650e+05   1.145617e+05
   2.202163e+05   4.784923e+05
  -4.720907e+05   6.984084e+04
  -4.740551e+05  -6.313634e+05
   3.395543e+05  -8.910001e+05
   1.244382e+06  -3.638696e+05
   1.285048e+06   6.201266e+05
   2.863934e+05   1.283185e+06
  -8.489237e+05   1.064887e+06
  -1.075815e+06   1.895468e+05
  -3.563904e+05  -5.298184e+05
   3.888829e+05  -5.341211e+05
   4.218405e+05  -5.094071e+04
  -5.843789e+04   2.835928e+05
  -3.575407e+05   1.791968e+05
  -1.522708e+05  -7.569800e+04
   2.633825e+05  -4.132439e+04
   3.794840e+05   3.628903e+05
  -6.210698e+04   7.513954e+05
  -8.365199e+05   6.064275e+05
  -1.316268e+06  -2.075852e+05
  -9.582633e+05  -1.183949e+06
   8.968436e+04  -1.534655e+06
   1.002778e+06  -9.547660e+05
   1.109353e+06   2.770302e+04
   6.016961e+05   5.964748e+05
   2.042028e+05   4.912993e+05
   2.449686e+05   1.656433e+05
   3.542302e+05   1.482381e+05
   7.602822e+04   4.415482e+05
  -5.178456e+05   5.987868e+05
  -9.221109e+05   2.588777e+05
  -7.097999e+05  -4.537444e+05
   1.155386e+05  -9.738906e+05
   1.074672e+06  -7.397418e+05
   1.443652e+06   2.539229e+05
   7.847161e+05   1.295898e+06
  -5.445186e+05   1.517480e+06
  -1.555562e+06   7.394737e+05
  -1.525477e+06  -3.286583e+05
  -6.898207e+05  -8.389280e+05
   9.352384e+04  -6.606902e+05
   2.856126e+05  -3.648091e+05
   9.826453e+04  -4.480511e+05
   5.787785e+04  -7.720830e+05
   3.737076e+05  -7.962053e+05
   7.821594e+05  -2.233120e+05
   8.514407e+05   6.528003e+05
   3.821746e+05   1.180471e+06
  -3.677947e+05   9.142478e+05
  -8.153499e+05   3.192990e+04
  -5.547853e+05  -7.743985e+05
   1.841152e+05  -8.924917e+05
   6.977821e+05  -3.283098e+05
   5.381740e+05   3.621876e+05
  -4.843538e+03   6.589274e+05
  -2.727353e+05   5.258765e+05
  -3.097055e+04   2.904809e+05
   2.660448e+05   2.103956e+05
   3.767240e+04   2.423185e+05
  -7.022366e+05   1.676885e+05
  -1.282176e+06  -1.483020e+05
  -1.042902e+06  -6.010442e+05
  -4.414989e+04  -8.891657e+05
   9.356670e+05  -7.508378e+05
   1.139966e+06  -2.389284e+05
   5.592274e+05   2.560943e+05
  -1.297305e+05   3.490863e+05
  -3.154343e+05   5.209193e+04
  -2.332189e+04  -2.353481e+05
   2.839951e+05  -1.596330e+05
   3.044630e+05   2.045125e+05
   1.410553e+05   4.478231e+05
   4.137686e+04   2.918107e+05
   9.488472e+04  -8.163350e+04
   2.012439e+05  -2.070008e+05
   1.845297e+05   1.391431e+05
  -8.714880e+04   6.280496e+05
  -5.403706e+05   6.833046e+05
  -8.114714e+05   1.302772e+05
  -5.196008e+05  -5.468297e+05
   2.284254e+05  -6.975256e+05
   7.545520e+05  -2.165955e+05
   4.651882e+05   3.533195e+05
  -4.235397e+05   4.305824e+05
  -1.020328e+06  -1.732052e+04
  -6.911935e+05  -5.298968e+05
   2.660930e+05  -6.663433e+05
   9.570390e+05  -3.682826e+05
   8.139690e+05   8.458160e+04
   1.067702e+05   3.334914e+05
  -4.057515e+05   1.971772e+05
  -2.424818e+05  -1.655681e+05
   3.656455e+05  -3.228052e+05
   7.366444e+05   4.604014e+04
   4.187045e+05   7.314400e+05
  -3.615790e+05   1.063791e+06
  -9.242016e+05   5.649266e+05
  -8.019916e+05  -4.626461e+05
  -1.564748e+05  -1.131960e+06
   4.492656e+05  -8.452905e+05
   5.996299e+05   8.027708e+04
   3.126067e+05   7.502474e+05
  -1.050643e+05   6.375985e+05
  -3.515313e+05   7.527863e+04
  -3.151473e+05  -2.399144e+05
  -1.199148e+05  -9.634334e+04
  -2.502120e+04   6.910444e+04
  -1.645281e+05  -1.597308e+05
  -3.343433e+05  -5.925589e+05
  -1.589461e+05  -6.909727e+05
   4.240597e+05  -2.771755e+05
   9.446781e+05   2.679659e+05
   8.435066e+05   5.131853e+05
   1.343335e+05   4.355210e+05
  -5.457854e+05   2.724765e+05
  -6.273586e+05   1.371515e+05
  -2.209934e+05  -1.148575e+04
   9.264029e+04  -1.410444e+05
   5.816658e+03  -1.476892e+05
  -1.822449e+05  -7.358721e+04
  -2.700632e+04  -8.057455e+04
   4.287531e+05  -1.451404e+05
   6.559852e+05  -8.884322e+03
   2.626523e+05   4.121014e+05
  -5.191361e+05   7.405348e+05
  -1.039697e+06   5.040485e+05
  -8.728182e+05  -2.428783e+05
  -1.927370e+05  -8.811988e+05
   4.497961e+05  -8.798578e+05
   6.450942e+05  -3.491791e+05
   4.152457e+05   1.440583e+05
   8.468707e+04   2.192237e+05
  -5.141592e+04   2.598507e+04
   5.199721e+04  -2.581951e+04
   2.068450e+05   2.257095e+05
   1.780782e+05   5.087365e+05
  -1.007805e+05   4.269038e+05
  -4.288581e+05  -7.447143e+04
  -4.704313e+05  -5.895049e+05
  -7.899977e+04  -6.366258e+05
   4.696252e+05  -1.527703e+05
   6.546438e+05   4.427791e+05
   2.333418e+05   6.733170e+05
  -4.314972e+05   4.302293e+05
  -6.974931e+05  -2.390983e+04
  -3.458570e+05  -3.611799e+05
   1.582817e+05  -4.218200e+05
   2.189177e+05  -2.439483e+05
  -1.649113e+05  -1.324092e+04
  -4.105004e+05   3.392907e+04
  -9.613651e+04  -1.861870e+05
   5.078763e+05  -4.462955e+05
   7.790859e+05  -3.815701e+05
   4.788305e+05   7.936777e+04
  -4.095869e+04   5.446740e+05
  -3.173931e+05   5.531658e+05
  -2.478579e+05   1.103875e+05
  -3.438420e+04  -3.013733e+05
   1.396434e+05  -2.717138e+05
   2.184776e+05   9.588871e+04
   1.701815e+05   3.578869e+05
  -2.054741e+04   2.593748e+05
  -2.437578e+05  -2.406269e+04
  -3.070764e+05  -1.576639e+05
  -1.591925e+05  -4.955417e+04
   2.540705e+04   8.255570e+04
   6.453317e+04   9.543292e+03
   3.321568e+03  -2.187983e+05
   3.125330e+04  -3.228345e+05
   1.893854e+05  -1.221432e+05
   2.752623e+05   2.312663e+05
   9.417467e+04   3.935314e+05
  -2.518795e+05   1.983447e+05
  -4.133071e+05  -1.635664e+05
  -1.642141e+05  -3.560488e+05
   3.081765e+05  -2.417233e+05
   5.488376e+05   2.890398e+04
   3.068117e+05   2.259229e+05
  -1.711895e+05   2.514174e+05
  -3.886280e+05   1.506410e+05
  -1.490630e+05   2.107682e+04
   2.207685e+05  -3.506406e+04
   2.538922e+05   4.477938e+04
  -1.127158e+05   1.865091e+05
  -4.754731e+05   1.756551e+05
