
 $NMID
 id='ANONYMOUS ', fmtdat='(2E16.6)'
 volume=1.0
 tramp=1.0
 $END
   4.123915e+07   1.294603e+06
   2.366037e+07   2.734405e+07
  -7.294735e+06   2.818617e+07
  -2.126344e+07   9.101031e+06
  -1.168856e+07  -6.892036e+06
   3.320870e+06  -7.156970e+06
   7.401255e+06   1.622092e+06
   1.411470e+06   7.560266e+06
  -5.248256e+06   6.403317e+06
  -7.281940e+06   7.647774e+05
  -4.851046e+06  -4.894314e+06
  -1.675592e+05  -6.301099e+06
   3.160923e+06  -1.982963e+06
   1.814902e+06   3.776294e+06
  -2.967078e+06   4.310455e+06
  -5.587071e+06  -1.463516e+06
  -2.594600e+06  -7.513413e+06
   3.399201e+06  -8.118437e+06
   7.531552e+06  -3.659829e+06
   7.704557e+06   1.887337e+06
   4.692049e+06   5.670897e+06
   3.384360e+05   6.603623e+06
  -2.691016e+06   4.645021e+06
  -2.246313e+06   1.715212e+06
   2.040122e+05   8.624204e+05
   2.977139e+05   2.409039e+06
  -3.367061e+06   3.017919e+06
  -6.582213e+06   4.464929e+05
  -5.090204e+06  -3.003530e+06
  -4.566086e+05  -3.869269e+06
   2.441662e+06  -2.192229e+06
   1.878532e+06  -4.272162e+05
   8.136335e+04   3.220437e+05
  -9.832125e+05   3.259851e+05
  -1.195473e+06  -6.919285e+05
  -4.425202e+05  -2.467246e+06
   1.360869e+06  -2.690290e+06
   2.591229e+06   1.797925e+04
   1.478520e+06   2.756142e+06
  -5.602959e+05   1.781556e+06
  -3.851981e+05  -1.322507e+06
   1.670899e+06  -1.304442e+06
   1.580221e+06   2.535524e+06
  -2.157880e+06   4.455691e+06
  -5.403314e+06   5.251740e+05
  -3.712439e+06  -5.256389e+06
   1.625181e+06  -6.201539e+06
   5.377797e+06  -1.592427e+06
   4.611315e+06   3.292632e+06
   8.710738e+05   4.191536e+06
  -2.586777e+06   1.638211e+06
  -3.468322e+06  -1.421669e+06
  -1.306108e+06  -2.738417e+06
   2.050732e+06  -1.601689e+06
   3.336326e+06   9.024586e+05
   1.281441e+06   2.259271e+06
  -1.356948e+06   1.055366e+06
  -1.151638e+06  -8.669752e+05
   1.196705e+06  -6.030695e+05
   1.815037e+06   1.662030e+06
  -7.720237e+05   2.825794e+06
  -3.685640e+06   1.238896e+06
  -3.813038e+06  -1.417696e+06
  -1.409659e+06  -3.047302e+06
   1.390653e+06  -3.492636e+06
   3.388130e+06  -3.045351e+06
   4.175579e+06  -1.061614e+06
   3.121542e+06   2.196238e+06
   4.785529e+05   4.245427e+06
  -1.667367e+06   3.136592e+06
  -1.512961e+06   4.401177e+05
  -9.118171e+02  -6.488066e+05
   4.729209e+05   4.381227e+05
  -6.583377e+05   1.341745e+06
  -1.727102e+06   4.716531e+05
  -1.413291e+06  -1.032962e+06
  -1.726466e+05  -1.328775e+06
   8.652069e+05  -1.884334e+05
   1.012185e+06   1.264177e+06
  -9.470892e+03   1.900200e+06
  -1.837443e+06   1.138832e+06
  -3.025693e+06  -8.007164e+05
  -2.173607e+06  -2.659535e+06
   1.352260e+05  -3.010613e+06
   1.743040e+06  -1.857123e+06
   1.685567e+06  -6.301401e+05
   1.292012e+06  -2.612928e+05
   1.894563e+06  -1.213839e+05
   2.711888e+06   6.911474e+05
   2.080760e+06   1.914505e+06
  -6.277616e+04   2.609526e+06
  -2.094651e+06   2.343203e+06
  -2.653121e+06   1.271564e+06
  -1.742384e+06  -2.365886e+05
  -2.588090e+05  -1.409102e+06
   7.139312e+05  -1.289972e+06
   4.548955e+05  -4.633779e+03
  -6.820647e+05   8.817240e+05
  -1.329984e+06   2.624656e+05
  -6.687446e+05  -8.581439e+05
   3.587883e+05  -7.897814e+05
   2.726959e+05   2.363211e+05
  -7.744752e+05   3.562634e+05
  -1.154670e+06  -1.071631e+06
  -6.595987e+04  -2.417392e+06
   1.473539e+06  -2.028094e+06
   2.165897e+06  -2.793353e+05
   1.875199e+06   1.281984e+06
   1.108657e+06   1.837677e+06
   1.148650e+05   1.564824e+06
  -8.095940e+05   8.367489e+05
  -9.996204e+05   8.783300e+04
  -3.163280e+05  -6.875768e+04
   2.307726e+05   4.866206e+05
  -2.977153e+05   9.024860e+05
  -1.305404e+06   3.630746e+05
  -1.369408e+06  -6.699101e+05
  -2.465238e+05  -1.015681e+06
   7.693360e+05  -4.055283e+05
   5.659780e+05   2.576624e+05
  -5.027485e+05   2.211662e+05
  -1.246293e+06  -3.339293e+05
  -9.278379e+05  -8.833470e+05
   2.679435e+05  -1.144643e+06
   1.496775e+06  -9.047528e+05
   1.772445e+06  -4.766085e+04
   7.593942e+05   9.096242e+05
  -6.660282e+05   1.012966e+06
  -1.099503e+06   9.355131e+04
  -1.636809e+05  -7.530053e+05
   1.001342e+06  -4.709882e+05
   1.096312e+06   5.730760e+05
   1.342309e+05   1.106789e+06
  -7.865722e+05   5.887994e+05
  -8.338137e+05  -2.764250e+05
  -1.567752e+05  -5.565578e+05
   4.966492e+05  -7.745355e+04
   4.666244e+05   6.189436e+05
  -3.324526e+05   8.553048e+05
  -1.226922e+06   3.089985e+05
  -1.248732e+06  -6.987525e+05
  -1.806195e+05  -1.335651e+06
   1.003046e+06  -1.006407e+06
   1.156905e+06  -4.246223e+04
   3.120629e+05   6.290289e+05
  -4.547132e+05   5.341579e+05
  -4.233398e+05   6.721812e+04
   4.107032e+04  -1.737496e+05
   2.265844e+05  -9.672168e+04
  -5.656661e+03  -1.721756e+04
  -2.732230e+05  -1.643352e+05
  -2.252054e+05  -4.821454e+05
   2.254316e+05  -7.014656e+05
   8.885779e+05  -4.688413e+05
   1.260810e+06   3.387645e+05
   8.347011e+05   1.260529e+06
  -2.397404e+05   1.500509e+06
  -1.083516e+06   7.937976e+05
  -1.033859e+06  -1.930525e+05
  -4.375024e+05  -6.086938e+05
  -1.250721e+05  -3.794080e+05
  -2.958379e+05  -1.162557e+05
  -3.912263e+05  -2.218327e+05
   9.755477e+02  -4.749429e+05
   6.009662e+05  -4.639638e+05
   8.578208e+05  -7.473138e+04
   5.256037e+05   4.807526e+05
  -2.570990e+05   8.157100e+05
  -1.079330e+06   5.344148e+05
  -1.334912e+06  -3.959875e+05
  -6.103592e+05  -1.342764e+06
   7.298899e+05  -1.438787e+06
   1.647063e+06  -5.351254e+05
   1.443299e+06   5.369854e+05
   5.106197e+05   8.897042e+05
  -1.922233e+05   5.517702e+05
  -2.414965e+05   2.614238e+05
  -3.280031e+04   4.642241e+05
  -9.567012e+04   8.435355e+05
  -4.808870e+05   8.061971e+05
  -8.362234e+05   1.595300e+05
  -8.026779e+05  -7.206126e+05
  -2.851292e+05  -1.202688e+06
   4.349165e+05  -8.819734e+05
   8.044745e+05   4.250000e+04
   4.589175e+05   8.372420e+05
  -3.131580e+05   8.621727e+05
  -7.628817e+05   1.945143e+05
  -4.816798e+05  -4.931780e+05
   1.363081e+05  -6.822161e+05
   3.835495e+05  -4.681791e+05
   8.236491e+04  -2.563377e+05
  -2.409097e+05  -2.257772e+05
  -7.585099e+03  -2.283999e+05
   7.219703e+05  -6.505554e+04
   1.257327e+06   2.985887e+05
   9.598435e+05   7.094620e+05
  -7.612701e+04   8.979963e+05
  -1.039158e+06   6.582875e+05
  -1.168232e+06   9.726002e+04
  -5.078984e+05  -3.569283e+05
   1.923796e+05  -3.486350e+05
   3.220981e+05   1.203686e+04
  -1.227738e+04   2.679401e+05
  -2.984174e+05   1.263838e+05
  -2.807458e+05  -2.482746e+05
  -1.210835e+05  -4.582524e+05
  -4.559304e+04  -3.023160e+05
  -8.954618e+04   3.109829e+04
  -1.600046e+05   1.499143e+05
  -1.285161e+05  -1.397819e+05
   1.326716e+05  -5.671624e+05
   5.782282e+05  -6.058497e+05
   8.342811e+05  -6.610641e+04
   4.937144e+05   5.870305e+05
  -2.982341e+05   6.908325e+05
  -7.943914e+05   1.608279e+05
  -4.260887e+05  -3.889655e+05
   4.756834e+05  -3.657770e+05
   9.794787e+05   1.504747e+05
   5.610246e+05   5.933231e+05
  -3.689055e+05   5.779170e+05
  -9.523941e+05   2.045443e+05
  -7.437277e+05  -1.845384e+05
  -5.439778e+04  -3.236303e+05
   4.168927e+05  -1.419701e+05
   2.383685e+05   1.929704e+05
  -3.676052e+05   3.066942e+05
  -7.281371e+05  -8.136901e+04
  -3.807058e+05  -7.515175e+05
   4.262434e+05  -1.037178e+06
   9.584360e+05  -4.916336e+05
   7.483033e+05   5.279982e+05
   4.290358e+04   1.122767e+06
  -5.208260e+05   7.628399e+05
  -5.632051e+05  -1.582041e+05
  -2.086991e+05  -7.559592e+05
   1.800801e+05  -5.850844e+05
   3.469258e+05  -2.888481e+04
   2.649582e+05   2.464945e+05
   9.172569e+04   8.622947e+04
   4.080655e+04  -5.916103e+04
   1.764236e+05   1.949212e+05
   2.857604e+05   6.244147e+05
   6.667667e+04   6.844494e+05
  -4.739160e+05   2.192515e+05
  -8.980195e+05  -3.542614e+05
  -7.485431e+05  -5.792640e+05
  -7.964059e+04  -4.412901e+05
   5.410379e+05  -2.187735e+05
   6.151591e+05  -6.548807e+04
   2.283063e+05   5.380576e+04
  -1.000414e+05   1.388387e+05
  -4.954924e+04   1.240133e+05
   1.428132e+05   5.825400e+04
   3.314739e+04   7.383913e+04
  -4.005141e+05   1.209727e+05
  -6.486103e+05  -3.982083e+04
  -2.616155e+05  -4.446741e+05
   5.568788e+05  -7.072650e+05
   1.095630e+06  -4.142323e+05
   8.737385e+05   3.167405e+05
   1.172379e+05   8.807983e+05
  -5.314420e+05   8.239907e+05
  -6.641848e+05   3.011281e+05
  -3.906338e+05  -1.557195e+05
  -7.846333e+04  -2.203013e+05
   2.938855e+04  -4.468803e+04
  -5.577341e+04  -2.564922e+03
  -1.661870e+05  -2.415737e+05
  -1.230872e+05  -5.092457e+05
   1.268468e+05  -4.223003e+05
   4.158832e+05   8.362890e+04
   4.379331e+05   6.069298e+05
   5.229965e+04   6.498263e+05
  -4.702529e+05   1.411143e+05
  -6.219709e+05  -4.754593e+05
  -1.839642e+05  -6.912462e+05
   4.653431e+05  -4.029538e+05
   6.961270e+05   8.263276e+04
   3.161450e+05   4.039508e+05
  -1.976992e+05   4.203400e+05
  -2.543345e+05   2.224283e+05
   1.411695e+05   1.759388e+04
   3.985615e+05   6.337517e+02
   8.195281e+04   1.986990e+05
  -5.401675e+05   3.901232e+05
  -8.174027e+05   2.812002e+05
  -4.830795e+05  -1.491889e+05
   9.134306e+04  -5.448429e+05
   3.877914e+05  -5.185920e+05
   2.821865e+05  -9.386608e+04
   1.998606e+04   2.939452e+05
  -1.621165e+05   2.666621e+05
  -2.102709e+05  -9.431848e+04
  -1.377805e+05  -3.676527e+05
   4.430452e+04  -2.743504e+05
   2.427831e+05   3.630843e+04
   2.924362e+05   2.006204e+05
   1.483047e+05   7.807288e+04
  -2.440804e+04  -1.027492e+05
  -5.266687e+04  -4.997788e+04
   1.140786e+04   2.111039e+05
  -2.565832e+04   3.525901e+05
  -1.976802e+05   1.461244e+05
  -2.868426e+05  -2.372384e+05
  -9.525517e+04  -4.045217e+05
   2.581420e+05  -1.853510e+05
   4.091902e+05   1.884775e+05
   1.425323e+05   3.581722e+05
  -3.313810e+05   2.102598e+05
  -5.527262e+05  -7.116397e+04
  -2.892556e+05  -2.511127e+05
   1.961810e+05  -2.503113e+05
   4.108854e+05  -1.328019e+05
   1.689254e+05  -3.187882e+03
  -2.039297e+05   4.320330e+04
  -2.478212e+05  -3.940711e+04
   1.027566e+05  -1.680247e+05
   4.541459e+05  -1.432889e+05
