
 $NMID
 id='ANONYMOUS ', fmtdat='(2E16.6)'
 volume=1.0
 tramp=1.0
 $END
  -4.212612e+07  -6.016500e+05
  -2.604406e+07  -2.453351e+07
   4.161928e+06  -2.801988e+07
   2.021594e+07  -1.290472e+07
   1.342188e+07   3.258923e+06
  -1.476279e+06   7.255129e+06
  -7.862594e+06   4.891477e+05
  -3.419464e+06  -7.283258e+06
   3.996498e+06  -8.509773e+06
   7.573368e+06  -2.585658e+06
   5.689791e+06   5.030320e+06
   5.505581e+05   7.258462e+06
  -3.377760e+06   1.931435e+06
  -2.265233e+06  -5.196677e+06
   2.869904e+06  -6.096874e+06
   6.323679e+06   5.253376e+05
   3.837725e+06   7.964983e+06
  -2.708879e+06   9.381748e+06
  -7.825540e+06   4.497289e+06
  -8.101012e+06  -1.956889e+06
  -4.398248e+06  -5.752760e+06
  -1.061939e+05  -5.872133e+06
   1.553102e+06  -3.906682e+06
   3.584874e+03  -2.494541e+06
  -1.662744e+06  -3.144697e+06
   3.829588e+05  -4.422442e+06
   5.582127e+06  -3.370973e+06
   8.563954e+06   4.775157e+05
   5.509425e+06   3.941728e+06
  -7.066896e+05   4.014603e+06
  -3.907219e+06   1.375562e+06
  -1.947453e+06  -1.040527e+06
   1.755813e+06  -1.469508e+06
   3.262129e+06  -2.136203e+04
   2.002862e+06   2.374607e+06
  -2.825107e+05   3.978765e+06
  -1.911211e+06   2.774341e+06
  -1.935286e+06  -7.705109e+05
  -5.115511e+05  -2.789939e+06
   6.101526e+05  -5.808796e+05
  -3.391372e+05   2.868744e+06
  -2.352920e+06   2.236559e+06
  -2.185414e+06  -2.376723e+06
   1.242775e+06  -4.786683e+06
   4.576856e+06  -1.038560e+06
   3.717293e+06   4.937895e+06
  -1.158782e+06   6.324116e+06
  -5.699714e+06   1.818313e+06
  -5.987621e+06  -3.635520e+06
  -1.995764e+06  -5.221348e+06
   2.927965e+06  -2.697390e+06
   4.931540e+06   9.655238e+05
   2.609338e+06   2.882160e+06
  -1.670199e+06   2.001959e+06
  -3.704978e+06  -4.983847e+05
  -1.787193e+06  -2.045604e+06
   1.298970e+06  -1.130685e+06
   1.700716e+06   8.285607e+05
  -6.387137e+05   1.156202e+06
  -2.122766e+06  -6.087984e+05
  -3.658729e+05  -2.219046e+06
   2.873511e+06  -1.724942e+06
   4.120430e+06   4.928145e+05
   2.067710e+06   2.892367e+06
  -1.724900e+06   4.326955e+06
  -4.787910e+06   3.900230e+06
  -5.439870e+06   1.049782e+06
  -3.497891e+06  -3.020596e+06
  -4.694873e+05  -5.363411e+06
   1.415051e+06  -4.304604e+06
   1.298817e+06  -1.654188e+06
   5.605927e+05  -4.375160e+05
   9.357253e+05  -1.016051e+06
   2.238626e+06  -1.097025e+06
   2.759233e+06   6.095559e+05
   1.553602e+06   2.499136e+06
  -5.413568e+05   2.311565e+06
  -1.964595e+06  -1.032998e+04
  -1.698514e+06  -2.413305e+06
   2.597131e+05  -2.924370e+06
   2.734948e+06  -1.196573e+06
   3.793167e+06   1.512874e+06
   2.388634e+06   3.357154e+06
  -2.427607e+05   3.309247e+06
  -1.782534e+06   2.013267e+06
  -1.639633e+06   9.890607e+05
  -1.528860e+06   8.249615e+05
  -2.781112e+06   6.024782e+05
  -4.156481e+06  -6.847260e+05
  -3.337915e+06  -2.689490e+06
  -5.448878e+04  -4.045712e+06
   3.329158e+06  -3.719792e+06
   4.286110e+06  -1.760217e+06
   2.512033e+06   7.688726e+05
  -1.112148e+05   2.271979e+06
  -1.363811e+06   1.715022e+06
  -5.148410e+05  -1.502489e+05
   1.193301e+06  -1.198909e+06
   1.813535e+06  -3.072640e+05
   7.366556e+05   1.151090e+06
  -6.391045e+05   1.087409e+06
  -5.934572e+05  -3.764678e+05
   8.121214e+05  -9.630733e+05
   1.841378e+06   6.715081e+05
   1.139742e+06   3.056900e+06
  -9.257965e+05   3.664895e+06
  -2.915722e+06   1.762050e+06
  -3.612399e+06  -1.108070e+06
  -2.618742e+06  -2.924880e+06
  -4.903175e+05  -2.837240e+06
   1.365900e+06  -1.438173e+06
   1.630396e+06  -1.082966e+05
   4.906315e+05   6.195606e+04
  -3.424105e+05  -7.506259e+05
   3.721344e+05  -1.251852e+06
   1.770521e+06  -5.244562e+05
   1.941228e+06   8.047658e+05
   4.209339e+05   1.324006e+06
  -1.145669e+06   5.801373e+05
  -9.768533e+05  -4.689093e+05
   7.966311e+05  -6.723600e+05
   2.326661e+06   1.781568e+05
   1.967128e+06   1.418705e+06
  -1.824315e+05   2.148954e+06
  -2.388193e+06   1.723924e+06
  -2.807232e+06   2.354656e+05
  -1.169815e+06  -1.230500e+06
   8.997831e+05  -1.371640e+06
   1.435504e+06  -1.312229e+05
   1.119709e+05   1.008906e+06
  -1.501984e+06   6.691739e+05
  -1.705769e+06  -7.683697e+05
  -4.017777e+05  -1.652190e+06
   1.032847e+06  -1.063845e+06
   1.290242e+06   2.112242e+05
   3.300454e+05   7.481397e+05
  -7.279064e+05   5.984413e+04
  -6.739803e+05  -1.046551e+06
   6.423864e+05  -1.375517e+06
   2.021245e+06  -4.386851e+05
   1.972788e+06   1.124564e+06
   3.221916e+05   2.059633e+06
  -1.440133e+06   1.598535e+06
  -1.714458e+06   2.065991e+05
  -5.263918e+05  -8.600995e+05
   6.553337e+05  -8.157112e+05
   6.964095e+05  -4.898739e+04
  -8.392006e+04   4.716393e+05
  -5.955883e+05   3.020835e+05
  -2.997767e+05  -1.153407e+05
   3.650925e+05  -7.597572e+04
   5.634203e+05   5.627912e+05
  -1.471959e+05   1.164415e+06
  -1.373661e+06   8.819073e+05
  -2.066253e+06  -4.558554e+05
  -1.399967e+06  -1.975414e+06
   2.922995e+05  -2.439593e+06
   1.680396e+06  -1.450211e+06
   1.780163e+06   1.173980e+05
   9.556662e+05   1.014386e+06
   3.226925e+05   8.618132e+05
   3.585990e+05   3.462572e+05
   4.989518e+05   2.767120e+05
   5.640833e+04   6.860152e+05
  -8.670931e+05   9.013338e+05
  -1.489893e+06   3.451427e+05
  -1.117808e+06  -7.861289e+05
   2.442112e+05  -1.562610e+06
   1.774598e+06  -1.096179e+06
   2.281507e+06   5.333919e+05
   1.136577e+06   2.121210e+06
  -9.851355e+05   2.340458e+06
  -2.511008e+06   1.033272e+06
  -2.392885e+06  -6.301248e+05
  -1.062682e+06  -1.376646e+06
   1.669522e+05  -1.070250e+06
   5.010678e+05  -6.049698e+05
   2.570506e+05  -7.247651e+05
   2.117963e+05  -1.202591e+06
   6.769346e+05  -1.200011e+06
   1.253568e+06  -2.606163e+05
   1.283131e+06   1.131180e+06
   4.868618e+05   1.920872e+06
  -6.812712e+05   1.420599e+06
  -1.300332e+06  -2.148796e+04
  -8.070761e+05  -1.266362e+06
   3.570012e+05  -1.385991e+06
   1.097092e+06  -4.688437e+05
   7.926162e+05   5.841143e+05
  -5.376772e+04   1.004724e+06
  -4.416520e+05   7.942776e+05
  -5.253585e+04   4.676627e+05
   3.991074e+05   3.752832e+05
   3.201475e+04   3.962447e+05
  -1.117268e+06   1.943902e+05
  -2.000536e+06  -3.664975e+05
  -1.591520e+06  -1.046463e+06
   2.764795e+03  -1.386192e+06
   1.537697e+06  -1.076881e+06
   1.817243e+06  -2.800365e+05
   8.565829e+05   4.236560e+05
  -2.358742e+05   5.194418e+05
  -4.909154e+05   6.068689e+04
   7.928877e+03  -3.621018e+05
   4.832935e+05  -2.252364e+05
   4.606731e+05   3.595713e+05
   1.571801e+05   7.482793e+05
   1.308613e+04   4.829757e+05
   1.536696e+05  -1.395803e+05
   3.500720e+05  -3.408218e+05
   2.825069e+05   2.354177e+05
  -2.115043e+05   1.006498e+06
  -9.310134e+05   1.027021e+06
  -1.283302e+06   9.201905e+04
  -7.417434e+05  -9.399688e+05
   4.470020e+05  -1.063238e+06
   1.219028e+06  -2.342677e+05
   7.054362e+05   6.207030e+05
  -7.088063e+05   6.452842e+05
  -1.628300e+06  -1.095907e+05
  -1.079507e+06  -8.893874e+05
   4.543844e+05  -1.044155e+06
   1.550611e+06  -5.316141e+05
   1.302716e+06   1.848753e+05
   1.536148e+05   5.415664e+05
  -6.566464e+05   2.847804e+05
  -3.569940e+05  -2.839348e+05
   6.341792e+05  -4.706686e+05
   1.176883e+06   1.692737e+05
   5.742250e+05   1.231241e+06
  -7.188019e+05   1.664044e+06
  -1.555194e+06   7.958048e+05
  -1.236849e+06  -8.313158e+05
  -1.340527e+05  -1.831791e+06
   7.967249e+05  -1.318986e+06
   9.463101e+05   1.697743e+05
   4.399382e+05   1.218821e+06
  -2.034541e+05   1.009235e+06
  -5.574849e+05   9.084150e+04
  -4.973060e+05  -4.106174e+05
  -2.027348e+05  -1.626094e+05
  -3.708902e+04   1.101763e+05
  -2.144954e+05  -2.721992e+05
  -4.620345e+05  -9.798594e+05
  -2.085225e+05  -1.113172e+06
   6.782835e+05  -3.917290e+05
   1.486708e+06   5.223640e+05
   1.316987e+06   8.949207e+05
   1.708745e+05   7.039499e+05
  -9.192512e+05   3.870214e+05
  -1.019907e+06   1.658896e+05
  -3.312514e+05  -3.763672e+04
   1.704582e+05  -2.177263e+05
  -2.447024e+03  -2.356969e+05
  -3.125475e+05  -1.373970e+05
  -2.631242e+04  -1.373169e+05
   7.294054e+05  -1.906427e+05
   1.049848e+06   6.307031e+04
   3.408227e+05   6.992851e+05
  -9.365395e+05   1.126055e+06
  -1.708073e+06   6.711897e+05
  -1.347663e+06  -5.079986e+05
  -2.075384e+05  -1.437670e+06
   8.101756e+05  -1.347877e+06
   1.075573e+06  -4.735584e+05
   6.579252e+05   2.856100e+05
   1.018195e+05   3.638383e+05
  -1.113734e+05   3.238327e+04
   7.079305e+04  -4.743043e+04
   3.136778e+05   3.705254e+05
   2.395718e+05   8.271820e+05
  -2.135588e+05   6.689483e+05
  -6.895068e+05  -1.778957e+05
  -6.829782e+05  -1.014418e+06
  -3.214180e+04  -1.036255e+06
   7.913771e+05  -1.792400e+05
   1.001907e+06   8.019945e+05
   2.854527e+05   1.107914e+06
  -7.481930e+05   6.269220e+05
  -1.105026e+06  -1.254439e+05
  -4.939005e+05  -6.062611e+05
   3.071971e+05  -6.366313e+05
   3.607686e+05  -3.525605e+05
  -2.858485e+05  -3.673187e+04
  -6.668796e+05   9.174857e+03
  -1.248198e+05  -3.077957e+05
   8.588226e+05  -6.615249e+05
   1.262521e+06  -5.323695e+05
   7.296486e+05   1.730361e+05
  -1.300734e+05   8.595660e+05
  -5.542310e+05   8.334131e+05
  -3.959293e+05   1.254460e+05
  -1.593544e+04  -4.991245e+05
   2.620428e+05  -4.105286e+05
   3.489985e+05   1.941261e+05
   2.307377e+05   5.929793e+05
  -7.407081e+04   3.988481e+05
  -3.903756e+05  -7.317173e+04
  -4.614767e+05  -2.763486e+05
  -2.434311e+05  -8.562984e+04
   1.563924e+04   1.254067e+05
   8.729500e+04  -6.306293e+03
   4.800389e+04  -3.734618e+05
   1.300968e+05  -5.111942e+05
   3.439578e+05  -1.479671e+05
   4.021226e+05   4.332055e+05
   7.735596e+04   6.586521e+05
  -4.382422e+05   2.853754e+05
  -6.372381e+05  -3.250137e+05
  -2.179772e+05  -5.994423e+05
   5.155019e+05  -3.473655e+05
   8.681684e+05   1.200509e+05
   4.608112e+05   3.982601e+05
  -3.082816e+05   3.699192e+05
  -6.417780e+05   1.793333e+05
  -2.282685e+05   7.322134e+03
   3.839582e+05  -2.740816e+04
   4.191770e+05   1.156310e+05
  -2.108013e+05   3.061146e+05
  -8.068052e+05   2.413678e+05
