
 $NMID
 id='ANONYMOUS ', fmtdat='(2E16.6)'
 volume=1.0
 tramp=1.0
 $END
   2.375769e+07  -1.924342e+06
   1.668642e+07   1.101859e+07
   4.341240e+05   1.564320e+07
  -1.020295e+07   9.917170e+06
  -8.478945e+06   4.582973e+05
  -3.334008e+05  -4.335318e+06
   4.725250e+06  -1.767363e+06
   3.327953e+06   3.838150e+06
  -1.229517e+06   6.103278e+06
  -4.323532e+06   2.711210e+06
  -3.843805e+06  -2.735923e+06
  -7.381028e+05  -4.624600e+06
   2.055189e+06  -1.210489e+06
   1.830180e+06   3.580550e+06
  -1.243455e+06   4.466147e+06
  -3.889521e+06   4.547163e+05
  -3.042332e+06  -4.456799e+06
   8.182443e+05  -5.841882e+06
   4.292380e+06  -3.094835e+06
   4.696585e+06   8.771059e+05
   2.447846e+06   3.070546e+06
   1.270230e+05   2.876011e+06
  -1.918655e+05   1.833797e+06
   1.158764e+06   1.706914e+06
   1.770918e+06   2.733317e+06
  -3.129143e+05   3.453244e+06
  -4.025685e+06   2.344395e+06
  -5.819063e+06  -3.062918e+05
  -3.529804e+06  -2.475745e+06
   7.877376e+05  -2.481264e+06
   2.929806e+06  -6.452275e+05
   1.251465e+06   1.214670e+06
  -1.805697e+06   1.511594e+06
  -2.945958e+06   7.937816e+03
  -1.559481e+06  -2.119106e+06
   4.517122e+05  -3.000857e+06
   1.295457e+06  -1.612037e+06
   8.026196e+05   8.130934e+05
  -8.439705e+04   1.602675e+06
  -3.482104e+05  -2.437345e+05
   4.088298e+05  -2.380030e+06
   1.531953e+06  -1.783692e+06
   1.626846e+06   1.181087e+06
   1.045057e+04   2.900729e+06
  -2.066207e+06   1.057322e+06
  -2.321350e+06  -2.378449e+06
   6.127264e+04  -3.593586e+06
   3.197411e+06  -1.397163e+06
   4.167934e+06   1.866000e+06
   1.906896e+06   3.298224e+06
  -1.692497e+06   2.180783e+06
  -3.534242e+06  -8.361472e+04
  -2.213204e+06  -1.625269e+06
   7.117576e+05  -1.473399e+06
   2.333475e+06  -9.216876e+04
   1.359196e+06   1.035726e+06
  -6.707269e+05   7.886058e+05
  -1.288513e+06  -3.926906e+05
   3.256842e+04  -1.009799e+06
   1.404329e+06  -2.895793e+05
   9.140734e+05   9.573777e+05
  -1.089445e+06   1.351240e+06
  -2.445169e+06   3.556472e+05
  -1.580848e+06  -1.429110e+06
   9.465872e+05  -2.827058e+06
   3.167686e+06  -2.720578e+06
   3.565688e+06  -7.765531e+05
   2.223854e+06   1.937117e+06
   4.547185e+05   3.514443e+06
  -5.187877e+05   3.024665e+06
  -5.869495e+05   1.530927e+06
  -5.740534e+05   7.355102e+05
  -1.128308e+06   8.576978e+05
  -1.930464e+06   6.141599e+05
  -2.070552e+06  -7.112518e+05
  -1.077329e+06  -2.049991e+06
   5.413754e+05  -1.840737e+06
   1.673100e+06  -1.674758e+04
   1.434161e+06   1.844586e+06
  -1.319952e+05   2.174598e+06
  -1.928795e+06   8.272905e+05
  -2.552257e+06  -1.037935e+06
  -1.548691e+06  -2.114816e+06
   7.420619e+04  -1.977523e+06
   9.257561e+05  -1.229385e+06
   8.282069e+05  -7.566258e+05
   9.060957e+05  -7.868966e+05
   1.922776e+06  -7.027639e+05
   3.011424e+06   1.750987e+05
   2.570321e+06   1.709785e+06
   2.821009e+05   2.936716e+06
  -2.261442e+06   2.881930e+06
  -3.101113e+06   1.406017e+06
  -1.832051e+06  -5.817310e+05
   1.316642e+05  -1.708480e+06
   1.030543e+06  -1.242467e+06
   3.637772e+05   1.403592e+05
  -8.557875e+05   9.077136e+05
  -1.265269e+06   2.984780e+05
  -5.193283e+05  -7.713059e+05
   4.634457e+05  -8.294985e+05
   5.521157e+05   2.293176e+05
  -3.910679e+05   9.058193e+05
  -1.386622e+06  -3.380597e+04
  -1.314738e+06  -1.930212e+06
   5.889029e+04  -2.888658e+06
   1.888893e+06  -1.851468e+06
   2.895905e+06   3.701842e+05
   2.324435e+06   2.048999e+06
   5.868361e+05   2.176152e+06
  -9.705041e+05   1.143097e+06
  -1.220920e+06   1.302215e+05
  -3.631557e+05  -1.942643e+04
   2.958743e+05   5.280628e+05
  -1.650655e+05   8.971222e+05
  -1.190570e+06   4.772566e+05
  -1.429971e+06  -4.118532e+05
  -4.182660e+05  -8.922163e+05
   7.891897e+05  -5.111193e+05
   8.020344e+05   2.839223e+05
  -5.061492e+05   6.388422e+05
  -1.804066e+06   1.201964e+05
  -1.675290e+06  -9.319804e+05
  -6.121246e+04  -1.691848e+06
   1.674573e+06  -1.479136e+06
   2.064085e+06  -3.530697e+05
   9.181371e+05   8.012661e+05
  -5.556617e+05   9.965689e+05
  -9.752062e+05   1.615903e+05
  -1.007062e+05  -6.950457e+05
   1.049277e+06  -5.594795e+05
   1.299726e+06   4.354627e+05
   4.488201e+05   1.182713e+06
  -6.476860e+05   9.024147e+05
  -9.791169e+05  -6.213084e+03
  -3.415509e+05  -5.066134e+05
   4.941544e+05  -9.812051e+04
   5.365747e+05   7.190539e+05
  -4.114171e+05   1.032109e+06
  -1.463054e+06   4.096565e+05
  -1.495039e+06  -7.272234e+05
  -3.489288e+05  -1.480796e+06
   9.424110e+05  -1.250490e+06
   1.234898e+06  -2.717285e+05
   4.596034e+05   5.882238e+05
  -4.219491e+05   6.519861e+05
  -5.449690e+05   6.904322e+04
   6.569582e+03  -4.185040e+05
   4.759765e+05  -3.222277e+05
   3.336750e+05   8.941351e+04
  -2.113861e+05   1.715507e+05
  -4.805519e+05  -3.064248e+05
  -1.269016e+04  -8.516420e+05
   9.386099e+05  -7.408024e+05
   1.542096e+06   2.079902e+05
   1.134314e+06   1.367573e+06
  -8.111311e+04   1.823167e+06
  -1.165161e+06   1.208323e+06
  -1.366462e+06   4.952138e+04
  -8.324922e+05  -7.406323e+05
  -3.051859e+05  -7.288506e+05
  -2.220608e+05  -3.021191e+05
  -3.129003e+05  -1.466518e+05
  -7.212339e+04  -4.540208e+05
   5.633485e+05  -7.258398e+05
   1.091716e+06  -3.772712e+05
   9.199878e+05   5.292542e+05
  -5.819347e+04   1.224879e+06
  -1.252368e+06   9.505838e+05
  -1.734645e+06  -2.528617e+05
  -9.913537e+05  -1.487323e+06
   5.392947e+05  -1.775696e+06
   1.750331e+06  -9.418675e+05
   1.826302e+06   2.714590e+05
   9.423099e+05   9.541812e+05
  -2.053380e+04   8.697650e+05
  -3.874923e+05   5.371265e+05
  -2.403344e+05   5.363911e+05
  -1.327957e+05   8.385242e+05
  -4.149745e+05   8.782265e+05
  -8.787857e+05   2.476625e+05
  -9.926202e+05  -7.680367e+05
  -4.557254e+05  -1.391354e+06
   4.326724e+05  -1.083169e+06
   9.654821e+05  -6.700446e+04
   6.814014e+05   8.616486e+05
  -1.421131e+05   1.037341e+06
  -7.327472e+05   4.602510e+05
  -6.127680e+05  -3.052442e+05
  -7.354464e+04  -6.996783e+05
   2.111871e+05  -6.218312e+05
  -1.457561e+04  -3.769407e+05
  -3.005592e+05  -2.692787e+05
  -3.661176e+04  -2.959563e+05
   7.873372e+05  -2.151395e+05
   1.459093e+06   1.433456e+05
   1.229859e+06   6.585551e+05
   1.189070e+05   9.896874e+05
  -1.021189e+06   8.645824e+05
  -1.305382e+06   3.384715e+05
  -6.725814e+05  -2.073309e+05
   1.207141e+05  -3.689658e+05
   3.433201e+05  -9.633079e+04
  -2.415015e+03   2.308289e+05
  -3.617636e+05   1.803623e+05
  -3.511716e+05  -2.407394e+05
  -1.118666e+05  -5.530261e+05
   5.524407e+03  -3.561816e+05
  -1.116174e+05   1.411132e+05
  -2.746364e+05   3.063788e+05
  -2.301571e+05  -1.531231e+05
   1.230129e+05  -7.671302e+05
   6.279798e+05  -7.992126e+05
   8.884346e+05  -1.103142e+05
   5.457724e+05   6.523038e+05
  -2.707713e+05   7.664771e+05
  -8.542056e+05   1.967498e+05
  -5.453162e+05  -4.335993e+05
   4.766416e+05  -5.231299e+05
   1.227062e+06  -3.112413e+04
   9.035412e+05   5.882685e+05
  -2.368728e+05   8.334014e+05
  -1.130081e+06   5.381017e+05
  -1.013168e+06  -3.493399e+04
  -1.651445e+05  -4.030838e+05
   4.652643e+05  -2.671327e+05
   2.652162e+05   1.761236e+05
  -4.630786e+05   3.586383e+05
  -8.719480e+05  -9.619150e+04
  -4.470135e+05  -8.944137e+05
   4.914318e+05  -1.246670e+06
   1.129220e+06  -6.365062e+05
   9.538010e+05   5.680145e+05
   1.864673e+05   1.358551e+06
  -5.238010e+05   1.041321e+06
  -7.195092e+05  -4.930278e+04
  -4.188406e+05  -8.779172e+05
   6.228156e+04  -7.818275e+05
   3.983159e+05  -1.129734e+05
   4.169541e+05   2.863547e+05
   1.883618e+05   1.214524e+05
   1.075424e+04  -9.350242e+04
   1.309556e+05   1.676670e+05
   3.772221e+05   6.926772e+05
   2.481641e+05   8.232536e+05
  -4.411488e+05   3.344116e+05
  -1.135150e+06  -3.121944e+05
  -1.057089e+06  -5.974056e+05
  -1.676642e+05  -5.058572e+05
   6.915328e+05  -3.286808e+05
   7.595352e+05  -1.861498e+05
   2.228698e+05  -8.573807e+03
  -1.270590e+05   1.659678e+05
   4.853797e+04   1.941955e+05
   2.756160e+05   1.088198e+05
   1.137599e+04   1.021300e+05
  -5.709912e+05   1.600978e+05
  -7.747159e+05  -7.545950e+03
  -2.299403e+05  -4.919817e+05
   6.745253e+05  -8.528884e+05
   1.204541e+06  -5.506956e+05
   9.725534e+05   3.314466e+05
   2.058946e+05   1.059588e+06
  -5.248860e+05   1.023059e+06
  -7.712984e+05   3.750620e+05
  -5.046753e+05  -2.019169e+05
  -7.606486e+04  -2.630277e+05
   1.126078e+05  -5.251816e+03
  -3.912817e+04   6.471163e+04
  -2.677036e+05  -2.487361e+05
  -2.312002e+05  -6.012324e+05
   1.343148e+05  -4.962486e+05
   5.244235e+05   1.255825e+05
   5.281022e+05   7.427381e+05
   3.018198e+04   7.587547e+05
  -5.975835e+05   1.319909e+05
  -7.636544e+05  -5.799927e+05
  -2.373938e+05  -8.030517e+05
   5.293942e+05  -4.701765e+05
   8.042034e+05   5.236328e+04
   3.731592e+05   4.001889e+05
  -1.942445e+05   4.518815e+05
  -2.208328e+05   2.706538e+05
   2.448563e+05   2.834933e+04
   5.009549e+05  -3.129283e+04
   9.516999e+04   2.149770e+05
  -6.051231e+05   5.325343e+05
  -8.823243e+05   4.767973e+05
  -5.157054e+05  -6.759232e+04
   5.973552e+04  -6.280437e+05
   3.427858e+05  -6.289354e+05
   2.532253e+05  -8.833687e+04
   1.615115e+04   3.809381e+05
  -1.807075e+05   2.970884e+05
  -2.671536e+05  -1.572014e+05
  -1.922411e+05  -4.289538e+05
   4.377005e+04  -2.708493e+05
   2.899210e+05   4.969213e+04
   3.439240e+05   1.627657e+05
   1.842120e+05   3.400836e+04
  -3.249849e+03  -6.824154e+04
  -6.587279e+04   5.644823e+04
  -6.087582e+04   2.953747e+05
  -1.304986e+05   3.484881e+05
  -2.640231e+05   6.960714e+04
  -2.752631e+05  -3.361115e+05
  -3.316875e+04  -4.857949e+05
   3.258871e+05  -2.146658e+05
   4.643862e+05   2.313539e+05
   1.714085e+05   4.448889e+05
  -3.567061e+05   2.751529e+05
  -6.285515e+05  -6.367517e+04
  -3.488983e+05  -2.747088e+05
   2.108811e+05  -2.643177e+05
   4.572772e+05  -1.331038e+05
   1.446661e+05  -1.147104e+04
  -3.144097e+05   1.127343e+04
  -3.262133e+05  -1.014364e+05
   1.703769e+05  -2.541483e+05
   6.299559e+05  -2.099764e+05
