
 $NMID
 id='ANONYMOUS ', fmtdat='(2E16.6)'
 volume=1.0
 tramp=1.0
 $END
   4.935722e+07   1.482711e+06
   2.871827e+07   3.036235e+07
  -6.870276e+06   3.255225e+07
  -2.372795e+07   1.290285e+07
  -1.417785e+07  -5.356575e+06
   2.608443e+06  -7.930442e+06
   8.413872e+06   5.586850e+05
   2.774006e+06   8.237978e+06
  -4.954186e+06   8.502211e+06
  -8.339260e+06   2.086980e+06
  -6.266016e+06  -5.618165e+06
  -7.097144e+05  -7.894714e+06
   3.747122e+06  -2.354963e+06
   2.600243e+06   5.216363e+06
  -3.141918e+06   6.162319e+06
  -6.907244e+06  -1.023190e+06
  -3.964485e+06  -9.013130e+06
   3.357225e+06  -1.042270e+07
   9.038899e+06  -5.042905e+06
   9.509774e+06   2.197009e+06
   5.427343e+06   6.889675e+06
   8.814292e+04   7.423783e+06
  -2.573078e+06   4.796246e+06
  -9.652769e+05   2.149672e+06
   1.680131e+06   2.335202e+06
   2.340097e+05   4.356742e+06
  -5.447763e+06   4.168035e+06
  -9.245600e+06   2.172043e+05
  -6.391927e+06  -4.062238e+06
   2.146938e+05  -4.763661e+06
   3.933407e+06  -2.229008e+06
   2.482313e+06   4.652978e+05
  -9.034754e+05   1.478088e+06
  -2.756032e+06   6.431352e+05
  -2.381528e+06  -1.755327e+06
  -4.526255e+05  -4.097498e+06
   1.922942e+06  -3.426807e+06
   2.794907e+06   5.829721e+05
   1.106554e+06   3.445338e+06
  -9.574439e+05   1.307234e+06
  -2.644169e+05  -2.751007e+06
   2.281476e+06  -2.314589e+06
   2.216161e+06   2.746074e+06
  -1.956987e+06   5.243228e+06
  -5.755492e+06   6.952379e+05
  -4.214217e+06  -6.087911e+06
   1.749770e+06  -7.317564e+06
   6.599900e+06  -1.997016e+06
   6.396744e+06   3.962408e+06
   1.931282e+06   5.453437e+06
  -3.063985e+06   2.665027e+06
  -4.944182e+06  -1.114659e+06
  -2.450801e+06  -3.011050e+06
   2.012604e+06  -1.982950e+06
   4.023155e+06   7.434976e+05
   1.784139e+06   2.340975e+06
  -1.512914e+06   1.208402e+06
  -1.683999e+06  -8.596956e+05
   9.067089e+05  -8.850743e+05
   2.061487e+06   1.216164e+06
  -3.504535e+05   2.629396e+06
  -3.753713e+06   1.541913e+06
  -4.533192e+06  -1.033269e+06
  -2.061827e+06  -3.400726e+06
   1.746002e+06  -4.824800e+06
   4.851558e+06  -4.514340e+06
   5.861208e+06  -1.494356e+06
   4.137717e+06   3.120767e+06
   7.842011e+05   5.795423e+06
  -1.549350e+06   4.449109e+06
  -1.365779e+06   1.339443e+06
  -1.604752e+05   1.573188e+05
  -3.315309e+05   1.229828e+06
  -1.952172e+06   1.700392e+06
  -2.956795e+06  -1.936095e+04
  -2.024257e+06  -2.180908e+06
   8.395510e+04  -2.331025e+06
   1.755863e+06  -2.827370e+05
   1.838828e+06   2.113318e+06
   1.330573e+04   2.953560e+06
  -2.756738e+06   1.543006e+06
  -4.242505e+06  -1.290846e+06
  -2.869808e+06  -3.599133e+06
   1.780970e+05  -3.817212e+06
   2.089461e+06  -2.341129e+06
   1.929019e+06  -9.987162e+05
   1.606537e+06  -7.337561e+05
   2.775554e+06  -6.099356e+05
   4.212982e+06   5.801168e+05
   3.467537e+06   2.581565e+06
   2.492130e+05   4.046047e+06
  -3.093890e+06   3.934282e+06
  -4.165259e+06   2.141704e+06
  -2.665404e+06  -4.897183e+05
  -2.106234e+05  -2.308936e+06
   1.173808e+06  -1.927568e+06
   5.668505e+05   7.507425e+04
  -1.093481e+06   1.318058e+06
  -1.850293e+06   4.078674e+05
  -8.661680e+05  -1.177460e+06
   5.254202e+05  -1.140442e+06
   5.060589e+05   3.203273e+05
  -8.483087e+05   7.787414e+05
  -1.719233e+06  -9.377361e+05
  -8.764541e+05  -3.101246e+06
   1.083568e+06  -3.360467e+06
   2.785865e+06  -1.439047e+06
   3.357931e+06   1.067603e+06
   2.540397e+06   2.605947e+06
   6.283127e+05   2.639265e+06
  -1.222096e+06   1.516201e+06
  -1.599872e+06   2.526811e+05
  -4.909744e+05  -3.288041e+04
   3.770575e+05   7.324875e+05
  -3.620703e+05   1.294221e+06
  -1.820016e+06   5.888995e+05
  -1.984323e+06  -7.883434e+05
  -4.250595e+05  -1.338788e+06
   1.124262e+06  -6.073798e+05
   9.363811e+05   3.984277e+05
  -7.562366e+05   5.960222e+05
  -2.186646e+06  -1.336044e+05
  -1.881148e+06  -1.236169e+06
   9.431226e+04  -2.008983e+06
   2.227180e+06  -1.772440e+06
   2.750874e+06  -3.718215e+05
   1.222406e+06   1.201388e+06
  -8.769470e+05   1.462273e+06
  -1.499905e+06   1.909842e+05
  -1.859325e+05  -1.055934e+06
   1.482693e+06  -7.564052e+05
   1.719252e+06   7.046768e+05
   4.210101e+05   1.602537e+06
  -9.961203e+05   1.024422e+06
  -1.240391e+06  -2.135368e+05
  -2.957177e+05  -7.289893e+05
   7.587157e+05  -6.955619e+04
   7.445304e+05   1.026782e+06
  -5.514791e+05   1.430109e+06
  -1.996080e+06   5.790157e+05
  -2.048366e+06  -1.003946e+06
  -4.314285e+05  -2.046106e+06
   1.372099e+06  -1.661078e+06
   1.693804e+06  -2.677895e+05
   5.350672e+05   8.306462e+05
  -6.170510e+05   8.228695e+05
  -6.555152e+05   1.052432e+05
   5.988984e+04  -3.955246e+05
   4.926383e+05  -2.900257e+05
   2.059476e+05   3.103775e+04
  -3.716214e+05  -2.173195e+04
  -5.250702e+05  -5.884900e+05
   1.410595e+05  -1.155018e+06
   1.330440e+06  -9.303060e+05
   2.077498e+06   3.483604e+05
   1.506207e+06   1.892685e+06
  -1.444713e+05   2.426830e+06
  -1.555578e+06   1.488538e+06
  -1.704927e+06  -3.234048e+04
  -9.492082e+05  -8.704729e+05
  -3.960596e+05  -7.092677e+05
  -4.684301e+05  -2.776576e+05
  -5.729190e+05  -3.048514e+05
  -8.575242e+04  -7.297810e+05
   8.257672e+05  -9.205846e+05
   1.426416e+06  -3.961094e+05
   1.106779e+06   6.769604e+05
  -1.599413e+05   1.487348e+06
  -1.671484e+06   1.148886e+06
  -2.264451e+06  -3.999881e+05
  -1.207459e+06  -2.037640e+06
   9.038327e+05  -2.359543e+06
   2.459276e+06  -1.108472e+06
   2.354876e+06   5.391093e+05
   1.045326e+06   1.271222e+06
  -1.191829e+05   9.780244e+05
  -3.811334e+05   5.843974e+05
  -1.229130e+05   7.843021e+05
  -1.204860e+05   1.284761e+06
  -6.388097e+05   1.267021e+06
  -1.266161e+06   3.322281e+05
  -1.356570e+06  -1.049030e+06
  -6.044111e+05  -1.878668e+06
   5.854105e+05  -1.453721e+06
   1.280919e+06  -4.413009e+04
   8.453619e+05   1.231569e+06
  -3.222986e+05   1.381207e+06
  -1.091448e+06   4.511576e+05
  -7.906920e+05  -6.203701e+05
   7.347883e+04  -1.022114e+06
   4.613948e+05  -7.723002e+05
   4.232201e+04  -4.244959e+05
  -4.389360e+05  -3.381812e+05
  -6.746268e+04  -3.881369e+05
   1.118690e+06  -2.377171e+05
   2.036670e+06   2.774314e+05
   1.630787e+06   9.719593e+05
   1.778414e+04   1.391933e+06
  -1.524338e+06   1.151116e+06
  -1.792839e+06   3.415253e+05
  -8.318530e+05  -4.245450e+05
   2.401120e+05  -5.473173e+05
   4.891587e+05  -5.718018e+04
   1.676775e+04   4.035821e+05
  -4.506390e+05   2.712062e+05
  -4.861263e+05  -3.310232e+05
  -2.514843e+05  -7.392780e+05
  -8.544201e+04  -4.936385e+05
  -1.251627e+05   1.188947e+05
  -2.757562e+05   3.361625e+05
  -2.845080e+05  -2.172929e+05
   1.195969e+05  -1.005804e+06
   8.683921e+05  -1.083779e+06
   1.334976e+06  -1.764734e+05
   8.472081e+05   9.094780e+05
  -3.977334e+05   1.125124e+06
  -1.245262e+06   3.369065e+05
  -7.509154e+05  -5.615773e+05
   6.721312e+05  -6.679255e+05
   1.589402e+06   2.836008e+04
   1.057142e+06   8.028398e+05
  -4.161090e+05   1.004487e+06
  -1.464423e+06   5.603351e+05
  -1.245786e+06  -1.211308e+05
  -1.655613e+05  -5.062375e+05
   6.298799e+05  -2.970746e+05
   3.797997e+05   2.810969e+05
  -5.883627e+05   5.373988e+05
  -1.197057e+06  -6.294240e+04
  -6.952773e+05  -1.185640e+06
   5.671043e+05  -1.733555e+06
   1.481155e+06  -9.279781e+05
   1.287588e+06   7.285575e+05
   2.601204e+05   1.796561e+06
  -6.929957e+05   1.331232e+06
  -9.255929e+05  -1.329493e+05
  -4.802192e+05  -1.168244e+06
   1.662977e+05  -9.723702e+05
   5.500671e+05  -1.038610e+05
   4.925536e+05   3.556767e+05
   1.839899e+05   1.245453e+05
   3.757498e+04  -9.614837e+04
   2.650004e+05   2.965962e+05
   5.318489e+05   9.561023e+05
   2.417810e+05   1.063627e+06
  -6.860430e+05   4.044191e+05
  -1.496869e+06  -4.175509e+05
  -1.322871e+06  -7.848614e+05
  -2.063315e+05  -6.905363e+05
   8.540467e+05  -4.589820e+05
   9.806467e+05  -2.226830e+05
   3.482907e+05   4.610426e+04
  -1.437733e+05   2.348865e+05
  -1.134443e+04   1.980693e+05
   2.883213e+05   7.692165e+04
   5.200575e+04   1.386760e+05
  -6.738975e+05   2.710808e+05
  -1.055249e+06   1.774885e+04
  -4.403756e+05  -7.020699e+05
   8.253412e+05  -1.219748e+06
   1.687976e+06  -7.987225e+05
   1.429827e+06   4.108757e+05
   3.222187e+05   1.411621e+06
  -7.282027e+05   1.400950e+06
  -1.047223e+06   5.699558e+05
  -6.762469e+05  -2.138813e+05
  -1.428594e+05  -3.622305e+05
   8.414734e+04  -7.774490e+04
  -6.831804e+04   1.978657e+04
  -3.131058e+05  -3.504019e+05
  -2.781620e+05  -7.981905e+05
   1.619665e+05  -6.906027e+05
   7.004964e+05   9.956339e+04
   7.822406e+05   9.441201e+05
   1.443678e+05   1.049022e+06
  -7.658455e+05   2.794895e+05
  -1.077541e+06  -6.975683e+05
  -3.846775e+05  -1.092865e+06
   7.049386e+05  -7.054047e+05
   1.129574e+06   4.438666e+04
   5.436336e+05   6.025799e+05
  -2.777443e+05   6.871415e+05
  -3.682993e+05   3.705490e+05
   2.577979e+05  -1.100673e+04
   6.549656e+05  -6.512972e+04
   1.545037e+05   3.084949e+05
  -8.048606e+05   7.119136e+05
  -1.235111e+06   5.783898e+05
  -7.593215e+05  -1.622993e+05
   7.197561e+04  -8.776611e+05
   5.280645e+05  -8.678104e+05
   4.289100e+05  -1.627382e+05
   7.492594e+04   4.881360e+05
  -2.327102e+05   4.475377e+05
  -3.711939e+05  -1.369464e+05
  -2.763968e+05  -5.737036e+05
   4.893649e+04  -4.330136e+05
   4.000517e+05   3.225611e+04
   4.797404e+05   2.680520e+05
   2.400995e+05   8.725886e+04
  -2.982934e+04  -1.542028e+05
  -6.583979e+04  -3.774876e+04
   2.981434e+04   3.726197e+05
  -4.650049e+04   5.765361e+05
  -3.353915e+05   2.359218e+05
  -4.868632e+05  -3.823208e+05
  -1.807342e+05  -6.671496e+05
   4.058450e+05  -3.368893e+05
   6.860223e+05   2.654922e+05
   2.807990e+05   5.744056e+05
  -4.988324e+05   3.828966e+05
  -8.959876e+05  -5.091665e+04
  -4.962069e+05  -3.660648e+05
   2.897997e+05  -4.131723e+05
   6.455700e+05  -2.493243e+05
   2.528208e+05  -1.838170e+04
  -3.561435e+05   9.413153e+04
  -4.261267e+05  -4.448591e+04
   1.509655e+05  -3.103461e+05
   7.393200e+05  -3.183871e+05
