
 $NMID
 id='ANONYMOUS ', fmtdat='(2E16.6)'
 volume=1.0
 tramp=1.0
 $END
   2.523958e+07   1.500931e+05
   1.621890e+07   1.283798e+07
  -9.922368e+05   1.612855e+07
  -1.116158e+07   9.493460e+06
  -8.564081e+06   4.934074e+04
  -6.343780e+04  -4.380476e+06
   4.845602e+06  -1.608397e+06
   3.209144e+06   4.040964e+06
  -1.482056e+06   6.235401e+06
  -4.566465e+06   2.586338e+06
  -3.894543e+06  -3.141909e+06
  -5.293746e+05  -4.976469e+06
   2.315649e+06  -1.161861e+06
   1.857930e+06   3.919091e+06
  -1.451419e+06   4.648836e+06
  -4.042389e+06   2.445265e+05
  -2.888259e+06  -4.856303e+06
   1.258404e+06  -6.056922e+06
   4.778449e+06  -2.920509e+06
   4.940315e+06   1.362695e+06
   2.295968e+06   3.571470e+06
  -2.774700e+05   3.089397e+06
  -4.719364e+05   1.739721e+06
   1.234257e+06   1.617580e+06
   1.986671e+06   2.922248e+06
  -3.857480e+05   3.786249e+06
  -4.496876e+06   2.437568e+06
  -6.333911e+06  -5.994244e+05
  -3.679924e+06  -2.911210e+06
   1.048509e+06  -2.742399e+06
   3.312724e+06  -6.302330e+05
   1.438696e+06   1.420921e+06
  -1.931200e+06   1.744984e+06
  -3.245701e+06   6.200735e+04
  -1.743783e+06  -2.352299e+06
   5.629021e+05  -3.333479e+06
   1.557822e+06  -1.689752e+06
   8.943147e+05   1.067023e+06
  -2.571300e+05   1.845929e+06
  -5.310838e+05  -3.231958e+05
   4.506569e+05  -2.641885e+06
   1.683301e+06  -1.870182e+06
   1.615594e+06   1.310589e+06
  -1.795257e+05   2.933507e+06
  -2.173993e+06   8.041200e+05
  -2.166067e+06  -2.718538e+06
   3.850864e+05  -3.706756e+06
   3.487412e+06  -1.211290e+06
   4.313019e+06   2.179091e+06
   1.887674e+06   3.536391e+06
  -1.846296e+06   2.240001e+06
  -3.713809e+06  -1.837531e+05
  -2.272721e+06  -1.749049e+06
   7.990162e+05  -1.470907e+06
   2.433454e+06   3.711433e+04
   1.350587e+06   1.141790e+06
  -7.549487e+05   7.762307e+05
  -1.349744e+06  -4.467572e+05
   8.720161e+03  -1.005680e+06
   1.363457e+06  -2.687058e+05
   8.372348e+05   8.944578e+05
  -1.172370e+06   1.209634e+06
  -2.494293e+06   2.113536e+05
  -1.529076e+06  -1.566760e+06
   1.182970e+06  -2.980937e+06
   3.560958e+06  -2.806364e+06
   3.906994e+06  -6.539049e+05
   2.304016e+06   2.251292e+06
   3.077781e+05   3.817588e+06
  -6.618250e+05   3.168003e+06
  -5.944102e+05   1.583813e+06
  -5.545149e+05   8.433152e+05
  -1.246498e+06   1.018288e+06
  -2.184990e+06   6.829135e+05
  -2.311985e+06  -8.318616e+05
  -1.174001e+06  -2.294862e+06
   6.120171e+05  -2.039640e+06
   1.833847e+06  -2.988424e+04
   1.544727e+06   2.014731e+06
  -1.933583e+05   2.363526e+06
  -2.142383e+06   8.337823e+05
  -2.740576e+06  -1.256422e+06
  -1.548620e+06  -2.392287e+06
   2.376064e+05  -2.121913e+06
   1.091681e+06  -1.221199e+06
   9.061230e+05  -7.178469e+05
   9.618053e+05  -7.921027e+05
   2.056908e+06  -6.990581e+05
   3.212016e+06   2.694189e+05
   2.709176e+06   1.901575e+06
   2.315587e+05   3.162891e+06
  -2.509075e+06   3.056293e+06
  -3.402708e+06   1.450046e+06
  -1.993464e+06  -6.886685e+05
   1.814129e+05  -1.879800e+06
   1.165719e+06  -1.338993e+06
   4.009947e+05   1.676981e+05
  -9.534426e+05   9.669130e+05
  -1.372967e+06   2.799008e+05
  -5.295769e+05  -8.604484e+05
   5.215193e+05  -8.951990e+05
   5.909423e+05   2.362670e+05
  -3.975196e+05   9.390035e+05
  -1.408495e+06  -4.951160e+04
  -1.329715e+06  -2.022510e+06
   7.195733e+04  -3.018938e+06
   1.974563e+06  -1.935942e+06
   3.062641e+06   4.080556e+05
   2.480569e+06   2.204791e+06
   6.149232e+05   2.346509e+06
  -1.070504e+06   1.220875e+06
  -1.328470e+06   1.177715e+05
  -3.908420e+05  -2.921796e+04
   3.058911e+05   5.744035e+05
  -2.059232e+05   9.509620e+05
  -1.289917e+06   4.679516e+05
  -1.511615e+06  -4.812623e+05
  -4.188450e+05  -9.587096e+05
   8.552110e+05  -5.289985e+05
   8.588199e+05   3.097461e+05
  -5.336470e+05   6.721495e+05
  -1.921349e+06   1.154156e+05
  -1.790933e+06  -1.005501e+06
  -5.625541e+04  -1.810844e+06
   1.818327e+06  -1.563322e+06
   2.225625e+06  -3.388960e+05
   9.614022e+05   8.835320e+05
  -6.333641e+05   1.050621e+06
  -1.053289e+06   1.345549e+05
  -8.153353e+04  -7.573679e+05
   1.145134e+06  -5.741872e+05
   1.381983e+06   4.952267e+05
   4.580582e+05   1.268576e+06
  -6.999601e+05   9.483457e+05
  -1.037023e+06  -1.996644e+04
  -3.536030e+05  -5.383497e+05
   5.292172e+05  -8.650461e+04
   5.579690e+05   7.896656e+05
  -4.702850e+05   1.105283e+06
  -1.590658e+06   4.077625e+05
  -1.595323e+06  -8.209680e+05
  -3.391952e+05  -1.602107e+06
   1.042199e+06  -1.319033e+06
   1.329281e+06  -2.632727e+05
   4.796507e+05   6.369647e+05
  -4.643626e+05   6.901022e+05
  -5.915237e+05   7.027806e+04
  -7.766870e+02  -4.472869e+05
   5.069616e+05  -3.527820e+05
   3.679313e+05   7.983887e+04
  -2.063997e+05   1.727429e+05
  -4.948285e+05  -3.284492e+05
   5.170894e+03  -9.036490e+05
   1.022272e+06  -7.726579e+05
   1.653094e+06   2.580176e+05
   1.189411e+06   1.498585e+06
  -1.246461e+05   1.962653e+06
  -1.270574e+06   1.280388e+06
  -1.466619e+06   3.702602e+04
  -8.951837e+05  -8.012162e+05
  -3.401048e+05  -7.927906e+05
  -2.451225e+05  -3.480012e+05
  -3.233534e+05  -1.795762e+05
  -5.624385e+04  -4.898609e+05
   6.179425e+05  -7.644179e+05
   1.175343e+06  -3.879603e+05
   9.850935e+05   5.782366e+05
  -7.330393e+04   1.313011e+06
  -1.359401e+06   1.000441e+06
  -1.860987e+06  -3.035592e+05
  -1.034518e+06  -1.614313e+06
   6.171743e+05  -1.887458e+06
   1.893779e+06  -9.687797e+05
   1.948583e+06   3.221884e+05
   9.982818e+05   1.028650e+06
  -2.189993e+04   9.299946e+05
  -4.168001e+05   5.855514e+05
  -2.779471e+05   5.932139e+05
  -1.772662e+05   9.073521e+05
  -4.752216e+05   9.306480e+05
  -9.535443e+05   2.399124e+05
  -1.053040e+06  -8.526379e+05
  -4.609522e+05  -1.510833e+06
   4.902644e+05  -1.159426e+06
   1.039156e+06  -5.325628e+04
   7.098894e+05   9.375838e+05
  -1.741018e+05   1.103732e+06
  -7.840235e+05   4.710553e+05
  -6.342472e+05  -3.387028e+05
  -5.684692e+04  -7.395398e+05
   2.344910e+05  -6.494184e+05
  -1.582961e+04  -4.014209e+05
  -3.206722e+05  -3.006337e+05
  -3.394828e+04  -3.219586e+05
   8.490739e+05  -2.093677e+05
   1.563002e+06   1.933675e+05
   1.304716e+06   7.348791e+05
   1.014672e+05   1.056627e+06
  -1.119250e+06   8.962338e+05
  -1.405054e+06   3.337016e+05
  -7.074539e+05  -2.307330e+05
   1.430209e+05  -3.877518e+05
   3.654017e+05  -9.408129e+04
  -1.691949e+04   2.505918e+05
  -3.973430e+05   1.900684e+05
  -3.729335e+05  -2.688476e+05
  -1.086545e+05  -6.092079e+05
   1.555255e+04  -3.933607e+05
  -1.166364e+05   1.525537e+05
  -2.959110e+05   3.342226e+05
  -2.440052e+05  -1.675946e+05
   1.470189e+05  -8.297268e+05
   6.957826e+05  -8.465593e+05
   9.633760e+05  -8.598955e+04
   5.712449e+05   7.267977e+05
  -3.179857e+05   8.176697e+05
  -9.328733e+05   1.839925e+05
  -5.811176e+05  -4.816633e+05
   5.222218e+05  -5.512834e+05
   1.318360e+06  -1.307337e+04
   9.618145e+05   6.390313e+05
  -2.620099e+05   8.851692e+05
  -1.215584e+06   5.622303e+05
  -1.085935e+06  -4.799081e+04
  -1.732144e+05  -4.332469e+05
   5.018866e+05  -2.780715e+05
   2.780441e+05   1.979390e+05
  -5.131129e+05   3.801912e+05
  -9.454283e+05  -1.254223e+05
  -4.643094e+05  -9.843615e+05
   5.635319e+05  -1.343779e+06
   1.239845e+06  -6.657243e+05
   1.020474e+06   6.344834e+05
   1.745730e+05   1.471366e+06
  -5.812831e+05   1.113870e+06
  -7.691193e+05  -6.446957e+04
  -4.345242e+05  -9.485416e+05
   7.609657e+04  -8.347331e+05
   4.275666e+05  -1.121059e+05
   4.469791e+05   3.115523e+05
   2.047858e+05   1.285553e+05
   1.067031e+04  -9.855062e+04
   1.303661e+05   1.922079e+05
   3.895590e+05   7.581360e+05
   2.545692e+05   8.851557e+05
  -4.785935e+05   3.424432e+05
  -1.218718e+06  -3.587858e+05
  -1.130125e+06  -6.582084e+05
  -1.690152e+05  -5.476705e+05
   7.554997e+05  -3.470215e+05
   8.212674e+05  -1.884830e+05
   2.348611e+05   1.050264e+02
  -1.420394e+05   1.789676e+05
   5.463302e+04   2.034018e+05
   3.022578e+05   1.156414e+05
   9.809583e+03   1.140353e+05
  -6.255862e+05   1.693392e+05
  -8.386606e+05  -2.641253e+04
  -2.329494e+05  -5.486594e+05
   7.540633e+05  -9.135313e+05
   1.317444e+06  -5.612151e+05
   1.045321e+06   3.909920e+05
   2.002525e+05   1.152563e+06
  -5.911080e+05   1.090440e+06
  -8.469558e+05   3.867735e+05
  -5.459562e+05  -2.288778e+05
  -7.540048e+04  -2.894570e+05
   1.288439e+05  -9.512496e+03
  -3.698055e+04   6.774345e+04
  -2.821730e+05  -2.696083e+05
  -2.376380e+05  -6.507821e+05
   1.581085e+05  -5.344415e+05
   5.701104e+05   1.467609e+05
   5.588867e+05   8.204316e+05
   1.280081e+04   8.296360e+05
  -6.580063e+05   1.327029e+05
  -8.194254e+05  -6.479285e+05
  -2.371760e+05  -8.782391e+05
   5.887842e+05  -4.962890e+05
   8.691551e+05   7.882752e+04
   3.875646e+05   4.438299e+05
  -2.271525e+05   4.815235e+05
  -2.445527e+05   2.803331e+05
   2.687561e+05   2.917288e+04
   5.436714e+05  -2.460162e+04
   9.601328e+04   2.365946e+05
  -6.643256e+05   5.624744e+05
  -9.563124e+05   4.909136e+05
  -5.478478e+05  -9.031788e+04
   8.142934e+04  -6.772208e+05
   3.855242e+05  -6.646724e+05
   2.791309e+05  -8.098102e+04
   1.126067e+04   4.167994e+05
  -2.062414e+05   3.174971e+05
  -2.921374e+05  -1.769765e+05
  -1.983722e+05  -4.689084e+05
   5.991216e+04  -2.920398e+05
   3.151713e+05   6.109298e+04
   3.627665e+05   1.846378e+05
   1.940411e+05   3.979320e+04
   4.191719e+03  -7.594303e+04
  -6.130105e+04   6.221116e+04
  -7.021358e+04   3.285109e+05
  -1.595622e+05   3.854332e+05
  -3.004925e+05   7.067374e+04
  -2.960761e+05  -3.804861e+05
  -2.326577e+04  -5.382937e+05
   3.612541e+05  -2.275468e+05
   5.003578e+05   2.660220e+05
   1.774332e+05   4.889098e+05
  -3.921452e+05   2.872728e+05
  -6.801755e+05  -8.751732e+04
  -3.707955e+05  -3.067453e+05
   2.389847e+05  -2.798305e+05
   5.031952e+05  -1.303916e+05
   1.564206e+05  -3.496632e+03
  -3.476240e+05   1.151102e+04
  -3.589367e+05  -1.157649e+05
   1.866900e+05  -2.783913e+05
   6.884846e+05  -2.233085e+05
