
 $NMID
 id='ANONYMOUS ', fmtdat='(2E16.6)'
 volume=1.0
 tramp=1.0
 $END
  -3.120782e+07   9.464050e+05
  -2.078393e+07  -1.604202e+07
   9.808301e+05  -2.058934e+07
   1.415184e+07  -1.166296e+07
   1.077407e+07   5.628148e+05
  -1.724743e+05   5.605397e+06
  -6.159247e+06   1.580815e+06
  -3.699695e+06  -5.258882e+06
   2.217732e+06  -7.466450e+06
   5.742725e+06  -2.927890e+06
   4.698278e+06   3.754108e+06
   6.410735e+05   5.876992e+06
  -2.680526e+06   1.461805e+06
  -2.068595e+06  -4.513002e+06
   1.920857e+06  -5.423690e+06
   4.989294e+06  -1.860993e+05
   3.511355e+06   5.943829e+06
  -1.518399e+06   7.408413e+06
  -5.751420e+06   3.703176e+06
  -6.064780e+06  -1.374979e+06
  -3.122833e+06  -4.155204e+06
  -5.607403e+04  -3.934952e+06
   5.699408e+05  -2.538067e+06
  -1.015792e+06  -2.152586e+06
  -1.914026e+06  -3.260142e+06
   4.772609e+05  -4.144060e+06
   5.009219e+06  -2.778652e+06
   7.236818e+06   5.703188e+05
   4.383310e+06   3.265365e+06
  -9.701023e+05   3.148559e+06
  -3.590065e+06   8.008285e+05
  -1.544781e+06  -1.393455e+06
   2.101390e+06  -1.658901e+06
   3.429120e+06   8.333644e+04
   1.799091e+06   2.518276e+06
  -5.803095e+05   3.611563e+06
  -1.659326e+06   2.042976e+06
  -1.129053e+06  -9.461361e+05
   1.914823e+04  -2.085479e+06
   4.442618e+05   1.074023e+05
  -5.264817e+05   2.809016e+06
  -1.980812e+06   2.086803e+06
  -1.940685e+06  -1.663648e+06
   3.522922e+05  -3.732794e+06
   2.945101e+06  -1.146854e+06
   2.892622e+06   3.347782e+06
  -4.118032e+05   4.706939e+06
  -4.240936e+06   1.597063e+06
  -5.104832e+06  -2.643506e+06
  -2.096379e+06  -4.245947e+06
   2.274789e+06  -2.549456e+06
   4.340287e+06   4.020084e+05
   2.554986e+06   2.203151e+06
  -1.080865e+06   1.775011e+06
  -2.972010e+06  -1.028903e+05
  -1.606756e+06  -1.452893e+06
   9.356545e+05  -9.554504e+05
   1.547786e+06   5.891253e+05
  -2.100333e+05   1.187489e+06
  -1.775844e+06   8.498967e+04
  -8.930992e+05  -1.408600e+06
   1.679192e+06  -1.598353e+06
   3.169913e+06  -1.463598e+05
   1.868537e+06   1.998937e+06
  -1.331214e+06   3.521173e+06
  -4.043957e+06   3.261967e+06
  -4.496687e+06   8.380900e+05
  -2.754748e+06  -2.511277e+06
  -4.120261e+05  -4.425337e+06
   8.843899e+05  -3.711821e+06
   8.730332e+05  -1.749303e+06
   6.697216e+05  -7.501066e+05
   1.265595e+06  -9.780181e+05
   2.287407e+06  -7.510101e+05
   2.492977e+06   8.512920e+05
   1.269379e+06   2.473179e+06
  -6.795681e+05   2.188103e+06
  -1.977663e+06  -4.237664e+04
  -1.636531e+06  -2.279081e+06
   2.495297e+05  -2.642959e+06
   2.404492e+06  -9.636112e+05
   3.149974e+06   1.366943e+06
   1.883962e+06   2.729374e+06
  -1.807733e+05   2.542120e+06
  -1.277080e+06   1.544781e+06
  -1.141732e+06   8.894752e+05
  -1.192812e+06   8.799012e+05
  -2.403649e+06   7.235361e+05
  -3.681688e+06  -4.005025e+05
  -3.048428e+06  -2.242572e+06
  -1.826423e+05  -3.603213e+06
   2.901314e+06  -3.403582e+06
   3.840403e+06  -1.585409e+06
   2.221199e+06   7.638958e+05
  -1.999491e+05   2.069679e+06
  -1.290338e+06   1.486572e+06
  -4.452494e+05  -1.778406e+05
   1.081440e+06  -1.074767e+06
   1.577246e+06  -3.010784e+05
   6.155923e+05   9.827400e+05
  -5.990836e+05   9.887819e+05
  -6.363103e+05  -3.153621e+05
   5.697079e+05  -1.039560e+06
   1.688223e+06   2.190506e+05
   1.405901e+06   2.492343e+06
  -3.485270e+05   3.468148e+06
  -2.440355e+06   2.036375e+06
  -3.449244e+06  -6.743915e+05
  -2.650940e+06  -2.603120e+06
  -5.803389e+05  -2.646142e+06
   1.228334e+06  -1.337470e+06
   1.485697e+06  -1.040097e+05
   4.407145e+05   4.353253e+04
  -3.325220e+05  -6.620954e+05
   2.618346e+05  -1.099368e+06
   1.503400e+06  -5.192978e+05
   1.734339e+06   6.033803e+05
   4.496583e+05   1.131158e+06
  -9.995965e+05   5.769289e+05
  -9.499729e+05  -3.916584e+05
   6.598965e+05  -7.259606e+05
   2.179489e+06  -1.954414e+04
   1.949515e+06   1.222179e+06
  -3.535687e+04   2.034747e+06
  -2.113957e+06   1.690695e+06
  -2.529680e+06   3.121296e+05
  -1.077211e+06  -1.038718e+06
   7.422104e+05  -1.202839e+06
   1.220198e+06  -1.460741e+05
   9.549737e+04   8.674606e+05
  -1.316079e+06   6.310498e+05
  -1.560484e+06  -6.117221e+05
  -4.642661e+05  -1.469372e+06
   8.551903e+05  -1.046380e+06
   1.188996e+06   8.468480e+04
   3.721167e+05   6.465358e+05
  -6.213735e+05   9.249746e+04
  -6.249902e+05  -9.081081e+05
   5.485967e+05  -1.242848e+06
   1.803901e+06  -4.319102e+05
   1.789297e+06   9.616424e+05
   3.470523e+05   1.827838e+06
  -1.224001e+06   1.474188e+06
  -1.523477e+06   2.554192e+05
  -5.197498e+05  -7.485849e+05
   5.559703e+05  -7.685991e+05
   6.603006e+05  -5.555048e+04
  -3.652538e+04   4.932906e+05
  -5.810881e+05   3.516293e+05
  -3.734066e+05  -1.184245e+05
   2.785976e+05  -1.713278e+05
   5.580594e+05   4.176542e+05
  -4.400018e+04   1.039824e+06
  -1.186891e+06   8.486434e+05
  -1.867826e+06  -3.369492e+05
  -1.311212e+06  -1.726961e+06
   1.951347e+05  -2.212072e+06
   1.480798e+06  -1.395038e+06
   1.651332e+06   2.367022e+04
   9.512928e+05   9.323381e+05
   3.254550e+05   8.703853e+05
   2.712342e+05   3.590775e+05
   3.932295e+05   2.017257e+05
   6.691418e+04   5.679185e+05
  -7.286923e+05   8.485721e+05
  -1.341744e+06   3.916804e+05
  -1.075707e+06  -6.858648e+05
   1.434838e+05  -1.468760e+06
   1.570405e+06  -1.079237e+06
   2.090869e+06   4.015256e+05
   1.119115e+06   1.866462e+06
  -7.658718e+05   2.135492e+06
  -2.193301e+06   1.043011e+06
  -2.201436e+06  -4.448991e+05
  -1.072706e+06  -1.212818e+06
   8.379985e+04  -1.037499e+06
   4.853214e+05  -6.148114e+05
   2.946985e+05  -6.430782e+05
   1.936002e+05  -1.030302e+06
   5.566565e+05  -1.059524e+06
   1.091648e+06  -2.591567e+05
   1.172367e+06   9.857743e+05
   4.841086e+05   1.717298e+06
  -5.815831e+05   1.296501e+06
  -1.178031e+06   2.756867e+04
  -7.801383e+05  -1.092866e+06
   2.402754e+05  -1.257014e+06
   9.312014e+05  -5.070640e+05
   7.319768e+05   4.265886e+05
   3.711290e+04   8.686545e+05
  -3.097816e+05   7.437578e+05
  -1.074567e+04   4.518235e+05
   3.547713e+05   3.383777e+05
   3.152319e+04   3.593503e+05
  -9.758119e+05   2.180612e+05
  -1.777786e+06  -2.541551e+05
  -1.463186e+06  -8.727394e+05
  -8.137203e+04  -1.221304e+06
   1.302991e+06  -1.004018e+06
   1.612926e+06  -3.343254e+05
   8.040506e+05   3.046909e+05
  -1.725456e+05   4.505127e+05
  -4.272193e+05   9.262555e+04
   1.003442e+04  -2.895503e+05
   4.439887e+05  -2.022572e+05
   4.159954e+05   3.110124e+05
   1.188692e+05   6.743669e+05
  -1.411352e+04   4.318957e+05
   1.414751e+05  -1.571469e+05
   3.403662e+05  -3.484579e+05
   2.698692e+05   1.980362e+05
  -1.824740e+05   9.216420e+05
  -8.048942e+05   9.429155e+05
  -1.100446e+06   9.810559e+04
  -6.449505e+05  -8.204470e+05
   3.683243e+05  -9.301454e+05
   1.057034e+06  -2.072839e+05
   6.424439e+05   5.517617e+05
  -6.104703e+05   6.088459e+05
  -1.488761e+06  -3.365809e+04
  -1.051736e+06  -7.664092e+05
   3.440414e+05  -9.910256e+05
   1.399715e+06  -5.778257e+05
   1.219638e+06   1.047606e+05
   1.733430e+05   4.962469e+05
  -5.819295e+05   2.950325e+05
  -3.181589e+05  -2.318776e+05
   5.756888e+05  -4.185776e+05
   1.056811e+06   1.523981e+05
   5.088800e+05   1.105708e+06
  -6.484563e+05   1.495069e+06
  -1.399171e+06   7.238625e+05
  -1.130623e+06  -7.349618e+05
  -1.582755e+05  -1.657830e+06
   6.901763e+05  -1.231978e+06
   8.698910e+05   1.045776e+05
   4.560464e+05   1.089806e+06
  -1.260973e+05   9.418959e+05
  -4.931278e+05   1.130766e+05
  -4.846896e+05  -3.678604e+05
  -2.145549e+05  -1.551172e+05
  -2.144491e+04   1.106117e+05
  -1.629606e+05  -2.156026e+05
  -4.275138e+05  -8.636194e+05
  -2.489072e+05  -1.012133e+06
   5.650889e+05  -3.824693e+05
   1.361574e+06   4.376099e+05
   1.244123e+06   7.807146e+05
   1.767295e+05   6.251037e+05
  -8.485870e+05   3.643138e+05
  -9.293934e+05   1.839628e+05
  -2.784536e+05  -5.527676e+03
   1.598303e+05  -1.958493e+05
  -3.872665e+04  -2.338241e+05
  -3.187904e+05  -1.407662e+05
  -1.322362e+04  -1.236872e+05
   6.902904e+05  -1.694728e+05
   9.426181e+05   4.440572e+04
   2.706511e+05   6.103062e+05
  -8.521583e+05   1.008907e+06
  -1.498366e+06   6.176433e+05
  -1.178282e+06  -4.443974e+05
  -2.016963e+05  -1.296005e+06
   6.911188e+05  -1.221292e+06
   9.557069e+05  -4.252089e+05
   6.017924e+05   2.643296e+05
   8.438077e+04   3.233724e+05
  -1.275735e+05   6.545884e+03
   5.455719e+04  -6.989188e+04
   3.086140e+05   3.190428e+05
   2.474048e+05   7.429140e+05
  -1.855298e+05   5.991841e+05
  -6.292161e+05  -1.714971e+05
  -6.114076e+05  -9.219046e+05
  -1.069712e+04  -9.244732e+05
   7.263025e+05  -1.403969e+05
   9.025431e+05   7.333366e+05
   2.558389e+05   9.879368e+05
  -6.643491e+05   5.529385e+05
  -9.798282e+05  -9.959539e+04
  -4.405172e+05  -5.110184e+05
   2.579796e+05  -5.491545e+05
   2.897380e+05  -3.213801e+05
  -2.868050e+05  -4.384397e+04
  -6.078906e+05   1.489840e+04
  -1.083976e+05  -2.674069e+05
   7.619239e+05  -6.165012e+05
   1.104379e+06  -5.301832e+05
   6.331773e+05   1.139373e+05
  -1.023910e+05   7.641993e+05
  -4.551519e+05   7.521212e+05
  -3.205611e+05   1.022435e+05
  -5.485719e+03  -4.597244e+05
   2.319929e+05  -3.570659e+05
   3.158779e+05   1.961134e+05
   2.140807e+05   5.304035e+05
  -6.360692e+04   3.343658e+05
  -3.501715e+05  -7.096482e+04
  -4.135297e+05  -2.201353e+05
  -2.227312e+05  -5.541621e+04
   5.316409e+03   8.919778e+04
   8.403588e+04  -5.223071e+04
   7.749731e+04  -3.500351e+05
   1.588592e+05  -4.249856e+05
   3.180326e+05  -8.619610e+04
   3.283545e+05   4.114157e+05
   3.114971e+04   5.896895e+05
  -4.020299e+05   2.489025e+05
  -5.583715e+05  -2.977358e+05
  -1.908944e+05  -5.454200e+05
   4.492448e+05  -3.187309e+05
   7.656807e+05   1.036048e+05
   4.133853e+05   3.504456e+05
  -2.687070e+05   3.173812e+05
  -5.640721e+05   1.474251e+05
  -1.827184e+05   8.670150e+03
   3.734111e+05  -4.438255e+03
   3.874920e+05   1.302887e+05
  -2.125506e+05   2.947703e+05
  -7.639483e+05   2.242266e+05
