
 $NMID
 id='ANONYMOUS ', fmtdat='(2E16.6)'
 volume=1.0
 tramp=1.0
 $END
  -5.563837e+07  -3.192377e+06
  -3.139206e+07  -3.613879e+07
   9.420892e+06  -3.703456e+07
   2.783956e+07  -1.301281e+07
   1.576669e+07   7.597274e+06
  -3.700652e+06   8.950997e+06
  -9.552587e+06  -1.612579e+06
  -2.290805e+06  -9.682228e+06
   6.465106e+06  -8.927834e+06
   9.566505e+06  -1.540397e+06
   6.617504e+06   6.501974e+06
   3.857906e+05   8.597506e+06
  -4.134666e+06   2.502821e+06
  -2.412939e+06  -5.580985e+06
   3.981980e+06  -6.347840e+06
   7.684170e+06   1.684249e+06
   3.883107e+06   1.029346e+07
  -4.324559e+06   1.145545e+07
  -1.030260e+07   5.294397e+06
  -1.058427e+07  -2.650031e+06
  -6.091644e+06  -7.811057e+06
  -1.225603e+05  -8.563854e+06
   3.218223e+06  -5.709816e+06
   1.833791e+06  -2.465153e+06
  -1.174812e+06  -2.226251e+06
  -9.707639e+04  -4.284531e+06
   5.684107e+06  -4.187268e+06
   9.742414e+06  -1.153381e+04
   6.818252e+06   4.512001e+06
  -8.494369e+04   5.110940e+06
  -3.954279e+06   2.390773e+06
  -2.547547e+06  -1.972250e+05
   6.824414e+05  -1.071026e+06
   2.427795e+06  -4.732523e+05
   2.230244e+06   1.598377e+06
   4.986848e+05   4.063985e+06
  -2.040901e+06   3.742104e+06
  -3.204837e+06  -3.784086e+05
  -1.433033e+06  -3.756951e+06
   9.510203e+05  -1.793198e+06
   2.497063e+05   2.579022e+06
  -2.547988e+06   2.225522e+06
  -2.263883e+06  -3.256702e+06
   2.673633e+06  -5.886378e+06
   6.841426e+06  -5.855203e+05
   4.640634e+06   7.111335e+06
  -2.339780e+06   8.285278e+06
  -7.474738e+06   1.991232e+06
  -6.707355e+06  -4.732437e+06
  -1.599755e+06  -6.060750e+06
   3.553179e+06  -2.565746e+06
   5.174259e+06   1.701016e+06
   2.283764e+06   3.532684e+06
  -2.472237e+06   2.049221e+06
  -4.428426e+06  -1.124602e+06
  -1.796379e+06  -2.769498e+06
   1.768460e+06  -1.266240e+06
   1.697806e+06   1.084178e+06
  -1.291010e+06   8.432759e+05
  -2.311991e+06  -1.788882e+06
   7.608360e+05  -3.264828e+06
   4.597650e+06  -1.598936e+06
   5.124531e+06   1.572791e+06
   2.088675e+06   4.015600e+06
  -2.065051e+06   5.160814e+06
  -5.270205e+06   4.618047e+06
  -6.298815e+06   1.432765e+06
  -4.412510e+06  -3.417662e+06
  -6.355976e+05  -6.228385e+06
   2.041738e+06  -4.669271e+06
   1.742522e+06  -1.166088e+06
   1.274926e+05   1.689931e+05
   7.924465e+04  -1.079285e+06
   1.794504e+06  -1.755096e+06
   2.924111e+06  -7.353426e+04
   1.997129e+06   2.111869e+06
  -8.137398e+04   2.237212e+06
  -1.636060e+06   1.723784e+05
  -1.660667e+06  -2.187704e+06
   1.199688e+05  -2.993536e+06
   2.891934e+06  -1.539207e+06
   4.451355e+06   1.438853e+06
   3.025229e+06   3.943951e+06
  -2.743066e+05   4.210763e+06
  -2.408965e+06   2.568872e+06
  -2.256725e+06   1.012278e+06
  -1.840037e+06   6.153502e+05
  -2.972764e+06   3.820246e+05
  -4.357455e+06  -9.302991e+05
  -3.417834e+06  -2.930466e+06
   2.548456e+04  -4.189888e+06
   3.413378e+06  -3.840515e+06
   4.347302e+06  -1.986528e+06
   2.699247e+06   5.606717e+05
   1.745243e+05   2.314635e+06
  -1.225005e+06   1.929004e+06
  -5.775774e+05  -7.156552e+04
   1.170755e+06  -1.292870e+06
   1.954250e+06  -3.203471e+05
   8.743527e+05   1.270898e+06
  -5.801426e+05   1.121238e+06
  -4.333149e+05  -3.993728e+05
   1.070429e+06  -6.687475e+05
   1.788882e+06   1.333061e+06
   5.274117e+05   3.491828e+06
  -1.674212e+06   3.365284e+06
  -3.158364e+06   1.038810e+06
  -3.294887e+06  -1.539576e+06
  -2.241734e+06  -2.866954e+06
  -3.853381e+05  -2.677894e+06
   1.323623e+06  -1.450359e+06
   1.624702e+06  -1.701126e+05
   5.001090e+05   6.646606e+04
  -3.354619e+05  -7.812085e+05
   4.780653e+05  -1.342783e+06
   1.963229e+06  -5.022339e+05
   2.025966e+06   9.876284e+05
   3.299837e+05   1.452820e+06
  -1.216772e+06   5.351755e+05
  -8.943924e+05  -4.934748e+05
   8.699201e+05  -5.004823e+05
   2.201832e+06   3.919795e+05
   1.736482e+06   1.432438e+06
  -3.127655e+05   1.997544e+06
  -2.411353e+06   1.602930e+06
  -2.838691e+06   1.711041e+05
  -1.184746e+06  -1.339960e+06
   1.006194e+06  -1.488265e+06
   1.598088e+06  -1.190249e+05
   1.534705e+05   1.115448e+06
  -1.580812e+06   6.885068e+05
  -1.718992e+06  -8.664601e+05
  -2.780887e+05  -1.692881e+06
   1.145306e+06  -9.479468e+05
   1.261975e+06   3.659068e+05
   2.167282e+05   8.013765e+05
  -8.150663e+05   1.993450e+04
  -7.104669e+05  -1.108683e+06
   6.468573e+05  -1.436234e+06
   2.077482e+06  -4.759610e+05
   2.040298e+06   1.156524e+06
   3.071206e+05   2.135857e+06
  -1.538052e+06   1.616695e+06
  -1.768593e+06   1.423392e+05
  -4.750351e+05  -9.055835e+05
   7.048663e+05  -7.926075e+05
   6.529960e+05  -5.633097e+04
  -1.256488e+05   3.627599e+05
  -5.030125e+05   2.038082e+05
  -1.291320e+05  -5.700485e+04
   4.391681e+05   1.010033e+05
   4.918094e+05   6.995844e+05
  -2.587058e+05   1.195684e+06
  -1.444867e+06   8.568491e+05
  -2.108707e+06  -5.058397e+05
  -1.418824e+06  -2.044444e+06
   3.158356e+05  -2.464827e+06
   1.699503e+06  -1.379755e+06
   1.715432e+06   1.891497e+05
   8.465030e+05   9.396475e+05
   3.134649e+05   6.763007e+05
   4.871502e+05   2.518015e+05
   6.232005e+05   3.535227e+05
   5.649608e+04   7.837860e+05
  -9.272836e+05   8.816038e+05
  -1.485202e+06   2.772353e+05
  -1.045153e+06  -7.703471e+05
   3.037847e+05  -1.475483e+06
   1.794031e+06  -1.028638e+06
   2.275028e+06   5.787928e+05
   1.073282e+06   2.185219e+06
  -1.125893e+06   2.369062e+06
  -2.632626e+06   9.465329e+05
  -2.366573e+06  -7.635552e+05
  -9.224237e+05  -1.394125e+06
   2.382884e+05  -9.515395e+05
   4.086562e+05  -5.127827e+05
   1.109987e+05  -7.790153e+05
   1.652140e+05  -1.337002e+06
   7.416737e+05  -1.287435e+06
   1.336113e+06  -2.706343e+05
   1.325315e+06   1.157931e+06
   4.954344e+05   1.958535e+06
  -6.915890e+05   1.445387e+06
  -1.311963e+06  -5.212454e+04
  -7.755241e+05  -1.341235e+06
   4.550354e+05  -1.404709e+06
   1.196974e+06  -3.608263e+05
   7.900306e+05   7.458433e+05
  -1.749275e+05   1.086609e+06
  -5.783746e+05   7.681499e+05
  -9.999429e+04   4.172020e+05
   4.319697e+05   3.607697e+05
   4.773537e+04   3.944840e+05
  -1.180365e+06   1.663704e+05
  -2.093212e+06  -4.242858e+05
  -1.608585e+06  -1.122644e+06
   1.001698e+05  -1.459835e+06
   1.671642e+06  -1.097148e+06
   1.878404e+06  -2.084172e+05
   8.239792e+05   5.373932e+05
  -2.932189e+05   5.689172e+05
  -5.211731e+05   1.159678e+04
  -1.128520e+04  -4.348343e+05
   4.624016e+05  -2.499640e+05
   4.794100e+05   3.683779e+05
   2.363211e+05   7.530590e+05
   8.329936e+04   4.985942e+05
   1.391144e+05  -9.008432e+04
   2.887012e+05  -2.904618e+05
   2.716300e+05   2.462942e+05
  -1.769866e+05   1.004139e+06
  -9.597842e+05   1.056711e+06
  -1.407163e+06   1.246692e+05
  -8.423927e+05  -9.729604e+05
   4.719558e+05  -1.153410e+06
   1.306828e+06  -2.990373e+05
   7.315318e+05   6.119831e+05
  -7.420930e+05   6.333610e+05
  -1.613354e+06  -1.588779e+05
  -9.855674e+05  -9.137060e+05
   5.329927e+05  -9.810906e+05
   1.539350e+06  -4.249139e+05
   1.242465e+06   2.412467e+05
   1.155777e+05   5.258439e+05
  -6.723174e+05   2.464623e+05
  -3.827703e+05  -3.196377e+05
   6.165458e+05  -5.205792e+05
   1.213583e+06   1.185574e+05
   6.567387e+05   1.234502e+06
  -6.545304e+05   1.733122e+06
  -1.548486e+06   8.658874e+05
  -1.262592e+06  -8.147852e+05
  -1.485491e+05  -1.839133e+06
   7.992590e+05  -1.292879e+06
   9.344249e+05   2.193328e+05
   3.907503e+05   1.231701e+06
  -2.664427e+05   9.725087e+05
  -5.791796e+05   6.007696e+04
  -4.566219e+05  -3.967180e+05
  -1.548051e+05  -1.389853e+05
  -5.543242e+04   9.109510e+04
  -2.868039e+05  -3.251664e+05
  -4.920122e+05  -1.012143e+06
  -1.467428e+05  -1.102714e+06
   7.580418e+05  -3.707015e+05
   1.491619e+06   5.253834e+05
   1.269303e+06   8.951159e+05
   1.628254e+05   7.232014e+05
  -8.768672e+05   4.065347e+05
  -1.007535e+06   1.507223e+05
  -3.745333e+05  -7.744440e+04
   1.524533e+05  -2.293330e+05
   5.498207e+04  -1.957959e+05
  -2.559885e+05  -9.054402e+04
  -5.461162e+04  -1.394991e+05
   6.702514e+05  -2.343294e+05
   1.076904e+06   3.943936e+04
   4.466322e+05   7.349393e+05
  -8.859743e+05   1.198728e+06
  -1.782272e+06   7.335065e+05
  -1.460141e+06  -4.817620e+05
  -2.490185e+05  -1.449640e+06
   8.342106e+05  -1.392916e+06
   1.097046e+06  -5.342180e+05
   6.666340e+05   2.458039e+05
   1.351574e+05   3.746876e+05
  -6.139373e+04   8.291667e+04
   8.566300e+04   1.325635e+02
   2.867068e+05   3.890075e+05
   2.222918e+05   8.342463e+05
  -2.006112e+05   6.976600e+05
  -6.962201e+05  -1.280096e+05
  -7.489239e+05  -9.868210e+05
  -1.131485e+05  -1.070965e+06
   7.728192e+05  -2.582476e+05
   1.055603e+06   7.498255e+05
   3.425887e+05   1.132581e+06
  -7.507002e+05   6.934877e+05
  -1.158456e+06  -1.026525e+05
  -5.376181e+05  -6.604316e+05
   3.192480e+05  -7.075882e+05
   4.178723e+05  -3.674476e+05
  -2.363356e+05  -2.862756e+03
  -6.634639e+05   2.813067e+04
  -1.482069e+05  -3.256612e+05
   8.645651e+05  -6.722501e+05
   1.319740e+06  -5.015007e+05
   7.932278e+05   2.233128e+05
  -1.219948e+05   8.983447e+05
  -6.088995e+05   8.679032e+05
  -4.651984e+05   1.644209e+05
  -5.611770e+04  -4.877484e+05
   2.555741e+05  -4.531831e+05
   3.615476e+05   1.410816e+05
   2.497443e+05   5.991329e+05
  -6.411589e+04   4.558309e+05
  -4.034009e+05  -4.738445e+04
  -4.845762e+05  -3.148109e+05
  -2.436687e+05  -1.168663e+05
   3.727614e+04   1.723510e+05
   7.617736e+04   7.737010e+04
  -3.340130e+04  -3.578805e+05
   3.211834e+04  -5.945778e+05
   3.296265e+05  -2.551399e+05
   4.933129e+05   3.837891e+05
   1.812352e+05   6.746214e+05
  -4.190448e+05   3.259093e+05
  -6.925526e+05  -2.924522e+05
  -2.598752e+05  -5.894178e+05
   5.364328e+05  -3.652566e+05
   9.191449e+05   9.166733e+04
   4.896517e+05   3.999132e+05
  -3.146967e+05   4.197098e+05
  -6.718339e+05   2.371080e+05
  -2.744956e+05   1.246029e+04
   3.387847e+05  -8.453128e+04
   4.140718e+05   4.938512e+04
  -1.572996e+05   2.861748e+05
  -7.392856e+05   2.706717e+05
