
 $NMID
 id='ANONYMOUS ', fmtdat='(2E16.6)'
 volume=1.0
 tramp=1.0
 $END
   5.423729e+07   3.358928e+06
   3.020388e+07   3.522361e+07
  -9.392310e+06   3.583217e+07
  -2.690549e+07   1.250802e+07
  -1.506876e+07  -7.309402e+06
   3.591953e+06  -8.574266e+06
   9.108665e+06   1.528362e+06
   2.197785e+06   9.255905e+06
  -6.121724e+06   8.590944e+06
  -9.178502e+06   1.515988e+06
  -6.475860e+06  -6.300545e+06
  -4.526709e+05  -8.390781e+06
   4.055997e+06  -2.477300e+06
   2.481139e+06   5.407804e+06
  -3.743332e+06   6.176971e+06
  -7.414466e+06  -1.613491e+06
  -3.781825e+06  -9.976072e+06
   4.191855e+06  -1.112532e+07
   1.005337e+07  -5.145062e+06
   1.035528e+07   2.631628e+06
   5.915129e+06   7.711931e+06
  -1.003749e+03   8.394055e+06
  -3.239690e+06   5.462095e+06
  -1.728312e+06   2.214205e+06
   1.338680e+06   2.071604e+06
   2.439324e+05   4.254340e+06
  -5.549213e+06   4.256503e+06
  -9.606252e+06   1.434554e+05
  -6.737770e+06  -4.393587e+06
   7.371685e+04  -5.097482e+06
   3.936224e+06  -2.461461e+06
   2.620074e+06   1.928437e+05
  -5.735208e+05   1.216432e+06
  -2.421336e+06   6.540198e+05
  -2.341134e+06  -1.529621e+06
  -6.005131e+05  -4.077097e+06
   2.024643e+06  -3.712206e+06
   3.212352e+06   4.503572e+05
   1.386316e+06   3.767722e+06
  -1.047471e+06   1.741338e+06
  -3.645892e+05  -2.596904e+06
   2.427344e+06  -2.225939e+06
   2.192423e+06   3.134287e+06
  -2.598198e+06   5.644583e+06
  -6.622771e+06   4.595478e+05
  -4.453718e+06  -6.956231e+06
   2.320738e+06  -8.018214e+06
   7.285384e+06  -1.923671e+06
   6.553096e+06   4.535036e+06
   1.627179e+06   5.831137e+06
  -3.383898e+06   2.530696e+06
  -5.013245e+06  -1.545603e+06
  -2.251663e+06  -3.347846e+06
   2.364915e+06  -1.971956e+06
   4.284089e+06   1.068307e+06
   1.744267e+06   2.661043e+06
  -1.711076e+06   1.229461e+06
  -1.660099e+06  -1.009741e+06
   1.194437e+06  -7.729175e+05
   2.152642e+06   1.710554e+06
  -7.947090e+05   3.063620e+06
  -4.439747e+06   1.460604e+06
  -4.916152e+06  -1.531398e+06
  -2.006982e+06  -3.875926e+06
   1.987614e+06  -5.068142e+06
   5.125328e+06  -4.610953e+06
   6.179876e+06  -1.470037e+06
   4.368596e+06   3.343832e+06
   6.878382e+05   6.105016e+06
  -1.913108e+06   4.546975e+06
  -1.607169e+06   1.130859e+06
  -4.690773e+04  -1.045495e+05
  -5.156196e+04   1.175612e+06
  -1.791688e+06   1.833997e+06
  -2.953435e+06   1.397147e+05
  -2.074034e+06  -2.065817e+06
  -1.697858e+03  -2.255828e+06
   1.619063e+06  -2.662537e+05
   1.722935e+06   2.083349e+06
  -3.550949e+04   2.953131e+06
  -2.832274e+06   1.573305e+06
  -4.412919e+06  -1.366819e+06
  -2.999367e+06  -3.862175e+06
   2.697160e+05  -4.129639e+06
   2.362934e+06  -2.500644e+06
   2.185860e+06  -9.708855e+05
   1.754979e+06  -6.116203e+05
   2.867204e+06  -4.335768e+05
   4.257437e+06   8.110278e+05
   3.397904e+06   2.778858e+06
   7.910905e+04   4.089747e+06
  -3.243120e+06   3.847496e+06
  -4.226985e+06   2.065853e+06
  -2.688570e+06  -4.923467e+05
  -2.360027e+05  -2.299613e+06
   1.169997e+06  -1.946160e+06
   5.793409e+05   5.933051e+04
  -1.118578e+06   1.303904e+06
  -1.904675e+06   3.541830e+05
  -8.788021e+05  -1.236433e+06
   5.367032e+05  -1.124528e+06
   4.317704e+05   3.532058e+05
  -9.855826e+05   6.481060e+05
  -1.695357e+06  -1.246010e+06
  -5.560131e+05  -3.316926e+06
   1.498951e+06  -3.237050e+06
   2.959457e+06  -1.073248e+06
   3.208923e+06   1.366812e+06
   2.286024e+06   2.686469e+06
   4.785128e+05   2.593720e+06
  -1.254237e+06   1.464675e+06
  -1.594216e+06   2.162317e+05
  -4.913229e+05  -5.152333e+04
   3.473902e+05   7.528216e+05
  -4.399570e+05   1.313144e+06
  -1.902758e+06   5.236254e+05
  -1.986854e+06  -9.168469e+05
  -3.496423e+05  -1.398335e+06
   1.166356e+06  -5.503941e+05
   8.850458e+05   4.426797e+05
  -8.117183e+05   5.025644e+05
  -2.134020e+06  -3.022289e+05
  -1.737853e+06  -1.317223e+06
   2.258576e+05  -1.944232e+06
   2.294559e+06  -1.636381e+06
   2.763987e+06  -2.477878e+05
   1.184951e+06   1.278176e+06
  -9.561690e+05   1.472508e+06
  -1.559351e+06   1.424150e+05
  -1.697194e+05  -1.092566e+06
   1.528418e+06  -7.103118e+05
   1.694244e+06   7.979378e+05
   3.174156e+05   1.630657e+06
  -1.075459e+06   9.461910e+05
  -1.223709e+06  -3.155449e+05
  -2.292255e+05  -7.605854e+05
   7.896510e+05  -3.113135e+04
   7.180673e+05   1.067897e+06
  -5.989158e+05   1.422520e+06
  -2.023308e+06   5.187983e+05
  -2.026031e+06  -1.080561e+06
  -3.534592e+05  -2.078815e+06
   1.459576e+06  -1.614506e+06
   1.718114e+06  -1.850392e+05
   4.866264e+05   8.643263e+05
  -6.616580e+05   7.899496e+05
  -6.376622e+05   8.215356e+04
   9.631662e+04  -3.507272e+05
   4.705619e+05  -2.262327e+05
   1.344105e+05   2.704282e+04
  -4.082588e+05  -9.840470e+04
  -4.815319e+05  -6.613980e+05
   2.236545e+05  -1.161860e+06
   1.385547e+06  -8.703107e+05
   2.071136e+06   4.391546e+05
   1.438916e+06   1.961535e+06
  -2.395614e+05   2.418383e+06
  -1.612152e+06   1.398188e+06
  -1.674335e+06  -1.250516e+05
  -8.673235e+05  -8.790713e+05
  -3.538018e+05  -6.512969e+05
  -4.981584e+05  -2.506488e+05
  -6.092837e+05  -3.461854e+05
  -6.348364e+04  -7.661990e+05
   8.798962e+05  -8.811246e+05
   1.435933e+06  -3.142934e+05
   1.046917e+06   7.137201e+05
  -2.424192e+05   1.443990e+06
  -1.715980e+06   1.055725e+06
  -2.236578e+06  -4.987859e+05
  -1.105346e+06  -2.097354e+06
   1.035900e+06  -2.331029e+06
   2.535756e+06  -9.865919e+05
   2.319313e+06   6.732421e+05
   9.414130e+05   1.316488e+06
  -1.878566e+05   9.275255e+05
  -3.711083e+05   5.270045e+05
  -9.289236e+04   7.870302e+05
  -1.412091e+05   1.320707e+06
  -7.003797e+05   1.273036e+06
  -1.301195e+06   2.926878e+05
  -1.327636e+06  -1.099902e+06
  -5.377034e+05  -1.903139e+06
   6.372184e+05  -1.433601e+06
   1.280754e+06   1.356923e+04
   7.876891e+05   1.284887e+06
  -4.064999e+05   1.373877e+06
  -1.145006e+06   3.737596e+05
  -7.714662e+05  -7.065549e+05
   1.513270e+05  -1.050983e+06
   5.396324e+05  -7.486015e+05
   7.797857e+04  -4.042361e+05
  -4.356562e+05  -3.454941e+05
  -5.838204e+04  -3.872376e+05
   1.146566e+06  -1.881380e+05
   2.052783e+06   3.674629e+05
   1.596177e+06   1.053675e+06
  -6.578229e+04   1.417046e+06
  -1.606527e+06   1.103481e+06
  -1.821637e+06   2.508312e+05
  -8.054864e+05  -4.966633e+05
   2.776414e+05  -5.571339e+05
   5.026213e+05  -2.209594e+04
   1.295036e+04   4.286907e+05
  -4.492937e+05   2.617744e+05
  -4.791829e+05  -3.493851e+05
  -2.530795e+05  -7.422034e+05
  -9.421968e+04  -4.961289e+05
  -1.263727e+05   9.421645e+04
  -2.662945e+05   3.013799e+05
  -2.708597e+05  -2.318969e+05
   1.437816e+05  -9.930333e+05
   9.127034e+05  -1.057790e+06
   1.378335e+06  -1.448007e+05
   8.483093e+05   9.424379e+05
  -4.413442e+05   1.139190e+06
  -1.280156e+06   3.183293e+05
  -7.355874e+05  -5.813213e+05
   7.059973e+05  -6.370699e+05
   1.576714e+06   1.055936e+05
   9.879561e+05   8.513690e+05
  -4.835809e+05   9.643687e+05
  -1.478290e+06   4.629462e+05
  -1.214655e+06  -1.904752e+05
  -1.309990e+05  -5.055178e+05
   6.448362e+05  -2.588171e+05
   3.787198e+05   3.051677e+05
  -5.952727e+05   5.303539e+05
  -1.198772e+06  -8.537083e+04
  -6.790815e+05  -1.201055e+06
   5.993798e+05  -1.725602e+06
   1.500544e+06  -8.947527e+05
   1.262718e+06   7.639163e+05
   1.989477e+05   1.798100e+06
  -7.401034e+05   1.288813e+06
  -9.136312e+05  -1.853215e+05
  -4.168822e+05  -1.186548e+06
   2.265019e+05  -9.500118e+05
   5.603346e+05  -7.251361e+04
   4.605580e+05   3.685342e+05
   1.590472e+05   1.240316e+05
   4.865285e+04  -8.810796e+04
   2.824730e+05   3.206521e+05
   5.068934e+05   9.805213e+05
   1.780185e+05   1.065592e+06
  -7.278500e+05   3.733598e+05
  -1.475218e+06  -4.706328e+05
  -1.268900e+06  -8.312974e+05
  -1.778305e+05  -7.019206e+05
   8.491903e+05  -4.303783e+05
   9.794118e+05  -1.792415e+05
   3.629759e+05   7.133377e+04
  -1.440698e+05   2.318543e+05
  -4.210916e+04   1.847090e+05
   2.600239e+05   7.245435e+04
   5.713523e+04   1.390512e+05
  -6.555380e+05   2.581075e+05
  -1.058707e+06  -1.067206e+04
  -4.537504e+05  -7.220551e+05
   8.424041e+05  -1.207385e+06
   1.732214e+06  -7.598250e+05
   1.447665e+06   4.451670e+05
   2.849896e+05   1.417836e+06
  -7.820965e+05   1.384483e+06
  -1.067058e+06   5.521277e+05
  -6.656185e+05  -2.220828e+05
  -1.417113e+05  -3.676382e+05
   6.514043e+04  -9.051494e+04
  -7.671380e+04   5.890732e+01
  -2.892558e+05  -3.681770e+05
  -2.412304e+05  -8.071798e+05
   1.797932e+05  -6.906948e+05
   6.926232e+05   1.054586e+05
   7.666318e+05   9.533874e+05
   1.375646e+05   1.057146e+06
  -7.606334e+05   2.787350e+05
  -1.063512e+06  -7.105734e+05
  -3.653284e+05  -1.107097e+06
   7.242911e+05  -7.007840e+05
   1.140421e+06   7.417520e+04
   5.375881e+05   6.371188e+05
  -3.022347e+05   7.002010e+05
  -4.003066e+05   3.633470e+05
   2.365898e+05  -1.172045e+04
   6.514424e+05  -4.769084e+04
   1.520412e+05   3.179673e+05
  -8.278898e+05   6.828450e+05
  -1.272273e+06   5.214024e+05
  -7.755815e+05  -2.046942e+05
   9.852948e+04  -8.842380e+05
   5.755266e+05  -8.594010e+05
   4.564903e+05  -1.643044e+05
   7.118020e+04   4.818444e+05
  -2.431912e+05   4.522001e+05
  -3.661372e+05  -1.292101e+05
  -2.613287e+05  -5.819150e+05
   5.782934e+04  -4.496695e+05
   4.001785e+05   3.630001e+04
   4.778966e+05   2.972685e+05
   2.372827e+05   1.072502e+05
  -3.453269e+04  -1.708998e+05
  -6.419393e+04  -7.190910e+04
   4.582187e+04   3.615804e+05
  -2.621781e+04   5.978952e+05
  -3.312659e+05   2.618874e+05
  -5.019017e+05  -3.747215e+05
  -1.951691e+05  -6.706975e+05
   4.066108e+05  -3.343977e+05
   6.915535e+05   2.740421e+05
   2.734018e+05   5.755294e+05
  -5.169696e+05   3.702688e+05
  -9.067298e+05  -7.010642e+04
  -4.909433e+05  -3.812393e+05
   3.030616e+05  -4.192844e+05
   6.593336e+05  -2.476470e+05
   2.692290e+05  -1.339138e+04
  -3.375967e+05   9.978966e+04
  -4.167959e+05  -3.508560e+04
   1.422977e+05  -2.928423e+05
   7.198756e+05  -2.972004e+05
