
 $NMID
 id='ANONYMOUS ', fmtdat='(2E16.6)'
 volume=1.0
 tramp=1.0
 $END
  -1.723029e+07   4.169588e+05
  -1.180243e+07  -7.993907e+06
  -1.898022e+05  -1.108293e+07
   7.470094e+06  -7.389650e+06
   6.371828e+06  -6.993024e+05
   4.189335e+05   3.192911e+06
  -3.556323e+06   1.589187e+06
  -2.694378e+06  -2.802575e+06
   8.060400e+05  -4.806294e+06
   3.265835e+06  -2.171665e+06
   2.855268e+06   2.205243e+06
   4.066331e+05   3.633149e+06
  -1.661900e+06   8.004584e+05
  -1.367723e+06  -2.971648e+06
   9.913461e+05  -3.552450e+06
   2.928154e+06  -3.653781e+05
   2.215035e+06   3.393135e+06
  -7.325377e+05   4.346768e+06
  -3.288775e+06   2.114761e+06
  -3.387953e+06  -9.327254e+05
  -1.496494e+06  -2.383433e+06
   1.697676e+05  -1.924204e+06
   5.187495e+04  -1.095522e+06
  -1.215213e+06  -1.339758e+06
  -1.516093e+06  -2.446513e+06
   4.437340e+05  -2.902483e+06
   3.442009e+06  -1.667341e+06
   4.643209e+06   5.955553e+05
   2.594381e+06   2.151643e+06
  -9.016381e+05   1.893952e+06
  -2.507772e+06   2.767133e+05
  -9.551604e+05  -1.226251e+06
   1.703116e+06  -1.335179e+06
   2.616414e+06   1.146332e+05
   1.231049e+06   1.965751e+06
  -6.223705e+05   2.517226e+06
  -1.176507e+06   1.117556e+06
  -4.507394e+05  -8.568398e+05
   3.410580e+05  -1.222353e+06
   2.989080e+05   4.449527e+05
  -4.990728e+05   2.047059e+06
  -1.293603e+06   1.415110e+06
  -1.243956e+06  -8.870165e+05
  -9.843200e+04  -2.123384e+06
   1.321399e+06  -7.459683e+05
   1.549889e+06   1.721354e+06
  -8.134056e+04   2.553921e+06
  -2.392298e+06   9.111864e+05
  -3.196223e+06  -1.531718e+06
  -1.488699e+06  -2.622335e+06
   1.356862e+06  -1.739850e+06
   2.840534e+06   6.932487e+04
   1.800654e+06   1.292911e+06
  -5.018903e+05   1.151779e+06
  -1.778582e+06   6.849325e+04
  -1.053398e+06  -7.841299e+05
   5.072298e+05  -5.867604e+05
   1.044777e+06   3.232588e+05
   7.684514e+04   8.559021e+05
  -1.069835e+06   3.915898e+05
  -8.637624e+05  -5.713770e+05
   6.350831e+05  -9.983847e+05
   1.794744e+06  -3.374087e+05
   1.186695e+06   1.042635e+06
  -8.757676e+05   2.140758e+06
  -2.679819e+06   1.988208e+06
  -2.855087e+06   4.005473e+05
  -1.592876e+06  -1.669943e+06
  -1.753622e+05  -2.790899e+06
   4.477561e+05  -2.389748e+06
   4.356828e+05  -1.305101e+06
   5.416839e+05  -7.173281e+05
   1.114057e+06  -7.112743e+05
   1.732844e+06  -3.595265e+05
   1.705157e+06   7.823160e+05
   7.772159e+05   1.828105e+06
  -5.801340e+05   1.554037e+06
  -1.457605e+06  -4.606011e+04
  -1.154497e+06  -1.610896e+06
   2.063019e+05  -1.797789e+06
   1.621129e+06  -5.558640e+05
   1.972778e+06   9.993147e+05
   1.064619e+06   1.744768e+06
  -1.817064e+05   1.478294e+06
  -7.369233e+05   8.487633e+05
  -6.064940e+05   5.520819e+05
  -7.082279e+05   6.363563e+05
  -1.565814e+06   5.446852e+05
  -2.434925e+06  -2.141550e+05
  -2.042195e+06  -1.463844e+06
  -1.432177e+05  -2.410720e+06
   1.958999e+06  -2.285614e+06
   2.619361e+06  -1.020335e+06
   1.482569e+06   5.888070e+05
  -2.150489e+05   1.423185e+06
  -9.338346e+05   9.714680e+05
  -2.952388e+05  -1.435541e+05
   7.461623e+05  -7.123080e+05
   1.036464e+06  -1.994997e+05
   3.775547e+05   6.444518e+05
  -4.222053e+05   6.762874e+05
  -4.797269e+05  -1.888491e+05
   2.845633e+05  -7.741075e+05
   1.111437e+06  -5.053937e+04
   1.105307e+06   1.524417e+06
   8.347448e+03   2.396294e+06
  -1.535371e+06   1.583129e+06
  -2.414623e+06  -3.074283e+05
  -1.928739e+06  -1.761169e+06
  -4.436735e+05  -1.843164e+06
   8.507362e+05  -9.151656e+05
   1.022740e+06  -5.709013e+04
   2.992571e+05   2.862488e+04
  -2.287281e+05  -4.401265e+05
   1.503811e+05  -7.155575e+05
   9.658525e+05  -3.512189e+05
   1.147883e+06   3.579474e+05
   3.305767e+05   7.248392e+05
  -6.516797e+05   4.058293e+05
  -6.694413e+05  -2.461540e+05
   4.113400e+05  -5.357532e+05
   1.502182e+06  -8.776900e+04
   1.396014e+06   8.065786e+05
   2.983209e+04   1.420314e+06
  -1.422385e+06   1.191103e+06
  -1.712972e+06   2.353123e+05
  -7.271869e+05  -6.764030e+05
   4.809517e+05  -7.827392e+05
   7.858964e+05  -9.574618e+04
   4.958127e+04   5.635755e+05
  -8.737886e+05   4.233037e+05
  -1.055556e+06  -3.848626e+05
  -3.551943e+05  -9.801408e+05
   5.374452e+05  -7.429195e+05
   8.078636e+05   4.579501e+03
   2.874437e+05   4.132758e+05
  -3.904531e+05   6.930768e+04
  -4.096399e+05  -5.999555e+05
   3.751696e+05  -8.272381e+05
   1.214723e+06  -2.810016e+05
   1.199705e+06   6.487825e+05
   2.391976e+05   1.223419e+06
  -8.054164e+05   9.969149e+05
  -1.020588e+06   1.937380e+05
  -3.713193e+05  -4.918736e+05
   3.585385e+05  -5.302322e+05
   4.631986e+05  -4.444383e+04
  -7.149096e+02   3.610079e+05
  -4.109751e+05   2.755874e+05
  -3.064099e+05  -8.107476e+04
   1.538852e+05  -1.587725e+05
   3.884798e+05   2.408561e+05
  -1.324783e+03   6.906688e+05
  -7.866632e+05   5.804024e+05
  -1.257915e+06  -2.170335e+05
  -8.857387e+05  -1.158365e+06
   1.248097e+05  -1.501909e+06
   9.972912e+05  -9.750950e+05
   1.141459e+06  -1.313729e+04
   6.908525e+05   6.489623e+05
   2.431802e+05   6.488998e+05
   1.563076e+05   2.848190e+05
   2.245129e+05   1.269319e+05
   3.526499e+04   3.600312e+05
  -4.797943e+05   5.794640e+05
  -9.114518e+05   2.858174e+05
  -7.556577e+05  -4.677721e+05
   7.357152e+04  -1.022457e+06
   1.059606e+06  -7.544586e+05
   1.424912e+06   2.583541e+05
   7.792279e+05   1.247232e+06
  -4.801554e+05   1.437254e+06
  -1.451823e+06   7.304910e+05
  -1.499985e+06  -2.579022e+05
  -7.747715e+05  -8.082343e+05
   2.357011e+04  -7.367827e+05
   3.491299e+05  -4.558103e+05
   2.477262e+05  -4.371275e+05
   1.560676e+05  -6.694171e+05
   3.672115e+05  -6.936141e+05
   7.217685e+05  -1.686828e+05
   7.875986e+05   6.668636e+05
   3.280234e+05   1.161256e+06
  -3.934260e+05   8.782789e+05
  -7.975728e+05   2.954468e+04
  -5.368450e+05  -7.193779e+05
   1.346113e+05  -8.440684e+05
   5.951980e+05  -3.702994e+05
   4.857365e+05   2.423487e+05
   5.454446e+04   5.574113e+05
  -1.672404e+05   5.027436e+05
   1.267783e+04   3.191928e+05
   2.343066e+05   2.390409e+05
   1.667962e+04   2.479356e+05
  -6.453622e+05   1.517040e+05
  -1.181256e+06  -1.639071e+05
  -9.878037e+05  -5.727841e+05
  -7.944129e+04  -8.017751e+05
   8.501263e+05  -6.686005e+05
   1.075978e+06  -2.470003e+05
   5.483603e+05   1.693739e+05
  -1.052899e+05   2.877434e+05
  -2.780802e+05   7.512985e+04
   2.009338e+04  -1.791729e+05
   3.130298e+05  -1.340207e+05
   2.789035e+05   2.118671e+05
   5.814696e+04   4.679614e+05
  -3.118342e+04   2.978283e+05
   9.640483e+04  -1.232056e+05
   2.448082e+05  -2.584136e+05
   1.849326e+05   1.314804e+05
  -1.350537e+05   6.333692e+05
  -5.430056e+05   6.319069e+05
  -7.171218e+05   4.534854e+04
  -4.078993e+05  -5.599019e+05
   2.521411e+05  -6.063140e+05
   7.026039e+05  -1.147590e+05
   4.330738e+05   3.816422e+05
  -4.055514e+05   4.173642e+05
  -1.017368e+06  -4.905158e+03
  -7.451086e+05  -5.059962e+05
   2.045798e+05  -6.886566e+05
   9.484050e+05  -4.294569e+05
   8.454617e+05   4.707860e+04
   1.320958e+05   3.395459e+05
  -3.881330e+05   2.124992e+05
  -2.062833e+05  -1.492840e+05
   4.024901e+05  -2.734604e+05
   7.160580e+05   1.210268e+05
   3.246167e+05   7.618660e+05
  -4.667834e+05   1.008864e+06
  -9.644510e+05   4.769965e+05
  -7.682487e+05  -5.082162e+05
  -1.057098e+05  -1.132387e+06
   4.664556e+05  -8.505296e+05
   5.929038e+05   5.429279e+04
   3.263794e+05   7.348314e+05
  -6.198342e+04   6.476018e+05
  -3.265887e+05   8.462710e+04
  -3.449260e+05  -2.502457e+05
  -1.634689e+05  -1.072722e+05
  -6.927935e+03   7.964666e+04
  -8.456882e+04  -1.386088e+05
  -2.814704e+05  -5.827048e+05
  -1.916609e+05  -6.878299e+05
   3.594241e+05  -2.603892e+05
   9.295583e+05   2.963315e+05
   8.656805e+05   5.265594e+05
   1.218711e+05   4.204248e+05
  -5.942436e+05   2.488963e+05
  -6.369299e+05   1.329024e+05
  -1.732364e+05   3.838829e+03
   1.153853e+05  -1.328526e+05
  -4.798098e+04  -1.659707e+05
  -2.393153e+05  -1.037129e+05
  -1.973136e+02  -8.638219e+04
   4.934742e+05  -1.097484e+05
   6.382584e+05   3.864549e+04
   1.506192e+05   4.169236e+05
  -6.032111e+05   6.745314e+05
  -1.007323e+06   3.982307e+05
  -7.751894e+05  -3.215368e+05
  -1.261375e+05  -8.861695e+05
   4.680616e+05  -8.193924e+05
   6.521350e+05  -2.713056e+05
   4.127224e+05   1.924310e+05
   4.686592e+04   2.206985e+05
  -1.072384e+05  -5.343906e+03
   2.776893e+04  -6.036872e+04
   2.172883e+05   2.090644e+05
   1.746863e+05   5.028823e+05
  -1.322285e+05   4.022999e+05
  -4.330913e+05  -1.314289e+05
  -4.026472e+05  -6.437004e+05
   1.867002e+04  -6.298513e+05
   5.098932e+05  -7.573909e+04
   6.075784e+05   5.208132e+05
   1.567875e+05   6.734386e+05
  -4.594464e+05   3.587409e+05
  -6.560400e+05  -7.903975e+04
  -2.828019e+05  -3.367962e+05
   1.792855e+05  -3.528463e+05
   1.816262e+05  -2.093986e+05
  -2.147306e+05  -3.451753e+04
  -4.184046e+05   5.632116e+03
  -6.554508e+04  -1.798046e+05
   5.190628e+05  -4.187780e+05
   7.334666e+05  -3.673589e+05
   4.087001e+05   6.852785e+04
  -7.512771e+04   5.117764e+05
  -2.971871e+05   4.986969e+05
  -2.024217e+05   5.134096e+04
   6.350032e+03  -3.218900e+05
   1.645231e+05  -2.322873e+05
   2.180786e+05   1.507677e+05
   1.407911e+05   3.623156e+05
  -5.194178e+04   2.126531e+05
  -2.382670e+05  -5.692453e+04
  -2.720611e+05  -1.406642e+05
  -1.489943e+05  -2.826331e+04
  -7.640020e+03   4.913784e+04
   5.182565e+04  -6.198129e+04
   7.498021e+04  -2.525692e+05
   1.458761e+05  -2.762231e+05
   2.328615e+05  -2.903619e+04
   2.031542e+05   3.050244e+05
  -1.046098e+04   4.091995e+05
  -2.844033e+05   1.606314e+05
  -3.689384e+05  -2.182177e+05
  -1.197673e+05  -3.798137e+05
   3.021523e+05  -2.108802e+05
   5.111279e+05   8.344047e+04
   2.742878e+05   2.413199e+05
  -1.863717e+05   2.018532e+05
  -3.823980e+05   8.141589e+04
  -1.117966e+05  -1.698214e+02
   2.745543e+05   8.423837e+03
   2.736342e+05   1.074386e+05
  -1.584486e+05   2.134226e+05
  -5.448863e+05   1.530121e+05
