
 $NMID
 id='ANONYMOUS ', fmtdat='(2E16.6)'
 volume=1.0
 tramp=1.0
 $END
   4.943208e+05  -1.514153e+06
   1.484117e+06  -9.160006e+05
   1.316595e+06   4.993902e+05
   2.282388e+05   1.279323e+06
  -5.787296e+05   7.700897e+05
  -4.247362e+05  -1.830004e+05
   2.030249e+05  -4.589043e+05
   4.967098e+05   1.669247e+04
   2.763770e+05   4.879077e+05
  -9.068500e+04   4.567737e+05
  -2.835803e+05   1.089172e+05
  -2.393457e+05  -1.367996e+05
  -3.459265e+04  -9.253476e+04
   1.508171e+05   1.492880e+05
   9.696026e+04   3.487725e+05
  -1.987823e+05   2.853238e+05
  -4.323357e+05  -3.494913e+04
  -3.430177e+05  -3.446150e+05
  -4.507330e+04  -4.034422e+05
   1.633365e+05  -2.646679e+05
   2.046864e+05  -1.344403e+05
   2.294434e+05  -6.160366e+04
   3.025997e+05   5.588717e+04
   3.119570e+05   2.206633e+05
   1.779632e+05   3.007768e+05
  -3.012143e+04   2.434263e+05
  -1.986429e+05   1.435912e+05
  -2.537278e+05   7.847725e+04
  -1.598699e+05   3.124749e+04
   2.294058e+04   3.613349e+03
   1.085064e+05   4.452853e+04
  -2.593687e+04   1.197165e+05
  -2.345755e+05   1.019473e+05
  -2.617109e+05  -3.911757e+04
  -9.888263e+04  -1.634017e+05
   1.488244e+04  -1.519165e+05
  -3.345607e+04  -6.254549e+04
  -8.622129e+04  -1.970558e+04
  -1.469135e+04  -5.113320e+04
   7.355817e+04  -1.120756e+05
   6.507196e+04  -1.692106e+05
   6.185889e+04  -1.722621e+05
   1.697023e+05  -4.731310e+04
   2.362653e+05   1.672023e+05
   6.149999e+04   2.691813e+05
  -2.209356e+05   1.187670e+05
  -2.557486e+05  -1.399330e+05
   3.523300e+04  -2.265375e+05
   3.167481e+05  -6.672556e+04
   2.722831e+05   1.467739e+05
  -2.310953e+04   2.181941e+05
  -2.564678e+05   1.355080e+05
  -2.498074e+05  -5.978283e+03
  -7.263756e+04  -1.205037e+05
   1.012482e+05  -1.414580e+05
   1.382679e+05  -4.955768e+04
   2.585360e+04   5.494510e+04
  -9.778543e+04   2.678080e+04
  -6.033887e+04  -1.144648e+05
   1.236643e+05  -1.633840e+05
   2.280851e+05  -1.559448e+03
   9.738472e+04   2.117372e+05
  -1.312169e+05   2.313944e+05
  -2.020219e+05   3.565721e+04
  -6.879929e+04  -1.735554e+05
   8.976353e+04  -2.299167e+05
   1.424613e+05  -1.409059e+05
   1.346885e+05   5.532236e+03
   1.361069e+05   1.425886e+05
   1.134794e+05   2.195022e+05
   1.993725e+04   2.028848e+05
  -9.735551e+04   1.212773e+05
  -1.580519e+05   4.129707e+04
  -1.503709e+05  -1.872190e+04
  -1.067962e+05  -8.607773e+04
  -3.467100e+04  -1.394844e+05
   6.130296e+04  -1.056766e+05
   1.284484e+05   1.919796e+04
   1.082822e+05   1.276620e+05
   1.427733e+04   1.301359e+05
  -8.177967e+04   6.086082e+04
  -1.286717e+05   3.832607e+03
  -1.254601e+05  -2.488575e+04
  -9.274031e+04  -5.868012e+04
  -5.144997e+04  -9.700800e+04
  -1.312963e+04  -1.140293e+05
   3.826060e+04  -1.155672e+05
   1.282308e+05  -1.137441e+05
   2.237568e+05  -7.036519e+04
   2.248088e+05   5.356684e+04
   8.187322e+04   1.989357e+05
  -1.055814e+05   2.403368e+05
  -1.787172e+05   1.349670e+05
  -1.015758e+05  -1.989267e+04
   1.058805e+04  -9.837642e+04
   4.465258e+04  -6.863237e+04
   3.172138e+03   9.015427e+03
  -4.569812e+04   5.746638e+04
  -5.953037e+04   3.866380e+04
  -3.294854e+04  -2.071622e+04
   1.867175e+04  -4.167900e+04
   4.462805e+04   2.331777e+04
  -1.669468e+04   1.030390e+05
  -1.438882e+05   6.311187e+04
  -2.055234e+05  -1.158904e+05
  -9.489969e+04  -2.740913e+05
   1.248098e+05  -2.442132e+05
   2.707794e+05  -5.012860e+04
   2.345845e+05   1.288221e+05
   7.969580e+04   1.668791e+05
  -5.121556e+04   9.829753e+04
  -7.739799e+04   2.760599e+04
  -2.408217e+04   9.225021e+03
   2.651486e+04   3.179051e+04
   1.053074e+04   5.962595e+04
  -5.917727e+04   5.705153e+04
  -9.858244e+04   1.091249e+04
  -4.580031e+04  -4.199825e+04
   4.747248e+04  -4.032732e+04
   6.043211e+04   2.303655e+04
  -4.491530e+04   7.470366e+04
  -1.610508e+05   4.182764e+04
  -1.568988e+05  -5.969201e+04
  -2.971962e+04  -1.433192e+05
   1.027796e+05  -1.430950e+05
   1.385332e+05  -6.641317e+04
   7.847733e+04   2.584646e+04
  -5.784957e+03   6.790509e+04
  -4.486325e+04   3.495602e+04
  -1.336836e+04  -3.099938e+04
   5.763102e+04  -5.190775e+04
   9.774097e+04   3.076038e+03
   5.859193e+04   7.468270e+04
  -2.709882e+04   8.143538e+04
  -7.177350e+04   2.112614e+04
  -3.256652e+04  -2.893274e+04
   3.636141e+04  -1.091221e+04
   4.758221e+04   4.907752e+04
  -1.953846e+04   8.199292e+04
  -1.003397e+05   5.083925e+04
  -1.168085e+05  -2.529976e+04
  -5.295903e+04  -9.434716e+04
   3.549500e+04  -1.057515e+05
   7.481448e+04  -4.877721e+04
   4.094562e+04   2.625882e+04
  -1.821421e+04   4.776608e+04
  -3.333072e+04   2.977219e+03
   9.215308e+03  -4.265145e+04
   5.190235e+04  -2.760363e+04
   3.616956e+04   2.529086e+04
  -2.542821e+04   4.069933e+04
  -6.300446e+04  -9.740452e+03
  -2.829170e+04  -7.337076e+04
   5.558777e+04  -8.072374e+04
   1.194689e+05  -1.634555e+04
   1.098359e+05   7.564590e+04
   3.009085e+04   1.315557e+05
  -6.298379e+04   1.116126e+05
  -1.041981e+05   3.087731e+04
  -7.679436e+04  -4.448258e+04
  -2.699016e+04  -5.523210e+04
  -1.061187e+04  -1.441501e+04
  -2.738334e+04   6.669128e+03
  -2.583114e+04  -3.013221e+04
   2.419939e+04  -7.658478e+04
   8.507270e+04  -5.830173e+04
   9.036446e+04   2.843237e+04
   1.868196e+04   1.069792e+05
  -8.253988e+04   1.026013e+05
  -1.383433e+05   1.387514e+04
  -1.042632e+05  -9.377777e+04
   1.822294e+03  -1.452932e+05
   1.091114e+05  -1.091734e+05
   1.439562e+05  -1.758186e+04
   9.135925e+04   5.912815e+04
   9.274759e+03   7.366456e+04
  -2.987145e+04   4.498729e+04
  -1.225251e+04   2.991001e+04
   1.240824e+04   5.066550e+04
  -4.010202e+03   6.858053e+04
  -5.303954e+04   3.754612e+04
  -8.335618e+04  -3.386950e+04
  -5.750124e+04  -8.904840e+04
   1.091836e+04  -8.283368e+04
   6.884537e+04  -2.133295e+04
   6.914763e+04   4.976776e+04
   1.316857e+04   8.223969e+04
  -4.774539e+04   5.666697e+04
  -6.127845e+04  -4.869249e+03
  -2.830731e+04  -5.437169e+04
   1.698968e+03  -5.878909e+04
  -6.044696e+03  -3.062460e+04
  -2.703500e+04  -1.101252e+04
  -1.004881e+04  -2.091760e+04
   5.360500e+04  -3.802637e+04
   1.117419e+05  -2.574767e+04
   1.056729e+05   2.260238e+04
   3.219045e+04   7.429132e+04
  -5.322367e+04   8.824878e+04
  -8.880176e+04   5.307508e+04
  -5.946027e+04  -1.857809e+03
  -3.858764e+03  -3.171285e+04
   2.592224e+04  -1.795252e+04
   1.231064e+04   1.320608e+04
  -1.818487e+04   1.992167e+04
  -3.045758e+04  -6.321460e+03
  -1.894432e+04  -3.054224e+04
  -5.987336e+03  -1.918356e+04
  -9.423695e+03   1.478862e+04
  -2.268962e+04   2.536365e+04
  -2.570806e+04  -9.912173e+03
  -5.837099e+03  -6.024703e+04
   3.115619e+04  -7.374419e+04
   6.073554e+04  -3.232193e+04
   5.263494e+04   3.019914e+04
   1.530526e+03   6.094875e+04
  -5.112677e+04   3.624924e+04
  -4.668664e+04  -1.804255e+04
   2.294714e+04  -4.983835e+04
   9.092529e+04  -2.759822e+04
   8.159532e+04   3.042357e+04
  -2.138134e+03   7.275300e+04
  -7.891544e+04   6.303913e+04
  -7.961535e+04   1.347047e+04
  -1.902847e+04  -2.899906e+04
   3.100178e+04  -2.848688e+04
   2.312825e+04   6.418967e+03
  -2.486427e+04   3.148441e+04
  -5.993275e+04   9.557964e+03
  -4.662589e+04  -4.973366e+04
   7.370652e+03  -9.150442e+04
   6.215237e+04  -6.523130e+04
   7.686961e+04   1.936123e+04
   4.054161e+04   9.134028e+04
  -1.887923e+04   8.532902e+04
  -5.680562e+04   1.025204e+04
  -4.839746e+04  -5.916576e+04
  -7.076180e+03  -6.310295e+04
   2.991478e+04  -1.710036e+04
   3.489926e+04   1.720938e+04
   1.393358e+04   1.009960e+04
  -2.603143e+02  -7.909099e+03
   1.507190e+04   3.680680e+03
   4.104919e+04   3.930408e+04
   3.255179e+04   5.790501e+04
  -2.532485e+04   3.795609e+04
  -8.632503e+04   3.060349e+01
  -8.750670e+04  -2.574768e+04
  -2.392880e+04  -3.362921e+04
   4.174460e+04  -3.376026e+04
   5.212431e+04  -2.724824e+04
   1.850477e+04  -9.033259e+03
  -4.659613e+03   1.190490e+04
   6.006366e+03   1.758764e+04
   1.976555e+04   8.685789e+03
   2.177240e+03   6.443061e+03
  -3.617745e+04   1.733716e+04
  -5.361917e+04   1.503225e+04
  -2.673691e+04  -2.241506e+04
   2.703471e+04  -6.817987e+04
   6.929764e+04  -6.680614e+04
   7.224583e+04  -3.577440e+03
   3.566264e+04   6.842436e+04
  -1.458697e+04   8.512018e+04
  -4.429296e+04   4.250424e+04
  -3.747236e+04  -5.836065e+03
  -1.029219e+04  -1.581368e+04
   5.390408e+03   1.949629e+03
  -5.192111e+03   7.350873e+03
  -2.568454e+04  -1.513719e+04
  -2.759002e+04  -4.041354e+04
  -5.637633e+02  -3.590035e+04
   3.574595e+04   5.573593e+02
   4.754085e+04   3.863369e+04
   1.758163e+04   4.609403e+04
  -3.373843e+04   1.785214e+04
  -6.031219e+04  -2.302081e+04
  -3.357765e+04  -4.781676e+04
   2.358290e+04  -4.326022e+04
   5.642982e+04  -1.530430e+04
   3.801960e+04   1.830844e+04
  -5.290414e+02   3.662500e+04
  -9.901448e+03   2.721157e+04
   1.570705e+04   5.988636e+02
   3.418106e+04  -1.169113e+04
   1.239023e+04   1.152345e+04
  -3.194819e+04   4.959920e+04
  -5.529145e+04   5.529081e+04
  -4.093414e+04   1.071043e+04
  -1.066995e+04  -4.435136e+04
   8.937334e+03  -5.513731e+04
   1.264031e+04  -1.638040e+04
   7.399146e+03   2.378390e+04
  -3.869974e+03   2.398842e+04
  -1.794495e+04  -5.445306e+03
  -2.226370e+04  -2.536917e+04
  -6.403884e+03  -1.874688e+04
   1.924034e+04  -2.626344e+03
   3.003759e+04   2.757007e+03
   1.617081e+04  -1.702506e+03
  -4.725198e+03  -2.742648e+03
  -1.017661e+04   5.353077e+03
  -9.359963e+02   1.594866e+04
   2.804703e+03   1.855830e+04
  -9.031475e+03   7.691211e+03
  -2.106407e+04  -1.192146e+04
  -1.187197e+04  -2.566060e+04
   1.617960e+04  -1.976734e+04
   3.463400e+04   3.648470e+03
   1.960681e+04   2.557818e+04
  -1.872455e+04   2.804065e+04
  -4.335349e+04   1.096347e+04
  -2.975406e+04  -1.071351e+04
   6.042393e+03  -2.246326e+04
   2.475358e+04  -1.965268e+04
   8.765837e+03  -7.498447e+03
  -1.799110e+04   2.010171e+03
  -1.946609e+04  -2.239010e+03
   9.639815e+03  -1.694250e+04
   3.905416e+04  -2.102586e+04
