
 $NMID
 id='ANONYMOUS ', fmtdat='(2E16.6)'
 volume=1.0
 tramp=1.0
 $END
   4.154747e+07   1.091480e+06
   2.537299e+07   2.453721e+07
  -4.470271e+06   2.758343e+07
  -2.009033e+07   1.244008e+07
  -1.316027e+07  -3.405880e+06
   1.571975e+06  -7.115410e+06
   7.747549e+06  -3.487338e+05
   3.249479e+06   7.224993e+06
  -4.061988e+06   8.307891e+06
  -7.489588e+06   2.431788e+06
  -5.532407e+06  -5.020318e+06
  -4.510803e+05  -7.139669e+06
   3.343397e+06  -1.855336e+06
   2.158514e+06   5.136739e+06
  -2.905446e+06   5.956474e+06
  -6.221081e+06  -6.013928e+05
  -3.683274e+06  -7.890793e+06
   2.775215e+06  -9.208051e+06
   7.755633e+06  -4.345448e+06
   7.961618e+06   2.010779e+06
   4.279553e+06   5.717846e+06
   4.236517e+04   5.799733e+06
  -1.587511e+06   3.839295e+06
  -4.986441e+04   2.444510e+06
   1.597892e+06   3.092905e+06
  -4.168991e+05   4.339461e+06
  -5.523065e+06   3.260422e+06
  -8.419951e+06  -5.610564e+05
  -5.376317e+06  -3.942425e+06
   7.399782e+05  -3.944652e+06
   3.856814e+06  -1.311856e+06
   1.907086e+06   1.037536e+06
  -1.727688e+06   1.418301e+06
  -3.191080e+06  -7.343972e+03
  -1.942918e+06  -2.335636e+06
   3.070717e+05  -3.895898e+06
   1.902023e+06  -2.712778e+06
   1.902572e+06   7.706996e+05
   4.805767e+05   2.756176e+06
  -6.111911e+05   5.799442e+05
   3.559185e+05  -2.809633e+06
   2.335540e+06  -2.171742e+06
   2.117041e+06   2.368748e+06
  -1.296416e+06   4.701563e+06
  -4.538791e+06   9.617588e+05
  -3.608521e+06  -4.923968e+06
   1.225379e+06  -6.228984e+06
   5.644103e+06  -1.726588e+06
   5.852077e+06   3.652255e+06
   1.897582e+06   5.160530e+06
  -2.913705e+06   2.611604e+06
  -4.833095e+06  -1.014173e+06
  -2.520530e+06  -2.863332e+06
   1.676879e+06  -1.939417e+06
   3.639195e+06   5.442574e+05
   1.724788e+06   2.036525e+06
  -1.297925e+06   1.092967e+06
  -1.657101e+06  -8.369218e+05
   6.529826e+05  -1.120114e+06
   2.077914e+06   6.414507e+05
   3.131000e+05   2.198114e+06
  -2.867009e+06   1.659712e+06
  -4.052798e+06  -5.432193e+05
  -1.999176e+06  -2.876704e+06
   1.740582e+06  -4.242171e+06
   4.744744e+06  -3.790867e+06
   5.362751e+06  -9.805166e+05
   3.415023e+06   3.006744e+06
   4.057484e+05   5.280044e+06
  -1.442670e+06   4.211926e+06
  -1.293741e+06   1.600933e+06
  -5.429680e+05   4.174840e+05
  -9.165060e+05   9.936225e+05
  -2.207479e+06   1.065093e+06
  -2.708166e+06  -6.200160e+05
  -1.503411e+06  -2.467330e+06
   5.533569e+05  -2.261882e+06
   1.925033e+06   3.223520e+04
   1.638726e+06   2.386909e+06
  -2.870657e+05   2.868484e+06
  -2.700669e+06   1.148145e+06
  -3.716103e+06  -1.525156e+06
  -2.317699e+06  -3.327856e+06
   2.728797e+05  -3.257373e+06
   1.777837e+06  -1.965790e+06
   1.626717e+06  -9.556612e+05
   1.513611e+06  -7.923835e+05
   2.740969e+06  -5.602601e+05
   4.078505e+06   7.183922e+05
   3.251055e+06   2.678757e+06
   9.368449e+03   3.975981e+06
  -3.310012e+06   3.620370e+06
  -4.227903e+06   1.685812e+06
  -2.459710e+06  -7.805548e+05
   1.311142e+05  -2.230493e+06
   1.355925e+06  -1.669510e+06
   5.030277e+05   1.548282e+05
  -1.186700e+06   1.164786e+06
  -1.786295e+06   2.788843e+05
  -7.102645e+05  -1.140933e+06
   6.412053e+05  -1.058041e+06
   5.760860e+05   3.803242e+05
  -8.148223e+05   9.334458e+05
  -1.803395e+06  -6.903244e+05
  -1.078490e+06  -3.021113e+06
   9.597282e+05  -3.584180e+06
   2.885602e+06  -1.689026e+06
   3.529960e+06   1.131159e+06
   2.534034e+06   2.897731e+06
   4.498771e+05   2.788695e+06
  -1.354814e+06   1.397856e+06
  -1.600544e+06   8.952793e+04
  -4.803353e+05  -6.592540e+04
   3.275894e+05   7.423969e+05
  -3.821823e+05   1.227295e+06
  -1.748479e+06   4.941942e+05
  -1.897939e+06  -8.166329e+05
  -3.944087e+05  -1.308022e+06
   1.135896e+06  -5.550684e+05
   9.540847e+05   4.750397e+05
  -7.925781e+05   6.523638e+05
  -2.284049e+06  -2.021632e+05
  -1.914712e+06  -1.415530e+06
   2.043985e+05  -2.107375e+06
   2.364627e+06  -1.665673e+06
   2.759013e+06  -1.995294e+05
   1.134065e+06   1.222543e+06
  -9.009603e+05   1.337682e+06
  -1.412783e+06   1.115107e+05
  -9.787712e+04  -9.941267e+05
   1.484630e+06  -6.402862e+05
   1.666615e+06   7.757629e+05
   3.731284e+05   1.627677e+06
  -1.029107e+06   1.030363e+06
  -1.264303e+06  -2.262018e+05
  -3.120139e+05  -7.410382e+05
   7.201993e+05  -5.025415e+04
   6.534605e+05   1.038178e+06
  -6.457296e+05   1.347646e+06
  -1.991948e+06   4.112579e+05
  -1.927306e+06  -1.125923e+06
  -2.939856e+05  -2.027378e+06
   1.432957e+06  -1.553908e+06
   1.685411e+06  -1.822349e+05
   5.044556e+05   8.515452e+05
  -6.551860e+05   7.925651e+05
  -6.840637e+05   3.820186e+04
   8.983093e+04  -4.631636e+05
   5.892802e+05  -2.895583e+05
   2.921753e+05   1.172096e+05
  -3.609324e+05   7.062187e+04
  -5.482834e+05  -5.594772e+05
   1.566555e+05  -1.143283e+06
   1.358948e+06  -8.528617e+05
   2.025816e+06   4.692464e+05
   1.355167e+06   1.955413e+06
  -3.128986e+05   2.392432e+06
  -1.665696e+06   1.404349e+06
  -1.745080e+06  -1.355594e+05
  -9.244129e+05  -1.004248e+06
  -3.061185e+05  -8.451711e+05
  -3.502913e+05  -3.404578e+05
  -4.905088e+05  -2.765991e+05
  -5.060597e+04  -6.752722e+05
   8.600449e+05  -8.769616e+05
   1.466430e+06  -3.247031e+05
   1.089566e+06   7.817666e+05
  -2.557364e+05   1.531069e+06
  -1.754152e+06   1.058607e+06
  -2.235517e+06  -5.474932e+05
  -1.093557e+06  -2.096852e+06
   9.945168e+05  -2.289962e+06
   2.479542e+06  -9.873993e+05
   2.343124e+06   6.469185e+05
   1.026007e+06   1.364433e+06
  -1.775859e+05   1.047530e+06
  -4.973383e+05   5.864118e+05
  -2.569617e+05   7.085883e+05
  -2.187803e+05   1.180120e+06
  -6.777525e+05   1.172776e+06
  -1.234910e+06   2.433747e+05
  -1.248801e+06  -1.124420e+06
  -4.579872e+05  -1.891896e+06
   6.842797e+05  -1.388038e+06
   1.277331e+06   3.574809e+04
   7.792504e+05   1.253946e+06
  -3.669130e+05   1.358391e+06
  -1.085275e+06   4.477104e+05
  -7.739356e+05  -5.848571e+05
   6.466856e+04  -9.888413e+05
   4.450763e+05  -7.764340e+05
   5.827929e+04  -4.579658e+05
  -3.885229e+05  -3.712355e+05
  -2.820039e+04  -3.887763e+05
   1.100096e+06  -1.799948e+05
   1.962958e+06   3.799096e+05
   1.553113e+06   1.045353e+06
  -1.841906e+04   1.364179e+06
  -1.523671e+06   1.043342e+06
  -1.789131e+06   2.546906e+05
  -8.371816e+05  -4.279813e+05
   2.373300e+05  -5.092085e+05
   4.836930e+05  -5.409050e+04
  -9.661365e+03   3.559457e+05
  -4.750916e+05   2.160055e+05
  -4.485351e+05  -3.571786e+05
  -1.482966e+05  -7.345240e+05
  -9.371535e+03  -4.733275e+05
  -1.522900e+05   1.345090e+05
  -3.468585e+05   3.298061e+05
  -2.760164e+05  -2.338084e+05
   2.162370e+05  -9.857106e+05
   9.246821e+05  -1.000664e+06
   1.263464e+06  -8.024853e+04
   7.214134e+05   9.296027e+05
  -4.488854e+05   1.041567e+06
  -1.199735e+06   2.201701e+05
  -6.862935e+05  -6.157777e+05
   7.030409e+05  -6.260871e+05
   1.597147e+06   1.255766e+05
   1.048808e+06   8.857202e+05
  -4.589946e+05   1.019881e+06
  -1.528693e+06   5.034585e+05
  -1.276503e+06  -1.969935e+05
  -1.440999e+05  -5.334755e+05
   6.487398e+05  -2.719724e+05
   3.486610e+05   2.832202e+05
  -6.266019e+05   4.564231e+05
  -1.153758e+06  -1.769648e+05
  -5.525597e+05  -1.213508e+06
   7.205497e+05  -1.626140e+06
   1.533319e+06  -7.660442e+05
   1.205304e+06   8.279769e+05
   1.128614e+05   1.798964e+06
  -7.961199e+05   1.285726e+06
  -9.276823e+05  -1.776635e+05
  -4.184193e+05  -1.202140e+06
   2.122931e+05  -9.891383e+05
   5.494772e+05  -8.325690e+04
   4.829942e+05   4.087888e+05
   1.959383e+05   1.623078e+05
   3.834176e+04  -1.074862e+05
   2.101995e+05   2.694711e+05
   4.442865e+05   9.669509e+05
   1.912112e+05   1.095666e+06
  -6.720385e+05   3.781841e+05
  -1.453792e+06  -5.283379e+05
  -1.282208e+06  -8.929239e+05
  -1.606947e+05  -6.932033e+05
   9.048750e+05  -3.699653e+05
   1.002771e+06  -1.516838e+05
   3.263565e+05   4.041489e+04
  -1.690617e+05   2.116390e+05
  -1.905988e+03   2.312526e+05
   3.036316e+05   1.380954e+05
   2.528893e+04   1.348917e+05
  -7.159858e+05   1.796352e+05
  -1.030201e+06  -7.194645e+04
  -3.301516e+05  -6.889636e+05
   9.287674e+05  -1.096087e+06
   1.684064e+06  -6.434873e+05
   1.319382e+06   5.100916e+05
   1.898700e+05   1.412751e+06
  -8.089196e+05   1.316110e+06
  -1.060204e+06   4.555492e+05
  -6.426095e+05  -2.862034e+05
  -9.720354e+04  -3.580978e+05
   1.077665e+05  -3.097809e+04
  -7.112101e+04   4.510172e+04
  -3.038815e+05  -3.679105e+05
  -2.262253e+05  -8.151662e+05
   2.161302e+05  -6.549146e+05
   6.744340e+05   1.808332e+05
   6.606144e+05   1.001356e+06
   2.286152e+04   1.016796e+06
  -7.768571e+05   1.688863e+05
  -9.751368e+05  -7.956148e+05
  -2.702624e+05  -1.089897e+06
   7.397412e+05  -6.090448e+05
   1.084153e+06   1.331567e+05
   4.805439e+05   6.007296e+05
  -3.071856e+05   6.236784e+05
  -3.590269e+05   3.437587e+05
   2.782764e+05   3.909812e+04
   6.542316e+05  -2.531999e+03
   1.201862e+05   3.033157e+05
  -8.498244e+05   6.406017e+05
  -1.246586e+06   5.095918e+05
  -7.165744e+05  -1.774548e+05
   1.358702e+05  -8.429511e+05
   5.532667e+05  -8.139034e+05
   3.906914e+05  -1.211454e+05
   1.112743e+04   4.890257e+05
  -2.605041e+05   4.010466e+05
  -3.398077e+05  -1.927307e+05
  -2.208165e+05  -5.842046e+05
   7.561900e+04  -3.917651e+05
   3.822017e+05   7.515526e+04
   4.512032e+05   2.765425e+05
   2.385545e+05   8.724499e+04
  -1.535661e+04  -1.239504e+05
  -8.700214e+04   3.231999e+03
  -4.955652e+04   3.642546e+05
  -1.294216e+05   5.004017e+05
  -3.368625e+05   1.436705e+05
  -3.912055e+05  -4.266646e+05
  -7.160794e+04  -6.457243e+05
   4.319370e+05  -2.760833e+05
   6.227140e+05   3.239036e+05
   2.084901e+05   5.896785e+05
  -5.097290e+05   3.363830e+05
  -8.515121e+05  -1.253671e+05
  -4.487783e+05  -3.952709e+05
   3.057581e+05  -3.610169e+05
   6.313901e+05  -1.709923e+05
   2.249177e+05  -5.721426e+03
  -3.752129e+05   2.318571e+04
  -4.088470e+05  -1.166487e+05
   2.094116e+05  -2.968223e+05
   7.924390e+05  -2.277837e+05
