
 $NMID
 id='ANONYMOUS ', fmtdat='(2E16.6)'
 volume=1.0
 tramp=1.0
 $END
   3.209667e+06  -1.929145e+06
   2.976169e+06   7.707922e+05
   8.335032e+05   2.297834e+06
  -9.120560e+05   1.709374e+06
  -1.005020e+06   2.274794e+05
  -1.359769e+05  -5.523045e+05
   4.868036e+05  -2.772112e+05
   4.649972e+05   3.603385e+05
   6.528178e+04   6.671087e+05
  -3.904666e+05   4.492084e+05
  -6.198592e+05  -6.983440e+04
  -3.953940e+05  -4.415214e+05
   1.294619e+05  -3.124942e+05
   4.018779e+05   1.833954e+05
   9.364325e+04   4.850531e+05
  -4.493680e+05   2.193157e+05
  -6.180588e+05  -3.794419e+05
  -2.355736e+05  -7.775943e+05
   3.503222e+05  -7.003140e+05
   7.049774e+05  -2.672829e+05
   6.470382e+05   2.266070e+05
   3.000494e+05   4.954991e+05
  -4.066695e+03   4.008535e+05
   1.087458e+04   1.110386e+05
   2.382321e+05   8.774549e+03
   2.547176e+05   2.540288e+05
  -1.328271e+05   5.387588e+05
  -5.700483e+05   4.584321e+05
  -5.885829e+05   3.417065e+04
  -2.071484e+05  -3.313755e+05
   1.484212e+05  -3.495319e+05
   2.089220e+05  -1.001627e+05
   6.440259e+04   1.560990e+05
  -1.184034e+05   2.193732e+05
  -2.605599e+05   3.897464e+04
  -2.586703e+05  -2.367822e+05
  -3.433154e+04  -3.177233e+05
   2.348905e+05  -8.089899e+04
   2.318807e+05   1.967013e+05
  -3.802346e+04   1.457170e+05
  -1.821747e+05  -1.574239e+05
   1.698844e+04  -2.455549e+05
   2.399306e+05   6.981868e+04
   7.868085e+04   3.850544e+05
  -3.441268e+05   2.471657e+05
  -5.081835e+05  -2.275753e+05
  -1.756219e+05  -5.293372e+05
   3.347348e+05  -4.004186e+05
   5.576148e+05  -4.437722e+04
   3.535047e+05   2.258290e+05
  -5.245779e+04   2.850907e+05
  -3.235661e+05   1.607690e+05
  -2.633974e+05  -5.120676e+04
   3.833761e+04  -1.865233e+05
   2.663274e+05  -1.199531e+05
   1.951512e+05   6.091080e+04
  -4.375594e+04   1.318846e+05
  -1.303781e+05   3.001372e+04
   1.601192e+04  -6.443209e+04
   1.453496e+05   4.644027e+03
   4.567377e+04   1.601459e+05
  -1.817623e+05   2.203740e+05
  -3.056692e+05   1.114388e+05
  -2.576880e+05  -1.208513e+05
  -1.131252e+05  -3.814108e+05
   8.244052e+04  -5.170187e+05
   2.974318e+05  -3.722115e+05
   4.121395e+05   7.173771e+03
   3.202709e+05   3.216641e+05
   1.124240e+05   3.236698e+05
  -1.915077e+03   1.194203e+05
   3.396344e+04   1.804137e+04
   6.494162e+04   1.217491e+05
  -3.808780e+04   2.323378e+05
  -2.007745e+05   1.626277e+05
  -2.528908e+05  -2.717915e+04
  -1.281846e+05  -1.510674e+05
   8.385342e+04  -1.202590e+05
   2.195494e+05   2.101171e+04
   1.529484e+05   1.754126e+05
  -9.528080e+04   2.338579e+05
  -3.312939e+05   1.242381e+05
  -3.492271e+05  -9.584617e+04
  -1.567828e+05  -2.524192e+05
   3.405720e+04  -2.380523e+05
   7.647897e+04  -1.388601e+05
   5.649084e+04  -1.103650e+05
   1.280004e+05  -1.666369e+05
   2.723720e+05  -1.708951e+05
   3.287197e+05  -2.053643e+04
   2.158509e+05   2.230851e+05
   1.691614e+04   3.885382e+05
  -1.396417e+05   3.426981e+05
  -1.902843e+05   1.076371e+05
  -1.364014e+05  -1.331673e+05
  -2.839737e+04  -1.805137e+05
   3.927616e+04  -2.348280e+04
   7.909252e+02   1.347479e+05
  -8.973074e+04   1.122900e+05
  -1.086269e+05  -3.145285e+04
  -2.774420e+04  -9.326010e+04
   3.961934e+04  -9.829595e+03
  -8.474989e+03   7.185055e+04
  -1.259808e+05   1.619985e+04
  -1.795565e+05  -1.266389e+05
  -9.950936e+04  -2.168716e+05
   6.989871e+04  -1.991224e+05
   2.261716e+05  -1.111586e+05
   2.727305e+05   4.787928e+03
   1.749381e+05   1.124390e+05
   8.825410e+03   1.527299e+05
  -8.050547e+04   9.904141e+04
  -2.970124e+04   2.327180e+04
   5.776852e+04   2.423013e+04
   3.848091e+04   9.257159e+04
  -8.017074e+04   1.195251e+05
  -1.505277e+05   4.706764e+04
  -8.431454e+04  -5.633949e+04
   3.616400e+04  -8.764398e+04
   7.151610e+04  -2.466346e+04
  -1.130269e+04   6.781455e+04
  -1.249851e+05   1.029989e+05
  -1.665131e+05   3.155170e+04
  -9.894741e+04  -1.134112e+05
   3.474934e+04  -2.131405e+05
   1.383181e+05  -1.600336e+05
   1.283101e+05   9.824192e+03
   1.726773e+04   1.284161e+05
  -8.029721e+04   8.154773e+04
  -6.142235e+04  -5.587657e+04
   5.035627e+04  -1.171054e+05
   1.323562e+05  -4.370693e+04
   1.008694e+05   6.793121e+04
  -4.972636e+03   1.023198e+05
  -7.630815e+04   4.651789e+04
  -4.784179e+04  -2.544642e+04
   4.354426e+04  -3.828007e+04
   9.583041e+04   2.597557e+04
   3.887137e+04   1.144794e+05
  -8.986190e+04   1.360781e+05
  -1.717547e+05   4.395254e+04
  -1.272260e+05  -9.799742e+04
  -2.783218e+03  -1.635879e+05
   8.262907e+04  -9.854777e+04
   6.914293e+04   1.996300e+04
   4.912414e+03   7.599048e+04
  -3.124848e+04   3.984301e+04
  -1.776091e+04  -2.279171e+04
   9.502070e+03  -4.246130e+04
   1.139381e+04  -1.478684e+04
  -1.962156e+04   1.199333e+04
  -5.571881e+04  -8.099907e+03
  -4.822097e+04  -7.229184e+04
   3.037814e+04  -1.205776e+05
   1.386285e+05  -8.455426e+04
   1.837536e+05   3.457932e+04
   1.155519e+05   1.477032e+05
  -1.131843e+04   1.633046e+05
  -9.567577e+04   8.615061e+04
  -9.849389e+04   5.104056e+03
  -6.489048e+04  -1.383351e+04
  -4.849851e+04   7.607236e+03
  -5.109825e+04   6.232474e+03
  -4.095220e+04  -4.079988e+04
   5.009389e+02  -9.456411e+04
   6.021779e+04  -9.639732e+04
   9.871634e+04  -2.154917e+04
   6.951012e+04   9.063131e+04
  -3.605781e+04   1.515112e+05
  -1.508664e+05   9.305259e+04
  -1.714630e+05  -5.615704e+04
  -6.394500e+04  -1.803542e+05
   8.653479e+04  -1.847174e+05
   1.591110e+05  -8.677736e+04
   1.208789e+05   1.603322e+04
   4.472123e+04   5.694276e+04
   1.371656e+04   5.338144e+04
   3.637655e+04   5.759705e+04
   5.693827e+04   8.580933e+04
   2.396441e+04   1.068729e+05
  -5.891276e+04   8.241282e+04
  -1.330975e+05   7.220342e+03
  -1.309307e+05  -7.896259e+04
  -3.989423e+04  -1.146374e+05
   7.143366e+04  -6.699877e+04
   1.093065e+05   2.935272e+04
   4.889717e+04   9.436610e+04
  -4.015337e+04   7.611020e+04
  -7.334578e+04  -2.167492e+02
  -4.238905e+04  -6.230127e+04
  -9.290268e+03  -6.399194e+04
  -1.916273e+04  -2.360285e+04
  -4.457863e+04   3.125644e+03
  -2.499253e+04  -1.923551e+04
   5.360981e+04  -6.941088e+04
   1.339303e+05  -8.529415e+04
   1.432315e+05  -2.502182e+04
   6.751250e+04   7.975518e+04
  -3.388642e+04   1.424377e+05
  -8.601165e+04   1.080432e+05
  -6.574934e+04   1.529536e+04
  -1.129019e+04  -4.421764e+04
   2.499981e+04  -2.631941e+04
   2.104593e+04   2.512024e+04
  -1.131306e+04   4.038717e+04
  -4.544955e+04   5.653922e+03
  -5.555262e+04  -3.153494e+04
  -3.245410e+04  -2.627321e+04
   8.945245e+02   1.231457e+04
   4.572445e+03   3.400723e+04
  -2.790441e+04   2.205142e+03
  -4.702642e+04  -6.561559e+04
  -3.992411e+03  -1.085548e+05
   7.365137e+04  -7.756579e+04
   9.893112e+04   1.248794e+04
   3.213157e+04   8.823044e+04
  -5.908983e+04   8.408256e+04
  -7.353309e+04   6.273107e+03
   4.843818e+03  -7.203891e+04
   9.120924e+04  -7.953707e+04
   9.883806e+04  -1.020107e+04
   2.720570e+04   7.533506e+04
  -5.229501e+04   1.049202e+05
  -7.476550e+04   5.713762e+04
  -3.483176e+04  -1.916231e+04
   2.071069e+04  -4.786607e+04
   3.643992e+04  -1.245926e+03
  -7.059879e+03   6.373857e+04
  -7.507744e+04   5.897999e+04
  -1.042213e+05  -3.474453e+04
  -5.748390e+04  -1.332894e+05
   3.876355e+04  -1.327289e+05
   1.131408e+05  -2.469955e+04
   1.083761e+05   9.059432e+04
   2.958681e+04   1.116753e+05
  -5.869462e+04   3.884667e+04
  -8.619842e+04  -4.190326e+04
  -3.927673e+04  -6.208826e+04
   2.663193e+04  -3.290104e+04
   4.585814e+04  -6.299076e+03
   1.593355e+04  -4.155129e+03
  -2.619368e+03  -6.250143e+03
   3.190280e+04   7.134173e+03
   8.029312e+04   2.957404e+04
   6.685743e+04   4.692854e+04
  -2.099570e+04   5.604307e+04
  -1.079394e+05   5.312444e+04
  -1.151995e+05   2.439149e+04
  -4.701351e+04  -2.962582e+04
   2.436626e+04  -7.244227e+04
   4.423253e+04  -6.340183e+04
   2.306362e+04  -1.296801e+04
   4.225675e+03   2.168620e+04
   8.631931e+03   9.069734e+03
   1.994302e+04  -1.344773e+04
   1.122363e+04   6.295366e+03
  -2.390805e+04   5.361188e+04
  -6.161582e+04   5.574282e+04
  -6.462533e+04  -2.160054e+04
  -1.549886e+04  -1.168089e+05
   6.015765e+04  -1.337930e+05
   1.083537e+05  -4.857316e+04
   9.289442e+04   6.615445e+04
   2.858480e+04   1.196684e+05
  -3.328774e+04   8.886215e+04
  -5.155046e+04   2.379265e+04
  -2.795199e+04  -1.488722e+04
   3.504293e+02  -1.191025e+04
  -2.300560e+03   2.666118e+03
  -3.485590e+04  -4.089933e+03
  -5.649134e+04  -3.166354e+04
  -2.594266e+04  -4.958657e+04
   4.711248e+04  -3.193639e+04
   9.687763e+04   1.474683e+04
   6.452329e+04   5.619000e+04
  -3.093161e+04   5.891387e+04
  -1.013378e+05   1.609473e+04
  -8.019546e+04  -4.534254e+04
   5.813581e+03  -7.951746e+04
   6.997933e+04  -5.545770e+04
   6.290004e+04   9.707275e+03
   1.735075e+04   5.641140e+04
  -4.651092e+03   3.963114e+04
   1.322382e+04  -1.647300e+04
   3.476398e+04  -3.850459e+04
   2.533750e+04   1.096525e+04
  -1.004238e+04   8.292261e+04
  -4.260950e+04   9.474857e+04
  -5.321634e+04   2.661622e+04
  -4.059521e+04  -5.586326e+04
  -1.169310e+04  -7.728200e+04
   1.970846e+04  -3.137107e+04
   3.132745e+04   2.479200e+04
   8.996362e+03   3.957093e+04
  -3.020733e+04   1.296105e+04
  -4.618096e+04  -1.944910e+04
  -1.859092e+04  -2.978332e+04
   2.580434e+04  -1.942630e+04
   4.140793e+04  -7.420187e+03
   1.760178e+04  -6.296603e+03
  -9.341993e+03  -9.583687e+03
  -3.347897e+03  -1.506106e+03
   2.426681e+04   2.132810e+04
   2.866402e+04   4.094777e+04
  -9.141787e+03   3.511908e+04
  -5.227559e+04   2.761356e+03
  -4.830240e+04  -3.215084e+04
   6.232668e+03  -4.236603e+04
   5.609331e+04  -2.006726e+04
   4.770517e+04   1.925919e+04
  -1.013450e+04   4.808080e+04
  -5.683963e+04   4.322762e+04
  -4.854190e+04   3.800306e+03
  -3.222169e+03  -4.041536e+04
   2.674786e+04  -4.907028e+04
   1.532381e+04  -1.323744e+04
  -1.543738e+04   2.688137e+04
  -2.820803e+04   2.191513e+04
  -9.679211e+03  -2.623214e+04
   2.443887e+04  -5.921105e+04
