
 $NMID
 id='ANONYMOUS ', fmtdat='(2E16.6)'
 volume=1.0
 tramp=1.0
 $END
   3.006360e+07   2.252426e+06
   1.798567e+07   1.724154e+07
  -3.048963e+06   1.930947e+07
  -1.430535e+07   9.731992e+06
  -9.909184e+06  -1.325481e+06
   6.092329e+05  -5.158532e+06
   5.769302e+06  -1.058488e+06
   3.058168e+06   5.116496e+06
  -2.525047e+06   6.837918e+06
  -5.573332e+06   2.342407e+06
  -4.226142e+06  -3.971654e+06
  -2.088907e+05  -5.729074e+06
   2.738507e+06  -1.223894e+06
   1.766709e+06   4.482862e+06
  -2.137140e+06   5.038869e+06
  -4.712083e+06  -2.208553e+05
  -2.846912e+06  -5.954778e+06
   2.091075e+06  -6.944396e+06
   5.887239e+06  -3.030310e+06
   5.767648e+06   1.938898e+06
   2.592547e+06   4.415147e+06
  -4.708678e+05   3.843418e+06
  -9.042774e+05   2.237487e+06
   8.904943e+05   1.913561e+06
   1.826731e+06   3.200462e+06
  -6.371351e+05   4.068540e+06
  -5.099257e+06   2.459603e+06
  -7.071095e+06  -1.027114e+06
  -4.048372e+06  -3.529081e+06
   1.208292e+06  -3.092887e+06
   3.641418e+06  -6.188021e+05
   1.545038e+06   1.491743e+06
  -2.061983e+06   1.655147e+06
  -3.391356e+06  -1.262048e+05
  -1.748407e+06  -2.566295e+06
   7.290490e+05  -3.603232e+06
   1.835509e+06  -1.909969e+06
   1.118804e+06   1.129372e+06
  -2.298402e+05   2.146628e+06
  -5.841614e+05  -1.680033e+05
   6.008550e+05  -2.784450e+06
   2.023538e+06  -1.915484e+06
   1.703744e+06   1.712926e+06
  -6.512541e+05   3.423924e+06
  -2.855013e+06   6.856672e+05
  -2.373993e+06  -3.503530e+06
   8.739806e+05  -4.398897e+06
   4.219030e+06  -1.125253e+06
   4.697675e+06   2.897315e+06
   1.736538e+06   4.173465e+06
  -2.305939e+06   2.298222e+06
  -4.107016e+06  -6.139973e+05
  -2.312428e+06  -2.213875e+06
   1.122271e+06  -1.578375e+06
   2.801496e+06   3.179860e+05
   1.414274e+06   1.479303e+06
  -9.605269e+05   8.272482e+05
  -1.448307e+06  -6.362422e+05
   2.076618e+05  -1.059047e+06
   1.574523e+06   1.547752e+04
   6.736703e+05   1.255234e+06
  -1.686418e+06   1.250852e+06
  -2.952489e+06  -1.317904e+05
  -1.582153e+06  -2.034488e+06
   1.569883e+06  -3.326855e+06
   4.185982e+06  -2.931460e+06
   4.469669e+06  -4.988443e+05
   2.518237e+06   2.690945e+06
   9.181004e+04   4.350789e+06
  -1.073083e+06   3.497231e+06
  -8.686128e+05   1.613727e+06
  -6.160156e+05   7.603304e+05
  -1.290732e+06   1.001709e+06
  -2.343753e+06   6.777652e+05
  -2.470691e+06  -9.640193e+05
  -1.173134e+06  -2.516470e+06
   7.443717e+05  -2.154750e+06
   1.939985e+06   8.409055e+04
   1.518637e+06   2.279893e+06
  -3.666426e+05   2.576182e+06
  -2.424755e+06   8.108753e+05
  -3.014711e+06  -1.556762e+06
  -1.636938e+06  -2.826809e+06
   4.082810e+05  -2.466201e+06
   1.389764e+06  -1.366909e+06
   1.160182e+06  -7.338713e+05
   1.176356e+06  -7.598814e+05
   2.343289e+06  -5.662842e+05
   3.531971e+06   5.877475e+05
   2.832584e+06   2.333668e+06
  -6.147270e+03   3.502693e+06
  -2.995025e+06   3.166414e+06
  -3.838362e+06   1.360817e+06
  -2.153216e+06  -8.644849e+05
   2.918916e+05  -2.039576e+06
   1.346344e+06  -1.409200e+06
   4.338898e+05   1.954961e+05
  -1.108805e+06   9.976098e+05
  -1.544924e+06   2.069445e+05
  -5.406260e+05  -9.973500e+05
   6.242048e+05  -9.428898e+05
   5.967688e+05   3.093638e+05
  -5.597275e+05   9.460151e+05
  -1.539157e+06  -2.854582e+05
  -1.194518e+06  -2.408134e+06
   4.564759e+05  -3.258822e+06
   2.371783e+06  -1.836957e+06
   3.271034e+06   7.723483e+05
   2.470806e+06   2.603952e+06
   4.653157e+05   2.587260e+06
  -1.258785e+06   1.252359e+06
  -1.459616e+06   3.679246e+04
  -4.275695e+05  -6.269724e+04
   2.884261e+05   6.561492e+05
  -3.153535e+05   1.040447e+06
  -1.479462e+06   4.114191e+05
  -1.632935e+06  -6.722528e+05
  -3.712259e+05  -1.102564e+06
   9.860671e+05  -5.037427e+05
   8.968224e+05   4.100800e+05
  -6.538997e+05   6.599434e+05
  -2.090059e+06  -6.862311e+04
  -1.835506e+06  -1.247728e+06
   1.082339e+05  -1.958368e+06
   2.116586e+06  -1.544384e+06
   2.466281e+06  -1.861491e+05
   9.881975e+05   1.059039e+06
  -7.889623e+05   1.122466e+06
  -1.190490e+06   6.822233e+04
  -4.090780e+04  -8.504579e+05
   1.308433e+06  -5.431129e+05
   1.475691e+06   6.653696e+05
   3.812741e+05   1.431200e+06
  -8.599366e+05   9.636207e+05
  -1.128827e+06  -1.294380e+05
  -3.257736e+05  -6.252485e+05
   5.989944e+05  -4.585420e+04
   5.526582e+05   9.167042e+05
  -6.017400e+05   1.179787e+06
  -1.779388e+06   3.267809e+05
  -1.691246e+06  -1.027059e+06
  -2.442582e+05  -1.791311e+06
   1.258919e+06  -1.366007e+06
   1.484771e+06  -1.752059e+05
   4.677418e+05   7.410279e+05
  -5.686146e+05   7.143125e+05
  -6.420718e+05   3.246694e+04
   4.472466e+04  -4.672725e+05
   5.660684e+05  -3.236032e+05
   3.615182e+05   1.096781e+05
  -2.581162e+05   1.403985e+05
  -5.048161e+05  -4.264355e+05
   9.790468e+04  -9.961918e+05
   1.192863e+06  -7.604201e+05
   1.795370e+06   4.211450e+05
   1.186854e+06   1.744166e+06
  -2.938163e+05   2.141131e+06
  -1.493891e+06   1.288331e+06
  -1.596505e+06  -8.830852e+04
  -8.960137e+05  -9.348783e+05
  -3.056073e+05  -8.605724e+05
  -2.626962e+05  -3.809470e+05
  -3.632894e+05  -2.346580e+05
  -2.381892e+04  -5.593701e+05
   7.490658e+05  -7.851682e+05
   1.317842e+06  -3.176225e+05
   1.018097e+06   7.105990e+05
  -1.975443e+05   1.415862e+06
  -1.571148e+06   9.738630e+05
  -2.010303e+06  -4.876305e+05
  -9.930082e+05  -1.858618e+06
   8.481959e+05  -2.021717e+06
   2.169555e+06  -8.965289e+05
   2.102259e+06   5.293288e+05
   9.856284e+05   1.207886e+06
  -1.117659e+05   9.943496e+05
  -4.863810e+05   5.890624e+05
  -3.227702e+05   6.342633e+05
  -2.538837e+05   1.002055e+06
  -6.026002e+05   9.974366e+05
  -1.076061e+06   1.908118e+05
  -1.092426e+06  -1.018734e+06
  -3.876771e+05  -1.694228e+06
   6.279625e+05  -1.233526e+06
   1.142181e+06   2.855661e+04
   6.975643e+05   1.094547e+06
  -2.944718e+05   1.197697e+06
  -9.137077e+05   4.350124e+05
  -6.684662e+05  -4.499163e+05
   1.711109e+04  -8.296374e+05
   3.327395e+05  -6.883000e+05
   2.318816e+04  -4.314115e+05
  -3.332308e+05  -3.514254e+05
  -1.447227e+04  -3.548516e+05
   9.574343e+05  -1.577016e+05
   1.711862e+06   3.443402e+05
   1.372647e+06   9.198090e+05
   1.072408e+04   1.177299e+06
  -1.318241e+06   8.970686e+05
  -1.574102e+06   2.426140e+05
  -7.505378e+05  -3.286692e+05
   1.969178e+05  -4.226282e+05
   4.132900e+05  -6.540964e+04
  -3.380001e+04   2.867522e+05
  -4.458054e+05   1.818547e+05
  -3.909575e+05  -3.247582e+05
  -8.605386e+04  -6.753323e+05
   3.447714e+04  -4.312132e+05
  -1.378492e+05   1.484157e+05
  -3.393220e+05   3.315899e+05
  -2.512329e+05  -2.058037e+05
   2.206906e+05  -8.954517e+05
   8.330938e+05  -8.760788e+05
   1.082775e+06  -2.464593e+04
   5.862216e+05   8.450464e+05
  -4.158956e+05   8.860025e+05
  -1.050484e+06   1.408047e+05
  -6.027446e+05  -5.705496e+05
   6.206631e+05  -5.603858e+05
   1.440906e+06   9.812775e+04
   9.848362e+05   7.799300e+05
  -3.712718e+05   9.369707e+05
  -1.372596e+06   4.997676e+05
  -1.173137e+06  -1.487373e+05
  -1.482727e+05  -4.847536e+05
   5.735274e+05  -2.577262e+05
   2.932534e+05   2.443519e+05
  -5.871042e+05   3.842135e+05
  -1.030020e+06  -2.015991e+05
  -4.458484e+05  -1.112547e+06
   7.088308e+05  -1.437694e+06
   1.406192e+06  -6.441849e+05
   1.071266e+06   7.703845e+05
   7.868518e+04   1.624215e+06
  -7.236381e+05   1.167925e+06
  -8.342600e+05  -1.401378e+05
  -3.916621e+05  -1.074105e+06
   1.607432e+05  -9.001746e+05
   4.804793e+05  -8.316660e+04
   4.564290e+05   3.734684e+05
   2.045585e+05   1.524145e+05
   2.276621e+04  -1.036132e+05
   1.412024e+05   2.296351e+05
   3.724852e+05   8.651084e+05
   1.977588e+05   9.861729e+05
  -5.649893e+05   3.337194e+05
  -1.305665e+06  -4.881072e+05
  -1.175589e+06  -8.086417e+05
  -1.405177e+05  -6.159726e+05
   8.455020e+05  -3.238022e+05
   9.107431e+05  -1.388946e+05
   2.652318e+05   2.567272e+04
  -1.657104e+05   1.867591e+05
   3.296145e+04   2.199483e+05
   3.103868e+05   1.420242e+05
   6.697415e+03   1.256302e+05
  -6.861493e+05   1.436898e+05
  -9.197311e+05  -9.006702e+04
  -2.316398e+05  -6.240736e+05
   8.860939e+05  -9.531372e+05
   1.497969e+06  -5.227762e+05
   1.133376e+06   5.037804e+05
   1.365462e+05   1.278148e+06
  -7.361719e+05   1.154671e+06
  -9.601529e+05   3.677751e+05
  -5.802157e+05  -2.857846e+05
  -6.577534e+04  -3.241352e+05
   1.320323e+05  -9.217051e+03
  -4.888532e+04   6.240535e+04
  -2.824269e+05  -3.205764e+05
  -2.055819e+05  -7.314629e+05
   2.120023e+05  -5.770009e+05
   6.125418e+05   1.957959e+05
   5.589218e+05   9.350861e+05
  -3.547481e+04   9.140261e+05
  -7.258662e+05   1.083024e+05
  -8.551028e+05  -7.625219e+05
  -2.014727e+05  -9.832412e+05
   6.828276e+05  -5.090634e+05
   9.540957e+05   1.497695e+05
   3.973658e+05   5.255465e+05
  -2.880499e+05   5.218830e+05
  -2.998079e+05   2.902831e+05
   2.824207e+05   4.687477e+04
   5.958230e+05   1.225271e+04
   9.094740e+04   2.695225e+05
  -7.714682e+05   5.651793e+05
  -1.095004e+06   4.566760e+05
  -6.042448e+05  -1.505361e+05
   1.401901e+05  -7.413948e+05
   4.835652e+05  -7.035167e+05
   3.243211e+05  -7.439200e+04
  -1.287523e+04   4.543912e+05
  -2.490009e+05   3.390016e+05
  -3.077002e+05  -2.064824e+05
  -1.838152e+05  -5.293725e+05
   8.616864e+04  -3.252406e+05
   3.421253e+05   8.654338e+04
   3.868172e+05   2.372531e+05
   2.093843e+05   6.450761e+04
   6.242944e+03  -9.128016e+04
  -7.036113e+04   4.760017e+04
  -8.741037e+04   3.503197e+05
  -1.858396e+05   4.239428e+05
  -3.308013e+05   7.370559e+04
  -3.107341e+05  -4.294640e+05
  -2.778498e+03  -5.928514e+05
   4.090896e+05  -2.280034e+05
   5.364770e+05   3.237330e+05
   1.634480e+05   5.464645e+05
  -4.551651e+05   2.868913e+05
  -7.462674e+05  -1.433678e+05
  -3.868558e+05  -3.645641e+05
   2.840538e+05  -2.966218e+05
   5.656610e+05  -1.142661e+05
   1.799936e+05   7.067573e+03
  -3.721309e+05  -4.213305e+03
  -3.820682e+05  -1.422408e+05
   2.160012e+05  -2.857294e+05
   7.575429e+05  -1.954234e+05
