
 $NMID
 id='ANONYMOUS ', fmtdat='(2E16.6)'
 volume=1.0
 tramp=1.0
 $END
  -3.240373e+07  -2.081326e+06
  -1.910632e+07  -1.863805e+07
   3.500279e+06  -2.069528e+07
   1.514888e+07  -1.009390e+07
   1.017274e+07   1.636379e+06
  -8.056711e+05   5.365713e+06
  -5.919588e+06   9.444249e+05
  -3.038566e+06  -5.321800e+06
   2.615812e+06  -6.972245e+06
   5.766224e+06  -2.369938e+06
   4.518261e+06   4.105882e+06
   3.710745e+05   5.991872e+06
  -2.874106e+06   1.401315e+06
  -2.009833e+06  -4.542551e+06
   2.101574e+06  -5.191059e+06
   4.914847e+06   2.479041e+05
   3.035290e+06   6.242062e+06
  -2.149161e+06   7.339295e+06
  -6.231394e+06   3.310564e+06
  -6.254180e+06  -1.951872e+06
  -2.948477e+06  -4.761081e+06
   4.697281e+05  -4.307019e+06
   1.165672e+06  -2.457593e+06
  -7.436153e+05  -1.769958e+06
  -2.009116e+06  -2.998533e+06
   3.692150e+05  -4.180893e+06
   5.133531e+06  -2.860992e+06
   7.440668e+06   7.091220e+05
   4.434180e+06   3.563119e+06
  -1.069097e+06   3.404071e+06
  -3.753795e+06   9.465682e+05
  -1.787674e+06  -1.365760e+06
   1.838411e+06  -1.801201e+06
   3.366142e+06  -1.574089e+05
   1.982810e+06   2.427412e+06
  -4.645260e+05   3.758362e+06
  -1.855220e+06   2.153856e+06
  -1.394153e+06  -1.126568e+06
   6.620127e+04  -2.392718e+06
   7.317622e+05  -5.821506e+03
  -3.716654e+05   2.858996e+06
  -1.988298e+06   2.031495e+06
  -1.766411e+06  -1.788671e+06
   7.700563e+05  -3.574059e+06
   3.158493e+06  -6.227814e+05
   2.572584e+06   3.814257e+06
  -9.675318e+05   4.714527e+06
  -4.495424e+06   1.258900e+06
  -4.947915e+06  -2.916328e+06
  -1.858864e+06  -4.248967e+06
   2.312629e+06  -2.388646e+06
   4.190983e+06   5.440739e+05
   2.365956e+06   2.208709e+06
  -1.185840e+06   1.612070e+06
  -2.925777e+06  -3.260545e+05
  -1.459663e+06  -1.540914e+06
   1.015110e+06  -8.762550e+05
   1.485591e+06   6.141015e+05
  -2.335731e+05   1.000426e+06
  -1.550794e+06  -1.197466e+05
  -5.165433e+05  -1.318645e+06
   1.888380e+06  -1.222818e+06
   3.076042e+06   2.086358e+05
   1.635406e+06   2.149284e+06
  -1.534010e+06   3.550990e+06
  -4.223397e+06   3.252156e+06
  -4.662895e+06   7.230653e+05
  -2.792758e+06  -2.727613e+06
  -2.707604e+05  -4.549550e+06
   1.033432e+06  -3.614487e+06
   8.329625e+05  -1.580742e+06
   4.839521e+05  -7.441002e+05
   1.143274e+06  -1.148833e+06
   2.330395e+06  -9.294771e+05
   2.629588e+06   7.721942e+05
   1.405165e+06   2.477194e+06
  -5.829346e+05   2.248890e+06
  -1.944569e+06   5.667641e+04
  -1.665955e+06  -2.210992e+06
   2.326203e+05  -2.656967e+06
   2.471247e+06  -9.804635e+05
   3.237953e+06   1.468635e+06
   1.851576e+06   2.917480e+06
  -3.590854e+05   2.649995e+06
  -1.469453e+06   1.492476e+06
  -1.229589e+06   7.642275e+05
  -1.186871e+06   7.801647e+05
  -2.365761e+06   6.482525e+05
  -3.630484e+06  -4.699879e+05
  -2.988944e+06  -2.270947e+06
  -1.457546e+05  -3.575834e+06
   2.907576e+06  -3.377968e+06
   3.858271e+06  -1.599571e+06
   2.271977e+06   7.574268e+05
  -1.595474e+05   2.113671e+06
  -1.295886e+06   1.537210e+06
  -4.658275e+05  -1.725676e+05
   1.082581e+06  -1.084429e+06
   1.583115e+06  -2.777204e+05
   6.096679e+05   1.015206e+06
  -5.850700e+05   9.983707e+05
  -6.000481e+05  -2.792443e+05
   5.399135e+05  -9.328324e+05
   1.529363e+06   3.026569e+05
   1.218569e+06   2.409375e+06
  -3.893896e+05   3.243472e+06
  -2.306402e+06   1.866409e+06
  -3.288390e+06  -6.635653e+05
  -2.589428e+06  -2.492051e+06
  -5.960754e+05  -2.577443e+06
   1.212349e+06  -1.338817e+06
   1.484856e+06  -1.173142e+05
   4.382982e+05   4.442071e+04
  -3.230095e+05  -6.573525e+05
   2.905225e+05  -1.080226e+06
   1.510702e+06  -4.754487e+05
   1.694208e+06   6.358920e+05
   4.099840e+05   1.117150e+06
  -9.868438e+05   5.511245e+05
  -9.211975e+05  -3.713699e+05
   6.299581e+05  -6.762938e+05
   2.096805e+06  -1.341530e+04
   1.895126e+06   1.164075e+06
  -2.125251e+04   1.966775e+06
  -2.070925e+06   1.655995e+06
  -2.498242e+06   2.988807e+05
  -1.050961e+06  -1.045339e+06
   7.706363e+05  -1.189430e+06
   1.229721e+06  -1.144478e+05
   8.194662e+04   8.815821e+05
  -1.316793e+06   6.144559e+05
  -1.528970e+06  -6.191658e+05
  -4.374796e+05  -1.434865e+06
   8.364071e+05  -9.986619e+05
   1.141216e+06   9.684216e+04
   3.428510e+05   6.216645e+05
  -6.175402e+05   6.672199e+04
  -6.101207e+05  -9.152722e+05
   5.565941e+05  -1.238235e+06
   1.802726e+06  -4.227794e+05
   1.777545e+06   9.691111e+05
   3.294242e+05   1.818801e+06
  -1.227944e+06   1.446519e+06
  -1.504440e+06   2.374060e+05
  -5.012273e+05  -7.349420e+05
   5.496970e+05  -7.485004e+05
   6.470886e+05  -6.782606e+04
  -2.022882e+04   4.610254e+05
  -5.403975e+05   3.508944e+05
  -3.542292e+05  -7.380835e+04
   2.528415e+05  -1.267894e+05
   5.150086e+05   4.214741e+05
  -6.698819e+04   1.013637e+06
  -1.182215e+06   8.238591e+05
  -1.848061e+06  -3.485230e+05
  -1.290612e+06  -1.724629e+06
   1.983172e+05  -2.192470e+06
   1.453523e+06  -1.371605e+06
   1.613198e+06   1.751325e+04
   9.453108e+05   8.890567e+05
   3.624512e+05   8.332310e+05
   3.089418e+05   3.688691e+05
   3.928708e+05   2.381518e+05
   4.591013e+04   5.795465e+05
  -7.284282e+05   8.275913e+05
  -1.317129e+06   3.792992e+05
  -1.060063e+06  -6.637035e+05
   1.328354e+05  -1.431964e+06
   1.545981e+06  -1.056970e+06
   2.063119e+06   4.016670e+05
   1.088591e+06   1.844881e+06
  -7.833350e+05   2.092208e+06
  -2.172434e+06   9.987387e+05
  -2.151022e+06  -4.515313e+05
  -1.040802e+06  -1.173255e+06
   6.716654e+04  -9.955608e+05
   4.469262e+05  -6.156819e+05
   2.802500e+05  -6.769198e+05
   2.109346e+05  -1.052119e+06
   5.778908e+05  -1.051254e+06
   1.096279e+06  -2.430792e+05
   1.164590e+06   9.880191e+05
   4.762324e+05   1.708775e+06
  -5.807123e+05   1.287575e+06
  -1.162405e+06   2.230756e+04
  -7.542169e+05  -1.086537e+06
   2.548952e+05  -1.228481e+06
   9.144115e+05  -4.664490e+05
   6.914691e+05   4.460522e+05
   2.141468e+03   8.478368e+05
  -3.212278e+05   7.043755e+05
  -5.987289e+03   4.300328e+05
   3.608771e+05   3.404196e+05
   3.439307e+04   3.601186e+05
  -9.716247e+05   1.997942e+05
  -1.765342e+06  -2.786537e+05
  -1.438144e+06  -8.784292e+05
  -5.159399e+04  -1.200460e+06
   1.314926e+06  -9.715685e+05
   1.592168e+06  -3.104844e+05
   7.680174e+05   3.107638e+05
  -1.899299e+05   4.423728e+05
  -4.178062e+05   7.839856e+04
   2.213338e+04  -3.034335e+05
   4.425851e+05  -2.105991e+05
   4.147906e+05   3.131821e+05
   1.306143e+05   6.870089e+05
  -5.527645e+03   4.460469e+05
   1.276382e+05  -1.516566e+05
   3.169828e+05  -3.508306e+05
   2.633807e+05   1.966990e+05
  -1.748593e+05   9.219315e+05
  -8.084264e+05   9.338436e+05
  -1.117356e+06   7.610529e+04
  -6.489452e+05  -8.398751e+05
   3.874600e+05  -9.314090e+05
   1.075862e+06  -1.982352e+05
   6.442950e+05   5.505124e+05
  -6.069810e+05   5.961519e+05
  -1.463922e+06  -3.494588e+04
  -1.024821e+06  -7.418943e+05
   3.381290e+05  -9.570385e+05
   1.362437e+06  -5.614813e+05
   1.188078e+06   9.754318e+04
   1.702920e+05   4.810522e+05
  -5.702584e+05   2.841417e+05
  -3.116841e+05  -2.402572e+05
   5.782312e+05  -4.272072e+05
   1.064616e+06   1.495238e+05
   5.185704e+05   1.113935e+06
  -6.452988e+05   1.508620e+06
  -1.400528e+06   7.330822e+05
  -1.130556e+06  -7.297348e+05
  -1.608990e+05  -1.648347e+06
   6.769371e+05  -1.218570e+06
   8.501869e+05   1.073572e+05
   4.435225e+05   1.071157e+06
  -1.253065e+05   9.143607e+05
  -4.853184e+05   1.030310e+05
  -4.776987e+05  -3.528877e+05
  -2.105009e+05  -1.390540e+05
  -1.953721e+04   1.028154e+05
  -1.614612e+05  -2.375766e+05
  -4.231228e+05  -8.669999e+05
  -2.416017e+05  -9.877671e+05
   5.672987e+05  -3.595365e+05
   1.351217e+06   4.328157e+05
   1.227856e+06   7.614691e+05
   1.708409e+05   6.210248e+05
  -8.387217e+05   3.753594e+05
  -9.161370e+05   1.844738e+05
  -2.742210e+05  -2.078116e+04
   1.576594e+05  -2.004225e+05
  -3.878816e+04  -2.132220e+05
  -3.176242e+05  -1.195100e+05
  -1.684719e+04  -1.291704e+05
   6.847319e+05  -1.889128e+05
   9.440650e+05   4.471536e+04
   2.780756e+05   6.335362e+05
  -8.511901e+05   1.024533e+06
  -1.510006e+06   6.087198e+05
  -1.192747e+06  -4.592443e+05
  -2.062221e+05  -1.295997e+06
   6.970577e+05  -1.214071e+06
   9.638110e+05  -4.278128e+05
   6.071306e+05   2.569901e+05
   8.674827e+04   3.294733e+05
  -1.298811e+05   2.544695e+04
   4.587308e+04  -5.867847e+04
   2.981868e+05   3.128048e+05
   2.422450e+05   7.333116e+05
  -1.870637e+05   6.015067e+05
  -6.359676e+05  -1.626303e+05
  -6.242421e+05  -9.230354e+05
  -1.747161e+04  -9.398582e+05
   7.343923e+05  -1.571067e+05
   9.163521e+05   7.291469e+05
   2.590721e+05   9.957509e+05
  -6.729624e+05   5.594287e+05
  -9.852281e+05  -1.053293e+05
  -4.324352e+05  -5.241323e+05
   2.725624e+05  -5.532686e+05
   2.988395e+05  -3.086467e+05
  -2.845022e+05  -2.662957e+04
  -6.065899e+05   1.949794e+04
  -1.077046e+05  -2.730458e+05
   7.576609e+05  -6.132292e+05
   1.096259e+06  -5.104223e+05
   6.269977e+05   1.336334e+05
  -1.073010e+05   7.658800e+05
  -4.661111e+05   7.400838e+05
  -3.372281e+05   9.276372e+04
  -1.511137e+04  -4.630796e+05
   2.379064e+05  -3.626642e+05
   3.273796e+05   1.884195e+05
   2.148988e+05   5.307955e+05
  -7.349707e+04   3.428222e+05
  -3.550993e+05  -6.852036e+04
  -4.056215e+05  -2.285713e+05
  -2.141842e+05  -5.945952e+04
  -1.599606e+03   1.005116e+05
   6.301510e+04  -4.135372e+04
   6.001801e+04  -3.627922e+05
   1.598068e+05  -4.564401e+05
   3.366647e+05  -1.060577e+05
   3.516196e+05   4.197829e+05
   4.471270e+04   6.102236e+05
  -4.042389e+05   2.581679e+05
  -5.701478e+05  -3.014329e+05
  -1.990132e+05  -5.482794e+05
   4.522067e+05  -3.150505e+05
   7.737232e+05   1.081885e+05
   4.147266e+05   3.533610e+05
  -2.778024e+05   3.215969e+05
  -5.764973e+05   1.497491e+05
  -1.896309e+05  -3.531020e+02
   3.756894e+05  -2.404785e+04
   3.983101e+05   1.168494e+05
  -1.973545e+05   3.013550e+05
  -7.530066e+05   2.433483e+05
