
 $NMID
 id='ANONYMOUS ', fmtdat='(2E16.6)'
 volume=1.0
 tramp=1.0
 $END
   2.631900e+03  -3.038842e+01
   1.848915e+03   1.221871e+03
   2.043813e+02   1.687686e+03
  -9.120895e+02   1.217837e+03
  -8.658222e+02   3.760952e+02
  -1.935284e+02  -1.166367e+02
   2.265922e+02  -2.166369e+00
   8.363639e+01   3.783863e+02
  -3.047904e+02   4.895724e+02
  -5.155259e+02   1.350254e+02
  -3.971548e+02  -3.700794e+02
  -7.472986e+01  -5.334635e+02
   1.978657e+02  -1.960328e+02
   2.045646e+02   2.964002e+02
  -5.510445e+01   4.438697e+02
  -3.176455e+02   1.019957e+02
  -2.836762e+02  -3.858673e+02
   5.767315e+01  -5.582882e+02
   3.919696e+02  -2.946538e+02
   4.122110e+02   1.129807e+02
   1.494833e+02   3.060653e+02
  -7.846626e+01   2.205156e+02
  -3.530021e+01   8.860643e+01
   1.695314e+02   1.244746e+02
   2.142340e+02   2.725726e+02
  -5.274542e+01   2.993250e+02
  -4.098687e+02   9.671625e+01
  -4.831743e+02  -1.765178e+02
  -1.617445e+02  -2.743122e+02
   2.611360e+02  -1.254230e+02
   3.915845e+02   1.258777e+02
   1.405081e+02   2.904797e+02
  -2.201810e+02   2.774923e+02
  -3.753924e+02   1.056034e+02
  -2.685854e+02  -1.211944e+02
  -8.434964e+01  -2.400608e+02
  -1.102660e+01  -1.471945e+02
  -7.243492e+01   4.859180e+01
  -1.530169e+02   8.506615e+01
  -1.280448e+02  -1.415526e+02
   2.436865e+01  -3.910489e+02
   1.959660e+02  -3.399296e+02
   2.326942e+02  -8.813615e+00
   8.783805e+01   2.249551e+02
  -9.887414e+01   9.258791e+01
  -1.147501e+02  -2.214193e+02
   1.019397e+02  -3.097731e+02
   3.664852e+02  -3.974320e+01
   4.085849e+02   3.140902e+02
   1.404720e+02   4.168929e+02
  -2.421227e+02   2.243581e+02
  -4.335498e+02  -4.681048e+01
  -2.983241e+02  -1.910669e+02
   1.325624e+01  -1.754479e+02
   2.221764e+02  -8.587691e+01
   1.910393e+02  -1.182842e+01
   3.613072e+01   6.527702e+00
  -2.691386e+01  -1.726231e+01
   6.942969e+01  -2.739879e+01
   1.762723e+02   3.108224e+01
   1.108237e+02   1.456504e+02
  -1.195060e+02   2.169391e+02
  -3.053467e+02   1.374789e+02
  -2.511085e+02  -8.769629e+01
   1.741326e+01  -3.061393e+02
   2.769562e+02  -3.339448e+02
   3.317976e+02  -1.307187e+02
   1.949820e+02   1.486357e+02
   3.854115e+01   3.000484e+02
  -1.218989e+01   2.669539e+02
   2.579197e+00   1.661814e+02
  -3.262119e+01   1.195734e+02
  -1.433946e+02   1.082055e+02
  -2.331122e+02   3.127209e+01
  -2.035992e+02  -1.217301e+02
  -6.378523e+01  -2.238663e+02
   8.935712e+01  -1.546922e+02
   1.592148e+02   4.839962e+01
   1.039583e+02   2.155427e+02
  -5.100465e+01   2.089272e+02
  -2.120679e+02   4.200321e+01
  -2.583747e+02  -1.529858e+02
  -1.448142e+02  -2.504049e+02
   3.369049e+01  -2.247548e+02
   1.331680e+02  -1.441887e+02
   1.295863e+02  -8.804284e+01
   1.427133e+02  -6.836878e+01
   2.562298e+02  -2.646240e+01
   3.655291e+02   9.348616e+01
   2.798203e+02   2.664477e+02
  -2.760384e+01   3.852253e+02
  -3.425152e+02   3.457726e+02
  -4.207446e+02   1.466052e+02
  -2.409751e+02  -9.051370e+01
  -8.428772e+00  -2.109967e+02
   7.370185e+01  -1.606243e+02
  -6.535514e+00  -3.498019e+01
  -1.051426e+02   1.903550e+01
  -9.844482e+01  -4.078512e+01
   3.012592e+00  -1.114231e+02
   9.192787e+01  -7.577853e+01
   7.928617e+01   4.405724e+01
  -2.766706e+01   1.001957e+02
  -1.337560e+02  -8.048788e+00
  -1.304600e+02  -2.039573e+02
   1.476096e+01  -3.000583e+02
   2.166969e+02  -1.878942e+02
   3.247126e+02   5.414112e+01
   2.475071e+02   2.392982e+02
   4.456234e+01   2.466119e+02
  -1.186459e+02   1.187543e+02
  -1.266308e+02   8.589811e-01
  -2.469480e+01  -7.715763e+00
   4.017061e+01   6.051509e+01
  -1.255141e+01   9.767212e+01
  -1.101261e+02   4.958542e+01
  -1.212460e+02  -2.817521e+01
  -2.016938e+01  -4.421572e+01
   7.368291e+01   1.942402e+01
   2.940305e+01   8.867517e+01
  -1.395654e+02   7.830842e+01
  -2.737833e+02  -2.619971e+01
  -2.262798e+02  -1.608947e+02
  -1.461498e+01  -2.359847e+02
   1.916579e+02  -1.991882e+02
   2.340940e+02  -7.611947e+01
   1.124562e+02   3.957525e+01
  -2.847846e+01   6.019061e+01
  -4.934122e+01  -8.428952e+00
   5.345048e+01  -6.485859e+01
   1.607830e+02  -2.101759e+01
   1.583690e+02   9.320082e+01
   4.476182e+01   1.604450e+02
  -7.729334e+01   1.128515e+02
  -1.050117e+02   1.068357e+01
  -3.332452e+01  -3.082880e+01
   4.215400e+01   2.632177e+01
   2.101586e+01   1.061070e+02
  -9.472056e+01   1.066765e+02
  -1.919567e+02   5.358805e+00
  -1.583334e+02  -1.241020e+02
  -5.048220e+00  -1.822141e+02
   1.363954e+02  -1.282634e+02
   1.482808e+02  -1.042976e+01
   4.525051e+01   7.768896e+01
  -5.322139e+01   7.860464e+01
  -5.770084e+01   1.962857e+01
   4.632898e+00  -2.163218e+01
   3.810305e+01  -4.624183e+00
  -7.683872e+00   2.849015e+01
  -8.469441e+01   4.866407e+00
  -9.914726e+01  -8.520804e+01
  -8.021848e+00  -1.625914e+02
   1.332264e+02  -1.366387e+02
   2.141977e+02  -2.842179e+00
   1.671719e+02   1.449985e+02
   3.027006e+01   2.001545e+02
  -8.801083e+01   1.377328e+02
  -1.123458e+02   2.824291e+01
  -6.634782e+01  -3.552644e+01
  -3.171842e+01  -2.356515e+01
  -5.028503e+01   1.347257e+01
  -8.078550e+01   6.325618e+00
  -5.500546e+01  -5.383310e+01
   3.509692e+01  -1.009057e+02
   1.165158e+02  -6.461011e+01
   1.026989e+02   4.307437e+01
  -1.728536e+01   1.226098e+02
  -1.540154e+02   8.140960e+01
  -1.864606e+02  -6.464192e+01
  -6.933264e+01  -1.944485e+02
   1.187337e+02  -1.944459e+02
   2.386360e+02  -6.596915e+01
   2.119313e+02   8.308123e+01
   8.294046e+01   1.477751e+02
  -3.661056e+01   1.188287e+02
  -7.660781e+01   6.905056e+01
  -5.863560e+01   6.199429e+01
  -4.912139e+01   8.522452e+01
  -7.986320e+01   7.265135e+01
  -1.183521e+02  -1.501631e+01
  -1.063241e+02  -1.369041e+02
  -2.199993e+01  -2.003226e+02
   9.012957e+01  -1.455954e+02
   1.491872e+02  -6.393343e+00
   1.082633e+02   1.151071e+02
   4.261641e+00   1.374013e+02
  -6.992773e+01   6.737984e+01
  -5.640771e+01  -1.792750e+01
   6.607609e+00  -5.131646e+01
   2.931495e+01  -3.223300e+01
  -2.147455e+01  -8.431956e+00
  -7.708178e+01  -1.432389e+01
  -4.636458e+01  -3.655684e+01
   6.850679e+01  -3.643487e+01
   1.600134e+02   3.960819e+00
   1.286275e+02   6.106608e+01
  -6.295961e+00   9.014411e+01
  -1.246220e+02   6.466574e+01
  -1.294897e+02   1.674460e+00
  -3.771964e+01  -4.797547e+01
   5.347084e+01  -4.117363e+01
   7.036832e+01   1.583378e+01
   2.073992e+01   6.770519e+01
  -3.787688e+01   6.173065e+01
  -6.309521e+01   3.786276e+00
  -5.626827e+01  -4.557465e+01
  -4.436784e+01  -3.925549e+01
  -4.730015e+01  -1.313119e+00
  -5.742002e+01  -1.094149e+00
  -4.274583e+01  -6.645594e+01
   2.199413e+01  -1.388631e+02
   1.152136e+02  -1.316500e+02
   1.666691e+02  -2.975415e+01
   1.190821e+02   8.592749e+01
   2.535429e-01   1.210910e+02
  -8.505654e+01   6.449148e+01
  -5.649806e+01  -7.978212e+00
   5.132043e+01  -1.866147e+01
   1.175755e+02   3.600817e+01
   6.069307e+01   9.386919e+01
  -7.527637e+01   9.544507e+01
  -1.667575e+02   3.603545e+01
  -1.362983e+02  -3.875044e+01
  -2.464144e+01  -7.477515e+01
   5.798355e+01  -5.081556e+01
   4.276189e+01   4.066139e+00
  -3.624255e+01   2.913460e+01
  -8.340456e+01  -1.590330e+01
  -3.861674e+01  -1.016332e+02
   6.514173e+01  -1.398578e+02
   1.362750e+02  -6.686180e+01
   1.130450e+02   7.684302e+01
   1.788057e+01   1.684858e+02
  -7.068826e+01   1.236048e+02
  -9.171884e+01  -1.150198e+01
  -4.691294e+01  -1.070816e+02
   1.532623e+01  -8.948148e+01
   4.757648e+01  -1.103404e+01
   3.793295e+01   2.872963e+01
   1.184905e+01   5.892398e+00
   5.800471e+00  -1.444120e+01
   3.017372e+01   2.105408e+01
   5.216830e+01   8.013956e+01
   2.540859e+01   9.114503e+01
  -5.239009e+01   3.650888e+01
  -1.194224e+02  -3.150849e+01
  -1.064768e+02  -6.011099e+01
  -1.670619e+01  -4.828137e+01
   6.864072e+01  -2.480063e+01
   7.575243e+01  -4.814402e+00
   1.760266e+01   1.179425e+01
  -2.887846e+01   1.894698e+01
  -1.885227e+01   9.443890e+00
   1.091900e+01  -4.582608e+00
  -1.681731e+00  -3.644592e+00
  -5.644689e+01   3.397192e+00
  -8.322300e+01  -1.760487e+01
  -2.462998e+01  -7.224082e+01
   9.018745e+01  -1.076246e+02
   1.673011e+02  -6.386273e+01
   1.403577e+02   4.733366e+01
   3.291114e+01   1.400535e+02
  -7.017886e+01   1.404048e+02
  -1.038675e+02   6.210278e+01
  -7.175021e+01  -1.519222e+01
  -2.440426e+01  -3.437086e+01
  -4.098475e+00  -1.324442e+01
  -1.354622e+01  -8.993318e+00
  -2.620674e+01  -4.443973e+01
  -1.494283e+01  -8.092018e+01
   2.522367e+01  -6.406496e+01
   6.884567e+01   1.099166e+01
   7.343836e+01   8.673922e+01
   1.767002e+01   9.726620e+01
  -6.346254e+01   3.265964e+01
  -9.585798e+01  -5.232065e+01
  -3.998760e+01  -9.083237e+01
   5.507889e+01  -6.121400e+01
   9.454427e+01   3.908465e+00
   4.353459e+01   5.359953e+01
  -3.036350e+01   5.861465e+01
  -3.836419e+01   2.666077e+01
   2.046622e+01  -7.715946e+00
   6.018615e+01  -9.730878e+00
   1.784322e+01   2.476504e+01
  -6.843915e+01   5.902334e+01
  -1.084036e+02   4.675358e+01
  -6.589691e+01  -1.599220e+01
   1.007060e+01  -7.646702e+01
   5.215869e+01  -7.581694e+01
   4.270333e+01  -1.440944e+01
   9.298723e+00   4.510687e+01
  -1.958814e+01   4.509980e+01
  -3.315204e+01  -5.771224e+00
  -2.690996e+01  -4.724411e+01
  -5.670170e-01  -3.778605e+01
   2.985801e+01   2.688229e+00
   3.837060e+01   2.344681e+01
   1.857913e+01   5.327302e+00
  -4.719876e+00  -1.964184e+01
  -5.769992e+00  -1.132733e+01
   7.603229e+00   2.679870e+01
   4.886952e+00   4.977259e+01
  -2.196235e+01   2.486801e+01
  -4.072738e+01  -2.706318e+01
  -1.758177e+01  -5.267268e+01
   3.390732e+01  -2.544720e+01
   5.851996e+01   2.618594e+01
   2.033752e+01   5.236510e+01
  -5.065768e+01   3.370621e+01
  -8.469925e+01  -7.176153e+00
  -4.661478e+01  -3.728768e+01
   2.463406e+01  -4.266863e+01
   5.789658e+01  -2.852991e+01
   2.728659e+01  -7.328538e+00
  -2.221808e+01   5.565224e+00
  -2.858757e+01  -1.793592e+00
   1.742846e+01  -2.104743e+01
   6.469937e+01  -2.076777e+01
