
 $NMID
 id='ANONYMOUS ', fmtdat='(2E16.6)'
 volume=1.0
 tramp=1.0
 $END
  -2.737345e+03  -9.601808e+00
  -1.947584e+03  -1.207178e+03
  -3.240508e+02  -1.724056e+03
   8.492385e+02  -1.375073e+03
   9.228114e+02  -5.613363e+02
   3.127597e+02   3.802717e+01
  -1.519426e+02   3.669488e+01
  -8.330451e+01  -3.315741e+02
   2.816052e+02  -4.955121e+02
   5.151554e+02  -1.702214e+02
   4.243485e+02   3.508854e+02
   1.161499e+02   5.412963e+02
  -1.606344e+02   2.163116e+02
  -1.930012e+02  -2.832120e+02
   4.205435e+01  -4.517042e+02
   3.145504e+02  -1.205023e+02
   3.122549e+02   3.928466e+02
  -2.896912e+01   6.085814e+02
  -4.062825e+02   3.536541e+02
  -4.588894e+02  -9.206081e+01
  -1.827974e+02  -3.212725e+02
   6.701267e+01  -2.369523e+02
   1.330577e+01  -1.026877e+02
  -2.066845e+02  -1.643065e+02
  -2.236954e+02  -3.332281e+02
   9.503003e+01  -3.293157e+02
   4.657278e+02  -6.859844e+01
   5.008479e+02   2.221372e+02
   1.385331e+02   2.816398e+02
  -2.891245e+02   9.116967e+01
  -3.985658e+02  -1.639568e+02
  -1.259168e+02  -3.085200e+02
   2.467147e+02  -2.799307e+02
   4.002803e+02  -1.016300e+02
   2.796717e+02   1.261253e+02
   8.949264e+01   2.383164e+02
   3.570421e+01   1.397141e+02
   1.193931e+02  -4.224844e+01
   1.831749e+02  -5.024751e+01
   1.080315e+02   1.863994e+02
  -7.088577e+01   4.122044e+02
  -2.157459e+02   3.316720e+02
  -2.128424e+02  -1.957015e+00
  -6.537401e+01  -2.158586e+02
   9.398007e+01  -6.780573e+01
   9.127059e+01   2.452114e+02
  -1.261122e+02   3.194672e+02
  -3.911410e+02   2.736526e+01
  -4.340372e+02  -3.456386e+02
  -1.511422e+02  -4.470800e+02
   2.572431e+02  -2.328097e+02
   4.615260e+02   5.363398e+01
   3.196570e+02   1.906027e+02
  -2.546174e+00   1.673092e+02
  -2.192757e+02   9.361295e+01
  -2.002507e+02   3.993955e+01
  -5.714382e+01   1.207106e+01
   9.756475e+00   5.796447e+00
  -7.157906e+01   6.598346e+00
  -1.743853e+02  -3.475945e+01
  -1.156906e+02  -1.440666e+02
   1.234563e+02  -2.361418e+02
   3.368280e+02  -1.643852e+02
   2.906525e+02   9.510296e+01
  -1.315422e+01   3.554465e+02
  -3.167055e+02   3.813691e+02
  -3.755079e+02   1.377067e+02
  -2.083549e+02  -1.715186e+02
  -3.466421e+01  -3.213239e+02
   3.033469e+00  -2.811040e+02
  -2.239125e+01  -1.891925e+02
   3.179560e+01  -1.523647e+02
   1.731905e+02  -1.295633e+02
   2.713016e+02  -2.523610e+01
   2.229015e+02   1.479276e+02
   5.876365e+01   2.493741e+02
  -1.060799e+02   1.619579e+02
  -1.728985e+02  -6.404950e+01
  -1.050353e+02  -2.424707e+02
   6.490543e+01  -2.258754e+02
   2.343634e+02  -3.663040e+01
   2.778667e+02   1.728203e+02
   1.551515e+02   2.694467e+02
  -3.111103e+01   2.398718e+02
  -1.357344e+02   1.625244e+02
  -1.392643e+02   1.100679e+02
  -1.647078e+02   8.411455e+01
  -2.930158e+02   2.738645e+01
  -4.093111e+02  -1.090782e+02
  -3.094427e+02  -2.980231e+02
   3.417134e+01  -4.277021e+02
   3.840422e+02  -3.823604e+02
   4.663714e+02  -1.581656e+02
   2.593960e+02   1.038115e+02
   1.472191e+00   2.284657e+02
  -7.816628e+01   1.669425e+02
   1.952124e+01   3.654828e+01
   1.211846e+02  -1.015905e+01
   9.949078e+01   5.381574e+01
  -1.314799e+01   1.163515e+02
  -9.760628e+01   7.035321e+01
  -7.559623e+01  -5.087582e+01
   3.558061e+01  -1.010601e+02
   1.442399e+02   1.605671e+01
   1.421726e+02   2.243930e+02
  -1.432177e+01   3.309814e+02
  -2.412332e+02   2.120576e+02
  -3.658200e+02  -5.766177e+01
  -2.766883e+02  -2.693119e+02
  -4.458904e+01  -2.773917e+02
   1.352511e+02  -1.293088e+02
   1.366706e+02   2.889163e+00
   2.232938e+01   6.606675e+00
  -4.258590e+01  -7.201528e+01
   2.020533e+01  -1.081378e+02
   1.238979e+02  -4.932731e+01
   1.297312e+02   3.530158e+01
   1.677715e+01   4.739358e+01
  -8.375084e+01  -2.646410e+01
  -3.091255e+01  -1.028660e+02
   1.593038e+02  -8.878325e+01
   3.088445e+02   3.138346e+01
   2.521695e+02   1.841265e+02
   1.127058e+01   2.652593e+02
  -2.181697e+02   2.178917e+02
  -2.587268e+02   7.864779e+01
  -1.187600e+02  -4.455833e+01
   3.422645e+01  -6.151210e+01
   5.071619e+01   1.311534e+01
  -6.409001e+01   6.935664e+01
  -1.779328e+02   1.818004e+01
  -1.713358e+02  -1.049714e+02
  -4.628614e+01  -1.751286e+02
   8.588277e+01  -1.209183e+02
   1.137532e+02  -8.686256e+00
   3.229364e+01   3.456600e+01
  -5.082776e+01  -3.278579e+01
  -2.314177e+01  -1.233010e+02
   1.094975e+02  -1.210859e+02
   2.166437e+02  -3.936247e+00
   1.749694e+02   1.403654e+02
   3.256760e+00   2.012632e+02
  -1.505648e+02   1.395213e+02
  -1.607085e+02   1.143545e+01
  -4.729586e+01  -8.307641e+01
   5.897642e+01  -8.392037e+01
   6.186959e+01  -1.996977e+01
  -8.403866e+00   2.475213e+01
  -4.574114e+01   4.235428e+00
   7.388968e+00  -3.487549e+01
   9.687071e+01  -8.437261e+00
   1.140729e+02   9.549411e+01
   9.385168e+00   1.842998e+02
  -1.510013e+02   1.532558e+02
  -2.399812e+02   7.671357e-01
  -1.846976e+02  -1.632015e+02
  -3.240060e+01  -2.210239e+02
   9.680110e+01  -1.507239e+02
   1.232702e+02  -3.178459e+01
   7.367704e+01   3.706566e+01
   3.586321e+01   2.457095e+01
   5.616562e+01  -1.559518e+01
   9.124334e+01  -7.717484e+00
   6.436427e+01   6.040466e+01
  -3.743332e+01   1.155762e+02
  -1.325753e+02   7.552015e+01
  -1.188107e+02  -4.826855e+01
   1.871869e+01  -1.402996e+02
   1.751292e+02  -9.279433e+01
   2.099752e+02   7.399813e+01
   7.504624e+01   2.192894e+02
  -1.357533e+02   2.160866e+02
  -2.662070e+02   7.078677e+01
  -2.333593e+02  -9.378070e+01
  -8.975784e+01  -1.633027e+02
   4.135565e+01  -1.303515e+02
   8.412494e+01  -7.564265e+01
   6.322279e+01  -6.849649e+01
   5.268041e+01  -9.502130e+01
   8.798791e+01  -8.182662e+01
   1.320416e+02   1.557862e+01
   1.187104e+02   1.518881e+02
   2.413585e+01   2.227124e+02
  -1.006127e+02   1.609505e+02
  -1.652904e+02   5.258937e+00
  -1.188633e+02  -1.293574e+02
  -2.838776e+00  -1.525814e+02
   7.977170e+01  -7.322864e+01
   6.398325e+01   2.248825e+01
  -8.310152e+00   5.955077e+01
  -3.547035e+01   3.698955e+01
   2.194005e+01   8.621570e+00
   8.646502e+01   1.458915e+01
   5.272830e+01   4.064735e+01
  -7.771446e+01   4.171207e+01
  -1.811550e+02  -4.211765e+00
  -1.440019e+02  -6.990385e+01
   9.318510e+00  -1.028213e+02
   1.410946e+02  -7.272780e+01
   1.444733e+02  -5.896078e-01
   4.172502e+01   5.523753e+01
  -5.902498e+01   4.706061e+01
  -7.865653e+01  -1.718187e+01
  -2.556975e+01  -7.566920e+01
   3.979839e+01  -6.974066e+01
   7.091937e+01  -5.473524e+00
   6.524965e+01   4.997917e+01
   5.035905e+01   4.360966e+01
   5.148077e+01   1.561687e+00
   6.366067e+01   1.234330e+00
   4.965299e+01   7.425727e+01
  -2.268822e+01   1.555543e+02
  -1.293409e+02   1.480662e+02
  -1.883635e+02   3.436203e+01
  -1.342387e+02  -9.563768e+01
  -7.967281e-02  -1.362347e+02
   9.531720e+01  -7.372745e+01
   6.309297e+01   7.819129e+00
  -5.681037e+01   2.092650e+01
  -1.300058e+02  -3.961193e+01
  -6.659126e+01  -1.043214e+02
   8.424492e+01  -1.057681e+02
   1.853443e+02  -3.874801e+01
   1.507614e+02   4.448348e+01
   2.616786e+01   8.312129e+01
  -6.544782e+01   5.504029e+01
  -4.788522e+01  -6.063100e+00
   4.029281e+01  -3.332774e+01
   9.303922e+01   1.678474e+01
   4.436849e+01   1.119707e+02
  -6.964811e+01   1.553755e+02
  -1.490476e+02   7.579193e+01
  -1.253872e+02  -8.334370e+01
  -2.121125e+01  -1.858902e+02
   7.776100e+01  -1.366789e+02
   1.020612e+02   1.349596e+01
   5.142190e+01   1.196194e+02
  -1.915054e+01   9.934217e+01
  -5.420239e+01   1.161674e+01
  -4.103289e+01  -3.237705e+01
  -1.143000e+01  -6.744839e+00
  -6.931378e+00   1.558998e+01
  -3.570503e+01  -2.399235e+01
  -5.863476e+01  -8.911369e+01
  -2.637944e+01  -1.008964e+02
   5.995383e+01  -4.061137e+01
   1.321826e+02   3.440157e+01
   1.170401e+02   6.655768e+01
   1.901582e+01   5.422196e+01
  -7.462587e+01   2.807764e+01
  -8.389048e+01   5.091942e+00
  -2.102016e+01  -1.352626e+01
   3.129971e+01  -2.076157e+01
   2.217620e+01  -9.800269e+00
  -1.077868e+01   5.261378e+00
   1.176872e+00   3.528369e+00
   6.103048e+01  -4.529577e+00
   9.271735e+01   1.876568e+01
   3.016786e+01   7.968487e+01
  -9.750526e+01   1.201705e+02
  -1.857546e+02   7.330672e+01
  -1.578397e+02  -4.980528e+01
  -3.826828e+01  -1.546608e+02
   7.740356e+01  -1.573948e+02
   1.152937e+02  -7.093076e+01
   7.967773e+01   1.612659e+01
   2.768897e+01   3.850740e+01
   5.839144e+00   1.525877e+01
   1.598983e+01   1.058877e+01
   2.893220e+01   5.007712e+01
   1.605948e+01   9.032572e+01
  -2.777355e+01   7.134049e+01
  -7.586999e+01  -1.137688e+01
  -8.222042e+01  -9.464884e+01
  -2.186386e+01  -1.071732e+02
   6.854950e+01  -3.778996e+01
   1.067553e+02   5.556170e+01
   4.637390e+01   1.002598e+02
  -6.000513e+01   6.981605e+01
  -1.060157e+02  -2.791914e+00
  -5.023235e+01  -6.042841e+01
   3.327366e+01  -6.721402e+01
   4.411892e+01  -3.044256e+01
  -2.096311e+01   9.309309e+00
  -6.654304e+01   1.147737e+01
  -2.070171e+01  -2.767454e+01
   7.566658e+01  -6.578910e+01
   1.215417e+02  -5.171162e+01
   7.494328e+01   1.803874e+01
  -1.030136e+01   8.531012e+01
  -5.835986e+01   8.546562e+01
  -4.853267e+01   1.796284e+01
  -1.145838e+01  -4.912299e+01
   2.088050e+01  -5.112396e+01
   3.656010e+01   4.726866e+00
   3.051718e+01   5.222707e+01
   1.554959e+00   4.318641e+01
  -3.307218e+01  -2.161291e+00
  -4.340916e+01  -2.656010e+01
  -2.090695e+01  -6.519175e+00
   6.214005e+00   2.272043e+01
   7.001015e+00   1.468822e+01
  -1.029217e+01  -2.836183e+01
  -8.916623e+00  -5.601332e+01
   2.259484e+01  -3.012665e+01
   4.688676e+01   2.747456e+01
   2.252938e+01   5.749127e+01
  -3.648340e+01   2.922049e+01
  -6.603190e+01  -2.731624e+01
  -2.371591e+01  -5.731885e+01
   5.639181e+01  -3.822998e+01
   9.481360e+01   6.532666e+00
   5.231829e+01   4.094408e+01
  -2.686679e+01   4.845105e+01
  -6.396227e+01   3.332858e+01
  -3.106332e+01   8.923923e+00
   2.275085e+01  -6.910700e+00
   3.054590e+01   3.099793e-01
  -1.814143e+01   2.203233e+01
  -6.932699e+01   2.305927e+01
