
 $NMID
 id='ANONYMOUS ', fmtdat='(2E16.6)'
 volume=1.0
 tramp=1.0
 $END
   2.161523e+03  -9.527914e+01
   1.601933e+03   9.226955e+02
   2.913905e+02   1.407020e+03
  -6.967086e+02   1.121981e+03
  -7.663235e+02   4.173665e+02
  -2.445455e+02  -8.330253e+01
   1.566996e+02  -5.241951e+01
   9.949397e+01   2.782607e+02
  -2.134601e+02   4.193432e+02
  -4.203337e+02   1.504644e+02
  -3.570463e+02  -2.789971e+02
  -1.031771e+02  -4.435847e+02
   1.384464e+02  -1.889066e+02
   1.773010e+02   2.195151e+02
  -1.971442e+01   3.685905e+02
  -2.557196e+02   1.072008e+02
  -2.588090e+02  -3.103383e+02
   2.187954e+01  -4.867461e+02
   3.277683e+02  -2.806395e+02
   3.672876e+02   7.604135e+01
   1.465903e+02   2.577372e+02
  -5.245302e+01   1.932113e+02
  -1.788151e+01   8.686970e+01
   1.485427e+02   1.235840e+02
   1.714747e+02   2.426518e+02
  -5.863233e+01   2.456287e+02
  -3.449326e+02   6.608547e+01
  -3.926612e+02  -1.477269e+02
  -1.296443e+02  -2.101787e+02
   2.079876e+02  -8.790064e+01
   3.134732e+02   1.041355e+02
   1.141895e+02   2.321506e+02
  -1.784733e+02   2.271693e+02
  -3.089445e+02   9.309929e+01
  -2.262919e+02  -9.107973e+01
  -8.234762e+01  -1.904764e+02
  -3.022680e+01  -1.222028e+02
  -7.729546e+01   2.494140e+01
  -1.235334e+02   4.933550e+01
  -8.620954e+01  -1.240780e+02
   3.079581e+01  -3.126530e+02
   1.493863e+02  -2.732440e+02
   1.742370e+02  -1.883807e+01
   7.315723e+01   1.659677e+02
  -6.536967e+01   6.865442e+01
  -8.402841e+01  -1.777130e+02
   8.264871e+01  -2.519840e+02
   3.021224e+02  -3.548488e+01
   3.470920e+02   2.576994e+02
   1.287324e+02   3.479348e+02
  -1.949098e+02   1.918138e+02
  -3.636297e+02  -2.950945e+01
  -2.602602e+02  -1.465821e+02
  -5.292029e+00  -1.414876e+02
   1.762093e+02  -8.437642e+01
   1.668097e+02  -2.944656e+01
   4.554334e+01   9.353684e-01
  -1.763402e+01  -1.722361e+00
   4.935641e+01  -1.445987e+01
   1.416078e+02   1.806033e+01
   9.910786e+01   1.130597e+02
  -9.416169e+01   1.888377e+02
  -2.637374e+02   1.286847e+02
  -2.238509e+02  -7.489344e+01
   1.290008e+01  -2.733752e+02
   2.420602e+02  -2.933999e+02
   2.852436e+02  -1.108894e+02
   1.637591e+02   1.261954e+02
   3.663458e+01   2.495446e+02
   2.769520e+00   2.257449e+02
   1.247104e+01   1.514031e+02
  -3.047027e+01   1.143778e+02
  -1.318939e+02   9.528768e+01
  -2.035269e+02   2.134455e+01
  -1.713433e+02  -1.075491e+02
  -5.156767e+01  -1.886256e+02
   7.533324e+01  -1.273844e+02
   1.326060e+02   4.353497e+01
   8.615010e+01   1.826172e+02
  -4.346267e+01   1.749831e+02
  -1.784367e+02   3.426320e+01
  -2.190611e+02  -1.271360e+02
  -1.277369e+02  -2.078227e+02
   2.008359e+01  -1.911431e+02
   1.076372e+02  -1.307819e+02
   1.120107e+02  -8.492797e+01
   1.276344e+02  -6.276954e+01
   2.238673e+02  -2.240122e+01
   3.159893e+02   7.955113e+01
   2.430164e+02   2.265845e+02
  -2.063391e+01   3.309513e+02
  -2.919222e+02   3.001299e+02
  -3.586224e+02   1.295208e+02
  -2.035980e+02  -7.400030e+01
  -7.839428e+00  -1.762790e+02
   5.610453e+01  -1.347661e+02
  -1.280802e+01  -3.270667e+01
  -8.908198e+01   1.094557e+01
  -7.781624e+01  -3.503409e+01
   3.729500e+00  -8.932618e+01
   7.173946e+01  -6.101313e+01
   6.210540e+01   3.405001e+01
  -2.179619e+01   8.010978e+01
  -1.109702e+02  -7.421794e+00
  -1.142288e+02  -1.721298e+02
   7.233614e+00  -2.581238e+02
   1.855922e+02  -1.660165e+02
   2.836386e+02   4.295216e+01
   2.159424e+02   2.052861e+02
   3.797240e+01   2.120303e+02
  -1.016043e+02   1.014117e+02
  -1.059048e+02   1.663930e+00
  -1.946524e+01  -3.793347e+00
   3.286867e+01   5.334852e+01
  -1.256200e+01   8.216803e+01
  -9.322519e+01   4.076689e+01
  -1.011080e+02  -2.319318e+01
  -1.568911e+01  -3.524394e+01
   6.312874e+01   1.880368e+01
   2.421979e+01   7.761477e+01
  -1.218895e+02   6.874843e+01
  -2.377539e+02  -2.173632e+01
  -1.956303e+02  -1.386679e+02
  -1.212163e+01  -2.030730e+02
   1.641438e+02  -1.706622e+02
   1.982070e+02  -6.598029e+01
   9.413983e+01   3.107308e+01
  -2.339794e+01   4.876561e+01
  -3.942949e+01  -7.223400e+00
   4.671571e+01  -5.374755e+01
   1.362946e+02  -1.777261e+01
   1.348662e+02   7.759187e+01
   3.982198e+01   1.350490e+02
  -6.380512e+01   9.597309e+01
  -8.790615e+01   9.842432e+00
  -2.666499e+01  -2.483375e+01
   3.750581e+01   2.512840e+01
   1.764160e+01   9.373859e+01
  -8.315944e+01   9.300958e+01
  -1.663221e+02   4.959623e+00
  -1.366960e+02  -1.058698e+02
  -5.816789e+00  -1.555899e+02
   1.145004e+02  -1.110133e+02
   1.255702e+02  -1.199649e+01
   3.947992e+01   6.384729e+01
  -4.373962e+01   6.674100e+01
  -4.779182e+01   1.741228e+01
   5.546091e+00  -1.803700e+01
   3.416134e+01  -2.957623e+00
  -6.698426e+00   2.657651e+01
  -7.519758e+01   5.873916e+00
  -8.813358e+01  -7.378828e+01
  -8.026716e+00  -1.419027e+02
   1.149832e+02  -1.191418e+02
   1.847215e+02  -3.308898e+00
   1.446413e+02   1.235452e+02
   2.837016e+01   1.709940e+02
  -7.291147e+01   1.189080e+02
  -9.578979e+01   2.640047e+01
  -5.831919e+01  -2.858627e+01
  -2.841954e+01  -1.930703e+01
  -4.348934e+01   1.244491e+01
  -7.045634e+01   6.328901e+00
  -4.946449e+01  -4.698914e+01
   2.928772e+01  -8.954399e+01
   1.022589e+02  -5.797106e+01
   9.118812e+01   3.749138e+01
  -1.439249e+01   1.079865e+02
  -1.343609e+02   7.194790e+01
  -1.621291e+02  -5.531348e+01
  -6.015263e+01  -1.676254e+02
   1.017706e+02  -1.678080e+02
   2.044992e+02  -5.821954e+01
   1.820999e+02   6.901458e+01
   7.237427e+01   1.250945e+02
  -2.988118e+01   1.017824e+02
  -6.431634e+01   6.020826e+01
  -4.867749e+01   5.453730e+01
  -4.042908e+01   7.477316e+01
  -6.787262e+01   6.434773e+01
  -1.027480e+02  -1.109468e+01
  -9.363876e+01  -1.166863e+02
  -2.123766e+01  -1.722656e+02
   7.581722e+01  -1.259893e+02
   1.276351e+02  -6.592537e+00
   9.353300e+01   9.809582e+01
   4.465449e+00   1.176825e+02
  -5.991886e+01   5.746246e+01
  -4.866255e+01  -1.641365e+01
   6.317102e+00  -4.523394e+01
   2.664329e+01  -2.781078e+01
  -1.789057e+01  -6.036325e+00
  -6.739240e+01  -1.098697e+01
  -4.098024e+01  -3.130756e+01
   5.972950e+01  -3.234481e+01
   1.396047e+02   2.379976e+00
   1.114589e+02   5.235847e+01
  -6.274168e+00   7.832236e+01
  -1.081183e+02   5.686682e+01
  -1.114282e+02   2.235152e+00
  -3.239820e+01  -4.175414e+01
   4.576895e+01  -3.689555e+01
   6.117295e+01   1.271261e+01
   1.980919e+01   5.906665e+01
  -3.109717e+01   5.492028e+01
  -5.509865e+01   4.413229e+00
  -5.058225e+01  -3.908472e+01
  -3.923065e+01  -3.359261e+01
  -4.020278e+01  -2.638624e-01
  -4.940388e+01  -1.982322e-01
  -3.857735e+01  -5.759270e+01
   1.675921e+01  -1.210580e+02
   9.882765e+01  -1.153046e+02
   1.451737e+02  -2.735106e+01
   1.045429e+02   7.322503e+01
   1.094419e+00   1.050790e+02
  -7.351321e+01   5.737586e+01
  -4.924868e+01  -5.758033e+00
   4.393412e+01  -1.687074e+01
   1.015425e+02   2.917342e+01
   5.302288e+01   7.986232e+01
  -6.387622e+01   8.282695e+01
  -1.428369e+02   3.245287e+01
  -1.171173e+02  -3.218655e+01
  -2.154512e+01  -6.375408e+01
   4.938388e+01  -4.347748e+01
   3.659239e+01   3.848612e+00
  -3.116809e+01   2.600925e+01
  -7.250054e+01  -1.234642e+01
  -3.553770e+01  -8.705694e+01
   5.303641e+01  -1.221212e+02
   1.158669e+02  -6.075529e+01
   9.885664e+01   6.372877e+01
   1.855573e+01   1.446900e+02
  -5.877704e+01   1.072716e+02
  -7.900657e+01  -9.172610e+00
  -4.119407e+01  -9.176219e+01
   1.311359e+01  -7.657701e+01
   4.130797e+01  -9.363031e+00
   3.234385e+01   2.415878e+01
   9.365741e+00   4.489564e+00
   4.916285e+00  -1.213754e+01
   2.713956e+01   1.873248e+01
   4.623977e+01   6.863266e+01
   2.222141e+01   7.744480e+01
  -4.555094e+01   3.158213e+01
  -1.032044e+02  -2.520931e+01
  -9.191705e+01  -4.995908e+01
  -1.503356e+01  -4.180894e+01
   5.817812e+01  -2.297808e+01
   6.498079e+01  -5.044271e+00
   1.589798e+01   1.060199e+01
  -2.416591e+01   1.677997e+01
  -1.651346e+01   7.647592e+00
   8.736481e+00  -4.585021e+00
  -1.314997e+00  -2.648533e+00
  -4.798781e+01   4.518456e+00
  -7.227818e+01  -1.382171e+01
  -2.366888e+01  -6.250768e+01
   7.521359e+01  -9.495460e+01
   1.439919e+02  -5.828088e+01
   1.232873e+02   3.825252e+01
   3.121532e+01   1.202993e+02
  -5.886705e+01   1.226807e+02
  -8.924881e+01   5.576683e+01
  -6.220858e+01  -1.181535e+01
  -2.163184e+01  -2.964045e+01
  -4.158483e+00  -1.202333e+01
  -1.205762e+01  -8.163286e+00
  -2.281748e+01  -3.824483e+01
  -1.347807e+01  -6.955955e+01
   2.086081e+01  -5.565647e+01
   5.939459e+01   8.012544e+00
   6.517742e+01   7.315610e+01
   1.780049e+01   8.381915e+01
  -5.376470e+01   3.026597e+01
  -8.414156e+01  -4.269737e+01
  -3.673237e+01  -7.802742e+01
   4.666084e+01  -5.466898e+01
   8.244887e+01   1.733915e+00
   3.881061e+01   4.664006e+01
  -2.584937e+01   5.203877e+01
  -3.370629e+01   2.338280e+01
   1.688921e+01  -7.811940e+00
   5.177052e+01  -9.556630e+00
   1.605928e+01   2.146182e+01
  -5.810581e+01   5.191120e+01
  -9.327038e+01   4.116233e+01
  -5.772936e+01  -1.362752e+01
   7.399958e+00  -6.644265e+01
   4.457274e+01  -6.643449e+01
   3.774603e+01  -1.356566e+01
   9.430428e+00   3.860139e+01
  -1.619512e+01   3.986535e+01
  -2.901647e+01  -3.647478e+00
  -2.415202e+01  -4.042567e+01
  -1.038756e+00  -3.342105e+01
   2.595917e+01   1.508466e+00
   3.356841e+01   2.021331e+01
   1.601483e+01   4.735887e+00
  -4.508399e+00  -1.760282e+01
  -4.750195e+00  -1.090278e+01
   8.225795e+00   2.286694e+01
   6.320094e+00   4.424454e+01
  -1.849528e+01   2.348072e+01
  -3.702619e+01  -2.203926e+01
  -1.758956e+01  -4.557567e+01
   2.860164e+01  -2.317475e+01
   5.178317e+01   2.127163e+01
   1.898520e+01   4.477952e+01
  -4.351502e+01   3.001318e+01
  -7.384484e+01  -4.643303e+00
  -4.102600e+01  -3.146778e+01
   2.076750e+01  -3.772990e+01
   4.984563e+01  -2.620784e+01
   2.402340e+01  -6.804299e+00
  -1.834414e+01   6.025616e+00
  -2.457091e+01   1.294520e-02
   1.373292e+01  -1.806001e+01
   5.421427e+01  -1.947554e+01
