
 $NMID
 id='ANONYMOUS ', fmtdat='(2E16.6)'
 volume=1.0
 tramp=1.0
 $END
  -1.802288e+03  -9.238588e+01
  -1.250930e+03  -8.533968e+02
  -1.677855e+02  -1.149886e+03
   6.018622e+02  -8.903762e+02
   6.343533e+02  -3.493340e+02
   2.144139e+02   3.548172e+01
  -9.860133e+01   2.505709e+01
  -4.735730e+01  -2.178221e+02
   1.984219e+02  -3.189082e+02
   3.450910e+02  -9.886551e+01
   2.710741e+02   2.431058e+02
   6.251927e+01   3.614339e+02
  -1.107992e+02   1.403345e+02
  -1.186699e+02  -1.904498e+02
   4.035575e+01  -2.966570e+02
   2.108970e+02  -7.123106e+01
   1.950414e+02   2.688897e+02
  -3.745610e+01   4.031017e+02
  -2.807307e+02   2.231176e+02
  -3.023517e+02  -7.483715e+01
  -1.118950e+02  -2.187729e+02
   5.104728e+01  -1.551870e+02
   1.121142e+01  -6.887454e+01
  -1.311681e+02  -1.177874e+02
  -1.350336e+02  -2.290832e+02
   7.559346e+01  -2.132642e+02
   3.096614e+02  -2.753038e+01
   3.215148e+02   1.636718e+02
   8.134258e+01   1.883777e+02
  -1.924986e+02   4.844796e+01
  -2.557691e+02  -1.215854e+02
  -7.222623e+01  -2.066478e+02
   1.717250e+02  -1.757207e+02
   2.671084e+02  -5.385460e+01
   1.805024e+02   9.173881e+01
   5.228557e+01   1.593465e+02
   2.108248e+01   9.361197e+01
   8.185611e+01  -2.177635e+01
   1.217786e+02  -2.448174e+01
   6.245175e+01   1.270354e+02
  -6.192685e+01   2.677684e+02
  -1.520082e+02   2.103713e+02
  -1.382642e+02  -7.063855e+00
  -3.597514e+01  -1.422067e+02
   6.229487e+01  -4.077148e+01
   5.054666e+01   1.639287e+02
  -9.382703e+01   2.056772e+02
  -2.585514e+02   4.882287e+00
  -2.751156e+02  -2.425287e+02
  -8.556378e+01  -3.002603e+02
   1.769652e+02  -1.453038e+02
   3.029041e+02   5.024278e+01
   2.057117e+02   1.354628e+02
  -5.555763e+00   1.099512e+02
  -1.470135e+02   5.573385e+01
  -1.345575e+02   2.151464e+01
  -3.988269e+01   6.275224e+00
   5.879470e+00   2.680260e+00
  -4.636519e+01   1.073305e+00
  -1.133245e+02  -2.798129e+01
  -7.220035e+01  -9.816037e+01
   8.905823e+01  -1.524467e+02
   2.290201e+02  -9.824350e+01
   1.899969e+02   7.313713e+01
  -2.099786e+01   2.360054e+02
  -2.234596e+02   2.421109e+02
  -2.533771e+02   7.797060e+01
  -1.316017e+02  -1.205644e+02
  -1.230088e+01  -2.131023e+02
   1.029027e+01  -1.858203e+02
  -9.215766e+00  -1.271207e+02
   2.679094e+01  -1.009774e+02
   1.201284e+02  -7.986998e+01
   1.807467e+02  -6.640061e+00
   1.419988e+02   1.059345e+02
   2.995575e+01   1.666841e+02
  -7.560944e+01   1.029679e+02
  -1.117594e+02  -4.854950e+01
  -6.081772e+01  -1.638445e+02
   5.070246e+01  -1.468035e+02
   1.559950e+02  -1.597632e+01
   1.777106e+02   1.235533e+02
   9.383222e+01   1.830387e+02
  -2.794366e+01   1.576552e+02
  -9.488836e+01   1.037329e+02
  -9.624204e+01   6.901837e+01
  -1.125672e+02   5.031854e+01
  -1.953319e+02   7.859056e+00
  -2.674103e+02  -8.637665e+01
  -1.948291e+02  -2.078385e+02
   3.714447e+01  -2.820139e+02
   2.673237e+02  -2.401644e+02
   3.139959e+02  -8.894359e+01
   1.678150e+02   7.727525e+01
  -6.814766e+00   1.507756e+02
  -5.671915e+01   1.075757e+02
   1.238411e+01   2.527482e+01
   8.035947e+01  -1.956499e+00
   6.327113e+01   3.897326e+01
  -1.276446e+01   7.586588e+01
  -6.621834e+01   4.286363e+01
  -4.769584e+01  -3.580165e+01
   2.675695e+01  -6.505980e+01
   9.450195e+01   1.563005e+01
   8.661031e+01   1.531944e+02
  -2.039596e+01   2.187460e+02
  -1.670797e+02   1.325134e+02
  -2.407401e+02  -5.057050e+01
  -1.741829e+02  -1.879221e+02
  -1.985008e+01  -1.852021e+02
   9.398577e+01  -8.084882e+01
   9.008459e+01   6.513015e+00
   1.441094e+01   4.816586e+00
  -2.549394e+01  -4.927459e+01
   1.729480e+01  -7.067278e+01
   8.355867e+01  -2.817897e+01
   8.434799e+01   2.771793e+01
   9.329285e+00   3.163766e+01
  -5.447376e+01  -2.065290e+01
  -1.675791e+01  -6.931088e+01
   1.087840e+02  -5.337102e+01
   2.036596e+02   3.146010e+01
   1.606742e+02   1.307214e+02
  -1.802324e+00   1.760297e+02
  -1.519389e+02   1.366326e+02
  -1.737131e+02   4.319184e+01
  -7.685668e+01  -3.326902e+01
   2.463291e+01  -3.923514e+01
   3.280251e+01   1.039437e+01
  -4.489167e+01   4.346570e+01
  -1.182262e+02   5.855666e+00
  -1.096959e+02  -7.515881e+01
  -2.475270e+01  -1.172698e+02
   6.076120e+01  -7.700559e+01
   7.537207e+01  -1.908725e+00
   1.999456e+01   2.379615e+01
  -3.260899e+01  -2.376110e+01
  -1.095267e+01  -8.270290e+01
   7.690894e+01  -7.647735e+01
   1.437181e+02   4.902021e+00
   1.110442e+02   9.893260e+01
  -4.659006e+00   1.332766e+02
  -1.042489e+02   8.726965e+01
  -1.066442e+02   2.344966e+00
  -2.853775e+01  -5.634013e+01
   4.173269e+01  -5.345678e+01
   4.147066e+01  -1.115962e+01
  -6.582517e+00   1.601077e+01
  -3.056588e+01   1.083538e+00
   6.147082e+00  -2.305595e+01
   6.471299e+01  -2.364260e+00
   7.251115e+01   6.729166e+01
  -1.008058e-01   1.225942e+02
  -1.053741e+02   9.639570e+01
  -1.589903e+02  -7.744198e+00
  -1.167338e+02  -1.143645e+02
  -1.404399e+01  -1.473842e+02
   6.903875e+01  -9.652763e+01
   8.266842e+01  -1.700263e+01
   4.766191e+01   2.691058e+01
   2.302992e+01   1.743020e+01
   3.776985e+01  -8.462803e+00
   6.080113e+01  -2.019674e+00
   4.073856e+01   4.233988e+01
  -2.874870e+01   7.553526e+01
  -9.066273e+01   4.562234e+01
  -7.728973e+01  -3.618091e+01
   1.725807e+01  -9.252432e+01
   1.194149e+02  -5.553345e+01
   1.366516e+02   5.628820e+01
   4.212138e+01   1.478529e+02
  -9.736360e+01   1.384262e+02
  -1.786643e+02   3.779241e+01
  -1.512747e+02  -6.993627e+01
  -5.390134e+01  -1.110463e+02
   3.173172e+01  -8.485279e+01
   5.817333e+01  -4.727544e+01
   4.407231e+01  -4.331556e+01
   3.801056e+01  -6.127296e+01
   6.104389e+01  -5.133536e+01
   8.701834e+01   1.472223e+01
   7.357638e+01   1.046139e+02
   8.492750e+00   1.483356e+02
  -7.203913e+01   1.031832e+02
  -1.095700e+02  -2.131810e+00
  -7.426760e+01  -8.968922e+01
   3.327214e+00  -1.010861e+02
   5.533049e+01  -4.566615e+01
   4.158319e+01   1.722174e+01
  -7.656838e+00   3.924862e+01
  -2.492547e+01   2.324565e+01
   1.418500e+01   6.330964e+00
   5.688260e+01   1.253834e+01
   3.362092e+01   2.874868e+01
  -5.300844e+01   2.501371e+01
  -1.200293e+02  -9.003865e+00
  -9.300986e+01  -5.128331e+01
   9.846880e+00  -6.782746e+01
   9.606862e+01  -4.337194e+01
   9.569827e+01   4.544209e+00
   2.569548e+01   3.807546e+01
  -4.071693e+01   2.927193e+01
  -5.156770e+01  -1.402237e+01
  -1.449946e+01  -5.111188e+01
   2.864496e+01  -4.501407e+01
   4.725529e+01  -1.271031e+00
   4.170331e+01   3.538225e+01
   3.194641e+01   3.062340e+01
   3.399488e+01   2.721881e+00
   4.212217e+01   2.949452e+00
   3.048399e+01   5.096825e+01
  -2.022114e+01   1.024168e+02
  -9.078822e+01   9.377140e+01
  -1.261374e+02   1.636742e+01
  -8.579855e+01  -6.794862e+01
   4.601053e+00  -9.032071e+01
   6.574205e+01  -4.570409e+01
   4.159176e+01   7.261261e+00
  -3.833357e+01   1.197362e+01
  -8.477743e+01  -3.055836e+01
  -4.056969e+01  -7.130648e+01
   5.937359e+01  -6.719772e+01
   1.240271e+02  -1.938313e+01
   9.828369e+01   3.456661e+01
   1.448544e+01   5.589124e+01
  -4.519061e+01   3.415315e+01
  -3.146955e+01  -5.712694e+00
   2.785154e+01  -2.076932e+01
   6.112385e+01   1.421525e+01
   2.574252e+01   7.567896e+01
  -5.122209e+01   1.007028e+02
  -1.012294e+02   4.537570e+01
  -8.033909e+01  -5.931255e+01
  -7.930962e+00  -1.238464e+02
   5.603426e+01  -8.793248e+01
   6.713268e+01   1.240627e+01
   2.998810e+01   8.096650e+01
  -1.611757e+01   6.507121e+01
  -3.633172e+01   5.788816e+00
  -2.602271e+01  -2.279936e+01
  -7.254572e+00  -4.787608e+00
  -5.118644e+00   1.005249e+01
  -2.292487e+01  -1.721238e+01
  -3.587933e+01  -6.103170e+01
  -1.401608e+01  -6.762649e+01
   4.116316e+01  -2.481842e+01
   8.640910e+01   2.717520e+01
   7.524702e+01   4.795395e+01
   1.077386e+01   3.660324e+01
  -5.032138e+01   1.618890e+01
  -5.571871e+01   5.568436e-01
  -1.352192e+01  -9.747636e+00
   2.138123e+01  -1.272212e+01
   1.504819e+01  -5.662814e+00
  -7.259765e+00   3.188831e+00
   6.504234e-01   2.322838e+00
   4.053260e+01  -1.059248e+00
   6.083462e+01   1.551589e+01
   1.746702e+01   5.388946e+01
  -6.852109e+01   7.647445e+01
  -1.256037e+02   4.244297e+01
  -1.030940e+02  -3.823834e+01
  -2.027993e+01  -1.037638e+02
   5.658941e+01  -1.017557e+02
   7.883143e+01  -4.321330e+01
   5.226971e+01   1.331960e+01
   1.706333e+01   2.647731e+01
   3.393855e+00   1.038403e+01
   1.025606e+01   7.619044e+00
   1.744637e+01   3.416920e+01
   7.563208e+00   6.037052e+01
  -2.078739e+01   4.634428e+01
  -4.988273e+01  -1.001696e+01
  -5.139128e+01  -6.540278e+01
  -1.102989e+01  -7.178070e+01
   4.664835e+01  -2.288676e+01
   6.897390e+01   4.027772e+01
   2.747465e+01   6.802275e+01
  -4.211243e+01   4.437029e+01
  -7.024613e+01  -5.375295e+00
  -3.129857e+01  -4.183603e+01
   2.436398e+01  -4.352655e+01
   3.035310e+01  -1.866104e+01
  -1.414604e+01   5.573250e+00
  -4.447809e+01   5.414971e+00
  -1.281946e+01  -1.907197e+01
   5.232328e+01  -4.106694e+01
   8.229087e+01  -3.011844e+01
   4.910985e+01   1.455073e+01
  -9.660011e+00   5.622058e+01
  -4.159930e+01   5.469735e+01
  -3.288665e+01   1.031685e+01
  -6.037119e+00  -3.292580e+01
   1.554890e+01  -3.325082e+01
   2.411825e+01   4.266822e+00
   1.850312e+01   3.563480e+01
  -4.265146e-01   2.875645e+01
  -2.186562e+01  -2.498278e+00
  -2.787946e+01  -1.910825e+01
  -1.361777e+01  -5.059868e+00
   3.361804e+00   1.534288e+01
   4.083716e+00   1.008960e+01
  -6.013187e+00  -1.914426e+01
  -4.161810e+00  -3.758562e+01
   1.599868e+01  -1.939331e+01
   3.032448e+01   1.971994e+01
   1.318020e+01   3.891804e+01
  -2.513217e+01   1.822731e+01
  -4.294804e+01  -2.026996e+01
  -1.387591e+01  -3.877233e+01
   3.867701e+01  -2.346447e+01
   6.268279e+01   7.471372e+00
   3.332854e+01   2.887794e+01
  -1.944391e+01   3.126455e+01
  -4.354097e+01   2.002381e+01
  -2.094530e+01   4.874372e+00
   1.524188e+01  -3.930618e+00
   2.023769e+01   1.099306e+00
  -1.264174e+01   1.397362e+01
  -4.657645e+01   1.305585e+01
