
 $NMID
 id='ANONYMOUS ', fmtdat='(2E16.6)'
 volume=1.0
 tramp=1.0
 $END
   2.112744e+03  -1.025474e+02
   1.491811e+03   9.660886e+02
   1.458015e+02   1.352848e+03
  -7.411080e+02   9.360747e+02
  -6.595142e+02   2.422216e+02
  -9.732157e+01  -1.184248e+02
   2.180824e+02   1.717715e+01
   7.155410e+01   3.311229e+02
  -2.514092e+02   4.024615e+02
  -4.174535e+02   1.036977e+02
  -3.181451e+02  -3.028704e+02
  -5.235930e+01  -4.288417e+02
   1.744824e+02  -1.515327e+02
   1.776465e+02   2.467008e+02
  -4.240970e+01   3.603379e+02
  -2.585154e+02   8.056294e+01
  -2.270621e+02  -3.054180e+02
   4.591684e+01  -4.327334e+02
   3.039664e+02  -2.224476e+02
   3.163246e+02   9.066487e+01
   1.139740e+02   2.381077e+02
  -6.419780e+01   1.735737e+02
  -3.644276e+01   6.468394e+01
   1.274747e+02   7.671887e+01
   1.819318e+02   1.900776e+02
  -1.493715e+01   2.362557e+02
  -3.106317e+02   1.054185e+02
  -3.955558e+02  -1.126195e+02
  -1.494910e+02  -2.207239e+02
   2.018143e+02  -1.265600e+02
   3.238328e+02   7.732185e+01
   1.292641e+02   2.285245e+02
  -1.627101e+02   2.330679e+02
  -2.946359e+02   9.780314e+01
  -2.178448e+02  -9.109265e+01
  -7.109007e+01  -1.957648e+02
   5.800286e-01  -1.218603e+02
  -3.687334e+01   4.851846e+01
  -1.128741e+02   9.189720e+01
  -1.212814e+02  -9.435678e+01
  -1.125265e+01  -3.155614e+02
   1.458537e+02  -2.882970e+02
   2.011572e+02  -1.485269e+01
   8.607235e+01   1.893106e+02
  -8.398901e+01   8.910283e+01
  -1.115768e+02  -1.704261e+02
   6.554141e+01  -2.537010e+02
   2.894326e+02  -4.755477e+01
   3.319448e+02   2.328456e+02
   1.207374e+02   3.241910e+02
  -1.865593e+02   1.859867e+02
  -3.439943e+02  -2.454361e+01
  -2.382029e+02  -1.494902e+02
   1.342454e+01  -1.470846e+02
   1.813718e+02  -7.067640e+01
   1.496035e+02  -7.948941e-01
   1.811711e+01   1.156950e+01
  -2.948230e+01  -2.066147e+01
   5.734355e+01  -3.382213e+01
   1.464480e+02   2.065143e+01
   9.119967e+01   1.177528e+02
  -9.039181e+01   1.715021e+02
  -2.306209e+02   1.086329e+02
  -1.896302e+02  -6.015741e+01
   6.093586e+00  -2.277859e+02
   1.978736e+02  -2.603524e+02
   2.484808e+02  -1.141292e+02
   1.585197e+02   1.062705e+02
   4.099593e+01   2.357641e+02
  -8.071184e+00   2.117365e+02
  -2.065853e+00   1.236026e+02
  -2.193230e+01   8.311896e+01
  -9.958285e+01   8.406895e+01
  -1.731631e+02   3.635313e+01
  -1.625844e+02  -8.192085e+01
  -6.121949e+01  -1.708834e+02
   6.185595e+01  -1.266847e+02
   1.264953e+02   2.808554e+01
   9.126992e+01   1.620751e+02
  -2.982675e+01   1.656292e+02
  -1.631615e+02   4.299920e+01
  -2.074409e+02  -1.095429e+02
  -1.203373e+02  -1.928077e+02
   2.329659e+01  -1.776542e+02
   1.036921e+02  -1.123458e+02
   9.809411e+01  -6.511203e+01
   1.039736e+02  -5.331282e+01
   1.922500e+02  -2.941298e+01
   2.823666e+02   5.851281e+01
   2.234279e+02   1.957577e+02
  -8.479489e+00   2.970937e+02
  -2.515963e+02   2.765732e+02
  -3.198442e+02   1.268318e+02
  -1.919095e+02  -6.179946e+01
  -1.573867e+01  -1.653385e+02
   5.479124e+01  -1.305886e+02
  -8.272210e-03  -2.665117e+01
  -7.913417e+01   2.324854e+01
  -8.223419e+01  -2.536553e+01
  -4.854198e+00  -9.007648e+01
   7.182603e+01  -6.698065e+01
   6.824940e+01   3.178212e+01
  -1.700877e+01   8.304453e+01
  -1.056700e+02   6.383096e-01
  -1.071698e+02  -1.541770e+02
   3.902467e+00  -2.318019e+02
   1.604802e+02  -1.490132e+02
   2.483048e+02   3.294995e+01
   1.964738e+02   1.748623e+02
   4.396140e+01   1.869472e+02
  -8.631322e+01   9.617359e+01
  -9.947843e+01   5.756925e+00
  -2.142567e+01  -6.612524e+00
   3.399684e+01   4.324006e+01
  -3.897868e+00   7.612179e+01
  -8.294136e+01   4.412009e+01
  -9.664592e+01  -1.670958e+01
  -1.927059e+01  -3.471041e+01
   5.669786e+01   1.031113e+01
   2.636118e+01   6.535587e+01
  -1.027556e+02   6.369991e+01
  -2.090098e+02  -1.073686e+01
  -1.785338e+02  -1.144368e+02
  -2.064907e+01  -1.798061e+02
   1.392878e+02  -1.605801e+02
   1.787700e+02  -6.787552e+01
   9.048299e+01   2.744198e+01
  -1.940362e+01   4.981933e+01
  -4.042101e+01  -3.652086e+00
   3.720044e+01  -5.305781e+01
   1.236759e+02  -2.315307e+01
   1.266208e+02   6.676527e+01
   4.033887e+01   1.237254e+02
  -5.651496e+01   9.100481e+01
  -8.201071e+01   1.246783e+01
  -2.874846e+01  -2.300000e+01
   3.156308e+01   1.695870e+01
   1.978655e+01   7.833717e+01
  -6.741979e+01   8.382488e+01
  -1.458485e+02   1.090416e+01
  -1.258404e+02  -8.965858e+01
  -1.012704e+01  -1.405636e+02
   1.017894e+02  -1.037511e+02
   1.154995e+02  -1.198064e+01
   3.810140e+01   6.016589e+01
  -3.899469e+01   6.349897e+01
  -4.497503e+01   1.740067e+01
   1.327455e+00  -1.670376e+01
   2.759754e+01  -5.386665e+00
  -5.330015e+00   2.046979e+01
  -6.331217e+01   4.993269e+00
  -7.681447e+01  -6.183410e+01
  -1.095062e+01  -1.228591e+02
   9.683572e+01  -1.083561e+02
   1.636854e+02  -9.662763e+00
   1.332381e+02   1.056406e+02
   2.946605e+01   1.535939e+02
  -6.430024e+01   1.093072e+02
  -8.616131e+01   2.458924e+01
  -5.177310e+01  -2.651589e+01
  -2.459455e+01  -1.789005e+01
  -3.803121e+01   1.152416e+01
  -6.109056e+01   6.992549e+00
  -4.230623e+01  -3.917997e+01
   2.447091e+01  -7.671767e+01
   8.579996e+01  -5.148797e+01
   7.791650e+01   2.949825e+01
  -9.602985e+00   9.268269e+01
  -1.138202e+02   6.620863e+01
  -1.439233e+02  -4.298704e+01
  -6.007862e+01  -1.459758e+02
   8.376530e+01  -1.530714e+02
   1.810854e+02  -5.881587e+01
   1.662776e+02   5.719743e+01
   6.900067e+01   1.117342e+02
  -2.452614e+01   9.316340e+01
  -5.741112e+01   5.565181e+01
  -4.419131e+01   4.930169e+01
  -3.613736e+01   6.653168e+01
  -5.949132e+01   5.749933e+01
  -9.096153e+01  -8.598670e+00
  -8.529856e+01  -1.021267e+02
  -2.281963e+01  -1.531655e+02
   6.487446e+01  -1.148336e+02
   1.147734e+02  -1.003497e+01
   8.726249e+01   8.471595e+01
   8.118435e+00   1.056059e+02
  -5.092701e+01   5.472119e+01
  -4.344853e+01  -1.080700e+01
   2.906674e+00  -3.848676e+01
   2.010386e+01  -2.530503e+01
  -1.757480e+01  -6.386353e+00
  -5.909660e+01  -9.333782e+00
  -3.608566e+01  -2.661378e+01
   5.069117e+01  -2.951552e+01
   1.213830e+02  -1.782905e+00
   1.002095e+02   4.212014e+01
  -8.962623e-01   6.835745e+01
  -9.251518e+01   5.307108e+01
  -9.922438e+01   5.670107e+00
  -3.061161e+01  -3.485803e+01
   3.993965e+01  -3.250096e+01
   5.423360e+01   1.028513e+01
   1.672034e+01   5.095568e+01
  -2.828728e+01   4.774085e+01
  -4.784240e+01   4.198652e+00
  -4.316917e+01  -3.344074e+01
  -3.469803e+01  -2.877453e+01
  -3.687928e+01   3.036984e-01
  -4.419354e+01   8.089314e-01
  -3.375527e+01  -4.940774e+01
   1.360530e+01  -1.065123e+02
   8.389413e+01  -1.036888e+02
   1.255101e+02  -2.732114e+01
   9.302327e+01   6.230462e+01
   3.930945e+00   9.220029e+01
  -6.288766e+01   5.106710e+01
  -4.337017e+01  -4.966250e+00
   3.895610e+01  -1.569800e+01
   9.158979e+01   2.451271e+01
   4.971266e+01   7.040407e+01
  -5.479842e+01   7.565074e+01
  -1.271106e+02   3.309028e+01
  -1.062357e+02  -2.521985e+01
  -2.165271e+01  -5.680527e+01
   4.271030e+01  -4.145847e+01
   3.292016e+01   1.125673e+00
  -2.689441e+01   2.296606e+01
  -6.425141e+01  -1.019719e+01
  -3.180158e+01  -7.725375e+01
   4.729322e+01  -1.090366e+02
   1.037089e+02  -5.434078e+01
   8.893964e+01   5.674010e+01
   1.782478e+01   1.293703e+02
  -5.115529e+01   9.719542e+01
  -7.075823e+01  -5.839246e+00
  -3.950018e+01  -8.064153e+01
   8.196167e+00  -6.938906e+01
   3.564200e+01  -1.027014e+01
   3.052638e+01   2.085653e+01
   1.010883e+01   4.248849e+00
   3.849912e+00  -1.151709e+01
   2.280036e+01   1.481649e+01
   4.205768e+01   5.994512e+01
   2.297875e+01   6.960850e+01
  -3.835123e+01   2.968198e+01
  -9.280013e+01  -2.109250e+01
  -8.407589e+01  -4.332131e+01
  -1.405708e+01  -3.628135e+01
   5.272674e+01  -2.062419e+01
   5.818928e+01  -5.974363e+00
   1.320347e+01   8.217087e+00
  -2.203054e+01   1.544691e+01
  -1.368651e+01   8.235492e+00
   8.878532e+00  -3.629393e+00
  -1.676288e+00  -3.060412e+00
  -4.397974e+01   3.722008e+00
  -6.422613e+01  -1.147731e+01
  -1.961396e+01  -5.478638e+01
   6.738518e+01  -8.471883e+01
   1.264859e+02  -5.273400e+01
   1.079987e+02   3.345558e+01
   2.841293e+01   1.068997e+02
  -4.999432e+01   1.091306e+02
  -7.785277e+01   4.975730e+01
  -5.548852e+01  -9.961848e+00
  -1.948782e+01  -2.548893e+01
  -2.969593e+00  -9.678222e+00
  -1.027150e+01  -6.148082e+00
  -2.155648e+01  -3.305769e+01
  -1.409997e+01  -6.156401e+01
   1.763086e+01  -4.982579e+01
   5.340447e+01   6.911848e+00
   5.843976e+01   6.525654e+01
   1.523091e+01   7.440703e+01
  -4.858730e+01   2.601661e+01
  -7.476626e+01  -3.861434e+01
  -3.234150e+01  -6.873863e+01
   4.093486e+01  -4.763176e+01
   7.211608e+01   9.255828e-01
   3.417322e+01   3.932346e+01
  -2.165819e+01   4.485536e+01
  -2.791183e+01   2.132634e+01
   1.626869e+01  -6.003453e+00
   4.603406e+01  -8.860056e+00
   1.401488e+01   1.834921e+01
  -5.101650e+01   4.716313e+01
  -8.140389e+01   3.923627e+01
  -5.027239e+01  -1.009835e+01
   5.920949e+00  -5.876555e+01
   3.756720e+01  -5.918064e+01
   3.168610e+01  -1.146940e+01
   7.814848e+00   3.473960e+01
  -1.406990e+01   3.463669e+01
  -2.560083e+01  -4.300867e+00
  -2.170835e+01  -3.557499e+01
  -1.195140e+00  -2.834684e+01
   2.297962e+01   1.605205e+00
   2.982018e+01   1.658928e+01
   1.435085e+01   3.247896e+00
  -3.812721e+00  -1.443456e+01
  -4.669888e+00  -7.482955e+00
   5.607606e+00   2.086177e+01
   3.599557e+00   3.742578e+01
  -1.677746e+01   1.838203e+01
  -3.104359e+01  -2.068979e+01
  -1.350552e+01  -4.015846e+01
   2.578344e+01  -1.996092e+01
   4.505207e+01   1.917438e+01
   1.651648e+01   3.993419e+01
  -3.780984e+01   2.698321e+01
  -6.478459e+01  -3.690335e+00
  -3.657753e+01  -2.747474e+01
   1.783237e+01  -3.293625e+01
   4.366397e+01  -2.277082e+01
   2.031895e+01  -6.111549e+00
  -1.775191e+01   4.391998e+00
  -2.242775e+01  -1.462644e+00
   1.348102e+01  -1.719382e+01
   5.030080e+01  -1.758420e+01
