
 $NMID
 id='ANONYMOUS ', fmtdat='(2E16.6)'
 volume=1.0
 tramp=1.0
 $END
   4.071993e+03  -8.813369e+01
   2.432625e+03   2.392674e+03
  -6.213174e+02   2.596131e+03
  -1.958265e+03   8.890580e+02
  -9.103372e+02  -5.826286e+02
   5.904803e+02  -5.497964e+02
   8.350906e+02   3.858536e+02
   1.226316e+01   9.952715e+02
  -7.613645e+02   7.465152e+02
  -8.819935e+02  -7.114283e+01
  -4.389651e+02  -8.007702e+02
   2.082067e+02  -8.400847e+02
   5.928052e+02  -1.217669e+02
   3.718510e+02   6.664597e+02
  -2.394594e+02   7.087878e+02
  -5.706329e+02   5.633312e+00
  -2.699829e+02  -6.370897e+02
   2.918685e+02  -6.068052e+02
   5.494352e+02  -1.014641e+02
   3.749066e+02   3.228323e+02
   2.621542e+01   4.118757e+02
  -2.211680e+02   2.533295e+02
  -1.969532e+02   2.234152e+01
   1.071459e+02  -7.688238e+01
   3.812366e+02   1.047598e+02
   1.883873e+02   4.008492e+02
  -4.270413e+02   3.889023e+02
  -7.958557e+02  -5.999908e+01
  -4.105592e+02  -5.057114e+02
   3.598665e+02  -4.557336e+02
   6.977558e+02   2.331112e+01
   3.319562e+02   4.461432e+02
  -2.572237e+02   4.897952e+02
  -5.289292e+02   1.985728e+02
  -3.955445e+02  -2.064066e+02
  -7.627703e+01  -4.436267e+02
   1.780276e+02  -2.709082e+02
   1.607245e+02   1.974039e+02
  -1.476151e+02   4.080361e+02
  -4.143905e+02  -1.208664e+01
  -2.373597e+02  -6.339877e+02
   2.864208e+02  -6.634890e+02
   5.648685e+02  -1.624270e+01
   2.534718e+02   5.127832e+02
  -2.651860e+02   3.039496e+02
  -3.649758e+02  -2.965148e+02
   5.456909e+01  -5.140388e+02
   5.187327e+02  -1.373435e+02
   5.663685e+02   3.726510e+02
   1.672203e+02   5.484549e+02
  -3.526943e+02   3.326630e+02
  -5.935025e+02  -5.812433e+01
  -3.611873e+02  -3.534342e+02
   1.351406e+02  -3.457315e+02
   4.151371e+02  -6.277773e+01
   2.337307e+02   1.773674e+02
  -1.064031e+02   1.033526e+02
  -1.382764e+02  -1.395981e+02
   1.495189e+02  -1.782619e+02
   3.280308e+02   6.189309e+01
   1.402258e+02   2.788882e+02
  -1.879072e+02   2.487980e+02
  -3.128757e+02   7.486310e+01
  -1.870376e+02  -7.899939e+01
   2.214189e+01  -2.119810e+02
   2.034026e+02  -3.089212e+02
   3.128051e+02  -2.103944e+02
   2.758250e+02   1.221193e+02
   8.393686e+01   4.077630e+02
  -9.909572e+01   3.653443e+02
  -1.118793e+02   1.116150e+02
  -2.599303e+01  -8.613406e+00
  -4.023542e+01   8.139790e+01
  -1.799998e+02   1.245236e+02
  -2.621203e+02  -4.359038e+01
  -1.555343e+02  -2.500821e+02
   6.109642e+01  -2.427694e+02
   2.132298e+02  -1.514950e+01
   1.908292e+02   2.217254e+02
  -3.112163e+00   2.770056e+02
  -2.473555e+02   1.153495e+02
  -3.427497e+02  -1.492575e+02
  -1.839385e+02  -3.261208e+02
   8.602896e+01  -2.917048e+02
   2.115181e+02  -1.203291e+02
   1.434062e+02  -8.775509e+00
   9.365005e+01  -3.397964e+01
   2.177486e+02  -6.426682e+01
   3.762735e+02   4.611646e+01
   3.169435e+02   2.604007e+02
   6.772544e+00   4.147324e+02
  -3.289790e+02   3.939890e+02
  -4.533984e+02   1.981503e+02
  -3.172853e+02  -7.994855e+01
  -5.780541e+01  -2.746224e+02
   1.162047e+02  -2.410031e+02
   7.634503e+01  -3.083110e+01
  -1.002564e+02   1.033237e+02
  -1.845722e+02  -6.684300e-01
  -5.228167e+01  -1.831324e+02
   1.476431e+02  -1.661115e+02
   1.703657e+02   5.241004e+01
  -1.146012e+01   1.821602e+02
  -1.820431e+02   3.538261e+01
  -1.589332e+02  -2.295985e+02
   2.287791e+01  -3.287739e+02
   2.129933e+02  -1.846127e+02
   3.065249e+02   5.346538e+01
   2.637918e+02   2.179951e+02
   9.362690e+01   2.443829e+02
  -1.028526e+02   1.523727e+02
  -1.663488e+02   2.364406e+01
  -5.644322e+01  -2.892197e+01
   6.603093e+01   3.447679e+01
   3.061135e+01   1.165427e+02
  -1.140312e+02   9.653873e+01
  -1.682278e+02  -7.754633e+00
  -5.678537e+01  -6.689187e+01
   7.427699e+01  -1.738041e+01
   5.301576e+01   6.688293e+01
  -1.134204e+02   8.292111e+01
  -2.626310e+02   4.815418e+00
  -2.481370e+02  -1.251083e+02
  -6.145330e+01  -2.364400e+02
   1.665033e+02  -2.478578e+02
   2.630432e+02  -1.248704e+02
   1.614386e+02   4.451201e+01
  -2.012043e+01   1.040227e+02
  -8.563283e+01   1.042415e+01
   2.780566e+01  -9.598601e+01
   1.821216e+02  -6.046367e+01
   2.028210e+02   9.126275e+01
   6.998071e+01   1.939295e+02
  -8.510788e+01   1.508826e+02
  -1.348673e+02   3.079917e+01
  -6.777070e+01  -3.736124e+01
   2.517453e+01  -3.818334e+00
   3.645383e+01   7.587981e+01
  -6.373156e+01   1.061302e+02
  -1.833514e+02   3.132758e+01
  -1.815623e+02  -1.105579e+02
  -2.505508e+01  -2.035785e+02
   1.507508e+02  -1.577735e+02
   1.826084e+02  -1.022118e+01
   6.437576e+01   1.066354e+02
  -6.019689e+01   1.067896e+02
  -7.794500e+01   3.091502e+01
  -1.847652e+01  -2.381359e+01
   1.915906e+01  -1.795126e+01
  -9.124755e+00   7.164900e+00
  -6.566789e+01  -7.079471e+00
  -8.310945e+01  -7.420150e+01
  -1.725075e+01  -1.462070e+02
   1.135592e+02  -1.441894e+02
   2.165210e+02  -2.954572e+01
   1.915489e+02   1.349216e+02
   4.459288e+01   2.208091e+02
  -9.832660e+01   1.615840e+02
  -1.268536e+02   2.833503e+01
  -6.725753e+01  -5.097855e+01
  -2.738521e+01  -3.323135e+01
  -4.948298e+01   1.233356e+01
  -7.393962e+01   7.489501e+00
  -3.949105e+01  -4.533506e+01
   3.777986e+01  -8.209334e+01
   9.361222e+01  -5.293200e+01
   7.948248e+01   3.104975e+01
  -1.016467e+01   1.021809e+02
  -1.290709e+02   8.258483e+01
  -1.839559e+02  -4.251268e+01
  -9.838405e+01  -1.845050e+02
   9.306961e+01  -2.152051e+02
   2.463539e+02  -9.607705e+01
   2.424848e+02   7.409312e+01
   1.066982e+02   1.626774e+02
  -3.284303e+01   1.385909e+02
  -8.664185e+01   8.076492e+01
  -7.289904e+01   6.655437e+01
  -6.065953e+01   8.605040e+01
  -8.459166e+01   7.076058e+01
  -1.197120e+02  -1.802674e+01
  -1.125792e+02  -1.409679e+02
  -3.239477e+01  -2.098340e+02
   8.816411e+01  -1.626495e+02
   1.631337e+02  -2.322860e+01
   1.298929e+02   1.102946e+02
   2.157372e+01   1.483501e+02
  -6.047481e+01   8.768941e+01
  -5.583395e+01   2.189879e+00
  -5.523434e+00  -3.930018e+01
   8.708514e+00  -3.221161e+01
  -3.423351e+01  -1.632492e+01
  -7.402027e+01  -1.970183e+01
  -4.218728e+01  -3.461499e+01
   5.828768e+01  -3.541807e+01
   1.462350e+02  -5.919909e+00
   1.339797e+02   4.449299e+01
   1.631680e+01   8.164906e+01
  -1.102344e+02   7.117336e+01
  -1.345577e+02   1.563696e+01
  -4.591605e+01  -3.684297e+01
   5.516352e+01  -3.594196e+01
   7.086227e+01   1.611671e+01
   8.375683e+00   6.334913e+01
  -5.077487e+01   5.484857e+01
  -5.879692e+01  -7.358200e-01
  -4.179207e+01  -4.568325e+01
  -4.110565e+01  -3.802168e+01
  -5.708422e+01  -9.019124e-01
  -6.144715e+01   7.316676e-01
  -3.387728e+01  -6.205358e+01
   2.764654e+01  -1.357073e+02
   1.049670e+02  -1.331700e+02
   1.513884e+02  -3.402939e+01
   1.160260e+02   8.196708e+01
   8.704142e+00   1.167566e+02
  -7.845470e+01   5.866899e+01
  -5.589593e+01  -1.275258e+01
   5.445535e+01  -1.981713e+01
   1.285393e+02   3.751241e+01
   7.276701e+01   9.803038e+01
  -7.245474e+01   1.060107e+02
  -1.761676e+02   5.233053e+01
  -1.517858e+02  -2.785207e+01
  -3.656930e+01  -7.970545e+01
   5.501351e+01  -6.660830e+01
   4.537352e+01  -7.987984e+00
  -3.535790e+01   2.570561e+01
  -8.444893e+01  -1.902444e+01
  -3.297742e+01  -1.094404e+02
   8.168989e+01  -1.450045e+02
   1.541469e+02  -6.124148e+01
   1.196562e+02   9.072481e+01
   1.362119e+01   1.831288e+02
  -7.638768e+01   1.356088e+02
  -9.721185e+01  -3.957195e+00
  -5.884312e+01  -1.081262e+02
  -7.643564e-01  -9.892581e+01
   4.202098e+01  -1.979297e+01
   4.904133e+01   2.785140e+01
   2.441377e+01   7.466153e+00
   3.192385e+00  -1.923342e+01
   1.923024e+01   1.345603e+01
   5.344568e+01   8.096339e+01
   4.144550e+01   1.007284e+02
  -4.237650e+01   4.295106e+01
  -1.291476e+02  -3.387955e+01
  -1.221348e+02  -6.328228e+01
  -1.728360e+01  -4.570018e+01
   8.129671e+01  -2.227211e+01
   8.186994e+01  -8.920403e+00
   1.007350e+01   6.535782e+00
  -3.541544e+01   2.151614e+01
  -1.263980e+01   1.725476e+01
   1.993248e+01  -1.774585e+00
  -5.545881e+00  -8.384833e+00
  -6.910898e+01  -2.303139e+00
  -8.526030e+01  -2.043546e+01
  -9.065781e+00  -7.423842e+01
   1.079539e+02  -1.079828e+02
   1.708093e+02  -5.742882e+01
   1.322848e+02   6.002014e+01
   2.673825e+01   1.496798e+02
  -7.038773e+01   1.401871e+02
  -1.046591e+02   5.616156e+01
  -7.508409e+01  -1.852146e+01
  -2.367639e+01  -3.227588e+01
   2.730456e+00  -8.039670e+00
  -9.437858e+00  -3.477187e+00
  -3.156515e+01  -4.160806e+01
  -2.283190e+01  -8.289802e+01
   2.571834e+01  -6.687341e+01
   7.554854e+01   1.573459e+01
   7.330728e+01   9.905478e+01
   5.811084e+00   1.038950e+02
  -7.601116e+01   2.338075e+01
  -9.673685e+01  -6.821719e+01
  -3.137581e+01  -9.528997e+01
   6.061679e+01  -5.251318e+01
   9.068973e+01   9.346879e+00
   3.699082e+01   4.600368e+01
  -2.939994e+01   4.828711e+01
  -2.827068e+01   2.658579e+01
   3.168686e+01  -9.628560e-01
   6.406613e+01  -7.410106e+00
   1.417193e+01   2.291960e+01
  -7.212800e+01   6.252661e+01
  -1.057479e+02   5.643383e+01
  -5.908737e+01  -9.820857e+00
   1.317690e+01  -7.707220e+01
   4.752061e+01  -7.430763e+01
   3.400153e+01  -5.702107e+00
   2.263121e+00   5.178021e+01
  -2.312351e+01   4.000779e+01
  -3.403150e+01  -1.645867e+01
  -2.547383e+01  -4.950154e+01
   2.099884e+00  -3.029483e+01
   3.079846e+01   7.387241e+00
   3.700223e+01   1.868977e+01
   1.904705e+01   5.729287e-01
  -8.235621e-01  -1.297487e+01
  -6.198194e+00   3.083677e+00
  -5.588116e+00   3.408080e+01
  -1.479101e+01   4.160507e+01
  -2.985280e+01   7.473666e+00
  -2.865625e+01  -4.131830e+01
   1.076253e+00  -5.651071e+01
   4.101840e+01  -1.972784e+01
   5.285785e+01   3.548509e+01
   1.441546e+01   5.819089e+01
  -5.014165e+01   3.232638e+01
  -8.235286e+01  -1.285939e+01
  -4.610996e+01  -3.993672e+01
   2.598026e+01  -3.808738e+01
   5.959209e+01  -2.073846e+01
   2.224982e+01  -4.815671e+00
  -3.466398e+01  -1.454161e+00
  -3.527849e+01  -1.402570e+01
   2.796854e+01  -2.956052e+01
   8.424381e+01  -1.984115e+01
