
 $NMID
 id='ANONYMOUS ', fmtdat='(2E16.6)'
 volume=1.0
 tramp=1.0
 $END
  -3.479569e+03  -9.714664e+01
  -2.081790e+03  -2.016921e+03
   4.084971e+02  -2.190925e+03
   1.571325e+03  -9.176977e+02
   8.520938e+02   2.518797e+02
  -3.135906e+02   3.531899e+02
  -5.793106e+02  -2.711673e+02
   2.818850e+00  -7.510307e+02
   6.099754e+02  -6.082522e+02
   7.285643e+02   2.895169e+01
   3.839776e+02   6.454556e+02
  -1.334589e+02   7.038839e+02
  -4.411928e+02   1.227162e+02
  -2.766324e+02  -5.339892e+02
   1.957082e+02  -5.895180e+02
   4.676408e+02  -1.828748e+01
   2.454760e+02   5.442457e+02
  -2.235515e+02   5.672471e+02
  -4.852580e+02   1.501336e+02
  -3.697089e+02  -2.538319e+02
  -5.550241e+01  -3.665830e+02
   1.745424e+02  -2.281158e+02
   1.343066e+02  -3.819719e+01
  -1.329675e+02  -2.776863e+00
  -3.106170e+02  -1.810489e+02
  -8.016478e+01  -3.657937e+02
   4.308446e+02  -2.582799e+02
   6.662407e+02   1.344121e+02
   2.913899e+02   4.291924e+02
  -3.370918e+02   3.119300e+02
  -5.733066e+02  -8.934871e+01
  -2.380266e+02  -3.953495e+02
   2.594274e+02  -3.936429e+02
   4.720395e+02  -1.401559e+02
   3.341316e+02   1.873461e+02
   6.013934e+01   3.641361e+02
  -1.160560e+02   2.129406e+02
  -6.321721e+01  -1.466870e+02
   1.648840e+02  -2.763311e+02
   3.021202e+02   7.751445e+01
   1.110603e+02   5.448454e+02
  -2.755807e+02   5.219277e+02
  -4.335846e+02  -1.016860e+01
  -1.669400e+02  -4.087203e+02
   2.121952e+02  -2.097616e+02
   2.548445e+02   2.795366e+02
  -9.203892e+01   4.286864e+02
  -4.602025e+02   7.850466e+01
  -4.848788e+02  -3.676593e+02
  -1.333104e+02  -4.978376e+02
   3.195435e+02  -2.734572e+02
   5.229359e+02   7.641023e+01
   3.180943e+02   3.017813e+02
  -1.019080e+02   2.713821e+02
  -3.394085e+02   5.357015e+01
  -2.064764e+02  -1.134256e+02
   5.632422e+01  -6.087079e+01
   8.875283e+01   9.794734e+01
  -1.251966e+02   1.133551e+02
  -2.641840e+02  -6.283750e+01
  -1.158523e+02  -2.306518e+02
   1.692360e+02  -2.257430e+02
   3.078354e+02  -8.523170e+01
   2.051803e+02   8.767385e+01
  -2.740751e+01   2.429945e+02
  -2.391920e+02   3.064777e+02
  -3.236563e+02   1.659995e+02
  -2.372421e+02  -1.410672e+02
  -4.977201e+01  -3.650958e+02
   7.967618e+01  -3.190294e+02
   7.148285e+01  -1.253007e+02
   2.691063e+01  -3.826180e+01
   8.089449e+01  -8.932305e+01
   2.023746e+02  -8.156932e+01
   2.353335e+02   8.224500e+01
   1.095252e+02   2.430651e+02
  -8.040368e+01   2.042918e+02
  -1.909577e+02  -1.708254e+01
  -1.473076e+02  -2.238759e+02
   3.173882e+01  -2.477668e+02
   2.353736e+02  -7.682535e+01
   3.006903e+02   1.618651e+02
   1.539002e+02   3.002863e+02
  -7.668740e+01   2.588951e+02
  -1.836020e+02   1.189540e+02
  -1.359484e+02   3.264863e+01
  -1.115622e+02   4.306708e+01
  -2.314929e+02   4.131673e+01
  -3.652673e+02  -7.726709e+01
  -2.886803e+02  -2.709418e+02
   2.189860e+01  -3.980794e+02
   3.442566e+02  -3.579267e+02
   4.423076e+02  -1.587779e+02
   2.812540e+02   9.511810e+01
   2.784109e+01   2.493750e+02
  -1.082555e+02   2.028809e+02
  -4.551483e+01   2.850480e+01
   1.050209e+02  -6.670055e+01
   1.500330e+02   2.308225e+01
   2.358467e+01   1.560674e+02
  -1.315624e+02   1.241302e+02
  -1.319333e+02  -5.552507e+01
   2.470222e+01  -1.486432e+02
   1.629936e+02  -1.154316e+01
   1.371839e+02   2.228133e+02
  -3.206625e+01   3.122989e+02
  -2.181276e+02   1.751100e+02
  -3.067343e+02  -6.432714e+01
  -2.457627e+02  -2.327061e+02
  -6.481428e+01  -2.454247e+02
   1.131482e+02  -1.338426e+02
   1.501434e+02  -8.304621e+00
   4.257007e+01   2.293407e+01
  -5.430573e+01  -4.630171e+01
  -9.597322e+00  -1.092264e+02
   1.148220e+02  -7.332833e+01
   1.480968e+02   2.186658e+01
   3.965958e+01   5.983823e+01
  -7.384739e+01   6.362596e-01
  -4.107381e+01  -7.614342e+01
   1.246091e+02  -7.588159e+01
   2.632644e+02   1.659267e+01
   2.318542e+02   1.460334e+02
   3.422742e+01   2.353771e+02
  -1.830240e+02   2.199801e+02
  -2.533831e+02   9.480530e+01
  -1.391166e+02  -4.840408e+01
   2.712772e+01  -8.547268e+01
   7.137751e+01   1.997626e-01
  -4.074378e+01   8.210515e+01
  -1.740117e+02   3.790756e+01
  -1.798574e+02  -9.854406e+01
  -5.205204e+01  -1.813912e+02
   8.685844e+01  -1.312460e+02
   1.230493e+02  -1.759443e+01
   5.250462e+01   3.714967e+01
  -3.145722e+01  -8.284792e+00
  -2.751541e+01  -8.746819e+01
   7.829845e+01  -1.025647e+02
   1.851779e+02  -1.436665e+01
   1.661590e+02   1.209319e+02
   9.448552e+00   1.936822e+02
  -1.492972e+02   1.386936e+02
  -1.675118e+02   3.057869e+00
  -5.210820e+01  -9.683038e+01
   6.090740e+01  -9.241188e+01
   7.049374e+01  -2.319539e+01
   8.696844e+00   2.349435e+01
  -2.668314e+01   1.213119e+01
   8.583244e+00  -1.463836e+01
   7.142603e+01   4.875124e+00
   8.512377e+01   8.021346e+01
   8.172678e+00   1.508399e+02
  -1.246588e+02   1.350999e+02
  -2.137279e+02   1.101955e+01
  -1.746318e+02  -1.440272e+02
  -3.016748e+01  -2.116184e+02
   9.926012e+01  -1.465497e+02
   1.206398e+02  -2.301653e+01
   6.390326e+01   4.700844e+01
   2.727803e+01   3.014367e+01
   4.950294e+01  -1.071920e+01
   7.567758e+01  -4.210585e+00
   4.302695e+01   4.920616e+01
  -3.918414e+01   8.643442e+01
  -1.026554e+02   5.312073e+01
  -8.584968e+01  -3.789770e+01
   1.637009e+01  -1.079273e+02
   1.395456e+02  -7.623272e+01
   1.807033e+02   5.701189e+01
   7.924642e+01   1.893531e+02
  -1.094600e+02   2.009577e+02
  -2.436346e+02   7.414015e+01
  -2.247936e+02  -8.565186e+01
  -9.006431e+01  -1.588857e+02
   3.909606e+01  -1.279726e+02
   8.473608e+01  -7.188593e+01
   6.904310e+01  -6.103646e+01
   5.870749e+01  -8.211000e+01
   8.422477e+01  -6.720251e+01
   1.167317e+02   2.114852e+01
   1.032554e+02   1.416367e+02
   2.009697e+01   2.044669e+02
  -9.381231e+01   1.505900e+02
  -1.565077e+02   1.039784e+01
  -1.158044e+02  -1.154718e+02
  -9.165512e+00  -1.429995e+02
   6.652249e+01  -7.662161e+01
   5.543238e+01   7.420796e+00
  -4.697169e-01   4.347338e+01
  -1.745490e+01   3.154875e+01
   2.831411e+01   1.451701e+01
   7.328441e+01   2.017153e+01
   4.182626e+01   3.638204e+01
  -6.254837e+01   3.314615e+01
  -1.494764e+02  -3.250507e+00
  -1.284357e+02  -5.506874e+01
  -4.649555e+00  -8.435810e+01
   1.166678e+02  -6.364627e+01
   1.313542e+02  -5.119755e+00
   4.087342e+01   4.221664e+01
  -5.503194e+01   3.526961e+01
  -6.901887e+01  -1.843934e+01
  -1.049746e+01  -6.426303e+01
   4.724040e+01  -5.460115e+01
   5.946567e+01   1.225047e+00
   4.483827e+01   4.644110e+01
   4.028760e+01   3.944012e+01
   5.256625e+01   3.251391e+00
   5.907646e+01   2.294619e+00
   3.436921e+01   6.398546e+01
  -3.021456e+01   1.337903e+02
  -1.122363e+02   1.267487e+02
  -1.561321e+02   2.634284e+01
  -1.123849e+02  -8.656514e+01
  -1.070764e+00  -1.170181e+02
   8.191314e+01  -5.705768e+01
   5.477951e+01   1.288470e+01
  -5.323341e+01   1.702546e+01
  -1.211330e+02  -4.129981e+01
  -6.348328e+01  -9.784174e+01
   7.648299e+01  -9.780164e+01
   1.721259e+02  -3.880836e+01
   1.427960e+02   3.729971e+01
   2.856110e+01   7.814104e+01
  -5.790882e+01   5.769647e+01
  -4.410762e+01   1.662898e+00
   3.610599e+01  -2.527607e+01
   8.207123e+01   2.076254e+01
   3.042032e+01   1.061146e+02
  -7.980658e+01   1.377584e+02
  -1.474763e+02   5.651130e+01
  -1.119194e+02  -8.875585e+01
  -8.023315e+00  -1.754478e+02
   7.831008e+01  -1.262217e+02
   9.362610e+01   1.039520e+01
   4.946041e+01   1.084226e+02
  -9.012761e+00   9.407823e+01
  -4.426498e+01   1.469777e+01
  -4.314011e+01  -2.968084e+01
  -1.908674e+01  -7.769866e+00
  -4.869480e+00   1.706240e+01
  -2.255921e+01  -1.673385e+01
  -4.912814e+01  -8.147256e+01
  -3.101576e+01  -9.733127e+01
   4.712890e+01  -3.838962e+01
   1.223238e+02   3.741322e+01
   1.120978e+02   6.585698e+01
   1.511115e+01   4.663539e+01
  -7.620299e+01   1.974310e+01
  -7.874126e+01   4.142992e+00
  -1.251324e+01  -8.724186e+00
   3.328381e+01  -1.886699e+01
   1.546271e+01  -1.365869e+01
  -1.633222e+01   1.984482e+00
   3.680018e+00   6.730901e+00
   6.324934e+01   2.829391e+00
   8.245008e+01   2.229768e+01
   1.191668e+01   7.263235e+01
  -1.038045e+02   1.020721e+02
  -1.690856e+02   5.252540e+01
  -1.309846e+02  -5.933032e+01
  -2.294765e+01  -1.448419e+02
   7.453369e+01  -1.355396e+02
   1.048834e+02  -5.359820e+01
   7.201134e+01   1.985254e+01
   2.239603e+01   3.346130e+01
  -4.179903e-01   9.709016e+00
   1.073128e+01   5.805311e+00
   2.755779e+01   4.326532e+01
   1.642922e+01   8.184161e+01
  -2.768485e+01   6.386597e+01
  -7.131126e+01  -1.662069e+01
  -6.846355e+01  -9.575828e+01
  -6.186926e+00  -1.000279e+02
   7.103338e+01  -2.354560e+01
   9.230549e+01   6.493385e+01
   3.050200e+01   9.334050e+01
  -5.957423e+01   5.265509e+01
  -9.039027e+01  -1.056927e+01
  -3.719603e+01  -4.949395e+01
   3.106961e+01  -5.031287e+01
   3.260438e+01  -2.522225e+01
  -2.703481e+01   2.195926e+00
  -6.193523e+01   5.729577e+00
  -1.447760e+01  -2.377455e+01
   7.205857e+01  -5.755972e+01
   1.073507e+02  -4.803739e+01
   6.041430e+01   1.414731e+01
  -1.472714e+01   7.518730e+01
  -5.132392e+01   7.200986e+01
  -3.689097e+01   7.634989e+00
  -2.856349e+00  -4.856835e+01
   2.293590e+01  -4.041554e+01
   3.251057e+01   1.352405e+01
   2.375422e+01   4.887523e+01
  -2.166589e+00   3.253521e+01
  -2.968301e+01  -6.693644e+00
  -3.629043e+01  -2.156383e+01
  -1.859979e+01  -3.051974e+00
   1.816469e+00   1.526763e+01
   6.157058e+00   2.558312e+00
   1.927225e+00  -3.056985e+01
   8.762532e+00  -4.334078e+01
   2.664187e+01  -1.265899e+01
   3.107443e+01   3.640084e+01
   3.730403e+00   5.408173e+01
  -3.846862e+01   1.997391e+01
  -5.278451e+01  -3.344938e+01
  -1.417863e+01  -5.566324e+01
   5.079545e+01  -3.047817e+01
   8.148253e+01   1.363502e+01
   4.409459e+01   4.008859e+01
  -2.649569e+01   3.824057e+01
  -5.880544e+01   2.107745e+01
  -2.395763e+01   4.875392e+00
   2.941938e+01   2.060865e-01
   3.165874e+01   1.063751e+01
  -2.479971e+01   2.483479e+01
  -7.646316e+01   1.659655e+01
