
 $NMID
 id='ANONYMOUS ', fmtdat='(2E16.6)'
 volume=1.0
 tramp=1.0
 $END
   2.661958e+03  -1.071215e+02
   1.716670e+03   1.402977e+03
  -1.476795e+02   1.692581e+03
  -1.120249e+03   8.336982e+02
  -6.829900e+02  -8.576514e+01
   1.756130e+02  -2.646024e+02
   4.303955e+02   1.576121e+02
   4.240676e+01   5.519779e+02
  -4.185875e+02   4.963488e+02
  -5.526574e+02   3.061328e+01
  -3.356928e+02  -4.602516e+02
   4.801883e+01  -5.428205e+02
   3.150126e+02  -1.256003e+02
   2.359252e+02   3.824861e+02
  -1.104035e+02   4.588624e+02
  -3.515645e+02   4.630089e+01
  -2.247780e+02  -4.000618e+02
   1.295630e+02  -4.576809e+02
   3.645865e+02  -1.587682e+02
   3.089070e+02   1.659154e+02
   7.251701e+01   2.796119e+02
  -1.158224e+02   1.876623e+02
  -9.282979e+01   4.181538e+01
   1.104582e+02   8.679970e+00
   2.449841e+02   1.384525e+02
   6.664146e+01   2.790320e+02
  -3.267469e+02   2.080547e+02
  -5.138461e+02  -7.870095e+01
  -2.365629e+02  -3.085509e+02
   2.439372e+02  -2.424684e+02
   4.381360e+02   4.714866e+01
   1.966401e+02   2.897916e+02
  -1.818234e+02   3.113180e+02
  -3.558124e+02   1.302102e+02
  -2.659799e+02  -1.243929e+02
  -6.773273e+01  -2.709585e+02
   6.737386e+01  -1.659305e+02
   4.150409e+01   1.030617e+02
  -1.167047e+02   2.055665e+02
  -2.240942e+02  -5.458910e+01
  -9.915857e+01  -4.093902e+02
   1.841425e+02  -4.059336e+02
   3.209579e+02  -1.440063e+01
   1.424559e+02   2.950323e+02
  -1.455685e+02   1.626946e+02
  -1.997084e+02  -2.028988e+02
   5.312517e+01  -3.306384e+02
   3.499491e+02  -8.039293e+01
   3.933205e+02   2.608585e+02
   1.308940e+02   3.779587e+02
  -2.306609e+02   2.264457e+02
  -4.073518e+02  -3.130592e+01
  -2.638348e+02  -2.103725e+02
   5.775275e+01  -2.084095e+02
   2.524241e+02  -6.223929e+01
   1.663073e+02   6.539053e+01
  -3.162230e+01   4.416209e+01
  -6.760355e+01  -6.450743e+01
   8.779817e+01  -8.597975e+01
   2.021134e+02   3.348465e+01
   1.020911e+02   1.671353e+02
  -1.169225e+02   1.857820e+02
  -2.384550e+02   8.889496e+01
  -1.718962e+02  -5.851967e+01
   7.654083e+00  -2.005757e+02
   1.775943e+02  -2.580104e+02
   2.488023e+02  -1.439283e+02
   1.902111e+02   1.007306e+02
   5.613994e+01   2.791324e+02
  -3.972074e+01   2.500433e+02
  -4.156143e+01   1.066774e+02
  -1.927424e+01   4.075172e+01
  -6.625209e+01   7.742443e+01
  -1.598048e+02   6.948626e+01
  -1.871572e+02  -5.776164e+01
  -9.374848e+01  -1.849651e+02
   5.463576e+01  -1.602512e+02
   1.486644e+02   7.560928e+00
   1.230213e+02   1.690526e+02
  -1.498190e+01   1.934554e+02
  -1.799924e+02   6.867041e+01
  -2.413137e+02  -1.121211e+02
  -1.355855e+02  -2.242356e+02
   4.299174e+01  -2.045315e+02
   1.333490e+02  -1.058231e+02
   1.046958e+02  -3.886689e+01
   8.931651e+01  -4.283746e+01
   1.839127e+02  -4.302446e+01
   2.930573e+02   4.434036e+01
   2.411317e+02   1.992200e+02
   2.189048e+00   3.146433e+02
  -2.540290e+02   2.992990e+02
  -3.395210e+02   1.465731e+02
  -2.228050e+02  -6.076706e+01
  -3.222003e+01  -1.917480e+02
   7.182687e+01  -1.609947e+02
   2.869653e+01  -2.513751e+01
  -8.011120e+01   5.279771e+01
  -1.142649e+02  -1.304399e+01
  -2.324889e+01  -1.175145e+02
   9.375872e+01  -9.915941e+01
   1.012273e+02   3.638722e+01
  -1.272609e+01   1.134705e+02
  -1.252635e+02   1.498986e+01
  -1.189505e+02  -1.672373e+02
   7.649557e+00  -2.471709e+02
   1.633741e+02  -1.510401e+02
   2.478411e+02   3.398588e+01
   2.065126e+02   1.723010e+02
   6.151644e+01   1.911593e+02
  -8.344085e+01   1.100042e+02
  -1.157959e+02   1.317752e+01
  -3.271911e+01  -1.443424e+01
   4.386381e+01   3.557130e+01
   1.058209e+01   8.482187e+01
  -8.678326e+01   6.116478e+01
  -1.153305e+02  -1.069658e+01
  -3.211134e+01  -4.374539e+01
   5.854199e+01  -2.023974e+00
   3.517525e+01   5.964309e+01
  -9.636011e+01   6.677015e+01
  -2.103632e+02  -7.075481e-01
  -1.903544e+02  -1.054290e+02
  -3.687473e+01  -1.846974e+02
   1.347333e+02  -1.810934e+02
   1.936325e+02  -8.564418e+01
   1.094673e+02   3.045771e+01
  -1.747947e+01   6.618955e+01
  -5.409004e+01   2.366600e+00
   2.961867e+01  -6.521260e+01
   1.343992e+02  -3.684667e+01
   1.448550e+02   6.839278e+01
   4.941505e+01   1.385737e+02
  -6.112513e+01   1.061131e+02
  -9.449525e+01   1.925456e+01
  -4.123312e+01  -2.617747e+01
   2.665534e+01   6.871155e+00
   2.565517e+01   6.992799e+01
  -5.851552e+01   8.572221e+01
  -1.465929e+02   1.984405e+01
  -1.367547e+02  -8.763134e+01
  -1.674202e+01  -1.514967e+02
   1.096992e+02  -1.160416e+02
   1.301518e+02  -1.159977e+01
   4.521968e+01   7.187397e+01
  -4.274201e+01   7.459921e+01
  -5.319034e+01   2.142878e+01
  -6.573503e+00  -1.805102e+01
   2.182912e+01  -1.021667e+01
  -5.824913e+00   1.355335e+01
  -5.814664e+01   9.793240e-01
  -7.302858e+01  -5.955839e+01
  -1.422693e+01  -1.202217e+02
   9.268102e+01  -1.134648e+02
   1.686380e+02  -1.868724e+01
   1.446545e+02   1.052220e+02
   3.454720e+01   1.645927e+02
  -6.988636e+01   1.199039e+02
  -9.329443e+01   2.485860e+01
  -5.311817e+01  -3.263396e+01
  -2.355131e+01  -2.168596e+01
  -3.867858e+01   1.131285e+01
  -6.020381e+01   7.462412e+00
  -3.791742e+01  -3.714834e+01
   2.601793e+01  -7.194861e+01
   7.995076e+01  -4.864800e+01
   7.176581e+01   2.604218e+01
  -7.432194e+00   8.785692e+01
  -1.080802e+02   6.811046e+01
  -1.465600e+02  -3.670501e+01
  -7.126602e+01  -1.464140e+02
   7.745421e+01  -1.638986e+02
   1.884745e+02  -7.009610e+01
   1.807326e+02   5.614151e+01
   7.844403e+01   1.199305e+02
  -2.421709e+01   1.021854e+02
  -6.249280e+01   6.079361e+01
  -5.034367e+01   5.181528e+01
  -4.116778e+01   6.820764e+01
  -6.267491e+01   5.801874e+01
  -9.354796e+01  -1.009159e+01
  -8.919278e+01  -1.062366e+02
  -2.648070e+01  -1.602483e+02
   6.618153e+01  -1.233144e+02
   1.224993e+02  -1.568104e+01
   9.664342e+01   8.547818e+01
   1.393333e+01   1.120758e+02
  -4.918457e+01   6.299855e+01
  -4.442872e+01  -4.212116e+00
  -1.224555e+00  -3.534225e+01
   1.351881e+01  -2.602481e+01
  -2.232241e+01  -9.423909e+00
  -5.937313e+01  -1.154280e+01
  -3.544696e+01  -2.663260e+01
   4.842957e+01  -2.982274e+01
   1.195939e+02  -5.048009e+00
   1.044788e+02   3.769407e+01
   6.801336e+00   6.723704e+01
  -8.993216e+01   5.646940e+01
  -1.034730e+02   1.033505e+01
  -3.418093e+01  -3.198578e+01
   4.151451e+01  -3.134652e+01
   5.566574e+01   1.077220e+01
   1.274653e+01   5.059801e+01
  -3.348651e+01   4.631187e+01
  -4.746567e+01   2.647395e+00
  -3.910091e+01  -3.426111e+01
  -3.433121e+01  -2.909398e+01
  -4.114571e+01   2.737075e-01
  -4.665590e+01   1.310902e+00
  -3.140044e+01  -4.907133e+01
   1.613270e+01  -1.078709e+02
   8.262659e+01  -1.065526e+02
   1.233174e+02  -2.925690e+01
   9.405212e+01   6.263115e+01
   6.746702e+00   9.297723e+01
  -6.218201e+01   5.016195e+01
  -4.413982e+01  -6.843031e+00
   4.101794e+01  -1.634358e+01
   9.748534e+01   2.594736e+01
   5.485443e+01   7.375095e+01
  -5.541248e+01   8.098822e+01
  -1.336157e+02   3.910508e+01
  -1.141495e+02  -2.245753e+01
  -2.610491e+01  -6.002086e+01
   4.294194e+01  -4.782325e+01
   3.470754e+01  -2.909977e+00
  -2.725814e+01   2.226428e+01
  -6.608813e+01  -1.169465e+01
  -3.034043e+01  -8.182634e+01
   5.446927e+01  -1.131466e+02
   1.124511e+02  -5.326752e+01
   9.307666e+01   6.317912e+01
   1.631495e+01   1.375234e+02
  -5.469853e+01   1.034792e+02
  -7.439168e+01  -3.598319e+00
  -4.434956e+01  -8.312616e+01
   3.085398e+00  -7.442422e+01
   3.466995e+01  -1.350014e+01
   3.504910e+01   2.122334e+01
   1.467146e+01   5.028504e+00
   3.110239e+00  -1.346138e+01
   1.958402e+01   1.250541e+01
   4.333809e+01   6.177603e+01
   2.881088e+01   7.477712e+01
  -3.593169e+01   3.260366e+01
  -9.829741e+01  -2.273814e+01
  -9.135362e+01  -4.580107e+01
  -1.451963e+01  -3.629292e+01
   5.839101e+01  -1.999501e+01
   6.174073e+01  -7.333874e+00
   1.093691e+01   6.562891e+00
  -2.487812e+01   1.659003e+01
  -1.195142e+01   1.115153e+01
   1.219314e+01  -2.643896e+00
  -3.004276e+00  -4.810615e+00
  -4.936703e+01   1.616014e+00
  -6.640493e+01  -1.291319e+01
  -1.453747e+01  -5.669781e+01
   7.535666e+01  -8.653133e+01
   1.307899e+02  -5.140563e+01
   1.075799e+02   3.885019e+01
   2.659428e+01   1.127935e+02
  -5.153635e+01   1.115206e+02
  -8.005642e+01   4.867765e+01
  -5.790762e+01  -1.152273e+01
  -1.965176e+01  -2.541474e+01
  -6.975499e-01  -8.056924e+00
  -9.126138e+00  -4.377348e+00
  -2.386188e+01  -3.296639e+01
  -1.698838e+01  -6.381720e+01
   1.837443e+01  -5.193293e+01
   5.693519e+01   8.912783e+00
   5.951017e+01   7.121954e+01
   1.124140e+01   7.840788e+01
  -5.407186e+01   2.319213e+01
  -7.661260e+01  -4.523319e+01
  -2.991571e+01  -7.192570e+01
   4.387292e+01  -4.560157e+01
   7.244924e+01   2.982329e+00
   3.268609e+01   3.766343e+01
  -2.186736e+01   4.230209e+01
  -2.513865e+01   2.182236e+01
   2.049489e+01  -3.671596e+00
   4.847448e+01  -8.115606e+00
   1.304668e+01   1.815203e+01
  -5.365845e+01   4.933349e+01
  -8.260656e+01   4.333087e+01
  -4.913968e+01  -8.275158e+00
   7.293579e+00  -6.033101e+01
   3.699655e+01  -6.000922e+01
   2.938446e+01  -8.722912e+00
   5.419676e+00   3.783442e+01
  -1.567348e+01   3.363243e+01
  -2.641117e+01  -8.174173e+00
  -2.161661e+01  -3.724610e+01
  -2.920728e-01  -2.640991e+01
   2.380713e+01   3.336483e+00
   3.005426e+01   1.540366e+01
   1.488662e+01   1.721570e+00
  -2.575518e+00  -1.244797e+01
  -5.033645e+00  -2.691389e+00
   1.061055e+00   2.377839e+01
  -3.148786e+00   3.533087e+01
  -1.980426e+01   1.269075e+01
  -2.743023e+01  -2.608997e+01
  -7.235431e+00  -4.231616e+01
   2.885933e+01  -1.832946e+01
   4.403565e+01   2.291535e+01
   1.470740e+01   4.289147e+01
  -3.858879e+01   2.705450e+01
  -6.545580e+01  -5.891557e+00
  -3.717930e+01  -2.913506e+01
   1.876813e+01  -3.207733e+01
   4.528125e+01  -2.048971e+01
   1.905415e+01  -5.378398e+00
  -2.243082e+01   1.915313e+00
  -2.516707e+01  -5.844534e+00
   1.756562e+01  -2.042245e+01
   5.829625e+01  -1.738392e+01
