
 $NMID
 id='ANONYMOUS ', fmtdat='(2E16.6)'
 volume=1.0
 tramp=1.0
 $END
  -4.209150e+03   1.656852e+02
  -2.525821e+03  -2.432518e+03
   6.275431e+02  -2.662526e+03
   1.993494e+03  -9.012496e+02
   8.971505e+02   6.116289e+02
  -6.438252e+02   5.615234e+02
  -8.737373e+02  -4.137651e+02
  -1.259964e+01  -1.038819e+03
   7.832833e+02  -7.751610e+02
   9.064357e+02   7.024442e+01
   4.543453e+02   8.218289e+02
  -2.118343e+02   8.616814e+02
  -6.143657e+02   1.205191e+02
  -3.912270e+02  -6.913251e+02
   2.408827e+02  -7.325265e+02
   5.873531e+02  -8.126200e+00
   2.833337e+02   6.493822e+02
  -2.890989e+02   6.167539e+02
  -5.521464e+02   1.044362e+02
  -3.792391e+02  -3.231851e+02
  -2.950061e+01  -4.162064e+02
   2.245456e+02  -2.594244e+02
   2.042232e+02  -1.783549e+01
  -1.131575e+02   9.598345e+01
  -4.084544e+02  -9.217282e+01
  -2.133922e+02  -4.179940e+02
   4.354159e+02  -4.249932e+02
   8.326790e+02   4.199447e+01
   4.362774e+02   5.236441e+02
  -3.711698e+02   4.881178e+02
  -7.307053e+02  -8.751822e+00
  -3.552411e+02  -4.590016e+02
   2.562668e+02  -5.158591e+02
   5.426024e+02  -2.177500e+02
   4.112612e+02   2.062370e+02
   8.249437e+01   4.578765e+02
  -1.873764e+02   2.781170e+02
  -1.749779e+02  -2.146581e+02
   1.515614e+02  -4.370342e+02
   4.430854e+02   5.233369e+00
   2.652845e+02   6.614428e+02
  -2.882494e+02   6.963398e+02
  -5.908015e+02   2.007771e+01
  -2.697092e+02  -5.352116e+02
   2.780033e+02  -3.207153e+02
   3.906579e+02   3.047267e+02
  -4.478737e+01   5.370598e+02
  -5.346661e+02   1.555569e+02
  -5.937366e+02  -3.688948e+02
  -1.842573e+02  -5.589104e+02
   3.573656e+02  -3.504635e+02
   6.123782e+02   4.630543e+01
   3.742867e+02   3.574597e+02
  -1.399721e+02   3.584996e+02
  -4.281020e+02   6.750719e+01
  -2.360227e+02  -1.838185e+02
   1.169121e+02  -1.064674e+02
   1.449593e+02   1.490054e+02
  -1.574258e+02   1.902306e+02
  -3.416511e+02  -6.044146e+01
  -1.470689e+02  -2.865671e+02
   1.869325e+02  -2.574604e+02
   3.118892e+02  -8.365672e+01
   1.897220e+02   6.950703e+01
  -1.003500e+01   2.106430e+02
  -1.898797e+02   3.234495e+02
  -3.129176e+02   2.301976e+02
  -2.900882e+02  -1.166765e+02
  -9.685033e+01  -4.188809e+02
   9.703109e+01  -3.750760e+02
   1.127172e+02  -1.084266e+02
   1.960806e+01   1.430155e+01
   3.093089e+01  -8.805488e+01
   1.801702e+02  -1.407211e+02
   2.748277e+02   3.355158e+01
   1.705061e+02   2.543226e+02
  -5.624412e+01   2.547924e+02
  -2.220602e+02   2.372796e+01
  -2.060784e+02  -2.229287e+02
  -5.949814e+00  -2.873779e+02
   2.525429e+02  -1.281658e+02
   3.579879e+02   1.431762e+02
   1.966945e+02   3.303351e+02
  -8.296107e+01   3.000014e+02
  -2.131934e+02   1.244484e+02
  -1.417870e+02   9.178070e+00
  -8.936501e+01   3.864015e+01
  -2.185511e+02   7.721645e+01
  -3.865920e+02  -3.108260e+01
  -3.334537e+02  -2.543032e+02
  -2.231440e+01  -4.240098e+02
   3.212640e+02  -4.151322e+02
   4.573264e+02  -2.186921e+02
   3.295418e+02   7.298207e+01
   6.799557e+01   2.825736e+02
  -1.156148e+02   2.508862e+02
  -8.056559e+01   2.950349e+01
   1.021301e+02  -1.132825e+02
   1.940439e+02  -3.689233e+00
   5.893980e+01   1.906738e+02
  -1.514843e+02   1.758731e+02
  -1.792375e+02  -5.219076e+01
   8.411033e+00  -1.905124e+02
   1.883097e+02  -4.234571e+01
   1.698519e+02   2.300587e+02
  -1.314737e+01   3.355883e+02
  -2.090324e+02   1.951467e+02
  -3.120796e+02  -4.206771e+01
  -2.776517e+02  -2.113012e+02
  -1.066835e+02  -2.470379e+02
   9.972895e+01  -1.610144e+02
   1.712695e+02  -2.920525e+01
   5.892089e+01   3.008958e+01
  -7.101886e+01  -3.253960e+01
  -3.664088e+01  -1.204259e+02
   1.148669e+02  -1.044413e+02
   1.745879e+02   3.097607e+00
   6.083851e+01   6.894343e+01
  -7.670597e+01   2.228927e+01
  -5.865170e+01  -6.601026e+01
   1.109139e+02  -8.991205e+01
   2.673758e+02  -1.672636e+01
   2.594303e+02   1.171285e+02
   7.348325e+01   2.401795e+02
  -1.611232e+02   2.615355e+02
  -2.664847e+02   1.374177e+02
  -1.678168e+02  -4.210901e+01
   1.847214e+01  -1.090820e+02
   8.945151e+01  -1.281028e+01
  -2.497290e+01   1.014349e+02
  -1.858221e+02   6.900264e+01
  -2.116385e+02  -8.743454e+01
  -7.769314e+01  -1.973600e+02
   8.327069e+01  -1.578506e+02
   1.383926e+02  -3.569116e+01
   7.163914e+01   3.759655e+01
  -2.608178e+01   7.298564e+00
  -4.217869e+01  -7.486497e+01
   5.911137e+01  -1.116278e+02
   1.858250e+02  -4.033106e+01
   1.902437e+02   1.060569e+02
   3.281224e+01   2.078711e+02
  -1.495364e+02   1.664424e+02
  -1.867647e+02   1.523042e+01
  -6.872829e+01  -1.084153e+02
   5.903984e+01  -1.117118e+02
   7.964543e+01  -3.376140e+01
   2.074198e+01   2.482119e+01
  -1.847310e+01   2.062462e+01
   7.955611e+00  -6.387774e+00
   6.525382e+01   4.425453e+00
   8.677077e+01   7.083314e+01
   2.420158e+01   1.473498e+02
  -1.093173e+02   1.519098e+02
  -2.201741e+02   3.920016e+01
  -2.011477e+02  -1.306623e+02
  -5.300199e+01  -2.243067e+02
   9.568354e+01  -1.683034e+02
   1.284779e+02  -3.263224e+01
   6.935332e+01   5.015077e+01
   2.826546e+01   3.301262e+01
   4.966243e+01  -1.430514e+01
   7.445574e+01  -1.072335e+01
   4.134818e+01   4.329446e+01
  -3.449604e+01   8.354185e+01
  -9.122616e+01   5.771344e+01
  -8.118299e+01  -2.674355e+01
   5.128685e+00  -1.033462e+02
   1.266923e+02  -8.989562e+01
   1.892609e+02   3.510626e+01
   1.086578e+02   1.846361e+02
  -8.630245e+01   2.242500e+02
  -2.484855e+02   1.077055e+02
  -2.508889e+02  -6.745474e+01
  -1.147100e+02  -1.632328e+02
   2.910216e+01  -1.430981e+02
   8.612608e+01  -8.522614e+01
   7.254960e+01  -6.969827e+01
   5.907474e+01  -8.897914e+01
   8.341289e+01  -7.454940e+01
   1.220580e+02   1.415266e+01
   1.195176e+02   1.394882e+02
   4.059717e+01   2.128124e+02
  -8.431772e+01   1.692945e+02
  -1.663308e+02   2.970088e+01
  -1.372556e+02  -1.080605e+02
  -2.766430e+01  -1.512534e+02
   5.872727e+01  -9.278014e+01
   5.760622e+01  -5.368537e+00
   8.320885e+00   3.967435e+01
  -6.557075e+00   3.408746e+01
   3.560508e+01   1.640814e+01
   7.538999e+01   1.741637e+01
   4.395504e+01   3.326312e+01
  -5.725675e+01   3.855410e+01
  -1.479657e+02   1.260203e+01
  -1.387456e+02  -3.965143e+01
  -2.119714e+01  -8.299471e+01
   1.088384e+02  -7.735804e+01
   1.369832e+02  -2.126528e+01
   4.896496e+01   3.554579e+01
  -5.448320e+01   3.812072e+01
  -7.251197e+01  -1.380761e+01
  -1.038125e+01  -6.309902e+01
   4.985169e+01  -5.647038e+01
   5.922709e+01  -1.385053e+00
   4.329968e+01   4.407872e+01
   4.299364e+01   3.684571e+01
   5.850752e+01  -6.785326e-01
   6.264165e+01  -2.873623e+00
   3.640260e+01   6.103368e+01
  -2.323482e+01   1.382612e+02
  -1.011878e+02   1.395960e+02
  -1.517939e+02   4.109499e+01
  -1.207831e+02  -7.856970e+01
  -1.377821e+01  -1.183793e+02
   7.681419e+01  -6.243906e+01
   5.690666e+01   1.112319e+01
  -5.476614e+01   2.199725e+01
  -1.323208e+02  -3.402802e+01
  -7.785342e+01  -9.768011e+01
   7.005847e+01  -1.109410e+02
   1.782234e+02  -5.991919e+01
   1.564518e+02   2.294930e+01
   4.040203e+01   8.043973e+01
  -5.406496e+01   7.060533e+01
  -4.652616e+01   1.027171e+01
   3.471501e+01  -2.724099e+01
   8.628648e+01   1.644278e+01
   3.675237e+01   1.099779e+02
  -7.875762e+01   1.495427e+02
  -1.548532e+02   6.654085e+01
  -1.243674e+02  -8.878662e+01
  -1.951653e+01  -1.859028e+02
   7.349975e+01  -1.407506e+02
   9.948592e+01   3.490579e-01
   6.424811e+01   1.082598e+02
   4.754793e+00   1.017128e+02
  -4.208275e+01   2.238151e+01
  -5.142546e+01  -2.700839e+01
  -2.563766e+01  -7.428655e+00
  -2.649057e+00   2.002817e+01
  -1.982001e+01  -1.197169e+01
  -5.722005e+01  -8.032089e+01
  -4.609402e+01  -1.020605e+02
   4.123735e+01  -4.600562e+01
   1.326936e+02   3.030049e+01
   1.269265e+02   6.074911e+01
   1.937552e+01   4.563770e+01
  -8.223124e+01   2.477222e+01
  -8.329924e+01   1.194198e+01
  -1.033470e+01  -5.587921e+00
   3.563843e+01  -2.292285e+01
   1.227430e+01  -1.871609e+01
  -2.049762e+01   1.905612e+00
   5.892201e+00   8.762868e+00
   7.059466e+01   7.822151e-01
   8.722980e+01   1.788163e+01
   1.097461e+01   7.429628e+01
  -1.065768e+02   1.126121e+02
  -1.710905e+02   6.399104e+01
  -1.353384e+02  -5.633103e+01
  -3.176683e+01  -1.511103e+02
   6.630828e+01  -1.448118e+02
   1.038875e+02  -6.045732e+01
   7.687616e+01   1.640581e+01
   2.527718e+01   3.173854e+01
  -2.569277e+00   7.621486e+00
   9.774446e+00   2.673067e+00
   3.398799e+01   4.120083e+01
   2.651677e+01   8.381145e+01
  -2.382999e+01   6.892753e+01
  -7.735170e+01  -1.381322e+01
  -7.735802e+01  -9.849544e+01
  -8.710269e+00  -1.049532e+02
   7.646677e+01  -2.534866e+01
   9.987397e+01   6.658986e+01
   3.462690e+01   9.534112e+01
  -5.943540e+01   5.474908e+01
  -9.188239e+01  -6.260691e+00
  -3.926794e+01  -4.458357e+01
   2.747745e+01  -4.957427e+01
   2.717409e+01  -2.853820e+01
  -3.236668e+01   1.184343e+00
  -6.482984e+01   9.532512e+00
  -1.511958e+01  -2.244976e+01
   7.129305e+01  -6.608134e+01
   1.056182e+02  -6.179015e+01
   6.028081e+01   7.119946e+00
  -1.075428e+01   7.856418e+01
  -4.518221e+01   7.730681e+01
  -3.337400e+01   7.019728e+00
  -3.461561e+00  -5.245195e+01
   2.192612e+01  -4.098696e+01
   3.462268e+01   1.607707e+01
   2.746415e+01   4.934929e+01
  -7.735972e-01   3.027935e+01
  -3.132802e+01  -6.672242e+00
  -3.840950e+01  -1.728837e+01
  -1.962467e+01   3.442385e-01
   1.451335e+00   1.257566e+01
   6.956821e+00  -4.104310e+00
   5.513856e+00  -3.448666e+01
   1.411406e+01  -4.129143e+01
   2.953075e+01  -7.330076e+00
   2.919585e+01   4.101216e+01
  -2.274027e-01   5.661261e+01
  -4.098526e+01   2.083917e+01
  -5.414581e+01  -3.427974e+01
  -1.613213e+01  -5.852671e+01
   4.960311e+01  -3.459018e+01
   8.361822e+01   1.022206e+01
   4.808569e+01   3.895877e+01
  -2.480503e+01   3.928474e+01
  -5.939854e+01   2.271678e+01
  -2.200196e+01   5.829833e+00
   3.552776e+01   1.238275e+00
   3.602908e+01   1.395027e+01
  -2.831361e+01   3.092213e+01
  -8.576344e+01   2.213698e+01
