
 $NMID
 id='ANONYMOUS ', fmtdat='(2E16.6)'
 volume=1.0
 tramp=1.0
 $END
   3.020411e+03   1.357125e+02
   1.914972e+03   1.650813e+03
  -1.254213e+02   1.927560e+03
  -1.253208e+03   1.064416e+03
  -8.851136e+02   7.679650e+01
   2.449964e+01  -2.264048e+02
   3.786405e+02   1.234266e+02
   3.168157e+01   5.439739e+02
  -4.583244e+02   5.320372e+02
  -6.170540e+02   4.489690e+01
  -3.799420e+02  -5.077066e+02
   3.554606e+01  -6.145306e+02
   3.115029e+02  -1.585444e+02
   2.246220e+02   4.090170e+02
  -1.342610e+02   5.079540e+02
  -3.889496e+02   5.400758e+01
  -2.539913e+02  -4.691987e+02
   1.524459e+02  -5.654953e+02
   4.482201e+02  -2.197382e+02
   3.936972e+02   1.914867e+02
   9.813960e+01   3.413242e+02
  -1.294463e+02   2.227071e+02
  -8.143702e+01   6.664734e+01
   1.505100e+02   8.140152e+01
   2.457476e+02   2.457737e+02
  -9.706022e+00   3.284282e+02
  -4.272201e+02   1.487703e+02
  -5.583772e+02  -1.811444e+02
  -2.067186e+02  -3.497969e+02
   3.014646e+02  -1.946981e+02
   4.674122e+02   1.284290e+02
   1.709475e+02   3.440165e+02
  -2.509906e+02   3.202804e+02
  -4.248426e+02   1.053494e+02
  -2.940382e+02  -1.619882e+02
  -6.472064e+01  -2.988068e+02
   4.903778e+01  -1.770888e+02
  -1.774722e+01   8.762729e+01
  -1.633051e+02   1.605510e+02
  -1.971871e+02  -1.213600e+02
  -1.611850e+01  -4.593652e+02
   2.463096e+02  -4.123315e+02
   3.207187e+02   9.085506e+00
   1.127010e+02   3.090137e+02
  -1.519345e+02   1.390310e+02
  -1.659244e+02  -2.533052e+02
   1.120374e+02  -3.591204e+02
   4.117900e+02  -4.096072e+01
   4.318434e+02   3.575522e+02
   1.211250e+02   4.616048e+02
  -2.870818e+02   2.372106e+02
  -4.740267e+02  -7.835749e+01
  -3.016923e+02  -2.527611e+02
   5.848509e+01  -2.174100e+02
   2.778962e+02  -6.359364e+01
   2.000934e+02   4.931831e+01
  -2.982193e+00   3.117775e+01
  -5.268107e+01  -5.281610e+01
   9.498757e+01  -6.117616e+01
   2.140846e+02   5.240319e+01
   1.079042e+02   1.879620e+02
  -1.511101e+02   2.178564e+02
  -3.154787e+02   1.037435e+02
  -2.305342e+02  -9.931821e+01
   3.488908e+01  -2.818402e+02
   2.781000e+02  -3.140024e+02
   3.374184e+02  -1.329059e+02
   2.086190e+02   1.553119e+02
   3.090626e+01   3.324408e+02
  -5.233097e+01   2.913262e+02
  -3.588934e+01   1.506983e+02
  -3.563710e+01   8.495701e+01
  -1.230124e+02   9.522530e+01
  -2.238694e+02   4.299166e+01
  -2.140130e+02  -1.149536e+02
  -7.430501e+01  -2.370910e+02
   9.310354e+01  -1.735462e+02
   1.722921e+02   4.242157e+01
   1.142432e+02   2.257851e+02
  -5.228615e+01   2.254259e+02
  -2.259802e+02   4.816616e+01
  -2.725161e+02  -1.693875e+02
  -1.395078e+02  -2.803754e+02
   6.187047e+01  -2.401609e+02
   1.621086e+02  -1.293209e+02
   1.374007e+02  -5.994899e+01
   1.339195e+02  -5.227312e+01
   2.495676e+02  -2.211314e+01
   3.652818e+02   1.031842e+02
   2.751593e+02   2.830969e+02
  -4.190815e+01   3.935574e+02
  -3.616118e+02   3.399589e+02
  -4.405759e+02   1.353630e+02
  -2.567346e+02  -1.037020e+02
  -7.747182e+00  -2.298567e+02
   9.598751e+01  -1.770910e+02
   1.696218e+01  -3.287711e+01
  -1.070142e+02   3.496614e+01
  -1.196223e+02  -3.791009e+01
  -3.479419e+00  -1.314043e+02
   1.129416e+02  -9.315866e+01
   1.005691e+02   5.277103e+01
  -3.097880e+01   1.206180e+02
  -1.472230e+02  -5.532259e+00
  -1.259843e+02  -2.196680e+02
   3.505599e+01  -3.077792e+02
   2.276000e+02  -1.752079e+02
   3.181979e+02   7.288092e+01
   2.391673e+02   2.495806e+02
   4.310132e+01   2.506084e+02
  -1.226308e+02   1.213437e+02
  -1.379737e+02  -1.377624e+00
  -3.220564e+01  -1.530600e+01
   4.400831e+01   5.683913e+01
  -7.457387e+00   1.030675e+02
  -1.153946e+02   5.547934e+01
  -1.327094e+02  -3.097042e+01
  -2.676048e+01  -5.216893e+01
   7.370179e+01   1.426394e+01
   3.088085e+01   8.554952e+01
  -1.380325e+02   7.215188e+01
  -2.710891e+02  -3.407895e+01
  -2.241654e+02  -1.659393e+02
  -1.302057e+01  -2.388377e+02
   1.985132e+02  -2.019296e+02
   2.479888e+02  -7.485902e+01
   1.232588e+02   4.853549e+01
  -3.077504e+01   7.033224e+01
  -5.884778e+01  -7.134095e+00
   5.139244e+01  -7.057715e+01
   1.689848e+02  -2.154273e+01
   1.651745e+02   1.032057e+02
   4.147955e+01   1.729284e+02
  -8.697934e+01   1.185436e+02
  -1.142239e+02   9.246255e+00
  -4.049442e+01  -3.525724e+01
   3.694006e+01   2.074670e+01
   1.946908e+01   1.002167e+02
  -9.330361e+01   1.020172e+02
  -1.913330e+02   1.047956e+00
  -1.580266e+02  -1.308192e+02
   8.058215e-01  -1.892128e+02
   1.487758e+02  -1.282189e+02
   1.584430e+02  -1.086577e+00
   4.532014e+01   8.855603e+01
  -6.039571e+01   8.301753e+01
  -6.457173e+01   1.888575e+01
  -4.865407e-02  -2.245321e+01
   3.385896e+01  -6.232230e+00
  -9.360436e+00   2.258776e+01
  -8.016612e+01  -2.825483e+00
  -9.060989e+01  -8.821546e+01
  -1.235720e+00  -1.596623e+02
   1.368245e+02  -1.317431e+02
   2.163765e+02   2.796591e+00
   1.659115e+02   1.532453e+02
   2.200671e+01   2.084158e+02
  -9.958459e+01   1.391678e+02
  -1.182510e+02   2.153098e+01
  -6.449361e+01  -4.360019e+01
  -2.916361e+01  -2.795600e+01
  -5.105748e+01   1.030186e+01
  -7.973979e+01   2.049654e+00
  -4.820872e+01  -5.478320e+01
   4.150313e+01  -9.433375e+01
   1.146199e+02  -5.544891e+01
   9.479780e+01   4.571204e+01
  -2.230816e+01   1.169371e+02
  -1.529732e+02   7.350299e+01
  -1.832261e+02  -7.004007e+01
  -6.597343e+01  -1.972939e+02
   1.243461e+02  -1.941918e+02
   2.460842e+02  -5.994974e+01
   2.160745e+02   9.408771e+01
   8.053100e+01   1.575822e+02
  -4.311978e+01   1.223965e+02
  -8.380764e+01   6.771196e+01
  -6.631148e+01   5.973909e+01
  -5.733943e+01   8.270525e+01
  -8.565278e+01   6.769872e+01
  -1.182705e+02  -2.282350e+01
  -1.003024e+02  -1.448884e+02
  -1.287930e+01  -2.051286e+02
   9.885171e+01  -1.454024e+02
   1.541363e+02  -1.794715e+00
   1.076918e+02   1.210929e+02
   5.248636e-01   1.414050e+02
  -7.209498e+01   6.902649e+01
  -5.582432e+01  -1.606642e+01
   6.262430e+00  -4.824930e+01
   2.596868e+01  -3.103279e+01
  -2.424131e+01  -1.201804e+01
  -7.567175e+01  -2.024250e+01
  -4.336886e+01  -3.884514e+01
   6.825528e+01  -3.250211e+01
   1.570611e+02   1.052601e+01
   1.272966e+02   6.465251e+01
  -5.564946e+00   8.837202e+01
  -1.253195e+02   5.959925e+01
  -1.317161e+02  -2.370391e+00
  -3.740849e+01  -4.764766e+01
   5.645198e+01  -3.682241e+01
   6.986161e+01   2.010712e+01
   1.372671e+01   6.784238e+01
  -4.487961e+01   5.774079e+01
  -6.238161e+01  -9.902902e-01
  -5.006931e+01  -4.882145e+01
  -4.143021e+01  -4.163951e+01
  -4.997560e+01  -4.167033e+00
  -5.868058e+01  -4.064242e+00
  -3.680894e+01  -6.793090e+01
   3.163510e+01  -1.372356e+02
   1.207798e+02  -1.260437e+02
   1.652248e+02  -2.151217e+01
   1.138307e+02   9.218206e+01
  -4.562145e+00   1.206500e+02
  -8.736969e+01   5.839012e+01
  -5.602362e+01  -1.255297e+01
   5.346820e+01  -1.597491e+01
   1.187863e+02   4.364726e+01
   5.851131e+01   9.913186e+01
  -8.065250e+01   9.423876e+01
  -1.723281e+02   3.047740e+01
  -1.388368e+02  -4.435779e+01
  -2.337347e+01  -7.804168e+01
   6.073073e+01  -5.179571e+01
   4.361004e+01   3.503401e+00
  -3.780885e+01   2.625910e+01
  -8.303885e+01  -2.168926e+01
  -3.121172e+01  -1.062509e+02
   7.801297e+01  -1.376608e+02
   1.453122e+02  -5.736252e+01
   1.104796e+02   8.752670e+01
   6.700897e+00   1.739750e+02
  -7.993800e+01   1.230007e+02
  -9.300327e+01  -1.506625e+01
  -4.391970e+01  -1.107795e+02
   1.662736e+01  -9.172026e+01
   4.714414e+01  -1.067491e+01
   3.931533e+01   3.105414e+01
   1.479192e+01   7.256709e+00
   6.082937e+00  -1.545763e+01
   2.636443e+01   2.073011e+01
   4.800990e+01   8.377408e+01
   2.416589e+01   9.581298e+01
  -5.226808e+01   3.545673e+01
  -1.205663e+02  -3.943893e+01
  -1.074177e+02  -6.772338e+01
  -1.414633e+01  -4.880435e+01
   7.362844e+01  -1.998839e+01
   7.802324e+01  -1.348832e+00
   1.512676e+01   1.136691e+01
  -3.185918e+01   1.788045e+01
  -1.801647e+01   1.052699e+01
   1.352507e+01  -3.062810e+00
  -2.391228e+00  -5.063799e+00
  -6.007085e+01  -1.616095e+00
  -8.302048e+01  -2.333047e+01
  -1.641607e+01  -7.421742e+01
   1.015029e+02  -1.025553e+02
   1.725434e+02  -5.259062e+01
   1.358409e+02   5.890648e+01
   2.305771e+01   1.449626e+02
  -7.875371e+01   1.368264e+02
  -1.080408e+02   5.471941e+01
  -7.196831e+01  -2.038932e+01
  -2.234356e+01  -3.538798e+01
  -1.661500e+00  -1.205901e+01
  -1.211170e+01  -8.313598e+00
  -2.516024e+01  -4.552773e+01
  -1.227881e+01  -8.280083e+01
   2.926591e+01  -6.357924e+01
   7.014721e+01   1.643162e+01
   6.840139e+01   9.461011e+01
   8.836870e+00   1.002148e+02
  -6.873427e+01   2.643067e+01
  -9.312826e+01  -6.230975e+01
  -3.251114e+01  -9.455781e+01
   6.017603e+01  -5.587908e+01
   9.361114e+01   1.080709e+01
   3.901890e+01   5.427942e+01
  -3.348241e+01   5.441596e+01
  -3.746264e+01   2.469549e+01
   2.379628e+01  -4.582620e+00
   6.197667e+01  -5.568955e+00
   1.554748e+01   2.536668e+01
  -7.321265e+01   5.610469e+01
  -1.110933e+02   4.316653e+01
  -6.358378e+01  -1.818869e+01
   1.541323e+01  -7.629979e+01
   5.558781e+01  -7.277611e+01
   4.130219e+01  -9.867022e+00
   4.740061e+00   4.744617e+01
  -2.313769e+01   4.275241e+01
  -3.298241e+01  -1.053413e+01
  -2.383966e+01  -4.958114e+01
   2.197747e+00  -3.598111e+01
   2.998331e+01   5.688881e+00
   3.689255e+01   2.453177e+01
   1.855653e+01   5.210947e+00
  -2.700733e+00  -1.819470e+01
  -5.512430e+00  -7.973796e+00
   2.497961e+00   2.900393e+01
  -2.973018e+00   4.777647e+01
  -2.523813e+01   1.901483e+01
  -3.590734e+01  -3.304493e+01
  -9.645581e+00  -5.457397e+01
   3.728401e+01  -2.194727e+01
   5.558636e+01   3.203802e+01
   1.570577e+01   5.518247e+01
  -5.268722e+01   3.053134e+01
  -8.392056e+01  -1.360368e+01
  -4.444619e+01  -4.085653e+01
   2.750279e+01  -4.018916e+01
   6.010826e+01  -2.320007e+01
   2.647459e+01  -5.201655e+00
  -2.574317e+01   2.227893e+00
  -3.011400e+01  -6.782927e+00
   2.163634e+01  -2.213137e+01
   7.125552e+01  -1.645674e+01
