
 $NMID
 id='ANONYMOUS ', fmtdat='(2E16.6)'
 volume=1.0
 tramp=1.0
 $END
  -5.305065e+01   1.361959e+02
  -8.996243e+01   4.608573e+01
  -5.564546e+01  -3.329538e+01
  -1.332710e+01  -4.059322e+01
  -5.662708e+00  -5.062085e+00
  -1.916335e+01   1.468346e+01
  -2.615594e+01   1.936246e+00
  -2.064804e+01  -1.982551e+01
  -7.816141e+00  -2.813135e+01
   9.680671e+00  -1.960044e+01
   2.288950e+01  -2.429520e+00
   1.697790e+01   1.098740e+01
  -6.421894e+00   1.025522e+01
  -2.339825e+01  -2.879540e+00
  -1.600304e+01  -1.437012e+01
   5.810487e+00  -1.347931e+01
   1.976027e+01  -3.293100e+00
   1.732163e+01   7.106994e+00
   5.512208e+00   1.255472e+01
  -6.131499e+00   1.067528e+01
  -1.058796e+01   1.516616e+00
  -5.084456e+00  -6.334095e+00
   2.553981e+00  -7.993926e-01
  -1.598201e+00   1.444450e+01
  -1.714780e+01   1.733705e+01
  -2.346441e+01  -4.064079e+00
  -6.264520e+00  -2.969967e+01
   1.881675e+01  -2.921285e+01
   2.402006e+01  -1.057448e+00
   5.063826e+00   2.511046e+01
  -1.632518e+01   2.449387e+01
  -2.190800e+01   2.306311e+00
  -1.317779e+01  -1.843359e+01
   2.222254e-01  -2.212149e+01
   1.123129e+01  -1.026144e+01
   1.269013e+01   3.892646e+00
   9.750586e-01   5.971170e+00
  -1.215478e+01  -6.577949e+00
  -7.060917e+00  -1.887054e+01
   1.584557e+01  -1.323967e+01
   2.979032e+01   7.837868e+00
   1.515452e+01   2.197626e+01
  -1.191335e+01   1.409660e+01
  -1.919209e+01  -5.150485e+00
  -6.918064e-02  -1.395015e+01
   2.011893e+01  -4.707866e+00
   1.777030e+01   1.195251e+01
  -3.132171e+00   2.181998e+01
  -2.103161e+01   1.777869e+01
  -2.140173e+01   1.509818e+00
  -7.034344e+00  -1.627870e+01
   8.467363e+00  -2.088800e+01
   1.283253e+01  -8.115455e+00
   5.160665e+00   8.169436e+00
  -3.563219e+00   1.122058e+01
  -2.994400e+00   2.196381e+00
   3.980306e+00  -3.278560e+00
   6.074304e+00   2.209984e+00
  -2.984812e-01   9.503763e+00
  -7.430392e+00   8.352042e+00
  -9.100114e+00   3.347641e-01
  -7.608710e+00  -7.458387e+00
  -5.160880e+00  -1.183094e+01
   1.768852e+00  -1.110705e+01
   1.289518e+01  -2.374758e+00
   1.749805e+01   1.129325e+01
   7.170114e+00   1.800662e+01
  -9.660717e+00   1.053908e+01
  -1.643901e+01  -1.999123e+00
  -9.937283e+00  -5.216940e+00
  -2.865994e+00   8.924099e-01
  -4.450697e+00   3.187193e+00
  -8.361792e+00  -4.662662e+00
  -4.088946e+00  -1.359063e+01
   7.123241e+00  -1.263640e+01
   1.389978e+01  -2.653128e+00
   8.879026e+00   7.169596e+00
  -3.712314e+00   1.008778e+01
  -1.318009e+01   5.184155e+00
  -1.191655e+01  -4.537615e+00
  -1.157634e+00  -1.275446e+01
   1.025814e+01  -1.262846e+01
   1.371820e+01  -4.010682e+00
   8.960602e+00   4.679140e+00
   3.374367e+00   6.073343e+00
   2.651252e+00   3.210751e+00
   4.482483e+00   4.840254e+00
   2.781540e+00   1.274643e+01
  -4.501665e+00   1.846796e+01
  -1.370063e+01   1.314999e+01
  -1.912279e+01  -2.321375e+00
  -1.648408e+01  -1.756382e+01
  -5.658169e+00  -2.154477e+01
   7.028464e+00  -1.205700e+01
   1.207014e+01   1.646259e+00
   6.489146e+00   6.855051e+00
  -1.481146e+00   3.717768e-01
  -1.774048e+00  -7.867970e+00
   4.720561e+00  -6.764803e+00
   7.806976e+00   2.330023e+00
   2.208636e+00   8.112679e+00
  -5.501645e+00   4.153929e+00
  -5.936964e+00  -4.199072e+00
   1.831219e+00  -8.162804e+00
   1.071328e+01  -5.129142e+00
   1.367359e+01   2.045490e+00
   8.516273e+00   9.892955e+00
  -2.056826e+00   1.464174e+01
  -1.152281e+01   1.205590e+01
  -1.308279e+01   2.392356e+00
  -6.233601e+00  -6.598138e+00
   1.301858e+00  -7.003740e+00
   1.741791e+00  -6.475602e-01
  -3.496751e+00   2.991654e+00
  -6.218722e+00  -9.302173e-01
  -2.484702e+00  -6.832751e+00
   2.913510e+00  -6.717479e+00
   3.598591e+00  -4.045059e-01
  -6.147314e-01   4.708446e+00
  -4.732841e+00   2.299829e+00
  -4.471271e+00  -6.356891e+00
   7.073040e-01  -1.351924e+01
   7.989888e+00  -1.173393e+01
   1.251746e+01  -9.127072e-01
   1.033843e+01   1.046069e+01
   2.695650e+00   1.282352e+01
  -3.744047e+00   5.394554e+00
  -3.454616e+00  -2.878849e+00
   1.576610e+00  -3.288105e+00
   4.161196e+00   3.390883e+00
   4.269115e-01   9.015735e+00
  -5.998032e+00   7.658546e+00
  -8.613030e+00   9.292907e-01
  -5.171884e+00  -5.092812e+00
   4.991584e-01  -5.831224e+00
   2.762914e+00  -1.588355e+00
  -3.231621e-01   2.849204e+00
  -5.141339e+00   2.134257e+00
  -5.931353e+00  -4.094731e+00
  -6.574903e-01  -9.645154e+00
   6.518765e+00  -7.855140e+00
   9.268272e+00   5.070718e-01
   5.507002e+00   7.554833e+00
  -9.043599e-01   7.104047e+00
  -4.565358e+00   1.125628e+00
  -3.562837e+00  -3.596135e+00
  -2.154678e-01  -3.260422e+00
   1.854421e+00   8.731471e-02
   1.004712e+00   2.052260e+00
  -1.037980e+00   3.958851e-01
  -7.393764e-01  -3.251775e+00
   3.276764e+00  -4.712296e+00
   7.616175e+00  -9.276817e-01
   6.931326e+00   6.283705e+00
   1.304342e-01   1.079104e+01
  -7.555871e+00   8.125969e+00
  -9.892301e+00   6.024743e-01
  -6.072172e+00  -5.105299e+00
  -6.689417e-01  -5.297459e+00
   1.857364e+00  -2.443944e+00
   1.035305e+00  -1.033672e+00
  -5.940721e-01  -2.258425e+00
  -4.874383e-01  -3.672776e+00
   1.851624e+00  -2.633494e+00
   4.302953e+00   1.018237e+00
   3.588452e+00   4.725643e+00
  -1.081253e+00   4.876575e+00
  -5.653280e+00  -6.834780e-02
  -4.524394e+00  -6.904740e+00
   2.797036e+00  -9.255913e+00
   9.910225e+00  -3.656855e+00
   9.930734e+00   6.095234e+00
   2.829434e+00   1.213446e+01
  -5.000101e+00   1.023923e+01
  -7.832633e+00   3.352134e+00
  -5.727513e+00  -2.456784e+00
  -2.837443e+00  -4.081238e+00
  -2.305372e+00  -3.032333e+00
  -3.438493e+00  -2.452822e+00
  -3.063759e+00  -3.682148e+00
   8.588868e-01  -5.297402e+00
   6.607659e+00  -4.659316e+00
   9.642236e+00  -5.961907e-01
   6.815642e+00   4.840852e+00
  -1.773099e-01   7.572857e+00
  -6.093050e+00   5.238763e+00
  -7.021492e+00  -1.506330e-01
  -3.564717e+00  -3.903562e+00
   6.497947e-01  -3.296227e+00
   2.669499e+00  -2.151320e-01
   2.206028e+00   1.166417e+00
   9.466796e-01  -8.067923e-01
   6.547500e-01  -3.283151e+00
   1.534849e+00  -2.120369e+00
   1.975724e+00   3.023289e+00
   2.928293e-01   7.537819e+00
  -2.929638e+00   6.487927e+00
  -4.862393e+00   1.697037e-01
  -3.446154e+00  -5.845749e+00
   7.864245e-02  -6.478544e+00
   2.416028e+00  -2.172656e+00
   1.726155e+00   2.299565e+00
  -8.001335e-01   3.196516e+00
  -2.613588e+00   9.351227e-01
  -2.250231e+00  -1.650346e+00
  -2.373619e-01  -2.678145e+00
   1.596034e+00  -2.391542e+00
   1.696958e+00  -2.009771e+00
   4.530451e-01  -2.268800e+00
   2.260343e-01  -2.728043e+00
   2.701972e+00  -1.976678e+00
   6.088528e+00   1.053420e+00
   6.313824e+00   5.325656e+00
   1.829215e+00   7.648344e+00
  -3.869937e+00   5.488121e+00
  -5.801061e+00   1.556450e-01
  -3.065356e+00  -3.659812e+00
   4.330500e-01  -2.393594e+00
   7.076882e-01   2.431907e+00
  -2.155625e+00   5.392691e+00
  -4.820055e+00   2.661105e+00
  -4.505557e+00  -3.875878e+00
  -1.324387e+00  -8.335749e+00
   2.342998e+00  -6.744853e+00
   3.921115e+00  -9.996161e-01
   2.536003e+00   3.240991e+00
  -2.000556e-01   2.418188e+00
  -1.301814e+00  -1.544430e+00
   8.611113e-01  -3.693035e+00
   4.541488e+00  -1.342547e+00
   5.779069e+00   3.434895e+00
   2.235846e+00   6.243765e+00
  -3.976382e+00   4.656832e+00
  -7.695408e+00   1.042255e-01
  -5.496448e+00  -3.823216e+00
   7.277596e-01  -4.510848e+00
   5.377535e+00  -2.134175e+00
   4.757425e+00   9.638728e-01
   7.543763e-01   2.450753e+00
  -1.742285e+00   1.848937e+00
  -7.552649e-01   5.993441e-01
   7.969058e-01   4.274921e-01
  -5.109391e-01   1.535893e+00
  -3.757427e+00   2.301602e+00
  -4.865153e+00   8.901407e-01
  -2.055906e+00  -2.563037e+00
   1.914344e+00  -5.436915e+00
   3.436367e+00  -4.850284e+00
   2.215445e+00  -8.252107e-01
   5.892989e-01   3.184043e+00
  -2.558959e-02   3.674060e+00
  -2.257830e-01   9.157510e-01
  -6.271482e-01  -1.491436e+00
  -7.195947e-01  -1.096106e+00
  -1.573635e-01   4.857751e-01
   3.552543e-01   6.313444e-02
   4.094680e-01  -2.493508e+00
   9.723909e-01  -3.703586e+00
   2.767281e+00  -8.451411e-01
   4.195921e+00   4.389267e+00
   2.594026e+00   7.491142e+00
  -2.099079e+00   5.831113e+00
  -6.290021e+00   9.794212e-01
  -6.348821e+00  -3.311666e+00
  -2.668549e+00  -4.583842e+00
   9.054659e-01  -3.175491e+00
   1.542780e+00  -1.157567e+00
   3.075415e-01  -3.024077e-01
   2.177912e-01  -7.749360e-01
   2.220717e+00  -1.317352e+00
   4.017459e+00  -6.213743e-01
   2.915510e+00   1.311153e+00
  -8.485757e-01   3.026519e+00
  -4.134318e+00   2.832418e+00
  -4.085560e+00   3.727077e-01
  -8.916463e-01  -2.704721e+00
   2.651180e+00  -3.762140e+00
   3.907823e+00  -1.508294e+00
   2.465886e+00   2.298396e+00
  -1.642490e-01   4.079367e+00
  -2.170027e+00   2.162539e+00
  -2.590001e+00  -1.045098e+00
  -1.557568e+00  -1.674270e+00
  -1.407240e-01   8.006755e-01
   2.319384e-01   2.709279e+00
  -9.929954e-01   8.280614e-01
  -2.540174e+00  -3.337593e+00
  -2.240193e+00  -5.319659e+00
   4.736180e-01  -3.159158e+00
   3.377064e+00   5.728577e-01
   3.578128e+00   2.343163e+00
   8.604992e-01   1.559009e+00
  -1.873638e+00   7.634004e-02
  -1.866092e+00  -7.775696e-01
   4.248168e-01  -1.125789e+00
   2.148610e+00  -1.095132e+00
   1.556871e+00  -2.454877e-01
  -2.261548e-01   1.198320e+00
  -1.005753e+00   1.895941e+00
  -2.297248e-01   1.023687e+00
   6.940029e-01  -4.075562e-01
   3.995730e-01  -7.880923e-01
  -8.155976e-01  -6.797771e-02
  -1.476520e+00   2.949961e-01
  -6.619393e-01  -4.598081e-01
   9.620349e-01  -1.199670e+00
   1.771718e+00  -4.414118e-01
   8.195218e-01   1.427373e+00
  -1.123994e+00   2.256745e+00
  -2.246776e+00   6.166919e-01
  -1.505326e+00  -2.285424e+00
   3.634592e-01  -3.632476e+00
   1.747379e+00  -1.997798e+00
   1.836333e+00   1.003924e+00
   1.120357e+00   2.397701e+00
   4.740421e-01   1.111781e+00
   2.879349e-01  -8.809698e-01
   4.677719e-01  -9.194222e-01
   6.421645e-01   1.226762e+00
   1.705100e-01   3.125697e+00
