
 $NMID
 id='ANONYMOUS ', fmtdat='(2E16.6)'
 volume=1.0
 tramp=1.0
 $END
  -3.132755e+03   1.980726e+02
  -2.214234e+03  -1.433238e+03
  -1.933138e+02  -2.010704e+03
   1.117532e+03  -1.354450e+03
   9.590524e+02  -3.066548e+02
   1.013107e+02   2.004090e+02
  -3.531803e+02  -3.849861e+01
  -1.097224e+02  -5.130093e+02
   3.805715e+02  -6.039910e+02
   6.240010e+02  -1.479351e+02
   4.705414e+02   4.565617e+02
   6.909161e+01   6.385061e+02
  -2.727051e+02   2.207541e+02
  -2.732701e+02  -3.732893e+02
   6.369266e+01  -5.379421e+02
   3.873888e+02  -1.172229e+02
   3.343877e+02   4.519639e+02
  -7.211041e+01   6.306597e+02
  -4.460173e+02   3.167156e+02
  -4.581141e+02  -1.379992e+02
  -1.624598e+02  -3.491630e+02
   9.774911e+01  -2.548745e+02
   6.132451e+01  -9.157213e+01
  -1.803186e+02  -9.773972e+01
  -2.742432e+02  -2.607254e+02
   3.089955e+00  -3.455047e+02
   4.457527e+02  -1.742996e+02
   5.903411e+02   1.470161e+02
   2.357063e+02   3.276693e+02
  -2.925160e+02   2.058550e+02
  -4.858569e+02  -9.805542e+01
  -2.027380e+02  -3.354123e+02
   2.316544e+02  -3.518817e+02
   4.321219e+02  -1.527468e+02
   3.242059e+02   1.318484e+02
   1.071340e+02   2.933579e+02
  -8.610872e+00   1.846434e+02
   3.799457e+01  -7.736168e+01
   1.586994e+02  -1.530443e+02
   1.921227e+02   1.246673e+02
   3.836853e+01   4.675626e+02
  -2.085431e+02   4.381720e+02
  -3.092991e+02   2.786688e+01
  -1.392496e+02  -2.872127e+02
   1.276862e+02  -1.435195e+02
   1.789274e+02   2.466978e+02
  -8.615699e+01   3.789494e+02
  -4.253304e+02   8.030823e+01
  -4.929821e+02  -3.330075e+02
  -1.824268e+02  -4.737161e+02
   2.719167e+02  -2.789003e+02
   5.066718e+02   2.911134e+01
   3.515502e+02   2.207982e+02
  -2.255030e+01   2.234291e+02
  -2.720820e+02   1.053554e+02
  -2.200877e+02  -6.811655e+00
  -1.900814e+01  -2.306652e+01
   5.026470e+01   3.545892e+01
  -8.566760e+01   5.906502e+01
  -2.208519e+02  -2.795560e+01
  -1.364718e+02  -1.759925e+02
   1.314022e+02  -2.516747e+02
   3.323482e+02  -1.572984e+02
   2.712829e+02   8.377564e+01
  -6.025046e+00   3.239052e+02
  -2.775804e+02   3.774801e+02
  -3.554237e+02   1.734435e+02
  -2.352227e+02  -1.487606e+02
  -6.660679e+01  -3.457656e+02
   1.231217e+01  -3.123805e+02
   7.885969e+00  -1.764267e+02
   3.094303e+01  -1.131035e+02
   1.368189e+02  -1.207877e+02
   2.458366e+02  -6.031113e+01
   2.390082e+02   1.107416e+02
   9.674600e+01   2.466646e+02
  -8.495798e+01   1.888819e+02
  -1.858233e+02  -3.442204e+01
  -1.395834e+02  -2.323325e+02
   3.706758e+01  -2.433245e+02
   2.364737e+02  -6.931238e+01
   3.063471e+02   1.539458e+02
   1.799234e+02   2.805989e+02
  -3.315720e+01   2.613205e+02
  -1.526145e+02   1.633199e+02
  -1.420710e+02   9.130559e+01
  -1.468211e+02   7.641609e+01
  -2.748051e+02   4.755447e+01
  -4.092148e+02  -7.705603e+01
  -3.281704e+02  -2.784963e+02
   5.108123e+00  -4.308340e+02
   3.577792e+02  -4.064658e+02
   4.614961e+02  -1.917915e+02
   2.825956e+02   8.489210e+01
   2.881617e+01   2.418796e+02
  -7.878185e+01   1.945263e+02
  -4.303987e+00   3.892883e+01
   1.130105e+02  -3.967986e+01
   1.238405e+02   3.231140e+01
   1.223637e+01   1.337261e+02
  -1.051306e+02   1.035729e+02
  -1.044066e+02  -4.454124e+01
   2.161957e+01  -1.248241e+02
   1.550861e+02  -5.542393e+00
   1.592495e+02   2.222276e+02
  -2.012325e+00   3.367065e+02
  -2.292159e+02   2.177721e+02
  -3.582914e+02  -4.357911e+01
  -2.875659e+02  -2.480477e+02
  -6.941698e+01  -2.688790e+02
   1.219479e+02  -1.421953e+02
   1.457291e+02  -1.158989e+01
   3.304765e+01   1.015580e+01
  -5.111250e+01  -6.022289e+01
   1.752674e+00  -1.107907e+02
   1.189609e+02  -6.784160e+01
   1.424437e+02   2.099734e+01
   3.069109e+01   5.083670e+01
  -8.183911e+01  -1.185044e+01
  -4.035334e+01  -9.256605e+01
   1.458865e+02  -9.381047e+01
   3.013034e+02   1.035114e+01
   2.608402e+02   1.601654e+02
   3.550741e+01   2.591197e+02
  -1.967667e+02   2.369257e+02
  -2.584458e+02   1.040642e+02
  -1.340323e+02  -3.803810e+01
   2.638317e+01  -7.474291e+01
   6.038731e+01   3.240899e+00
  -5.115917e+01   7.885731e+01
  -1.792229e+02   3.793411e+01
  -1.865915e+02  -9.389948e+01
  -6.205207e+01  -1.798135e+02
   8.028891e+01  -1.346689e+02
   1.198362e+02  -2.076535e+01
   4.393932e+01   3.285440e+01
  -4.468213e+01  -2.239380e+01
  -3.053665e+01  -1.110164e+02
   9.425767e+01  -1.219685e+02
   2.098639e+02  -1.959881e+01
   1.845429e+02   1.264980e+02
   1.828515e+01   2.039970e+02
  -1.459359e+02   1.534066e+02
  -1.686495e+02   1.949556e+01
  -5.737662e+01  -8.780068e+01
   5.546161e+01  -9.406453e+01
   6.576148e+01  -2.669626e+01
  -3.044615e-01   2.409943e+01
  -3.860098e+01   8.853297e+00
   7.611549e+00  -2.846149e+01
   9.040838e+01  -7.437801e+00
   1.110205e+02   8.756587e+01
   1.826655e+01   1.763338e+02
  -1.369348e+02   1.584562e+02
  -2.362754e+02   1.823070e+01
  -1.955914e+02  -1.496565e+02
  -4.611611e+01  -2.225073e+02
   9.148818e+01  -1.604555e+02
   1.249148e+02  -3.708560e+01
   7.542494e+01   3.832534e+01
   3.566507e+01   2.602587e+01
   5.472401e+01  -1.721401e+01
   8.775589e+01  -1.113380e+01
   6.083048e+01   5.554592e+01
  -3.438275e+01   1.102083e+02
  -1.219039e+02   7.497899e+01
  -1.116566e+02  -4.082299e+01
   1.208718e+01  -1.328592e+02
   1.619281e+02  -9.743322e+01
   2.083584e+02   5.847338e+01
   9.082020e+01   2.091278e+02
  -1.168572e+02   2.235551e+02
  -2.608790e+02   8.978068e+01
  -2.428852e+02  -7.912180e+01
  -1.030363e+02  -1.609612e+02
   3.351517e+01  -1.361213e+02
   8.250782e+01  -8.211753e+01
   6.380969e+01  -7.234719e+01
   5.175930e+01  -9.687471e+01
   8.528793e+01  -8.400375e+01
   1.316784e+02   1.106997e+01
   1.253416e+02   1.463279e+02
   3.619303e+01   2.213946e+02
  -9.157918e+01   1.679654e+02
  -1.663353e+02   1.748280e+01
  -1.286959e+02  -1.205096e+02
  -1.456424e+01  -1.529460e+02
   7.197468e+01  -8.100073e+01
   6.276845e+01   1.374868e+01
  -2.961994e+00   5.487798e+01
  -2.745209e+01   3.673474e+01
   2.629112e+01   9.284209e+00
   8.541440e+01   1.283310e+01
   5.233132e+01   3.777636e+01
  -7.217904e+01   4.335375e+01
  -1.744971e+02   5.052989e+00
  -1.456723e+02  -5.820375e+01
  -1.066314e+00  -9.812361e+01
   1.319223e+02  -7.848304e+01
   1.434571e+02  -1.068262e+01
   4.519198e+01   4.915782e+01
  -5.730678e+01   4.734231e+01
  -7.856597e+01  -1.397001e+01
  -2.426914e+01  -7.319868e+01
   4.086809e+01  -6.916348e+01
   6.885000e+01  -6.571937e+00
   6.210914e+01   4.772138e+01
   5.042008e+01   4.095477e+01
   5.383799e+01  -1.154204e+00
   6.405867e+01  -2.041191e+00
   4.905677e+01   7.064786e+01
  -1.823159e+01   1.539951e+02
  -1.188978e+02   1.512271e+02
  -1.799937e+02   4.169130e+01
  -1.352452e+02  -8.827476e+01
  -7.663779e+00  -1.328441e+02
   8.968750e+01  -7.445219e+01
   6.275341e+01   6.730408e+00
  -5.619725e+01   2.342242e+01
  -1.333872e+02  -3.389233e+01
  -7.372631e+01  -1.010430e+02
   7.767529e+01  -1.108039e+02
   1.835232e+02  -5.093510e+01
   1.547213e+02   3.392689e+01
   3.295261e+01   8.190609e+01
  -6.072853e+01   6.149373e+01
  -4.763983e+01  -3.698520e-01
   3.845481e+01  -3.343004e+01
   9.309348e+01   1.383355e+01
   4.697862e+01   1.115870e+02
  -6.742218e+01   1.587637e+02
  -1.500114e+02   8.006792e+01
  -1.299446e+02  -8.124349e+01
  -2.778416e+01  -1.875040e+02
   7.252685e+01  -1.420234e+02
   1.025921e+02   6.784627e+00
   5.910759e+01   1.158290e+02
  -9.694341e+00   1.008107e+02
  -5.094314e+01   1.588913e+01
  -4.508283e+01  -2.948973e+01
  -1.540651e+01  -5.961160e+00
  -5.184295e+00   1.695830e+01
  -3.250764e+01  -2.068233e+01
  -6.184886e+01  -8.595312e+01
  -3.535317e+01  -1.006167e+02
   5.429847e+01  -4.381572e+01
   1.350153e+02   2.898943e+01
   1.231244e+02   6.125269e+01
   2.092858e+01   5.203831e+01
  -7.658512e+01   3.063515e+01
  -8.429676e+01   9.884707e+00
  -1.874403e+01  -1.141290e+01
   3.192790e+01  -2.288518e+01
   1.922276e+01  -1.252410e+01
  -1.330478e+01   5.303393e+00
   2.731052e+00   4.633937e+00
   6.425330e+01  -5.885967e+00
   9.313260e+01   1.565924e+01
   2.838187e+01   7.907332e+01
  -9.696639e+01   1.236973e+02
  -1.821367e+02   7.796556e+01
  -1.562489e+02  -4.732937e+01
  -4.256014e+01  -1.545880e+02
   7.043410e+01  -1.585091e+02
   1.117556e+02  -7.286072e+01
   8.055996e+01   1.363324e+01
   2.852526e+01   3.639151e+01
   4.021420e+00   1.369218e+01
   1.466611e+01   8.430383e+00
   3.198174e+01   4.720322e+01
   2.186492e+01   8.877159e+01
  -2.465132e+01   7.245302e+01
  -7.770116e+01  -9.314854e+00
  -8.561911e+01  -9.402145e+01
  -2.262353e+01  -1.077318e+02
   7.056137e+01  -3.797204e+01
   1.088520e+02   5.544935e+01
   4.742084e+01   9.910665e+01
  -5.873949e+01   6.905456e+01
  -1.040419e+02  -4.765890e-01
  -4.959997e+01  -5.586919e+01
   3.057424e+01  -6.457740e+01
   3.940046e+01  -3.119607e+01
  -2.410067e+01   8.649361e+00
  -6.660841e+01   1.346756e+01
  -2.033234e+01  -2.620378e+01
   7.311254e+01  -6.922680e+01
   1.167417e+02  -5.858133e+01
   7.237148e+01   1.345584e+01
  -7.748687e+00   8.507034e+01
  -5.304368e+01   8.601545e+01
  -4.516599e+01   1.653496e+01
  -1.152233e+01  -5.050270e+01
   1.999502e+01  -5.001985e+01
   3.719806e+01   6.390547e+00
   3.189591e+01   5.118210e+01
   1.987760e+00   4.053337e+01
  -3.332172e+01  -2.197121e+00
  -4.324899e+01  -2.321316e+01
  -2.077925e+01  -4.179035e+00
   5.474617e+00   2.044412e+01
   6.782675e+00   9.909273e+00
  -7.755515e+00  -3.057034e+01
  -4.637670e+00  -5.370794e+01
   2.452390e+01  -2.591082e+01
   4.462518e+01   3.028688e+01
   1.914995e+01   5.816812e+01
  -3.737378e+01   2.900198e+01
  -6.516760e+01  -2.753039e+01
  -2.423899e+01  -5.780642e+01
   5.416480e+01  -3.953622e+01
   9.358237e+01   4.595655e+00
   5.330220e+01   3.924496e+01
  -2.533098e+01   4.763731e+01
  -6.287074e+01   3.319895e+01
  -2.899042e+01   8.986134e+00
   2.634267e+01  -6.340135e+00
   3.290956e+01   2.384438e+00
  -1.972651e+01   2.563763e+01
  -7.351062e+01   2.634805e+01
