
 $NMID
 id='ANONYMOUS ', fmtdat='(2E16.6)'
 volume=1.0
 tramp=1.0
 $END
  -2.582085e+03   1.466974e+02
  -1.752575e+03  -1.259435e+03
  -2.029912e+01  -1.647776e+03
   9.946806e+02  -9.706279e+02
   7.252633e+02  -9.417704e+01
  -3.963065e+01   2.076721e+02
  -3.520110e+02  -9.006269e+01
  -6.778759e+01  -4.769861e+02
   3.562352e+02  -4.909767e+02
   5.239456e+02  -7.945367e+01
   3.590975e+02   4.083217e+02
   9.150269e+00   5.256938e+02
  -2.628814e+02   1.533559e+02
  -2.281353e+02  -3.375482e+02
   7.696535e+01  -4.443079e+02
   3.292011e+02  -7.290297e+01
   2.494142e+02   3.785605e+02
  -8.870234e+01   4.830255e+02
  -3.590650e+02   2.109728e+02
  -3.401085e+02  -1.344373e+02
  -1.045426e+02  -2.788214e+02
   9.487186e+01  -1.967151e+02
   6.917961e+01  -5.852533e+01
  -1.293805e+02  -4.456683e+01
  -2.333120e+02  -1.748311e+02
  -3.154100e+01  -2.784891e+02
   3.427414e+02  -1.740488e+02
   4.934149e+02   9.721651e+01
   2.125501e+02   2.837025e+02
  -2.386511e+02   2.027567e+02
  -4.131661e+02  -6.207093e+01
  -1.799406e+02  -2.781969e+02
   1.826472e+02  -2.969620e+02
   3.503719e+02  -1.279065e+02
   2.632936e+02   1.132235e+02
   7.836518e+01   2.515591e+02
  -3.474717e+01   1.561706e+02
  -3.519309e+00  -8.199829e+01
   1.221871e+02  -1.625309e+02
   1.879118e+02   7.823126e+01
   6.475767e+01   3.915174e+02
  -1.737375e+02   3.779253e+02
  -2.822846e+02   1.944520e+01
  -1.269987e+02  -2.604740e+02
   1.224602e+02  -1.378151e+02
   1.710165e+02   1.998571e+02
  -6.015453e+01   3.170122e+02
  -3.450841e+02   7.368007e+01
  -3.958898e+02  -2.620936e+02
  -1.410598e+02  -3.781794e+02
   2.228822e+02  -2.260721e+02
   4.069443e+02   2.498131e+01
   2.741592e+02   1.912057e+02
  -3.603173e+01   1.928307e+02
  -2.337822e+02   7.494144e+01
  -1.713743e+02  -3.272425e+01
   6.910068e+00  -3.022411e+01
   5.310383e+01   4.540438e+01
  -7.770844e+01   6.581520e+01
  -1.889724e+02  -2.686866e+01
  -1.065701e+02  -1.527949e+02
   1.096788e+02  -1.947759e+02
   2.524412e+02  -1.101774e+02
   1.964725e+02   6.168447e+01
  -4.431337e+00   2.319074e+02
  -1.995573e+02   2.831399e+02
  -2.673006e+02   1.431134e+02
  -1.901493e+02  -1.095870e+02
  -5.614769e+01  -2.779372e+02
   2.263029e+01  -2.501948e+02
   2.197587e+01  -1.249113e+02
   2.141822e+01  -6.733602e+01
   8.861901e+01  -8.856403e+01
   1.794557e+02  -5.959601e+01
   1.902338e+02   7.315619e+01
   8.633250e+01   1.914827e+02
  -6.104307e+01   1.560762e+02
  -1.491464e+02  -1.737857e+01
  -1.182640e+02  -1.776926e+02
   2.174882e+01  -1.946212e+02
   1.849130e+02  -6.281507e+01
   2.443747e+02   1.168192e+02
   1.413918e+02   2.238784e+02
  -3.319720e+01   2.072614e+02
  -1.267307e+02   1.197106e+02
  -1.089977e+02   5.769379e+01
  -1.039250e+02   5.339204e+01
  -2.030553e+02   4.182909e+01
  -3.121026e+02  -5.163849e+01
  -2.541463e+02  -2.104890e+02
  -8.681943e-01  -3.310732e+02
   2.695871e+02  -3.151544e+02
   3.548908e+02  -1.525504e+02
   2.252631e+02   6.343273e+01
   2.843669e+01   1.928918e+02
  -6.648011e+01   1.586551e+02
  -1.515039e+01   2.821655e+01
   8.565032e+01  -4.225450e+01
   1.065933e+02   1.942452e+01
   1.664464e+01   1.121338e+02
  -8.844312e+01   9.104385e+01
  -9.217295e+01  -3.571169e+01
   1.472669e+01  -1.065392e+02
   1.248542e+02  -1.006153e+01
   1.246026e+02   1.723447e+02
  -2.902193e+00   2.592627e+02
  -1.731481e+02   1.646345e+02
  -2.689502e+02  -3.274788e+01
  -2.204971e+02  -1.850456e+02
  -5.971637e+01  -2.038725e+02
   9.042231e+01  -1.127540e+02
   1.163562e+02  -1.174476e+01
   2.944011e+01   1.101093e+01
  -4.268359e+01  -4.210872e+01
  -4.735297e+00  -8.704695e+01
   9.111114e+01  -5.815365e+01
   1.148946e+02   1.335509e+01
   2.834590e+01   4.209635e+01
  -6.242169e+01  -3.683079e+00
  -3.417303e+01  -6.721562e+01
   1.068386e+02  -7.199661e+01
   2.270203e+02   3.261696e+00
   2.011558e+02   1.164022e+02
   3.367183e+01   1.968464e+02
  -1.458992e+02   1.868033e+02
  -2.004456e+02   8.566997e+01
  -1.085972e+02  -2.993709e+01
   1.915283e+01  -6.302909e+01
   5.114906e+01   4.085795e-02
  -3.533716e+01   6.446588e+01
  -1.392339e+02   3.426570e+01
  -1.478436e+02  -7.124389e+01
  -5.039666e+01  -1.413083e+02
   6.228264e+01  -1.074836e+02
   9.528902e+01  -1.839490e+01
   3.820795e+01   2.612473e+01
  -3.167600e+01  -1.248983e+01
  -2.562848e+01  -7.991848e+01
   6.696518e+01  -9.263159e+01
   1.580377e+02  -1.868232e+01
   1.433369e+02   9.410403e+01
   1.657802e+01   1.578540e+02
  -1.129065e+02   1.204106e+02
  -1.327598e+02   1.447497e+01
  -4.600563e+01  -7.086609e+01
   4.326619e+01  -7.529645e+01
   5.284715e+01  -2.169487e+01
   3.078671e+00   1.877241e+01
  -2.664104e+01   8.789570e+00
   5.795694e+00  -1.849163e+01
   6.568441e+01  -4.085378e+00
   8.193719e+01   6.464045e+01
   1.532559e+01   1.313654e+02
  -1.010047e+02   1.213610e+02
  -1.796345e+02   1.766231e+01
  -1.518492e+02  -1.121639e+02
  -3.686147e+01  -1.717313e+02
   7.101003e+01  -1.249676e+02
   9.676103e+01  -2.801163e+01
   5.717182e+01   3.127197e+01
   2.632956e+01   2.107717e+01
   4.135017e+01  -1.289471e+01
   6.553592e+01  -8.671227e+00
   4.394841e+01   4.074167e+01
  -2.627848e+01   8.080320e+01
  -8.899383e+01   5.535028e+01
  -8.139054e+01  -2.900639e+01
   7.953821e+00  -9.781806e+01
   1.191407e+02  -7.423917e+01
   1.577496e+02   4.109408e+01
   7.311745e+01   1.573064e+02
  -8.502874e+01   1.726501e+02
  -1.990803e+02   7.233889e+01
  -1.885676e+02  -5.890785e+01
  -8.140279e+01  -1.243298e+02
   2.501237e+01  -1.060479e+02
   6.406889e+01  -6.384835e+01
   5.044689e+01  -5.537666e+01
   4.088803e+01  -7.345096e+01
   6.529878e+01  -6.336474e+01
   9.997388e+01   8.822724e+00
   9.587901e+01   1.115310e+02
   2.886821e+01   1.692526e+02
  -6.925430e+01   1.297839e+02
  -1.282155e+02   1.557199e+01
  -1.007054e+02  -9.081350e+01
  -1.345236e+01  -1.176403e+02
   5.335325e+01  -6.440047e+01
   4.766038e+01   7.515056e+00
  -3.939860e-01   3.996577e+01
  -1.783782e+01   2.801362e+01
   2.169765e+01   8.276640e+00
   6.425339e+01   1.046705e+01
   3.908173e+01   2.831254e+01
  -5.322329e+01   3.280445e+01
  -1.303550e+02   5.382581e+00
  -1.113225e+02  -4.176057e+01
  -4.142037e+00  -7.333654e+01
   9.796396e+01  -6.055283e+01
   1.095745e+02  -1.007661e+01
   3.552900e+01   3.572025e+01
  -4.362979e+01   3.512016e+01
  -5.961706e+01  -1.062588e+01
  -1.665801e+01  -5.474680e+01
   3.276717e+01  -5.132643e+01
   5.152623e+01  -4.372475e+00
   4.499437e+01   3.605831e+01
   3.775922e+01   3.083124e+01
   4.221638e+01  -8.572087e-01
   4.914620e+01  -1.782034e+00
   3.594835e+01   5.283373e+01
  -1.459114e+01   1.162170e+02
  -8.863995e+01   1.149339e+02
  -1.342546e+02   3.235807e+01
  -1.021070e+02  -6.629784e+01
  -7.072922e+00  -1.001319e+02
   6.697094e+01  -5.565459e+01
   4.743646e+01   5.777414e+00
  -4.305189e+01   1.789768e+01
  -1.026657e+02  -2.598364e+01
  -5.759090e+01  -7.727580e+01
   5.854406e+01  -8.553203e+01
   1.405822e+02  -4.088802e+01
   1.195898e+02   2.426091e+01
   2.665833e+01   6.288466e+01
  -4.572648e+01   4.891052e+01
  -3.658388e+01   1.436814e+00
   2.898686e+01  -2.485491e+01
   7.068332e+01   1.093414e+01
   3.473977e+01   8.564660e+01
  -5.351066e+01   1.209395e+02
  -1.162148e+02   5.974117e+01
  -9.933108e+01  -6.361734e+01
  -2.034025e+01  -1.441829e+02
   5.587726e+01  -1.093295e+02
   7.861111e+01   4.093031e+00
   4.651770e+01   8.803415e+01
  -5.101784e+00   7.790114e+01
  -3.788329e+01   1.335420e+01
  -3.577790e+01  -2.231323e+01
  -1.347244e+01  -4.848059e+00
  -3.592459e+00   1.356495e+01
  -2.312889e+01  -1.448796e+01
  -4.706156e+01  -6.526954e+01
  -2.903193e+01  -7.776956e+01
   3.976297e+01  -3.422459e+01
   1.037137e+02   2.238185e+01
   9.555129e+01   4.700074e+01
   1.597167e+01   3.907259e+01
  -5.984302e+01   2.275662e+01
  -6.480427e+01   8.039342e+00
  -1.316805e+01  -7.828858e+00
   2.515897e+01  -1.766328e+01
   1.373949e+01  -1.066993e+01
  -1.135713e+01   3.541466e+00
   2.586832e+00   4.226304e+00
   5.047310e+01  -3.541004e+00
   7.085845e+01   1.228435e+01
   1.926217e+01   6.008653e+01
  -7.604148e+01   9.366526e+01
  -1.384899e+02   5.815352e+01
  -1.171616e+02  -3.761601e+01
  -3.130285e+01  -1.184958e+02
   5.339750e+01  -1.201113e+02
   8.475996e+01  -5.437158e+01
   6.151156e+01   1.083252e+01
   2.153606e+01   2.727187e+01
   2.109952e+00   9.571296e+00
   1.057143e+01   5.560187e+00
   2.503877e+01   3.541081e+01
   1.769879e+01   6.763064e+01
  -1.877185e+01   5.531618e+01
  -5.981741e+01  -7.791325e+00
  -6.477974e+01  -7.302445e+01
  -1.539493e+01  -8.250535e+01
   5.520500e+01  -2.734640e+01
   8.250040e+01   4.431133e+01
   3.467402e+01   7.568058e+01
  -4.523806e+01   5.104523e+01
  -7.825588e+01  -1.102124e+00
  -3.671990e+01  -4.119243e+01
   2.294219e+01  -4.746950e+01
   2.840664e+01  -2.372134e+01
  -1.982397e+01   5.492322e+00
  -5.102187e+01   9.847130e+00
  -1.489988e+01  -1.956243e+01
   5.596754e+01  -5.294869e+01
   8.817472e+01  -4.582604e+01
   5.392497e+01   9.247001e+00
  -6.317198e+00   6.453876e+01
  -3.951523e+01   6.501959e+01
  -3.290602e+01   1.135604e+01
  -7.669539e+00  -3.917773e+01
   1.561638e+01  -3.715084e+01
   2.823124e+01   6.385418e+00
   2.395386e+01   3.910211e+01
   1.189046e+00   2.962081e+01
  -2.535165e+01  -2.346246e+00
  -3.262440e+01  -1.689391e+01
  -1.585651e+01  -2.485249e+00
   3.646193e+00   1.450270e+01
   5.323586e+00   5.439695e+00
  -3.921862e+00  -2.410707e+01
  -7.564403e-01  -3.936656e+01
   1.957512e+01  -1.707177e+01
   3.196925e+01   2.490163e+01
   1.180260e+01   4.448182e+01
  -2.929939e+01   2.110234e+01
  -4.850223e+01  -2.215089e+01
  -1.747579e+01  -4.459958e+01
   4.096344e+01  -2.977617e+01
   7.054370e+01   4.272841e+00
   4.030787e+01   3.011683e+01
  -1.935009e+01   3.543732e+01
  -4.782718e+01   2.403270e+01
  -2.122596e+01   6.493906e+00
   2.169754e+01  -3.693760e+00
   2.580388e+01   3.620273e+00
  -1.653664e+01   2.057023e+01
  -5.851780e+01   1.968005e+01
