
 $NMID
 id='ANONYMOUS ', fmtdat='(2E16.6)'
 volume=1.0
 tramp=1.0
 $END
  -1.825574e+02  -1.528577e+02
  -4.170744e+01  -1.789756e+02
   8.228204e+01  -1.014667e+02
   1.049816e+02  -1.721265e+01
   5.038983e+01   1.018567e+01
  -1.315068e+00  -6.170879e+00
  -3.527718e+00  -2.541723e+01
   2.749477e+01  -2.637428e+01
   4.848760e+01  -7.545501e+00
   3.518912e+01   2.264444e+01
  -4.465209e-01   4.315354e+01
  -2.577596e+01   3.185789e+01
  -1.923868e+01  -5.635582e+00
   9.346407e+00  -3.320328e+01
   3.004476e+01  -2.275094e+01
   2.327231e+01   1.347447e+01
  -3.964624e+00   3.826493e+01
  -2.913966e+01   2.985980e+01
  -3.449671e+01  -3.829568e-01
  -1.815468e+01  -2.431303e+01
   5.529396e+00  -2.421551e+01
   1.563072e+01  -7.937560e+00
   4.065675e+00  -3.777711e-01
  -1.209708e+01  -1.495644e+01
  -7.168104e+00  -3.346478e+01
   2.025220e+01  -2.492931e+01
   4.082729e+01   1.248287e+01
   2.832206e+01   4.239653e+01
  -7.782396e+00   3.241918e+01
  -3.252377e+01  -6.319667e+00
  -2.378111e+01  -3.463514e+01
   7.727853e+00  -3.125236e+01
   3.324872e+01  -8.113823e+00
   3.294755e+01   1.354581e+01
   1.073937e+01   2.346782e+01
  -1.019818e+01   1.965267e+01
  -8.546138e+00   5.207661e+00
   1.192981e+01  -6.216935e+00
   2.330193e+01   1.518533e+00
   5.498274e+00   2.372367e+01
  -2.623454e+01   3.274258e+01
  -3.720236e+01   1.174981e+01
  -1.589785e+01  -1.872863e+01
   1.209876e+01  -2.329310e+01
   1.630069e+01   3.034114e+00
  -4.451237e+00   2.714811e+01
  -2.642543e+01   1.788689e+01
  -2.957412e+01  -1.772981e+01
  -1.271319e+01  -4.398061e+01
   1.213862e+01  -3.561012e+01
   2.938717e+01  -1.714300e+00
   2.744829e+01   2.661226e+01
   7.813812e+00   2.766628e+01
  -1.294701e+01   7.833626e+00
  -1.808777e+01  -8.974883e+00
  -8.526072e+00  -8.180152e+00
   2.779200e-02   2.155434e+00
  -2.554957e+00   5.102966e+00
  -9.970038e+00  -3.753243e+00
  -9.668134e+00  -1.397308e+01
   2.388624e+00  -1.545079e+01
   1.852049e+01  -7.938144e+00
   2.558407e+01   3.802330e+00
   1.410512e+01   1.537358e+01
  -1.201203e+01   2.073718e+01
  -3.346388e+01   1.327660e+01
  -3.112275e+01  -5.101542e+00
  -7.604311e+00  -2.120610e+01
   1.353418e+01  -2.357380e+01
   1.499842e+01  -1.543035e+01
   5.271867e+00  -8.715143e+00
   4.002919e+00  -7.459042e+00
   1.429573e+01  -4.187953e+00
   2.035180e+01   6.821779e+00
   1.086609e+01   1.923634e+01
  -6.325961e+00   2.086579e+01
  -1.550942e+01   7.414905e+00
  -1.058959e+01  -1.201099e+01
   2.593211e+00  -2.196534e+01
   1.471171e+01  -1.347482e+01
   1.855728e+01   7.527606e+00
   1.120128e+01   2.431770e+01
  -3.046647e+00   2.467818e+01
  -1.388393e+01   1.258328e+01
  -1.472893e+01   2.145565e+00
  -1.067825e+01   3.145038e-01
  -1.214415e+01  -2.922564e-02
  -2.018833e+01  -8.416259e+00
  -2.269098e+01  -2.295254e+01
  -7.927906e+00  -3.188155e+01
   1.969646e+01  -2.653927e+01
   4.040326e+01  -9.375998e+00
   3.710698e+01   9.227952e+00
   1.293216e+01   1.899353e+01
  -1.053615e+01   1.627406e+01
  -1.426621e+01   6.589175e+00
  -7.283717e-01   4.590607e-01
   1.050338e+01   3.375822e+00
   5.947103e+00   9.637205e+00
  -7.215121e+00   8.964167e+00
  -1.206113e+01  -5.213247e-01
  -3.119602e+00  -9.027206e+00
   8.616747e+00  -5.997454e+00
   1.004171e+01   7.866552e+00
  -6.079946e-01   2.065581e+01
  -1.493129e+01   1.999096e+01
  -2.326769e+01   3.738988e+00
  -2.036131e+01  -1.749321e+01
  -7.339288e+00  -2.804197e+01
   7.760910e+00  -2.051741e+01
   1.444738e+01  -3.434633e+00
   9.390451e+00   6.639360e+00
   7.132932e-01   2.433256e+00
  -7.983707e-01  -6.766064e+00
   5.791395e+00  -7.401485e+00
   1.113672e+01   1.598985e+00
   7.658358e+00   8.623121e+00
  -1.254281e+00   4.912260e+00
  -5.302834e+00  -4.700395e+00
   1.296195e+00  -8.186290e+00
   1.336811e+01  -6.238691e-02
   1.884486e+01   1.359259e+01
   9.672457e+00   2.183501e+01
  -9.453348e+00   1.839613e+01
  -2.350385e+01   6.067518e+00
  -2.092900e+01  -5.867403e+00
  -5.842777e+00  -9.017876e+00
   5.851318e+00  -3.061074e+00
   3.491352e+00   3.799199e+00
  -7.497442e+00   2.804960e+00
  -1.316616e+01  -6.268549e+00
  -6.901563e+00  -1.466471e+01
   4.890856e+00  -1.375646e+01
   1.135818e+01  -4.170946e+00
   8.265937e+00   4.728621e+00
   6.999470e-01   4.539416e+00
  -2.666501e+00  -3.299606e+00
   2.389584e+00  -8.834519e+00
   1.135180e+01  -4.152832e+00
   1.436962e+01   7.864373e+00
   5.925287e+00   1.626848e+01
  -8.267287e+00   1.342802e+01
  -1.590474e+01   2.503533e+00
  -1.070293e+01  -6.706286e+00
   1.092468e+00  -7.847448e+00
   7.910681e+00  -2.885245e+00
   5.139759e+00   1.744326e+00
  -1.395039e+00   1.936490e+00
  -3.281351e+00  -8.613789e-01
   1.192646e+00  -1.672170e+00
   5.848558e+00   2.810673e+00
   3.537522e+00   9.876152e+00
  -6.132206e+00   1.199814e+01
  -1.554156e+01   4.224258e+00
  -1.580121e+01  -9.316215e+00
  -5.528854e+00  -1.813557e+01
   7.256873e+00  -1.562969e+01
   1.279816e+01  -5.409261e+00
   9.038621e+00   3.345821e+00
   2.647724e+00   5.365187e+00
   9.283883e-01   2.886644e+00
   4.069999e+00   1.235546e+00
   5.966083e+00   2.909584e+00
   1.759741e+00   5.761720e+00
  -6.341163e+00   5.484886e+00
  -1.070266e+01   7.184190e-02
  -5.677787e+00  -6.896510e+00
   6.031158e+00  -8.053461e+00
   1.441438e+01   3.770621e-01
   1.079928e+01   1.266616e+01
  -3.480577e+00   1.743230e+01
  -1.744059e+01   9.020869e+00
  -2.034842e+01  -6.138263e+00
  -1.131552e+01  -1.594042e+01
   1.156544e+00  -1.455530e+01
   8.310530e+00  -6.738694e+00
   8.662955e+00  -1.156886e+00
   6.891153e+00  -1.354830e+00
   7.148906e+00  -3.477951e+00
   8.688390e+00  -1.449805e+00
   7.515823e+00   6.257388e+00
   1.298480e+00   1.436910e+01
  -7.523852e+00   1.520264e+01
  -1.313766e+01   6.222152e+00
  -1.111552e+01  -6.514826e+00
  -2.588941e+00  -1.338060e+01
   6.066586e+00  -1.022122e+01
   8.414734e+00  -1.844623e+00
   3.706956e+00   3.760854e+00
  -2.410824e+00   3.659540e+00
  -3.513982e+00   1.533274e+00
   8.767031e-01   1.857267e+00
   4.613172e+00   4.274334e+00
   1.700751e+00   4.471266e+00
  -6.376560e+00  -1.719081e-01
  -1.130434e+01  -6.929142e+00
  -6.744776e+00  -1.008571e+01
   4.214885e+00  -6.661398e+00
   1.174719e+01   5.643744e-01
   9.480178e+00   5.729675e+00
   8.157194e-01   5.255928e+00
  -5.385270e+00   5.011054e-01
  -4.208733e+00  -4.197949e+00
   1.361611e+00  -5.305029e+00
   5.119950e+00  -2.314731e+00
   4.456777e+00   2.366602e+00
   1.969691e+00   5.245056e+00
   1.421231e+00   4.595389e+00
   3.227439e+00   2.432334e+00
   3.998348e+00   2.705619e+00
   2.203184e-01   6.277366e+00
  -7.510530e+00   8.581838e+00
  -1.387377e+01   4.422323e+00
  -1.309461e+01  -4.810469e+00
  -4.667028e+00  -1.113628e+01
   5.187112e+00  -8.706601e+00
   8.617293e+00  -9.757194e-01
   3.464108e+00   2.999840e+00
  -4.421461e+00  -1.033474e+00
  -6.557270e+00  -7.956818e+00
   2.139174e-02  -9.528166e+00
   9.729827e+00  -3.414084e+00
   1.363710e+01   5.088891e+00
   8.072372e+00   9.126957e+00
  -1.722390e+00   6.611394e+00
  -6.713676e+00   1.045763e+00
  -3.130611e+00  -2.261182e+00
   3.712769e+00  -4.808552e-01
   5.035864e+00   4.780594e+00
  -1.952531e+00   8.606208e+00
  -1.076314e+01   6.439609e+00
  -1.223245e+01  -1.774559e+00
  -4.125412e+00  -1.045390e+01
   6.517846e+00  -1.238295e+01
   1.065788e+01  -5.341731e+00
   6.089686e+00   4.989653e+00
  -1.475291e+00   9.851865e+00
  -5.291282e+00   5.990144e+00
  -4.059843e+00  -1.184182e+00
  -1.382779e+00  -3.973443e+00
  -4.904796e-01  -1.271096e+00
  -1.176067e+00   8.122488e-01
  -1.423952e+00  -2.510381e+00
  -1.067288e-01  -7.909209e+00
   2.524909e+00  -7.887398e+00
   5.459630e+00  -5.121293e-01
   6.862746e+00   7.687123e+00
   4.668652e+00   9.277586e+00
  -8.780446e-01   4.123911e+00
  -5.770899e+00  -1.614731e+00
  -5.593243e+00  -3.159600e+00
  -8.780036e-01  -1.401247e+00
   2.897084e+00   1.287801e-01
   1.961355e+00   1.712578e-02
  -8.600881e-01  -3.981898e-01
  -1.833983e-01   4.209634e-01
   3.895771e+00   2.565994e+00
   4.953920e+00   4.919528e+00
  -1.454457e+00   5.685992e+00
  -1.096503e+01   3.073704e+00
  -1.428440e+01  -2.944520e+00
  -7.397292e+00  -9.189388e+00
   4.080977e+00  -1.101802e+01
   1.103689e+01  -6.721815e+00
   9.801538e+00   2.174169e-01
   4.241490e+00   4.283237e+00
   2.583702e-01   3.452790e+00
  -1.313653e-01   9.304677e-01
   7.149980e-01   1.123038e+00
  -5.337468e-02   4.403878e+00
  -2.575681e+00   6.512913e+00
  -4.640431e+00   3.345498e+00
  -4.174309e+00  -3.951655e+00
  -9.901129e-01  -9.229833e+00
   3.173377e+00  -7.216786e+00
   5.568128e+00   8.177065e-01
   3.959978e+00   7.826853e+00
  -1.283611e+00   7.840059e+00
  -6.268472e+00   1.733283e+00
  -6.288330e+00  -4.289821e+00
  -9.194345e-01  -5.487559e+00
   4.403312e+00  -2.817112e+00
   3.870652e+00  -4.592508e-01
  -1.548820e+00  -6.470587e-01
  -4.551570e+00  -2.055542e+00
  -2.223320e-01  -2.413550e+00
   7.445891e+00  -1.012226e+00
   9.885639e+00   1.436176e+00
   4.087777e+00   3.830486e+00
  -4.057827e+00   4.808643e+00
  -6.930239e+00   3.139984e+00
  -3.395855e+00  -5.997599e-01
   1.489273e+00  -3.342745e+00
   3.191139e+00  -2.207125e+00
   1.764589e+00   1.848093e+00
  -2.479794e-01   4.429192e+00
  -1.400826e+00   2.609543e+00
  -1.834208e+00  -1.507226e+00
  -1.786260e+00  -3.291582e+00
  -1.192916e+00  -1.211235e+00
  -3.360264e-01   1.488913e+00
   3.020913e-01   1.095298e+00
   8.057023e-01  -1.819772e+00
   1.557681e+00  -3.169121e+00
   2.120626e+00  -6.059486e-01
   1.299480e+00   3.299374e+00
  -1.131770e+00   3.921563e+00
  -3.302956e+00   1.122070e-01
  -2.697963e+00  -4.207164e+00
   1.016394e+00  -4.365487e+00
   4.974234e+00  -1.530453e-01
   5.447254e+00   4.127740e+00
   1.549632e+00   4.621366e+00
  -3.457067e+00   1.875374e+00
  -5.070283e+00  -5.679113e-01
  -2.170104e+00  -5.373164e-01
   1.566179e+00   9.067956e-01
   1.561349e+00   1.526232e+00
  -2.342211e+00   3.921986e-01
  -5.344051e+00  -1.917647e+00
