
 $NMID
 id='ANONYMOUS ', fmtdat='(2E16.6)'
 volume=1.0
 tramp=1.0
 $END
  -2.629700e+03  -1.366172e+02
  -1.581525e+03  -1.501508e+03
   2.440448e+02  -1.642157e+03
   1.134542e+03  -7.699132e+02
   6.751872e+02   7.438209e+01
  -1.501975e+02   2.130250e+02
  -3.771173e+02  -1.773436e+02
   6.106653e+00  -5.222370e+02
   4.399452e+02  -4.479691e+02
   5.385019e+02   4.645555e+00
   2.962372e+02   4.680598e+02
  -7.782161e+01   5.252023e+02
  -3.028080e+02   1.022234e+02
  -1.921234e+02  -3.864255e+02
   1.414205e+02  -4.385421e+02
   3.438256e+02  -2.166160e+01
   1.943455e+02   4.096551e+02
  -1.541209e+02   4.510085e+02
  -3.721599e+02   1.443111e+02
  -3.023092e+02  -1.795460e+02
  -5.861494e+01  -2.827952e+02
   1.241476e+02  -1.780850e+02
   8.564263e+01  -3.766522e+01
  -1.199437e+02  -3.204143e+01
  -2.295053e+02  -1.769824e+02
  -2.577882e+01  -2.873198e+02
   3.549129e+02  -1.641021e+02
   4.983285e+02   1.364463e+02
   1.949072e+02   3.221843e+02
  -2.674846e+02   2.022273e+02
  -4.236860e+02  -9.671476e+01
  -1.609155e+02  -3.044182e+02
   2.124331e+02  -2.875198e+02
   3.652453e+02  -9.470113e+01
   2.514634e+02   1.450473e+02
   4.450191e+01   2.679831e+02
  -7.061521e+01   1.524622e+02
  -1.455562e+01  -1.013920e+02
   1.416956e+02  -1.770571e+02
   2.057013e+02   8.825248e+01
   4.467774e+01   4.133832e+02
  -2.203371e+02   3.752356e+02
  -3.054827e+02  -1.728749e+01
  -1.049736e+02  -2.951424e+02
   1.533864e+02  -1.365044e+02
   1.681032e+02   2.224844e+02
  -8.834663e+01   3.198195e+02
  -3.552637e+02   4.384177e+01
  -3.686572e+02  -2.978123e+02
  -9.877420e+01  -3.886470e+02
   2.484579e+02  -2.031539e+02
   4.026251e+02   6.739274e+01
   2.457396e+02   2.262975e+02
  -6.993025e+01   1.943022e+02
  -2.491094e+02   4.167978e+01
  -1.589982e+02  -6.742852e+01
   2.692918e+01  -3.337931e+01
   5.387487e+01   6.426139e+01
  -9.333793e+01   6.845504e+01
  -1.925610e+02  -5.101302e+01
  -8.656913e+01  -1.702429e+02
   1.305949e+02  -1.772170e+02
   2.501462e+02  -7.575325e+01
   1.760556e+02   7.392988e+01
  -2.278705e+01   2.116837e+02
  -2.084005e+02   2.524171e+02
  -2.693417e+02   1.211287e+02
  -1.808566e+02  -1.221045e+02
  -2.938967e+01  -2.832512e+02
   5.646202e+01  -2.442623e+02
   4.217971e+01  -1.081771e+02
   2.175536e+01  -4.970575e+01
   8.152222e+01  -7.727258e+01
   1.747241e+02  -5.177107e+01
   1.836976e+02   8.133279e+01
   7.348959e+01   1.966249e+02
  -7.263894e+01   1.534919e+02
  -1.485651e+02  -2.557545e+01
  -1.054442e+02  -1.841690e+02
   3.594446e+01  -1.925570e+02
   1.885109e+02  -4.944596e+01
   2.316578e+02   1.363836e+02
   1.162469e+02   2.358998e+02
  -5.812908e+01   2.002025e+02
  -1.392319e+02   9.793123e+01
  -1.082868e+02   3.676645e+01
  -9.816365e+01   3.970727e+01
  -1.953308e+02   2.655101e+01
  -2.963598e+02  -7.341755e+01
  -2.277606e+02  -2.250609e+02
   2.686760e+01  -3.207587e+02
   2.867435e+02  -2.820711e+02
   3.582509e+02  -1.176296e+02
   2.176630e+02   8.263717e+01
   1.249668e+01   1.950805e+02
  -8.496680e+01   1.523668e+02
  -2.529450e+01   2.246520e+01
   8.802124e+01  -4.126195e+01
   1.101643e+02   2.706781e+01
   8.921159e+00   1.177937e+02
  -1.014602e+02   8.628541e+01
  -9.380218e+01  -4.638286e+01
   2.484887e+01  -1.093376e+02
   1.266027e+02  -1.035117e+00
   1.054587e+02   1.796858e+02
  -2.818694e+01   2.502775e+02
  -1.801028e+02   1.414185e+02
  -2.523697e+02  -5.518523e+01
  -1.963016e+02  -1.954390e+02
  -4.353010e+01  -2.017736e+02
   9.625472e+01  -1.034791e+02
   1.170889e+02  -1.615628e+00
   2.965775e+01   1.639569e+01
  -4.043706e+01  -4.237607e+01
  -3.274930e-01  -8.698600e+01
   9.435828e+01  -5.190857e+01
   1.140576e+02   2.272832e+01
   2.621903e+01   4.632778e+01
  -6.061738e+01  -5.519201e+00
  -2.964276e+01  -6.596219e+01
   1.062386e+02  -6.041910e+01
   2.166701e+02   2.033196e+01
   1.851065e+02   1.267573e+02
   1.895441e+01   1.928774e+02
  -1.556050e+02   1.710510e+02
  -2.040026e+02   6.760688e+01
  -1.058948e+02  -4.063577e+01
   2.465556e+01  -6.322147e+01
   5.318754e+01   3.990042e+00
  -3.810043e+01   6.240214e+01
  -1.397089e+02   2.334762e+01
  -1.394218e+02  -8.287127e+01
  -3.674842e+01  -1.439246e+02
   7.139510e+01  -1.006791e+02
   9.646766e+01  -9.949866e+00
   3.741584e+01   3.025403e+01
  -2.842189e+01  -1.123284e+01
  -1.976434e+01  -7.620972e+01
   6.933574e+01  -8.342559e+01
   1.528023e+02  -6.351082e+00
   1.312640e+02   1.024520e+02
   2.772080e+00   1.552659e+02
  -1.213626e+02   1.073470e+02
  -1.317257e+02   5.844420e-01
  -3.850919e+01  -7.550892e+01
   4.986792e+01  -7.066953e+01
   5.492582e+01  -1.640036e+01
   3.493473e+00   1.920830e+01
  -2.479965e+01   7.940500e+00
   6.675862e+00  -1.495243e+01
   6.086790e+01   2.668869e+00
   7.119281e+01   6.764768e+01
   4.138944e+00   1.256581e+02
  -1.059139e+02   1.082384e+02
  -1.744879e+02   3.121797e+00
  -1.377583e+02  -1.208853e+02
  -2.035050e+01  -1.701280e+02
   8.112344e+01  -1.150873e+02
   9.654687e+01  -1.749182e+01
   5.140094e+01   3.670820e+01
   2.249951e+01   2.339025e+01
   4.059731e+01  -8.469001e+00
   6.280366e+01  -2.654592e+00
   3.701864e+01   4.160041e+01
  -3.215383e+01   7.287958e+01
  -8.745049e+01   4.437848e+01
  -7.322931e+01  -3.318641e+01
   1.514096e+01  -9.097883e+01
   1.182151e+02  -6.105474e+01
   1.475639e+02   5.136868e+01
   5.882407e+01   1.570349e+02
  -9.514355e+01   1.602689e+02
  -1.987264e+02   5.379695e+01
  -1.783151e+02  -7.362347e+01
  -6.840659e+01  -1.285939e+02
   3.385817e+01  -1.012408e+02
   6.848462e+01  -5.606164e+01
   5.487912e+01  -4.834268e+01
   4.699023e+01  -6.620962e+01
   6.863516e+01  -5.428691e+01
   9.482942e+01   1.790516e+01
   8.200396e+01   1.160085e+02
   1.290175e+01   1.657747e+02
  -7.842118e+01   1.195687e+02
  -1.259807e+02   4.436610e+00
  -9.035225e+01  -9.624582e+01
  -3.520884e+00  -1.153881e+02
   5.660233e+01  -5.907332e+01
   4.548848e+01   9.483565e+00
  -2.404111e+00   3.736344e+01
  -1.753064e+01   2.583223e+01
   2.102226e+01   1.110850e+01
   5.999927e+01   1.631308e+01
   3.442907e+01   3.030500e+01
  -5.281980e+01   2.674443e+01
  -1.240694e+02  -5.295964e+00
  -1.037208e+02  -4.858899e+01
   1.679167e-01  -7.038543e+01
   9.795796e+01  -5.009238e+01
   1.066641e+02  -8.831460e-01
   3.190667e+01   3.654137e+01
  -4.492252e+01   2.901815e+01
  -5.607740e+01  -1.564394e+01
  -9.828221e+00  -5.302401e+01
   3.709154e+01  -4.497197e+01
   4.908639e+01   8.354565e-01
   3.826899e+01   3.812068e+01
   3.300393e+01   3.269422e+01
   4.144721e+01   3.310520e+00
   4.762289e+01   2.726981e+00
   2.880278e+01   5.306433e+01
  -2.502165e+01   1.092924e+02
  -9.425811e+01   1.023031e+02
  -1.299239e+02   1.962554e+01
  -9.140826e+01  -7.220922e+01
   1.376229e+00  -9.623099e+01
   6.825780e+01  -4.673594e+01
   4.461477e+01   1.031427e+01
  -4.315362e+01   1.320040e+01
  -9.685692e+01  -3.472253e+01
  -4.910207e+01  -7.996102e+01
   6.384407e+01  -7.760476e+01
   1.396395e+02  -2.760978e+01
   1.140600e+02   3.351492e+01
   2.079709e+01   6.345114e+01
  -4.840318e+01   4.428907e+01
  -3.577130e+01  -8.318327e-01
   2.978319e+01  -2.080473e+01
   6.659352e+01   1.725287e+01
   2.457992e+01   8.566862e+01
  -6.403972e+01   1.107391e+02
  -1.181959e+02   4.537004e+01
  -8.939026e+01  -7.151123e+01
  -5.386407e+00  -1.410633e+02
   6.437260e+01  -1.004694e+02
   7.559677e+01   1.050324e+01
   3.761992e+01   8.891861e+01
  -1.066949e+01   7.550477e+01
  -3.716834e+01   1.037983e+01
  -3.332596e+01  -2.487507e+01
  -1.365741e+01  -6.435228e+00
  -4.566202e+00   1.321250e+01
  -1.993804e+01  -1.483775e+01
  -3.914820e+01  -6.682939e+01
  -2.197138e+01  -7.850514e+01
   4.034357e+01  -3.007680e+01
   9.803421e+01   3.142107e+01
   8.855624e+01   5.449227e+01
   1.185058e+01   3.857672e+01
  -6.049344e+01   1.563087e+01
  -6.345183e+01   1.989648e+00
  -1.128908e+01  -7.909672e+00
   2.641276e+01  -1.463989e+01
   1.373964e+01  -9.941456e+00
  -1.200105e+01   1.771527e+00
   2.322946e+00   4.882438e+00
   4.967762e+01   2.208907e+00
   6.674759e+01   1.856311e+01
   1.129997e+01   5.890425e+01
  -8.306186e+01   8.208049e+01
  -1.378734e+02   4.220812e+01
  -1.073682e+02  -4.767360e+01
  -1.818334e+01  -1.169319e+02
   6.203030e+01  -1.099510e+02
   8.589342e+01  -4.363215e+01
   5.805709e+01   1.641500e+01
   1.810009e+01   2.780678e+01
   6.252605e-01   8.595364e+00
   9.367016e+00   5.589494e+00
   2.134564e+01   3.603377e+01
   1.148583e+01   6.674149e+01
  -2.313799e+01   5.144853e+01
  -5.700848e+01  -1.360554e+01
  -5.486435e+01  -7.697537e+01
  -5.779383e+00  -8.057746e+01
   5.624532e+01  -1.976461e+01
   7.441306e+01   5.153101e+01
   2.523577e+01   7.569746e+01
  -4.818782e+01   4.362280e+01
  -7.416080e+01  -8.615822e+00
  -3.094190e+01  -4.175690e+01
   2.583239e+01  -4.228632e+01
   2.830489e+01  -2.041404e+01
  -2.036873e+01   2.393876e+00
  -5.000150e+01   4.399887e+00
  -1.215244e+01  -1.975837e+01
   5.883404e+01  -4.575703e+01
   8.854258e+01  -3.683972e+01
   5.023426e+01   1.291521e+01
  -1.226170e+01   6.109538e+01
  -4.319841e+01   5.856673e+01
  -3.133699e+01   7.262517e+00
  -2.830566e+00  -3.860508e+01
   1.851185e+01  -3.346921e+01
   2.615112e+01   9.789253e+00
   1.911869e+01   3.975580e+01
  -1.589193e+00   2.758823e+01
  -2.396841e+01  -5.061557e+00
  -2.967207e+01  -1.860508e+01
  -1.513832e+01  -3.358167e+00
   1.988377e+00   1.339934e+01
   5.109426e+00   4.245899e+00
   1.968821e-02  -2.371240e+01
   4.587577e+00  -3.624226e+01
   2.050233e+01  -1.252341e+01
   2.661163e+01   2.777167e+01
   5.217962e+00   4.338695e+01
  -3.047210e+01   1.669483e+01
  -4.348101e+01  -2.635909e+01
  -1.185294e+01  -4.463495e+01
   4.178854e+01  -2.461274e+01
   6.664139e+01   1.101824e+01
   3.565740e+01   3.272600e+01
  -2.172139e+01   3.161340e+01
  -4.784106e+01   1.777475e+01
  -2.029788e+01   4.184344e+00
   2.211118e+01  -4.361406e-01
   2.461858e+01   7.270085e+00
  -1.903216e+01   1.867523e+01
  -5.969366e+01   1.274609e+01
