
 $NMID
 id='ANONYMOUS ', fmtdat='(2E16.6)'
 volume=1.0
 tramp=1.0
 $END
   2.423130e+03   2.322998e+02
   1.627650e+03   1.135813e+03
   2.466562e+02   1.473624e+03
  -7.213142e+02   1.205140e+03
  -8.081053e+02   5.788933e+02
  -3.348267e+02   5.397231e+01
   5.454835e+01  -2.007293e+01
   2.493306e+01   2.476108e+02
  -2.578061e+02   3.924640e+02
  -4.370106e+02   1.311588e+02
  -3.461847e+02  -3.059812e+02
  -9.161108e+01  -4.593460e+02
   1.145052e+02  -1.732246e+02
   1.248255e+02   2.489957e+02
  -5.928077e+01   3.808618e+02
  -2.668731e+02   9.047006e+01
  -2.587487e+02  -3.541360e+02
   3.194361e+01  -5.454872e+02
   3.638858e+02  -3.216178e+02
   4.132404e+02   8.089085e+01
   1.622717e+02   2.879841e+02
  -6.057689e+01   2.049068e+02
   4.341914e+00   8.972038e+01
   2.081881e+02   1.768103e+02
   1.924189e+02   3.495981e+02
  -1.332113e+02   3.125987e+02
  -4.587812e+02   1.582923e+01
  -4.378664e+02  -2.627124e+02
  -7.649771e+01  -2.651285e+02
   2.894239e+02  -3.400432e+01
   3.440895e+02   2.023931e+02
   7.499877e+01   2.928237e+02
  -2.543074e+02   2.284486e+02
  -3.704104e+02   5.845172e+01
  -2.376724e+02  -1.303250e+02
  -5.959880e+01  -2.058894e+02
  -3.696902e+01  -1.056175e+02
  -1.474461e+02   3.792836e+01
  -1.983496e+02   8.550331e+00
  -7.546760e+01  -2.130114e+02
   1.266636e+02  -3.788000e+02
   2.306129e+02  -2.631219e+02
   1.670385e+02   3.620118e+01
   1.453554e+01   1.888754e+02
  -9.035003e+01   2.638467e+01
  -4.546765e+01  -2.445912e+02
   1.507310e+02  -2.773928e+02
   3.594018e+02   1.099642e+01
   3.723598e+02   3.466774e+02
   1.110533e+02   4.132605e+02
  -2.471978e+02   1.885568e+02
  -4.129989e+02  -7.946206e+01
  -2.729301e+02  -1.797920e+02
   1.000461e+01  -1.304545e+02
   1.881418e+02  -6.648136e+01
   1.703182e+02  -4.469998e+01
   6.051609e+01  -2.932461e+01
   1.129065e+01  -2.291512e+00
   7.082147e+01   1.750512e+01
   1.445251e+02   4.791675e+01
   8.950246e+01   1.285082e+02
  -1.205306e+02   2.076500e+02
  -3.160257e+02   1.459637e+02
  -2.749929e+02  -9.643163e+01
   1.875677e+01  -3.407580e+02
   3.165820e+02  -3.521674e+02
   3.645435e+02  -1.075724e+02
   1.821744e+02   1.773874e+02
   7.082353e+00   2.947897e+02
  -1.292781e+01   2.465502e+02
   2.879707e+01   1.744734e+02
  -2.668161e+01   1.542844e+02
  -1.751592e+02   1.247733e+02
  -2.670053e+02   7.772709e+00
  -2.028163e+02  -1.592569e+02
  -3.412028e+01  -2.399483e+02
   1.150711e+02  -1.407968e+02
   1.587045e+02   7.706293e+01
   7.966650e+01   2.369131e+02
  -7.949565e+01   2.056512e+02
  -2.227490e+02   1.512665e+01
  -2.450564e+02  -1.793939e+02
  -1.248617e+02  -2.536958e+02
   3.855040e+01  -2.125786e+02
   1.238960e+02  -1.430118e+02
   1.272289e+02  -1.041347e+02
   1.595582e+02  -7.923854e+01
   2.817565e+02  -1.323927e+01
   3.810281e+02   1.236622e+02
   2.744323e+02   2.943761e+02
  -5.448812e+01   3.983698e+02
  -3.792843e+02   3.387061e+02
  -4.431416e+02   1.219417e+02
  -2.318213e+02  -1.141807e+02
   1.732704e+01  -2.112489e+02
   8.165379e+01  -1.419436e+02
  -2.523565e+01  -2.906669e+01
  -1.206153e+02  -3.171632e+00
  -8.553500e+01  -6.473223e+01
   2.775628e+01  -1.054762e+02
   9.547513e+01  -4.886399e+01
   5.913976e+01   5.667021e+01
  -4.508458e+01   8.631632e+01
  -1.328345e+02  -2.864105e+01
  -1.193507e+02  -2.151380e+02
   2.787839e+01  -3.055504e+02
   2.341135e+02  -1.893781e+02
   3.416746e+02   6.708908e+01
   2.481332e+02   2.661390e+02
   2.609157e+01   2.651327e+02
  -1.357059e+02   1.134904e+02
  -1.255474e+02  -1.335588e+01
  -1.590481e+01  -7.397869e+00
   3.642411e+01   7.354750e+01
  -2.883246e+01   1.017646e+02
  -1.210079e+02   3.633815e+01
  -1.168845e+02  -4.371443e+01
  -8.510188e+00  -4.554898e+01
   8.001522e+01   3.171089e+01
   2.418352e+01   1.013519e+02
  -1.554076e+02   7.826212e+01
  -2.910445e+02  -4.376110e+01
  -2.291279e+02  -1.873412e+02
   4.574659e+00  -2.520359e+02
   2.188182e+02  -1.922922e+02
   2.459499e+02  -5.634637e+01
   1.041365e+02   4.960803e+01
  -3.858974e+01   5.251889e+01
  -4.479241e+01  -1.887323e+01
   6.755639e+01  -6.122924e+01
   1.680343e+02  -4.480878e+00
   1.518814e+02   1.085175e+02
   3.134748e+01   1.642553e+02
  -8.722816e+01   1.053727e+02
  -1.053349e+02  -6.132474e-01
  -2.496736e+01  -3.558127e+01
   5.018807e+01   3.433380e+01
   1.754774e+01   1.203604e+02
  -1.101880e+02   1.113161e+02
  -2.055810e+02  -6.779917e+00
  -1.568369e+02  -1.412870e+02
   8.498835e+00  -1.877845e+02
   1.471698e+02  -1.205483e+02
   1.473769e+02  -1.748914e+00
   3.687551e+01   7.818675e+01
  -5.993493e+01   7.286320e+01
  -5.752849e+01   1.358638e+01
   1.126605e+01  -2.435750e+01
   4.581167e+01  -2.285191e+00
  -6.530383e+00   3.430151e+01
  -9.188498e+01   6.670784e+00
  -1.053102e+02  -9.368249e+01
  -1.824741e+00  -1.750379e+02
   1.497835e+02  -1.381079e+02
   2.262678e+02   1.156899e+01
   1.646557e+02   1.627769e+02
   1.858541e+01   2.070565e+02
  -9.729743e+01   1.340134e+02
  -1.151310e+02   2.373703e+01
  -6.617581e+01  -3.613760e+01
  -3.225803e+01  -2.312383e+01
  -5.313687e+01   1.253472e+01
  -8.639708e+01   4.012651e+00
  -5.996825e+01  -5.869293e+01
   3.789163e+01  -1.082460e+02
   1.283314e+02  -6.826384e+01
   1.123899e+02   4.925785e+01
  -2.220415e+01   1.330111e+02
  -1.699883e+02   8.163234e+01
  -1.953718e+02  -7.949000e+01
  -5.941945e+01  -2.112344e+02
   1.395993e+02  -1.966353e+02
   2.532965e+02  -5.213481e+01
   2.122257e+02   1.001407e+02
   7.402533e+01   1.566231e+02
  -4.570467e+01   1.186241e+02
  -8.157712e+01   6.550588e+01
  -6.078896e+01   6.002872e+01
  -5.196227e+01   8.582503e+01
  -8.492079e+01   7.287059e+01
  -1.225110e+02  -1.960366e+01
  -1.040900e+02  -1.468253e+02
  -1.201959e+01  -2.091008e+02
   1.019526e+02  -1.450244e+02
   1.547060e+02   4.329198e+00
   1.042941e+02   1.277958e+02
  -5.908698e+00   1.430540e+02
  -7.996979e+01   6.405902e+01
  -6.053263e+01  -2.548872e+01
   1.040326e+01  -5.746165e+01
   3.665151e+01  -3.475667e+01
  -1.832998e+01  -9.127789e+00
  -8.017848e+01  -1.630725e+01
  -4.826065e+01  -3.997409e+01
   7.525429e+01  -3.681026e+01
   1.713532e+02   1.102869e+01
   1.326430e+02   7.310294e+01
  -1.435173e+01   9.834090e+01
  -1.367359e+02   6.288908e+01
  -1.357031e+02  -6.917042e+00
  -3.687968e+01  -5.502264e+01
   5.650138e+01  -4.206001e+01
   7.281209e+01   1.919155e+01
   2.245966e+01   7.126739e+01
  -3.819587e+01   6.334263e+01
  -6.661971e+01   3.081297e+00
  -6.045379e+01  -4.821439e+01
  -4.578432e+01  -4.265096e+01
  -4.715831e+01  -4.280944e+00
  -5.923301e+01  -4.158116e+00
  -4.470034e+01  -7.116994e+01
   2.658185e+01  -1.444606e+02
   1.279409e+02  -1.339865e+02
   1.793427e+02  -2.542394e+01
   1.223589e+02   9.491098e+01
  -5.814658e+00   1.284795e+02
  -9.226502e+01   6.625097e+01
  -5.839335e+01  -9.296606e+00
   5.373983e+01  -1.697175e+01
   1.188305e+02   4.287632e+01
   5.665224e+01   1.007092e+02
  -8.405227e+01   9.476383e+01
  -1.751892e+02   2.659444e+01
  -1.385480e+02  -4.981082e+01
  -1.964198e+01  -7.919620e+01
   6.487657e+01  -4.756537e+01
   4.520337e+01   8.943226e+00
  -3.882812e+01   2.997722e+01
  -8.600955e+01  -1.915338e+01
  -3.702262e+01  -1.052819e+02
   7.005722e+01  -1.407954e+02
   1.402174e+02  -6.417741e+01
   1.122665e+02   8.205108e+01
   1.178596e+01   1.729330e+02
  -7.848697e+01   1.231414e+02
  -9.495182e+01  -1.781613e+01
  -4.211071e+01  -1.147100e+02
   2.413310e+01  -9.244735e+01
   5.236002e+01  -8.284029e+00
   3.607354e+01   3.283315e+01
   9.073752e+00   7.560301e+00
   7.718451e+00  -1.403499e+01
   3.409066e+01   2.376392e+01
   5.112279e+01   8.567848e+01
   1.838104e+01   9.568508e+01
  -5.914670e+01   3.573823e+01
  -1.211279e+02  -3.791072e+01
  -1.050523e+02  -6.775695e+01
  -1.577785e+01  -5.175890e+01
   6.947299e+01  -2.259227e+01
   7.837144e+01  -5.759824e-01
   2.025939e+01   1.342490e+01
  -2.964941e+01   1.743043e+01
  -2.232863e+01   7.995266e+00
   9.193539e+00  -4.084447e+00
  -2.229807e-01  -3.175949e+00
  -5.558488e+01   1.417380e+00
  -8.555503e+01  -2.109710e+01
  -2.643175e+01  -7.434025e+01
   9.423404e+01  -1.071443e+02
   1.757924e+02  -6.157073e+01
   1.454719e+02   5.097131e+01
   2.954221e+01   1.447470e+02
  -7.858181e+01   1.441424e+02
  -1.101045e+02   6.229514e+01
  -7.329971e+01  -1.816256e+01
  -2.460193e+01  -3.725874e+01
  -5.920503e+00  -1.449232e+01
  -1.535595e+01  -1.076355e+01
  -2.476714e+01  -4.866247e+01
  -1.052260e+01  -8.551621e+01
   2.896268e+01  -6.530820e+01
   6.948956e+01   1.368728e+01
   7.222702e+01   9.055704e+01
   1.686358e+01   9.954762e+01
  -6.367253e+01   3.258468e+01
  -9.634887e+01  -5.469883e+01
  -3.990678e+01  -9.451100e+01
   5.767890e+01  -6.335027e+01
   9.900271e+01   5.981708e+00
   4.580441e+01   5.874872e+01
  -3.308856e+01   6.262747e+01
  -4.344801e+01   2.749850e+01
   1.836299e+01  -7.685607e+00
   6.213130e+01  -8.033097e+00
   1.876502e+01   2.660312e+01
  -7.327413e+01   5.791055e+01
  -1.167106e+02   4.280671e+01
  -7.051017e+01  -1.992302e+01
   1.275218e+01  -7.908176e+01
   5.830129e+01  -7.812023e+01
   4.629040e+01  -1.639148e+01
   8.953991e+00   4.520749e+01
  -2.081865e+01   4.721612e+01
  -3.310748e+01  -4.888499e+00
  -2.644284e+01  -4.972201e+01
  -5.749358e-01  -4.098126e+01
   3.039571e+01   2.941689e+00
   4.004150e+01   2.691924e+01
   1.960999e+01   7.425051e+00
  -5.799850e+00  -2.185127e+01
  -7.018562e+00  -1.545658e+01
   9.241062e+00   2.521795e+01
   8.668108e+00   5.204328e+01
  -2.023077e+01   2.838414e+01
  -4.286143e+01  -2.523906e+01
  -2.032932e+01  -5.286686e+01
   3.414660e+01  -2.590379e+01
   6.052193e+01   2.682022e+01
   2.004864e+01   5.352506e+01
  -5.419789e+01   3.369633e+01
  -8.821198e+01  -9.127408e+00
  -4.715752e+01  -4.006498e+01
   2.656443e+01  -4.459568e+01
   6.038081e+01  -2.927229e+01
   2.970654e+01  -7.744932e+00
  -1.979990e+01   5.304639e+00
  -2.697167e+01  -8.097884e-01
   1.745328e+01  -1.825404e+01
   6.376630e+01  -1.742888e+01
