
 $NMID
 id='ANONYMOUS ', fmtdat='(2E16.6)'
 volume=1.0
 tramp=1.0
 $END
   1.394887e+03   1.763309e+02
   8.055320e+02   7.934247e+02
  -1.013774e+02   8.287115e+02
  -5.409434e+02   4.405833e+02
  -3.518235e+02   6.357364e+01
   1.692002e+01  -3.720257e+01
   1.320018e+02   9.020977e+01
  -2.786715e+01   2.335132e+02
  -2.226709e+02   2.112296e+02
  -2.671047e+02   7.100066e-01
  -1.477030e+02  -2.313351e+02
   3.076186e+01  -2.622345e+02
   1.302418e+02  -4.908109e+01
   7.404452e+01   1.949788e+02
  -7.788377e+01   2.196852e+02
  -1.700895e+02   9.998413e+00
  -1.024756e+02  -2.147463e+02
   6.951574e+01  -2.507451e+02
   1.949656e+02  -9.892289e+01
   1.734111e+02   8.241374e+01
   4.256947e+01   1.504956e+02
  -5.974267e+01   9.452565e+01
  -2.879509e+01   2.222754e+01
   8.804532e+01   4.139876e+01
   1.229823e+02   1.352316e+02
  -2.069102e+01   1.703418e+02
  -2.242463e+02   5.893708e+01
  -2.635475e+02  -1.138319e+02
  -7.283845e+01  -1.772002e+02
   1.644197e+02  -7.398398e+01
   2.195360e+02   8.757866e+01
   6.314836e+01   1.727973e+02
  -1.342628e+02   1.423057e+02
  -2.041900e+02   3.516250e+01
  -1.294068e+02  -8.407114e+01
  -1.588220e+01  -1.351336e+02
   2.628053e+01  -6.660177e+01
  -2.711135e+01   5.342316e+01
  -1.014712e+02   6.571593e+01
  -9.337357e+01  -8.309779e+01
   1.948573e+01  -2.295305e+02
   1.384097e+02  -1.786304e+02
   1.422149e+02   2.906148e+01
   2.687352e+01   1.497151e+02
  -8.226501e+01   4.693257e+01
  -6.475282e+01  -1.364665e+02
   7.038621e+01  -1.674310e+02
   1.982034e+02  -4.445897e+00
   1.955191e+02   1.806634e+02
   4.639007e+01   2.177384e+02
  -1.413711e+02   1.008618e+02
  -2.195436e+02  -4.945206e+01
  -1.294783e+02  -1.201706e+02
   3.645439e+01  -8.904327e+01
   1.244464e+02  -1.665357e+01
   8.026689e+01   2.066021e+01
  -3.646685e+00   1.404214e+00
  -1.250033e+01  -2.915796e+01
   5.351474e+01  -1.815682e+01
   9.461188e+01   3.527323e+01
   4.048285e+01   8.744692e+01
  -7.247548e+01   9.751723e+01
  -1.458255e+02   5.030050e+01
  -1.124043e+02  -4.353883e+01
   1.034645e+01  -1.370409e+02
   1.338828e+02  -1.551203e+02
   1.674183e+02  -6.128138e+01
   9.826001e+01   8.114301e+01
   4.765526e+00   1.581244e+02
  -2.970955e+01   1.291912e+02
  -9.693642e+00   6.536612e+01
  -8.214548e+00   4.517325e+01
  -6.036340e+01   5.338863e+01
  -1.152269e+02   2.067281e+01
  -1.053621e+02  -6.205449e+01
  -2.993693e+01  -1.188316e+02
   5.199864e+01  -8.156649e+01
   8.474724e+01   2.658857e+01
   5.059055e+01   1.138537e+02
  -3.188836e+01   1.084530e+02
  -1.118584e+02   1.747267e+01
  -1.269278e+02  -8.748034e+01
  -5.913142e+01  -1.341758e+02
   3.305001e+01  -1.083164e+02
   7.320012e+01  -5.645815e+01
   5.946886e+01  -2.993046e+01
   6.311185e+01  -2.927867e+01
   1.229675e+02  -1.147706e+01
   1.768681e+02   5.232814e+01
   1.296859e+02   1.383662e+02
  -2.409893e+01   1.889182e+02
  -1.769675e+02   1.605561e+02
  -2.128368e+02   5.947060e+01
  -1.203115e+02  -5.579692e+01
   3.022007e+00  -1.109518e+02
   5.045950e+01  -7.844167e+01
   5.082127e+00  -9.835413e+00
  -5.726851e+01   1.395343e+01
  -5.690602e+01  -2.583684e+01
   5.616078e+00  -6.418072e+01
   5.862396e+01  -3.712978e+01
   4.415866e+01   3.160755e+01
  -2.143731e+01   5.582363e+01
  -7.163414e+01  -7.871129e+00
  -5.676192e+01  -1.061325e+02
   1.916524e+01  -1.450430e+02
   1.087303e+02  -8.336466e+01
   1.521249e+02   3.414948e+01
   1.143988e+02   1.213351e+02
   1.850386e+01   1.231015e+02
  -6.163826e+01   5.755760e+01
  -6.604492e+01  -4.566101e+00
  -1.273160e+01  -8.926801e+00
   2.184361e+01   2.990501e+01
  -6.576690e+00   5.155499e+01
  -5.834006e+01   2.433113e+01
  -6.305874e+01  -1.909685e+01
  -9.787567e+00  -2.677995e+01
   3.770368e+01   8.234329e+00
   1.529633e+01   4.325411e+01
  -6.713975e+01   3.579537e+01
  -1.316981e+02  -1.707580e+01
  -1.082840e+02  -8.232943e+01
  -4.078081e+00  -1.171771e+02
   9.936585e+01  -9.595753e+01
   1.208563e+02  -3.142146e+01
   5.663457e+01   2.674008e+01
  -1.823712e+01   3.257725e+01
  -2.816048e+01  -6.758247e+00
   2.773182e+01  -3.431159e+01
   8.268091e+01  -7.045332e+00
   7.713190e+01   5.278963e+01
   1.614404e+01   8.317872e+01
  -4.416866e+01   5.446395e+01
  -5.489027e+01   1.343995e+00
  -1.759754e+01  -1.913678e+01
   2.028328e+01   9.761483e+00
   1.070375e+01   4.991558e+01
  -4.568413e+01   5.064468e+01
  -9.332342e+01  -1.750791e-01
  -7.520668e+01  -6.480180e+01
   2.999418e+00  -9.087847e+01
   7.280814e+01  -5.875572e+01
   7.433894e+01   2.280867e+00
   1.868860e+01   4.269787e+01
  -3.074621e+01   3.798337e+01
  -3.094110e+01   7.030302e+00
   9.563507e-01  -1.228069e+01
   1.773667e+01  -3.805039e+00
  -2.935304e+00   1.135405e+01
  -3.797667e+01   2.394394e-01
  -4.430850e+01  -4.145623e+01
  -1.101554e+00  -7.729437e+01
   6.668843e+01  -6.363230e+01
   1.049352e+02   2.869057e+00
   7.862807e+01   7.547170e+01
   8.070165e+00   9.969613e+01
  -4.912183e+01   6.455997e+01
  -5.591696e+01   8.958354e+00
  -2.950004e+01  -2.046572e+01
  -1.328877e+01  -1.275177e+01
  -2.429788e+01   4.892348e+00
  -3.831470e+01   1.252454e+00
  -2.397991e+01  -2.538533e+01
   1.854796e+01  -4.529869e+01
   5.467171e+01  -2.820115e+01
   4.671089e+01   2.073195e+01
  -9.663505e+00   5.686774e+01
  -7.397595e+01   3.643555e+01
  -8.882485e+01  -3.434021e+01
  -3.074263e+01  -9.657212e+01
   6.202593e+01  -9.340465e+01
   1.192925e+02  -2.646531e+01
   1.023770e+02   4.779788e+01
   3.616567e+01   7.646961e+01
  -2.235736e+01   5.783734e+01
  -4.058734e+01   3.097121e+01
  -3.157876e+01   2.714731e+01
  -2.717787e+01   3.843102e+01
  -4.067037e+01   3.179631e+01
  -5.604702e+01  -1.113239e+01
  -4.697714e+01  -6.957436e+01
  -4.657234e+00  -9.820166e+01
   4.871109e+01  -6.863927e+01
   7.419093e+01   1.045879e+00
   5.067111e+01   5.964942e+01
  -1.424373e+00   6.825596e+01
  -3.627688e+01   3.273041e+01
  -2.802535e+01  -8.411433e+00
   2.636400e+00  -2.424883e+01
   1.313147e+01  -1.620643e+01
  -1.053269e+01  -6.429094e+00
  -3.573215e+01  -9.413042e+00
  -2.085963e+01  -1.837184e+01
   3.286594e+01  -1.610341e+01
   7.598839e+01   4.705798e+00
   6.152431e+01   3.202630e+01
  -2.995380e+00   4.400200e+01
  -6.079599e+01   2.893664e+01
  -6.358984e+01  -2.249568e+00
  -1.824350e+01  -2.374689e+01
   2.655025e+01  -1.747655e+01
   3.320943e+01   9.760920e+00
   7.117834e+00   3.161924e+01
  -2.058833e+01   2.672318e+01
  -2.954415e+01  -1.498974e-01
  -2.422876e+01  -2.233458e+01
  -1.984835e+01  -1.974095e+01
  -2.350693e+01  -2.809697e+00
  -2.794933e+01  -2.415134e+00
  -1.800301e+01  -3.196396e+01
   1.496125e+01  -6.502699e+01
   5.828307e+01  -6.047936e+01
   7.959801e+01  -1.083836e+01
   5.442579e+01   4.409072e+01
  -2.411982e+00   5.823219e+01
  -4.156609e+01   2.829956e+01
  -2.634717e+01  -5.901899e+00
   2.549150e+01  -7.231694e+00
   5.603319e+01   2.179438e+01
   2.696158e+01   4.809185e+01
  -3.949053e+01   4.457741e+01
  -8.303605e+01   1.292482e+01
  -6.632238e+01  -2.291628e+01
  -1.021391e+01  -3.792850e+01
   3.028324e+01  -2.423181e+01
   2.154875e+01   2.356004e+00
  -1.785857e+01   1.260803e+01
  -3.926357e+01  -1.048815e+01
  -1.426941e+01  -5.003410e+01
   3.729154e+01  -6.406961e+01
   6.836933e+01  -2.592381e+01
   5.123815e+01   4.195940e+01
   1.905075e+00   8.212193e+01
  -3.903085e+01   5.762649e+01
  -4.464087e+01  -8.029751e+00
  -2.021069e+01  -5.370422e+01
   9.339907e+00  -4.450545e+01
   2.330165e+01  -5.087468e+00
   1.835707e+01   1.570894e+01
   6.499197e+00   4.337199e+00
   3.363021e+00  -7.378680e+00
   1.342803e+01   9.407387e+00
   2.259173e+01   4.008941e+01
   1.008174e+01   4.653690e+01
  -2.578127e+01   1.728195e+01
  -5.687006e+01  -1.967525e+01
  -5.028631e+01  -3.352233e+01
  -6.799135e+00  -2.341512e+01
   3.452446e+01  -8.541720e+00
   3.727161e+01   1.042315e-01
   7.811806e+00   5.086978e+00
  -1.518580e+01   7.896354e+00
  -9.375555e+00   5.159804e+00
   5.948797e+00  -8.785907e-01
  -6.595886e-01  -2.536098e+00
  -2.778925e+01  -1.617640e+00
  -3.923875e+01  -1.135099e+01
  -8.037717e+00  -3.422112e+01
   4.802419e+01  -4.736269e+01
   8.175791e+01  -2.464549e+01
   6.396361e+01   2.736596e+01
   1.018642e+01   6.836395e+01
  -3.780594e+01   6.501970e+01
  -5.115209e+01   2.597968e+01
  -3.389951e+01  -1.000128e+01
  -1.074369e+01  -1.693026e+01
  -1.366523e+00  -5.435500e+00
  -6.285650e+00  -3.878888e+00
  -1.191248e+01  -2.222860e+01
  -5.263236e+00  -3.998171e+01
   1.427004e+01  -3.010295e+01
   3.282639e+01   8.305172e+00
   3.150941e+01   4.481210e+01
   3.913303e+00   4.670285e+01
  -3.172684e+01   1.185613e+01
  -4.307310e+01  -2.942706e+01
  -1.525366e+01  -4.436439e+01
   2.798961e+01  -2.639019e+01
   4.432360e+01   4.897531e+00
   1.923685e+01   2.573699e+01
  -1.536766e+01   2.627155e+01
  -1.823868e+01   1.241056e+01
   1.049025e+01  -1.554366e+00
   2.924927e+01  -2.317447e+00
   7.607980e+00   1.192092e+01
  -3.513785e+01   2.619263e+01
  -5.381494e+01   2.019134e+01
  -3.092878e+01  -8.526318e+00
   7.451739e+00  -3.608184e+01
   2.669600e+01  -3.493960e+01
   1.937116e+01  -5.525568e+00
   1.912367e+00   2.189231e+01
  -1.063665e+01   2.023897e+01
  -1.489911e+01  -4.797229e+00
  -1.113757e+01  -2.350039e+01
   5.008080e-01  -1.720088e+01
   1.390726e+01   2.686719e+00
   1.791245e+01   1.183236e+01
   9.155756e+00   2.716653e+00
  -1.854695e+00  -8.620463e+00
  -3.626495e+00  -4.325119e+00
   1.047110e+00   1.263825e+01
  -2.779993e-01   2.162485e+01
  -1.055885e+01   9.023228e+00
  -1.642179e+01  -1.448396e+01
  -4.826511e+00  -2.456263e+01
   1.716723e+01  -1.005887e+01
   2.594155e+01   1.467219e+01
   7.144108e+00   2.571102e+01
  -2.509214e+01   1.451611e+01
  -3.963166e+01  -6.308614e+00
  -2.091694e+01  -1.944180e+01
   1.282095e+01  -1.914754e+01
   2.807926e+01  -1.106273e+01
   1.261592e+01  -2.865198e+00
  -1.135270e+01   3.492233e-01
  -1.323529e+01  -3.367667e+00
   1.061517e+01  -9.458841e+00
   3.326990e+01  -6.317283e+00
