
 $NMID
 id='ANONYMOUS ', fmtdat='(2E16.6)'
 volume=1.0
 tramp=1.0
 $END
  -2.691014e+03   2.382076e+02
  -2.051896e+03  -1.115524e+03
  -3.866714e+02  -1.788644e+03
   8.914299e+02  -1.411136e+03
   9.706697e+02  -4.749978e+02
   2.792381e+02   1.577500e+02
  -2.401431e+02   7.737445e+01
  -1.540473e+02  -3.710025e+02
   2.605574e+02  -5.495105e+02
   5.358779e+02  -1.993057e+02
   4.628769e+02   3.508633e+02
   1.354576e+02   5.658448e+02
  -1.880920e+02   2.480838e+02
  -2.471301e+02  -2.731799e+02
   1.214189e+01  -4.704544e+02
   3.257755e+02  -1.432719e+02
   3.325138e+02   3.844390e+02
  -2.568725e+01   6.049855e+02
  -4.092440e+02   3.452774e+02
  -4.556191e+02  -9.701624e+01
  -1.822609e+02  -3.210388e+02
   6.517804e+01  -2.443125e+02
   3.155747e+01  -1.104032e+02
  -1.694106e+02  -1.392423e+02
  -2.134703e+02  -2.733118e+02
   4.804097e+01  -2.922602e+02
   4.029747e+02  -1.037626e+02
   4.897738e+02   1.487301e+02
   1.864136e+02   2.515591e+02
  -2.387873e+02   1.333225e+02
  -3.931697e+02  -9.865824e+01
  -1.613469e+02  -2.774746e+02
   2.026869e+02  -2.922798e+02
   3.758960e+02  -1.322049e+02
   2.872825e+02   1.035514e+02
   1.138318e+02   2.401852e+02
   3.568198e+01   1.634872e+02
   7.351888e+01  -2.795081e+01
   1.321637e+02  -7.909298e+01
   1.156567e+02   1.273911e+02
  -4.631257e+00   3.792615e+02
  -1.635979e+02   3.560055e+02
  -2.278096e+02   4.375669e+01
  -1.154598e+02  -2.063179e+02
   7.579744e+01  -1.040724e+02
   1.225985e+02   2.049632e+02
  -8.195804e+01   3.156075e+02
  -3.685804e+02   6.237486e+01
  -4.376544e+02  -3.000014e+02
  -1.716993e+02  -4.245829e+02
   2.324607e+02  -2.480462e+02
   4.504628e+02   2.038410e+01
   3.302211e+02   1.773607e+02
   1.171863e+01   1.864615e+02
  -2.230454e+02   1.146625e+02
  -2.133704e+02   3.162160e+01
  -5.268128e+01  -1.236988e+01
   3.338956e+01   2.478652e+00
  -5.611131e+01   3.051346e+01
  -1.815640e+02  -1.277487e+01
  -1.308787e+02  -1.403949e+02
   1.120171e+02  -2.361280e+02
   3.205227e+02  -1.588965e+02
   2.692740e+02   8.869858e+01
  -1.466637e+01   3.270766e+02
  -2.845224e+02   3.560205e+02
  -3.384383e+02   1.438771e+02
  -2.041947e+02  -1.439865e+02
  -5.765574e+01  -3.051097e+02
  -8.702704e+00  -2.831669e+02
  -9.704363e+00  -1.862222e+02
   4.055967e+01  -1.323270e+02
   1.538117e+02  -1.118208e+02
   2.388455e+02  -3.251083e+01
   2.092197e+02   1.196429e+02
   7.274784e+01   2.243329e+02
  -8.265378e+01   1.592701e+02
  -1.613536e+02  -4.385832e+01
  -1.132850e+02  -2.154937e+02
   4.295495e+01  -2.142568e+02
   2.137563e+02  -5.104046e+01
   2.726011e+02   1.449316e+02
   1.652695e+02   2.511806e+02
  -1.954137e+01   2.383294e+02
  -1.329475e+02   1.636226e+02
  -1.386740e+02   1.019795e+02
  -1.525605e+02   7.462789e+01
  -2.670409e+02   3.207962e+01
  -3.830502e+02  -8.655108e+01
  -3.012343e+02  -2.672497e+02
   1.452018e+01  -4.015398e+02
   3.442771e+02  -3.721118e+02
   4.311155e+02  -1.692015e+02
   2.519278e+02   8.089088e+01
   1.913075e+01   2.144019e+02
  -6.325746e+01   1.709628e+02
   1.171014e+01   4.333480e+01
   1.032745e+02  -1.936638e+01
   9.759053e+01   3.435159e+01
   3.922394e+00   1.093470e+02
  -8.401184e+01   8.306245e+01
  -8.121866e+01  -3.578057e+01
   1.970758e+01  -1.010695e+02
   1.350465e+02   1.880800e+00
   1.450349e+02   2.061211e+02
  -2.117722e+00   3.150420e+02
  -2.213827e+02   2.049871e+02
  -3.438682e+02  -4.677332e+01
  -2.660868e+02  -2.422692e+02
  -5.311462e+01  -2.536732e+02
   1.184670e+02  -1.261376e+02
   1.292990e+02  -7.516513e+00
   2.640881e+01   3.682540e+00
  -4.105530e+01  -6.130781e+01
   1.023693e+01  -9.871449e+01
   1.099864e+02  -5.411015e+01
   1.245231e+02   2.248517e+01
   2.284425e+01   4.173060e+01
  -7.513196e+01  -1.947242e+01
  -3.119434e+01  -9.125421e+01
   1.446960e+02  -8.494098e+01
   2.866091e+02   2.011264e+01
   2.395665e+02   1.609008e+02
   2.159397e+01   2.436284e+02
  -1.915398e+02   2.117825e+02
  -2.379438e+02   8.832653e+01
  -1.176273e+02  -3.341385e+01
   2.466316e+01  -6.150511e+01
   4.891026e+01   5.087190e+00
  -5.256532e+01   6.652105e+01
  -1.639976e+02   2.765508e+01
  -1.674406e+02  -8.879935e+01
  -5.423229e+01  -1.633565e+02
   7.376335e+01  -1.201377e+02
   1.069170e+02  -1.640449e+01
   3.499938e+01   2.813572e+01
  -4.362062e+01  -2.893276e+01
  -2.271868e+01  -1.109195e+02
   9.721335e+01  -1.129999e+02
   1.998021e+02  -1.056321e+01
   1.685843e+02   1.235098e+02
   1.256653e+01   1.886344e+02
  -1.356741e+02   1.393648e+02
  -1.537947e+02   1.900270e+01
  -5.171793e+01  -7.710135e+01
   5.052345e+01  -8.369991e+01
   5.805604e+01  -2.376331e+01
  -5.015676e+00   2.094110e+01
  -3.969691e+01   4.072698e+00
   8.691208e+00  -3.133030e+01
   9.065843e+01  -7.181126e+00
   1.070813e+02   8.777976e+01
   1.248430e+01   1.705635e+02
  -1.354128e+02   1.463722e+02
  -2.226807e+02   9.551703e+00
  -1.788382e+02  -1.448912e+02
  -3.991640e+01  -2.070692e+02
   8.514913e+01  -1.475313e+02
   1.163223e+02  -3.483567e+01
   7.216165e+01   3.414934e+01
   3.514076e+01   2.351254e+01
   5.247524e+01  -1.593840e+01
   8.487507e+01  -8.926735e+00
   5.976373e+01   5.623361e+01
  -3.464564e+01   1.083653e+02
  -1.221183e+02   7.075839e+01
  -1.095674e+02  -4.401120e+01
   1.575266e+01  -1.298241e+02
   1.599837e+02  -8.897352e+01
   1.965444e+02   6.250302e+01
   7.760707e+01   1.999534e+02
  -1.173528e+02   2.054794e+02
  -2.455736e+02   7.701201e+01
  -2.234446e+02  -7.770102e+01
  -9.247311e+01  -1.496806e+02
   3.281924e+01  -1.249052e+02
   7.660438e+01  -7.552244e+01
   5.834676e+01  -6.814493e+01
   4.794993e+01  -9.216909e+01
   8.123438e+01  -7.964216e+01
   1.250473e+02   1.129969e+01
   1.166141e+02   1.393376e+02
   3.052986e+01   2.083830e+02
  -8.821943e+01   1.552077e+02
  -1.544947e+02   1.235833e+01
  -1.164355e+02  -1.155615e+02
  -9.436036e+00  -1.422931e+02
   6.988276e+01  -7.156437e+01
   5.831882e+01   1.781948e+01
  -6.645001e+00   5.374652e+01
  -3.062452e+01   3.326321e+01
   2.288728e+01   6.698152e+00
   8.206460e+01   1.228648e+01
   5.005608e+01   3.717580e+01
  -7.123500e+01   3.995361e+01
  -1.681073e+02  -1.879295e-02
  -1.357317e+02  -5.991958e+01
   5.146981e+00  -9.352147e+01
   1.287756e+02  -7.092496e+01
   1.346202e+02  -6.124462e+00
   4.006094e+01   4.892696e+01
  -5.504218e+01   4.554683e+01
  -7.449004e+01  -1.406964e+01
  -2.444282e+01  -7.158204e+01
   3.752707e+01  -6.756007e+01
   6.671476e+01  -6.100589e+00
   6.143416e+01   4.702181e+01
   4.806793e+01   3.997547e+01
   4.924173e+01  -1.071170e+00
   6.002512e+01  -1.135364e+00
   4.734726e+01   6.920703e+01
  -1.813381e+01   1.472694e+02
  -1.167030e+02   1.415269e+02
  -1.744151e+02   3.578371e+01
  -1.279975e+02  -8.645278e+01
  -3.841768e+00  -1.267336e+02
   8.783257e+01  -7.053606e+01
   6.004904e+01   6.186797e+00
  -5.300785e+01   2.163243e+01
  -1.244053e+02  -3.268440e+01
  -6.687225e+01  -9.528623e+01
   7.496445e+01  -1.022309e+02
   1.721534e+02  -4.378918e+01
   1.429670e+02   3.512322e+01
   2.838493e+01   7.648897e+01
  -5.797975e+01   5.446845e+01
  -4.398179e+01  -3.107845e+00
   3.735074e+01  -3.199287e+01
   8.838849e+01   1.349890e+01
   4.508770e+01   1.054734e+02
  -6.224742e+01   1.503317e+02
  -1.403798e+02   7.680049e+01
  -1.222986e+02  -7.550661e+01
  -2.617032e+01  -1.760116e+02
   6.862057e+01  -1.322632e+02
   9.590289e+01   8.728210e+00
   5.262485e+01   1.098176e+02
  -1.291484e+01   9.281881e+01
  -4.915110e+01   1.243106e+01
  -4.027951e+01  -2.798199e+01
  -1.218877e+01  -4.688731e+00
  -5.318883e+00   1.494281e+01
  -3.236199e+01  -2.227593e+01
  -5.767136e+01  -8.218768e+01
  -2.995228e+01  -9.311018e+01
   5.369513e+01  -3.911909e+01
   1.263128e+02   2.794923e+01
   1.135166e+02   5.794775e+01
   1.904047e+01   5.020201e+01
  -7.082786e+01   2.963557e+01
  -7.879213e+01   8.055959e+00
  -1.885008e+01  -1.261300e+01
   2.914702e+01  -2.133622e+01
   1.913843e+01  -9.727672e+00
  -1.110471e+01   6.057329e+00
   2.092527e+00   3.235417e+00
   5.903473e+01  -6.865654e+00
   8.818823e+01   1.522739e+01
   2.935077e+01   7.616276e+01
  -9.003472e+01   1.176873e+02
  -1.738272e+02   7.364800e+01
  -1.505390e+02  -4.476060e+01
  -4.063567e+01  -1.459961e+02
   6.872256e+01  -1.500347e+02
   1.073389e+02  -6.929446e+01
   7.602774e+01   1.297504e+01
   2.673188e+01   3.539477e+01
   4.686083e+00   1.456000e+01
   1.430591e+01   9.554118e+00
   2.863762e+01   4.545688e+01
   1.837081e+01   8.375346e+01
  -2.396423e+01   6.811043e+01
  -7.277977e+01  -8.329600e+00
  -8.123729e+01  -8.792979e+01
  -2.312671e+01  -1.021862e+02
   6.565190e+01  -3.801833e+01
   1.038001e+02   5.072063e+01
   4.601552e+01   9.447387e+01
  -5.611121e+01   6.712934e+01
  -1.000805e+02  -7.817332e-01
  -4.735166e+01  -5.563808e+01
   3.067722e+01  -6.307396e+01
   3.983626e+01  -2.857491e+01
  -2.123339e+01   1.005315e+01
  -6.288303e+01   1.279109e+01
  -1.965570e+01  -2.576092e+01
   6.933747e+01  -6.457879e+01
   1.115672e+02  -5.231555e+01
   6.962855e+01   1.528512e+01
  -7.654760e+00   8.091168e+01
  -5.242967e+01   8.121237e+01
  -4.545592e+01   1.637936e+01
  -1.224547e+01  -4.730126e+01
   1.920798e+01  -4.860271e+01
   3.584634e+01   4.302966e+00
   3.020510e+01   4.867973e+01
   1.472157e+00   4.024409e+01
  -3.179431e+01  -1.460576e+00
  -4.083197e+01  -2.359728e+01
  -1.930642e+01  -5.121347e+00
   5.311441e+00   2.109359e+01
   5.294135e+00   1.234265e+01
  -1.015111e+01  -2.859113e+01
  -7.190333e+00  -5.407378e+01
   2.320108e+01  -2.836382e+01
   4.546336e+01   2.726673e+01
   2.154146e+01   5.601699e+01
  -3.483322e+01   2.878317e+01
  -6.342439e+01  -2.543275e+01
  -2.398090e+01  -5.448358e+01
   5.215020e+01  -3.724247e+01
   8.980254e+01   4.433903e+00
   5.053785e+01   3.742366e+01
  -2.465868e+01   4.602960e+01
  -6.034737e+01   3.254341e+01
  -2.884390e+01   8.389565e+00
   2.311381e+01  -7.966760e+00
   3.075720e+01  -2.504062e-01
  -1.637856e+01   2.317240e+01
  -6.637680e+01   2.573270e+01
