
 $NMID
 id='ANONYMOUS ', fmtdat='(2E16.6)'
 volume=1.0
 tramp=1.0
 $END
   4.011384e+02   1.674091e+02
   1.330267e+02   3.142089e+02
  -1.474622e+02   2.039683e+02
  -1.908834e+02   1.499432e+01
  -4.678858e+01  -5.550892e+01
   6.697883e+01   2.672049e+00
   4.289988e+01   7.498824e+01
  -4.834796e+01   8.403136e+01
  -9.844329e+01   3.330570e+01
  -7.391862e+01  -3.960969e+01
  -7.395256e+00  -8.671821e+01
   4.835489e+01  -6.470050e+01
   5.119570e+01   1.579088e+01
   1.163275e+00   7.680981e+01
  -5.030739e+01   5.444779e+01
  -5.010342e+01  -2.193478e+01
  -2.309524e+00  -6.853627e+01
   4.310169e+01  -4.830747e+01
   5.083012e+01   3.219890e+00
   2.586302e+01   3.742125e+01
  -8.376633e+00   3.790157e+01
  -2.773548e+01   1.503659e+01
  -1.371356e+01  -6.732333e+00
   2.418292e+01   3.573920e-01
   3.891005e+01   3.594210e+01
  -4.357110e+00   5.517860e+01
  -6.934285e+01   1.829452e+01
  -7.874486e+01  -4.668229e+01
  -1.215818e+01  -6.860216e+01
   6.200834e+01  -2.320815e+01
   6.865009e+01   3.886565e+01
   1.027007e+01   6.051421e+01
  -4.967837e+01   3.706354e+01
  -6.219641e+01  -3.059461e+00
  -2.969912e+01  -3.611754e+01
   1.196206e+01  -4.329903e+01
   2.496783e+01  -1.294020e+01
  -2.797022e+00   2.949504e+01
  -4.081162e+01   2.837926e+01
  -3.919009e+01  -2.949154e+01
   1.191928e+01  -7.774417e+01
   6.010736e+01  -4.913274e+01
   5.046024e+01   2.765434e+01
  -4.330629e+00   5.936716e+01
  -3.982159e+01   1.136383e+01
  -1.905602e+01  -5.021524e+01
   3.088697e+01  -4.926394e+01
   5.945428e+01   9.716333e+00
   4.352997e+01   6.195280e+01
  -3.680482e+00   6.186153e+01
  -4.884130e+01   1.812743e+01
  -5.761014e+01  -2.967361e+01
  -2.118039e+01  -4.602601e+01
   2.682744e+01  -2.318872e+01
   3.958749e+01   1.162343e+01
   1.204468e+01   2.077850e+01
  -1.284205e+01  -8.000934e-01
  -2.268590e+00  -1.892913e+01
   2.437755e+01  -6.416558e+00
   2.751469e+01   2.108391e+01
   1.193423e+00   3.104225e+01
  -2.682307e+01   1.831391e+01
  -3.448844e+01   1.220158e+00
  -2.136600e+01  -1.236558e+01
   5.123691e+00  -2.654782e+01
   3.390507e+01  -3.207814e+01
   4.485490e+01  -1.163093e+01
   2.485023e+01   2.589964e+01
  -8.622376e+00   4.533569e+01
  -2.212999e+01   3.061546e+01
  -9.214474e+00   7.038781e+00
   1.841697e+00   3.625087e+00
  -1.003992e+01   1.275986e+01
  -2.935299e+01   6.747871e+00
  -2.847021e+01  -1.797178e+01
  -5.234056e+00  -3.486848e+01
   1.844861e+01  -2.276432e+01
   2.441502e+01   9.215692e+00
   1.095110e+01   3.338099e+01
  -1.305151e+01   2.983680e+01
  -3.232107e+01   1.235281e+00
  -3.051415e+01  -3.014429e+01
  -6.396518e+00  -4.026768e+01
   1.868995e+01  -2.533286e+01
   2.315792e+01  -5.145700e+00
   1.275900e+01   6.528132e-01
   1.213742e+01  -4.179375e+00
   2.912389e+01  -5.758063e-01
   4.188522e+01   1.866553e+01
   2.629034e+01   4.010411e+01
  -1.409547e+01   4.652126e+01
  -5.075803e+01   3.266392e+01
  -5.705629e+01   5.278020e+00
  -3.032091e+01  -2.163326e+01
   6.085165e+00  -3.162313e+01
   2.142872e+01  -1.860894e+01
   5.968378e+00   1.746759e+00
  -1.757550e+01   5.338729e+00
  -1.859941e+01  -1.037657e+01
   4.503955e+00  -2.115765e+01
   2.253731e+01  -8.436564e+00
   1.347859e+01   1.396806e+01
  -1.039895e+01   1.728919e+01
  -2.102712e+01  -5.014257e+00
  -8.771244e+00  -3.036718e+01
   1.310781e+01  -3.451358e+01
   2.927883e+01  -1.448306e+01
   3.331781e+01   1.446682e+01
   2.302928e+01   3.362778e+01
   1.261085e+00   3.193931e+01
  -1.788898e+01   1.315402e+01
  -1.850493e+01  -4.712601e+00
  -3.374884e+00  -5.238271e+00
   6.261779e+00   7.811250e+00
  -2.490041e+00   1.474838e+01
  -1.717498e+01   5.335690e+00
  -1.739919e+01  -8.442819e+00
  -2.030369e+00  -9.601965e+00
   1.013653e+01   1.771999e+00
   3.775873e+00   1.078170e+01
  -1.633189e+01   6.638589e+00
  -3.100868e+01  -8.131609e+00
  -2.437236e+01  -2.359194e+01
   2.098132e+00  -2.990362e+01
   2.876566e+01  -2.164127e+01
   3.369622e+01  -3.044208e+00
   1.452607e+01   1.139890e+01
  -7.305546e+00   9.553028e+00
  -9.105114e+00  -3.491683e+00
   8.141627e+00  -9.574866e+00
   2.271288e+01   1.064398e+00
   1.817749e+01   1.795201e+01
  -2.381966e-01   2.330165e+01
  -1.508794e+01   1.246770e+01
  -1.550463e+01  -2.503257e+00
  -4.820967e+00  -7.202674e+00
   4.713426e+00   9.005018e-01
   2.299833e+00   1.132380e+01
  -1.148928e+01   1.109454e+01
  -2.267588e+01  -2.701940e+00
  -1.650858e+01  -1.914508e+01
   4.876780e+00  -2.332613e+01
   2.203340e+01  -1.137322e+01
   1.928008e+01   5.576980e+00
   2.155334e+00   1.336042e+01
  -1.066360e+01   8.721308e+00
  -9.220529e+00  -8.215139e-02
  -3.450427e-01  -3.974484e+00
   3.920961e+00  -1.598076e+00
  -3.839145e-01   1.323801e+00
  -7.424633e+00  -1.568984e+00
  -8.094517e+00  -1.059763e+01
   2.205455e+00  -1.780625e+01
   1.802736e+01  -1.310599e+01
   2.591062e+01   4.325085e+00
   1.671983e+01   2.206291e+01
  -2.960662e+00   2.564793e+01
  -1.625599e+01   1.373896e+01
  -1.440905e+01  -1.171190e+00
  -5.365298e+00  -7.107410e+00
  -1.874821e+00  -3.975426e+00
  -5.873288e+00  -2.800696e-02
  -8.780903e+00  -1.166430e+00
  -3.981363e+00  -5.996941e+00
   5.858844e+00  -8.672874e+00
   1.249603e+01  -4.417885e+00
   9.303182e+00   5.454691e+00
  -3.712321e+00   1.216394e+01
  -1.789099e+01   6.226454e+00
  -2.015241e+01  -1.102247e+01
  -4.663880e+00  -2.497462e+01
   1.859293e+01  -2.132782e+01
   3.113332e+01  -1.863592e+00
   2.392668e+01   1.698970e+01
   5.533783e+00   2.160253e+01
  -8.681531e+00   1.381654e+01
  -1.210192e+01   5.575071e+00
  -9.712144e+00   4.530601e+00
  -8.900746e+00   7.318990e+00
  -1.128266e+01   5.260688e+00
  -1.263837e+01  -5.514530e+00
  -7.937418e+00  -1.914308e+01
   3.423094e+00  -2.435971e+01
   1.539364e+01  -1.488720e+01
   1.894244e+01   3.471265e+00
   1.049820e+01   1.716495e+01
  -3.122237e+00   1.738261e+01
  -1.048824e+01   7.506765e+00
  -7.056088e+00  -2.205037e+00
   5.973321e-01  -5.473862e+00
   2.754209e+00  -4.093852e+00
  -2.526502e+00  -2.999245e+00
  -7.584589e+00  -4.078469e+00
  -3.906818e+00  -5.040751e+00
   7.924386e+00  -2.625703e+00
   1.739110e+01   3.591664e+00
   1.400390e+01   9.819816e+00
  -1.207796e+00   1.076373e+01
  -1.522686e+01   4.913461e+00
  -1.577877e+01  -3.020600e+00
  -4.102309e+00  -6.225359e+00
   6.960375e+00  -2.504585e+00
   7.386424e+00   3.919559e+00
  -3.036534e-01   7.026768e+00
  -6.527568e+00   4.393881e+00
  -6.535336e+00  -1.498344e+00
  -3.867333e+00  -5.799414e+00
  -3.621787e+00  -5.393764e+00
  -5.960110e+00  -2.183986e+00
  -6.777301e+00  -1.975524e+00
  -2.439511e+00  -7.775244e+00
   6.791760e+00  -1.421623e+01
   1.614137e+01  -1.202632e+01
   1.865737e+01   3.333006e-01
   1.075233e+01   1.264561e+01
  -2.693571e+00   1.375889e+01
  -1.054418e+01   4.672715e+00
  -5.696275e+00  -2.877811e+00
   6.578809e+00  -4.202283e-01
   1.271275e+01   8.365614e+00
   4.546640e+00   1.338007e+01
  -1.174520e+01   9.334348e+00
  -2.142530e+01  -4.274472e-01
  -1.587085e+01  -8.645653e+00
  -1.036857e+00  -1.022053e+01
   8.824002e+00  -5.260519e+00
   5.637716e+00   1.042544e+00
  -4.616845e+00   1.978664e+00
  -8.686831e+00  -4.556507e+00
  -3.430917e-01  -1.266213e+01
   1.296535e+01  -1.290370e+01
   1.808799e+01  -1.784713e+00
   9.848956e+00   1.337595e+01
  -4.323099e+00   2.007525e+01
  -1.278066e+01   1.214284e+01
  -1.077665e+01  -3.848739e+00
  -2.814376e+00  -1.420852e+01
   3.861047e+00  -1.126739e+01
   5.820562e+00  -8.071938e-01
   4.223292e+00   5.015105e+00
   1.938328e+00   1.963640e+00
   1.211724e+00  -1.953620e+00
   2.459510e+00   1.972107e+00
   3.457343e+00   1.063430e+01
   6.162210e-01   1.267569e+01
  -6.643942e+00   3.635175e+00
  -1.290638e+01  -7.898430e+00
  -1.098026e+01  -1.115379e+01
  -6.340391e-01  -5.734064e+00
   9.127330e+00   3.132369e-01
   9.299066e+00   1.841169e+00
   1.422732e+00   9.603898e-01
  -4.424019e+00   9.958405e-01
  -2.461207e+00   1.463919e+00
   1.810871e+00   6.191414e-01
  -3.798058e-02  -1.054039e+00
  -6.917341e+00  -2.561919e+00
  -8.706253e+00  -4.786361e+00
   6.594734e-01  -7.888988e+00
   1.456104e+01  -8.139091e+00
   2.037437e+01  -1.426433e+00
   1.280376e+01   9.834957e+00
  -1.600083e+00   1.686831e+01
  -1.201529e+01   1.352336e+01
  -1.309043e+01   3.341667e+00
  -7.559017e+00  -4.297232e+00
  -1.781551e+00  -4.361048e+00
   7.917763e-02  -7.694007e-01
  -1.316245e+00  -7.374480e-01
  -2.166458e+00  -5.891502e+00
   3.190844e-01  -1.013439e+01
   4.947823e+00  -6.554885e+00
   7.507214e+00   4.068806e+00
   4.761456e+00   1.273305e+01
  -2.227252e+00   1.104950e+01
  -8.325697e+00   2.415622e-01
  -8.120856e+00  -9.890248e+00
  -8.298340e-01  -1.106079e+01
   7.781155e+00  -4.184754e+00
   9.781137e+00   3.390415e+00
   3.291310e+00   6.292919e+00
  -4.374926e+00   4.951655e+00
  -4.344934e+00   2.495514e+00
   2.862558e+00   9.849239e-01
   7.120996e+00   1.138455e+00
   1.109890e+00   2.915462e+00
  -9.888826e+00   4.538411e+00
  -1.393587e+01   2.843673e+00
  -6.792529e+00  -2.853388e+00
   3.668798e+00  -8.057374e+00
   7.644795e+00  -7.094705e+00
   3.984829e+00  -2.897717e-01
  -1.260449e+00   5.311912e+00
  -3.442418e+00   3.840808e+00
  -2.870643e+00  -2.456760e+00
  -1.334566e+00  -6.134681e+00
   7.549938e-01  -3.514025e+00
   3.000504e+00   1.590411e+00
   3.796646e+00   3.327314e+00
   2.263125e+00   8.397621e-01
  -1.066426e-01  -1.592527e+00
  -1.299380e+00  -4.324171e-01
  -1.383780e+00   2.852546e+00
  -1.803301e+00   3.792755e+00
  -2.591510e+00   3.435035e-01
  -1.913889e+00  -4.445078e+00
   1.205083e+00  -5.422264e+00
   4.665299e+00  -9.387362e-01
   4.713185e+00   4.952797e+00
  -1.105281e-01   6.464392e+00
  -6.523448e+00   2.179637e+00
  -8.677798e+00  -3.578990e+00
  -3.868543e+00  -5.703781e+00
   3.809745e+00  -3.602120e+00
   6.905024e+00  -7.798823e-01
   2.731647e+00  -1.590173e-01
  -3.063429e+00  -1.377959e+00
  -2.793159e+00  -2.376352e+00
   3.894576e+00  -1.729388e+00
   9.167589e+00   9.911656e-01
