
 $NMID
 id='ANONYMOUS ', fmtdat='(2E16.6)'
 volume=1.0
 tramp=1.0
 $END
   2.996469e+03  -5.724986e+01
   2.024301e+03   1.518687e+03
   1.284721e+01   1.948122e+03
  -1.198102e+03   1.167730e+03
  -9.179166e+02   1.359875e+02
  -1.693027e+01  -2.503822e+02
   3.883077e+02   7.524557e+01
   8.191448e+01   5.338916e+02
  -4.155313e+02   5.658507e+02
  -6.161239e+02   9.103109e+01
  -4.189515e+02  -4.807148e+02
  -9.554823e+00  -6.213522e+02
   2.999074e+02  -1.894581e+02
   2.546048e+02   3.853122e+02
  -9.735436e+01   5.162099e+02
  -3.854791e+02   8.333065e+01
  -2.852785e+02  -4.533674e+02
   1.205162e+02  -5.803917e+02
   4.426979e+02  -2.496390e+02
   4.110665e+02   1.711531e+02
   1.199708e+02   3.395819e+02
  -1.153806e+02   2.334659e+02
  -7.804976e+01   7.785010e+01
   1.473264e+02   8.057833e+01
   2.471685e+02   2.308994e+02
   4.884948e+00   3.173593e+02
  -4.083935e+02   1.635194e+02
  -5.560533e+02  -1.454505e+02
  -2.271063e+02  -3.262355e+02
   2.776656e+02  -2.062179e+02
   4.634150e+02   9.690996e+01
   1.891519e+02   3.257014e+02
  -2.272594e+02   3.291237e+02
  -4.133653e+02   1.289590e+02
  -3.022790e+02  -1.419938e+02
  -8.640833e+01  -2.923275e+02
   3.269319e+01  -1.844066e+02
  -1.209919e+01   7.654136e+01
  -1.433089e+02   1.618517e+02
  -1.923419e+02  -1.033954e+02
  -4.183174e+01  -4.436852e+02
   2.130642e+02  -4.210000e+02
   3.146590e+02  -1.841957e+01
   1.350077e+02   2.920063e+02
  -1.342200e+02   1.485820e+02
  -1.757849e+02  -2.344168e+02
   8.846356e+01  -3.584489e+02
   4.030901e+02  -6.388415e+01
   4.472865e+02   3.304345e+02
   1.467239e+02   4.523834e+02
  -2.698676e+02   2.525076e+02
  -4.748525e+02  -5.026570e+01
  -3.182396e+02  -2.334905e+02
   3.967971e+01  -2.216550e+02
   2.722627e+02  -8.418491e+01
   2.088722e+02   3.510799e+01
   4.805072e+00   3.515122e+01
  -5.785170e+01  -4.381126e+01
   8.477748e+01  -6.588866e+01
   2.148106e+02   3.611890e+01
   1.210870e+02   1.793831e+02
  -1.386251e+02   2.267017e+02
  -3.128833e+02   1.194439e+02
  -2.357130e+02  -9.144550e+01
   2.566537e+01  -2.851251e+02
   2.659498e+02  -3.240065e+02
   3.283699e+02  -1.459837e+02
   2.130512e+02   1.430272e+02
   4.941765e+01   3.271011e+02
  -3.362212e+01   2.951629e+02
  -2.909885e+01   1.577115e+02
  -3.690634e+01   8.856827e+01
  -1.215122e+02   9.718706e+01
  -2.190627e+02   4.937950e+01
  -2.149801e+02  -1.042550e+02
  -8.441743e+01  -2.294841e+02
   8.220072e+01  -1.749737e+02
   1.706422e+02   3.358124e+01
   1.231166e+02   2.169214e+02
  -4.018937e+01   2.245525e+02
  -2.201287e+02   5.847757e+01
  -2.783790e+02  -1.536397e+02
  -1.544378e+02  -2.709529e+02
   4.733893e+01  -2.436718e+02
   1.556523e+02  -1.401162e+02
   1.374520e+02  -6.812689e+01
   1.336902e+02  -5.702000e+01
   2.476088e+02  -3.125505e+01
   3.676848e+02   8.693851e+01
   2.869498e+02   2.690539e+02
  -2.344523e+01   3.933290e+02
  -3.442708e+02   3.547840e+02
  -4.315256e+02   1.556648e+02
  -2.594974e+02  -8.915380e+01
  -1.980526e+01  -2.262726e+02
   8.395123e+01  -1.815658e+02
   1.412853e+01  -3.695793e+01
  -1.021321e+02   3.810154e+01
  -1.181440e+02  -2.978452e+01
  -1.127470e+01  -1.276995e+02
   1.040822e+02  -9.879825e+01
   1.015939e+02   4.443586e+01
  -2.254586e+01   1.198381e+02
  -1.448052e+02   2.281317e+00
  -1.363869e+02  -2.122186e+02
   1.976457e+01  -3.089779e+02
   2.196827e+02  -1.853579e+02
   3.216081e+02   5.909226e+01
   2.492324e+02   2.382887e+02
   5.349874e+01   2.466002e+02
  -1.159978e+02   1.256167e+02
  -1.363382e+02   6.047455e+00
  -3.314295e+01  -1.220307e+01
   4.507643e+01   5.425399e+01
  -2.801147e+00   1.013053e+02
  -1.108830e+02   5.999956e+01
  -1.323851e+02  -2.343781e+01
  -2.934764e+01  -4.907224e+01
   7.284647e+01   1.154223e+01
   3.347012e+01   8.355477e+01
  -1.349522e+02   7.727181e+01
  -2.714468e+02  -2.272660e+01
  -2.297676e+02  -1.554249e+02
  -2.304758e+01  -2.362439e+02
   1.877443e+02  -2.089627e+02
   2.419897e+02  -8.634743e+01
   1.246994e+02   4.088660e+01
  -2.598562e+01   7.056963e+01
  -5.774092e+01  -3.367072e+00
   4.738870e+01  -7.130127e+01
   1.659632e+02  -2.934144e+01
   1.688855e+02   9.391742e+01
   5.017784e+01   1.693382e+02
  -7.989863e+01   1.220454e+02
  -1.124029e+02   1.524517e+01
  -4.170860e+01  -3.192256e+01
   3.698104e+01   2.026290e+01
   2.254826e+01   9.920433e+01
  -8.918383e+01   1.049866e+02
  -1.902971e+02   8.942052e+00
  -1.629235e+02  -1.228807e+02
  -8.277681e+00  -1.879577e+02
   1.414326e+02  -1.349345e+02
   1.576826e+02  -9.642655e+00
   5.011086e+01   8.516641e+01
  -5.534936e+01   8.547748e+01
  -6.286398e+01   2.240200e+01
  -7.395891e-01  -2.148947e+01
   3.337103e+01  -6.783849e+00
  -9.139214e+00   2.343908e+01
  -8.105466e+01   2.889100e-01
  -9.441895e+01  -8.486679e+01
  -7.685126e+00  -1.594357e+02
   1.308033e+02  -1.369715e+02
   2.152738e+02  -6.654829e+00
   1.719387e+02   1.448265e+02
   3.202309e+01   2.063471e+02
  -9.207008e+01   1.435828e+02
  -1.169315e+02   2.746235e+01
  -6.702538e+01  -4.032597e+01
  -3.087373e+01  -2.660833e+01
  -5.061543e+01   1.260582e+01
  -7.967280e+01   5.384242e+00
  -5.061398e+01  -5.331831e+01
   3.787790e+01  -9.660411e+01
   1.128957e+02  -5.993537e+01
   9.676067e+01   4.250057e+01
  -1.790733e+01   1.179641e+02
  -1.499353e+02   7.941041e+01
  -1.854689e+02  -6.216021e+01
  -7.398886e+01  -1.932049e+02
   1.150824e+02  -1.983394e+02
   2.418786e+02  -7.086237e+01
   2.193112e+02   8.316369e+01
   8.780268e+01   1.526178e+02
  -3.681809e+01   1.237751e+02
  -8.003424e+01   7.166271e+01
  -6.311683e+01   6.319425e+01
  -5.330199e+01   8.569780e+01
  -8.250873e+01   7.176966e+01
  -1.193262e+02  -1.732348e+01
  -1.068732e+02  -1.399157e+02
  -2.238496e+01  -2.038318e+02
   9.154212e+01  -1.494198e+02
   1.530434e+02  -9.047248e+00
   1.125507e+02   1.153552e+02
   7.072968e+00   1.404132e+02
  -6.828219e+01   7.152365e+01
  -5.573900e+01  -1.390216e+01
   4.754780e+00  -4.824264e+01
   2.491243e+01  -3.138450e+01
  -2.485278e+01  -1.026484e+01
  -7.680993e+01  -1.681222e+01
  -4.510615e+01  -3.704724e+01
   6.695733e+01  -3.520164e+01
   1.572986e+02   4.096674e+00
   1.294073e+02   5.891063e+01
  -2.283562e+00   8.783275e+01
  -1.225322e+02   6.457699e+01
  -1.310996e+02   3.568239e+00
  -3.896623e+01  -4.579433e+01
   5.491648e+01  -3.952625e+01
   7.073324e+01   1.689309e+01
   1.685397e+01   6.773875e+01
  -4.226367e+01   6.037489e+01
  -6.264154e+01   1.759332e+00
  -5.252173e+01  -4.708019e+01
  -4.330717e+01  -3.987928e+01
  -4.994083e+01  -1.514978e+00
  -5.868353e+01  -1.268046e+00
  -3.986071e+01  -6.664116e+01
   2.539696e+01  -1.388647e+02
   1.150956e+02  -1.310248e+02
   1.642474e+02  -2.833395e+01
   1.178486e+02   8.713825e+01
   6.044815e-01   1.205260e+02
  -8.500606e+01   6.217072e+01
  -5.675682e+01  -9.935281e+00
   5.260569e+01  -1.849824e+01
   1.205566e+02   3.776021e+01
   6.292757e+01   9.585849e+01
  -7.595132e+01   9.754462e+01
  -1.700222e+02   3.837019e+01
  -1.400579e+02  -3.760396e+01
  -2.688617e+01  -7.637149e+01
   5.776956e+01  -5.412313e+01
   4.322081e+01   1.632418e+00
  -3.674119e+01   2.798834e+01
  -8.407556e+01  -1.780236e+01
  -3.643108e+01  -1.048446e+02
   7.120355e+01  -1.416771e+02
   1.425099e+02  -6.473627e+01
   1.148149e+02   8.193753e+01
   1.525916e+01   1.734626e+02
  -7.371968e+01   1.265645e+02
  -9.323340e+01  -1.074761e+01
  -4.875511e+01  -1.082239e+02
   1.236455e+01  -9.161539e+01
   4.638430e+01  -1.243591e+01
   4.046781e+01   2.882591e+01
   1.494820e+01   6.057534e+00
   5.234817e+00  -1.553564e+01
   2.718845e+01   2.008459e+01
   5.179768e+01   8.147225e+01
   2.859503e+01   9.385021e+01
  -5.054933e+01   3.730133e+01
  -1.222004e+02  -3.350671e+01
  -1.102710e+02  -6.212340e+01
  -1.624460e+01  -4.815351e+01
   7.254396e+01  -2.386614e+01
   7.764045e+01  -5.062173e+00
   1.556275e+01   1.106217e+01
  -3.080717e+01   1.952821e+01
  -1.733113e+01   1.095489e+01
   1.332530e+01  -4.080443e+00
  -2.736662e+00  -4.714745e+00
  -6.010194e+01   1.716353e+00
  -8.410256e+01  -1.940957e+01
  -2.013865e+01  -7.399884e+01
   9.644085e+01  -1.077963e+02
   1.702309e+02  -6.065598e+01
   1.390757e+02   5.278088e+01
   3.012360e+01   1.438904e+02
  -7.248640e+01   1.403316e+02
  -1.057025e+02   5.973487e+01
  -7.292002e+01  -1.691295e+01
  -2.386910e+01  -3.441556e+01
  -2.127123e+00  -1.233762e+01
  -1.233913e+01  -8.018160e+00
  -2.700661e+01  -4.419488e+01
  -1.597169e+01  -8.184383e+01
   2.623692e+01  -6.483805e+01
   7.091507e+01   1.288282e+01
   7.314559e+01   9.122275e+01
   1.386172e+01   1.000953e+02
  -6.762713e+01   3.019894e+01
  -9.651039e+01  -5.771470e+01
  -3.711985e+01  -9.327694e+01
   5.783875e+01  -5.895348e+01
   9.432541e+01   6.597233e+00
   4.128123e+01   5.286407e+01
  -3.140966e+01   5.605138e+01
  -3.650018e+01   2.598788e+01
   2.363609e+01  -6.223982e+00
   6.170503e+01  -8.577644e+00
   1.668446e+01   2.482087e+01
  -7.041055e+01   5.947955e+01
  -1.087266e+02   4.791179e+01
  -6.425003e+01  -1.566437e+01
   1.185431e+01  -7.706278e+01
   5.238568e+01  -7.510190e+01
   4.132561e+01  -1.155347e+01
   7.283126e+00   4.735653e+01
  -2.131532e+01   4.400751e+01
  -3.384426e+01  -8.800853e+00
  -2.619333e+01  -4.848111e+01
   8.065933e-01  -3.629746e+01
   3.039042e+01   4.200410e+00
   3.782205e+01   2.297783e+01
   1.858635e+01   4.430968e+00
  -3.334484e+00  -1.833321e+01
  -5.297611e+00  -7.960422e+00
   4.338536e+00   2.925896e+01
  -7.656088e-01   4.880095e+01
  -2.489873e+01   2.077306e+01
  -3.816400e+01  -3.160880e+01
  -1.260727e+01  -5.476429e+01
   3.635889e+01  -2.401073e+01
   5.747461e+01   2.954509e+01
   1.854023e+01   5.456075e+01
  -5.132860e+01   3.291198e+01
  -8.475070e+01  -9.769008e+00
  -4.638855e+01  -3.878150e+01
   2.581348e+01  -4.154920e+01
   5.929034e+01  -2.612506e+01
   2.641039e+01  -6.249447e+00
  -2.567722e+01   4.012219e+00
  -3.076328e+01  -4.926396e+00
   2.009209e+01  -2.336191e+01
   7.014631e+01  -2.047066e+01
