
 $NMID
 id='ANONYMOUS ', fmtdat='(2E16.6)'
 volume=1.0
 tramp=1.0
 $END
  -2.132333e+03  -2.384759e+01
  -1.520202e+03  -9.125835e+02
  -2.934953e+02  -1.321206e+03
   6.142291e+02  -1.105252e+03
   7.148252e+02  -5.048958e+02
   2.812215e+02  -1.081463e+01
  -8.297061e+01   3.621128e+01
  -5.901973e+01  -2.339015e+02
   2.061796e+02  -3.776245e+02
   3.904496e+02  -1.425967e+02
   3.321414e+02   2.588709e+02
   1.044401e+02   4.131149e+02
  -1.064049e+02   1.699911e+02
  -1.406252e+02  -2.118814e+02
   2.746042e+01  -3.464272e+02
   2.374994e+02  -9.827091e+01
   2.490415e+02   3.011082e+02
  -8.477234e+00   4.822239e+02
  -3.122563e+02   2.934975e+02
  -3.670341e+02  -5.957416e+01
  -1.530991e+02  -2.491947e+02
   4.589625e+01  -1.862919e+02
   4.458316e-01  -8.238300e+01
  -1.751056e+02  -1.393866e+02
  -1.778001e+02  -2.786893e+02
   8.845365e+01  -2.660324e+02
   3.800030e+02  -4.352721e+01
   3.916304e+02   1.880814e+02
   9.584769e+01   2.197382e+02
  -2.345340e+02   5.671736e+01
  -3.089290e+02  -1.411404e+02
  -9.044594e+01  -2.439358e+02
   1.994996e+02  -2.155765e+02
   3.158317e+02  -7.649747e+01
   2.176881e+02   9.814592e+01
   6.950062e+01   1.808221e+02
   3.633730e+01   1.017571e+02
   1.107373e+02  -3.267313e+01
   1.545856e+02  -2.575622e+01
   7.689342e+01   1.621283e+02
  -7.265437e+01   3.259839e+02
  -1.740628e+02   2.502519e+02
  -1.549097e+02  -7.932961e+00
  -3.938873e+01  -1.626356e+02
   7.162631e+01  -4.095070e+01
   6.101079e+01   1.985711e+02
  -1.061990e+02   2.488465e+02
  -3.091663e+02   1.647287e+01
  -3.425056e+02  -2.757222e+02
  -1.204588e+02  -3.527463e+02
   2.022987e+02  -1.812560e+02
   3.635348e+02   4.296225e+01
   2.517693e+02   1.444640e+02
   1.358267e+00   1.234238e+02
  -1.656613e+02   7.366973e+01
  -1.544709e+02   4.200104e+01
  -5.081466e+01   1.814448e+01
  -4.084434e-01   1.011932e+00
  -5.696076e+01  -3.504346e+00
  -1.323166e+02  -2.863112e+01
  -8.963861e+01  -1.091437e+02
   9.499892e+01  -1.877559e+02
   2.681003e+02  -1.375853e+02
   2.379334e+02   7.348062e+01
  -5.738488e+00   2.906931e+02
  -2.552717e+02   3.119997e+02
  -3.039367e+02   1.099007e+02
  -1.654315e+02  -1.396974e+02
  -2.545915e+01  -2.539771e+02
  -1.640686e+00  -2.193625e+02
  -2.627142e+01  -1.522213e+02
   2.196106e+01  -1.293590e+02
   1.429872e+02  -1.091277e+02
   2.228772e+02  -1.876056e+01
   1.792454e+02   1.226803e+02
   4.387423e+01   2.010139e+02
  -8.761541e+01   1.273174e+02
  -1.383173e+02  -5.470811e+01
  -8.175352e+01  -1.960223e+02
   5.456270e+01  -1.798996e+02
   1.882242e+02  -2.667105e+01
   2.206860e+02   1.392026e+02
   1.230815e+02   2.128406e+02
  -2.225483e+01   1.887246e+02
  -1.036446e+02   1.311542e+02
  -1.088182e+02   9.318054e+01
  -1.336155e+02   7.165618e+01
  -2.383580e+02   2.307452e+01
  -3.306584e+02  -8.750500e+01
  -2.493768e+02  -2.387804e+02
   2.687594e+01  -3.437054e+02
   3.081095e+02  -3.082709e+02
   3.737038e+02  -1.272380e+02
   2.058950e+02   8.396127e+01
  -1.105779e+00   1.817740e+02
  -6.142219e+01   1.299228e+02
   2.018472e+01   2.761304e+01
   9.958430e+01  -4.936907e+00
   7.704956e+01   4.654395e+01
  -1.413257e+01   9.139165e+01
  -7.730814e+01   5.154284e+01
  -5.646362e+01  -4.204374e+01
   3.057531e+01  -7.785351e+01
   1.147523e+02   1.515962e+01
   1.139799e+02   1.789316e+02
  -9.447515e+00   2.648202e+02
  -1.927389e+02   1.725746e+02
  -2.956911e+02  -4.345968e+01
  -2.242002e+02  -2.161972e+02
  -3.543053e+01  -2.241135e+02
   1.094704e+02  -1.036810e+02
   1.085310e+02   3.396049e+00
   1.595580e+01   4.818715e+00
  -3.407107e+01  -5.952934e+01
   1.807512e+01  -8.718963e+01
   1.002147e+02  -3.813473e+01
   1.027593e+02   2.957196e+01
   1.149840e+01   3.771424e+01
  -6.837680e+01  -2.255414e+01
  -2.491031e+01  -8.417393e+01
   1.289714e+02  -7.291698e+01
   2.499930e+02   2.438256e+01
   2.039222e+02   1.486691e+02
   8.585391e+00   2.144006e+02
  -1.763773e+02   1.750038e+02
  -2.072961e+02   6.201953e+01
  -9.332522e+01  -3.587992e+01
   2.851330e+01  -4.774272e+01
   3.951938e+01   1.195416e+01
  -5.306349e+01   5.528616e+01
  -1.428764e+02   1.343119e+01
  -1.364354e+02  -8.436471e+01
  -3.646275e+01  -1.394978e+02
   6.872765e+01  -9.583204e+01
   9.043982e+01  -6.112812e+00
   2.436580e+01   2.803847e+01
  -4.265371e+01  -2.714420e+01
  -1.939754e+01  -1.009078e+02
   8.879215e+01  -9.892705e+01
   1.753134e+02  -3.586172e+00
   1.409254e+02   1.129199e+02
   2.553655e+00   1.613154e+02
  -1.201277e+02   1.115317e+02
  -1.275240e+02   9.565366e+00
  -3.703581e+01  -6.550739e+01
   4.715611e+01  -6.638138e+01
   4.889108e+01  -1.548487e+01
  -7.788760e+00   2.038805e+01
  -3.802046e+01   3.491630e+00
   5.149397e+00  -2.914463e+01
   7.856872e+01  -8.491313e+00
   9.350715e+01   7.622930e+01
   8.752846e+00   1.492594e+02
  -1.215824e+02   1.244461e+02
  -1.935871e+02   9.169281e-01
  -1.487782e+02  -1.310806e+02
  -2.644245e+01  -1.769194e+02
   7.686066e+01  -1.205421e+02
   9.824939e+01  -2.610878e+01
   5.915256e+01   2.856060e+01
   2.902851e+01   1.894144e+01
   4.510007e+01  -1.301740e+01
   7.373424e+01  -6.945633e+00
   5.317947e+01   4.822890e+01
  -2.875458e+01   9.413990e+01
  -1.070283e+02   6.279540e+01
  -9.736907e+01  -3.808393e+01
   1.397390e+01  -1.142043e+02
   1.415404e+02  -7.639963e+01
   1.701033e+02   5.911859e+01
   6.070178e+01   1.770801e+02
  -1.094684e+02   1.743749e+02
  -2.140077e+02   5.715276e+01
  -1.871165e+02  -7.496331e+01
  -7.185165e+01  -1.305695e+02
   3.299704e+01  -1.042811e+02
   6.692733e+01  -6.064799e+01
   4.978627e+01  -5.501219e+01
   4.116883e+01  -7.652948e+01
   6.995027e+01  -6.644806e+01
   1.062243e+02   1.149119e+01
   9.618465e+01   1.213272e+02
   2.025036e+01   1.788025e+02
  -8.031461e+01   1.294130e+02
  -1.326529e+02   4.237640e+00
  -9.558413e+01  -1.039844e+02
  -2.244902e+00  -1.226032e+02
   6.460517e+01  -5.868580e+01
   5.212487e+01   1.863618e+01
  -6.603156e+00   4.884874e+01
  -2.930850e+01   3.047819e+01
   1.690198e+01   6.678101e+00
   6.970981e+01   1.079691e+01
   4.296570e+01   3.234105e+01
  -6.272854e+01   3.438996e+01
  -1.467090e+02  -2.301439e+00
  -1.164712e+02  -5.618657e+01
   7.712560e+00  -8.373523e+01
   1.138886e+02  -5.951086e+01
   1.163119e+02  -6.774436e-01
   3.380469e+01   4.489477e+01
  -4.696406e+01   3.850449e+01
  -6.338237e+01  -1.327169e+01
  -2.181932e+01  -6.064843e+01
   3.073887e+01  -5.644970e+01
   5.714089e+01  -5.223319e+00
   5.357336e+01   3.942839e+01
   4.101847e+01   3.472670e+01
   4.095830e+01   1.136698e+00
   5.107539e+01   7.287407e-01
   4.101559e+01   5.942455e+01
  -1.681411e+01   1.253595e+02
  -1.035842e+02   1.202065e+02
  -1.521878e+02   2.910138e+01
  -1.089300e+02  -7.614499e+01
  -6.955592e-01  -1.100302e+02
   7.638036e+01  -6.043313e+01
   5.074660e+01   5.598454e+00
  -4.543717e+01   1.710898e+01
  -1.043102e+02  -3.113572e+01
  -5.362043e+01  -8.354284e+01
   6.742704e+01  -8.523671e+01
   1.487688e+02  -3.145503e+01
   1.210999e+02   3.562972e+01
   2.093413e+01   6.672534e+01
  -5.278204e+01   4.402865e+01
  -3.871591e+01  -5.202307e+00
   3.215591e+01  -2.729100e+01
   7.486166e+01   1.272241e+01
   3.659183e+01   8.927336e+01
  -5.424722e+01   1.248859e+02
  -1.183873e+02   6.190972e+01
  -1.008381e+02  -6.564361e+01
  -1.825311e+01  -1.486075e+02
   6.160108e+01  -1.098010e+02
   8.211702e+01   1.064406e+01
   4.159856e+01   9.611099e+01
  -1.572772e+01   7.996440e+01
  -4.400776e+01   9.416470e+00
  -3.271166e+01  -2.605933e+01
  -8.583616e+00  -5.551873e+00
  -5.706038e+00   1.241354e+01
  -2.961507e+01  -1.918776e+01
  -4.772421e+01  -7.128443e+01
  -2.091956e+01  -8.088791e+01
   4.860245e+01  -3.300377e+01
   1.060674e+02   2.685677e+01
   9.379453e+01   5.293184e+01
   1.571087e+01   4.363934e+01
  -5.916570e+01   2.295722e+01
  -6.725673e+01   4.342999e+00
  -1.750249e+01  -1.082925e+01
   2.477296e+01  -1.665052e+01
   1.826119e+01  -7.792383e+00
  -8.124420e+00   4.246089e+00
   6.725751e-01   2.681920e+00
   4.831911e+01  -4.071218e+00
   7.457364e+01   1.435550e+01
   2.556372e+01   6.345910e+01
  -7.674138e+01   9.696357e+01
  -1.486389e+02   6.053109e+01
  -1.274749e+02  -3.815755e+01
  -3.196789e+01  -1.235652e+02
   6.116649e+01  -1.272002e+02
   9.210374e+01  -5.816212e+01
   6.398671e+01   1.232763e+01
   2.263387e+01   3.087985e+01
   5.262772e+00   1.234283e+01
   1.326960e+01   8.590635e+00
   2.342887e+01   4.035473e+01
   1.311824e+01   7.264947e+01
  -2.188739e+01   5.744954e+01
  -6.068985e+01  -8.537811e+00
  -6.655315e+01  -7.496922e+01
  -1.878553e+01  -8.548925e+01
   5.406148e+01  -3.106845e+01
   8.589094e+01   4.318928e+01
   3.834691e+01   7.993572e+01
  -4.732373e+01   5.690825e+01
  -8.539721e+01  -1.146108e+00
  -4.134103e+01  -4.850411e+01
   2.611892e+01  -5.485455e+01
   3.578897e+01  -2.503653e+01
  -1.609248e+01   7.721464e+00
  -5.321963e+01   9.730030e+00
  -1.707644e+01  -2.213317e+01
   6.032121e+01  -5.321155e+01
   9.778939e+01  -4.204051e+01
   6.090942e+01   1.414414e+01
  -7.550407e+00   6.861903e+01
  -4.655879e+01   6.936058e+01
  -3.916438e+01   1.542384e+01
  -9.764553e+00  -3.895704e+01
   1.615308e+01  -4.145843e+01
   2.916768e+01   3.035039e+00
   2.494306e+01   4.166723e+01
   1.855334e+00   3.505309e+01
  -2.647486e+01  -1.294585e+00
  -3.529163e+01  -2.127412e+01
  -1.695274e+01  -5.346590e+00
   5.503598e+00   1.848326e+01
   6.039644e+00   1.249740e+01
  -8.973466e+00  -2.209029e+01
  -8.731236e+00  -4.497363e+01
   1.718583e+01  -2.508894e+01
   3.820120e+01   2.079791e+01
   1.937432e+01   4.549267e+01
  -2.866965e+01   2.389331e+01
  -5.339817e+01  -2.092745e+01
  -1.964895e+01  -4.553342e+01
   4.510382e+01  -3.123819e+01
   7.632877e+01   4.256462e+00
   4.235161e+01   3.243679e+01
  -2.110933e+01   3.937342e+01
  -5.097542e+01   2.761666e+01
  -2.512756e+01   7.637068e+00
   1.748083e+01  -5.789560e+00
   2.397309e+01  -4.230313e-01
  -1.411043e+01   1.719475e+01
  -5.463006e+01   1.864706e+01
