
 $NMID
 id='ANONYMOUS ', fmtdat='(2E16.6)'
 volume=1.0
 tramp=1.0
 $END
  -7.355157e+02  -2.133120e+01
  -3.616812e+02  -4.837444e+02
   2.165984e+02  -4.295962e+02
   3.754670e+02  -3.864079e+01
   8.400632e+01   1.985263e+02
  -1.990587e+02   9.543304e+01
  -1.748531e+02  -1.264692e+02
   3.094839e+01  -2.101997e+02
   1.687125e+02  -1.164925e+02
   1.561608e+02   4.803970e+01
   4.880218e+01   1.621832e+02
  -7.374252e+01   1.399333e+02
  -1.263115e+02  -8.651479e+00
  -5.823479e+01  -1.431058e+02
   6.395631e+01  -1.221046e+02
   1.045700e+02   2.012278e+01
   2.667278e+01   1.153298e+02
  -6.740866e+01   7.805447e+01
  -8.362755e+01  -1.532849e+01
  -3.725932e+01  -6.586014e+01
   1.472744e+01  -6.256118e+01
   4.794106e+01  -3.274410e+01
   4.399809e+01   1.226818e+01
  -1.569846e+01   4.059522e+01
  -8.211078e+01   2.505503e+00
  -5.476907e+01  -7.757396e+01
   7.105090e+01  -9.272320e+01
   1.537263e+02   2.307816e+00
   7.979574e+01   1.072523e+02
  -7.412491e+01   1.020327e+02
  -1.387600e+02   3.407597e-01
  -6.511522e+01  -8.710316e+01
   4.612502e+01  -9.345643e+01
   9.399316e+01  -3.513508e+01
   6.686430e+01   4.207002e+01
   2.374707e+00   8.499580e+01
  -5.266167e+01   4.432156e+01
  -4.606492e+01  -5.634793e+01
   3.210203e+01  -9.827045e+01
   9.950987e+01  -4.152654e+00
   5.872480e+01   1.279248e+02
  -6.125775e+01   1.287968e+02
  -1.192893e+02  -9.150809e+00
  -4.511283e+01  -1.126222e+02
   6.549806e+01  -6.202885e+01
   8.010649e+01   5.923738e+01
  -7.370904e+00   9.831435e+01
  -9.316913e+01   2.753226e+01
  -9.638947e+01  -6.105124e+01
  -2.353364e+01  -9.064823e+01
   6.451590e+01  -5.587321e+01
   1.002311e+02   1.267770e+01
   5.114965e+01   6.888450e+01
  -3.989431e+01   6.346774e+01
  -7.914600e+01  -1.086120e+00
  -2.873617e+01  -4.880981e+01
   3.694426e+01  -2.016170e+01
   2.801015e+01   3.920338e+01
  -3.667883e+01   4.072801e+01
  -6.268226e+01  -1.738624e+01
  -1.808648e+01  -5.513618e+01
   3.375855e+01  -3.548752e+01
   3.912633e+01  -3.884481e+00
   1.770135e+01   4.759573e+00
   2.799237e+00   1.598685e+01
  -1.393809e+01   4.334686e+01
  -4.174329e+01   4.196605e+01
  -4.976927e+01  -1.479022e+01
  -1.493096e+01  -7.028597e+01
   2.673014e+01  -5.816582e+01
   2.633316e+01  -2.918525e+00
  -3.762772e+00   1.738446e+01
  -1.008938e+01  -1.288333e+01
   2.085809e+01  -3.293130e+01
   4.699850e+01  -3.486320e+00
   3.344389e+01   4.029631e+01
  -7.016439e+00   4.590469e+01
  -3.867610e+01   9.284690e+00
  -3.831514e+01  -3.336136e+01
  -4.582488e+00  -4.840575e+01
   4.050598e+01  -2.518198e+01
   5.825349e+01   2.105944e+01
   2.846596e+01   5.408148e+01
  -1.945315e+01   4.583391e+01
  -3.641943e+01   1.069093e+01
  -1.694754e+01  -8.772515e+00
  -4.122664e+00   3.243262e+00
  -2.550627e+01   1.717339e+01
  -5.449920e+01   2.412502e+00
  -4.960071e+01  -3.345627e+01
  -7.147243e+00  -6.103567e+01
   4.161203e+01  -6.227226e+01
   6.599530e+01  -3.514676e+01
   5.359509e+01   1.068282e+01
   1.313409e+01   4.710496e+01
  -2.327420e+01   4.153432e+01
  -2.060939e+01   1.260337e-02
   1.620911e+01  -2.587795e+01
   3.798699e+01  -2.266230e+00
   1.205081e+01   3.625904e+01
  -3.029259e+01   3.239473e+01
  -3.470059e+01  -1.135736e+01
   2.114992e+00  -3.600220e+01
   3.258497e+01  -9.406095e+00
   2.549163e+01   3.427391e+01
  -3.008019e+00   4.752424e+01
  -2.641790e+01   2.611995e+01
  -3.909155e+01  -3.767526e+00
  -4.019863e+01  -2.515229e+01
  -2.096093e+01  -3.414983e+01
   1.220206e+01  -2.638250e+01
   2.841770e+01  -5.443083e+00
   1.086569e+01   7.800430e+00
  -1.379583e+01  -1.993648e+00
  -9.700934e+00  -1.999531e+01
   1.737916e+01  -1.975192e+01
   2.974478e+01  -5.815025e-01
   1.176976e+01   1.331594e+01
  -1.173196e+01   7.688134e+00
  -1.179888e+01  -6.874112e+00
   1.134519e+01  -1.389656e+01
   3.520878e+01  -7.305250e+00
   3.883756e+01   1.122913e+01
   1.616743e+01   3.357646e+01
  -1.950895e+01   4.209516e+01
  -4.046632e+01   2.367958e+01
  -2.810973e+01  -7.807687e+00
   2.992475e+00  -2.023066e+01
   1.707304e+01  -2.703724e+00
  -1.183935e+00   1.842182e+01
  -2.867515e+01   1.359603e+01
  -3.376437e+01  -1.261519e+01
  -1.249026e+01  -3.105506e+01
   1.314868e+01  -2.543592e+01
   2.272486e+01  -6.302056e+00
   1.353748e+01   7.057872e+00
  -2.632837e+00   5.502471e+00
  -9.007076e+00  -6.692906e+00
   3.622148e+00  -1.618446e+01
   2.447248e+01  -9.448281e+00
   2.887674e+01   1.277824e+01
   6.480468e+00   3.084867e+01
  -2.230707e+01   2.542562e+01
  -2.883760e+01   1.036535e+00
  -1.049189e+01  -1.851679e+01
   9.553556e+00  -1.809561e+01
   1.340552e+01  -5.202729e+00
   5.571056e+00   4.489644e+00
  -6.160373e-01   5.246536e+00
   2.822522e-01   1.831947e+00
   5.754085e+00   1.042902e+00
   1.015476e+01   7.037720e+00
   5.476713e+00   1.775250e+01
  -1.188196e+01   2.215563e+01
  -3.039166e+01   9.014877e+00
  -3.037873e+01  -1.647219e+01
  -8.521358e+00  -3.262408e+01
   1.444903e+01  -2.499043e+01
   1.865792e+01  -4.062039e+00
   8.739920e+00   8.365716e+00
   2.870881e+00   5.280697e+00
   6.363925e+00  -1.926890e+00
   8.999691e+00  -2.073861e+00
   4.035343e+00   3.868504e+00
  -3.822709e+00   8.684576e+00
  -8.533094e+00   7.435393e+00
  -8.445790e+00  -7.972878e-01
  -1.392753e+00  -1.143907e+01
   1.342652e+01  -1.346338e+01
   2.573299e+01   1.237433e+00
   1.890152e+01   2.408496e+01
  -8.466660e+00   3.352887e+01
  -3.474303e+01   1.832476e+01
  -3.747507e+01  -8.388288e+00
  -1.790340e+01  -2.408305e+01
   3.817037e+00  -2.157668e+01
   1.286747e+01  -1.251057e+01
   1.133264e+01  -9.353592e+00
   8.998870e+00  -1.151591e+01
   1.129332e+01  -9.642813e+00
   1.618729e+01   1.943017e+00
   1.677674e+01   1.883482e+01
   6.849706e+00   2.959533e+01
  -1.113278e+01   2.478199e+01
  -2.432076e+01   5.879216e+00
  -2.131210e+01  -1.420678e+01
  -5.755724e+00  -2.198706e+01
   7.194770e+00  -1.533710e+01
   8.390755e+00  -3.387741e+00
   3.235552e+00   4.254176e+00
   1.781670e+00   5.411132e+00
   5.980593e+00   3.591843e+00
   9.388346e+00   2.610226e+00
   5.466220e+00   3.840161e+00
  -6.136956e+00   5.573865e+00
  -1.821802e+01   3.914897e+00
  -1.980887e+01  -3.012883e+00
  -6.203585e+00  -1.082480e+01
   1.264333e+01  -1.195668e+01
   1.924998e+01  -4.711290e+00
   8.062891e+00   3.528925e+00
  -7.061080e+00   4.469788e+00
  -9.658914e+00  -1.667245e+00
  -2.154296e-01  -7.221419e+00
   7.709397e+00  -6.186872e+00
   7.084742e+00   1.647057e-02
   4.049305e+00   5.075133e+00
   5.432099e+00   4.443076e+00
   8.946729e+00   1.143704e-01
   8.835951e+00  -6.125085e-01
   4.077659e+00   7.019210e+00
  -3.224582e+00   1.767927e+01
  -1.174705e+01   1.935190e+01
  -1.821079e+01   7.059014e+00
  -1.596420e+01  -9.394789e+00
  -3.396495e+00  -1.541487e+01
   8.886540e+00  -8.031975e+00
   7.260811e+00   1.865910e+00
  -7.601389e+00   3.069383e+00
  -1.885211e+01  -4.767570e+00
  -1.187101e+01  -1.370366e+01
   9.033177e+00  -1.627443e+01
   2.521802e+01  -1.003249e+01
   2.310283e+01   1.898923e+00
   6.826521e+00   1.162626e+01
  -7.248956e+00   1.155687e+01
  -6.957256e+00   2.867521e+00
   4.243715e+00  -3.311106e+00
   1.142915e+01   2.349552e+00
   4.134827e+00   1.512705e+01
  -1.222695e+01   1.988247e+01
  -2.220737e+01   7.761865e+00
  -1.688609e+01  -1.335811e+01
  -1.954876e+00  -2.610246e+01
   1.051604e+01  -2.002593e+01
   1.413775e+01  -9.377089e-01
   1.022401e+01   1.474819e+01
   2.502162e+00   1.527664e+01
  -5.182889e+00   4.400608e+00
  -8.276782e+00  -3.788915e+00
  -4.889669e+00  -1.646407e+00
  -1.772234e-01   3.356630e+00
  -1.628554e+00  -1.073677e-01
  -7.908028e+00  -1.059096e+01
  -7.946320e+00  -1.521680e+01
   4.350725e+00  -7.423477e+00
   1.869968e+01   4.327817e+00
   1.872580e+01   8.719985e+00
   2.873805e+00   5.672711e+00
  -1.223457e+01   2.646451e+00
  -1.189331e+01   2.060489e+00
  -6.783452e-01   2.698906e-01
   5.556183e+00  -3.162535e+00
   1.137143e+00  -3.741314e+00
  -3.691527e+00  -4.276355e-01
   1.074663e+00   1.893148e+00
   1.063619e+01   1.152342e+00
   1.169319e+01   2.543956e+00
  -3.453157e-01   9.343580e+00
  -1.594853e+01   1.444485e+01
  -2.254720e+01   7.996643e+00
  -1.647655e+01  -8.256590e+00
  -3.451786e+00  -2.077173e+01
   8.345161e+00  -1.926920e+01
   1.337394e+01  -7.513276e+00
   1.046100e+01   2.497379e+00
   3.429694e+00   3.824471e+00
  -9.345450e-01   7.320917e-02
   1.029875e+00  -5.360691e-01
   5.391136e+00   5.221434e+00
   4.633040e+00   1.157126e+01
  -3.127216e+00   9.491921e+00
  -1.087110e+01  -2.475016e+00
  -9.945090e+00  -1.428986e+01
   2.981675e-01  -1.412963e+01
   1.116536e+01  -1.876121e+00
   1.279275e+01   1.049987e+01
   3.589897e+00   1.265832e+01
  -7.990556e+00   6.082868e+00
  -1.143179e+01  -1.062831e+00
  -4.833997e+00  -4.546217e+00
   2.913712e+00  -5.388325e+00
   2.252424e+00  -4.275198e+00
  -5.361333e+00  -1.071733e+00
  -8.906854e+00   9.916394e-01
  -1.687416e+00  -2.531062e+00
   9.824511e+00  -9.201714e+00
   1.385160e+01  -9.774726e+00
   7.403167e+00  -2.949004e-01
  -1.600396e+00   1.033976e+01
  -5.098710e+00   1.034960e+01
  -2.930119e+00   3.259807e-01
   5.498278e-01  -7.431206e+00
   2.989747e+00  -4.690259e+00
   4.260317e+00   3.379899e+00
   3.492925e+00   6.649417e+00
  -1.769110e-02   2.956657e+00
  -4.065963e+00  -1.410842e+00
  -5.157291e+00  -1.522238e+00
  -2.853530e+00   6.699065e-01
   3.653983e-02   6.621067e-01
   1.585632e+00  -2.324373e+00
   2.574013e+00  -4.893986e+00
   3.819164e+00  -3.625737e+00
   4.094913e+00   1.439254e+00
   1.861177e+00   6.564455e+00
  -2.337672e+00   7.135361e+00
  -5.978511e+00   1.853811e+00
  -6.141906e+00  -5.269309e+00
  -1.314579e+00  -8.139646e+00
   6.321813e+00  -4.561675e+00
   1.052841e+01   1.705569e+00
   6.282260e+00   5.306855e+00
  -3.126313e+00   4.632303e+00
  -7.643775e+00   2.134680e+00
  -2.155012e+00   7.419934e-01
   5.925437e+00   1.468424e+00
   5.090795e+00   3.538672e+00
  -5.319302e+00   4.757449e+00
  -1.362940e+01   2.207453e+00
