
 $NMID
 id='ANONYMOUS ', fmtdat='(2E16.6)'
 volume=1.0
 tramp=1.0
 $END
  -3.247843e+03   1.061440e+02
  -2.077686e+03  -1.753103e+03
   2.265363e+02  -2.082584e+03
   1.412808e+03  -9.861978e+02
   8.430921e+02   1.569822e+02
  -2.372530e+02   3.512924e+02
  -5.469642e+02  -1.986884e+02
  -5.120132e+01  -6.892228e+02
   5.248895e+02  -6.071761e+02
   6.830440e+02  -2.489106e+01
   4.042870e+02   5.756372e+02
  -7.377840e+01   6.689891e+02
  -3.983748e+02   1.504045e+02
  -2.901933e+02  -4.743496e+02
   1.435634e+02  -5.626558e+02
   4.350337e+02  -4.991438e+01
   2.658483e+02   4.950477e+02
  -1.742598e+02   5.532215e+02
  -4.519167e+02   1.777795e+02
  -3.700386e+02  -2.155637e+02
  -7.799738e+01  -3.441548e+02
   1.481072e+02  -2.271282e+02
   1.205438e+02  -4.944984e+01
  -1.241722e+02  -6.376299e+00
  -2.925234e+02  -1.602461e+02
  -8.582965e+01  -3.334914e+02
   3.891414e+02  -2.539112e+02
   6.232355e+02   9.326960e+01
   2.923724e+02   3.779715e+02
  -2.931267e+02   3.007978e+02
  -5.334175e+02  -5.444911e+01
  -2.406435e+02  -3.529763e+02
   2.209587e+02  -3.782257e+02
   4.329944e+02  -1.554380e+02
   3.230559e+02   1.553581e+02
   7.979365e+01   3.346431e+02
  -8.907406e+01   2.072067e+02
  -6.079519e+01  -1.243287e+02
   1.358141e+02  -2.565423e+02
   2.754000e+02   5.774100e+01
   1.262931e+02   4.956241e+02
  -2.252093e+02   4.974586e+02
  -3.981341e+02   1.879560e+01
  -1.780758e+02  -3.640894e+02
   1.793797e+02  -2.044886e+02
   2.466429e+02   2.441276e+02
  -6.404274e+01   4.018248e+02
  -4.246247e+02   9.607584e+01
  -4.728941e+02  -3.198620e+02
  -1.524333e+02  -4.603826e+02
   2.832195e+02  -2.731178e+02
   4.939374e+02   4.330452e+01
   3.178745e+02   2.631358e+02
  -7.455977e+01   2.584351e+02
  -3.122814e+02   7.275333e+01
  -2.043802e+02  -8.886036e+01
   4.219670e+01  -5.989335e+01
   8.725245e+01   8.091366e+01
  -1.064550e+02   1.092130e+02
  -2.482928e+02  -4.210035e+01
  -1.230577e+02  -2.072418e+02
   1.463536e+02  -2.228428e+02
   2.896109e+02  -9.846623e+01
   2.016062e+02   7.546400e+01
  -1.657610e+01   2.362671e+02
  -2.163845e+02   3.018107e+02
  -2.984379e+02   1.692672e+02
  -2.280251e+02  -1.218713e+02
  -6.537560e+01  -3.388046e+02
   5.441444e+01  -3.048362e+02
   5.842820e+01  -1.275592e+02
   2.716418e+01  -4.290551e+01
   7.763236e+01  -8.732203e+01
   1.883498e+02  -8.187142e+01
   2.230948e+02   6.881503e+01
   1.123733e+02   2.223487e+02
  -6.570419e+01   1.934841e+02
  -1.783828e+02  -8.512225e+00
  -1.470709e+02  -2.032890e+02
   1.872372e+01  -2.328379e+02
   2.166638e+02  -8.194372e+01
   2.897012e+02   1.375569e+02
   1.606987e+02   2.737875e+02
  -5.667325e+01   2.480515e+02
  -1.660271e+02   1.246801e+02
  -1.289561e+02   4.118885e+01
  -1.068608e+02   4.648299e+01
  -2.186662e+02   4.772599e+01
  -3.490791e+02  -5.776558e+01
  -2.854307e+02  -2.430104e+02
   2.591276e+00  -3.771385e+02
   3.094119e+02  -3.540532e+02
   4.100028e+02  -1.705118e+02
   2.682335e+02   7.555754e+01
   3.778385e+01   2.316822e+02
  -8.941874e+01   1.955284e+02
  -3.847019e+01   3.145216e+01
   9.474222e+01  -6.467235e+01
   1.390002e+02   1.438017e+01
   2.924554e+01   1.427516e+02
  -1.145056e+02   1.217232e+02
  -1.243258e+02  -4.388656e+01
   1.507319e+01  -1.385189e+02
   1.511888e+02  -1.806510e+01
   1.403556e+02   2.033657e+02
  -1.455119e+01   2.972020e+02
  -1.991309e+02   1.767921e+02
  -2.952251e+02  -4.698627e+01
  -2.433478e+02  -2.098853e+02
  -7.112259e+01  -2.289701e+02
   1.009705e+02  -1.307285e+02
   1.400038e+02  -1.504257e+01
   4.070735e+01   1.808512e+01
  -5.206202e+01  -4.187450e+01
  -1.294835e+01  -1.014550e+02
   1.042793e+02  -7.323421e+01
   1.392454e+02   1.344041e+01
   3.952847e+01   5.310237e+01
  -6.920105e+01   2.573196e+00
  -4.111100e+01  -7.072994e+01
   1.157669e+02  -7.718586e+01
   2.506138e+02   4.820590e+00
   2.254176e+02   1.286831e+02
   4.174588e+01   2.208212e+02
  -1.632834e+02   2.150207e+02
  -2.337886e+02   1.007705e+02
  -1.325131e+02  -3.795496e+01
   2.098512e+01  -8.042963e+01
   6.581982e+01  -3.296706e+00
  -3.512536e+01   7.799412e+01
  -1.616420e+02   4.314592e+01
  -1.736287e+02  -8.405289e+01
  -5.783571e+01  -1.678126e+02
   7.500864e+01  -1.274010e+02
   1.143048e+02  -2.245028e+01
   5.034851e+01   3.167385e+01
  -3.026206e+01  -8.067491e+00
  -2.890932e+01  -8.269213e+01
   7.083183e+01  -1.004316e+02
   1.749708e+02  -2.115128e+01
   1.622965e+02   1.069860e+02
   1.787031e+01   1.821592e+02
  -1.339043e+02   1.379702e+02
  -1.575456e+02   1.172798e+01
  -5.401128e+01  -8.781592e+01
   5.247941e+01  -8.966908e+01
   6.473245e+01  -2.540889e+01
   8.453911e+00   2.124818e+01
  -2.524965e+01   1.176614e+01
   7.918567e+00  -1.525526e+01
   6.918870e+01   1.190779e+00
   8.509948e+01   7.301311e+01
   1.415182e+01   1.433830e+02
  -1.126486e+02   1.334817e+02
  -2.017720e+02   1.956680e+01
  -1.714814e+02  -1.283488e+02
  -3.863148e+01  -1.983821e+02
   8.630328e+01  -1.431930e+02
   1.128988e+02  -2.796029e+01
   6.328766e+01   4.094018e+01
   2.777036e+01   2.703521e+01
   4.658118e+01  -1.256865e+01
   7.195776e+01  -7.385521e+00
   4.366929e+01   4.543972e+01
  -3.345875e+01   8.484446e+01
  -9.625491e+01   5.528755e+01
  -8.405441e+01  -3.299604e+01
   1.121692e+01  -1.040060e+02
   1.299737e+02  -7.840562e+01
   1.739526e+02   4.656160e+01
   8.282455e+01   1.758304e+02
  -9.500539e+01   1.946184e+02
  -2.268678e+02   8.094482e+01
  -2.161229e+02  -7.030516e+01
  -9.248445e+01  -1.454461e+02
   3.072703e+01  -1.225090e+02
   7.636805e+01  -7.207642e+01
   6.197138e+01  -6.142903e+01
   5.135609e+01  -8.104930e+01
   7.666333e+01  -6.804981e+01
   1.119219e+02   1.437437e+01
   1.046723e+02   1.293192e+02
   2.861751e+01   1.926361e+02
  -8.162264e+01   1.467598e+02
  -1.471891e+02   1.695555e+01
  -1.144795e+02  -1.038644e+02
  -1.504819e+01  -1.345300e+02
   5.945515e+01  -7.486687e+01
   5.254773e+01   5.278694e+00
   8.144042e-01   4.153623e+01
  -1.595553e+01   3.029968e+01
   2.724250e+01   1.179677e+01
   7.084442e+01   1.552214e+01
   4.159783e+01   3.275788e+01
  -5.830366e+01   3.426026e+01
  -1.425050e+02   3.270647e+00
  -1.240069e+02  -4.677550e+01
  -7.265668e+00  -7.972849e+01
   1.082597e+02  -6.539135e+01
   1.239906e+02  -1.064835e+01
   4.022051e+01   3.843318e+01
  -5.065970e+01   3.639023e+01
  -6.643402e+01  -1.420859e+01
  -1.344965e+01  -6.103989e+01
   4.190242e+01  -5.472932e+01
   5.684578e+01  -1.753319e+00
   4.542516e+01   4.233614e+01
   4.026014e+01   3.568397e+01
   4.966949e+01   3.646619e-01
   5.601841e+01  -6.532532e-01
   3.596604e+01   5.955626e+01
  -2.217393e+01   1.288159e+02
  -1.009925e+02   1.254429e+02
  -1.476204e+02   3.190313e+01
  -1.109228e+02  -7.713311e+01
  -6.122844e+00  -1.110972e+02
   7.552691e+01  -5.819120e+01
   5.279818e+01   9.445626e+00
  -4.960191e+01   1.873645e+01
  -1.166182e+02  -3.313805e+01
  -6.455841e+01  -8.945913e+01
   6.786710e+01  -9.603837e+01
   1.608803e+02  -4.460182e+01
   1.365129e+02   2.872193e+01
   3.046840e+01   7.237605e+01
  -5.200834e+01   5.682760e+01
  -4.141874e+01   3.232040e+00
   3.322026e+01  -2.585558e+01
   7.899094e+01   1.566056e+01
   3.438178e+01   9.917145e+01
  -6.843380e+01   1.348609e+02
  -1.367972e+02   6.138355e+01
  -1.106116e+02  -7.824310e+01
  -1.651297e+01  -1.657828e+02
   6.785347e+01  -1.232730e+02
   8.902517e+01   5.604677e+00
   5.166965e+01   1.003145e+02
  -4.535502e+00   8.901210e+01
  -4.137483e+01   1.556292e+01
  -4.190478e+01  -2.590963e+01
  -1.800854e+01  -6.098744e+00
  -3.807290e+00   1.617456e+01
  -2.250670e+01  -1.541409e+01
  -5.051756e+01  -7.499703e+01
  -3.365351e+01  -9.019265e+01
   4.321371e+01  -3.819644e+01
   1.176383e+02   2.938253e+01
   1.090452e+02   5.671266e+01
   1.648830e+01   4.368128e+01
  -7.098083e+01   2.280102e+01
  -7.424974e+01   7.659729e+00
  -1.249389e+01  -8.100002e+00
   3.038254e+01  -1.955970e+01
   1.411221e+01  -1.322889e+01
  -1.510818e+01   3.002516e+00
   3.768701e+00   5.923768e+00
   5.982627e+01  -8.744418e-01
   7.937471e+01   1.708898e+01
   1.548763e+01   6.873233e+01
  -9.299689e+01   1.023330e+02
  -1.581457e+02   5.830827e+01
  -1.279170e+02  -4.979051e+01
  -2.919309e+01  -1.362554e+02
   6.435432e+01  -1.323295e+02
   9.720344e+01  -5.618401e+01
   6.929837e+01   1.521001e+01
   2.284936e+01   3.083001e+01
   2.272590e-01   9.631736e+00
   1.051062e+01   5.338971e+00
   2.794371e+01   3.978071e+01
   1.921785e+01   7.669330e+01
  -2.317179e+01   6.188570e+01
  -6.837116e+01  -1.203052e+01
  -6.990796e+01  -8.719567e+01
  -1.130443e+01  -9.474464e+01
   6.605834e+01  -2.645112e+01
   9.113621e+01   5.659990e+01
   3.389539e+01   8.724658e+01
  -5.406932e+01   5.336453e+01
  -8.667362e+01  -5.602262e+00
  -3.778503e+01  -4.573279e+01
   2.741600e+01  -4.969233e+01
   3.020463e+01  -2.527006e+01
  -2.526891e+01   3.934201e+00
  -5.846015e+01   8.584863e+00
  -1.499644e+01  -2.206566e+01
   6.547605e+01  -5.805548e+01
   9.957589e+01  -5.027154e+01
   5.820683e+01   1.099315e+01
  -1.026578e+01   7.218194e+01
  -4.556547e+01   7.080537e+01
  -3.526652e+01   9.165795e+00
  -5.487285e+00  -4.589486e+01
   1.984082e+01  -3.979045e+01
   3.175428e+01   1.082598e+01
   2.500999e+01   4.524187e+01
  -5.799358e-01   3.139572e+01
  -2.859367e+01  -4.723947e+00
  -3.544519e+01  -1.899421e+01
  -1.767948e+01  -2.204315e+00
   2.454486e+00   1.479647e+01
   5.600220e+00   2.738137e+00
  -3.619744e-01  -2.914825e+01
   5.627029e+00  -4.242052e+01
   2.479933e+01  -1.422557e+01
   3.211545e+01   3.279383e+01
   7.003633e+00   5.149596e+01
  -3.543418e+01   2.122370e+01
  -5.220714e+01  -2.900972e+01
  -1.651359e+01  -5.210500e+01
   4.686233e+01  -3.141909e+01
   7.829892e+01   8.891545e+00
   4.388590e+01   3.588664e+01
  -2.340662e+01   3.781834e+01
  -5.498275e+01   2.319544e+01
  -2.280366e+01   5.755452e+00
   2.760322e+01  -1.807004e+00
   3.059894e+01   7.916428e+00
  -2.172299e+01   2.467137e+01
  -7.104640e+01   1.992477e+01
