
 $NMID
 id='ANONYMOUS ', fmtdat='(2E16.6)'
 volume=1.0
 tramp=1.0
 $END
   2.324793e+03   6.933295e+01
   1.582139e+03   1.107081e+03
   1.559565e+02   1.456898e+03
  -7.852288e+02   1.056170e+03
  -7.440738e+02   3.632652e+02
  -1.846495e+02  -5.788956e+01
   1.649748e+02   1.207639e+01
   4.717969e+01   3.162531e+02
  -2.750024e+02   4.090311e+02
  -4.445237e+02   1.076522e+02
  -3.340344e+02  -3.246120e+02
  -5.844605e+01  -4.589659e+02
   1.629711e+02  -1.605239e+02
   1.588592e+02   2.632986e+02
  -5.964095e+01   3.822070e+02
  -2.744072e+02   8.098200e+01
  -2.411175e+02  -3.418969e+02
   5.228797e+01  -4.916050e+02
   3.434629e+02  -2.617748e+02
   3.632943e+02   9.765827e+01
   1.313061e+02   2.689996e+02
  -6.961261e+01   1.908159e+02
  -2.402462e+01   7.520147e+01
   1.624756e+02   1.195442e+02
   1.908222e+02   2.623459e+02
  -6.490486e+01   2.760514e+02
  -3.831464e+02   7.032301e+01
  -4.271728e+02  -1.832554e+02
  -1.232778e+02  -2.515590e+02
   2.477198e+02  -9.319823e+01
   3.447556e+02   1.355615e+02
   1.093052e+02   2.663265e+02
  -2.099723e+02   2.381563e+02
  -3.384503e+02   8.054889e+01
  -2.325551e+02  -1.150024e+02
  -6.477439e+01  -2.097640e+02
  -1.001778e+01  -1.203013e+02
  -8.123286e+01   4.724243e+01
  -1.532218e+02   6.283518e+01
  -1.084708e+02  -1.465688e+02
   4.724614e+01  -3.547397e+02
   1.916028e+02  -2.883384e+02
   1.979280e+02   9.414518e+00
   5.791880e+01   2.003644e+02
  -9.313769e+01   6.723826e+01
  -8.811403e+01  -2.092056e+02
   1.064706e+02  -2.727020e+02
   3.298220e+02  -2.106561e+01
   3.565096e+02   2.932892e+02
   1.149676e+02   3.743809e+02
  -2.218883e+02   1.907187e+02
  -3.843577e+02  -5.412874e+01
  -2.576784e+02  -1.728102e+02
   1.680599e+01  -1.466000e+02
   1.933958e+02  -6.740262e+01
   1.629802e+02  -1.364642e+01
   3.383969e+01  -3.404991e+00
  -1.463856e+01  -1.602127e+01
   6.642647e+01  -1.471616e+01
   1.517048e+02   3.558805e+01
   9.144465e+01   1.291129e+02
  -1.094129e+02   1.902706e+02
  -2.745212e+02   1.223561e+02
  -2.284618e+02  -7.996290e+01
   1.539627e+01  -2.796159e+02
   2.560481e+02  -3.021567e+02
   3.053939e+02  -1.116365e+02
   1.722565e+02   1.411381e+02
   2.470144e+01   2.692806e+02
  -1.526454e+01   2.334717e+02
   6.909822e+00   1.472991e+02
  -2.575710e+01   1.127253e+02
  -1.336375e+02   1.013197e+02
  -2.168980e+02   2.401510e+01
  -1.834264e+02  -1.179619e+02
  -5.016932e+01  -2.058781e+02
   8.747320e+01  -1.364205e+02
   1.438205e+02   5.043450e+01
   8.759142e+01   1.994225e+02
  -5.341817e+01   1.874781e+02
  -1.938196e+02   3.096142e+01
  -2.283426e+02  -1.451502e+02
  -1.228989e+02  -2.267413e+02
   3.412275e+01  -1.977614e+02
   1.180796e+02  -1.260965e+02
   1.142296e+02  -8.029651e+01
   1.301393e+02  -6.333725e+01
   2.347943e+02  -2.086514e+01
   3.305180e+02   9.129405e+01
   2.481726e+02   2.459564e+02
  -3.235354e+01   3.478687e+02
  -3.162384e+02   3.066677e+02
  -3.827545e+02   1.237292e+02
  -2.140164e+02  -8.843216e+01
  -3.598435e-01  -1.903295e+02
   7.039161e+01  -1.392525e+02
  -8.789047e+00  -2.829714e+01
  -9.896577e+01   1.286578e+01
  -8.681915e+01  -4.326864e+01
   9.285071e+00  -1.002108e+02
   8.570143e+01  -6.146165e+01
   6.722311e+01   4.434949e+01
  -3.035793e+01   8.770526e+01
  -1.207000e+02  -1.266561e+01
  -1.130614e+02  -1.860664e+02
   1.803140e+01  -2.693408e+02
   1.980585e+02  -1.672241e+02
   2.932661e+02   5.224019e+01
   2.207777e+02   2.207238e+02
   3.535854e+01   2.254386e+02
  -1.106740e+02   1.051373e+02
  -1.138242e+02  -3.381306e+00
  -2.009207e+01  -7.825701e+00
   3.563812e+01   5.724673e+01
  -1.501259e+01   8.916517e+01
  -1.019264e+02   4.143592e+01
  -1.082181e+02  -2.975203e+01
  -1.529705e+01  -4.088107e+01
   6.783928e+01   1.989551e+01
   2.546373e+01   8.228331e+01
  -1.282124e+02   6.989311e+01
  -2.486527e+02  -2.781879e+01
  -2.030032e+02  -1.504425e+02
  -8.419220e+00  -2.152669e+02
   1.786192e+02  -1.766775e+02
   2.133336e+02  -6.269728e+01
   9.898007e+01   3.905675e+01
  -2.866243e+01   5.268448e+01
  -4.387402e+01  -1.049778e+01
   5.138814e+01  -5.780448e+01
   1.463283e+02  -1.454133e+01
   1.402297e+02   8.813066e+01
   3.601110e+01   1.452546e+02
  -7.254664e+01   9.915483e+01
  -9.468654e+01   6.285303e+00
  -2.811606e+01  -2.947962e+01
   3.966466e+01   2.472429e+01
   1.834007e+01   9.789154e+01
  -8.803802e+01   9.647924e+01
  -1.748463e+02   1.795876e+00
  -1.411092e+02  -1.155722e+02
  -5.880242e-01  -1.646507e+02
   1.255009e+02  -1.123719e+02
   1.327210e+02  -6.092400e+00
   3.792189e+01   7.044156e+01
  -4.998883e+01   6.894251e+01
  -5.206502e+01   1.570538e+01
   5.428473e+00  -2.037806e+01
   3.575529e+01  -3.995393e+00
  -6.334897e+00   2.638039e+01
  -7.675849e+01   4.590773e+00
  -8.953767e+01  -7.793278e+01
  -5.539378e+00  -1.479443e+02
   1.231030e+02  -1.222600e+02
   1.945148e+02   1.251048e+00
   1.486356e+02   1.344713e+02
   2.338439e+01   1.809546e+02
  -8.183962e+01   1.219212e+02
  -1.012615e+02   2.346502e+01
  -5.877345e+01  -3.237029e+01
  -2.809855e+01  -2.112835e+01
  -4.556145e+01   1.160919e+01
  -7.334241e+01   4.940245e+00
  -4.994494e+01  -4.896975e+01
   3.206374e+01  -9.128015e+01
   1.064073e+02  -5.829525e+01
   9.359306e+01   3.966198e+01
  -1.655700e+01   1.115839e+02
  -1.411084e+02   7.259081e+01
  -1.686041e+02  -6.146225e+01
  -5.947524e+01  -1.780860e+02
   1.115359e+02  -1.743984e+02
   2.173202e+02  -5.508747e+01
   1.895553e+02   7.934407e+01
   7.149527e+01   1.349394e+02
  -3.554583e+01   1.062542e+02
  -7.016902e+01   6.051568e+01
  -5.338462e+01   5.446223e+01
  -4.503058e+01   7.581829e+01
  -7.277623e+01   6.446972e+01
  -1.065074e+02  -1.499740e+01
  -9.387633e+01  -1.250839e+02
  -1.653820e+01  -1.812585e+02
   8.402957e+01  -1.297765e+02
   1.349899e+02  -2.656217e+00
   9.569613e+01   1.064174e+02
   9.895466e-01   1.244542e+02
  -6.522286e+01   5.959476e+01
  -5.159130e+01  -1.764172e+01
   6.563848e+00  -4.723139e+01
   2.766211e+01  -2.961667e+01
  -1.846446e+01  -8.128931e+00
  -6.931453e+01  -1.357285e+01
  -4.164939e+01  -3.349330e+01
   6.266956e+01  -3.251177e+01
   1.453938e+02   5.384763e+00
   1.158879e+02   5.762678e+01
  -7.321071e+00   8.261102e+01
  -1.141793e+02   5.718872e+01
  -1.173579e+02  -8.689728e-01
  -3.361962e+01  -4.457247e+01
   4.851869e+01  -3.663352e+01
   6.331484e+01   1.519688e+01
   1.853039e+01   6.104111e+01
  -3.419967e+01   5.497944e+01
  -5.699613e+01   2.978037e+00
  -5.078331e+01  -4.124490e+01
  -3.974722e+01  -3.591716e+01
  -4.234287e+01  -2.215276e+00
  -5.176349e+01  -1.953732e+00
  -3.828744e+01  -6.034142e+01
   2.126461e+01  -1.250007e+02
   1.061585e+02  -1.178103e+02
   1.516478e+02  -2.525444e+01
   1.067367e+02   7.911926e+01
  -1.435865e+00   1.098783e+02
  -7.762640e+01   5.766780e+01
  -5.073886e+01  -7.710431e+00
   4.651000e+01  -1.602688e+01
   1.052401e+02   3.441063e+01
   5.298726e+01   8.588994e+01
  -6.973970e+01   8.495930e+01
  -1.513802e+02   2.941638e+01
  -1.224694e+02  -3.778772e+01
  -2.064489e+01  -6.815680e+01
   5.378872e+01  -4.468279e+01
   3.897877e+01   4.781232e+00
  -3.298373e+01   2.602047e+01
  -7.494435e+01  -1.533971e+01
  -3.347169e+01  -9.172909e+01
   6.018066e+01  -1.245745e+02
   1.229866e+02  -5.811138e+01
   1.002716e+02   7.057284e+01
   1.355864e+01   1.516369e+02
  -6.568906e+01   1.100288e+02
  -8.279335e+01  -1.206523e+01
  -4.051476e+01  -9.775978e+01
   1.598381e+01  -8.093855e+01
   4.368728e+01  -9.267420e+00
   3.350744e+01   2.692950e+01
   1.008094e+01   5.946167e+00
   5.723698e+00  -1.289670e+01
   2.772235e+01   1.921612e+01
   4.601510e+01   7.305080e+01
   2.077654e+01   8.294730e+01
  -4.842647e+01   3.248958e+01
  -1.069748e+02  -3.028480e+01
  -9.466377e+01  -5.617304e+01
  -1.456511e+01  -4.393366e+01
   6.170935e+01  -2.108662e+01
   6.841065e+01  -2.974794e+00
   1.625749e+01   1.075198e+01
  -2.617843e+01   1.636921e+01
  -1.771264e+01   8.257994e+00
   9.455713e+00  -3.723194e+00
  -1.123739e+00  -3.296832e+00
  -5.029232e+01   2.032677e+00
  -7.473354e+01  -1.692736e+01
  -2.183699e+01  -6.480809e+01
   8.214082e+01  -9.528065e+01
   1.514782e+02  -5.565455e+01
   1.259178e+02   4.368909e+01
   2.777722e+01   1.262603e+02
  -6.512908e+01   1.259051e+02
  -9.429713e+01   5.496279e+01
  -6.433303e+01  -1.464013e+01
  -2.172125e+01  -3.139494e+01
  -4.015429e+00  -1.191892e+01
  -1.251059e+01  -8.326998e+00
  -2.302183e+01  -4.079766e+01
  -1.208850e+01  -7.352380e+01
   2.368737e+01  -5.740710e+01
   6.157476e+01   1.089999e+01
   6.470343e+01   7.878195e+01
   1.489779e+01   8.730098e+01
  -5.684886e+01   2.851026e+01
  -8.519264e+01  -4.789035e+01
  -3.510172e+01  -8.199354e+01
   4.992967e+01  -5.467859e+01
   8.524290e+01   4.351578e+00
   3.920964e+01   4.896202e+01
  -2.775577e+01   5.298207e+01
  -3.536155e+01   2.402458e+01
   1.786474e+01  -6.488219e+00
   5.422694e+01  -7.950767e+00
   1.601888e+01   2.250278e+01
  -6.255725e+01   5.214641e+01
  -9.899641e+01   4.059741e+01
  -5.982775e+01  -1.521775e+01
   9.966830e+00  -6.877041e+01
   4.817032e+01  -6.806263e+01
   3.870461e+01  -1.317534e+01
   7.811083e+00   4.029714e+01
  -1.790663e+01   4.052278e+01
  -2.937598e+01  -5.261072e+00
  -2.366301e+01  -4.285594e+01
  -4.558166e-01  -3.430076e+01
   2.669309e+01   2.665763e+00
   3.460908e+01   2.178026e+01
   1.689529e+01   5.245983e+00
  -4.446628e+00  -1.788447e+01
  -5.665385e+00  -1.086815e+01
   6.719184e+00   2.345725e+01
   4.881358e+00   4.448047e+01
  -1.910548e+01   2.250494e+01
  -3.628859e+01  -2.389666e+01
  -1.575834e+01  -4.684648e+01
   3.042672e+01  -2.246646e+01
   5.233455e+01   2.379059e+01
   1.768174e+01   4.707061e+01
  -4.613217e+01   2.987327e+01
  -7.624342e+01  -7.233146e+00
  -4.153082e+01  -3.413834e+01
   2.253763e+01  -3.833751e+01
   5.224656e+01  -2.525709e+01
   2.481787e+01  -6.583806e+00
  -1.936166e+01   4.481837e+00
  -2.501745e+01  -1.800397e+00
   1.596617e+01  -1.801388e+01
   5.790555e+01  -1.714007e+01
