
 $NMID
 id='ANONYMOUS ', fmtdat='(2E16.6)'
 volume=1.0
 tramp=1.0
 $END
  -2.123010e+03   5.689041e+01
  -1.549638e+03  -9.216336e+02
  -2.679218e+02  -1.368649e+03
   6.814431e+02  -1.085041e+03
   7.405203e+02  -4.110145e+02
   2.370733e+02   6.778607e+01
  -1.448522e+02   4.238351e+01
  -8.628323e+01  -2.702058e+02
   2.146034e+02  -4.027089e+02
   4.094229e+02  -1.406654e+02
   3.425424e+02   2.752681e+02
   9.538015e+01   4.310599e+02
  -1.340995e+02   1.789331e+02
  -1.662203e+02  -2.181338e+02
   2.504125e+01  -3.584075e+02
   2.495094e+02  -1.003400e+02
   2.489605e+02   3.055725e+02
  -2.388212e+01   4.750439e+02
  -3.202852e+02   2.728965e+02
  -3.579429e+02  -7.522240e+01
  -1.417762e+02  -2.520214e+02
   5.256189e+01  -1.874025e+02
   1.612769e+01  -8.304648e+01
  -1.493750e+02  -1.225328e+02
  -1.695334e+02  -2.436761e+02
   6.210571e+01  -2.451897e+02
   3.450038e+02  -6.135335e+01
   3.862873e+02   1.536367e+02
   1.212769e+02   2.107827e+02
  -2.104708e+02   8.201535e+01
  -3.083312e+02  -1.100759e+02
  -1.075223e+02  -2.317514e+02
   1.804853e+02  -2.210165e+02
   3.056012e+02  -8.686807e+01
   2.202615e+02   9.269671e+01
   7.661087e+01   1.868733e+02
   2.795860e+01   1.166626e+02
   8.002033e+01  -2.734068e+01
   1.274883e+02  -4.631818e+01
   8.494117e+01   1.282496e+02
  -3.758324e+01   3.109776e+02
  -1.537154e+02   2.650707e+02
  -1.701207e+02   1.187332e+01
  -6.535627e+01  -1.652096e+02
   6.751266e+01  -6.331985e+01
   7.918959e+01   1.793865e+02
  -8.654365e+01   2.474751e+02
  -2.986456e+02   3.015755e+01
  -3.386060e+02  -2.581461e+02
  -1.224654e+02  -3.431871e+02
   1.943202e+02  -1.853866e+02
   3.569646e+02   3.376775e+01
   2.524239e+02   1.460586e+02
   2.148272e+00   1.364222e+02
  -1.726310e+02   7.894779e+01
  -1.610113e+02   2.832436e+01
  -4.393946e+01   1.759279e+00
   1.469303e+01   3.060560e+00
  -5.085280e+01   1.181652e+01
  -1.380606e+02  -2.100954e+01
  -9.455695e+01  -1.117208e+02
   9.398723e+01  -1.841347e+02
   2.593763e+02  -1.254693e+02
   2.205418e+02   7.396781e+01
  -1.260175e+01   2.695935e+02
  -2.400083e+02   2.890134e+02
  -2.830252e+02   1.075360e+02
  -1.606205e+02  -1.267270e+02
  -3.261463e+01  -2.462063e+02
  -2.383929e-01  -2.203665e+02
  -1.296254e+01  -1.475222e+02
   2.849713e+01  -1.132632e+02
   1.305176e+02  -9.501519e+01
   2.024477e+02  -2.030835e+01
   1.691915e+02   1.082909e+02
   4.881347e+01   1.875024e+02
  -7.656012e+01   1.250700e+02
  -1.311696e+02  -4.487180e+01
  -8.327580e+01  -1.817984e+02
   4.519612e+01  -1.725687e+02
   1.770092e+02  -3.176727e+01
   2.146770e+02   1.279043e+02
   1.231566e+02   2.056809e+02
  -2.172001e+01   1.869113e+02
  -1.059328e+02   1.269973e+02
  -1.093736e+02   8.319849e+01
  -1.257304e+02   6.212678e+01
  -2.214655e+02   2.127352e+01
  -3.115381e+02  -8.054768e+01
  -2.380006e+02  -2.251945e+02
   2.285423e+01  -3.262848e+02
   2.900954e+02  -2.939591e+02
   3.546548e+02  -1.247414e+02
   1.999022e+02   7.538042e+01
   5.394319e+00   1.741802e+02
  -5.716364e+01   1.312802e+02
   1.293332e+01   3.089268e+01
   8.926522e+01  -9.928918e+00
   7.668607e+01   3.661926e+01
  -5.683196e+00   8.853141e+01
  -7.225230e+01   5.827365e+01
  -6.036448e+01  -3.539518e+01
   2.339842e+01  -7.863259e+01
   1.097479e+02   8.979512e+00
   1.109612e+02   1.705283e+02
  -9.014814e+00   2.539080e+02
  -1.836876e+02   1.625593e+02
  -2.792324e+02  -4.358310e+01
  -2.118219e+02  -2.037891e+02
  -3.599918e+01  -2.098978e+02
   1.012962e+02  -9.941164e+01
   1.045017e+02  -2.510610e-01
   1.862418e+01   4.276735e+00
  -3.238569e+01  -5.330511e+01
   1.337795e+01  -8.149892e+01
   9.282986e+01  -3.932166e+01
   9.956017e+01   2.431655e+01
   1.467885e+01   3.530796e+01
  -6.269786e+01  -1.907433e+01
  -2.367070e+01  -7.709714e+01
   1.206521e+02  -6.745416e+01
   2.346386e+02   2.270797e+01
   1.924062e+02   1.382311e+02
   1.055357e+01   2.008790e+02
  -1.635862e+02   1.673513e+02
  -1.962720e+02   6.313199e+01
  -9.220982e+01  -3.194136e+01
   2.410941e+01  -4.781553e+01
   3.892864e+01   8.052111e+00
  -4.697670e+01   5.295310e+01
  -1.349035e+02   1.617451e+01
  -1.322037e+02  -7.794541e+01
  -3.776529e+01  -1.334940e+02
   6.398881e+01  -9.384031e+01
   8.682545e+01  -8.589110e+00
   2.583436e+01   2.516265e+01
  -3.740300e+01  -2.482612e+01
  -1.728788e+01  -9.284561e+01
   8.257808e+01  -9.167574e+01
   1.643325e+02  -3.967715e+00
   1.341561e+02   1.055056e+02
   4.391409e+00   1.535095e+02
  -1.138252e+02   1.083034e+02
  -1.235642e+02   1.052945e+01
  -3.793528e+01  -6.328237e+01
   4.389852e+01  -6.522604e+01
   4.725682e+01  -1.647892e+01
  -5.720499e+00   1.811740e+01
  -3.398909e+01   2.976341e+00
   6.374607e+00  -2.622488e+01
   7.399265e+01  -5.752001e+00
   8.666491e+01   7.295273e+01
   7.344689e+00   1.400527e+02
  -1.141479e+02   1.170013e+02
  -1.824014e+02   2.048727e+00
  -1.418179e+02  -1.229609e+02
  -2.656062e+01  -1.687143e+02
   7.283116e+01  -1.164098e+02
   9.442079e+01  -2.521955e+01
   5.701264e+01   2.841689e+01
   2.774114e+01   1.905090e+01
   4.288857e+01  -1.203408e+01
   6.948589e+01  -5.950708e+00
   4.868246e+01   4.633710e+01
  -2.901192e+01   8.808349e+01
  -1.009621e+02   5.697804e+01
  -8.993088e+01  -3.710237e+01
   1.446737e+01  -1.065072e+02
   1.328887e+02  -7.053312e+01
   1.597687e+02   5.545832e+01
   5.832896e+01   1.659841e+02
  -1.016628e+02   1.650421e+02
  -2.022181e+02   5.591207e+01
  -1.789663e+02  -6.956061e+01
  -7.020760e+01  -1.239428e+02
   3.035662e+01  -1.000441e+02
   6.383186e+01  -5.871001e+01
   4.825282e+01  -5.317680e+01
   4.019213e+01  -7.321985e+01
   6.715304e+01  -6.292842e+01
   1.010800e+02   1.150924e+01
   9.147460e+01   1.155376e+02
   1.973901e+01   1.699176e+02
  -7.568045e+01   1.236130e+02
  -1.259644e+02   5.454717e+00
  -9.154599e+01  -9.753501e+01
  -3.463962e+00  -1.161736e+02
   5.973309e+01  -5.631810e+01
   4.818419e+01   1.653294e+01
  -6.332576e+00   4.478673e+01
  -2.650396e+01   2.759482e+01
   1.738645e+01   6.222148e+00
   6.624006e+01   1.111786e+01
   4.024289e+01   3.100377e+01
  -5.904626e+01   3.170358e+01
  -1.377288e+02  -2.940275e+00
  -1.097427e+02  -5.236996e+01
   6.589657e+00  -7.753762e+01
   1.069933e+02  -5.561797e+01
   1.099743e+02  -1.419948e+00
   3.182438e+01   4.150392e+01
  -4.518766e+01   3.608237e+01
  -6.017314e+01  -1.286989e+01
  -1.931932e+01  -5.809927e+01
   3.075125e+01  -5.373492e+01
   5.423854e+01  -4.135730e+00
   4.967528e+01   3.853102e+01
   3.849005e+01   3.325657e+01
   3.955201e+01   6.536235e-01
   4.866892e+01   5.494840e-01
   3.779567e+01   5.681228e+01
  -1.709997e+01   1.190609e+02
  -9.806247e+01   1.131827e+02
  -1.432921e+02   2.636657e+01
  -1.026426e+02  -7.267463e+01
  -5.209415e-01  -1.036691e+02
   7.266143e+01  -5.624381e+01
   4.839637e+01   5.911417e+00
  -4.337010e+01   1.631166e+01
  -9.976754e+01  -2.948066e+01
  -5.164436e+01  -7.914015e+01
   6.357186e+01  -8.121584e+01
   1.410960e+02  -3.092083e+01
   1.152790e+02   3.267700e+01
   2.071835e+01   6.309217e+01
  -4.916792e+01   4.251542e+01
  -3.621190e+01  -4.102227e+00
   3.079003e+01  -2.547625e+01
   7.128087e+01   1.256717e+01
   3.441205e+01   8.580749e+01
  -5.292186e+01   1.196764e+02
  -1.142725e+02   5.891697e+01
  -9.674038e+01  -6.336201e+01
  -1.724003e+01  -1.424657e+02
   5.866638e+01  -1.051679e+02
   7.786558e+01   9.608787e+00
   3.998116e+01   9.080842e+01
  -1.358862e+01   7.557593e+01
  -4.091642e+01   9.040558e+00
  -3.167904e+01  -2.416975e+01
  -9.107522e+00  -4.680536e+00
  -5.005372e+00   1.194690e+01
  -2.681259e+01  -1.845464e+01
  -4.513915e+01  -6.787480e+01
  -2.120723e+01  -7.662644e+01
   4.520323e+01  -3.098939e+01
   1.014181e+02   2.555990e+01
   9.011807e+01   4.997093e+01
   1.461458e+01   4.128646e+01
  -5.732139e+01   2.210406e+01
  -6.406856e+01   4.479515e+00
  -1.572811e+01  -1.042993e+01
   2.390560e+01  -1.626732e+01
   1.647301e+01  -7.505624e+00
  -8.535809e+00   4.327896e+00
   1.179440e+00   2.657333e+00
   4.712727e+01  -3.995769e+00
   7.105342e+01   1.403745e+01
   2.300981e+01   6.142245e+01
  -7.452517e+01   9.279909e+01
  -1.420208e+02   5.657205e+01
  -1.210420e+02  -3.816159e+01
  -2.994076e+01  -1.185065e+02
   5.866105e+01  -1.205016e+02
   8.811063e+01  -5.444554e+01
   6.113146e+01   1.202458e+01
   2.117995e+01   2.931332e+01
   4.152938e+00   1.177594e+01
   1.194586e+01   8.066214e+00
   2.228064e+01   3.790242e+01
   1.281172e+01   6.871153e+01
  -2.090294e+01   5.467861e+01
  -5.833949e+01  -8.313491e+00
  -6.357748e+01  -7.235224e+01
  -1.701248e+01  -8.241933e+01
   5.290052e+01  -2.934371e+01
   8.235980e+01   4.245688e+01
   3.571177e+01   7.688731e+01
  -4.608626e+01   5.353550e+01
  -8.112453e+01  -2.074458e+00
  -3.812905e+01  -4.608216e+01
   2.557953e+01  -5.118058e+01
   3.338036e+01  -2.301493e+01
  -1.650499e+01   7.443466e+00
  -5.098441e+01   9.069260e+00
  -1.574804e+01  -2.117522e+01
   5.756131e+01  -5.072352e+01
   9.227452e+01  -4.001630e+01
   5.692436e+01   1.366063e+01
  -7.653942e+00   6.534439e+01
  -4.427089e+01   6.527181e+01
  -3.714985e+01   1.334413e+01
  -8.995336e+00  -3.791796e+01
   1.606868e+01  -3.914051e+01
   2.837208e+01   3.714205e+00
   2.353131e+01   3.991550e+01
   9.780642e-01   3.291683e+01
  -2.547467e+01  -1.622449e+00
  -3.303816e+01  -2.009775e+01
  -1.582587e+01  -4.786695e+00
   4.476143e+00   1.733099e+01
   4.861449e+00   1.084720e+01
  -7.918319e+00  -2.230556e+01
  -6.219210e+00  -4.332000e+01
   1.801010e+01  -2.297933e+01
   3.616473e+01   2.163419e+01
   1.710131e+01   4.464915e+01
  -2.816581e+01   2.257421e+01
  -5.075505e+01  -2.109567e+01
  -1.838036e+01  -4.407983e+01
   4.300643e+01  -2.933396e+01
   7.262183e+01   4.916419e+00
   4.018966e+01   3.120067e+01
  -2.058034e+01   3.704638e+01
  -4.909952e+01   2.554610e+01
  -2.368283e+01   6.666587e+00
   1.791712e+01  -5.656391e+00
   2.395741e+01   1.752390e-01
  -1.371757e+01   1.748720e+01
  -5.338927e+01   1.855055e+01
