
 $NMID
 id='ANONYMOUS ', fmtdat='(2E16.6)'
 volume=1.0
 tramp=1.0
 $END
   1.697635e+03   4.691557e+01
   1.160777e+03   7.857297e+02
   1.411000e+02   1.049856e+03
  -5.424878e+02   7.901197e+02
  -5.364717e+02   3.028074e+02
  -1.523804e+02  -1.946635e+01
   1.023473e+02   5.522971e+00
   3.213669e+01   2.185160e+02
  -1.922926e+02   2.951895e+02
  -3.180087e+02   8.544925e+01
  -2.456702e+02  -2.278477e+02
  -5.169851e+01  -3.298034e+02
   1.086291e+02  -1.179978e+02
   1.120499e+02   1.873273e+02
  -3.911312e+01   2.762935e+02
  -1.958843e+02   6.242709e+01
  -1.804476e+02  -2.455795e+02
   2.822590e+01  -3.625898e+02
   2.464787e+02  -2.017025e+02
   2.699713e+02   6.292078e+01
   1.025522e+02   1.946824e+02
  -4.658370e+01   1.402274e+02
  -1.206065e+01   5.581815e+01
   1.267354e+02   9.159018e+01
   1.431456e+02   1.999615e+02
  -5.283926e+01   2.071468e+02
  -2.883132e+02   4.897703e+01
  -3.140287e+02  -1.390617e+02
  -8.519836e+01  -1.836057e+02
   1.855588e+02  -6.245479e+01
   2.520490e+02   1.039813e+02
   7.743307e+01   1.959205e+02
  -1.557959e+02   1.739216e+02
  -2.487177e+02   5.933479e+01
  -1.702189e+02  -8.269107e+01
  -4.805132e+01  -1.503353e+02
  -1.193974e+01  -8.384644e+01
  -6.797637e+01   3.547333e+01
  -1.180144e+02   4.037426e+01
  -7.692603e+01  -1.152159e+02
   4.124465e+01  -2.622776e+02
   1.416936e+02  -2.075648e+02
   1.392675e+02   9.510417e+00
   3.727283e+01   1.436083e+02
  -6.729843e+01   4.351196e+01
  -6.059912e+01  -1.564275e+02
   8.031100e+01  -1.998719e+02
   2.430400e+02  -1.480328e+01
   2.641548e+02   2.153011e+02
   8.737013e+01   2.747818e+02
  -1.619223e+02   1.403507e+02
  -2.828500e+02  -3.796903e+01
  -1.901728e+02  -1.226675e+02
   1.010337e+01  -1.034670e+02
   1.381732e+02  -5.035546e+01
   1.176789e+02  -1.621590e+01
   2.750576e+01  -7.306640e+00
  -6.596358e+00  -1.016945e+01
   4.934833e+01  -6.776888e+00
   1.091833e+02   2.611543e+01
   6.703453e+01   9.222587e+01
  -7.813449e+01   1.412905e+02
  -2.022209e+02   9.572684e+01
  -1.729169e+02  -5.642807e+01
   6.988936e+00  -2.109151e+02
   1.890375e+02  -2.296751e+02
   2.279506e+02  -8.481255e+01
   1.282508e+02   1.050604e+02
   1.877588e+01   1.983039e+02
  -7.912243e+00   1.705038e+02
   1.043309e+01   1.095540e+02
  -1.638612e+01   8.765914e+01
  -1.007507e+02   7.907437e+01
  -1.640125e+02   1.864133e+01
  -1.375867e+02  -8.867574e+01
  -3.697861e+01  -1.534685e+02
   6.560019e+01  -1.007864e+02
   1.072373e+02   3.834993e+01
   6.519482e+01   1.486874e+02
  -3.988235e+01   1.392402e+02
  -1.442132e+02   2.287482e+01
  -1.697004e+02  -1.068978e+02
  -9.208896e+01  -1.662416e+02
   2.281835e+01  -1.453644e+02
   8.429676e+01  -9.483931e+01
   8.282809e+01  -6.294425e+01
   9.708281e+01  -5.018709e+01
   1.762636e+02  -1.770600e+01
   2.477266e+02   6.574210e+01
   1.868305e+02   1.812338e+02
  -2.154200e+01   2.593533e+02
  -2.333119e+02   2.310255e+02
  -2.837811e+02   9.469936e+01
  -1.586931e+02  -6.484681e+01
  -2.547722e-01  -1.409043e+02
   5.093044e+01  -1.019471e+02
  -9.031241e+00  -1.997853e+01
  -7.488592e+01   8.602935e+00
  -6.353738e+01  -3.347678e+01
   8.190799e+00  -7.371552e+01
   6.299997e+01  -4.370320e+01
   4.816176e+01   3.333139e+01
  -2.317866e+01   6.383768e+01
  -8.946061e+01  -9.864846e+00
  -8.525544e+01  -1.371652e+02
   1.064240e+01  -2.001099e+02
   1.458223e+02  -1.269638e+02
   2.196346e+02   3.546468e+01
   1.668700e+02   1.628365e+02
   2.762790e+01   1.683588e+02
  -8.218451e+01   7.894479e+01
  -8.417211e+01  -2.379031e+00
  -1.396647e+01  -5.499872e+00
   2.688927e+01   4.328750e+01
  -1.155818e+01   6.672796e+01
  -7.604771e+01   3.076243e+01
  -8.006826e+01  -2.213434e+01
  -1.061424e+01  -3.021895e+01
   5.126640e+01   1.502431e+01
   1.958256e+01   6.192234e+01
  -9.551783e+01   5.374862e+01
  -1.863433e+02  -1.862375e+01
  -1.528985e+02  -1.110936e+02
  -7.456725e+00  -1.609769e+02
   1.324780e+02  -1.327616e+02
   1.582357e+02  -4.745706e+01
   7.289169e+01   2.855284e+01
  -2.158652e+01   3.858158e+01
  -3.214790e+01  -8.310385e+00
   3.873689e+01  -4.320656e+01
   1.088942e+02  -1.116319e+01
   1.043880e+02   6.478746e+01
   2.735183e+01   1.073547e+02
  -5.329099e+01   7.363238e+01
  -7.001617e+01   4.815671e+00
  -2.031636e+01  -2.196105e+01
   3.067751e+01   1.852755e+01
   1.476794e+01   7.373893e+01
  -6.533366e+01   7.331707e+01
  -1.308714e+02   2.727192e+00
  -1.060447e+02  -8.523975e+01
  -1.460652e+00  -1.224414e+02
   9.233209e+01  -8.419792e+01
   9.797826e+01  -5.549791e+00
   2.816522e+01   5.160516e+01
  -3.669998e+01   5.112647e+01
  -3.826966e+01   1.172041e+01
   4.438899e+00  -1.550574e+01
   2.726868e+01  -3.290146e+00
  -4.104759e+00   2.025629e+01
  -5.748386e+01   4.832314e+00
  -6.815578e+01  -5.715996e+01
  -5.751513e+00  -1.107505e+02
   9.100512e+01  -9.256102e+01
   1.452964e+02  -5.071699e-01
   1.117873e+02   9.917004e+01
   1.878651e+01   1.342825e+02
  -5.971015e+01   9.103131e+01
  -7.484690e+01   1.841088e+01
  -4.393230e+01  -2.309568e+01
  -2.115642e+01  -1.513229e+01
  -3.383562e+01   9.196616e+00
  -5.480088e+01   4.556292e+00
  -3.827796e+01  -3.595359e+01
   2.256619e+01  -6.883273e+01
   7.909086e+01  -4.523420e+01
   7.095182e+01   2.851900e+01
  -1.101163e+01   8.396831e+01
  -1.050229e+02   5.597329e+01
  -1.267110e+02  -4.447567e+01
  -4.569361e+01  -1.327240e+02
   8.213846e+01  -1.310388e+02
   1.615798e+02  -4.259132e+01
   1.415048e+02   5.768448e+01
   5.397426e+01   9.972736e+01
  -2.568203e+01   7.913670e+01
  -5.153367e+01   4.544696e+01
  -3.888594e+01   4.087447e+01
  -3.244202e+01   5.683169e+01
  -5.338433e+01   4.884127e+01
  -7.947522e+01  -9.941991e+00
  -7.113933e+01  -9.217346e+01
  -1.393789e+01  -1.348155e+02
   6.147644e+01  -9.724973e+01
   1.004571e+02  -2.855254e+00
   7.201768e+01   7.867446e+01
   1.524891e+00   9.270559e+01
  -4.846993e+01   4.475050e+01
  -3.893515e+01  -1.308328e+01
   4.516445e+00  -3.574645e+01
   2.081489e+01  -2.265985e+01
  -1.342051e+01  -5.826162e+00
  -5.181858e+01  -9.171438e+00
  -3.154627e+01  -2.449638e+01
   4.659742e+01  -2.508972e+01
   1.089127e+02   2.470801e+00
   8.710164e+01   4.216470e+01
  -5.004184e+00   6.217694e+01
  -8.492498e+01   4.391696e+01
  -8.754147e+01   2.260420e-01
  -2.549296e+01  -3.324449e+01
   3.564410e+01  -2.795159e+01
   4.734305e+01   1.062614e+01
   1.486052e+01   4.523545e+01
  -2.446083e+01   4.135773e+01
  -4.249716e+01   3.023368e+00
  -3.867454e+01  -2.998144e+01
  -3.012241e+01  -2.631837e+01
  -3.134086e+01  -1.325659e+00
  -3.852537e+01  -9.846921e-01
  -2.949017e+01  -4.454389e+01
   1.428030e+01  -9.340776e+01
   7.810329e+01  -8.908323e+01
   1.131977e+02  -2.059825e+01
   8.056208e+01   5.785018e+01
  -1.161950e-02   8.213785e+01
  -5.731005e+01   4.407855e+01
  -3.785398e+01  -5.056001e+00
   3.442450e+01  -1.238810e+01
   7.852111e+01   2.459383e+01
   4.007985e+01   6.348891e+01
  -5.125528e+01   6.386429e+01
  -1.124858e+02   2.305720e+01
  -9.145274e+01  -2.729750e+01
  -1.577083e+01  -5.060773e+01
   3.988624e+01  -3.353685e+01
   2.920202e+01   3.474959e+00
  -2.427262e+01   1.985833e+01
  -5.596021e+01  -1.053912e+01
  -2.600051e+01  -6.772445e+01
   4.312564e+01  -9.316156e+01
   9.049341e+01  -4.457465e+01
   7.516126e+01   5.122791e+01
   1.169337e+01   1.124412e+02
  -4.776129e+01   8.235302e+01
  -6.180515e+01  -8.343569e+00
  -3.096064e+01  -7.255142e+01
   1.155592e+01  -6.048097e+01
   3.271959e+01  -7.242620e+00
   2.500134e+01   1.987381e+01
   7.238180e+00   4.450318e+00
   4.254753e+00  -9.588990e+00
   2.125678e+01   1.406156e+01
   3.506136e+01   5.393540e+01
   1.586492e+01   6.156735e+01
  -3.607731e+01   2.472287e+01
  -7.978825e+01  -2.146065e+01
  -7.073664e+01  -4.095233e+01
  -1.136213e+01  -3.265820e+01
   4.540493e+01  -1.629252e+01
   5.085632e+01  -2.786513e+00
   1.249928e+01   7.866239e+00
  -1.919915e+01   1.233637e+01
  -1.337460e+01   6.236012e+00
   6.738997e+00  -2.829252e+00
  -7.114819e-01  -2.376364e+00
  -3.706298e+01   2.045205e+00
  -5.579928e+01  -1.174563e+01
  -1.736231e+01  -4.780144e+01
   5.972171e+01  -7.167596e+01
   1.121116e+02  -4.327359e+01
   9.436943e+01   3.073844e+01
   2.212706e+01   9.347155e+01
  -4.714286e+01   9.456572e+01
  -6.957547e+01   4.214978e+01
  -4.798225e+01  -1.016072e+01
  -1.658393e+01  -2.320334e+01
  -3.369061e+00  -8.879512e+00
  -9.596067e+00  -6.153065e+00
  -1.751222e+01  -3.029832e+01
  -9.595539e+00  -5.472321e+01
   1.704573e+01  -4.297183e+01
   4.578008e+01   7.413094e+00
   4.893443e+01   5.768861e+01
   1.228195e+01   6.457529e+01
  -4.161151e+01   2.194534e+01
  -6.379013e+01  -3.435955e+01
  -2.722879e+01  -6.049520e+01
   3.635132e+01  -4.145335e+01
   6.360811e+01   2.109979e+00
   3.003565e+01   3.616491e+01
  -1.998650e+01   4.007300e+01
  -2.634695e+01   1.843613e+01
   1.286646e+01  -5.053792e+00
   4.019960e+01  -6.532440e+00
   1.230695e+01   1.659251e+01
  -4.600341e+01   3.941979e+01
  -7.353605e+01   3.114328e+01
  -4.501755e+01  -1.074589e+01
   6.597193e+00  -5.131047e+01
   3.524847e+01  -5.136407e+01
   2.880645e+01  -1.058775e+01
   6.356586e+00   2.968371e+01
  -1.273950e+01   3.048338e+01
  -2.178645e+01  -3.336065e+00
  -1.811713e+01  -3.160381e+01
  -8.883671e-01  -2.571561e+01
   1.983752e+01   1.584711e+00
   2.613579e+01   1.595371e+01
   1.270322e+01   3.850648e+00
  -3.701505e+00  -1.339805e+01
  -4.526887e+00  -8.410754e+00
   5.505075e+00   1.704549e+01
   4.741993e+00   3.304118e+01
  -1.355498e+01   1.732162e+01
  -2.742648e+01  -1.688350e+01
  -1.268689e+01  -3.439235e+01
   2.217141e+01  -1.713128e+01
   3.928885e+01   1.683991e+01
   1.377164e+01   3.465977e+01
  -3.404846e+01   2.281823e+01
  -5.689053e+01  -4.371437e+00
  -3.130937e+01  -2.491120e+01
   1.627804e+01  -2.892242e+01
   3.851378e+01  -1.957862e+01
   1.851937e+01  -5.313829e+00
  -1.396955e+01   3.565112e+00
  -1.833063e+01  -8.441337e-01
   1.154773e+01  -1.324371e+01
   4.245963e+01  -1.317493e+01
