
 $NMID
 id='ANONYMOUS ', fmtdat='(2E16.6)'
 volume=1.0
 tramp=1.0
 $END
  -7.449040e+02   2.749227e+01
  -5.642149e+02  -3.057509e+02
  -1.270438e+02  -4.869542e+02
   2.262697e+02  -4.170451e+02
   2.796515e+02  -1.782427e+02
   1.123615e+02   1.869720e+01
  -3.942101e+01   3.051760e+01
  -3.791703e+01  -8.339828e+01
   6.529287e+01  -1.447817e+02
   1.428145e+02  -5.990994e+01
   1.282618e+02   8.988214e+01
   4.485664e+01   1.529672e+02
  -3.931857e+01   7.085027e+01
  -5.920131e+01  -6.940529e+01
   2.638199e+00  -1.264626e+02
   8.602169e+01  -4.130906e+01
   9.392064e+01   1.063673e+02
  -2.430086e+00   1.759480e+02
  -1.156729e+02   1.070893e+02
  -1.348038e+02  -2.258175e+01
  -5.635952e+01  -9.125611e+01
   1.542409e+01  -6.934068e+01
   2.015019e+00  -3.365664e+01
  -5.547223e+01  -5.146942e+01
  -5.668890e+01  -9.377431e+01
   2.917564e+01  -8.614249e+01
   1.251559e+02  -1.439581e+01
   1.332509e+02   5.823799e+01
   3.936493e+01   6.992733e+01
  -7.289195e+01   2.166601e+01
  -1.047354e+02  -4.171493e+01
  -3.532575e+01  -8.016763e+01
   6.445476e+01  -7.594826e+01
   1.082028e+02  -3.033673e+01
   7.844845e+01   3.124034e+01
   2.979869e+01   6.359403e+01
   1.633470e+01   4.105004e+01
   3.505653e+01  -4.298931e+00
   4.510764e+01  -8.021169e+00
   2.246222e+01   4.911826e+01
  -1.975782e+01   1.064316e+02
  -5.234234e+01   8.954987e+01
  -5.366566e+01   6.330897e+00
  -2.142136e+01  -5.203248e+01
   1.895122e+01  -1.864704e+01
   2.270642e+01   6.260267e+01
  -3.213118e+01   8.545732e+01
  -1.055829e+02   9.231352e+00
  -1.210295e+02  -9.306403e+01
  -4.515293e+01  -1.232037e+02
   6.821999e+01  -6.615127e+01
   1.276345e+02   1.138995e+01
   9.260718e+01   4.930896e+01
   5.230408e+00   4.657840e+01
  -5.872677e+01   3.101919e+01
  -5.970073e+01   1.587317e+01
  -2.087566e+01   2.309911e+00
   3.189600e+00  -3.018397e+00
  -1.555317e+01   6.947537e-01
  -4.704693e+01  -5.989982e+00
  -3.497771e+01  -3.750631e+01
   3.280949e+01  -6.760700e+01
   9.626757e+01  -4.795948e+01
   8.321706e+01   2.824033e+01
  -5.424302e+00   1.023415e+02
  -9.124032e+01   1.068597e+02
  -1.047486e+02   3.717571e+01
  -5.686536e+01  -4.719045e+01
  -1.132700e+01  -8.778687e+01
  -2.980701e+00  -7.937511e+01
  -7.457906e+00  -5.687801e+01
   1.171273e+01  -4.537377e+01
   5.140393e+01  -3.505306e+01
   7.572087e+01  -4.374683e+00
   6.031373e+01   4.196582e+01
   1.552143e+01   6.802939e+01
  -2.860258e+01   4.354959e+01
  -4.653454e+01  -1.810264e+01
  -2.826905e+01  -6.654021e+01
   1.772836e+01  -6.156397e+01
   6.400889e+01  -9.799542e+00
   7.691676e+01   4.701818e+01
   4.480278e+01   7.381109e+01
  -6.286703e+00   6.761469e+01
  -3.728574e+01   4.807823e+01
  -4.069199e+01   3.296626e+01
  -4.815592e+01   2.347832e+01
  -8.273341e+01   6.353531e+00
  -1.145234e+02  -3.131066e+01
  -8.674969e+01  -8.341313e+01
   9.495922e+00  -1.195990e+02
   1.075980e+02  -1.070278e+02
   1.300186e+02  -4.461213e+01
   7.167603e+01   2.782441e+01
   9.090003e-01   6.231878e+01
  -1.952516e+01   4.656719e+01
   7.025400e+00   1.212595e+01
   3.257570e+01  -1.220264e+00
   2.566291e+01   1.412921e+01
  -3.218959e+00   3.036660e+01
  -2.460453e+01   1.936760e+01
  -1.982561e+01  -1.228325e+01
   8.606963e+00  -2.667568e+01
   3.894221e+01   4.290324e+00
   4.027288e+01   6.226144e+01
  -3.139160e+00   9.315910e+01
  -6.820853e+01   6.002205e+01
  -1.037341e+02  -1.651549e+01
  -7.755919e+01  -7.604015e+01
  -1.174884e+01  -7.738504e+01
   3.775920e+01  -3.563423e+01
   3.739078e+01   3.583869e-01
   6.150525e+00   7.906722e-01
  -1.103232e+01  -2.028717e+01
   6.087752e+00  -2.930809e+01
   3.393515e+01  -1.318419e+01
   3.535592e+01   9.324372e+00
   4.538555e+00   1.218951e+01
  -2.290031e+01  -8.127752e+00
  -7.879369e+00  -2.897655e+01
   4.537697e+01  -2.453016e+01
   8.685488e+01   9.547389e+00
   7.018264e+01   5.213921e+01
   2.426268e+00   7.396750e+01
  -6.101374e+01   6.022324e+01
  -7.150750e+01   2.202062e+01
  -3.275055e+01  -1.142067e+01
   8.888373e+00  -1.638928e+01
   1.325344e+01   3.284851e+00
  -1.791779e+01   1.850149e+01
  -4.904361e+01   4.914188e+00
  -4.757880e+01  -2.869326e+01
  -1.337941e+01  -4.830339e+01
   2.327081e+01  -3.364833e+01
   3.115276e+01  -2.747139e+00
   8.621993e+00   8.910084e+00
  -1.407336e+01  -1.016904e+01
  -5.672834e+00  -3.508585e+01
   3.148724e+01  -3.363235e+01
   6.084062e+01  -5.395324e-01
   4.878433e+01   3.935689e+01
   1.078758e+00   5.604821e+01
  -4.159332e+01   3.923413e+01
  -4.475890e+01   4.026269e+00
  -1.364317e+01  -2.250392e+01
   1.590607e+01  -2.335077e+01
   1.685315e+01  -5.879191e+00
  -2.757867e+00   6.475096e+00
  -1.300665e+01   5.694304e-01
   2.488910e+00  -1.029489e+01
   2.798160e+01  -2.260286e+00
   3.235572e+01   2.747583e+01
   2.220812e+00   5.219541e+01
  -4.281608e+01   4.282430e+01
  -6.721344e+01  -1.312327e-01
  -5.159445e+01  -4.571549e+01
  -9.417027e+00  -6.175068e+01
   2.659026e+01  -4.239822e+01
   3.454111e+01  -9.340142e+00
   2.114212e+01   1.012649e+01
   1.042992e+01   6.832862e+00
   1.590324e+01  -4.438157e+00
   2.588641e+01  -2.058558e+00
   1.833481e+01   1.752464e+01
  -1.086521e+01   3.309169e+01
  -3.810806e+01   2.114758e+01
  -3.378800e+01  -1.429749e+01
   5.785624e+00  -3.989575e+01
   4.989592e+01  -2.576152e+01
   5.895650e+01   2.128626e+01
   2.054871e+01   6.151625e+01
  -3.831669e+01   6.019556e+01
  -7.441801e+01   1.971509e+01
  -6.521810e+01  -2.592603e+01
  -2.529867e+01  -4.532562e+01
   1.128525e+01  -3.639963e+01
   2.330168e+01  -2.140082e+01
   1.746702e+01  -1.959610e+01
   1.460529e+01  -2.710095e+01
   2.477512e+01  -2.329860e+01
   3.735700e+01   4.254896e+00
   3.358222e+01   4.265787e+01
   6.924797e+00   6.252581e+01
  -2.803821e+01   4.516327e+01
  -4.608934e+01   1.533476e+00
  -3.313703e+01  -3.613946e+01
  -7.720537e-01  -4.254625e+01
   2.226456e+01  -2.014662e+01
   1.768262e+01   6.720023e+00
  -2.802074e+00   1.680789e+01
  -1.039897e+01   1.003998e+01
   6.125513e+00   2.009718e+00
   2.461088e+01   4.043677e+00
   1.495823e+01   1.158574e+01
  -2.215720e+01   1.162976e+01
  -5.124986e+01  -1.581012e+00
  -4.027779e+01  -1.989047e+01
   3.193009e+00  -2.875032e+01
   3.997543e+01  -2.019370e+01
   4.043791e+01  -7.386374e-02
   1.142841e+01   1.563087e+01
  -1.673437e+01   1.346108e+01
  -2.223159e+01  -4.802888e+00
  -7.405600e+00  -2.171172e+01
   1.111166e+01  -2.012618e+01
   2.021427e+01  -1.576363e+00
   1.873982e+01   1.439260e+01
   1.428744e+01   1.239138e+01
   1.435346e+01   2.210872e-01
   1.787530e+01   2.698666e-01
   1.414294e+01   2.122947e+01
  -6.296810e+00   4.414570e+01
  -3.664393e+01   4.165897e+01
  -5.341434e+01   9.398126e+00
  -3.795401e+01  -2.710211e+01
   1.651560e-01  -3.840405e+01
   2.714780e+01  -2.085196e+01
   1.794373e+01   2.101713e+00
  -1.596012e+01   5.983388e+00
  -3.657862e+01  -1.087572e+01
  -1.872318e+01  -2.911744e+01
   2.359029e+01  -2.966768e+01
   5.183826e+01  -1.092202e+01
   4.210135e+01   1.238452e+01
   7.309085e+00   2.313392e+01
  -1.819607e+01   1.522138e+01
  -1.323336e+01  -1.866080e+00
   1.145888e+01  -9.483567e+00
   2.634442e+01   4.618417e+00
   1.286032e+01   3.158928e+01
  -1.918639e+01   4.418619e+01
  -4.185987e+01   2.196689e+01
  -3.563487e+01  -2.309080e+01
  -6.467234e+00  -5.232961e+01
   2.155133e+01  -3.854983e+01
   2.858523e+01   3.795220e+00
   1.438146e+01   3.350985e+01
  -5.474752e+00   2.756609e+01
  -1.523447e+01   3.025380e+00
  -1.138049e+01  -8.915177e+00
  -3.026606e+00  -1.608692e+00
  -1.901164e+00   4.263071e+00
  -1.015087e+01  -7.136053e+00
  -1.660372e+01  -2.511239e+01
  -7.395939e+00  -2.798251e+01
   1.697940e+01  -1.117265e+01
   3.723296e+01   9.411651e+00
   3.287266e+01   1.836658e+01
   5.334081e+00   1.535049e+01
  -2.088665e+01   8.281191e+00
  -2.350161e+01   1.527447e+00
  -5.980031e+00  -4.069618e+00
   8.657033e+00  -5.968879e+00
   6.217517e+00  -2.501470e+00
  -2.930312e+00   1.733230e+00
   3.594574e-01   8.256644e-01
   1.712183e+01  -1.681069e+00
   2.622942e+01   5.163179e+00
   8.900250e+00   2.279005e+01
  -2.715146e+01   3.436743e+01
  -5.252438e+01   2.099776e+01
  -4.504449e+01  -1.392715e+01
  -1.120453e+01  -4.363216e+01
   2.180004e+01  -4.452191e+01
   3.265582e+01  -2.022741e+01
   2.252911e+01   4.386974e+00
   7.812630e+00   1.092372e+01
   1.678712e+00   4.550665e+00
   4.486647e+00   3.175463e+00
   8.038079e+00   1.407968e+01
   4.471342e+00   2.531494e+01
  -7.747054e+00   2.012948e+01
  -2.141620e+01  -2.949394e+00
  -2.353767e+01  -2.647602e+01
  -6.592508e+00  -3.039622e+01
   1.930782e+01  -1.114922e+01
   3.050801e+01   1.532990e+01
   1.340831e+01   2.840481e+01
  -1.699982e+01   2.003810e+01
  -3.014644e+01  -7.162183e-01
  -1.418934e+01  -1.733373e+01
   9.604888e+00  -1.918575e+01
   1.264687e+01  -8.414164e+00
  -5.846600e+00   3.003022e+00
  -1.877313e+01   3.399505e+00
  -5.894342e+00  -7.922406e+00
   2.120813e+01  -1.863649e+01
   3.417031e+01  -1.442992e+01
   2.118721e+01   5.321962e+00
  -2.799368e+00   2.416533e+01
  -1.657143e+01   2.411052e+01
  -1.405344e+01   5.083076e+00
  -3.534037e+00  -1.389562e+01
   5.915451e+00  -1.462726e+01
   1.053960e+01   1.096779e+00
   8.722483e+00   1.473123e+01
   3.541774e-01   1.240133e+01
  -9.426742e+00  -4.861951e-01
  -1.220602e+01  -7.604307e+00
  -5.802973e+00  -1.913237e+00
   1.701788e+00   6.625739e+00
   1.676606e+00   4.412911e+00
  -3.324715e+00  -8.146149e+00
  -2.750330e+00  -1.639014e+01
   6.583273e+00  -9.019655e+00
   1.378940e+01   7.722168e+00
   6.828664e+00   1.655152e+01
  -1.027979e+01   8.531479e+00
  -1.897404e+01  -7.629240e+00
  -6.962770e+00  -1.619884e+01
   1.595616e+01  -1.084504e+01
   2.695904e+01   1.742420e+00
   1.486828e+01   1.150577e+01
  -7.639373e+00   1.381936e+01
  -1.818931e+01   9.631741e+00
  -8.922147e+00   2.479108e+00
   6.335124e+00  -2.356667e+00
   8.759544e+00  -2.991419e-01
  -4.737949e+00   6.292094e+00
  -1.922702e+01   6.973724e+00
