
 $NMID
 id='ANONYMOUS ', fmtdat='(2E16.6)'
 volume=1.0
 tramp=1.0
 $END
   3.157461e+03  -6.928136e+01
   2.275744e+03   1.390965e+03
   3.592055e+02   2.021736e+03
  -1.022704e+03   1.568820e+03
  -1.072745e+03   5.764075e+02
  -3.189082e+02  -9.995332e+01
   2.244008e+02  -4.236467e+01
   1.161522e+02   4.131003e+02
  -3.308967e+02   5.921647e+02
  -6.079874e+02   1.960457e+02
  -4.981716e+02  -4.161505e+02
  -1.283040e+02  -6.369839e+02
   2.066876e+02  -2.549246e+02
   2.438543e+02   3.328355e+02
  -4.508988e+01   5.309173e+02
  -3.717718e+02   1.413339e+02
  -3.619592e+02  -4.548232e+02
   4.137601e+01  -6.950369e+02
   4.709994e+02  -3.932800e+02
   5.212148e+02   1.150291e+02
   2.035133e+02   3.706895e+02
  -8.128062e+01   2.739545e+02
  -2.717842e+01   1.175963e+02
   2.206118e+02   1.726580e+02
   2.566536e+02   3.546898e+02
  -8.500848e+01   3.663856e+02
  -5.108321e+02   9.909970e+01
  -5.779370e+02  -2.256693e+02
  -1.822919e+02  -3.193315e+02
   3.163148e+02  -1.289948e+02
   4.630559e+02   1.622572e+02
   1.616075e+02   3.470926e+02
  -2.684560e+02   3.303478e+02
  -4.539938e+02   1.286583e+02
  -3.258405e+02  -1.397982e+02
  -1.096498e+02  -2.797880e+02
  -3.400997e+01  -1.719222e+02
  -1.127557e+02   4.804893e+01
  -1.915182e+02   7.772686e+01
  -1.351533e+02  -1.884025e+02
   5.034072e+01  -4.672575e+02
   2.322502e+02  -3.973658e+02
   2.593274e+02  -1.318799e+01
   9.688944e+01   2.530214e+02
  -1.068254e+02   9.676849e+01
  -1.227942e+02  -2.688540e+02
   1.279883e+02  -3.699410e+02
   4.439587e+02  -4.558660e+01
   5.011737e+02   3.819380e+02
   1.793810e+02   5.074451e+02
  -2.894528e+02   2.740085e+02
  -5.283117e+02  -5.133687e+01
  -3.701711e+02  -2.193132e+02
   2.544312e+00  -2.033141e+02
   2.583574e+02  -1.127628e+02
   2.346380e+02  -3.583949e+01
   5.890957e+01  -1.968761e+00
  -2.300465e+01  -9.636912e+00
   7.911946e+01  -2.066768e+01
   2.065723e+02   3.360364e+01
   1.379138e+02   1.679854e+02
  -1.398992e+02   2.703234e+02
  -3.795578e+02   1.828060e+02
  -3.220378e+02  -1.067925e+02
   1.658148e+01  -3.927870e+02
   3.489344e+02  -4.249957e+02
   4.156164e+02  -1.610703e+02
   2.387161e+02   1.859575e+02
   4.819992e+01   3.649542e+02
  -3.070494e+00   3.249112e+02
   1.686123e+01   2.131569e+02
  -3.946134e+01   1.626314e+02
  -1.878791e+02   1.404660e+02
  -2.968141e+02   3.378170e+01
  -2.513551e+02  -1.570608e+02
  -7.436232e+01  -2.770957e+02
   1.124939e+02  -1.866668e+02
   1.950668e+02   6.446118e+01
   1.250647e+02   2.679886e+02
  -6.549534e+01   2.559887e+02
  -2.617352e+02   4.865853e+01
  -3.178013e+02  -1.882646e+02
  -1.812334e+02  -3.042497e+02
   3.390726e+01  -2.754728e+02
   1.570393e+02  -1.847560e+02
   1.595111e+02  -1.198389e+02
   1.823952e+02  -9.118619e+01
   3.243273e+02  -3.342115e+01
   4.583055e+02   1.161963e+02
   3.509254e+02   3.301950e+02
  -3.216198e+01   4.801540e+02
  -4.252271e+02   4.336217e+02
  -5.217581e+02   1.849181e+02
  -2.958597e+02  -1.109194e+02
  -8.845173e+00  -2.581206e+02
   8.596019e+01  -1.944703e+02
  -1.670797e+01  -4.395983e+01
  -1.320424e+02   1.730625e+01
  -1.156947e+02  -5.363794e+01
   7.566335e+00  -1.328022e+02
   1.088084e+02  -8.748470e+01
   9.117730e+01   5.336147e+01
  -3.486792e+01   1.180468e+02
  -1.630864e+02  -1.235143e+01
  -1.636780e+02  -2.510931e+02
   1.325656e+01  -3.732801e+02
   2.689566e+02  -2.389256e+02
   4.092900e+02   6.297132e+01
   3.120810e+02   2.981047e+02
   5.479411e+01   3.085355e+02
  -1.484146e+02   1.473177e+02
  -1.548149e+02   7.054610e-01
  -2.794724e+01  -7.309782e+00
   4.878124e+01   7.775468e+01
  -1.845137e+01   1.207916e+02
  -1.369079e+02   5.922881e+01
  -1.478013e+02  -3.552835e+01
  -2.235483e+01  -5.296372e+01
   9.259644e+01   2.677239e+01
   3.592554e+01   1.127751e+02
  -1.761677e+02   9.978620e+01
  -3.444577e+02  -3.167523e+01
  -2.838058e+02  -2.016247e+02
  -1.733312e+01  -2.954110e+02
   2.395901e+02  -2.477292e+02
   2.893765e+02  -9.410469e+01
   1.367218e+02   4.749915e+01
  -3.565608e+01   7.161086e+01
  -5.846703e+01  -1.170303e+01
   6.850725e+01  -7.909000e+01
   1.990930e+02  -2.489690e+01
   1.954851e+02   1.146334e+02
   5.598132e+01   1.971157e+02
  -9.443937e+01   1.388332e+02
  -1.285337e+02   1.296281e+01
  -3.887121e+01  -3.755027e+01
   5.488936e+01   3.520992e+01
   2.648568e+01   1.355329e+02
  -1.200280e+02   1.351523e+02
  -2.412360e+02   7.107017e+00
  -1.979720e+02  -1.544181e+02
  -7.089682e+00  -2.261374e+02
   1.675904e+02  -1.598338e+02
   1.822652e+02  -1.524504e+01
   5.594708e+01   9.387704e+01
  -6.486410e+01   9.652623e+01
  -7.004927e+01   2.432599e+01
   7.709904e+00  -2.699868e+01
   4.950827e+01  -5.115332e+00
  -9.017592e+00   3.785386e+01
  -1.078234e+02   8.554373e+00
  -1.270340e+02  -1.062706e+02
  -1.163010e+01  -2.051323e+02
   1.667332e+02  -1.724579e+02
   2.680800e+02  -4.197155e+00
   2.092393e+02   1.801276e+02
   3.950017e+01   2.482878e+02
  -1.072222e+02   1.715217e+02
  -1.388979e+02   3.702620e+01
  -8.352118e+01  -4.201538e+01
  -4.048245e+01  -2.810075e+01
  -6.285806e+01   1.774142e+01
  -1.017560e+02   9.036742e+00
  -7.121743e+01  -6.739336e+01
   4.215210e+01  -1.287258e+02
   1.471589e+02  -8.384633e+01
   1.315440e+02   5.352676e+01
  -2.045810e+01   1.558186e+02
  -1.940985e+02   1.042166e+02
  -2.348073e+02  -8.029723e+01
  -8.698105e+01  -2.435315e+02
   1.483155e+02  -2.433857e+02
   2.972293e+02  -8.329615e+01
   2.637763e+02   1.018072e+02
   1.037883e+02   1.824610e+02
  -4.447374e+01   1.474922e+02
  -9.397450e+01   8.649203e+01
  -7.114789e+01   7.806542e+01
  -5.913764e+01   1.073850e+02
  -9.848367e+01   9.237255e+01
  -1.483321e+02  -1.674459e+01
  -1.346222e+02  -1.695050e+02
  -2.954354e+01  -2.496892e+02
   1.109290e+02  -1.820803e+02
   1.854578e+02  -8.598487e+00
   1.352588e+02   1.430584e+02
   5.711184e+00   1.710172e+02
  -8.752697e+01   8.350746e+01
  -7.101669e+01  -2.354656e+01
   8.652659e+00  -6.555748e+01
   3.822114e+01  -4.085499e+01
  -2.578003e+01  -9.502526e+00
  -9.704971e+01  -1.626025e+01
  -5.902965e+01  -4.527298e+01
   8.624518e+01  -4.678272e+01
   2.018331e+02   3.485404e+00
   1.615461e+02   7.616576e+01
  -8.696424e+00   1.138673e+02
  -1.565252e+02   8.226865e+01
  -1.617067e+02   2.685806e+00
  -4.719742e+01  -6.061461e+01
   6.618443e+01  -5.287633e+01
   8.833028e+01   1.875010e+01
   2.819446e+01   8.489012e+01
  -4.526021e+01   7.852905e+01
  -7.937962e+01   6.133743e+00
  -7.255885e+01  -5.620254e+01
  -5.647957e+01  -4.861666e+01
  -5.832380e+01  -9.928558e-01
  -7.155387e+01  -6.921223e-01
  -5.540262e+01  -8.300609e+01
   2.491362e+01  -1.745584e+02
   1.433265e+02  -1.665023e+02
   2.097978e+02  -3.938778e+01
   1.507498e+02   1.062179e+02
   1.329027e+00   1.521041e+02
  -1.061958e+02   8.263019e+01
  -7.093613e+01  -8.683728e+00
   6.370192e+01  -2.402774e+01
   1.467516e+02   4.321321e+01
   7.625933e+01   1.162877e+02
  -9.314753e+01   1.196679e+02
  -2.074571e+02   4.605150e+01
  -1.698317e+02  -4.757107e+01
  -3.082840e+01  -9.283799e+01
   7.218136e+01  -6.300347e+01
   5.339407e+01   5.618000e+00
  -4.503748e+01   3.736917e+01
  -1.046016e+02  -1.836896e+01
  -5.042439e+01  -1.259590e+02
   7.790923e+01  -1.756312e+02
   1.679559e+02  -8.630224e+01
   1.420860e+02   9.322812e+01
   2.530866e+01   2.093510e+02
  -8.615928e+01   1.547161e+02
  -1.145411e+02  -1.376771e+01
  -5.921696e+01  -1.333440e+02
   1.942263e+01  -1.114313e+02
   5.997895e+01  -1.370128e+01
   4.687561e+01   3.552190e+01
   1.371604e+01   7.074807e+00
   7.309127e+00  -1.771860e+01
   3.917976e+01   2.663026e+01
   6.642242e+01   9.951968e+01
   3.163016e+01   1.128900e+02
  -6.605120e+01   4.591412e+01
  -1.491151e+02  -3.746347e+01
  -1.327560e+02  -7.341831e+01
  -2.159957e+01  -6.047454e+01
   8.437979e+01  -3.231453e+01
   9.423048e+01  -6.760167e+00
   2.296118e+01   1.500140e+01
  -3.526241e+01   2.390579e+01
  -2.408548e+01   1.137094e+01
   1.273381e+01  -6.157523e+00
  -1.779747e+00  -4.090234e+00
  -6.942098e+01   5.628058e+00
  -1.043046e+02  -2.053289e+01
  -3.343151e+01  -8.989440e+01
   1.096379e+02  -1.360923e+02
   2.082461e+02  -8.311709e+01
   1.772714e+02   5.594321e+01
   4.390251e+01   1.739922e+02
  -8.577513e+01   1.769399e+02
  -1.290808e+02   7.991804e+01
  -8.977203e+01  -1.763750e+01
  -3.115796e+01  -4.288586e+01
  -6.000512e+00  -1.701671e+01
  -1.750894e+01  -1.158526e+01
  -3.298157e+01  -5.555322e+01
  -1.916741e+01  -1.009576e+02
   3.059013e+01  -8.035238e+01
   8.574344e+01   1.228975e+01
   9.327758e+01   1.063565e+02
   2.472348e+01   1.209053e+02
  -7.777340e+01   4.273157e+01
  -1.207387e+02  -6.256528e+01
  -5.227219e+01  -1.127270e+02
   6.752055e+01  -7.832939e+01
   1.188425e+02   2.944809e+00
   5.597956e+01   6.720301e+01
  -3.722559e+01   7.487163e+01
  -4.862609e+01   3.399654e+01
   2.442505e+01  -1.060163e+01
   7.486246e+01  -1.330839e+01
   2.307889e+01   3.092284e+01
  -8.448934e+01   7.461317e+01
  -1.353547e+02   5.926107e+01
  -8.344813e+01  -1.962397e+01
   1.116787e+01  -9.586670e+01
   6.463808e+01  -9.590273e+01
   5.409457e+01  -1.954555e+01
   1.298990e+01   5.570302e+01
  -2.350793e+01   5.726851e+01
  -4.150665e+01  -5.702646e+00
  -3.454979e+01  -5.855192e+01
  -1.548704e+00  -4.803791e+01
   3.733983e+01   2.467794e+00
   4.855445e+01   2.924852e+01
   2.331539e+01   6.853033e+00
  -6.594984e+00  -2.516704e+01
  -7.383322e+00  -1.549146e+01
   1.118355e+01   3.272602e+01
   8.780610e+00   6.301995e+01
  -2.634243e+01   3.314014e+01
  -5.255641e+01  -3.189003e+01
  -2.460417e+01  -6.530663e+01
   4.139277e+01  -3.292106e+01
   7.422118e+01   3.101397e+01
   2.681992e+01   6.471250e+01
  -6.299305e+01   4.311358e+01
  -1.064142e+02  -7.164841e+00
  -5.899133e+01  -4.574908e+01
   3.007673e+01  -5.425397e+01
   7.191263e+01  -3.735244e+01
   3.454889e+01  -9.840823e+00
  -2.653304e+01   7.957369e+00
  -3.516656e+01  -6.510443e-01
   2.051444e+01  -2.578434e+01
   7.884260e+01  -2.703651e+01
