
 $NMID
 id='ANONYMOUS ', fmtdat='(2E16.6)'
 volume=1.0
 tramp=1.0
 $END
  -2.126653e+03  -7.404657e+00
  -1.512008e+03  -9.610870e+02
  -2.258579e+02  -1.358743e+03
   6.954085e+02  -1.052949e+03
   7.296512e+02  -3.960971e+02
   2.268113e+02   5.763531e+01
  -1.389599e+02   2.792136e+01
  -6.982586e+01  -2.710619e+02
   2.270165e+02  -3.906117e+02
   4.083977e+02  -1.263393e+02
   3.296285e+02   2.825362e+02
   8.171864e+01   4.277241e+02
  -1.362765e+02   1.690407e+02
  -1.556008e+02  -2.246144e+02
   3.652649e+01  -3.547779e+02
   2.497269e+02  -9.108253e+01
   2.388428e+02   3.099488e+02
  -3.338376e+01   4.702434e+02
  -3.215866e+02   2.640849e+02
  -3.526094e+02  -8.102392e+01
  -1.352197e+02  -2.522894e+02
   5.662385e+01  -1.838193e+02
   1.651526e+01  -7.963514e+01
  -1.509514e+02  -1.237382e+02
  -1.686153e+02  -2.495963e+02
   6.803916e+01  -2.487579e+02
   3.515979e+02  -5.531658e+01
   3.861358e+02   1.661642e+02
   1.134971e+02   2.178570e+02
  -2.182442e+02   7.683864e+01
  -3.086750e+02  -1.211327e+02
  -1.007395e+02  -2.374153e+02
   1.883977e+02  -2.173893e+02
   3.090399e+02  -7.872070e+01
   2.171659e+02   9.904366e+01
   6.948446e+01   1.882872e+02
   2.336463e+01   1.137213e+02
   8.303873e+01  -3.050688e+01
   1.343827e+02  -4.455285e+01
   8.546031e+01   1.349881e+02
  -4.731486e+01   3.155223e+02
  -1.645605e+02   2.610295e+02
  -1.708403e+02   2.633763e+00
  -5.721748e+01  -1.698009e+02
   7.279658e+01  -5.923727e+01
   7.491228e+01   1.855736e+02
  -9.467532e+01   2.470760e+02
  -3.011771e+02   2.216379e+01
  -3.331459e+02  -2.671108e+02
  -1.139976e+02  -3.459733e+02
   1.997293e+02  -1.800127e+02
   3.563279e+02   4.304985e+01
   2.468637e+02   1.518452e+02
  -3.593098e+00   1.343485e+02
  -1.737909e+02   7.225376e+01
  -1.579799e+02   2.448223e+01
  -4.197937e+01   3.568888e+00
   1.245722e+01   5.558322e+00
  -5.399559e+01   9.585836e+00
  -1.372786e+02  -2.632551e+01
  -9.011584e+01  -1.140791e+02
   9.788778e+01  -1.812269e+02
   2.603910e+02  -1.207081e+02
   2.193288e+02   7.660898e+01
  -1.555200e+01   2.691660e+02
  -2.445053e+02   2.861578e+02
  -2.863795e+02   1.030236e+02
  -1.589869e+02  -1.310307e+02
  -2.632016e+01  -2.477472e+02
   5.576856e+00  -2.188342e+02
  -1.127749e+01  -1.455217e+02
   2.805357e+01  -1.127389e+02
   1.315536e+02  -9.464146e+01
   2.044947e+02  -1.786992e+01
   1.688292e+02   1.122654e+02
   4.513715e+01   1.901112e+02
  -8.037759e+01   1.243577e+02
  -1.316392e+02  -4.811445e+01
  -8.007051e+01  -1.848962e+02
   4.944705e+01  -1.727516e+02
   1.789829e+02  -2.808328e+01
   2.125947e+02   1.332474e+02
   1.181650e+02   2.086545e+02
  -2.631584e+01   1.856122e+02
  -1.077921e+02   1.236314e+02
  -1.093467e+02   8.092857e+01
  -1.261090e+02   6.080880e+01
  -2.224991e+02   1.816277e+01
  -3.110213e+02  -8.615011e+01
  -2.342034e+02  -2.300480e+02
   2.908601e+01  -3.265541e+02
   2.961273e+02  -2.891768e+02
   3.578357e+02  -1.179672e+02
   1.988603e+02   8.030675e+01
   1.198909e+00   1.752720e+02
  -6.102590e+01   1.295634e+02
   1.237569e+01   2.954942e+01
   9.102056e+01  -8.553135e+00
   7.689668e+01   3.954052e+01
  -8.523802e+00   8.955340e+01
  -7.503810e+01   5.605738e+01
  -5.968822e+01  -3.817921e+01
   2.630295e+01  -7.861881e+01
   1.104608e+02   1.176315e+01
   1.075186e+02   1.730317e+02
  -1.401284e+01   2.536198e+02
  -1.864617e+02   1.594018e+02
  -2.784503e+02  -4.812832e+01
  -2.086648e+02  -2.077744e+02
  -3.241924e+01  -2.114435e+02
   1.036499e+02  -9.796982e+01
   1.049772e+02   2.302848e+00
   1.818453e+01   5.225975e+00
  -3.197153e+01  -5.432863e+01
   1.511187e+01  -8.209737e+01
   9.440542e+01  -3.767393e+01
   9.956919e+01   2.692271e+01
   1.367364e+01   3.628042e+01
  -6.305649e+01  -2.014110e+01
  -2.275747e+01  -7.792951e+01
   1.218862e+02  -6.583687e+01
   2.348044e+02   2.657115e+01
   1.906778e+02   1.419675e+02
   7.079399e+00   2.019404e+02
  -1.674008e+02   1.650096e+02
  -1.983230e+02   5.920100e+01
  -9.160938e+01  -3.448509e+01
   2.576355e+01  -4.759898e+01
   3.918314e+01   9.396985e+00
  -4.846054e+01   5.264755e+01
  -1.359502e+02   1.345324e+01
  -1.309205e+02  -8.109456e+01
  -3.482251e+01  -1.346643e+02
   6.635649e+01  -9.261172e+01
   8.738607e+01  -6.527542e+00
   2.530856e+01   2.627158e+01
  -3.751611e+01  -2.512561e+01
  -1.624891e+01  -9.340173e+01
   8.413505e+01  -9.080992e+01
   1.648759e+02  -1.281139e+00
   1.325849e+02   1.082742e+02
   1.322102e+00   1.539823e+02
  -1.162909e+02   1.060682e+02
  -1.237789e+02   7.716796e+00
  -3.630097e+01  -6.433819e+01
   4.557904e+01  -6.435507e+01
   4.777963e+01  -1.528142e+01
  -6.052474e+00   1.845504e+01
  -3.426982e+01   2.753515e+00
   6.432952e+00  -2.606076e+01
   7.384348e+01  -4.801186e+00
   8.557320e+01   7.415274e+01
   5.210987e+00   1.403314e+02
  -1.163129e+02   1.153771e+02
  -1.829367e+02  -1.159634e+00
  -1.398766e+02  -1.258886e+02
  -2.323106e+01  -1.694667e+02
   7.532910e+01  -1.149621e+02
   9.487712e+01  -2.329112e+01
   5.622217e+01   2.944914e+01
   2.721906e+01   1.946530e+01
   4.307529e+01  -1.129624e+01
   6.960160e+01  -4.863905e+00
   4.801166e+01   4.688559e+01
  -3.020170e+01   8.749990e+01
  -1.017098e+02   5.562632e+01
  -8.947802e+01  -3.822435e+01
   1.593875e+01  -1.063608e+02
   1.341127e+02  -6.867481e+01
   1.592059e+02   5.818214e+01
   5.564011e+01   1.675362e+02
  -1.049121e+02   1.637630e+02
  -2.037665e+02   5.225661e+01
  -1.779454e+02  -7.325887e+01
  -6.777982e+01  -1.256330e+02
   3.247637e+01  -9.960214e+01
   6.509017e+01  -5.741370e+01
   4.928464e+01  -5.206563e+01
   4.150176e+01  -7.229626e+01
   6.822237e+01  -6.165840e+01
   1.008192e+02   1.330834e+01
   8.937782e+01   1.172580e+02
   1.659443e+01   1.704638e+02
  -7.816221e+01   1.223392e+02
  -1.263886e+02   3.004189e+00
  -8.994951e+01  -9.953736e+01
  -1.242111e+00  -1.165689e+02
   6.108968e+01  -5.547115e+01
   4.827169e+01   1.734255e+01
  -6.876248e+00   4.488931e+01
  -2.696241e+01   2.751832e+01
   1.714238e+01   6.776170e+00
   6.593781e+01   1.222601e+01
   3.973018e+01   3.162641e+01
  -5.956847e+01   3.085980e+01
  -1.378427e+02  -5.081305e+00
  -1.091400e+02  -5.437225e+01
   7.761478e+00  -7.783621e+01
   1.080698e+02  -5.402068e+01
   1.102642e+02   5.860904e-01
   3.131558e+01   4.220172e+01
  -4.572112e+01   3.525161e+01
  -5.994062e+01  -1.393299e+01
  -1.836906e+01  -5.819715e+01
   3.157607e+01  -5.294302e+01
   5.421867e+01  -3.261519e+00
   4.897995e+01   3.912659e+01
   3.792563e+01   3.386649e+01
   3.955793e+01   1.530516e+00
   4.869644e+01   1.475829e+00
   3.687210e+01   5.729974e+01
  -1.913160e+01   1.186465e+02
  -1.000581e+02   1.116558e+02
  -1.438117e+02   2.414893e+01
  -1.014369e+02  -7.440747e+01
   1.203482e+00  -1.038288e+02
   7.352637e+01  -5.508689e+01
   4.820019e+01   6.752942e+00
  -4.367951e+01   1.549355e+01
  -9.923141e+01  -3.143557e+01
  -5.019141e+01  -8.027422e+01
   6.518808e+01  -8.016448e+01
   1.419504e+02  -2.828927e+01
   1.149255e+02   3.497473e+01
   1.953301e+01   6.368330e+01
  -5.020530e+01   4.172660e+01
  -3.636907e+01  -4.771896e+00
   3.116936e+01  -2.494875e+01
   7.100030e+01   1.383845e+01
   3.275403e+01   8.630939e+01
  -5.513194e+01   1.184384e+02
  -1.152144e+02   5.656955e+01
  -9.537241e+01  -6.519455e+01
  -1.446287e+01  -1.426984e+02
   6.073916e+01  -1.040424e+02
   7.784289e+01   1.106732e+01
   3.838293e+01   9.173149e+01
  -1.507173e+01   7.564936e+01
  -4.123214e+01   8.438336e+00
  -3.128368e+01  -2.493229e+01
  -9.009792e+00  -5.078752e+00
  -5.301890e+00   1.191343e+01
  -2.661922e+01  -1.870842e+01
  -4.393446e+01  -6.868784e+01
  -1.970169e+01  -7.730844e+01
   4.585443e+01  -3.039272e+01
   1.009328e+02   2.752150e+01
   8.919731e+01   5.184651e+01
   1.394023e+01   4.154880e+01
  -5.767303e+01   2.085751e+01
  -6.422898e+01   3.246397e+00
  -1.563547e+01  -1.055696e+01
   2.424552e+01  -1.572755e+01
   1.674415e+01  -7.342915e+00
  -8.568557e+00   4.004949e+00
   1.047803e+00   2.756196e+00
   4.710228e+01  -2.924753e+00
   7.075371e+01   1.532310e+01
   2.187768e+01   6.153169e+01
  -7.617467e+01   9.115534e+01
  -1.428887e+02   5.400879e+01
  -1.201204e+02  -4.014232e+01
  -2.767526e+01  -1.189208e+02
   6.076554e+01  -1.194653e+02
   8.894966e+01  -5.287845e+01
   6.085945e+01   1.316155e+01
   2.070440e+01   2.966704e+01
   4.036955e+00   1.171344e+01
   1.190352e+01   8.191341e+00
   2.167543e+01   3.838909e+01
   1.157937e+01   6.908438e+01
  -2.191340e+01   5.430423e+01
  -5.810975e+01  -9.466883e+00
  -6.207521e+01  -7.347457e+01
  -1.542964e+01  -8.249791e+01
   5.325164e+01  -2.816866e+01
   8.131402e+01   4.393248e+01
   3.426976e+01   7.735242e+01
  -4.686430e+01   5.261181e+01
  -8.097805e+01  -3.428763e+00
  -3.745631e+01  -4.661610e+01
   2.627903e+01  -5.073700e+01
   3.376928e+01  -2.261974e+01
  -1.652008e+01   6.934679e+00
  -5.110191e+01   8.100044e+00
  -1.540718e+01  -2.137886e+01
   5.851783e+01  -4.964773e+01
   9.315149e+01  -3.845965e+01
   5.679159e+01   1.452164e+01
  -8.813133e+00   6.514988e+01
  -4.537868e+01   6.457966e+01
  -3.720794e+01   1.284721e+01
  -8.196914e+00  -3.794889e+01
   1.666156e+01  -3.878504e+01
   2.810527e+01   4.239766e+00
   2.278703e+01   4.030159e+01
   5.397923e-01   3.287384e+01
  -2.535767e+01  -2.091678e+00
  -3.277306e+01  -2.064442e+01
  -1.583166e+01  -5.067125e+00
   4.293777e+00   1.732761e+01
   4.943678e+00   1.092361e+01
  -7.374904e+00  -2.220277e+01
  -5.591922e+00  -4.304666e+01
   1.809266e+01  -2.249431e+01
   3.550168e+01   2.205525e+01
   1.622495e+01   4.459927e+01
  -2.846029e+01   2.193932e+01
  -5.020167e+01  -2.188759e+01
  -1.749091e+01  -4.429495e+01
   4.349194e+01  -2.858772e+01
   7.242300e+01   6.150422e+00
   3.959105e+01   3.189689e+01
  -2.114351e+01   3.665386e+01
  -4.939998e+01   2.464426e+01
  -2.374554e+01   6.343695e+00
   1.789722e+01  -5.099516e+00
   2.373022e+01   7.350274e-01
  -1.419596e+01   1.705707e+01
  -5.371688e+01   1.724486e+01
