
 $NMID
 id='ANONYMOUS ', fmtdat='(2E16.6)'
 volume=1.0
 tramp=1.0
 $END
   1.604887e+03  -7.820316e+01
   1.162472e+03   7.133248e+02
   1.584185e+02   1.040959e+03
  -5.481888e+02   7.685291e+02
  -5.374219e+02   2.367159e+02
  -1.229202e+02  -8.331397e+01
   1.469068e+02  -1.278181e+01
   6.590706e+01   2.328323e+02
  -1.764335e+02   3.104617e+02
  -3.166273e+02   9.420854e+01
  -2.537686e+02  -2.208376e+02
  -5.645674e+01  -3.293554e+02
   1.206423e+02  -1.280802e+02
   1.352609e+02   1.762800e+02
  -2.392378e+01   2.748124e+02
  -1.944494e+02   7.006521e+01
  -1.817599e+02  -2.320842e+02
   2.777823e+01  -3.442581e+02
   2.382202e+02  -1.861459e+02
   2.554188e+02   6.468709e+01
   9.619847e+01   1.865601e+02
  -4.481820e+01   1.376256e+02
  -2.209419e+01   5.673507e+01
   1.010871e+02   7.351724e+01
   1.318421e+02   1.592599e+02
  -2.525547e+01   1.790874e+02
  -2.430388e+02   6.590526e+01
  -2.955330e+02  -9.505021e+01
  -1.069871e+02  -1.614487e+02
   1.519742e+02  -8.288330e+01
   2.393816e+02   6.567320e+01
   9.277547e+01   1.721797e+02
  -1.267241e+02   1.732091e+02
  -2.258977e+02   7.222526e+01
  -1.668831e+02  -6.831469e+01
  -5.786534e+01  -1.458325e+02
  -9.901592e+00  -9.303277e+01
  -3.984727e+01   2.728897e+01
  -8.645309e+01   5.512591e+01
  -7.886205e+01  -7.896061e+01
   4.319536e+00  -2.347500e+02
   1.095472e+02  -2.122255e+02
   1.426898e+02  -1.406671e+01
   6.196685e+01   1.340830e+02
  -5.607285e+01   6.133357e+01
  -7.510755e+01  -1.292063e+02
   5.417191e+01  -1.897942e+02
   2.212874e+02  -3.207130e+01
   2.542733e+02   1.830476e+02
   9.331561e+01   2.516607e+02
  -1.428417e+02   1.419675e+02
  -2.650701e+02  -1.999694e+01
  -1.869008e+02  -1.118016e+02
   3.400182e+00  -1.096217e+02
   1.351440e+02  -5.830854e+01
   1.193123e+02  -9.626994e+00
   2.302663e+01   6.293424e+00
  -1.913242e+01  -8.820770e+00
   3.967585e+01  -1.960194e+01
   1.087603e+02   1.412550e+01
   7.168072e+01   8.714796e+01
  -6.949532e+01   1.347603e+02
  -1.848325e+02   8.752399e+01
  -1.533855e+02  -5.095455e+01
   8.053938e+00  -1.859786e+02
   1.639387e+02  -2.053794e+02
   1.985087e+02  -8.396635e+01
   1.204418e+02   8.625485e+01
   2.946888e+01   1.815913e+02
  -2.562373e+00   1.643236e+02
   2.382349e+00   1.026440e+02
  -2.032753e+01   7.243704e+01
  -8.569025e+01   6.586272e+01
  -1.394825e+02   2.168006e+01
  -1.243561e+02  -6.992518e+01
  -4.263554e+01  -1.338052e+02
   5.063633e+01  -9.515660e+01
   9.661262e+01   2.608948e+01
   6.658657e+01   1.281962e+02
  -2.683899e+01   1.271897e+02
  -1.272746e+02   2.930528e+01
  -1.594298e+02  -8.808849e+01
  -9.283655e+01  -1.499453e+02
   1.656949e+01  -1.382446e+02
   7.975378e+01  -9.063908e+01
   7.896800e+01  -5.513746e+01
   8.618163e+01  -4.250731e+01
   1.545901e+02  -1.906340e+01
   2.227043e+02   5.151135e+01
   1.737431e+02   1.575457e+02
  -1.094460e+01   2.340903e+02
  -2.026766e+02   2.147816e+02
  -2.530622e+02   9.555647e+01
  -1.478619e+02  -5.045299e+01
  -9.247947e+00  -1.276026e+02
   4.148600e+01  -9.969777e+01
  -4.002989e+00  -2.253899e+01
  -6.222649e+01   1.328306e+01
  -6.010584e+01  -2.184867e+01
  -1.113683e+00  -6.716816e+01
   5.360052e+01  -4.863465e+01
   4.933519e+01   2.423028e+01
  -1.402788e+01   6.137370e+01
  -8.090401e+01  -2.090775e+00
  -8.260255e+01  -1.218587e+02
   4.488706e+00  -1.828538e+02
   1.292273e+02  -1.170537e+02
   1.980134e+02   2.883712e+01
   1.533879e+02   1.417573e+02
   3.059128e+01   1.484747e+02
  -6.988807e+01   7.367006e+01
  -7.675906e+01   2.992350e+00
  -1.561082e+01  -3.922803e+00
   2.491423e+01   3.569501e+01
  -5.805672e+00   5.890362e+01
  -6.550665e+01   3.189932e+01
  -7.394892e+01  -1.461806e+01
  -1.339794e+01  -2.609568e+01
   4.443846e+01   1.063971e+01
   1.880917e+01   5.301371e+01
  -8.358628e+01   4.906396e+01
  -1.662050e+02  -1.228540e+01
  -1.392123e+02  -9.422760e+01
  -1.227941e+01  -1.424674e+02
   1.128922e+02  -1.234565e+02
   1.405856e+02  -5.012354e+01
   6.919160e+01   2.174625e+01
  -1.573127e+01   3.702751e+01
  -2.995377e+01  -3.769027e+00
   3.098218e+01  -3.985590e+01
   9.688664e+01  -1.547377e+01
   9.768696e+01   5.376908e+01
   3.004106e+01   9.665327e+01
  -4.486354e+01   6.993875e+01
  -6.348587e+01   8.496569e+00
  -2.093494e+01  -1.774510e+01
   2.539888e+01   1.558022e+01
   1.376839e+01   6.382119e+01
  -5.600959e+01   6.559967e+01
  -1.161372e+02   5.815365e+00
  -9.779267e+01  -7.285495e+01
  -5.968677e+00  -1.104531e+02
   8.075274e+01  -8.017381e+01
   9.014964e+01  -8.908535e+00
   2.912056e+01   4.642460e+01
  -3.085311e+01   4.873944e+01
  -3.471163e+01   1.309670e+01
   2.384801e+00  -1.283575e+01
   2.279145e+01  -3.067634e+00
  -4.649226e+00   1.734972e+01
  -5.153013e+01   3.727679e+00
  -6.115884e+01  -5.067683e+01
  -6.833796e+00  -9.849600e+01
   7.892756e+01  -8.455598e+01
   1.297270e+02  -4.770795e+00
   1.035096e+02   8.543431e+01
   2.150411e+01   1.211102e+02
  -5.129089e+01   8.518544e+01
  -6.797270e+01   1.892299e+01
  -4.106997e+01  -2.075535e+01
  -1.973931e+01  -1.401257e+01
  -3.039981e+01   8.848053e+00
  -4.897030e+01   4.824013e+00
  -3.394883e+01  -3.220251e+01
   2.030068e+01  -6.176878e+01
   7.004634e+01  -4.040806e+01
   6.270112e+01   2.513319e+01
  -9.164617e+00   7.455098e+01
  -9.239073e+01   5.114824e+01
  -1.138305e+02  -3.672413e+01
  -4.472701e+01  -1.167328e+02
   6.909240e+01  -1.194582e+02
   1.436991e+02  -4.357702e+01
   1.299286e+02   4.709681e+01
   5.276079e+01   8.837874e+01
  -2.030685e+01   7.274900e+01
  -4.548577e+01   4.322413e+01
  -3.479469e+01   3.873143e+01
  -2.874869e+01   5.266162e+01
  -4.761928e+01   4.530722e+01
  -7.219910e+01  -7.524584e+00
  -6.656889e+01  -8.169933e+01
  -1.627583e+01  -1.213394e+02
   5.253125e+01  -8.975790e+01
   9.037917e+01  -6.203542e+00
   6.737490e+01   6.812755e+01
   4.701177e+00   8.322245e+01
  -4.121701e+01   4.183202e+01
  -3.419073e+01  -1.005699e+01
   3.471452e+00  -3.102552e+01
   1.729303e+01  -1.964377e+01
  -1.335578e+01  -4.658670e+00
  -4.712320e+01  -7.743883e+00
  -2.862399e+01  -2.165771e+01
   4.112243e+01  -2.289455e+01
   9.709115e+01   4.382060e-01
   7.875630e+01   3.522323e+01
  -2.653370e+00   5.446367e+01
  -7.470771e+01   4.077464e+01
  -7.847772e+01   2.908873e+00
  -2.342505e+01  -2.846732e+01
   3.204271e+01  -2.575237e+01
   4.299368e+01   8.669928e+00
   1.339051e+01   4.106216e+01
  -2.236481e+01   3.821753e+01
  -3.835772e+01   3.059245e+00
  -3.475346e+01  -2.718685e+01
  -2.746253e+01  -2.331289e+01
  -2.880615e+01   3.921518e-03
  -3.490517e+01   1.836007e-01
  -2.676491e+01  -3.994791e+01
   1.157702e+01  -8.478455e+01
   6.818849e+01  -8.141118e+01
   1.007695e+02  -2.009494e+01
   7.346172e+01   5.066066e+01
   1.750473e+00   7.344155e+01
  -5.090077e+01   4.021050e+01
  -3.452685e+01  -4.120127e+00
   3.093865e+01  -1.209205e+01
   7.202767e+01   2.012799e+01
   3.828011e+01   5.605836e+01
  -4.428252e+01   5.903051e+01
  -1.006488e+02   2.438006e+01
  -8.325860e+01  -2.141166e+01
  -1.612110e+01  -4.494343e+01
   3.428422e+01  -3.169045e+01
   2.585823e+01   1.798107e+00
  -2.169097e+01   1.816748e+01
  -5.096853e+01  -8.540162e+00
  -2.494698e+01  -6.138690e+01
   3.770127e+01  -8.618928e+01
   8.210838e+01  -4.275033e+01
   7.001072e+01   4.513864e+01
   1.336304e+01   1.023102e+02
  -4.112859e+01   7.623427e+01
  -5.580509e+01  -5.630801e+00
  -3.002914e+01  -6.426355e+01
   7.881279e+00  -5.437174e+01
   2.859980e+01  -7.294365e+00
   2.347966e+01   1.676322e+01
   7.364399e+00   3.219542e+00
   3.239691e+00  -8.834193e+00
   1.844887e+01   1.253992e+01
   3.280934e+01   4.799277e+01
   1.690393e+01   5.483585e+01
  -3.120134e+01   2.275935e+01
  -7.309857e+01  -1.739253e+01
  -6.565474e+01  -3.485755e+01
  -1.076464e+01  -2.910171e+01
   4.148829e+01  -1.619935e+01
   4.594031e+01  -4.067113e+00
   1.073716e+01   7.034141e+00
  -1.728509e+01   1.202646e+01
  -1.117403e+01   5.925736e+00
   6.662668e+00  -3.070398e+00
  -1.167736e+00  -2.149498e+00
  -3.441745e+01   3.010900e+00
  -5.088069e+01  -9.559040e+00
  -1.590784e+01  -4.384863e+01
   5.344481e+01  -6.693244e+01
   1.009573e+02  -4.110189e+01
   8.612958e+01   2.707313e+01
   2.202421e+01   8.483466e+01
  -4.077200e+01   8.629293e+01
  -6.240235e+01   3.913469e+01
  -4.388857e+01  -8.227614e+00
  -1.525884e+01  -2.056647e+01
  -2.552184e+00  -8.086058e+00
  -8.244759e+00  -5.327990e+00
  -1.650508e+01  -2.655773e+01
  -1.024118e+01  -4.886346e+01
   1.442481e+01  -3.930253e+01
   4.210516e+01   5.663540e+00
   4.601268e+01   5.179293e+01
   1.210813e+01   5.911302e+01
  -3.834703e+01   2.087468e+01
  -5.924123e+01  -3.056881e+01
  -2.556559e+01  -5.483774e+01
   3.282538e+01  -3.800420e+01
   5.759499e+01   1.191179e+00
   2.702836e+01   3.206939e+01
  -1.783510e+01   3.597556e+01
  -2.291669e+01   1.655372e+01
   1.249948e+01  -5.122722e+00
   3.650931e+01  -6.779822e+00
   1.113231e+01   1.486615e+01
  -4.076404e+01   3.687639e+01
  -6.509021e+01   2.987825e+01
  -4.013743e+01  -8.919370e+00
   5.095435e+00  -4.667077e+01
   3.068807e+01  -4.670375e+01
   2.586951e+01  -9.149693e+00
   6.339528e+00   2.744035e+01
  -1.140011e+01   2.771395e+01
  -2.041151e+01  -3.094804e+00
  -1.702475e+01  -2.838908e+01
  -7.166039e-01  -2.297159e+01
   1.826806e+01   1.237303e+00
   2.355390e+01   1.373693e+01
   1.128787e+01   2.958877e+00
  -3.004810e+00  -1.191088e+01
  -3.421327e+00  -6.735889e+00
   5.044918e+00   1.643997e+01
   3.416378e+00   3.048025e+01
  -1.334053e+01   1.546552e+01
  -2.530441e+01  -1.616720e+01
  -1.137688e+01  -3.210890e+01
   2.039521e+01  -1.601778e+01
   3.605389e+01   1.526520e+01
   1.313808e+01   3.168124e+01
  -3.035912e+01   2.115581e+01
  -5.166553e+01  -3.285971e+00
  -2.887898e+01  -2.205789e+01
   1.448168e+01  -2.626988e+01
   3.494590e+01  -1.811504e+01
   1.650685e+01  -4.726846e+00
  -1.360325e+01   3.858245e+00
  -1.763524e+01  -6.484274e-01
   1.021567e+01  -1.324245e+01
   3.915099e+01  -1.381700e+01
