
 $NMID
 id='ANONYMOUS ', fmtdat='(2E16.6)'
 volume=1.0
 tramp=1.0
 $END
   2.869791e+03   5.179905e+01
   1.873299e+03   1.471630e+03
  -8.080953e+00   1.806698e+03
  -1.098294e+03   1.090890e+03
  -8.326246e+02   1.822190e+02
  -2.915716e+01  -1.672161e+02
   3.207735e+02   9.575160e+01
   4.047782e+01   4.858163e+02
  -4.019818e+02   5.094097e+02
  -5.710001e+02   7.433540e+01
  -3.786251e+02  -4.521917e+02
  -2.681985e+00  -5.739479e+02
   2.680184e+02  -1.622087e+02
   2.145551e+02   3.703619e+02
  -1.047684e+02   4.796884e+02
  -3.582632e+02   6.897016e+01
  -2.629326e+02  -4.311436e+02
   1.096836e+02  -5.511750e+02
   4.131871e+02  -2.443937e+02
   3.911294e+02   1.545557e+02
   1.168507e+02   3.194278e+02
  -1.081346e+02   2.174918e+02
  -6.324790e+01   6.872646e+01
   1.622639e+02   8.611070e+01
   2.451988e+02   2.482264e+02
  -1.602498e+01   3.232428e+02
  -4.211520e+02   1.428752e+02
  -5.372634e+02  -1.720321e+02
  -1.928373e+02  -3.256292e+02
   2.908990e+02  -1.771843e+02
   4.456562e+02   1.229793e+02
   1.640117e+02   3.252066e+02
  -2.366366e+02   3.088817e+02
  -4.044975e+02   1.103181e+02
  -2.839329e+02  -1.441550e+02
  -7.071375e+01  -2.756331e+02
   3.062454e+01  -1.611155e+02
  -3.528734e+01   8.336675e+01
  -1.640169e+02   1.414623e+02
  -1.822049e+02  -1.290982e+02
  -9.068385e+00  -4.410966e+02
   2.276637e+02  -3.893180e+02
   2.914906e+02   6.015840e+00
   1.029897e+02   2.829214e+02
  -1.377677e+02   1.225379e+02
  -1.534029e+02  -2.440373e+02
   1.043497e+02  -3.442477e+02
   3.947111e+02  -4.620781e+01
   4.263819e+02   3.331818e+02
   1.329216e+02   4.394345e+02
  -2.670646e+02   2.341006e+02
  -4.570296e+02  -6.061119e+01
  -2.976232e+02  -2.253513e+02
   4.451022e+01  -1.998609e+02
   2.554401e+02  -7.012684e+01
   1.896159e+02   2.733667e+01
   5.743341e+00   1.921487e+01
  -4.207923e+01  -4.420193e+01
   8.957676e+01  -5.071193e+01
   2.005500e+02   4.472371e+01
   1.078105e+02   1.711777e+02
  -1.350016e+02   2.160795e+02
  -3.028613e+02   1.199184e+02
  -2.356958e+02  -8.616325e+01
   1.872342e+01  -2.850617e+02
   2.641034e+02  -3.246487e+02
   3.295623e+02  -1.399981e+02
   2.066163e+02   1.479814e+02
   3.808999e+01   3.187996e+02
  -3.553520e+01   2.785342e+02
  -1.866210e+01   1.499471e+02
  -2.775829e+01   9.453507e+01
  -1.233599e+02   1.040805e+02
  -2.248400e+02   4.683638e+01
  -2.134148e+02  -1.111570e+02
  -7.577688e+01  -2.306480e+02
   8.875317e+01  -1.689934e+02
   1.691527e+02   4.051795e+01
   1.155030e+02   2.191128e+02
  -4.720527e+01   2.202558e+02
  -2.196284e+02   5.067216e+01
  -2.690164e+02  -1.574868e+02
  -1.439717e+02  -2.650735e+02
   4.865081e+01  -2.320677e+02
   1.471678e+02  -1.333316e+02
   1.288580e+02  -7.018331e+01
   1.317627e+02  -6.120926e+01
   2.481761e+02  -3.101700e+01
   3.639978e+02   8.928445e+01
   2.800603e+02   2.677450e+02
  -2.751311e+01   3.873373e+02
  -3.429500e+02   3.465485e+02
  -4.261396e+02   1.473083e+02
  -2.514657e+02  -9.389398e+01
  -1.198868e+01  -2.223730e+02
   8.604005e+01  -1.709297e+02
   9.072426e+00  -3.071950e+01
  -1.066125e+02   3.301227e+01
  -1.141451e+02  -3.768011e+01
  -2.837332e+00  -1.254492e+02
   1.056895e+02  -8.808007e+01
   9.418617e+01   4.973379e+01
  -2.895732e+01   1.143713e+02
  -1.427091e+02  -3.726221e+00
  -1.304065e+02  -2.093373e+02
   2.138884e+01  -3.015000e+02
   2.161262e+02  -1.823378e+02
   3.170663e+02   5.725208e+01
   2.452488e+02   2.368382e+02
   4.971598e+01   2.460044e+02
  -1.173989e+02   1.225677e+02
  -1.334161e+02   1.725850e+00
  -2.932032e+01  -1.309451e+01
   4.463472e+01   5.663138e+01
  -6.586978e+00   1.015520e+02
  -1.121371e+02   5.596530e+01
  -1.289265e+02  -2.762788e+01
  -2.517131e+01  -4.958690e+01
   7.413175e+01   1.350871e+01
   3.301593e+01   8.502288e+01
  -1.345018e+02   7.735351e+01
  -2.695527e+02  -2.361243e+01
  -2.269330e+02  -1.565604e+02
  -1.973483e+01  -2.354826e+02
   1.895938e+02  -2.042191e+02
   2.397740e+02  -7.983687e+01
   1.194609e+02   4.350970e+01
  -2.916663e+01   6.749542e+01
  -5.606789e+01  -6.969236e+00
   5.026533e+01  -7.010050e+01
   1.647452e+02  -2.495317e+01
   1.635532e+02   9.574877e+01
   4.536015e+01   1.664211e+02
  -8.092212e+01   1.172042e+02
  -1.102596e+02   1.163566e+01
  -3.859458e+01  -3.348514e+01
   3.937173e+01   2.043334e+01
   2.330393e+01   1.002816e+02
  -8.945909e+01   1.052760e+02
  -1.893410e+02   7.716607e+00
  -1.596410e+02  -1.233585e+02
  -5.292596e+00  -1.849701e+02
   1.404586e+02  -1.298044e+02
   1.530828e+02  -6.878097e+00
   4.605663e+01   8.351563e+01
  -5.610248e+01   8.189685e+01
  -6.149006e+01   1.989444e+01
   7.279506e-01  -2.262298e+01
   3.478698e+01  -7.219035e+00
  -7.436797e+00   2.410010e+01
  -7.987571e+01   2.173716e+00
  -9.434724e+01  -8.301379e+01
  -7.989641e+00  -1.582618e+02
   1.303495e+02  -1.354180e+02
   2.133354e+02  -4.629296e+00
   1.681668e+02   1.448288e+02
   2.897035e+01   2.027149e+02
  -9.177958e+01   1.389631e+02
  -1.141675e+02   2.581842e+01
  -6.468971e+01  -3.893200e+01
  -2.987078e+01  -2.535449e+01
  -4.972773e+01   1.244380e+01
  -7.877226e+01   5.605916e+00
  -5.112920e+01  -5.184869e+01
   3.588416e+01  -9.574764e+01
   1.114797e+02  -6.101355e+01
   9.717036e+01   4.092971e+01
  -1.671066e+01   1.175438e+02
  -1.489232e+02   7.954152e+01
  -1.838987e+02  -6.237623e+01
  -7.156789e+01  -1.925724e+02
   1.162344e+02  -1.954460e+02
   2.395076e+02  -6.713520e+01
   2.143888e+02   8.465770e+01
   8.374543e+01   1.509578e+02
  -3.793956e+01   1.207795e+02
  -7.902197e+01   6.898098e+01
  -6.164869e+01   6.077720e+01
  -5.191932e+01   8.330446e+01
  -8.079211e+01   7.020537e+01
  -1.169710e+02  -1.710872e+01
  -1.042307e+02  -1.378677e+02
  -2.049920e+01  -2.005691e+02
   9.146844e+01  -1.459371e+02
   1.508422e+02  -6.789053e+00
   1.096173e+02   1.153038e+02
   5.048873e+00   1.386248e+02
  -6.914889e+01   6.975270e+01
  -5.620827e+01  -1.480417e+01
   4.560865e+00  -4.892280e+01
   2.566009e+01  -3.226125e+01
  -2.315601e+01  -1.058063e+01
  -7.526238e+01  -1.611097e+01
  -4.465157e+01  -3.628359e+01
   6.634612e+01  -3.528510e+01
   1.560483e+02   3.806117e+00
   1.279798e+02   5.935542e+01
  -3.007806e+00   8.837828e+01
  -1.217632e+02   6.396293e+01
  -1.295557e+02   2.213504e+00
  -3.856831e+01  -4.624773e+01
   5.356480e+01  -3.894759e+01
   6.945126e+01   1.671306e+01
   1.746546e+01   6.597115e+01
  -4.042207e+01   5.875966e+01
  -6.148907e+01   2.199789e+00
  -5.235111e+01  -4.531829e+01
  -4.277968e+01  -3.908992e+01
  -4.857165e+01  -2.262166e+00
  -5.758139e+01  -1.704752e+00
  -3.988947e+01  -6.516970e+01
   2.460624e+01  -1.362277e+02
   1.139610e+02  -1.292650e+02
   1.626090e+02  -2.847382e+01
   1.161619e+02   8.579864e+01
   2.777690e-01   1.192914e+02
  -8.358319e+01   6.177964e+01
  -5.546879e+01  -9.532114e+00
   5.163531e+01  -1.782984e+01
   1.177303e+02   3.795338e+01
   6.076762e+01   9.491266e+01
  -7.567052e+01   9.538953e+01
  -1.677796e+02   3.593536e+01
  -1.375181e+02  -3.882609e+01
  -2.532349e+01  -7.566104e+01
   5.811990e+01  -5.245832e+01
   4.317913e+01   2.507725e+00
  -3.595505e+01   2.771232e+01
  -8.233407e+01  -1.750596e+01
  -3.543498e+01  -1.022668e+02
   6.961249e+01  -1.377109e+02
   1.387687e+02  -6.249916e+01
   1.114020e+02   8.037770e+01
   1.398253e+01   1.694006e+02
  -7.314543e+01   1.232374e+02
  -9.184693e+01  -1.148420e+01
  -4.704899e+01  -1.072095e+02
   1.381978e+01  -9.063633e+01
   4.652552e+01  -1.206997e+01
   3.918584e+01   2.921118e+01
   1.388080e+01   6.767601e+00
   5.644989e+00  -1.518120e+01
   2.783289e+01   1.942607e+01
   5.067656e+01   8.018541e+01
   2.642759e+01   9.287389e+01
  -5.073425e+01   3.694409e+01
  -1.193588e+02  -3.364025e+01
  -1.072141e+02  -6.212294e+01
  -1.605351e+01  -4.753123e+01
   7.045499e+01  -2.261523e+01
   7.626599e+01  -4.220192e+00
   1.606574e+01   1.065405e+01
  -3.012360e+01   1.855344e+01
  -1.793849e+01   1.074996e+01
   1.240795e+01  -3.515790e+00
  -2.138017e+00  -4.647129e+00
  -5.797510e+01   1.035773e+00
  -8.232418e+01  -1.917132e+01
  -2.041642e+01  -7.155321e+01
   9.397033e+01  -1.045574e+02
   1.667440e+02  -5.950600e+01
   1.361776e+02   5.078788e+01
   2.908742e+01   1.404971e+02
  -7.139618e+01   1.378290e+02
  -1.035055e+02   5.884685e+01
  -7.123017e+01  -1.676667e+01
  -2.360270e+01  -3.392030e+01
  -2.816553e+00  -1.193658e+01
  -1.273077e+01  -7.912349e+00
  -2.638995e+01  -4.400355e+01
  -1.501905e+01  -8.090495e+01
   2.603978e+01  -6.350273e+01
   6.897982e+01   1.296152e+01
   7.091716e+01   8.906355e+01
   1.368445e+01   9.719861e+01
  -6.516291e+01   2.922546e+01
  -9.361721e+01  -5.603360e+01
  -3.652569e+01  -9.087457e+01
   5.600641e+01  -5.795936e+01
   9.253001e+01   6.034664e+00
   4.139917e+01   5.196994e+01
  -3.027127e+01   5.568677e+01
  -3.645872e+01   2.620767e+01
   2.214613e+01  -5.672015e+00
   6.028086e+01  -8.207156e+00
   1.669839e+01   2.426069e+01
  -6.932149e+01   5.791709e+01
  -1.077487e+02   4.660318e+01
  -6.393639e+01  -1.534055e+01
   1.162094e+01  -7.547446e+01
   5.173326e+01  -7.415522e+01
   4.050047e+01  -1.239300e+01
   7.017218e+00   4.569198e+01
  -2.045391e+01   4.325807e+01
  -3.245411e+01  -8.165681e+00
  -2.560271e+01  -4.745789e+01
   1.666237e-01  -3.589978e+01
   2.948221e+01   3.974200e+00
   3.755308e+01   2.279848e+01
   1.856966e+01   4.673778e+00
  -3.936410e+00  -1.811726e+01
  -6.184055e+00  -8.655339e+00
   4.443048e+00   2.743558e+01
   8.430714e-01   4.703260e+01
  -2.284276e+01   2.079034e+01
  -3.713429e+01  -2.948257e+01
  -1.308034e+01  -5.232038e+01
   3.497263e+01  -2.336871e+01
   5.611066e+01   2.820197e+01
   1.807007e+01   5.291192e+01
  -5.042202e+01   3.239396e+01
  -8.301513e+01  -9.232079e+00
  -4.538514e+01  -3.799428e+01
   2.502831e+01  -4.096160e+01
   5.766669e+01  -2.591161e+01
   2.606681e+01  -6.600357e+00
  -2.406317e+01   3.424287e+00
  -2.900211e+01  -4.676310e+00
   1.979354e+01  -2.172651e+01
   6.782668e+01  -1.870941e+01
