
 $NMID
 id='ANONYMOUS ', fmtdat='(2E16.6)'
 volume=1.0
 tramp=1.0
 $END
   3.064600e+03   3.738537e+01
   2.005971e+03   1.558324e+03
   1.029237e+00   1.924283e+03
  -1.161787e+03   1.167044e+03
  -8.812025e+02   1.998515e+02
  -2.872950e+01  -1.744998e+02
   3.419687e+02   1.033798e+02
   4.395693e+01   5.185834e+02
  -4.264832e+02   5.449085e+02
  -6.079238e+02   8.199715e+01
  -4.056039e+02  -4.799633e+02
  -5.786831e+00  -6.111721e+02
   2.847405e+02  -1.730843e+02
   2.304282e+02   3.947475e+02
  -1.092616e+02   5.120717e+02
  -3.814569e+02   7.519774e+01
  -2.829127e+02  -4.579110e+02
   1.127373e+02  -5.876905e+02
   4.377433e+02  -2.631714e+02
   4.173554e+02   1.615163e+02
   1.266981e+02   3.391782e+02
  -1.138336e+02   2.322276e+02
  -6.677231e+01   7.284898e+01
   1.748753e+02   8.966960e+01
   2.650352e+02   2.631985e+02
  -1.430761e+01   3.464828e+02
  -4.496207e+02   1.566380e+02
  -5.758694e+02  -1.802054e+02
  -2.077883e+02  -3.474298e+02
   3.107377e+02  -1.916740e+02
   4.776215e+02   1.286960e+02
   1.773563e+02   3.467768e+02
  -2.508944e+02   3.317933e+02
  -4.312816e+02   1.206269e+02
  -3.039200e+02  -1.520802e+02
  -7.675367e+01  -2.937059e+02
   3.225878e+01  -1.713012e+02
  -3.729524e+01   9.082734e+01
  -1.754833e+02   1.529984e+02
  -1.967724e+02  -1.374349e+02
  -1.276438e+01  -4.723458e+02
   2.413219e+02  -4.174176e+02
   3.116361e+02   5.643185e+00
   1.110945e+02   3.023203e+02
  -1.473442e+02   1.314056e+02
  -1.658698e+02  -2.604720e+02
   1.092670e+02  -3.687853e+02
   4.214438e+02  -5.216920e+01
   4.577768e+02   3.525525e+02
   1.450535e+02   4.679323e+02
  -2.835764e+02   2.516950e+02
  -4.882825e+02  -6.145547e+01
  -3.187031e+02  -2.383498e+02
   4.685906e+01  -2.132184e+02
   2.720677e+02  -7.597759e+01
   2.015223e+02   2.804024e+01
   5.492848e+00   1.982254e+01
  -4.480162e+01  -4.762132e+01
   9.608799e+01  -5.472873e+01
   2.144327e+02   4.680864e+01
   1.158473e+02   1.820319e+02
  -1.423626e+02   2.313787e+02
  -3.216387e+02   1.304849e+02
  -2.521192e+02  -8.941002e+01
   1.688434e+01  -3.040386e+02
   2.785141e+02  -3.490426e+02
   3.506895e+02  -1.525554e+02
   2.220247e+02   1.563932e+02
   4.298015e+01   3.401682e+02
  -3.610874e+01   2.971208e+02
  -1.846056e+01   1.593705e+02
  -2.802572e+01   1.008897e+02
  -1.303075e+02   1.126617e+02
  -2.398366e+02   5.245485e+01
  -2.291935e+02  -1.168315e+02
  -8.292921e+01  -2.459091e+02
   9.359176e+01  -1.813827e+02
   1.812535e+02   4.188235e+01
   1.253039e+02   2.331825e+02
  -4.866315e+01   2.357625e+02
  -2.342942e+02   5.596634e+01
  -2.885499e+02  -1.660322e+02
  -1.556064e+02  -2.818117e+02
   5.027716e+01  -2.478101e+02
   1.557907e+02  -1.430640e+02
   1.363987e+02  -7.580011e+01
   1.397139e+02  -6.668970e+01
   2.645869e+02  -3.560639e+01
   3.893598e+02   9.193255e+01
   3.012492e+02   2.832735e+02
  -2.596130e+01   4.136609e+02
  -3.629429e+02   3.729108e+02
  -4.535781e+02   1.608810e+02
  -2.692796e+02  -9.829909e+01
  -1.452477e+01  -2.374878e+02
   9.076753e+01  -1.830120e+02
   9.530218e+00  -3.237657e+01
  -1.138886e+02   3.635670e+01
  -1.224799e+02  -3.957427e+01
  -3.855715e+00  -1.342315e+02
   1.125537e+02  -9.475904e+01
   1.010356e+02   5.272865e+01
  -3.028850e+01   1.225008e+02
  -1.525916e+02  -2.880390e+00
  -1.408962e+02  -2.223288e+02
   2.027569e+01  -3.218045e+02
   2.288702e+02  -1.964578e+02
   3.386947e+02   5.811055e+01
   2.638852e+02   2.504742e+02
   5.534988e+01   2.622321e+02
  -1.242829e+02   1.319489e+02
  -1.424981e+02   2.861585e+00
  -3.133284e+01  -1.392097e+01
   4.831502e+01   6.010285e+01
  -6.137914e+00   1.086602e+02
  -1.193814e+02   6.077182e+01
  -1.379737e+02  -2.853509e+01
  -2.723658e+01  -5.291415e+01
   7.940443e+01   1.367726e+01
   3.614921e+01   9.048740e+01
  -1.427516e+02   8.387836e+01
  -2.878933e+02  -2.263927e+01
  -2.437167e+02  -1.650129e+02
  -2.325558e+01  -2.512711e+02
   2.006238e+02  -2.197755e+02
   2.553706e+02  -8.724750e+01
   1.278812e+02   4.561919e+01
  -3.073431e+01   7.238659e+01
  -6.004215e+01  -7.097990e+00
   5.311322e+01  -7.542907e+01
   1.757668e+02  -2.805386e+01
   1.754145e+02   1.009064e+02
   4.974227e+01   1.773131e+02
  -8.549047e+01   1.257747e+02
  -1.176751e+02   1.327408e+01
  -4.149656e+01  -3.557584e+01
   4.231910e+01   2.129032e+01
   2.595932e+01   1.067896e+02
  -9.441595e+01   1.132747e+02
  -2.020271e+02   1.003277e+01
  -1.715161e+02  -1.302519e+02
  -7.228459e+00  -1.974083e+02
   1.488477e+02  -1.396989e+02
   1.632909e+02  -8.522405e+00
   4.975270e+01   8.883054e+01
  -5.927698e+01   8.787598e+01
  -6.551184e+01   2.168200e+01
   5.423662e-01  -2.427187e+01
   3.708152e+01  -8.144694e+00
  -7.598529e+00   2.572671e+01
  -8.508021e+01   3.122924e+00
  -1.014184e+02  -8.758915e+01
  -1.005690e+01  -1.687647e+02
   1.378279e+02  -1.457463e+02
   2.276735e+02  -6.895690e+00
   1.807865e+02   1.530898e+02
   3.263842e+01   2.160898e+02
  -9.680092e+01   1.490421e+02
  -1.215751e+02   2.848704e+01
  -6.926890e+01  -4.097899e+01
  -3.202872e+01  -2.676961e+01
  -5.292370e+01   1.372387e+01
  -8.396836e+01   6.729821e+00
  -5.502470e+01  -5.474274e+01
   3.731388e+01  -1.024057e+02
   1.182560e+02  -6.619322e+01
   1.040432e+02   4.263122e+01
  -1.663839e+01   1.255347e+02
  -1.580978e+02   8.632909e+01
  -1.968429e+02  -6.482434e+01
  -7.818406e+01  -2.049137e+02
   1.222940e+02  -2.097080e+02
   2.550569e+02  -7.378132e+01
   2.295540e+02   8.852683e+01
   9.064952e+01   1.604306e+02
  -3.948560e+01   1.292326e+02
  -8.375426e+01   7.425776e+01
  -6.526402e+01   6.531351e+01
  -5.465697e+01   8.926371e+01
  -8.554523e+01   7.558444e+01
  -1.249105e+02  -1.720919e+01
  -1.124115e+02  -1.461647e+02
  -2.363840e+01  -2.138347e+02
   9.634540e+01  -1.565348e+02
   1.609597e+02  -8.553119e+00
   1.180322e+02   1.221177e+02
   6.604573e+00   1.479405e+02
  -7.322822e+01   7.511729e+01
  -6.020159e+01  -1.524475e+01
   4.334497e+00  -5.227210e+01
   2.704246e+01  -3.475928e+01
  -2.477460e+01  -1.116380e+01
  -8.039028e+01  -1.650011e+01
  -4.795903e+01  -3.827383e+01
   7.042783e+01  -3.829106e+01
   1.665182e+02   2.558794e+00
   1.371513e+02   6.216013e+01
  -2.322949e+00   9.440991e+01
  -1.293164e+02   6.941761e+01
  -1.382625e+02   3.525298e+00
  -4.163430e+01  -4.900973e+01
   5.675953e+01  -4.200799e+01
   7.423225e+01   1.720527e+01
   1.922595e+01   7.013544e+01
  -4.257337e+01   6.295682e+01
  -6.553614e+01   2.916107e+00
  -5.622285e+01  -4.778757e+01
  -4.598530e+01  -4.129059e+01
  -5.185121e+01  -2.029711e+00
  -6.145405e+01  -1.319040e+00
  -4.314473e+01  -6.909812e+01
   2.501272e+01  -1.454957e+02
   1.203855e+02  -1.389714e+02
   1.731914e+02  -3.193082e+01
   1.246971e+02   9.044910e+01
   1.410671e+00   1.272829e+02
  -8.855535e+01   6.667838e+01
  -5.922548e+01  -9.673546e+00
   5.493012e+01  -1.946837e+01
   1.259343e+02   3.948812e+01
   6.567349e+01   1.007697e+02
  -7.991132e+01   1.024672e+02
  -1.787526e+02   3.981999e+01
  -1.471275e+02  -4.024333e+01
  -2.768789e+01  -8.055424e+01
   6.160615e+01  -5.652561e+01
   4.615348e+01   2.278470e+00
  -3.808211e+01   2.988272e+01
  -8.796633e+01  -1.794332e+01
  -3.866472e+01  -1.087496e+02
   7.307342e+01  -1.474373e+02
   1.474605e+02  -6.780588e+01
   1.194887e+02   8.479675e+01
   1.635062e+01   1.805736e+02
  -7.699081e+01   1.321040e+02
  -9.812738e+01  -1.143966e+01
  -5.116807e+01  -1.140036e+02
   1.394831e+01  -9.691236e+01
   4.955815e+01  -1.334122e+01
   4.208734e+01   3.086685e+01
   1.488169e+01   7.167312e+00
   5.906772e+00  -1.626784e+01
   2.988630e+01   2.039528e+01
   5.477572e+01   8.508456e+01
   2.900209e+01   9.893658e+01
  -5.380226e+01   3.993266e+01
  -1.276255e+02  -3.486736e+01
  -1.149339e+02  -6.539350e+01
  -1.756766e+01  -5.055458e+01
   7.495850e+01  -2.468210e+01
   8.134787e+01  -5.161747e+00
   1.724864e+01   1.116780e+01
  -3.199167e+01   2.002997e+01
  -1.907025e+01   1.167765e+01
   1.320452e+01  -3.806194e+00
  -2.302946e+00  -4.968190e+00
  -6.182299e+01   1.545407e+00
  -8.797424e+01  -1.972486e+01
  -2.238239e+01  -7.605689e+01
   9.932945e+01  -1.122768e+02
   1.772971e+02  -6.494426e+01
   1.456295e+02   5.292601e+01
   3.222704e+01   1.495868e+02
  -7.491473e+01   1.476612e+02
  -1.098455e+02   6.368773e+01
  -7.611839e+01  -1.726798e+01
  -2.549251e+01  -3.596162e+01
  -3.128515e+00  -1.265921e+01
  -1.367435e+01  -8.292050e+00
  -2.857179e+01  -4.672496e+01
  -1.675270e+01  -8.621251e+01
   2.722087e+01  -6.797414e+01
   7.368198e+01   1.325090e+01
   7.637884e+01   9.438568e+01
   1.541333e+01   1.035024e+02
  -6.921588e+01   3.167361e+01
  -1.002768e+02  -5.896105e+01
  -3.973888e+01  -9.656512e+01
   5.918033e+01  -6.228150e+01
   9.871678e+01   5.592029e+00
   4.465842e+01   5.501175e+01
  -3.172847e+01   5.965909e+01
  -3.863476e+01   2.834017e+01
   2.355455e+01  -6.174243e+00
   6.422069e+01  -9.271307e+00
   1.803397e+01   2.570401e+01
  -7.344878e+01   6.238923e+01
  -1.145633e+02   5.071402e+01
  -6.836006e+01  -1.573799e+01
   1.172518e+01  -8.059556e+01
   5.449798e+01  -7.958924e+01
   4.302455e+01  -1.361699e+01
   7.846239e+00   4.864839e+01
  -2.140611e+01   4.629758e+01
  -3.463336e+01  -8.442513e+00
  -2.772207e+01  -5.038795e+01
  -1.827655e-01  -3.826635e+01
   3.145927e+01   3.987606e+00
   4.028672e+01   2.396403e+01
   1.987757e+01   4.812038e+00
  -4.392334e+00  -1.925572e+01
  -6.756093e+00  -9.152625e+00
   4.921214e+00   2.916436e+01
   1.332495e+00   5.003566e+01
  -2.409556e+01   2.230604e+01
  -3.977371e+01  -3.107255e+01
  -1.436786e+01  -5.559368e+01
   3.707518e+01  -2.519150e+01
   6.004358e+01   2.956249e+01
   1.970796e+01   5.625491e+01
  -5.348378e+01   3.500855e+01
  -8.859763e+01  -9.097275e+00
  -4.873790e+01  -4.012107e+01
   2.630506e+01  -4.390241e+01
   6.123800e+01  -2.813496e+01
   2.772214e+01  -7.298915e+00
  -2.562043e+01   3.786528e+00
  -3.092179e+01  -4.787040e+00
   2.098495e+01  -2.331005e+01
   7.221180e+01  -2.045644e+01
