
 $NMID
 id='ANONYMOUS ', fmtdat='(2E16.6)'
 volume=1.0
 tramp=1.0
 $END
  -1.263809e+02   3.855027e+01
  -1.208362e+02  -2.523779e+01
  -5.457314e+01  -8.734977e+01
   2.348363e+01  -9.865914e+01
   5.623876e+01  -5.225185e+01
   3.378614e+01   2.762459e+00
  -3.829139e+00   1.622292e+01
  -1.573818e+01  -9.178542e+00
   1.432946e+00  -3.089659e+01
   2.363453e+01  -2.083836e+01
   3.041403e+01   8.743997e+00
   1.851441e+01   2.728578e+01
  -2.100809e+00   1.886595e+01
  -1.481931e+01  -6.334761e+00
  -7.308126e+00  -2.314771e+01
   1.351466e+01  -1.354692e+01
   2.332608e+01   1.519386e+01
   7.389351e+00   3.524258e+01
  -1.911560e+01   2.712494e+01
  -2.862011e+01   1.363063e+00
  -1.556603e+01  -1.582047e+01
  -7.809859e-01  -1.460277e+01
  -1.651870e+00  -8.574829e+00
  -1.095955e+01  -1.084650e+01
  -1.035497e+01  -1.655671e+01
   4.685132e+00  -1.416325e+01
   2.078768e+01  -3.504357e+00
   2.292973e+01   5.778844e+00
   9.003061e+00   7.707952e+00
  -9.425871e+00   3.717839e+00
  -1.719428e+01  -3.352118e+00
  -8.450272e+00  -1.105357e+01
   7.915708e+00  -1.451799e+01
   1.743426e+01  -9.286559e+00
   1.533494e+01   1.747692e+00
   9.372810e+00   9.293301e+00
   7.305299e+00   7.761798e+00
   7.660602e+00   1.723873e+00
   5.633291e+00   5.181789e-01
   1.649919e+00   7.571413e+00
  -1.282278e+00   1.614842e+01
  -3.696755e+00   1.610027e+01
  -6.620365e+00   5.565106e+00
  -6.401448e+00  -4.950460e+00
  -4.507647e-01  -3.398226e+00
   4.233440e+00   8.368346e+00
  -2.397011e+00   1.475610e+01
  -1.751100e+01   5.119222e+00
  -2.469771e+01  -1.234739e+01
  -1.303257e+01  -2.067798e+01
   9.071412e+00  -1.445537e+01
   2.318650e+01  -2.988511e+00
   1.988497e+01   4.566240e+00
   5.061435e+00   8.076122e+00
  -8.567212e+00   9.527630e+00
  -1.216786e+01   7.047111e+00
  -6.221916e+00   7.862708e-01
   4.521072e-01  -2.886966e+00
  -8.211408e-01  -2.638254e-01
  -7.882901e+00   1.839419e+00
  -8.620157e+00  -4.550288e+00
   3.358168e+00  -1.413205e+01
   1.749377e+01  -1.262899e+01
   1.729219e+01   3.660196e+00
   1.123387e+00   2.071773e+01
  -1.534562e+01   2.265233e+01
  -1.845492e+01   9.127553e+00
  -1.116429e+01  -6.956602e+00
  -5.154841e+00  -1.495897e+01
  -4.587811e+00  -1.483798e+01
  -3.747866e+00  -1.221114e+01
   2.122910e+00  -1.025830e+01
   1.010680e+01  -7.547272e+00
   1.407670e+01  -1.591033e+00
   1.145184e+01   6.580590e+00
   4.207439e+00   1.149071e+01
  -3.740261e+00   7.997739e+00
  -8.307704e+00  -2.304819e+00
  -6.476462e+00  -1.108785e+01
   1.520395e+00  -1.116233e+01
   1.095393e+01  -3.265509e+00
   1.515414e+01   6.085856e+00
   1.093781e+01   1.171001e+01
   1.852956e+00   1.287557e+01
  -5.156979e+00   1.118321e+01
  -7.382231e+00   8.395946e+00
  -9.331523e+00   5.790580e+00
  -1.569392e+01   2.863530e+00
  -2.226311e+01  -3.093143e+00
  -1.853825e+01  -1.319542e+01
  -1.517681e+00  -2.252988e+01
   1.721662e+01  -2.292834e+01
   2.278950e+01  -1.200981e+01
   1.362537e+01   2.707609e+00
   2.009374e+00   1.080516e+01
  -1.263668e+00   9.009388e+00
   2.499939e+00   2.880598e+00
   5.506762e+00  -2.636264e-01
   4.081109e+00   1.624466e+00
   3.150164e-01   4.682489e+00
  -2.792157e+00   3.969856e+00
  -3.284221e+00  -9.010379e-01
   3.322273e-01  -4.367224e+00
   6.694601e+00  -2.729964e-01
   9.413666e+00   1.023623e+01
   2.401959e+00   1.767264e+01
  -1.138319e+01   1.342712e+01
  -2.047916e+01  -3.499352e-01
  -1.665028e+01  -1.238679e+01
  -3.942334e+00  -1.404904e+01
   6.064214e+00  -7.411691e+00
   6.552741e+00  -1.116133e+00
   1.058846e+00  -5.180871e-01
  -2.199015e+00  -3.601837e+00
   6.000439e-01  -5.207357e+00
   5.659309e+00  -3.046833e+00
   6.367155e+00   5.683883e-01
   1.040449e+00   1.649302e+00
  -4.283039e+00  -1.267822e+00
  -1.905277e+00  -5.329171e+00
   8.196606e+00  -5.713549e+00
   1.671739e+01  -2.498833e-01
   1.437265e+01   8.129323e+00
   2.108745e+00   1.365494e+01
  -9.768736e+00   1.254234e+01
  -1.231591e+01   6.011930e+00
  -6.129716e+00  -7.674428e-01
   9.327570e-01  -2.866871e+00
   2.092540e+00   1.244227e-01
  -2.885105e+00   3.508352e+00
  -8.671305e+00   2.127554e+00
  -9.444983e+00  -3.753491e+00
  -3.975280e+00  -8.287266e+00
   3.072608e+00  -6.777649e+00
   5.395440e+00  -1.472302e+00
   1.608470e+00   1.089208e+00
  -2.891885e+00  -1.995906e+00
  -1.668544e+00  -6.717332e+00
   5.375530e+00  -7.065740e+00
   1.147438e+01  -1.506152e+00
   1.009642e+01   6.060371e+00
   1.793818e+00   1.028901e+01
  -6.421942e+00   8.514116e+00
  -8.090667e+00   2.352984e+00
  -3.309218e+00  -3.448165e+00
   2.054367e+00  -4.691714e+00
   2.747695e+00  -1.667638e+00
  -5.584629e-01   1.093006e+00
  -2.546860e+00   1.804250e-01
   3.518016e-01  -2.269136e+00
   5.581503e+00  -1.189852e+00
   7.038996e+00   4.576404e+00
   1.682907e+00   9.999101e+00
  -7.091328e+00   9.163098e+00
  -1.259366e+01   1.648224e+00
  -1.083416e+01  -7.149767e+00
  -3.602682e+00  -1.119677e+01
   3.554347e+00  -8.711598e+00
   6.185224e+00  -2.900156e+00
   4.456233e+00   1.164082e+00
   2.317609e+00   9.462084e-01
   2.930475e+00  -1.308504e+00
   4.948318e+00  -1.063563e+00
   4.090654e+00   3.046006e+00
  -1.265046e+00   6.851336e+00
  -7.013059e+00   5.053311e+00
  -6.999593e+00  -2.089574e+00
   2.134190e-01  -7.937345e+00
   9.042704e+00  -6.123900e+00
   1.171075e+01   2.626968e+00
   5.306656e+00   1.101706e+01
  -5.679858e+00   1.216723e+01
  -1.331733e+01   5.660016e+00
  -1.281748e+01  -2.912268e+00
  -6.021097e+00  -7.579048e+00
   9.803861e-01  -7.045694e+00
   3.635973e+00  -4.725662e+00
   2.591675e+00  -4.323438e+00
   1.890057e+00  -5.690196e+00
   4.035878e+00  -5.223240e+00
   7.274125e+00  -2.996088e-01
   7.612102e+00   7.094941e+00
   3.091588e+00   1.156427e+01
  -3.936429e+00   9.243952e+00
  -8.475928e+00   1.563169e+00
  -7.106023e+00  -5.818537e+00
  -1.285155e+00  -7.847012e+00
   3.597715e+00  -4.198766e+00
   3.402749e+00   9.881037e-01
  -2.825003e-01   3.309675e+00
  -1.910382e+00   2.037546e+00
   1.166845e+00   1.691605e-02
   4.897714e+00   3.953912e-02
   3.216548e+00   1.841994e+00
  -4.014784e+00   2.778900e+00
  -9.895026e+00   9.452375e-01
  -8.068980e+00  -2.770181e+00
   9.138673e-02  -5.476137e+00
   7.151959e+00  -4.813061e+00
   7.553256e+00  -1.074274e+00
   2.451448e+00   2.702274e+00
  -2.841011e+00   3.120331e+00
  -4.384051e+00  -2.738425e-01
  -2.125684e+00  -4.089662e+00
   1.475420e+00  -4.347566e+00
   3.901566e+00  -8.891259e-01
   4.142701e+00   2.338898e+00
   3.108251e+00   1.999993e+00
   2.646203e+00  -4.499912e-01
   3.367152e+00  -4.769817e-01
   3.363463e+00   3.774495e+00
   9.147023e-02   8.699224e+00
  -5.901436e+00   8.907158e+00
  -1.005833e+01   3.149772e+00
  -8.027142e+00  -4.159593e+00
  -9.446798e-01  -7.315363e+00
   4.709347e+00  -4.765037e+00
   3.537454e+00  -1.558722e-01
  -2.836905e+00   1.616339e+00
  -7.203895e+00  -9.198172e-01
  -4.325688e+00  -4.881039e+00
   3.595515e+00  -6.213683e+00
   9.356727e+00  -3.488262e+00
   8.148449e+00   1.137153e+00
   1.980928e+00   4.057864e+00
  -2.934402e+00   3.243440e+00
  -2.451041e+00  -7.781274e-02
   1.957285e+00  -2.168137e+00
   5.183938e+00   8.699158e-02
   3.488517e+00   5.638518e+00
  -2.187368e+00   9.086408e+00
  -7.237698e+00   5.610739e+00
  -7.525717e+00  -3.193050e+00
  -2.906293e+00  -9.703892e+00
   2.851847e+00  -7.912419e+00
   5.450317e+00  -6.442621e-02
   3.596034e+00   5.877990e+00
  -3.385801e-01   5.188881e+00
  -2.805432e+00   8.768944e-01
  -2.309489e+00  -1.290078e+00
  -5.100132e-01  -9.524232e-02
  -2.261038e-01   7.976184e-01
  -2.190050e+00  -1.245943e+00
  -3.886992e+00  -4.304399e+00
  -2.135028e+00  -4.898780e+00
   2.971201e+00  -2.468853e+00
   7.307204e+00   6.231913e-01
   6.676808e+00   2.399783e+00
   1.430886e+00   2.802371e+00
  -3.647571e+00   2.317188e+00
  -4.349794e+00   9.766202e-01
  -1.290574e+00  -7.257398e-01
   1.394476e+00  -1.419543e+00
   1.112033e+00  -5.223851e-01
  -4.428628e-01   5.223904e-01
   9.420625e-02   6.546563e-02
   3.144673e+00  -9.803028e-01
   5.164900e+00   1.887209e-01
   2.530249e+00   4.215962e+00
  -4.020276e+00   7.497474e+00
  -9.457420e+00   5.614233e+00
  -9.201069e+00  -1.312169e+00
  -3.538366e+00  -7.973739e+00
   2.890785e+00  -9.137880e+00
   5.705535e+00  -4.869084e+00
   4.426547e+00   1.299964e-01
   1.795333e+00   1.891699e+00
   4.755836e-01   9.342629e-01
   9.423728e-01   5.704610e-01
   1.860300e+00   2.442929e+00
   1.516553e+00   4.621328e+00
  -8.744507e-01   4.044853e+00
  -4.150583e+00   1.566531e-01
  -5.365790e+00  -4.261346e+00
  -2.309614e+00  -5.656268e+00
   3.323545e+00  -2.888074e+00
   6.399555e+00   1.885993e+00
   3.503182e+00   5.074265e+00
  -2.694287e+00   4.453877e+00
  -5.868993e+00   7.487239e-01
  -3.209174e+00  -3.040935e+00
   1.385874e+00  -4.039081e+00
   2.279756e+00  -1.883333e+00
  -9.756976e-01   9.081225e-01
  -3.471247e+00   1.245057e+00
  -1.374930e+00  -1.396121e+00
   3.451327e+00  -4.165888e+00
   6.060200e+00  -3.614952e+00
   4.217638e+00   5.324673e-01
   1.942684e-01   4.719696e+00
  -2.536961e+00   5.057906e+00
  -2.705010e+00   1.387205e+00
  -1.203487e+00  -2.547733e+00
   7.198021e-01  -3.047887e+00
   2.129927e+00  -2.090758e-01
   2.123454e+00   2.555090e+00
   3.849508e-01   2.459758e+00
  -1.846954e+00   2.333001e-01
  -2.523272e+00  -1.164156e+00
  -1.117721e+00  -2.438680e-01
   4.967743e-01   1.319581e+00
   3.169703e-01   9.387470e-01
  -1.066894e+00  -1.502265e+00
  -1.124931e+00  -3.308554e+00
   1.070804e+00  -2.158766e+00
   3.104123e+00   1.040494e+00
   2.003195e+00   3.091132e+00
  -1.697549e+00   2.045413e+00
  -3.983794e+00  -8.689543e-01
  -1.906043e+00  -2.888657e+00
   2.756214e+00  -2.539490e+00
   5.275938e+00  -4.769088e-01
   3.199572e+00   1.750440e+00
  -1.090329e+00   2.918585e+00
  -3.251062e+00   2.456281e+00
  -1.707524e+00   7.112105e-01
   1.077398e+00  -8.119742e-01
   1.703860e+00  -4.912622e-01
  -5.435442e-01   1.343240e+00
  -3.283570e+00   2.063403e+00
