
 $NMID
 id='ANONYMOUS ', fmtdat='(2E16.6)'
 volume=1.0
 tramp=1.0
 $END
   1.080669e+03   9.906527e+01
   6.890362e+02   5.526246e+02
   2.570958e+01   6.584302e+02
  -3.735571e+02   4.493087e+02
  -3.246901e+02   1.519737e+02
  -6.990294e+01  -1.171050e+01
   6.921930e+01   2.485015e+01
   1.768659e+00   1.478061e+02
  -1.410772e+02   1.749523e+02
  -2.032780e+02   3.356475e+01
  -1.392776e+02  -1.574727e+02
  -1.178050e+01  -2.070786e+02
   7.743755e+01  -6.169276e+01
   6.134585e+01   1.296458e+02
  -4.018818e+01   1.723103e+02
  -1.265805e+02   2.690602e+01
  -1.003637e+02  -1.619551e+02
   3.310442e+01  -2.206364e+02
   1.580268e+02  -1.113628e+02
   1.609850e+02   5.005956e+01
   5.375847e+01   1.233879e+02
  -3.621421e+01   8.374759e+01
  -1.122403e+01   3.004070e+01
   7.812634e+01   5.486231e+01
   8.954447e+01   1.270600e+02
  -3.507259e+01   1.330744e+02
  -1.852133e+02   2.826275e+01
  -1.991425e+02  -9.761872e+01
  -4.892946e+01  -1.251190e+02
   1.243417e+02  -3.879672e+01
   1.613573e+02   7.439187e+01
   4.389649e+01   1.299538e+02
  -1.056296e+02   1.072050e+02
  -1.603937e+02   2.922986e+01
  -1.042901e+02  -5.980860e+01
  -2.195182e+01  -9.848653e+01
   9.911384e-01  -5.154483e+01
  -4.074184e+01   2.724723e+01
  -7.962436e+01   2.861946e+01
  -5.270062e+01  -7.566137e+01
   3.141477e+01  -1.708306e+02
   1.008595e+02  -1.298183e+02
   9.302272e+01   1.527639e+01
   1.763967e+01   9.879468e+01
  -4.997853e+01   2.664198e+01
  -3.717674e+01  -1.043796e+02
   5.770835e+01  -1.266198e+02
   1.557170e+02  -1.939114e+00
   1.599227e+02   1.444329e+02
   4.486726e+01   1.756876e+02
  -1.082452e+02   8.281083e+01
  -1.771969e+02  -3.422449e+01
  -1.128757e+02  -8.560380e+01
   1.457160e+01  -6.522390e+01
   9.053946e+01  -2.357908e+01
   7.090658e+01  -2.130612e+00
   1.256979e+01  -4.211742e+00
  -4.019331e+00  -1.095939e+01
   3.501535e+01  -4.618609e+00
   6.951276e+01   2.241378e+01
   3.728818e+01   6.221213e+01
  -5.420248e+01   8.480948e+01
  -1.268612e+02   5.229599e+01
  -1.043053e+02  -3.835792e+01
   8.552784e+00  -1.283138e+02
   1.213104e+02  -1.377577e+02
   1.443958e+02  -4.827268e+01
   7.866906e+01   6.937545e+01
   5.297197e+00   1.262998e+02
  -1.306995e+01   1.058804e+02
   2.017848e+00   6.497764e+01
  -1.017990e+01   5.124699e+01
  -6.190106e+01   4.742040e+01
  -1.025336e+02   9.931814e+00
  -8.532096e+01  -5.802242e+01
  -2.016706e+01  -9.814055e+01
   4.428880e+01  -6.292706e+01
   6.756164e+01   2.626992e+01
   3.800767e+01   9.544770e+01
  -2.866252e+01   8.735289e+01
  -9.189817e+01   1.114765e+01
  -1.039559e+02  -7.218168e+01
  -5.197490e+01  -1.076764e+02
   2.034401e+01  -8.985258e+01
   5.599379e+01  -5.455077e+01
   5.190640e+01  -3.480491e+01
   5.984267e+01  -2.854534e+01
   1.094386e+02  -7.605769e+00
   1.525916e+02   4.664975e+01
   1.115825e+02   1.177973e+02
  -2.020357e+01   1.611625e+02
  -1.512748e+02   1.378793e+02
  -1.798182e+02   5.138746e+01
  -9.823954e+01  -4.556940e+01
   3.755157e+00  -8.941083e+01
   3.658691e+01  -6.266121e+01
  -3.383307e+00  -1.109310e+01
  -4.794427e+01   5.128963e+00
  -4.091097e+01  -2.310627e+01
   7.165330e+00  -4.786217e+01
   4.291688e+01  -2.625875e+01
   3.066290e+01   2.369609e+01
  -1.716808e+01   4.087736e+01
  -5.686760e+01  -8.474342e+00
  -4.918164e+01  -8.826011e+01
   1.271507e+01  -1.240371e+02
   9.359423e+01  -7.460599e+01
   1.346165e+02   2.761782e+01
   9.955702e+01   1.051852e+02
   1.357173e+01   1.057694e+02
  -5.327739e+01   4.759995e+01
  -5.326206e+01  -3.979976e+00
  -8.792435e+00  -4.778116e+00
   1.645419e+01   2.743121e+01
  -8.399054e+00   4.213004e+01
  -4.880641e+01   1.788099e+01
  -5.029370e+01  -1.627151e+01
  -6.119209e+00  -2.010257e+01
   3.197257e+01   9.939560e+00
   1.130237e+01   3.881666e+01
  -6.012495e+01   3.121206e+01
  -1.151407e+02  -1.577190e+01
  -9.268785e+01  -7.256872e+01
  -1.194324e+00  -1.006671e+02
   8.594204e+01  -8.001652e+01
   1.006910e+02  -2.557647e+01
   4.527962e+01   2.061366e+01
  -1.499805e+01   2.435408e+01
  -2.075774e+01  -6.254683e+00
   2.515902e+01  -2.678208e+01
   6.883821e+01  -4.394235e+00
   6.381101e+01   4.368018e+01
   1.394935e+01   6.833506e+01
  -3.581751e+01   4.478417e+01
  -4.444349e+01   9.745561e-01
  -1.258393e+01  -1.488056e+01
   1.864971e+01   1.138167e+01
   7.974531e+00   4.568190e+01
  -4.178456e+01   4.412447e+01
  -8.135245e+01  -1.191467e+00
  -6.403510e+01  -5.577553e+01
   2.388344e+00  -7.662349e+01
   6.026161e+01  -4.996740e+01
   6.151404e+01  -1.634388e-01
   1.592530e+01   3.364822e+01
  -2.474572e+01   3.111443e+01
  -2.462724e+01   6.096485e+00
   2.725192e+00  -9.922106e+00
   1.680323e+01  -1.898750e+00
  -2.755005e+00   1.195560e+01
  -3.510965e+01   1.501576e+00
  -4.048315e+01  -3.673428e+01
  -1.014080e+00  -6.852802e+01
   5.857711e+01  -5.530939e+01
   9.046219e+01   3.132936e+00
   6.717368e+01   6.464743e+01
   7.906537e+00   8.431279e+01
  -4.007288e+01   5.503902e+01
  -4.713745e+01   9.104703e+00
  -2.631547e+01  -1.583401e+01
  -1.242499e+01  -1.007145e+01
  -2.115864e+01   4.759325e+00
  -3.392283e+01   1.467507e+00
  -2.253518e+01  -2.285374e+01
   1.557768e+01  -4.155150e+01
   4.951044e+01  -2.599318e+01
   4.286297e+01   1.893650e+01
  -8.605501e+00   5.137142e+01
  -6.603492e+01   3.223707e+01
  -7.755021e+01  -3.048214e+01
  -2.544165e+01  -8.369707e+01
   5.424174e+01  -7.974898e+01
   1.018618e+02  -2.245054e+01
   8.681123e+01   3.990860e+01
   3.092747e+01   6.392641e+01
  -1.831971e+01   4.876296e+01
  -3.355188e+01   2.679663e+01
  -2.556294e+01   2.408866e+01
  -2.188808e+01   3.411100e+01
  -3.444383e+01   2.865437e+01
  -4.889994e+01  -8.409465e+00
  -4.158008e+01  -5.918964e+01
  -5.001253e+00  -8.420937e+01
   4.096151e+01  -5.891020e+01
   6.284332e+01   8.631891e-01
   4.296724e+01   5.093799e+01
  -1.413324e+00   5.795443e+01
  -3.137748e+01   2.696589e+01
  -2.407956e+01  -8.730375e+00
   3.309681e+00  -2.196212e+01
   1.307137e+01  -1.381421e+01
  -8.278623e+00  -4.358352e+00
  -3.166819e+01  -7.150791e+00
  -1.880472e+01  -1.591124e+01
   2.929703e+01  -1.441423e+01
   6.723181e+01   4.056779e+00
   5.316345e+01   2.822277e+01
  -4.174550e+00   3.856409e+01
  -5.357839e+01   2.525170e+01
  -5.454148e+01  -2.044741e+00
  -1.523674e+01  -2.118283e+01
   2.277133e+01  -1.619049e+01
   2.902063e+01   7.884024e+00
   7.780827e+00   2.810122e+01
  -1.642061e+01   2.456575e+01
  -2.622000e+01   6.914262e-01
  -2.281653e+01  -1.936580e+01
  -1.788053e+01  -1.703082e+01
  -1.957546e+01  -1.836480e+00
  -2.393600e+01  -1.692352e+00
  -1.692932e+01  -2.813188e+01
   1.145226e+01  -5.726561e+01
   5.058877e+01  -5.321970e+01
   7.038544e+01  -1.001468e+01
   4.829344e+01   3.787196e+01
  -1.997078e+00   5.089820e+01
  -3.643888e+01   2.571282e+01
  -2.319834e+01  -4.252152e+00
   2.173228e+01  -6.698688e+00
   4.813642e+01   1.758744e+01
   2.325721e+01   4.068904e+01
  -3.359342e+01   3.840277e+01
  -7.073617e+01   1.138062e+01
  -5.637636e+01  -1.943273e+01
  -8.545195e+00  -3.206579e+01
   2.581566e+01  -2.005235e+01
   1.824419e+01   2.740967e+00
  -1.548881e+01   1.157340e+01
  -3.431943e+01  -8.134205e+00
  -1.399302e+01  -4.269654e+01
   2.967217e+01  -5.631124e+01
   5.750819e+01  -2.469532e+01
   4.502474e+01   3.416577e+01
   3.827262e+00   7.015243e+01
  -3.213832e+01   4.982531e+01
  -3.827483e+01  -6.788522e+00
  -1.741602e+01  -4.598216e+01
   8.630403e+00  -3.759792e+01
   2.048623e+01  -3.869489e+00
   1.518090e+01   1.315784e+01
   4.594544e+00   3.202459e+00
   2.923686e+00  -5.964770e+00
   1.267662e+01   8.936002e+00
   2.024340e+01   3.438199e+01
   8.309823e+00   3.902070e+01
  -2.290839e+01   1.462670e+01
  -4.896538e+01  -1.567930e+01
  -4.294078e+01  -2.761689e+01
  -6.198571e+00  -2.048139e+01
   2.877111e+01  -8.574141e+00
   3.175489e+01  -3.170351e-01
   7.455787e+00   4.970102e+00
  -1.240203e+01   7.052907e+00
  -8.454148e+00   3.765870e+00
   4.388595e+00  -1.352787e+00
  -3.744033e-01  -1.656346e+00
  -2.316394e+01  -8.368456e-02
  -3.421268e+01  -8.887736e+00
  -9.082596e+00  -2.983539e+01
   3.930140e+01  -4.243759e+01
   7.053975e+01  -2.353137e+01
   5.718724e+01   2.172813e+01
   1.085010e+01   5.855702e+01
  -3.176263e+01   5.724113e+01
  -4.413108e+01   2.405385e+01
  -2.943571e+01  -7.726200e+00
  -9.653162e+00  -1.475897e+01
  -1.790281e+00  -5.361378e+00
  -5.781469e+00  -3.884189e+00
  -1.017419e+01  -1.926590e+01
  -4.576981e+00  -3.431313e+01
   1.178289e+01  -2.618441e+01
   2.819358e+01   6.053157e+00
   2.850018e+01   3.729982e+01
   5.477517e+00   4.024063e+01
  -2.645829e+01   1.203741e+01
  -3.829167e+01  -2.335700e+01
  -1.494637e+01  -3.813372e+01
   2.359799e+01  -2.438968e+01
   3.914095e+01   3.089067e+00
   1.759948e+01   2.293361e+01
  -1.326644e+01   2.406026e+01
  -1.659939e+01   1.086585e+01
   8.220124e+00  -2.441865e+00
   2.510271e+01  -2.830850e+00
   7.120265e+00   1.050449e+01
  -2.968947e+01   2.315473e+01
  -4.648032e+01   1.751913e+01
  -2.753673e+01  -7.633388e+00
   5.559369e+00  -3.153990e+01
   2.309732e+01  -3.088086e+01
   1.778746e+01  -5.735990e+00
   2.862063e+00   1.856550e+01
  -8.703507e+00   1.835380e+01
  -1.322827e+01  -2.898323e+00
  -1.028288e+01  -2.007946e+01
   7.813585e-02  -1.573931e+01
   1.217452e+01   1.636855e+00
   1.579622e+01   1.046539e+01
   7.850168e+00   2.638866e+00
  -1.959373e+00  -8.187536e+00
  -2.830753e+00  -5.035754e+00
   2.540605e+00   1.062553e+01
   1.763219e+00   2.007067e+01
  -8.727446e+00   9.851830e+00
  -1.601715e+01  -1.128873e+01
  -6.457933e+00  -2.139261e+01
   1.424138e+01  -9.756534e+00
   2.358086e+01   1.159265e+01
   7.354105e+00   2.184955e+01
  -2.166395e+01   1.317526e+01
  -3.494838e+01  -4.336775e+00
  -1.864418e+01  -1.632107e+01
   1.081429e+01  -1.733954e+01
   2.427494e+01  -1.087575e+01
   1.145964e+01  -2.818377e+00
  -8.883332e+00   1.463515e+00
  -1.125198e+01  -1.394319e+00
   7.877100e+00  -7.878457e+00
   2.703468e+01  -6.639128e+00
