
 $NMID
 id='ANONYMOUS ', fmtdat='(2E16.6)'
 volume=1.0
 tramp=1.0
 $END
  -1.337657e+03   1.338795e+01
  -9.684679e+02  -5.908696e+02
  -1.626420e+02  -8.619788e+02
   4.326803e+02  -6.831635e+02
   4.708095e+02  -2.625002e+02
   1.551746e+02   3.927262e+01
  -8.629322e+01   2.708959e+01
  -5.130227e+01  -1.671567e+02
   1.367922e+02  -2.505892e+02
   2.577172e+02  -8.649235e+01
   2.136789e+02   1.744058e+02
   5.833838e+01   2.713426e+02
  -8.328057e+01   1.119919e+02
  -1.013002e+02  -1.374644e+02
   1.822965e+01  -2.247864e+02
   1.570250e+02  -6.167042e+01
   1.549422e+02   1.941637e+02
  -1.745197e+01   3.005169e+02
  -2.039583e+02   1.717605e+02
  -2.264556e+02  -4.901960e+01
  -8.862088e+01  -1.600970e+02
   3.392119e+01  -1.179268e+02
   9.442220e+00  -5.269319e+01
  -9.494810e+01  -8.058079e+01
  -1.047527e+02  -1.581082e+02
   4.380896e+01  -1.551127e+02
   2.204141e+02  -3.360261e+01
   2.418869e+02   1.027585e+02
   7.254780e+01   1.337796e+02
  -1.345662e+02   4.732800e+01
  -1.927451e+02  -7.428684e+01
  -6.431894e+01  -1.474351e+02
   1.168618e+02  -1.370338e+02
   1.939073e+02  -5.137750e+01
   1.378589e+02   6.044182e+01
   4.655236e+01   1.176897e+02
   1.795089e+01   7.279550e+01
   5.340539e+01  -1.615067e+01
   8.237126e+01  -2.571941e+01
   5.090964e+01   8.409012e+01
  -2.936961e+01   1.960228e+02
  -1.001178e+02   1.641867e+02
  -1.054904e+02   5.066950e+00
  -3.792458e+01  -1.036479e+02
   4.268788e+01  -3.744366e+01
   4.651999e+01   1.147543e+02
  -5.807135e+01   1.549548e+02
  -1.890289e+02   1.537436e+01
  -2.114591e+02  -1.668683e+02
  -7.427641e+01  -2.180761e+02
   1.244451e+02  -1.149150e+02
   2.251548e+02   2.486836e+01
   1.581358e+02   9.380114e+01
   7.015838e-01   8.494403e+01
  -1.087043e+02   4.831187e+01
  -1.016343e+02   1.804180e+01
  -2.881163e+01   1.947436e+00
   8.044162e+00   1.394961e+00
  -3.219255e+01   5.609717e+00
  -8.620331e+01  -1.471398e+01
  -5.849280e+01  -7.078088e+01
   6.081454e+01  -1.157214e+02
   1.656089e+02  -7.798901e+01
   1.400285e+02   4.875688e+01
  -9.991978e+00   1.719209e+02
  -1.554694e+02   1.819831e+02
  -1.811101e+02   6.531025e+01
  -1.003797e+02  -8.233066e+01
  -1.793782e+01  -1.559467e+02
   1.303899e+00  -1.389461e+02
  -8.070126e+00  -9.394448e+01
   1.875145e+01  -7.277888e+01
   8.449221e+01  -5.976936e+01
   1.294932e+02  -1.056949e+01
   1.063143e+02   7.104760e+01
   2.858803e+01   1.195897e+02
  -5.019169e+01   7.816810e+01
  -8.269386e+01  -3.030097e+01
  -5.062871e+01  -1.164091e+02
   3.077304e+01  -1.088318e+02
   1.126505e+02  -1.797178e+01
   1.346169e+02   8.336377e+01
   7.594905e+01   1.312155e+02
  -1.515966e+01   1.178617e+02
  -6.767341e+01   7.974578e+01
  -6.985157e+01   5.253056e+01
  -8.070703e+01   3.882072e+01
  -1.413030e+02   1.143049e+01
  -1.972845e+02  -5.424582e+01
  -1.489974e+02  -1.452530e+02
   1.766720e+01  -2.069541e+02
   1.870551e+02  -1.839260e+02
   2.262601e+02  -7.570971e+01
   1.257639e+02   4.990156e+01
   1.354324e+00   1.103275e+02
  -3.732215e+01   8.213602e+01
   8.641617e+00   1.952948e+01
   5.707996e+01  -4.873271e+00
   4.782049e+01   2.449574e+01
  -5.024891e+00   5.577136e+01
  -4.620676e+01   3.550644e+01
  -3.728050e+01  -2.319780e+01
   1.590588e+01  -4.913431e+01
   6.937884e+01   7.135048e+00
   6.873342e+01   1.091566e+02
  -7.908899e+00   1.609738e+02
  -1.181038e+02   1.017461e+02
  -1.771761e+02  -3.002158e+01
  -1.327629e+02  -1.314949e+02
  -2.068713e+01  -1.338164e+02
   6.542788e+01  -6.206456e+01
   6.613452e+01   1.032727e+00
   1.147484e+01   2.795006e+00
  -1.998495e+01  -3.442864e+01
   9.600891e+00  -5.163393e+01
   5.941492e+01  -2.379531e+01
   6.271956e+01   1.660030e+01
   8.659827e+00   2.247776e+01
  -3.977166e+01  -1.295455e+01
  -1.425147e+01  -4.942832e+01
   7.745249e+01  -4.186364e+01
   1.490543e+02   1.664741e+01
   1.209835e+02   8.981445e+01
   4.608699e+00   1.278415e+02
  -1.057002e+02   1.046002e+02
  -1.251359e+02   3.795280e+01
  -5.789485e+01  -2.118060e+01
   1.592000e+01  -2.983844e+01
   2.442149e+01   5.706711e+00
  -3.059561e+01   3.306132e+01
  -8.578303e+01   8.741769e+00
  -8.296785e+01  -5.079100e+01
  -2.255129e+01  -8.493118e+01
   4.149904e+01  -5.873850e+01
   5.504854e+01  -4.465597e+00
   1.589807e+01   1.625295e+01
  -2.377676e+01  -1.628759e+01
  -1.015341e+01  -5.942403e+01
   5.349495e+01  -5.763245e+01
   1.045805e+02  -9.328732e-01
   8.418020e+01   6.834978e+01
   1.255870e+00   9.744633e+01
  -7.320540e+01   6.755261e+01
  -7.830976e+01   5.537961e+00
  -2.332074e+01  -4.034626e+01
   2.846991e+01  -4.081382e+01
   3.003050e+01  -9.915319e+00
  -3.983623e+00   1.151064e+01
  -2.181207e+01   1.547423e+00
   4.199643e+00  -1.677625e+01
   4.717736e+01  -3.176259e+00
   5.459945e+01   4.712913e+01
   3.444469e+00   8.919909e+01
  -7.369840e+01   7.335375e+01
  -1.159563e+02  -4.780571e-01
  -8.887951e+01  -7.947952e+01
  -1.525887e+01  -1.072842e+02
   4.724740e+01  -7.311004e+01
   6.008272e+01  -1.517422e+01
   3.592574e+01   1.841592e+01
   1.746890e+01   1.224812e+01
   2.735307e+01  -7.291292e+00
   4.425459e+01  -3.198540e+00
   3.068441e+01   2.987739e+01
  -1.910571e+01   5.585813e+01
  -6.478026e+01   3.549950e+01
  -5.704149e+01  -2.436857e+01
   1.009788e+01  -6.772843e+01
   8.523288e+01  -4.373996e+01
   1.011136e+02   3.676818e+01
   3.543341e+01   1.061131e+02
  -6.626343e+01   1.038903e+02
  -1.289710e+02   3.352911e+01
  -1.128817e+02  -4.587990e+01
  -4.330934e+01  -7.928724e+01
   2.022671e+01  -6.314926e+01
   4.100525e+01  -3.662975e+01
   3.100536e+01  -3.329338e+01
   2.606663e+01  -4.613391e+01
   4.315493e+01  -3.940785e+01
   6.409847e+01   8.152945e+00
   5.706632e+01   7.416627e+01
   1.097926e+01   1.080701e+02
  -4.919943e+01   7.775315e+01
  -8.000723e+01   2.213651e+00
  -5.716548e+01  -6.284687e+01
  -1.037205e+00  -7.379594e+01
   3.856490e+01  -3.513159e+01
   3.053378e+01   1.107670e+01
  -4.468984e+00   2.853248e+01
  -1.724139e+01   1.736519e+01
   1.086557e+01   4.073838e+00
   4.199711e+01   7.575125e+00
   2.534187e+01   2.004357e+01
  -3.786300e+01   1.967602e+01
  -8.761565e+01  -3.082683e+00
  -6.927792e+01  -3.435716e+01
   5.007275e+00  -4.933877e+01
   6.858367e+01  -3.441088e+01
   6.987838e+01   1.640920e-01
   1.982978e+01   2.675354e+01
  -2.898645e+01   2.257580e+01
  -3.811363e+01  -8.688381e+00
  -1.189189e+01  -3.707497e+01
   1.986921e+01  -3.389450e+01
   3.451512e+01  -2.214457e+00
   3.134821e+01   2.485941e+01
   2.419956e+01   2.145672e+01
   2.504331e+01   7.842157e-01
   3.088728e+01   7.905902e-01
   2.361256e+01   3.642539e+01
  -1.182336e+01   7.550333e+01
  -6.335232e+01   7.108676e+01
  -9.139587e+01   1.553873e+01
  -6.462607e+01  -4.706889e+01
   6.091797e-01  -6.592573e+01
   4.667847e+01  -3.517915e+01
   3.068702e+01   4.127408e+00
  -2.767000e+01   9.974586e+00
  -6.303749e+01  -1.959926e+01
  -3.202455e+01  -5.071940e+01
   4.113350e+01  -5.097673e+01
   8.987295e+01  -1.828095e+01
   7.286388e+01   2.187649e+01
   1.251292e+01   4.025372e+01
  -3.166911e+01   2.647079e+01
  -2.298429e+01  -3.020818e+00
   1.977545e+01  -1.595322e+01
   4.516025e+01   8.569192e+00
   2.115392e+01   5.472704e+01
  -3.452158e+01   7.548955e+01
  -7.293782e+01   3.644991e+01
  -6.082504e+01  -4.098473e+01
  -9.730342e+00  -9.052402e+01
   3.815587e+01  -6.619890e+01
   4.936345e+01   6.845824e+00
   2.452564e+01   5.805787e+01
  -9.435926e+00   4.786749e+01
  -2.614220e+01   5.339356e+00
  -1.983166e+01  -1.566463e+01
  -5.639032e+00  -3.074872e+00
  -3.316985e+00   7.515707e+00
  -1.698818e+01  -1.198307e+01
  -2.808561e+01  -4.350288e+01
  -1.266107e+01  -4.883022e+01
   2.908238e+01  -1.927884e+01
   6.412711e+01   1.711179e+01
   5.668932e+01   3.253457e+01
   8.935519e+00   2.637676e+01
  -3.649428e+01   1.353798e+01
  -4.070317e+01   2.248387e+00
  -9.979927e+00  -6.781281e+00
   1.528010e+01  -1.009093e+01
   1.060274e+01  -4.582231e+00
  -5.378009e+00   2.673481e+00
   6.813400e-01   1.670814e+00
   2.985428e+01  -2.146489e+00
   4.499596e+01   9.506584e+00
   1.421579e+01   3.915651e+01
  -4.799325e+01   5.826570e+01
  -9.066121e+01   3.477200e+01
  -7.660210e+01  -2.514907e+01
  -1.803361e+01  -7.544630e+01
   3.829249e+01  -7.605614e+01
   5.641740e+01  -3.388448e+01
   3.869763e+01   8.142917e+00
   1.321783e+01   1.881839e+01
   2.608838e+00   7.539322e+00
   7.570034e+00   5.259405e+00
   1.379635e+01   2.430815e+01
   7.483440e+00   4.376867e+01
  -1.374996e+01   3.453495e+01
  -3.692392e+01  -5.759703e+00
  -3.973947e+01  -4.640673e+01
  -1.018298e+01  -5.241775e+01
   3.372866e+01  -1.823044e+01
   5.190815e+01   2.754794e+01
   2.208967e+01   4.908980e+01
  -2.966466e+01   3.367331e+01
  -5.153665e+01  -1.953909e+00
  -2.390614e+01  -2.964416e+01
   1.666492e+01  -3.238421e+01
   2.148500e+01  -1.436684e+01
  -1.043794e+01   4.610655e+00
  -3.242947e+01   5.334756e+00
  -9.859584e+00  -1.359133e+01
   3.698139e+01  -3.169481e+01
   5.901325e+01  -2.456458e+01
   3.612129e+01   9.194490e+00
  -5.396041e+00   4.143429e+01
  -2.871534e+01   4.111579e+01
  -2.376089e+01   8.257214e+00
  -5.429539e+00  -2.409119e+01
   1.049851e+01  -2.476039e+01
   1.795498e+01   2.516859e+00
   1.461440e+01   2.553646e+01
   3.842869e-01   2.097389e+01
  -1.614898e+01  -1.212304e+00
  -2.084291e+01  -1.308466e+01
  -1.002342e+01  -3.216075e+00
   2.747133e+00   1.109167e+01
   3.034408e+00   7.051549e+00
  -4.926866e+00  -1.414054e+01
  -3.766100e+00  -2.758382e+01
   1.152283e+01  -1.456433e+01
   2.284822e+01   1.390117e+01
   1.062499e+01   2.842600e+01
  -1.801163e+01   1.412737e+01
  -3.208419e+01  -1.374249e+01
  -1.133272e+01  -2.809600e+01
   2.757240e+01  -1.828210e+01
   4.609761e+01   3.689317e+00
   2.526306e+01   2.014142e+01
  -1.336628e+01   2.339371e+01
  -3.137439e+01   1.586961e+01
  -1.513642e+01   4.068554e+00
   1.130906e+01  -3.461894e+00
   1.512858e+01   2.351906e-01
  -8.802623e+00   1.089264e+01
  -3.391434e+01   1.128085e+01
