
 $NMID
 id='ANONYMOUS ', fmtdat='(2E16.6)'
 volume=1.0
 tramp=1.0
 $END
  -1.766272e+03   4.238827e+01
  -1.296416e+03  -7.806693e+02
  -2.168852e+02  -1.158429e+03
   5.910968e+02  -9.096730e+02
   6.393986e+02  -3.285965e+02
   2.021205e+02   7.574944e+01
  -1.297402e+02   4.355095e+01
  -7.903317e+01  -2.285417e+02
   1.805756e+02  -3.404139e+02
   3.469135e+02  -1.170241e+02
   2.885182e+02   2.340415e+02
   7.777283e+01   3.654994e+02
  -1.164361e+02   1.538366e+02
  -1.421221e+02  -1.814040e+02
   2.167440e+01  -3.013770e+02
   2.111558e+02  -8.408536e+01
   2.068209e+02   2.584001e+02
  -2.668974e+01   3.986680e+02
  -2.741437e+02   2.242674e+02
  -2.999773e+02  -6.910998e+01
  -1.156114e+02  -2.140208e+02
   4.621790e+01  -1.576019e+02
   1.629697e+01  -7.161185e+01
  -1.182311e+02  -1.047089e+02
  -1.343249e+02  -2.013634e+02
   5.278898e+01  -1.983615e+02
   2.819526e+02  -4.675134e+01
   3.170114e+02   1.272527e+02
   1.024903e+02   1.727408e+02
  -1.700244e+02   6.758325e+01
  -2.531831e+02  -9.005326e+01
  -8.918008e+01  -1.908447e+02
   1.493112e+02  -1.820160e+02
   2.537133e+02  -7.062876e+01
   1.834229e+02   7.812709e+01
   6.461110e+01   1.569933e+02
   2.332565e+01   1.011754e+02
   6.348783e+01  -1.744803e+01
   1.004579e+02  -3.721309e+01
   6.684246e+01   1.020662e+02
  -3.070131e+01   2.533199e+02
  -1.257771e+02   2.202851e+02
  -1.421195e+02   1.357259e+01
  -5.760744e+01  -1.357561e+02
   5.343610e+01  -5.521375e+01
   6.506702e+01   1.456238e+02
  -7.164764e+01   2.037986e+02
  -2.469865e+02   2.362732e+01
  -2.787614e+02  -2.166682e+02
  -9.904356e+01  -2.866630e+02
   1.624029e+02  -1.533544e+02
   2.965226e+02   3.046147e+01
   2.106238e+02   1.243262e+02
   2.635372e+00   1.160372e+02
  -1.454597e+02   6.653090e+01
  -1.378151e+02   2.142591e+01
  -3.799773e+01  -2.133235e+00
   1.473660e+01   9.580824e-01
  -3.975348e+01   1.092100e+01
  -1.152812e+02  -1.674890e+01
  -7.941635e+01  -9.397827e+01
   8.040644e+01  -1.528541e+02
   2.184966e+02  -1.002491e+02
   1.817015e+02   6.595873e+01
  -1.634374e+01   2.235465e+02
  -2.039861e+02   2.349136e+02
  -2.351109e+02   8.484298e+01
  -1.311568e+02  -1.060817e+02
  -2.549497e+01  -2.043548e+02
   1.496835e+00  -1.848822e+02
  -7.218093e+00  -1.247322e+02
   2.778787e+01  -9.318766e+01
   1.100818e+02  -7.490966e+01
   1.665350e+02  -1.301747e+01
   1.375246e+02   9.119811e+01
   3.841036e+01   1.547776e+02
  -6.374185e+01   1.023803e+02
  -1.071768e+02  -3.807726e+01
  -6.672497e+01  -1.506070e+02
   3.874685e+01  -1.418807e+02
   1.461749e+02  -2.454056e+01
   1.764679e+02   1.078679e+02
   1.006782e+02   1.721154e+02
  -1.973414e+01   1.560377e+02
  -9.053648e+01   1.052772e+02
  -9.361938e+01   6.749970e+01
  -1.058823e+02   4.867436e+01
  -1.834255e+02   1.367217e+01
  -2.566187e+02  -7.129566e+01
  -1.942022e+02  -1.899008e+02
   2.328639e+01  -2.700307e+02
   2.444170e+02  -2.395727e+02
   2.955117e+02  -9.895160e+01
   1.648464e+02   6.416242e+01
   3.159762e+00   1.439473e+02
  -4.804611e+01   1.091496e+02
   9.991816e+00   2.740574e+01
   7.267458e+01  -7.003926e+00
   6.257815e+01   2.984817e+01
  -4.573210e+00   7.256226e+01
  -5.931294e+01   4.856808e+01
  -4.997048e+01  -2.860837e+01
   1.903552e+01  -6.483664e+01
   9.029815e+01   8.103609e+00
   9.011220e+01   1.428183e+02
  -1.081431e+01   2.109379e+02
  -1.550572e+02   1.321294e+02
  -2.311636e+02  -4.076939e+01
  -1.724486e+02  -1.720848e+02
  -2.678834e+01  -1.739181e+02
   8.495320e+01  -8.080096e+01
   8.645074e+01   5.707922e-01
   1.587886e+01   3.285781e+00
  -2.565642e+01  -4.420529e+01
   1.188407e+01  -6.670636e+01
   7.680715e+01  -3.143366e+01
   8.203688e+01   2.076594e+01
   1.217153e+01   2.890667e+01
  -5.108279e+01  -1.669004e+01
  -1.813318e+01  -6.388339e+01
   1.010649e+02  -5.370308e+01
   1.938924e+02   2.255120e+01
   1.570596e+02   1.172088e+02
   5.839747e+00   1.660913e+02
  -1.374037e+02   1.361348e+02
  -1.630961e+02   5.011495e+01
  -7.630119e+01  -2.701013e+01
   1.989795e+01  -3.929019e+01
   3.193726e+01   6.545719e+00
  -3.916342e+01   4.285232e+01
  -1.115793e+02   1.188465e+01
  -1.086745e+02  -6.588847e+01
  -3.003041e+01  -1.110345e+02
   5.386172e+01  -7.719689e+01
   7.192486e+01  -6.428630e+00
   2.127898e+01   2.065270e+01
  -3.007325e+01  -2.143100e+01
  -1.241467e+01  -7.699842e+01
   6.990030e+01  -7.429069e+01
   1.360145e+02  -7.030968e-01
   1.096070e+02   8.917747e+01
   1.770728e+00   1.272187e+02
  -9.564329e+01   8.855438e+01
  -1.028578e+02   7.517819e+00
  -3.113590e+01  -5.283568e+01
   3.692822e+01  -5.369981e+01
   3.932917e+01  -1.337763e+01
  -4.927853e+00   1.452715e+01
  -2.797274e+01   1.630669e+00
   6.097708e+00  -2.165651e+01
   6.171200e+01  -3.265952e+00
   7.061538e+01   6.217237e+01
   3.688030e+00   1.162005e+02
  -9.637534e+01   9.507641e+01
  -1.510029e+02  -9.562928e-01
  -1.157731e+02  -1.037757e+02
  -1.992277e+01  -1.402870e+02
   6.182086e+01  -9.581783e+01
   7.882539e+01  -1.978519e+01
   4.720783e+01   2.448314e+01
   2.292006e+01   1.634642e+01
   3.581782e+01  -9.325008e+00
   5.775444e+01  -3.761268e+00
   3.952613e+01   3.949024e+01
  -2.579003e+01   7.271168e+01
  -8.487055e+01   4.532371e+01
  -7.383457e+01  -3.258401e+01
   1.399800e+01  -8.804264e+01
   1.113410e+02  -5.608866e+01
   1.314107e+02   4.847064e+01
   4.580320e+01   1.381491e+02
  -8.647190e+01   1.350789e+02
  -1.682250e+02   4.358280e+01
  -1.474676e+02  -5.988016e+01
  -5.676161e+01  -1.035774e+02
   2.634375e+01  -8.259560e+01
   5.370109e+01  -4.800416e+01
   4.082538e+01  -4.370803e+01
   3.449947e+01  -6.041397e+01
   5.676717e+01  -5.132358e+01
   8.382493e+01   1.107222e+01
   7.430246e+01   9.722440e+01
   1.401965e+01   1.412300e+02
  -6.439478e+01   1.015079e+02
  -1.044026e+02   2.923659e+00
  -7.450447e+01  -8.196366e+01
  -1.363510e+00  -9.622554e+01
   5.005138e+01  -4.573280e+01
   3.938120e+01   1.442210e+01
  -6.135493e+00   3.683761e+01
  -2.237839e+01   2.212415e+01
   1.452388e+01   5.208884e+00
   5.493293e+01   1.030808e+01
   3.290165e+01   2.643083e+01
  -4.950869e+01   2.523641e+01
  -1.141087e+02  -4.766804e+00
  -9.003873e+01  -4.501235e+01
   6.753706e+00  -6.384143e+01
   8.953556e+01  -4.430787e+01
   9.109552e+01   3.590970e-01
   2.560791e+01   3.476667e+01
  -3.817514e+01   2.929762e+01
  -4.978063e+01  -1.159145e+01
  -1.504975e+01  -4.876306e+01
   2.651292e+01  -4.438335e+01
   4.517874e+01  -2.519619e+00
   4.063408e+01   3.302424e+01
   3.142748e+01   2.825947e+01
   3.285107e+01   9.568305e-01
   4.038284e+01   1.113933e+00
   3.042011e+01   4.790839e+01
  -1.607933e+01   9.871089e+01
  -8.309649e+01   9.231263e+01
  -1.192754e+02   1.944395e+01
  -8.405249e+01  -6.195566e+01
   1.201035e+00  -8.592718e+01
   6.128682e+01  -4.546538e+01
   4.018862e+01   5.665969e+00
  -3.624880e+01   1.294987e+01
  -8.245739e+01  -2.579115e+01
  -4.179443e+01  -6.628525e+01
   5.381697e+01  -6.645187e+01
   1.173537e+02  -2.375485e+01
   9.506676e+01   2.856513e+01
   1.637027e+01   5.249420e+01
  -4.116953e+01   3.454244e+01
  -2.978769e+01  -3.877171e+00
   2.601782e+01  -2.066409e+01
   5.906431e+01   1.150503e+01
   2.740900e+01   7.190409e+01
  -4.570570e+01   9.890470e+01
  -9.593794e+01   4.751695e+01
  -7.965293e+01  -5.399346e+01
  -1.242210e+01  -1.186846e+02
   5.010015e+01  -8.658115e+01
   6.438662e+01   9.038226e+00
   3.187283e+01   7.579313e+01
  -1.221304e+01   6.227305e+01
  -3.393617e+01   6.803289e+00
  -2.595090e+01  -2.033965e+01
  -7.552390e+00  -3.791440e+00
  -4.240915e+00   9.807468e+00
  -2.181582e+01  -1.592010e+01
  -3.647392e+01  -5.702740e+01
  -1.666886e+01  -6.367450e+01
   3.786186e+01  -2.487529e+01
   8.390089e+01   2.258579e+01
   7.417637e+01   4.257581e+01
   1.146279e+01   3.448978e+01
  -4.801487e+01   1.771932e+01
  -5.320937e+01   2.873744e+00
  -1.278520e+01  -9.029260e+00
   2.006588e+01  -1.327595e+01
   1.363078e+01  -5.884649e+00
  -7.228937e+00   3.627975e+00
   1.038068e+00   2.163130e+00
   3.933471e+01  -2.828764e+00
   5.885005e+01   1.270307e+01
   1.817627e+01   5.165457e+01
  -6.333141e+01   7.626887e+01
  -1.189256e+02   4.487552e+01
  -1.001576e+02  -3.370945e+01
  -2.323307e+01  -9.900482e+01
   5.054580e+01  -9.918125e+01
   7.410917e+01  -4.387712e+01
   5.065371e+01   1.085777e+01
   1.710243e+01   2.467239e+01
   3.155189e+00   9.958365e+00
   9.683616e+00   6.943764e+00
   1.788708e+01   3.170493e+01
   9.653589e+00   5.710986e+01
  -1.813576e+01   4.510562e+01
  -4.842636e+01  -7.673446e+00
  -5.193132e+01  -6.107976e+01
  -1.297397e+01  -6.894122e+01
   4.458072e+01  -2.377992e+01
   6.805213e+01   3.652840e+01
   2.855311e+01   6.456427e+01
  -3.926094e+01   4.384171e+01
  -6.742973e+01  -3.039086e+00
  -3.080502e+01  -3.895121e+01
   2.221086e+01  -4.207038e+01
   2.804583e+01  -1.841506e+01
  -1.397388e+01   6.126463e+00
  -4.252954e+01   6.825737e+00
  -1.271262e+01  -1.788814e+01
   4.851244e+01  -4.132727e+01
   7.704465e+01  -3.180441e+01
   4.693110e+01   1.232110e+01
  -7.343187e+00   5.420768e+01
  -3.777083e+01   5.344062e+01
  -3.119588e+01   1.033233e+01
  -7.003829e+00  -3.177357e+01
   1.404224e+01  -3.231396e+01
   2.370858e+01   3.524034e+00
   1.897476e+01   3.353633e+01
   1.649853e-01   2.738196e+01
  -2.122125e+01  -1.727339e+00
  -2.703771e+01  -1.720504e+01
  -1.298092e+01  -4.194621e+00
   3.318842e+00   1.451737e+01
   3.601371e+00   9.038404e+00
  -6.342773e+00  -1.891007e+01
  -4.305466e+00  -3.642020e+01
   1.565230e+01  -1.891624e+01
   2.994392e+01   1.877674e+01
   1.355134e+01   3.769891e+01
  -2.385728e+01   1.843944e+01
  -4.199021e+01  -1.841770e+01
  -1.469063e+01  -3.700978e+01
   3.618331e+01  -2.369429e+01
   6.033407e+01   5.242271e+00
   3.295010e+01   2.653533e+01
  -1.774210e+01   3.046640e+01
  -4.131221e+01   2.048254e+01
  -1.980315e+01   5.075663e+00
   1.512745e+01  -4.643512e+00
   2.013950e+01   4.122092e-01
  -1.152143e+01   1.453355e+01
  -4.468213e+01   1.496205e+01
