
 $NMID
 id='ANONYMOUS ', fmtdat='(2E16.6)'
 volume=1.0
 tramp=1.0
 $END
  -2.380614e+03   4.039257e+01
  -1.639198e+03  -1.167619e+03
  -8.191656e+01  -1.546427e+03
   9.074644e+02  -1.002907e+03
   7.597155e+02  -1.990968e+02
   8.154976e+01   1.679361e+02
  -2.697681e+02  -3.099103e+01
  -7.280330e+01  -3.920217e+02
   3.079033e+02  -4.493769e+02
   4.822474e+02  -9.349031e+01
   3.455885e+02   3.639657e+02
   3.234150e+01   4.916549e+02
  -2.156202e+02   1.637070e+02
  -1.971880e+02  -2.902391e+02
   6.573195e+01  -4.079223e+02
   2.997427e+02  -7.758793e+01
   2.393790e+02   3.567996e+02
  -7.969636e+01   4.804674e+02
  -3.553790e+02   2.257444e+02
  -3.465163e+02  -1.240479e+02
  -1.111959e+02  -2.741210e+02
   8.382722e+01  -1.919754e+02
   5.069373e+01  -7.035726e+01
  -1.297391e+02  -8.466500e+01
  -1.931472e+02  -2.083614e+02
   1.715555e+01  -2.576498e+02
   3.412541e+02  -1.115683e+02
   4.384377e+02   1.325943e+02
   1.675405e+02   2.533991e+02
  -2.248144e+02   1.434138e+02
  -3.613773e+02  -9.084543e+01
  -1.411614e+02  -2.594115e+02
   1.873901e+02  -2.568314e+02
   3.325921e+02  -9.958342e+01
   2.415559e+02   1.114738e+02
   7.249331e+01   2.265339e+02
  -1.102872e+01   1.426231e+02
   3.118352e+01  -5.198910e+01
   1.215846e+02  -1.072211e+02
   1.364448e+02   9.890174e+01
   1.148988e+01   3.509489e+02
  -1.711837e+02   3.236649e+02
  -2.340624e+02   1.371031e+01
  -9.750775e+01  -2.195518e+02
   9.840523e+01  -1.051711e+02
   1.250424e+02   1.903962e+02
  -7.861321e+01   2.822643e+02
  -3.242130e+02   4.472140e+01
  -3.605309e+02  -2.714307e+02
  -1.204183e+02  -3.668577e+02
   2.162161e+02  -2.016082e+02
   3.832484e+02   4.114725e+01
   2.603280e+02   1.809401e+02
  -2.293793e+01   1.699954e+02
  -2.106158e+02   7.197515e+01
  -1.702218e+02  -1.265012e+01
  -1.617832e+01  -2.026366e+01
   3.812955e+01   2.630901e+01
  -6.446323e+01   4.161776e+01
  -1.662925e+02  -2.789677e+01
  -9.837414e+01  -1.383401e+02
   1.098152e+02  -1.867554e+02
   2.606934e+02  -1.058163e+02
   2.030092e+02   7.669012e+01
  -2.027631e+01   2.468539e+02
  -2.284563e+02   2.739586e+02
  -2.765724e+02   1.156427e+02
  -1.714473e+02  -1.220792e+02
  -3.730585e+01  -2.643411e+02
   2.053611e+01  -2.379670e+02
   1.383612e+01  -1.362904e+02
   3.078577e+01  -8.545518e+01
   1.104975e+02  -8.428193e+01
   1.883024e+02  -3.362935e+01
   1.752005e+02   9.407933e+01
   6.274319e+01   1.899925e+02
  -7.142098e+01   1.388811e+02
  -1.383446e+02  -3.370204e+01
  -9.562274e+01  -1.811720e+02
   3.784568e+01  -1.821535e+02
   1.813200e+02  -4.260650e+01
   2.257094e+02   1.288850e+02
   1.257936e+02   2.200139e+02
  -3.498207e+01   1.978197e+02
  -1.230546e+02   1.191899e+02
  -1.133530e+02   6.409009e+01
  -1.159474e+02   5.112043e+01
  -2.106801e+02   2.331465e+01
  -3.070110e+02  -7.647751e+01
  -2.371960e+02  -2.254361e+02
   2.225985e+01  -3.266778e+02
   2.889884e+02  -2.931063e+02
   3.582028e+02  -1.261243e+02
   2.105672e+02   7.552112e+01
   1.224207e+01   1.839131e+02
  -6.661933e+01   1.447660e+02
  -4.465320e+00   3.094230e+01
   8.620193e+01  -2.461900e+01
   9.148816e+01   2.867301e+01
   4.421174e+00   1.007646e+02
  -8.245122e+01   7.460837e+01
  -7.701202e+01  -3.671153e+01
   2.049312e+01  -9.315765e+01
   1.170964e+02   1.935308e+00
   1.117709e+02   1.752528e+02
  -1.554853e+01   2.559812e+02
  -1.838764e+02   1.556753e+02
  -2.707635e+02  -4.900495e+01
  -2.074983e+02  -2.009948e+02
  -4.077510e+01  -2.066682e+02
   9.842729e+01  -1.023639e+02
   1.106706e+02  -3.058284e+00
   2.486065e+01   8.441071e+00
  -3.562448e+01  -4.773857e+01
   6.091565e+00  -8.329345e+01
   9.255857e+01  -4.619735e+01
   1.067520e+02   2.144053e+01
   2.129834e+01   3.918588e+01
  -6.107339e+01  -1.280263e+01
  -2.613069e+01  -7.188579e+01
   1.151321e+02  -6.453564e+01
   2.282614e+02   2.134264e+01
   1.906785e+02   1.329874e+02
   1.546774e+01   1.977969e+02
  -1.592378e+02   1.709083e+02
  -2.000245e+02   6.814412e+01
  -1.000571e+02  -3.382807e+01
   2.257752e+01  -5.525949e+01
   4.520582e+01   4.559615e+00
  -4.194900e+01   5.709251e+01
  -1.371167e+02   2.120143e+01
  -1.375241e+02  -7.872574e+01
  -3.983744e+01  -1.387829e+02
   6.617116e+01  -9.883759e+01
   9.148812e+01  -1.100087e+01
   3.187992e+01   2.623142e+01
  -3.259314e+01  -1.948238e+01
  -1.776876e+01  -8.569976e+01
   7.720603e+01  -8.813991e+01
   1.600776e+02  -5.481653e+00
   1.344909e+02   1.038944e+02
   5.315862e+00   1.554590e+02
  -1.170263e+02   1.104222e+02
  -1.288978e+02   8.139989e+00
  -4.022827e+01  -6.873030e+01
   4.570919e+01  -6.907975e+01
   5.083715e+01  -1.774341e+01
  -1.395525e+00   1.788830e+01
  -2.963683e+01   4.629938e+00
   7.396146e+00  -2.149229e+01
   6.943793e+01  -1.480710e+00
   8.056754e+01   7.178229e+01
   5.896480e+00   1.348689e+02
  -1.110266e+02   1.141932e+02
  -1.800202e+02   3.487810e+00
  -1.419460e+02  -1.219445e+02
  -2.571013e+01  -1.708520e+02
   7.604483e+01  -1.181096e+02
   9.652353e+01  -2.305705e+01
   5.598359e+01   3.229821e+01
   2.620480e+01   2.135363e+01
   4.239837e+01  -1.071631e+01
   6.726122e+01  -4.535679e+00
   4.381874e+01   4.522455e+01
  -3.124839e+01   8.251906e+01
  -9.634382e+01   5.142062e+01
  -8.310782e+01  -3.639022e+01
   1.536687e+01  -1.005499e+02
   1.275448e+02  -6.664144e+01
   1.555766e+02   5.370375e+01
   5.964378e+01   1.625575e+02
  -9.837909e+01   1.643830e+02
  -2.017373e+02   5.692063e+01
  -1.809539e+02  -7.022219e+01
  -7.150581e+01  -1.263726e+02
   3.106280e+01  -1.018866e+02
   6.603937e+01  -5.898838e+01
   5.149246e+01  -5.249178e+01
   4.347475e+01  -7.164782e+01
   6.851665e+01  -6.030095e+01
   9.972794e+01   1.408097e+01
   8.903233e+01   1.165969e+02
   1.803709e+01   1.697228e+02
  -7.664597e+01   1.236443e+02
  -1.268844e+02   6.225994e+00
  -9.243736e+01  -9.688816e+01
  -4.528986e+00  -1.165852e+02
   5.795842e+01  -5.818618e+01
   4.679253e+01   1.332647e+01
  -4.930144e+00   4.148004e+01
  -2.261555e+01   2.638331e+01
   1.965043e+01   7.917915e+00
   6.453314e+01   1.348065e+01
   3.816349e+01   3.109094e+01
  -5.687094e+01   2.967354e+01
  -1.328697e+02  -4.032678e+00
  -1.079511e+02  -5.060318e+01
   3.748604e+00  -7.433746e+01
   1.037311e+02  -5.367983e+01
   1.092997e+02  -1.904948e+00
   3.198957e+01   3.928001e+01
  -4.572478e+01   3.359482e+01
  -5.915857e+01  -1.401988e+01
  -1.529573e+01  -5.698310e+01
   3.411858e+01  -5.111825e+01
   5.276716e+01  -1.969676e+00
   4.527784e+01   3.925029e+01
   3.657839e+01   3.340453e+01
   4.092791e+01   1.281925e+00
   4.875501e+01   1.163207e+00
   3.423642e+01   5.605436e+01
  -2.055846e+01   1.164716e+02
  -9.703690e+01   1.096866e+02
  -1.387493e+02   2.361012e+01
  -9.900098e+01  -7.308957e+01
   6.248476e-02  -1.012596e+02
   7.159789e+01  -5.266835e+01
   4.753244e+01   7.816641e+00
  -4.371973e+01   1.542991e+01
  -9.994577e+01  -3.135300e+01
  -5.169442e+01  -7.980870e+01
   6.371543e+01  -8.079543e+01
   1.414489e+02  -3.084940e+01
   1.159184e+02   3.230772e+01
   2.152340e+01   6.348261e+01
  -4.859521e+01   4.398272e+01
  -3.598737e+01  -2.381524e+00
   3.076732e+01  -2.377044e+01
   7.026221e+01   1.451616e+01
   3.107886e+01   8.696323e+01
  -5.795850e+01   1.181061e+02
  -1.175554e+02   5.476437e+01
  -9.552764e+01  -6.721517e+01
  -1.330217e+01  -1.438070e+02
   6.106752e+01  -1.049092e+02
   7.757073e+01   9.559311e+00
   3.987885e+01   9.044646e+01
  -1.168323e+01   7.590896e+01
  -3.931991e+01   9.718919e+00
  -3.292290e+01  -2.419169e+01
  -1.140274e+01  -4.965506e+00
  -4.610160e+00   1.259512e+01
  -2.376997e+01  -1.738961e+01
  -4.332782e+01  -6.803262e+01
  -2.259401e+01  -7.771331e+01
   4.315449e+01  -3.075211e+01
   1.014207e+02   2.771037e+01
   9.095137e+01   5.162455e+01
   1.361446e+01   4.049781e+01
  -5.954125e+01   2.022930e+01
  -6.443390e+01   3.948020e+00
  -1.372069e+01  -9.664921e+00
   2.518688e+01  -1.612422e+01
   1.506713e+01  -8.528423e+00
  -1.033871e+01   3.638793e+00
   1.935190e+00   3.541206e+00
   4.914545e+01  -1.959770e+00
   7.020082e+01   1.589075e+01
   1.830570e+01   6.164371e+01
  -7.898989e+01   9.020701e+01
  -1.420143e+02   5.152083e+01
  -1.170853e+02  -4.282966e+01
  -2.589100e+01  -1.194781e+02
   6.044722e+01  -1.175253e+02
   8.826662e+01  -5.063517e+01
   6.072511e+01   1.377817e+01
   2.008865e+01   2.894513e+01
   2.419142e+00   1.074781e+01
   1.071985e+01   7.159869e+00
   2.219432e+01   3.721472e+01
   1.276667e+01   6.831735e+01
  -2.183686e+01   5.403375e+01
  -5.873987e+01  -1.029923e+01
  -6.127544e+01  -7.514614e+01
  -1.274149e+01  -8.309521e+01
   5.539909e+01  -2.611569e+01
   8.067650e+01   4.676969e+01
   3.191628e+01   7.756549e+01
  -4.779124e+01   5.014135e+01
  -7.924432e+01  -4.902458e+00
  -3.521663e+01  -4.481651e+01
   2.624691e+01  -4.785055e+01
   3.139292e+01  -2.184172e+01
  -1.875139e+01   5.782929e+00
  -5.126509e+01   7.443797e+00
  -1.432275e+01  -2.089186e+01
   5.852528e+01  -4.953247e+01
   9.118379e+01  -3.938800e+01
   5.440323e+01   1.353592e+01
  -9.547978e+00   6.442572e+01
  -4.413437e+01   6.305746e+01
  -3.528876e+01   1.052408e+01
  -6.744575e+00  -3.899525e+01
   1.744396e+01  -3.728037e+01
   2.820418e+01   6.383552e+00
   2.209474e+01   4.032462e+01
  -3.604886e-01   3.101776e+01
  -2.532932e+01  -3.065887e+00
  -3.181605e+01  -1.958863e+01
  -1.553632e+01  -4.103479e+00
   3.185550e+00   1.590411e+01
   4.468195e+00   7.922899e+00
  -4.796216e+00  -2.377661e+01
  -1.189164e+00  -4.146416e+01
   2.003528e+01  -1.890809e+01
   3.297141e+01   2.509048e+01
   1.224347e+01   4.538479e+01
  -2.973931e+01   2.060837e+01
  -4.858363e+01  -2.380279e+01
  -1.607832e+01  -4.508776e+01
   4.294256e+01  -2.772701e+01
   7.110370e+01   7.553701e+00
   3.889557e+01   3.215260e+01
  -2.140546e+01   3.519402e+01
  -4.939021e+01   2.261306e+01
  -2.252106e+01   5.506089e+00
   2.035310e+01  -3.953079e+00
   2.510344e+01   3.035439e+00
  -1.589072e+01   1.877762e+01
  -5.694071e+01   1.721419e+01
