
 $NMID
 id='ANONYMOUS ', fmtdat='(2E16.6)'
 volume=1.0
 tramp=1.0
 $END
   9.686158e+02   1.090327e+01
   6.681767e+02   4.167367e+02
   1.112808e+02   5.780810e+02
  -2.692844e+02   4.659112e+02
  -2.882872e+02   2.116899e+02
  -9.871825e+01   1.647732e+01
   3.999865e+01   3.589906e+00
   1.465790e+01   1.129654e+02
  -1.001838e+02   1.644364e+02
  -1.728445e+02   5.615013e+01
  -1.413755e+02  -1.189144e+02
  -3.939655e+01  -1.805111e+02
   5.085553e+01  -6.639438e+01
   6.026890e+01   1.022744e+02
  -1.668559e+01   1.542064e+02
  -1.061971e+02   3.917482e+01
  -1.080690e+02  -1.338549e+02
   2.913149e+00  -2.083091e+02
   1.324818e+02  -1.261677e+02
   1.571141e+02   2.465338e+01
   6.603207e+01   1.070819e+02
  -2.122270e+01   8.022825e+01
  -9.165546e-01   3.150676e+01
   8.194476e+01   5.360240e+01
   8.890444e+01   1.203834e+02
  -3.263048e+01   1.253874e+02
  -1.731354e+02   2.979255e+01
  -1.835945e+02  -8.172794e+01
  -4.524032e+01  -1.052849e+02
   1.113914e+02  -3.266312e+01
   1.461444e+02   6.233673e+01
   4.364439e+01   1.132740e+02
  -9.009098e+01   1.010265e+02
  -1.429709e+02   3.655343e+01
  -9.785298e+01  -4.462673e+01
  -2.856232e+01  -8.252682e+01
  -1.096236e+01  -4.275935e+01
  -4.675798e+01   2.379093e+01
  -7.439238e+01   2.001274e+01
  -4.450599e+01  -7.375765e+01
   2.744543e+01  -1.548207e+02
   8.185278e+01  -1.170379e+02
   7.507957e+01   8.269529e+00
   1.676437e+01   8.029599e+01
  -3.876389e+01   1.970514e+01
  -3.296031e+01  -9.334187e+01
   4.672692e+01  -1.160254e+02
   1.409238e+02  -1.017257e+01
   1.563602e+02   1.211862e+02
   5.553468e+01   1.567763e+02
  -9.106073e+01   8.232432e+01
  -1.635015e+02  -1.758696e+01
  -1.105599e+02  -6.473444e+01
   3.774087e+00  -5.512073e+01
   7.526926e+01  -3.011454e+01
   6.425015e+01  -1.588002e+01
   1.720826e+01  -9.747638e+00
   5.229005e-01  -5.257746e+00
   2.990620e+01  -5.583182e-01
   6.099554e+01   1.463219e+01
   3.869018e+01   5.009946e+01
  -4.129901e+01   8.309057e+01
  -1.149246e+02   6.275663e+01
  -1.045859e+02  -2.757688e+01
  -3.311954e+00  -1.259951e+02
   1.060871e+02  -1.417929e+02
   1.335466e+02  -5.447314e+01
   7.686314e+01   6.040332e+01
   1.327472e+01   1.145224e+02
  -1.278626e-01   9.662916e+01
   1.248348e+01   6.310605e+01
  -5.064977e+00   5.478705e+01
  -5.880091e+01   5.159890e+01
  -9.871952e+01   1.426707e+01
  -8.335548e+01  -5.122214e+01
  -2.331235e+01  -9.031697e+01
   3.812208e+01  -5.956912e+01
   6.402713e+01   2.206630e+01
   4.023752e+01   8.710277e+01
  -2.204997e+01   8.227177e+01
  -8.471512e+01   1.500906e+01
  -1.007569e+02  -5.996805e+01
  -5.622198e+01  -9.432567e+01
   9.699316e+00  -8.357382e+01
   4.489074e+01  -5.697644e+01
   4.521668e+01  -4.059333e+01
   5.610867e+01  -3.368824e+01
   1.045927e+02  -1.495457e+01
   1.478917e+02   3.329884e+01
   1.138326e+02   1.023470e+02
  -7.102719e+00   1.529117e+02
  -1.321380e+02   1.410661e+02
  -1.644485e+02   6.139080e+01
  -9.348330e+01  -3.555494e+01
  -1.620203e+00  -8.231417e+01
   2.781675e+01  -5.870918e+01
  -7.682666e+00  -1.003956e+01
  -4.543507e+01   5.313947e+00
  -3.710657e+01  -2.045326e+01
   5.388901e+00  -4.301000e+01
   3.634406e+01  -2.435753e+01
   2.706167e+01   1.982804e+01
  -1.380720e+01   3.665467e+01
  -5.258230e+01  -5.266363e+00
  -5.260372e+01  -7.830058e+01
   1.337997e+00  -1.170515e+02
   8.232193e+01  -7.855688e+01
   1.303418e+02   1.471641e+01
   1.023542e+02   9.200514e+01
   1.965678e+01   9.912222e+01
  -4.715622e+01   4.811050e+01
  -4.907705e+01  -4.071233e-01
  -7.273257e+00  -3.000501e+00
   1.686689e+01   2.575633e+01
  -6.305782e+00   3.989927e+01
  -4.464883e+01   1.899541e+01
  -4.698776e+01  -1.220369e+01
  -5.824259e+00  -1.766724e+01
   3.118172e+01   8.272234e+00
   1.303533e+01   3.676153e+01
  -5.533245e+01   3.447661e+01
  -1.107591e+02  -6.482857e+00
  -9.293481e+01  -6.239556e+01
  -7.612003e+00  -9.521908e+01
   7.575923e+01  -8.089861e+01
   9.198033e+01  -3.046205e+01
   4.242593e+01   1.565739e+01
  -1.265854e+01   2.244805e+01
  -1.867634e+01  -5.114238e+00
   2.274318e+01  -2.621102e+01
   6.394505e+01  -8.184895e+00
   6.210602e+01   3.617267e+01
   1.773091e+01   6.208874e+01
  -2.990227e+01   4.369381e+01
  -4.073405e+01   3.686717e+00
  -1.165279e+01  -1.286620e+01
   1.943278e+01   1.040220e+01
   1.085118e+01   4.385714e+01
  -3.709506e+01   4.537552e+01
  -7.746559e+01   4.656190e+00
  -6.428892e+01  -4.799449e+01
  -3.258704e+00  -7.179482e+01
   5.225611e+01  -5.098910e+01
   5.666378e+01  -5.206604e+00
   1.695421e+01   2.930562e+01
  -2.058489e+01   3.026376e+01
  -2.194640e+01   7.273733e+00
   2.733859e+00  -9.608820e+00
   1.658393e+01  -2.719360e+00
  -1.448452e+00   1.243557e+01
  -3.382093e+01   4.964130e+00
  -4.208742e+01  -3.171353e+01
  -6.405590e+00  -6.542190e+01
   5.157492e+01  -5.697090e+01
   8.577661e+01  -3.512908e+00
   6.793989e+01   5.597245e+01
   1.388229e+01   7.820232e+01
  -3.289600e+01   5.433936e+01
  -4.316813e+01   1.251422e+01
  -2.610530e+01  -1.209372e+01
  -1.273783e+01  -8.042742e+00
  -1.962727e+01   6.332974e+00
  -3.223611e+01   4.223487e+00
  -2.392133e+01  -2.000134e+01
   1.103184e+01  -4.137722e+01
   4.553508e+01  -2.933080e+01
   4.314739e+01   1.470511e+01
  -4.025853e+00   5.018017e+01
  -6.076691e+01   3.608504e+01
  -7.606400e+01  -2.321026e+01
  -2.990085e+01  -7.750728e+01
   4.572745e+01  -7.916673e+01
   9.417958e+01  -2.848729e+01
   8.414879e+01   3.091395e+01
   3.354473e+01   5.727750e+01
  -1.344789e+01   4.680614e+01
  -2.907469e+01   2.761434e+01
  -2.154245e+01   2.466950e+01
  -1.732560e+01   3.400307e+01
  -2.993204e+01   3.004698e+01
  -4.685756e+01  -3.705554e+00
  -4.400452e+01  -5.229370e+01
  -1.134036e+01  -7.880842e+01
   3.390565e+01  -5.841293e+01
   5.894490e+01  -3.704583e+00
   4.400107e+01   4.481850e+01
   2.764561e+00   5.450011e+01
  -2.787095e+01   2.730398e+01
  -2.360141e+01  -7.078227e+00
   1.746078e+00  -2.159864e+01
   1.206926e+01  -1.424300e+01
  -7.615958e+00  -3.137334e+00
  -3.064326e+01  -3.848833e+00
  -1.930043e+01  -1.352036e+01
   2.690799e+01  -1.617740e+01
   6.451555e+01  -1.465112e+00
   5.246621e+01   2.292457e+01
  -1.625900e+00   3.725589e+01
  -4.915345e+01   2.816279e+01
  -5.156454e+01   2.046923e+00
  -1.588210e+01  -1.924574e+01
   2.006541e+01  -1.743768e+01
   2.807178e+01   4.996615e+00
   1.026679e+01   2.604052e+01
  -1.287277e+01   2.484349e+01
  -2.488920e+01   3.072977e+00
  -2.381409e+01  -1.631821e+01
  -1.847935e+01  -1.462998e+01
  -1.824163e+01  -1.438013e-01
  -2.260216e+01   3.229438e-01
  -1.876751e+01  -2.531488e+01
   5.745687e+00  -5.520275e+01
   4.377442e+01  -5.454147e+01
   6.635192e+01  -1.527596e+01
   4.898331e+01   3.188322e+01
   2.058241e+00   4.849537e+01
  -3.253259e+01   2.764850e+01
  -2.229111e+01  -1.858469e+00
   1.984757e+01  -8.100509e+00
   4.650589e+01   1.254801e+01
   2.487887e+01   3.637063e+01
  -2.867945e+01   3.868901e+01
  -6.556465e+01   1.598369e+01
  -5.430720e+01  -1.414502e+01
  -1.024991e+01  -2.942630e+01
   2.290179e+01  -2.046701e+01
   1.741269e+01   1.578038e+00
  -1.368835e+01   1.239375e+01
  -3.306616e+01  -4.667871e+00
  -1.703199e+01  -3.882114e+01
   2.261647e+01  -5.543755e+01
   5.149008e+01  -2.835379e+01
   4.509681e+01   2.793431e+01
   9.650192e+00   6.534261e+01
  -2.598429e+01   4.926678e+01
  -3.654509e+01  -3.535495e+00
  -1.982268e+01  -4.199802e+01
   5.713832e+00  -3.592680e+01
   1.930962e+01  -5.032645e+00
   1.498732e+01   1.124009e+01
   4.070444e+00   2.623817e+00
   2.391527e+00  -5.690432e+00
   1.323205e+01   7.657437e+00
   2.197272e+01   3.076162e+01
   1.041933e+01   3.583813e+01
  -2.087327e+01   1.552113e+01
  -4.717791e+01  -1.063264e+01
  -4.223321e+01  -2.241344e+01
  -7.570323e+00  -1.894872e+01
   2.592162e+01  -1.058453e+01
   2.974327e+01  -2.775249e+00
   7.808191e+00   4.262987e+00
  -1.085967e+01   7.575081e+00
  -7.970019e+00   3.964025e+00
   3.638350e+00  -1.731425e+00
  -3.094143e-01  -1.347640e+00
  -2.133814e+01   2.064087e+00
  -3.298760e+01  -5.405514e+00
  -1.175388e+01  -2.728606e+01
   3.281534e+01  -4.333496e+01
   6.451435e+01  -2.844476e+01
   5.617548e+01   1.514495e+01
   1.541305e+01   5.399723e+01
  -2.518871e+01   5.678777e+01
  -3.962721e+01   2.670357e+01
  -2.831734e+01  -4.694158e+00
  -1.040705e+01  -1.322289e+01
  -2.456166e+00  -5.110723e+00
  -5.989381e+00  -3.402578e+00
  -1.102278e+01  -1.749503e+01
  -6.872778e+00  -3.199422e+01
   8.921102e+00  -2.562001e+01
   2.685296e+01   3.170929e+00
   3.003599e+01   3.232817e+01
   9.046328e+00   3.724228e+01
  -2.342090e+01   1.395129e+01
  -3.805832e+01  -1.817616e+01
  -1.768898e+01  -3.455883e+01
   1.997789e+01  -2.538929e+01
   3.739770e+01  -6.256528e-01
   1.887684e+01   2.049072e+01
  -1.051102e+01   2.430324e+01
  -1.520389e+01   1.171304e+01
   7.057927e+00  -3.242830e+00
   2.331321e+01  -4.873858e+00
   7.779013e+00   9.392439e+00
  -2.596796e+01   2.422253e+01
  -4.260878e+01   2.007309e+01
  -2.698573e+01  -5.130182e+00
   2.467225e+00  -3.024084e+01
   1.942082e+01  -3.121726e+01
   1.666459e+01  -7.326846e+00
   4.542195e+00   1.699347e+01
  -6.508531e+00   1.828365e+01
  -1.266632e+01  -1.172840e+00
  -1.146302e+01  -1.801022e+01
  -1.396448e+00  -1.519157e+01
   1.158581e+01   3.248522e-01
   1.588972e+01   8.757983e+00
   7.641556e+00   2.037370e+00
  -2.735037e+00  -7.841972e+00
  -3.140243e+00  -5.137286e+00
   3.829322e+00   9.464860e+00
   4.229753e+00   1.908996e+01
  -7.011779e+00   1.075652e+01
  -1.654682e+01  -8.663512e+00
  -8.686153e+00  -1.943620e+01
   1.231219e+01  -1.063648e+01
   2.346844e+01   8.550843e+00
   9.020660e+00   1.975967e+01
  -1.938262e+01   1.433923e+01
  -3.347481e+01  -9.026025e-01
  -1.900799e+01  -1.374048e+01
   8.684467e+00  -1.748997e+01
   2.192385e+01  -1.265010e+01
   1.079845e+01  -3.757033e+00
  -7.713892e+00   2.380359e+00
  -1.041761e+01   1.244056e-01
   6.366774e+00  -7.704439e+00
   2.415627e+01  -8.512973e+00
