
 $NMID
 id='ANONYMOUS ', fmtdat='(2E16.6)'
 volume=1.0
 tramp=1.0
 $END
   1.585094e+01   8.765880e+01
  -7.913117e+01   6.603079e+01
  -9.541458e+01  -3.825783e+01
  -1.317164e+01  -9.818948e+01
   6.664319e+01  -5.303292e+01
   6.155213e+01   2.710447e+01
  -1.129701e-01   5.140606e+01
  -4.044305e+01   1.547370e+01
  -2.979697e+01  -2.476591e+01
   5.083706e+00  -3.352320e+01
   3.095735e+01  -1.511483e+01
   3.237065e+01   1.246355e+01
   9.597826e+00   2.959056e+01
  -1.842456e+01   2.030059e+01
  -2.314830e+01  -7.480063e+00
   1.949611e-01  -2.122593e+01
   2.120111e+01  -3.711879e+00
   1.345722e+01   2.158683e+01
  -1.041505e+01   2.378533e+01
  -2.134967e+01   6.100890e+00
  -1.495037e+01  -7.581177e+00
  -7.183519e+00  -1.094840e+01
  -2.788374e+00  -1.363716e+01
   5.100892e+00  -1.378499e+01
   1.163945e+01  -2.079587e+00
   4.520878e+00   1.213191e+01
  -9.869404e+00   8.291125e+00
  -1.029705e+01  -1.094084e+01
   6.319296e+00  -1.925295e+01
   1.831482e+01  -5.298730e+00
   1.109882e+01   1.179896e+01
  -4.167438e+00   1.244963e+01
  -1.033808e+01   1.075520e+00
  -5.149357e+00  -7.866855e+00
   4.756394e+00  -9.394765e+00
   1.412052e+01  -4.034812e+00
   1.566083e+01   8.036841e+00
   2.727556e+00   1.825988e+01
  -1.534535e+01   1.193453e+01
  -1.658372e+01  -8.378066e+00
   3.367818e+00  -1.769100e+01
   1.950268e+01  -1.729543e+00
   1.024965e+01   1.925721e+01
  -1.148682e+01   1.764830e+01
  -1.739998e+01  -2.396309e+00
  -3.553854e+00  -1.351683e+01
   8.595481e+00  -5.266950e+00
   5.299858e+00   6.351298e+00
  -5.181260e+00   6.894001e+00
  -1.022802e+01  -1.495684e-01
  -7.043237e+00  -6.556252e+00
   2.010478e+00  -1.003160e+01
   1.258827e+01  -7.882539e+00
   1.506693e+01   2.894138e+00
   3.077088e+00   1.413226e+01
  -1.229229e+01   1.128208e+01
  -1.217301e+01  -3.885819e+00
   2.689807e+00  -1.121226e+01
   1.067227e+01  -1.174842e+00
   1.354146e+00   9.834233e+00
  -8.758963e+00   4.983868e+00
  -3.205090e+00  -6.891040e+00
   8.377957e+00  -6.637284e+00
   7.164202e+00   4.748633e+00
  -4.384755e+00   9.977833e+00
  -8.533210e+00   4.028208e+00
  -2.032481e+00  -9.288546e-01
   8.225264e-01   1.311882e+00
  -5.826132e+00   1.703974e+00
  -9.872690e+00  -5.671508e+00
  -2.398988e+00  -1.180019e+01
   7.677793e+00  -7.388681e+00
   8.173442e+00   2.172627e+00
   1.226885e+00   5.585392e+00
  -2.701236e+00   1.606362e+00
  -5.011514e-01  -2.335937e+00
   2.604970e+00  -2.169255e+00
   2.755508e+00  -3.236336e-02
   7.032992e-01   1.499185e+00
  -1.538635e+00   1.546983e+00
  -1.834208e+00  -3.473754e-01
   1.491823e+00  -2.608114e+00
   6.095768e+00  -1.264493e+00
   6.103488e+00   4.358886e+00
   7.082785e-03   8.516028e+00
  -5.961807e+00   6.198876e+00
  -6.421968e+00   4.457530e-01
  -4.159523e+00  -2.422365e+00
  -3.951668e+00  -1.919581e+00
  -4.141745e+00  -2.166432e+00
  -9.676159e-01  -4.028724e+00
   3.048197e+00  -4.722386e+00
   3.008585e+00  -3.752454e+00
   9.212886e-01  -2.961861e+00
   2.330923e+00  -1.600718e+00
   5.486540e+00   2.185067e+00
   3.523292e+00   5.450507e+00
  -2.641745e+00   3.151186e+00
  -3.952578e+00  -2.702564e+00
   1.990436e+00  -4.077778e+00
   5.986848e+00   9.965280e-01
   1.786746e+00   4.914066e+00
  -3.732391e+00   2.445755e+00
  -1.988375e+00  -1.161331e+00
   3.318923e+00   6.485918e-01
   2.681295e+00   4.829809e+00
  -3.720282e+00   4.124531e+00
  -6.914529e+00  -9.690068e-01
  -3.483179e+00  -3.589092e+00
   5.641839e-01  -1.750683e+00
   5.817040e-01  -2.757627e-01
  -6.275600e-01  -1.698070e+00
   3.237292e-01  -2.621096e+00
   1.615114e+00  -6.392567e-01
   6.808391e-01   1.376135e+00
  -9.300215e-01   4.917542e-01
  -8.062020e-01  -1.651557e+00
   2.373617e-01  -2.267076e+00
   6.638535e-01  -1.643038e+00
   1.386738e+00  -1.141248e+00
   3.169609e+00  -2.487760e-01
   3.879681e+00   1.515600e+00
   1.780915e+00   2.513270e+00
  -9.078082e-01   1.664892e+00
  -1.216245e+00   8.407584e-01
  -1.082183e-01   1.739734e+00
  -4.069559e-01   2.600506e+00
  -1.778237e+00   1.122928e+00
  -1.658759e+00  -1.243989e+00
  -1.143697e-01  -1.383987e+00
   2.179400e-01   4.457146e-01
  -1.240434e+00   1.216332e+00
  -2.168786e+00   2.070417e-02
  -1.412666e+00  -1.166174e+00
  -4.912371e-01  -1.367717e+00
  -3.776630e-01  -1.751062e+00
   1.034880e-01  -2.578359e+00
   1.609847e+00  -2.308004e+00
   2.741663e+00  -5.710283e-01
   2.437642e+00   8.475914e-01
   1.592564e+00   1.038191e+00
   1.048723e+00   1.320686e+00
   1.715175e-01   2.376353e+00
  -1.259484e+00   2.620809e+00
  -1.906579e+00   1.016971e+00
  -1.155503e+00  -8.242321e-01
  -4.918145e-01  -1.211231e+00
  -8.724149e-01  -9.739533e-01
  -7.453314e-01  -1.416389e+00
   1.182386e+00  -1.538265e+00
   3.026802e+00   1.884844e-01
   2.179024e+00   2.611631e+00
  -6.217802e-01   3.155577e+00
  -2.418525e+00   1.544192e+00
  -2.351764e+00  -2.381726e-01
  -1.971180e+00  -1.183296e+00
  -1.775987e+00  -1.917279e+00
  -6.080951e-01  -2.403967e+00
   1.360829e+00  -1.705702e+00
   2.172459e+00  -2.714029e-01
   1.390775e+00   1.625948e-01
   9.822967e-01  -4.196330e-01
   1.697080e+00   4.778321e-02
   1.377475e+00   2.042893e+00
  -1.254254e+00   2.930572e+00
  -3.565591e+00   7.924764e-01
  -2.352124e+00  -2.267220e+00
   1.359841e+00  -2.790995e+00
   3.568177e+00  -5.674569e-01
   2.525394e+00   1.654087e+00
   1.368666e-01   2.154684e+00
  -1.471979e+00   1.666899e+00
  -2.173255e+00   1.167718e+00
  -2.391069e+00   5.024958e-01
  -1.851646e+00  -4.890664e-01
  -6.676336e-01  -1.267134e+00
   1.025912e-01  -1.596397e+00
   1.577442e-02  -1.947237e+00
   8.787546e-02  -2.350482e+00
   1.139293e+00  -1.953754e+00
   2.348043e+00  -3.204468e-01
   2.382622e+00   1.652488e+00
   1.165350e+00   2.641385e+00
  -3.076521e-01   2.155896e+00
  -1.198803e+00   6.821942e-01
  -1.195191e+00  -7.575986e-01
  -4.151603e-01  -1.088647e+00
   3.298784e-01  -8.511824e-02
  -2.293700e-03   1.029894e+00
  -1.140528e+00   7.998300e-01
  -1.310529e+00  -4.619940e-01
   3.259602e-01  -9.665617e-01
   1.903684e+00  -4.838726e-02
   1.046789e+00   8.380245e-01
  -1.635562e+00   3.710655e-01
  -3.000603e+00  -7.332528e-01
  -1.422970e+00  -1.103765e+00
   1.253052e+00  -7.787114e-01
   2.333381e+00  -5.261134e-01
   1.388660e+00  -1.533259e-01
  -1.159248e-01   7.738125e-01
  -1.072675e+00   1.255820e+00
  -1.347862e+00  -1.870637e-02
  -8.890948e-01  -2.060653e+00
   3.329655e-01  -2.282493e+00
   1.589473e+00  -2.307670e-01
   1.812097e+00   1.462429e+00
   1.019742e+00   8.131331e-01
   4.399107e-01  -6.645682e-01
   7.912415e-01  -3.192544e-01
   1.140550e+00   1.770198e+00
   1.185912e-01   3.090213e+00
  -2.040640e+00   2.176632e+00
  -3.389657e+00   6.560170e-02
  -2.393905e+00  -1.531137e+00
   1.943462e-01  -1.946628e+00
   1.964040e+00  -1.351539e+00
   1.363940e+00  -2.095006e-01
  -6.882743e-01   6.424034e-01
  -1.911287e+00   4.048165e-01
  -1.154660e+00  -6.785318e-01
   6.004243e-01  -1.407235e+00
   1.647754e+00  -1.056817e+00
   1.378501e+00  -1.436487e-01
   4.743092e-01   4.212115e-01
  -1.424435e-01   2.947706e-01
  -1.655150e-02  -2.981176e-01
   8.026815e-01  -7.549045e-01
   1.724837e+00  -1.747696e-01
   1.729176e+00   1.734392e+00
   2.530059e-01   3.510929e+00
  -1.852136e+00   2.930198e+00
  -2.842648e+00  -8.347789e-02
  -1.893372e+00  -2.671052e+00
  -2.053069e-02  -2.329284e+00
   1.076571e+00  -8.049056e-02
   7.752511e-01   1.108913e+00
  -1.387782e-01   4.007583e-01
  -5.868919e-01  -3.213568e-01
  -2.756223e-01   1.812599e-01
   2.066217e-01   7.022647e-01
   9.898838e-02  -6.363578e-02
  -6.659810e-01  -1.225178e+00
  -1.222618e+00  -1.200600e+00
  -6.295369e-01  -2.930634e-01
   9.103241e-01  -1.364564e-02
   2.031655e+00  -4.614265e-01
   1.680623e+00  -2.566434e-01
   3.000301e-01   9.137567e-01
  -7.903401e-01   1.504044e+00
  -8.936553e-01   5.098964e-01
  -3.891706e-01  -8.050221e-01
   4.889699e-02  -7.038513e-01
   1.424943e-01   4.429231e-01
   3.864159e-02   7.459023e-01
   1.450750e-01  -3.562943e-01
   8.139249e-01  -1.202983e+00
   1.668685e+00  -1.860923e-01
   1.468380e+00   2.041281e+00
  -5.339664e-01   3.270316e+00
  -3.090912e+00   2.206735e+00
  -3.805532e+00  -3.218660e-01
  -1.876295e+00  -2.416016e+00
   8.329277e-01  -2.848897e+00
   2.012336e+00  -1.789815e+00
   1.421588e+00  -2.864103e-01
   4.786848e-01   6.836874e-01
   1.177473e-01   8.351889e-01
   1.452011e-01   5.857915e-01
   2.457573e-01   5.535716e-01
   3.213843e-01   9.189678e-01
  -7.435129e-02   1.176243e+00
  -1.290212e+00   6.033912e-01
  -2.342111e+00  -8.428797e-01
  -1.525544e+00  -2.122363e+00
   1.051771e+00  -1.912613e+00
   2.799876e+00  -7.641080e-02
   1.656851e+00   1.839230e+00
  -1.067070e+00   1.994493e+00
  -2.228763e+00   2.570282e-01
  -8.344817e-01  -1.535175e+00
   9.863232e-01  -1.568547e+00
   1.052937e+00  -5.721950e-02
  -2.549605e-01   1.126892e+00
  -1.045213e+00   6.962825e-01
  -4.644555e-01  -6.825567e-01
   7.150709e-01  -1.376580e+00
   1.417201e+00  -6.646393e-01
   1.213759e+00   7.202814e-01
   2.341931e-01   1.595050e+00
  -9.931121e-01   1.378390e+00
  -1.599082e+00   2.898606e-01
  -9.950134e-01  -9.139236e-01
   3.474506e-01  -1.313073e+00
   1.194033e+00  -5.067724e-01
   8.420687e-01   7.681644e-01
  -1.708293e-01   1.164004e+00
  -7.843573e-01   3.019474e-01
  -5.782556e-01  -5.843154e-01
  -7.443963e-02  -2.122251e-01
  -5.602753e-02   8.488914e-01
  -6.823500e-01   7.779412e-01
  -1.198274e+00  -9.007648e-01
  -6.331851e-01  -2.354179e+00
   9.639162e-01  -1.713780e+00
   2.154862e+00   4.365290e-01
   1.507637e+00   1.798580e+00
  -5.608153e-01   1.224814e+00
  -1.930568e+00  -2.119774e-01
  -1.128314e+00  -9.848245e-01
   9.232222e-01  -8.210232e-01
   2.007421e+00  -2.588922e-01
   1.155475e+00   4.497466e-01
  -5.130710e-01   1.140438e+00
  -1.340013e+00   1.145754e+00
  -8.346439e-01   5.033255e-02
   2.574062e-01  -1.173025e+00
   9.363728e-01  -9.566975e-01
   6.730917e-01   6.767795e-01
  -3.485948e-01   1.734850e+00
