
 $NMID
 id='ANONYMOUS ', fmtdat='(2E16.6)'
 volume=1.0
 tramp=1.0
 $END
  -4.625747e+03  -1.921986e+01
  -2.604131e+03  -2.866610e+03
   9.433027e+02  -2.904720e+03
   2.320916e+03  -7.689759e+02
   9.176682e+02   8.763799e+02
  -8.452134e+02   6.486546e+02
  -1.009112e+03  -5.399463e+02
   4.555730e+01  -1.196604e+03
   9.359366e+02  -8.156380e+02
   1.007077e+03   1.570919e+02
   4.389354e+02   9.571827e+02
  -3.172349e+02   9.425740e+02
  -7.210112e+02   8.304201e+01
  -4.062434e+02  -8.042404e+02
   3.202284e+02  -7.974884e+02
   6.579320e+02   3.864122e+01
   2.573922e+02   7.346102e+02
  -3.786546e+02   6.320549e+02
  -6.095061e+02   3.968570e+01
  -3.680609e+02  -3.972893e+02
   1.620767e+01  -4.534918e+02
   2.737950e+02  -2.637364e+02
   2.457368e+02   3.164206e+00
  -1.037248e+02   1.327090e+02
  -4.447669e+02  -7.841979e+01
  -2.482476e+02  -4.562213e+02
   4.671013e+02  -4.730116e+02
   9.142834e+02   5.792143e+01
   4.755918e+02   6.039342e+02
  -4.208551e+02   5.511895e+02
  -8.105068e+02  -2.120168e+01
  -3.823473e+02  -5.186413e+02
   2.944130e+02  -5.599939e+02
   5.985695e+02  -2.160630e+02
   4.388067e+02   2.492985e+02
   6.213181e+01   5.169102e+02
  -2.442733e+02   3.050250e+02
  -2.196157e+02  -2.555684e+02
   1.711953e+02  -5.070856e+02
   5.109272e+02  -3.593939e+00
   2.954833e+02   7.378510e+02
  -3.458409e+02   7.677864e+02
  -6.762482e+02  -3.079028e+00
  -2.880503e+02  -6.202190e+02
   3.328244e+02  -3.614265e+02
   4.376688e+02   3.441985e+02
  -6.125162e+01   5.898921e+02
  -5.865853e+02   1.536497e+02
  -6.227185e+02  -4.200341e+02
  -1.664722e+02  -6.103819e+02
   4.066478e+02  -3.647173e+02
   6.591787e+02   8.028153e+01
   3.808686e+02   4.199351e+02
  -1.850346e+02   3.982744e+02
  -4.836708e+02   4.503753e+01
  -2.451441e+02  -2.401882e+02
   1.533458e+02  -1.261999e+02
   1.664566e+02   1.838580e+02
  -1.852864e+02   2.196836e+02
  -3.794463e+02  -8.394692e+01
  -1.441031e+02  -3.292518e+02
   2.196240e+02  -2.618943e+02
   3.275963e+02  -5.552972e+01
   1.771539e+02   8.154370e+01
  -2.520898e+01   1.959619e+02
  -1.980265e+02   3.142503e+02
  -3.279826e+02   2.348552e+02
  -3.072945e+02  -1.284380e+02
  -8.796173e+01  -4.564706e+02
   1.362845e+02  -4.018575e+02
   1.468094e+02  -9.620235e+01
   2.090835e+01   4.266350e+01
   1.573245e+01  -8.060538e+01
   1.793995e+02  -1.525192e+02
   2.904194e+02   3.207196e+01
   1.804646e+02   2.737062e+02
  -6.395235e+01   2.759292e+02
  -2.388870e+02   2.647281e+01
  -2.172186e+02  -2.394215e+02
  -1.655918e+00  -3.081909e+02
   2.718405e+02  -1.335057e+02
   3.767286e+02   1.640772e+02
   1.932575e+02   3.646834e+02
  -1.111848e+02   3.182743e+02
  -2.425147e+02   1.126035e+02
  -1.506681e+02  -1.470923e+01
  -8.437768e+01   2.633679e+01
  -2.195673e+02   7.401247e+01
  -3.959402e+02  -4.329995e+01
  -3.354552e+02  -2.773069e+02
  -7.108373e+00  -4.415134e+02
   3.487222e+02  -4.176414e+02
   4.868922e+02  -2.103329e+02
   3.496229e+02   8.925332e+01
   6.577094e+01   3.057585e+02
  -1.395758e+02   2.686496e+02
  -1.016717e+02   2.682936e+01
   1.080944e+02  -1.279753e+02
   2.162780e+02  -3.337034e+00
   6.302807e+01   2.125405e+02
  -1.747113e+02   1.920921e+02
  -2.001345e+02  -6.315273e+01
   1.396308e+01  -2.116677e+02
   2.045788e+02  -4.312000e+01
   1.679298e+02   2.501314e+02
  -3.322072e+01   3.496633e+02
  -2.245889e+02   1.877398e+02
  -3.139469e+02  -6.082843e+01
  -2.759136e+02  -2.273890e+02
  -1.058403e+02  -2.577321e+02
   1.071931e+02  -1.662423e+02
   1.850592e+02  -2.608468e+01
   6.587523e+01   3.783555e+01
  -7.582204e+01  -3.130176e+01
  -4.031380e+01  -1.284998e+02
   1.233670e+02  -1.106106e+02
   1.882327e+02   7.558368e+00
   6.672592e+01   7.798890e+01
  -7.918997e+01   2.627943e+01
  -6.090061e+01  -6.588165e+01
   1.132154e+02  -8.639576e+01
   2.721351e+02  -8.463267e+00
   2.633001e+02   1.266279e+02
   7.176664e+01   2.494583e+02
  -1.734669e+02   2.688483e+02
  -2.859051e+02   1.369391e+02
  -1.801189e+02  -5.243981e+01
   2.226642e+01  -1.198084e+02
   9.960017e+01  -1.292941e+01
  -2.519597e+01   1.085501e+02
  -1.979828e+02   6.914363e+01
  -2.214355e+02  -1.000443e+02
  -7.472774e+01  -2.131665e+02
   9.495889e+01  -1.653836e+02
   1.497028e+02  -3.378415e+01
   7.872414e+01   4.312009e+01
  -2.291644e+01   1.192691e+01
  -4.160887e+01  -7.247545e+01
   6.040070e+01  -1.103688e+02
   1.904522e+02  -3.622732e+01
   1.937547e+02   1.160238e+02
   2.673805e+01   2.190378e+02
  -1.649699e+02   1.688759e+02
  -1.995829e+02   5.963749e+00
  -6.911405e+01  -1.206299e+02
   6.758649e+01  -1.173355e+02
   8.753723e+01  -3.301437e+01
   2.476412e+01   2.653422e+01
  -1.583554e+01   2.246595e+01
   9.312073e+00  -1.692254e+00
   6.299207e+01   1.111141e+01
   8.145076e+01   7.556731e+01
   1.815454e+01   1.488542e+02
  -1.163174e+02   1.508398e+02
  -2.278846e+02   3.355952e+01
  -2.038874e+02  -1.425665e+02
  -4.532811e+01  -2.370054e+02
   1.091248e+02  -1.725124e+02
   1.366252e+02  -2.666487e+01
   6.888913e+01   5.850952e+01
   2.647203e+01   3.755465e+01
   5.159579e+01  -1.164804e+01
   7.551227e+01  -6.932154e+00
   3.656309e+01   4.529967e+01
  -4.103685e+01   7.990350e+01
  -9.228109e+01   5.114296e+01
  -7.665572e+01  -2.998696e+01
   1.001047e+01  -1.012892e+02
   1.297288e+02  -8.480991e+01
   1.911330e+02   4.200047e+01
   1.069891e+02   1.926911e+02
  -9.518569e+01   2.289397e+02
  -2.617896e+02   1.030834e+02
  -2.597451e+02  -8.059066e+01
  -1.138625e+02  -1.763821e+02
   3.658281e+01  -1.491907e+02
   9.491320e+01  -8.529315e+01
   8.117065e+01  -6.872834e+01
   6.794228e+01  -8.841366e+01
   9.074390e+01  -7.153116e+01
   1.247607e+02   2.191760e+01
   1.162136e+02   1.504400e+02
   3.216681e+01   2.222901e+02
  -9.511722e+01   1.724592e+02
  -1.747820e+02   2.502848e+01
  -1.391616e+02  -1.169840e+02
  -2.380996e+01  -1.585668e+02
   6.296541e+01  -9.590977e+01
   5.879967e+01  -6.479451e+00
   8.575261e+00   3.836924e+01
  -4.326760e+00   3.411533e+01
   3.845127e+01   2.016557e+01
   7.584334e+01   2.326022e+01
   4.231401e+01   3.626052e+01
  -5.876940e+01   3.590388e+01
  -1.493679e+02   6.418955e+00
  -1.408341e+02  -4.482327e+01
  -2.163638e+01  -8.401251e+01
   1.127959e+02  -7.430310e+01
   1.424237e+02  -1.720650e+01
   4.969395e+01   3.667614e+01
  -5.848375e+01   3.501111e+01
  -7.371608e+01  -1.825257e+01
  -4.449440e+00  -6.467815e+01
   5.713253e+01  -5.400654e+01
   6.003511e+01   2.924521e+00
   3.893752e+01   4.798463e+01
   4.133556e+01   4.000810e+01
   6.208151e+01   2.252725e+00
   6.521021e+01   7.017611e-02
   3.198325e+01   6.391952e+01
  -3.279269e+01   1.399933e+02
  -1.093982e+02   1.376231e+02
  -1.546996e+02   3.422653e+01
  -1.187786e+02  -8.656770e+01
  -9.195649e+00  -1.210903e+02
   8.102755e+01  -5.839386e+01
   5.773480e+01   1.559179e+01
  -5.802773e+01   1.982360e+01
  -1.361483e+02  -4.233879e+01
  -7.702543e+01  -1.051195e+02
   7.721029e+01  -1.120266e+02
   1.877309e+02  -5.514263e+01
   1.621732e+02   2.962756e+01
   3.955969e+01   8.551190e+01
  -5.840462e+01   7.263283e+01
  -4.855998e+01   1.051788e+01
   3.702117e+01  -2.527001e+01
   8.787857e+01   2.230283e+01
   3.057077e+01   1.166142e+02
  -9.245256e+01   1.504549e+02
  -1.664036e+02   5.886103e+01
  -1.243169e+02  -1.007456e+02
  -9.105795e+00  -1.949245e+02
   8.414646e+01  -1.429088e+02
   1.029951e+02   4.202365e+00
   6.237818e+01   1.145657e+02
   2.783458e+00   1.061899e+02
  -4.304981e+01   2.230951e+01
  -5.353936e+01  -3.012845e+01
  -2.854093e+01  -9.085519e+00
  -3.178223e+00   2.133477e+01
  -1.720229e+01  -1.205311e+01
  -5.449905e+01  -8.571802e+01
  -4.515813e+01  -1.088813e+02
   4.262325e+01  -4.600118e+01
   1.365001e+02   3.874585e+01
   1.301439e+02   6.968499e+01
   1.738998e+01   4.733917e+01
  -8.842584e+01   2.059112e+01
  -8.728767e+01   8.604010e+00
  -8.595756e+00  -5.385326e+00
   3.913692e+01  -2.221326e+01
   1.215560e+01  -1.999855e+01
  -2.307677e+01   4.352735e-01
   6.471526e+00   1.021600e+01
   7.514039e+01   5.633259e+00
   8.896637e+01   2.374757e+01
   3.913663e+00   7.759641e+01
  -1.192936e+02   1.100530e+02
  -1.799379e+02   5.483719e+01
  -1.342876e+02  -6.815872e+01
  -2.309490e+01  -1.589182e+02
   7.613465e+01  -1.447977e+02
   1.102319e+02  -5.499878e+01
   7.871094e+01   2.173057e+01
   2.395714e+01   3.354344e+01
  -4.605982e+00   6.746748e+00
   8.891392e+00   2.231106e+00
   3.361725e+01   4.343957e+01
   2.421820e+01   8.767395e+01
  -2.832323e+01   6.996861e+01
  -8.007903e+01  -1.931457e+01
  -7.411451e+01  -1.079130e+02
  -7.627061e-01  -1.097955e+02
   8.267964e+01  -2.009273e+01
   9.928188e+01   7.716617e+01
   2.850862e+01   1.008527e+02
  -6.537316e+01   5.115631e+01
  -9.321759e+01  -1.276820e+01
  -3.625024e+01  -4.648590e+01
   3.098630e+01  -4.713966e+01
   2.735932e+01  -2.750697e+01
  -3.576292e+01  -1.738139e+00
  -6.789146e+01   5.769283e+00
  -1.344786e+01  -2.357000e+01
   7.749822e+01  -6.462241e+01
   1.109993e+02  -5.944890e+01
   5.986949e+01   9.533955e+00
  -1.604468e+01   8.018287e+01
  -4.972080e+01   7.635285e+01
  -3.300984e+01   3.320746e+00
   6.866294e-01  -5.554923e+01
   2.563069e+01  -3.983796e+01
   3.504820e+01   2.063016e+01
   2.517185e+01   5.265348e+01
  -3.211922e+00   2.951350e+01
  -3.206681e+01  -9.548911e+00
  -3.803720e+01  -1.891328e+01
  -2.013563e+01   2.619533e-01
  -1.802271e-01   1.167923e+01
   7.119208e+00  -6.838918e+00
   1.016158e+01  -3.689167e+01
   2.107446e+01  -4.031887e+01
   3.274891e+01  -2.425980e+00
   2.547236e+01   4.694891e+01
  -7.193334e+00   5.928947e+01
  -4.481729e+01   1.806180e+01
  -5.266131e+01  -4.025140e+01
  -1.218370e+01  -6.228383e+01
   5.273107e+01  -3.241428e+01
   8.484049e+01   1.638677e+01
   4.710623e+01   4.320553e+01
  -2.802007e+01   3.798722e+01
  -6.272674e+01   1.840306e+01
  -2.190000e+01   4.111860e+00
   3.913205e+01   4.426379e+00
   3.785780e+01   1.871444e+01
  -3.276698e+01   3.215975e+01
  -9.330208e+01   1.818542e+01
