
 $NMID
 id='ANONYMOUS ', fmtdat='(2E16.6)'
 volume=1.0
 tramp=1.0
 $END
   1.427815e+03  -7.387417e+01
   1.085445e+03   5.790486e+02
   2.434756e+02   9.322572e+02
  -4.325564e+02   7.928717e+02
  -5.277478e+02   3.317602e+02
  -2.039255e+02  -4.005034e+01
   8.263289e+01  -5.503359e+01
   7.421799e+01   1.650987e+02
  -1.254551e+02   2.799532e+02
  -2.740863e+02   1.149680e+02
  -2.464291e+02  -1.725368e+02
  -8.559108e+01  -2.930595e+02
   7.800452e+01  -1.349637e+02
   1.167129e+02   1.343718e+02
  -3.757395e+00   2.432727e+02
  -1.653216e+02   7.956796e+01
  -1.807061e+02  -2.023613e+02
   3.302712e+00  -3.342384e+02
   2.188425e+02  -2.033196e+02
   2.556789e+02   4.230857e+01
   1.075047e+02   1.730199e+02
  -2.930616e+01   1.323595e+02
  -5.248609e+00   6.325357e+01
   1.049758e+02   9.361699e+01
   1.113424e+02   1.735861e+02
  -4.980325e+01   1.645286e+02
  -2.361192e+02   3.407861e+01
  -2.574064e+02  -1.048262e+02
  -7.992788e+01  -1.338576e+02
   1.379930e+02  -4.726020e+01
   2.029827e+02   7.443177e+01
   7.161645e+01   1.524831e+02
  -1.201828e+02   1.481350e+02
  -2.058587e+02   6.156527e+01
  -1.510707e+02  -5.806951e+01
  -5.827739e+01  -1.223104e+02
  -2.972825e+01  -7.933047e+01
  -6.289773e+01   1.038889e+01
  -8.439766e+01   2.043965e+01
  -4.711894e+01  -9.011549e+01
   3.090874e+01  -2.044924e+02
   9.737496e+01  -1.751499e+02
   1.057142e+02  -1.410671e+01
   4.458237e+01   1.013339e+02
  -3.710827e+01   3.885932e+01
  -4.789178e+01  -1.183645e+02
   5.769688e+01  -1.650654e+02
   2.013794e+02  -2.161175e+01
   2.334918e+02   1.736515e+02
   8.906197e+01   2.337589e+02
  -1.287292e+02   1.284974e+02
  -2.439556e+02  -1.828489e+01
  -1.776447e+02  -9.307207e+01
  -9.817292e+00  -9.051527e+01
   1.129644e+02  -6.025229e+01
   1.135933e+02  -2.912042e+01
   3.782537e+01  -3.301283e+00
  -7.680334e+00   4.451744e+00
   3.012452e+01  -3.822089e+00
   9.122878e+01   1.026987e+01
   6.778304e+01   7.181287e+01
  -6.129352e+01   1.293178e+02
  -1.812984e+02   9.229315e+01
  -1.573396e+02  -5.148434e+01
   8.080460e+00  -1.926298e+02
   1.692341e+02  -2.039643e+02
   1.969498e+02  -7.387091e+01
   1.097554e+02   8.743209e+01
   2.437532e+01   1.671842e+02
   6.640036e+00   1.516364e+02
   1.387684e+01   1.070256e+02
  -2.127936e+01   8.448735e+01
  -9.517702e+01   6.700491e+01
  -1.423218e+02   1.118898e+01
  -1.157528e+02  -7.684074e+01
  -3.225958e+01  -1.285275e+02
   5.253042e+01  -8.419522e+01
   8.907294e+01   3.220306e+01
   5.624443e+01   1.251539e+02
  -3.130542e+01   1.177284e+02
  -1.212135e+02   2.111444e+01
  -1.478006e+02  -8.691210e+01
  -8.724947e+01  -1.395266e+02
   1.080534e+01  -1.291147e+02
   7.048786e+01  -9.176164e+01
   7.658478e+01  -6.237809e+01
   9.002523e+01  -4.504058e+01
   1.558604e+02  -1.441671e+01
   2.175529e+02   5.587642e+01
   1.666683e+02   1.556386e+02
  -1.459080e+01   2.269082e+02
  -2.008065e+02   2.057582e+02
  -2.453336e+02   8.830338e+01
  -1.373004e+02  -5.063772e+01
  -3.998393e+00  -1.186486e+02
   3.621078e+01  -8.974652e+01
  -1.250514e+01  -2.291362e+01
  -6.137840e+01   4.173520e+00
  -4.994055e+01  -2.541569e+01
   4.487417e+00  -5.836098e+01
   4.662711e+01  -3.854413e+01
   3.901954e+01   2.267910e+01
  -1.525816e+01   5.172413e+01
  -7.434121e+01  -6.515235e+00
  -7.814861e+01  -1.171491e+02
   3.746264e+00  -1.767950e+02
   1.276217e+02  -1.151953e+02
   1.965048e+02   2.880112e+01
   1.487917e+02   1.417524e+02
   2.472700e+01   1.460525e+02
  -7.033464e+01   6.875490e+01
  -7.124514e+01   6.031160e-01
  -1.211925e+01  -1.553140e+00
   2.164611e+01   3.773916e+01
  -1.021760e+01   5.576844e+01
  -6.386129e+01   2.638683e+01
  -6.770831e+01  -1.643084e+01
  -9.408206e+00  -2.317552e+01
   4.346615e+01   1.435579e+01
   1.586722e+01   5.432196e+01
  -8.495035e+01   4.752129e+01
  -1.644126e+02  -1.560843e+01
  -1.342957e+02  -9.649028e+01
  -6.976513e+00  -1.398474e+02
   1.136051e+02  -1.160290e+02
   1.350858e+02  -4.409336e+01
   6.290959e+01   2.078545e+01
  -1.622435e+01   3.178422e+01
  -2.559316e+01  -5.574166e+00
   3.306850e+01  -3.579584e+01
   9.289946e+01  -1.103779e+01
   9.131687e+01   5.304355e+01
   2.688540e+01   9.148422e+01
  -4.325523e+01   6.475786e+01
  -5.924151e+01   6.274867e+00
  -1.699447e+01  -1.666583e+01
   2.659477e+01   1.855690e+01
   1.171271e+01   6.584734e+01
  -5.839032e+01   6.433855e+01
  -1.149755e+02   2.799496e+00
  -9.355380e+01  -7.309524e+01
  -3.694449e+00  -1.062933e+02
   7.790527e+01  -7.567457e+01
   8.506735e+01  -8.769171e+00
   2.667610e+01   4.259997e+01
  -2.957370e+01   4.496055e+01
  -3.199539e+01   1.172398e+01
   4.760160e+00  -1.229900e+01
   2.432981e+01  -1.520707e+00
  -4.529879e+00   1.927247e+01
  -5.268861e+01   4.752906e+00
  -6.166950e+01  -5.112174e+01
  -5.539920e+00  -9.850804e+01
   7.974133e+01  -8.213901e+01
   1.271939e+02  -1.716736e+00
   9.904800e+01   8.510557e+01
   1.953860e+01   1.168900e+02
  -4.939208e+01   8.122092e+01
  -6.534220e+01   1.854162e+01
  -4.030663e+01  -1.885782e+01
  -1.987090e+01  -1.281759e+01
  -2.998686e+01   8.765738e+00
  -4.885645e+01   4.517795e+00
  -3.490449e+01  -3.265437e+01
   1.984749e+01  -6.265818e+01
   7.135140e+01  -4.074033e+01
   6.396875e+01   2.614648e+01
  -9.946121e+00   7.537203e+01
  -9.349734e+01   4.991859e+01
  -1.120209e+02  -3.859331e+01
  -4.072560e+01  -1.157496e+02
   7.070078e+01  -1.150688e+02
   1.404164e+02  -3.951051e+01
   1.244419e+02   4.732180e+01
   4.931413e+01   8.532416e+01
  -2.039369e+01   6.941512e+01
  -4.369503e+01   4.124062e+01
  -3.276540e+01   3.760127e+01
  -2.714156e+01   5.168311e+01
  -4.639986e+01   4.467992e+01
  -7.083495e+01  -7.192603e+00
  -6.467801e+01  -7.997427e+01
  -1.476427e+01  -1.182813e+02
   5.192226e+01  -8.637389e+01
   8.734334e+01  -4.258401e+00
   6.385838e+01   6.749781e+01
   2.731638e+00   8.061543e+01
  -4.149041e+01   3.890986e+01
  -3.357842e+01  -1.203545e+01
   4.769622e+00  -3.169812e+01
   1.917480e+01  -1.920701e+01
  -1.182542e+01  -3.730798e+00
  -4.665228e+01  -7.139377e+00
  -2.853230e+01  -2.155418e+01
   4.152919e+01  -2.250863e+01
   9.684193e+01   1.664541e+00
   7.674697e+01   3.645440e+01
  -5.079133e+00   5.433419e+01
  -7.497874e+01   3.923435e+01
  -7.657280e+01   1.302999e+00
  -2.208821e+01  -2.914881e+01
   3.138480e+01  -2.581657e+01
   4.220180e+01   8.559571e+00
   1.436850e+01   4.088866e+01
  -2.073115e+01   3.830065e+01
  -3.817760e+01   3.400882e+00
  -3.562847e+01  -2.682563e+01
  -2.729542e+01  -2.310233e+01
  -2.729911e+01  -4.674006e-02
  -3.388857e+01  -4.897732e-02
  -2.715441e+01  -3.980574e+01
   1.093878e+01  -8.368082e+01
   6.822234e+01  -7.972788e+01
   1.006682e+02  -1.909249e+01
   7.244079e+01   5.034242e+01
   7.093937e-01   7.261929e+01
  -5.081145e+01   4.002979e+01
  -3.401676e+01  -3.610460e+00
   3.010335e+01  -1.173038e+01
   6.964176e+01   1.970214e+01
   3.630368e+01   5.469034e+01
  -4.387875e+01   5.685138e+01
  -9.794174e+01   2.214976e+01
  -8.016232e+01  -2.225455e+01
  -1.455550e+01  -4.364923e+01
   3.400200e+01  -2.944568e+01
   2.509963e+01   3.052279e+00
  -2.145755e+01   1.817900e+01
  -4.999548e+01  -8.147221e+00
  -2.504446e+01  -5.959642e+01
   3.545766e+01  -8.419879e+01
   7.894811e+01  -4.255041e+01
   6.811985e+01   4.301534e+01
   1.347486e+01   9.909226e+01
  -3.991342e+01   7.365196e+01
  -5.425101e+01  -6.387143e+00
  -2.818245e+01  -6.306836e+01
   9.471032e+00  -5.239454e+01
   2.867133e+01  -6.193332e+00
   2.189683e+01   1.656510e+01
   5.933679e+00   2.964674e+00
   3.451655e+00  -8.171005e+00
   1.922593e+01   1.318909e+01
   3.204850e+01   4.714132e+01
   1.489992e+01   5.287560e+01
  -3.172584e+01   2.161625e+01
  -7.083101e+01  -1.692927e+01
  -6.287162e+01  -3.398083e+01
  -1.046654e+01  -2.889224e+01
   3.950460e+01  -1.617132e+01
   4.451679e+01  -3.522232e+00
   1.130729e+01   7.507883e+00
  -1.632153e+01   1.155346e+01
  -1.161041e+01   4.971435e+00
   5.627889e+00  -3.334628e+00
  -7.608286e-01  -1.607015e+00
  -3.254424e+01   3.547272e+00
  -4.980312e+01  -9.175121e+00
  -1.719609e+01  -4.298330e+01
   5.079596e+01  -6.574597e+01
   9.897254e+01  -4.092962e+01
   8.551715e+01   2.546184e+01
   2.219670e+01   8.245542e+01
  -4.019680e+01   8.479111e+01
  -6.134799e+01   3.899481e+01
  -4.279853e+01  -7.798365e+00
  -1.503575e+01  -2.046303e+01
  -3.186597e+00  -8.520813e+00
  -8.502943e+00  -5.840355e+00
  -1.561551e+01  -2.640807e+01
  -9.177735e+00  -4.781626e+01
   1.418029e+01  -3.832413e+01
   4.070433e+01   5.114898e+00
   4.521296e+01   4.970797e+01
   1.306901e+01   5.748728e+01
  -3.646099e+01   2.147422e+01
  -5.815968e+01  -2.848766e+01
  -2.595925e+01  -5.351897e+01
   3.178687e+01  -3.823537e+01
   5.703982e+01   7.108754e-01
   2.717172e+01   3.238430e+01
  -1.772973e+01   3.640895e+01
  -2.360501e+01   1.620637e+01
   1.115467e+01  -5.761856e+00
   3.550718e+01  -6.863806e+00
   1.129520e+01   1.483807e+01
  -3.973481e+01   3.583755e+01
  -6.427434e+01   2.825264e+01
  -4.012845e+01  -9.499726e+00
   4.757274e+00  -4.582154e+01
   3.073036e+01  -4.600384e+01
   2.638455e+01  -9.826339e+00
   6.946435e+00   2.631860e+01
  -1.090257e+01   2.777003e+01
  -2.001061e+01  -1.959470e+00
  -1.684983e+01  -2.770595e+01
  -9.169097e-01  -2.337329e+01
   1.787704e+01   7.527340e-01
   2.325753e+01   1.404157e+01
   1.102516e+01   3.419332e+00
  -3.314858e+00  -1.242243e+01
  -3.252891e+00  -8.124652e+00
   6.333750e+00   1.546275e+01
   5.326064e+00   3.089476e+01
  -1.238507e+01   1.702235e+01
  -2.616092e+01  -1.449688e+01
  -1.308924e+01  -3.125562e+01
   1.935741e+01  -1.633669e+01
   3.604410e+01   1.411800e+01
   1.350411e+01   3.058229e+01
  -2.993744e+01   2.089133e+01
  -5.105151e+01  -2.729596e+00
  -2.841795e+01  -2.145633e+01
   1.415546e+01  -2.628400e+01
   3.423634e+01  -1.857025e+01
   1.676841e+01  -4.862848e+00
  -1.211133e+01   4.549455e+00
  -1.668662e+01   6.328617e-01
   8.934486e+00  -1.215708e+01
   3.648042e+01  -1.369282e+01
