
 $NMID
 id='ANONYMOUS ', fmtdat='(2E16.6)'
 volume=1.0
 tramp=1.0
 $END
   2.118826e+03  -2.707309e+01
   1.464251e+03   1.004933e+03
   1.190130e+02   1.351519e+03
  -7.541598e+02   9.280747e+02
  -6.680957e+02   2.486594e+02
  -1.097122e+02  -1.060652e+02
   2.035834e+02   2.050456e+01
   5.894894e+01   3.238919e+02
  -2.593741e+02   3.916967e+02
  -4.172289e+02   9.451058e+01
  -3.096557e+02  -3.078380e+02
  -4.429362e+01  -4.279747e+02
   1.720876e+02  -1.470395e+02
   1.660705e+02   2.491056e+02
  -5.196592e+01   3.573675e+02
  -2.585431e+02   7.418530e+01
  -2.198831e+02  -3.113892e+02
   5.453546e+01  -4.354638e+02
   3.103076e+02  -2.202652e+02
   3.179634e+02   9.637110e+01
   1.107467e+02   2.419524e+02
  -6.742367e+01   1.725533e+02
  -3.461665e+01   6.476104e+01
   1.306682e+02   8.591328e+01
   1.770514e+02   2.041433e+02
  -2.873455e+01   2.396897e+02
  -3.213308e+02   9.105250e+01
  -3.927542e+02  -1.318469e+02
  -1.375839e+02  -2.258222e+02
   2.097418e+02  -1.141468e+02
   3.208799e+02   9.343690e+01
   1.188095e+02   2.343893e+02
  -1.734811e+02   2.269371e+02
  -2.998391e+02   8.716029e+01
  -2.151202e+02  -9.828975e+01
  -6.481385e+01  -1.964019e+02
   9.457620e-01  -1.193079e+02
  -4.572495e+01   4.693250e+01
  -1.206117e+02   8.265789e+01
  -1.150815e+02  -1.051977e+02
   6.227413e+00  -3.180250e+02
   1.577555e+02  -2.805307e+02
   1.973715e+02  -5.918181e+00
   7.543222e+01   1.899180e+02
  -8.613662e+01   8.169053e+01
  -1.019176e+02  -1.771889e+02
   7.715771e+01  -2.517650e+02
   2.931293e+02  -3.611474e+01
   3.264873e+02   2.467431e+02
   1.113493e+02   3.304806e+02
  -1.936767e+02   1.800889e+02
  -3.453031e+02  -3.636912e+01
  -2.348745e+02  -1.559041e+02
   1.674565e+01  -1.441150e+02
   1.818601e+02  -6.526658e+01
   1.494461e+02  -3.766653e-01
   2.050647e+01   8.745361e+00
  -2.566059e+01  -2.006661e+01
   5.884649e+01  -2.845609e+01
   1.445197e+02   2.602335e+01
   8.735417e+01   1.196363e+02
  -9.572038e+01   1.703736e+02
  -2.370205e+02   1.050291e+02
  -1.926442e+02  -6.642014e+01
   1.197911e+01  -2.336293e+02
   2.104449e+02  -2.601741e+02
   2.572700e+02  -1.070258e+02
   1.564319e+02   1.141400e+02
   3.265796e+01   2.389083e+02
  -1.337172e+01   2.120186e+02
  -2.605984e+00   1.258640e+02
  -2.374854e+01   8.692400e+01
  -1.059236e+02   8.411696e+01
  -1.792805e+02   3.015662e+01
  -1.622805e+02  -9.049114e+01
  -5.482090e+01  -1.758420e+02
   6.813184e+01  -1.252199e+02
   1.271443e+02   3.428822e+01
   8.594156e+01   1.681957e+02
  -3.698494e+01   1.664225e+02
  -1.670685e+02   3.686378e+01
  -2.057979e+02  -1.184219e+02
  -1.150640e+02  -1.982596e+02
   2.836039e+01  -1.779523e+02
   1.067500e+02  -1.110191e+02
   1.006471e+02  -6.502693e+01
   1.081500e+02  -5.238654e+01
   1.976376e+02  -2.368655e+01
   2.856249e+02   6.908343e+01
   2.206196e+02   2.061992e+02
  -1.850508e+01   3.015314e+02
  -2.648408e+02   2.728248e+02
  -3.287669e+02   1.180079e+02
  -1.916682e+02  -6.948960e+01
  -9.371441e+00  -1.675954e+02
   5.934732e+01  -1.289292e+02
  -1.182284e+00  -2.644102e+01
  -8.205848e+01   1.938334e+01
  -8.124880e+01  -2.995929e+01
  -3.220607e-01  -9.059532e+01
   7.456996e+01  -6.338025e+01
   6.627560e+01   3.498936e+01
  -2.089036e+01   8.219810e+01
  -1.067649e+02  -3.937432e+00
  -1.035251e+02  -1.596465e+02
   1.091878e+01  -2.348918e+02
   1.676886e+02  -1.469015e+02
   2.519851e+02   4.072426e+01
   1.944505e+02   1.843119e+02
   3.804557e+01   1.919368e+02
  -9.131110e+01   9.461508e+01
  -1.006293e+02   2.010477e+00
  -2.066193e+01  -7.159126e+00
   3.293131e+01   4.582723e+01
  -7.398266e+00   7.726009e+01
  -8.600256e+01   4.128442e+01
  -9.689170e+01  -2.076633e+01
  -1.751018e+01  -3.568210e+01
   5.768158e+01   1.302914e+01
   2.452295e+01   6.797389e+01
  -1.070448e+02   6.186985e+01
  -2.127946e+02  -1.773714e+01
  -1.780006e+02  -1.227130e+02
  -1.457514e+01  -1.838999e+02
   1.474537e+02  -1.582834e+02
   1.836021e+02  -6.233061e+01
   9.002628e+01   3.092775e+01
  -2.180817e+01   4.915026e+01
  -4.033063e+01  -5.684368e+00
   4.028928e+01  -5.236998e+01
   1.263349e+02  -1.876667e+01
   1.257816e+02   7.211069e+01
   3.646285e+01   1.264820e+02
  -6.034391e+01   8.992283e+01
  -8.326786e+01   9.506297e+00
  -2.769536e+01  -2.440866e+01
   3.226886e+01   1.872827e+01
   1.771876e+01   8.110228e+01
  -7.176927e+01   8.354993e+01
  -1.490940e+02   6.239613e+00
  -1.249087e+02  -9.544568e+01
  -5.469496e+00  -1.429448e+02
   1.065372e+02  -1.016814e+02
   1.170220e+02  -8.448888e+00
   3.625565e+01   6.182332e+01
  -4.163862e+01   6.270473e+01
  -4.589012e+01   1.591498e+01
   2.402582e+00  -1.711025e+01
   2.878988e+01  -4.524024e+00
  -5.798679e+00   2.114269e+01
  -6.487101e+01   3.652805e+00
  -7.676243e+01  -6.527394e+01
  -7.429146e+00  -1.257416e+02
   1.022249e+02  -1.073344e+02
   1.669506e+02  -4.330674e+00
   1.318999e+02   1.118493e+02
   2.489000e+01   1.567349e+02
  -6.861633e+01   1.086126e+02
  -8.802156e+01   2.231726e+01
  -5.170538e+01  -2.815220e+01
  -2.449479e+01  -1.865973e+01
  -3.902885e+01   1.062628e+01
  -6.250809e+01   5.335543e+00
  -4.230323e+01  -4.115705e+01
   2.692797e+01  -7.771097e+01
   8.921329e+01  -5.030170e+01
   7.901844e+01   3.237788e+01
  -1.249337e+01   9.451638e+01
  -1.183128e+02   6.416201e+01
  -1.453606e+02  -4.847899e+01
  -5.618836e+01  -1.507413e+02
   9.051869e+01  -1.529469e+02
   1.860106e+02  -5.367615e+01
   1.667852e+02   6.359239e+01
   6.617291e+01   1.155552e+02
  -2.797586e+01   9.359781e+01
  -5.991369e+01   5.453246e+01
  -4.611645e+01   4.859373e+01
  -3.846544e+01   6.646781e+01
  -6.208255e+01   5.671464e+01
  -9.219632e+01  -1.138542e+01
  -8.353955e+01  -1.063587e+02
  -1.833666e+01  -1.563250e+02
   6.958727e+01  -1.144867e+02
   1.168559e+02  -6.282562e+00
   8.577745e+01   8.905709e+01
   4.621715e+00   1.075495e+02
  -5.382334e+01   5.375739e+01
  -4.406589e+01  -1.274195e+01
   4.269294e+00  -3.944658e+01
   2.167545e+01  -2.532933e+01
  -1.731571e+01  -6.950018e+00
  -5.984796e+01  -1.109238e+01
  -3.602576e+01  -2.814405e+01
   5.265799e+01  -2.863215e+01
   1.239139e+02   1.889978e+00
   1.006946e+02   4.624381e+01
  -3.386496e+00   6.989994e+01
  -9.605881e+01   5.121179e+01
  -1.010927e+02   2.452780e+00
  -3.001075e+01  -3.669351e+01
   4.149639e+01  -3.197593e+01
   5.483806e+01   1.206674e+01
   1.582114e+01   5.230711e+01
  -2.982201e+01   4.775647e+01
  -4.884006e+01   2.995757e+00
  -4.324797e+01  -3.515518e+01
  -3.452265e+01  -3.029239e+01
  -3.729271e+01  -8.842778e-01
  -4.489329e+01  -5.674120e-01
  -3.311126e+01  -5.127120e+01
   1.683568e+01  -1.079441e+02
   8.865019e+01  -1.030251e+02
   1.288522e+02  -2.410482e+01
   9.286693e+01   6.618859e+01
   1.106725e+00   9.406532e+01
  -6.557319e+01   5.026750e+01
  -4.393163e+01  -6.220639e+00
   4.002284e+01  -1.475431e+01
   9.215390e+01   2.771225e+01
   4.815235e+01   7.309155e+01
  -5.813787e+01   7.509414e+01
  -1.301875e+02   2.941877e+01
  -1.070370e+02  -2.919559e+01
  -2.001421e+01  -5.840973e+01
   4.488122e+01  -4.055798e+01
   3.349733e+01   2.425332e+00
  -2.802265e+01   2.264732e+01
  -6.499024e+01  -1.221350e+01
  -3.011132e+01  -7.927935e+01
   5.099513e+01  -1.092193e+02
   1.066197e+02  -5.215690e+01
   8.849036e+01   6.008225e+01
   1.425596e+01   1.317227e+02
  -5.488685e+01   9.700213e+01
  -7.173162e+01  -8.263050e+00
  -3.749427e+01  -8.327157e+01
   1.085438e+01  -7.025583e+01
   3.676308e+01  -9.235368e+00
   3.017755e+01   2.223945e+01
   9.848502e+00   4.699764e+00
   4.361655e+00  -1.151160e+01
   2.307328e+01   1.582118e+01
   4.095877e+01   6.220592e+01
   2.084490e+01   7.139989e+01
  -4.017652e+01   2.899219e+01
  -9.350712e+01  -2.423818e+01
  -8.382980e+01  -4.662265e+01
  -1.323068e+01  -3.738142e+01
   5.391901e+01  -1.935421e+01
   5.925293e+01  -4.198710e+00
   1.340786e+01   8.801728e+00
  -2.273551e+01   1.493687e+01
  -1.437991e+01   7.845301e+00
   8.902118e+00  -3.410409e+00
  -1.480753e+00  -3.087543e+00
  -4.449249e+01   2.497278e+00
  -6.490614e+01  -1.353055e+01
  -1.866648e+01  -5.611183e+01
   7.063576e+01  -8.399162e+01
   1.300633e+02  -4.999797e+01
   1.089168e+02   3.685948e+01
   2.578140e+01   1.092825e+02
  -5.407553e+01   1.095094e+02
  -8.058139e+01   4.842645e+01
  -5.602998e+01  -1.173044e+01
  -1.909987e+01  -2.654299e+01
  -2.939601e+00  -9.989401e+00
  -1.041018e+01  -6.647916e+00
  -2.084458e+01  -3.437498e+01
  -1.231268e+01  -6.305705e+01
   1.942315e+01  -5.008159e+01
   5.390962e+01   8.564751e+00
   5.738956e+01   6.781366e+01
   1.349824e+01   7.586298e+01
  -4.980954e+01   2.511910e+01
  -7.472793e+01  -4.112802e+01
  -3.101280e+01  -7.068580e+01
   4.283610e+01  -4.738023e+01
   7.335641e+01   2.918445e+00
   3.381069e+01   4.112314e+01
  -2.328499e+01   4.522575e+01
  -2.925357e+01   2.095607e+01
   1.640103e+01  -5.677146e+00
   4.696931e+01  -7.663955e+00
   1.381160e+01   1.908655e+01
  -5.323051e+01   4.633794e+01
  -8.410444e+01   3.728951e+01
  -5.104391e+01  -1.184227e+01
   7.698053e+00  -5.954813e+01
   4.005612e+01  -5.915192e+01
   3.268819e+01  -1.100718e+01
   7.019866e+00   3.534332e+01
  -1.520789e+01   3.489514e+01
  -2.579072e+01  -4.893082e+00
  -2.103559e+01  -3.675902e+01
  -5.054981e-01  -2.901466e+01
   2.325836e+01   2.213509e+00
   2.991146e+01   1.785421e+01
   1.453168e+01   3.843626e+00
  -3.601284e+00  -1.491264e+01
  -4.649793e+00  -8.087747e+00
   5.324114e+00   2.109304e+01
   3.083153e+00   3.817910e+01
  -1.726533e+01   1.852932e+01
  -3.110833e+01  -2.152075e+01
  -1.294288e+01  -4.098246e+01
   2.659678e+01  -1.960380e+01
   4.529685e+01   2.056901e+01
   1.569751e+01   4.091437e+01
  -3.925334e+01   2.635814e+01
  -6.578077e+01  -5.520990e+00
  -3.637298e+01  -2.896127e+01
   1.903957e+01  -3.306238e+01
   4.497199e+01  -2.202911e+01
   2.094023e+01  -5.717621e+00
  -1.783080e+01   3.989202e+00
  -2.249853e+01  -1.929853e+00
   1.405371e+01  -1.679221e+01
   5.121619e+01  -1.623395e+01
