
 $NMID
 id='ANONYMOUS ', fmtdat='(2E16.6)'
 volume=1.0
 tramp=1.0
 $END
  -2.316203e+02  -7.844829e+01
  -9.351849e+01  -1.729876e+02
   7.087598e+01  -1.289422e+02
   1.132624e+02  -2.521613e+01
   4.085541e+01   2.814666e+01
  -3.052970e+01   7.557390e+00
  -2.845938e+01  -3.437794e+01
   1.964840e+01  -4.839212e+01
   5.283921e+01  -2.525409e+01
   4.525401e+01   1.736366e+01
   1.039449e+01   4.902481e+01
  -2.307846e+01   4.111737e+01
  -2.977750e+01  -3.478694e+00
  -5.313237e+00  -4.170803e+01
   2.525242e+01  -3.387072e+01
   3.004495e+01   8.974289e+00
   5.094599e+00   3.976896e+01
  -2.375209e+01   3.178959e+01
  -3.213477e+01   1.222487e+00
  -1.848732e+01  -2.173529e+01
   2.877016e+00  -2.374582e+01
   1.535029e+01  -1.082439e+01
   8.385978e+00   1.458333e+00
  -1.184680e+01  -1.822724e+00
  -2.020177e+01  -1.959535e+01
   2.013540e+00  -2.901115e+01
   3.698637e+01  -1.009904e+01
   4.395141e+01   2.362225e+01
   9.568440e+00   3.626759e+01
  -3.175931e+01   1.394383e+01
  -3.815728e+01  -1.905262e+01
  -7.625073e+00  -3.257874e+01
   2.627241e+01  -2.176592e+01
   3.497696e+01  -1.089360e-01
   1.836793e+01   1.922289e+01
  -4.128315e+00   2.497536e+01
  -1.228003e+01   9.826682e+00
   4.958362e-01  -1.368904e+01
   1.970823e+01  -1.554463e+01
   2.037251e+01   1.397775e+01
  -4.572890e+00   4.154523e+01
  -3.067095e+01   2.922391e+01
  -2.852637e+01  -1.171445e+01
  -8.789073e-01  -3.174995e+01
   1.998897e+01  -8.265881e+00
   1.145268e+01   2.597459e+01
  -1.555093e+01   2.781533e+01
  -3.331572e+01  -3.884397e+00
  -2.616341e+01  -3.418413e+01
   2.847154e-01  -3.577771e+01
   2.695583e+01  -1.197449e+01
   3.374726e+01   1.516434e+01
   1.467294e+01   2.568154e+01
  -1.299119e+01   1.479692e+01
  -2.302323e+01  -4.022479e+00
  -9.621349e+00  -1.090644e+01
   5.698651e+00  -1.114444e+00
   2.617803e+00   9.182907e+00
  -1.203542e+01   4.353314e+00
  -1.617430e+01  -1.020416e+01
  -2.512368e+00  -1.744412e+01
   1.512112e+01  -1.175248e+01
   2.127001e+01  -1.204714e+00
   1.285890e+01   8.171812e+00
  -4.215697e+00   1.621585e+01
  -2.064346e+01   1.823387e+01
  -2.554612e+01   6.456646e+00
  -1.412267e+01  -1.427745e+01
   3.674925e+00  -2.584025e+01
   1.130970e+01  -1.900607e+01
   5.708430e+00  -5.997573e+00
   6.762283e-01  -2.587198e+00
   6.706513e+00  -6.300990e+00
   1.632778e+01  -2.985480e+00
   1.562933e+01   1.008503e+01
   3.197664e+00   1.929291e+01
  -9.774934e+00   1.280654e+01
  -1.341346e+01  -4.907800e+00
  -6.328836e+00  -1.854177e+01
   6.906158e+00  -1.679667e+01
   1.800986e+01  -1.018818e+00
   1.779229e+01   1.663167e+01
   4.801646e+00   2.300348e+01
  -9.862040e+00   1.552060e+01
  -1.371309e+01   4.300614e+00
  -8.593743e+00   1.758547e-01
  -7.857373e+00   1.991822e+00
  -1.691009e+01  -2.435752e-01
  -2.420592e+01  -1.097581e+01
  -1.548706e+01  -2.320733e+01
   7.939567e+00  -2.703868e+01
   2.938228e+01  -1.915366e+01
   3.297155e+01  -3.554804e+00
   1.758896e+01   1.172466e+01
  -2.836596e+00   1.783046e+01
  -1.136617e+01   1.135257e+01
  -3.255825e+00   1.352165e-01
   9.270735e+00  -2.806816e+00
   1.015563e+01   5.079016e+00
  -1.848728e+00   1.150514e+01
  -1.186681e+01   5.463956e+00
  -7.773662e+00  -6.956038e+00
   5.053934e+00  -9.723145e+00
   1.168939e+01   2.422555e+00
   5.535753e+00   1.747960e+01
  -7.228313e+00   2.049996e+01
  -1.737150e+01   8.649949e+00
  -1.987096e+01  -8.716229e+00
  -1.340978e+01  -1.972697e+01
  -6.210778e-01  -1.827193e+01
   1.016845e+01  -7.504008e+00
   1.051094e+01   2.283324e+00
   2.176432e+00   2.571885e+00
  -3.275416e+00  -4.365255e+00
   1.348324e+00  -8.084310e+00
   9.507129e+00  -3.079590e+00
   9.870019e+00   4.389655e+00
   1.393843e+00   5.091135e+00
  -5.510535e+00  -1.161637e+00
  -1.878966e+00  -6.147996e+00
   9.707134e+00  -3.614938e+00
   1.803607e+01   4.998056e+00
   1.395075e+01   1.375603e+01
  -1.331633e+00   1.709556e+01
  -1.642199e+01   1.238252e+01
  -1.918185e+01   2.111970e+00
  -8.514898e+00  -6.019047e+00
   3.734732e+00  -5.391998e+00
   5.001399e+00   1.621776e+00
  -4.476230e+00   5.224387e+00
  -1.284241e+01  -4.267149e-01
  -1.062708e+01  -9.982822e+00
  -2.905942e-01  -1.333260e+01
   8.351136e+00  -7.391975e+00
   8.802100e+00   1.107250e+00
   2.828624e+00   3.756046e+00
  -2.456470e+00  -8.758288e-01
  -9.243674e-01  -6.621406e+00
   6.911413e+00  -6.195848e+00
   1.313522e+01   1.751050e+00
   9.571394e+00   1.103453e+01
  -2.603687e+00   1.348469e+01
  -1.256229e+01   6.891593e+00
  -1.131040e+01  -2.771015e+00
  -1.639397e+00  -7.532245e+00
   5.878668e+00  -5.185189e+00
   5.228657e+00  -2.123567e-01
   1.515262e-01   2.030320e+00
  -2.216211e+00   6.462300e-01
   5.087429e-01  -8.948778e-01
   4.650347e+00   1.115442e+00
   4.751874e+00   6.521407e+00
  -1.509759e+00   1.050753e+01
  -1.062328e+01   7.531753e+00
  -1.500308e+01  -2.556101e+00
  -9.749184e+00  -1.273372e+01
   1.445671e+00  -1.493554e+01
   9.222867e+00  -8.243063e+00
   8.485798e+00   4.475012e-01
   3.412902e+00   4.119104e+00
   1.275397e+00   2.369730e+00
   3.501479e+00   2.877861e-03
   5.223082e+00   7.602638e-01
   2.329548e+00   3.789858e+00
  -3.690506e+00   5.277478e+00
  -7.649521e+00   2.397457e+00
  -5.467086e+00  -3.570299e+00
   2.468904e+00  -7.212835e+00
   1.067497e+01  -3.406617e+00
   1.169429e+01   6.593696e+00
   2.593035e+00   1.443663e+01
  -1.077510e+01   1.227157e+01
  -1.800973e+01   1.190672e+00
  -1.399426e+01  -9.612177e+00
  -3.459211e+00  -1.240302e+01
   4.846117e+00  -8.087810e+00
   6.954648e+00  -3.435089e+00
   5.621411e+00  -2.895349e+00
   5.193269e+00  -4.524227e+00
   6.678126e+00  -3.230094e+00
   7.547923e+00   3.195673e+00
   4.800842e+00   1.122111e+01
  -1.860232e+00   1.427347e+01
  -8.851824e+00   8.781370e+00
  -1.095499e+01  -1.873404e+00
  -6.126989e+00  -9.866303e+00
   1.714734e+00  -1.003492e+01
   5.955027e+00  -4.272648e+00
   3.918570e+00   1.375230e+00
  -5.505035e-01   3.131892e+00
  -1.705398e+00   2.155037e+00
   1.562947e+00   1.562376e+00
   4.597310e+00   2.411934e+00
   2.324466e+00   3.040780e+00
  -4.746237e+00   1.448275e+00
  -1.024630e+01  -2.300181e+00
  -8.087761e+00  -5.770867e+00
   8.900708e-01  -6.112480e+00
   8.982836e+00  -2.741174e+00
   9.153934e+00   1.726362e+00
   2.267115e+00   3.611637e+00
  -4.183008e+00   1.553655e+00
  -4.394770e+00  -2.291016e+00
   1.641803e-01  -4.354675e+00
   3.895798e+00  -2.832520e+00
   3.959867e+00   9.061388e-01
   2.374626e+00   3.623030e+00
   2.162527e+00   3.235594e+00
   3.494928e+00   1.142638e+00
   3.983427e+00   1.100883e+00
   1.449659e+00   4.741546e+00
  -3.998357e+00   8.542787e+00
  -9.551855e+00   7.039157e+00
  -1.106896e+01  -3.610534e-01
  -6.376937e+00  -7.519787e+00
   1.644899e+00  -8.069759e+00
   6.343276e+00  -2.740420e+00
   3.455079e+00   1.675324e+00
  -3.870484e+00   3.095567e-01
  -7.541055e+00  -4.760874e+00
  -2.747831e+00  -7.735575e+00
   6.799699e+00  -5.491871e+00
   1.244313e+01   1.199761e-01
   9.226073e+00   4.906064e+00
   6.671636e-01   5.872892e+00
  -5.010602e+00   3.042614e+00
  -3.170598e+00  -6.135772e-01
   2.781338e+00  -1.191098e+00
   5.204502e+00   2.644902e+00
   3.767118e-01   7.551175e+00
  -7.504357e+00   7.899875e+00
  -1.072121e+01   1.387472e+00
  -6.047442e+00  -7.749285e+00
   2.277129e+00  -1.191512e+01
   7.348910e+00  -7.271158e+00
   6.276814e+00   2.201800e+00
   1.681510e+00   8.247640e+00
  -2.189043e+00   6.434492e+00
  -3.351857e+00   3.858760e-01
  -2.462816e+00  -2.811038e+00
  -1.125080e+00  -9.793426e-01
  -6.571832e-01   1.106827e+00
  -1.406765e+00  -1.342312e+00
  -2.092022e+00  -6.272780e+00
  -4.725820e-01  -7.254467e+00
   3.880737e+00  -2.014175e+00
   7.671295e+00   4.496529e+00
   6.526490e+00   6.348812e+00
   3.577101e-01   3.400630e+00
  -5.394744e+00   2.887861e-02
  -5.438307e+00  -9.935812e-01
  -8.063420e-01  -6.895053e-01
   2.557366e+00  -6.841642e-01
   1.373460e+00  -7.588323e-01
  -1.076631e+00  -2.259922e-01
   7.480288e-02   5.522332e-01
   4.135353e+00   1.298630e+00
   5.208684e+00   2.768758e+00
  -2.719993e-01   4.884378e+00
  -8.527073e+00   5.116834e+00
  -1.214913e+01   9.897769e-01
  -7.832317e+00  -5.845464e+00
   7.340760e-01  -1.005146e+01
   7.080438e+00  -8.063005e+00
   7.828337e+00  -2.061442e+00
   4.528201e+00   2.462823e+00
   1.045537e+00   2.598449e+00
  -8.702380e-02   5.715627e-01
   7.246541e-01   5.119743e-01
   1.243499e+00   3.424443e+00
  -1.606384e-01   5.893966e+00
  -2.870997e+00   3.898457e+00
  -4.501989e+00  -2.275592e+00
  -3.035419e+00  -7.484095e+00
   1.142979e+00  -6.693691e+00
   5.010301e+00  -3.818017e-01
   5.062418e+00   5.758350e+00
   6.264722e-01   6.654656e+00
  -4.695370e+00   2.619719e+00
  -5.901512e+00  -2.007097e+00
  -1.896319e+00  -3.841264e+00
   2.722464e+00  -2.980753e+00
   2.610903e+00  -1.356715e+00
  -1.746193e+00  -3.926685e-01
  -4.241688e+00  -5.881081e-01
  -6.580675e-01  -1.782803e+00
   5.784703e+00  -2.760384e+00
   8.132077e+00  -1.656740e+00
   3.981213e+00   1.787657e+00
  -2.126756e+00   4.829891e+00
  -4.548739e+00   4.175514e+00
  -2.517114e+00   1.026718e-01
   6.087222e-01  -3.222260e+00
   2.082964e+00  -2.358613e+00
   1.852918e+00   1.390341e+00
   8.490000e-01   3.643142e+00
  -5.270424e-01   2.153857e+00
  -1.844831e+00  -9.003571e-01
  -2.203111e+00  -1.998533e+00
  -1.277767e+00  -5.036684e-01
  -6.276535e-03   1.024987e+00
   5.730632e-01   3.062333e-01
   6.562018e-01  -1.846079e+00
   1.085968e+00  -2.558125e+00
   1.740373e+00  -3.929237e-01
   1.395182e+00   2.734742e+00
  -5.658150e-01   3.458261e+00
  -2.811569e+00   6.935460e-01
  -2.962198e+00  -2.959309e+00
  -6.078244e-02  -3.890006e+00
   3.881583e+00  -1.313230e+00
   5.245005e+00   2.101011e+00
   2.351484e+00   3.364674e+00
  -2.303721e+00   2.186269e+00
  -4.191038e+00   5.415495e-01
  -1.674513e+00   4.516850e-02
   1.865162e+00   6.071642e-01
   1.803585e+00   1.257017e+00
  -2.142973e+00   1.147259e+00
  -5.370280e+00  -2.854356e-01
