
 $NMID
 id='ANONYMOUS ', fmtdat='(2E16.6)'
 volume=1.0
 tramp=1.0
 $END
  -3.615701e+03  -9.787159e+01
  -1.988839e+03  -2.283563e+03
   7.812222e+02  -2.255092e+03
   1.824515e+03  -5.688680e+02
   7.067421e+02   6.920059e+02
  -6.642739e+02   4.898663e+02
  -7.755332e+02  -4.362097e+02
   5.548334e+01  -9.312442e+02
   7.437345e+02  -6.213440e+02
   7.840626e+02   1.382753e+02
   3.278197e+02   7.543400e+02
  -2.620197e+02   7.314277e+02
  -5.628778e+02   5.393719e+01
  -3.029960e+02  -6.341059e+02
   2.632127e+02  -6.176993e+02
   5.131352e+02   4.055016e+01
   1.895991e+02   5.787095e+02
  -3.058423e+02   4.897712e+02
  -4.780712e+02   2.311518e+01
  -2.830542e+02  -3.161747e+02
   1.907698e+01  -3.549815e+02
   2.179862e+02  -2.021528e+02
   1.909596e+02   5.712760e+00
  -8.446772e+01   9.941359e+01
  -3.455010e+02  -7.188512e+01
  -1.835494e+02  -3.612918e+02
   3.750778e+02  -3.591566e+02
   7.130340e+02   6.334900e+01
   3.597385e+02   4.797177e+02
  -3.389026e+02   4.210909e+02
  -6.322389e+02  -3.238744e+01
  -2.886612e+02  -4.121536e+02
   2.407820e+02  -4.319021e+02
   4.721764e+02  -1.578683e+02
   3.387755e+02   2.025717e+02
   3.989774e+01   4.046384e+02
  -1.946802e+02   2.339462e+02
  -1.649330e+02  -2.023457e+02
   1.433163e+02  -3.908885e+02
   3.973874e+02   7.821571e+00
   2.155137e+02   5.815080e+02
  -2.840328e+02   5.928409e+02
  -5.268370e+02  -1.425451e+01
  -2.133018e+02  -4.884399e+02
   2.654822e+02  -2.753591e+02
   3.343473e+02   2.770546e+02
  -5.924355e+01   4.596296e+02
  -4.616177e+02   1.089484e+02
  -4.797395e+02  -3.405025e+02
  -1.195683e+02  -4.810056e+02
   3.245974e+02  -2.779571e+02
   5.145125e+02   7.472514e+01
   2.911714e+02   3.346901e+02
  -1.506860e+02   3.075407e+02
  -3.783744e+02   2.726194e+01
  -1.881059e+02  -1.905343e+02
   1.206327e+02  -9.530933e+01
   1.261496e+02   1.456211e+02
  -1.482466e+02   1.673170e+02
  -2.946714e+02  -7.220966e+01
  -1.071062e+02  -2.595349e+02
   1.764315e+02  -2.015594e+02
   2.586033e+02  -3.856123e+01
   1.386881e+02   6.761980e+01
  -2.354253e+01   1.549693e+02
  -1.625686e+02   2.436439e+02
  -2.622861e+02   1.774448e+02
  -2.380282e+02  -1.068350e+02
  -6.034938e+01  -3.588605e+02
   1.130740e+02  -3.122133e+02
   1.156585e+02  -7.396172e+01
   1.601496e+01   3.209875e+01
   1.538588e+01  -6.325750e+01
   1.444179e+02  -1.151721e+02
   2.267436e+02   3.154789e+01
   1.355976e+02   2.179402e+02
  -5.556949e+01   2.144442e+02
  -1.873970e+02   1.562740e+01
  -1.651524e+02  -1.919572e+02
   4.902224e+00  -2.412600e+02
   2.155191e+02  -9.899482e+01
   2.919609e+02   1.357950e+02
   1.448440e+02   2.891005e+02
  -9.236741e+01   2.473395e+02
  -1.916605e+02   8.458459e+01
  -1.181534e+02  -1.316271e+01
  -6.759868e+01   1.955088e+01
  -1.744619e+02   5.353795e+01
  -3.102500e+02  -4.196864e+01
  -2.581068e+02  -2.241918e+02
   2.947623e+00  -3.467631e+02
   2.819333e+02  -3.212379e+02
   3.860902e+02  -1.557589e+02
   2.721249e+02   7.658422e+01
   4.552054e+01   2.405853e+02
  -1.138919e+02   2.075892e+02
  -7.924673e+01   1.945820e+01
   8.723142e+01  -9.741200e+01
   1.687837e+02   1.744664e+00
   4.500655e+01   1.671165e+02
  -1.399008e+02   1.466374e+02
  -1.548997e+02  -5.301752e+01
   1.492684e+01  -1.649505e+02
   1.608524e+02  -2.962269e+01
   1.270831e+02   1.993138e+02
  -3.236060e+01   2.739074e+02
  -1.800823e+02   1.435227e+02
  -2.459754e+02  -5.363384e+01
  -2.124780e+02  -1.841146e+02
  -7.777415e+01  -2.045080e+02
   8.748631e+01  -1.282204e+02
   1.453587e+02  -1.686636e+01
   5.068570e+01   3.058608e+01
  -5.861325e+01  -2.632252e+01
  -2.875595e+01  -1.014092e+02
   9.887105e+01  -8.403373e+01
   1.471368e+02   9.593837e+00
   5.055068e+01   6.213998e+01
  -6.265881e+01   1.868051e+01
  -4.628808e+01  -5.317974e+01
   9.096419e+01  -6.572817e+01
   2.142102e+02  -1.190808e+00
   2.043004e+02   1.048591e+02
   5.117409e+01   1.973436e+02
  -1.415788e+02   2.074396e+02
  -2.267817e+02   1.017764e+02
  -1.399574e+02  -4.436326e+01
   1.973499e+01  -9.314038e+01
   7.798487e+01  -8.141303e+00
  -2.210618e+01   8.438194e+01
  -1.565396e+02   5.020581e+01
  -1.716186e+02  -8.265736e+01
  -5.454691e+01  -1.684346e+02
   7.750346e+01  -1.277551e+02
   1.178492e+02  -2.358679e+01
   6.062181e+01   3.518198e+01
  -1.841813e+01   8.488597e+00
  -3.109954e+01  -5.814789e+01
   4.996032e+01  -8.560973e+01
   1.504726e+02  -2.459642e+01
   1.498431e+02   9.492325e+01
   1.675852e+01   1.723548e+02
  -1.325353e+02   1.293518e+02
  -1.565331e+02   1.099523e+00
  -5.190987e+01  -9.565505e+01
   5.513318e+01  -9.062068e+01
   6.911549e+01  -2.422957e+01
   1.865558e+01   2.123733e+01
  -1.310727e+01   1.714208e+01
   7.375658e+00  -1.468920e+00
   4.961977e+01   9.759744e+00
   6.285916e+01   6.109874e+01
   1.137515e+01   1.175819e+02
  -9.448671e+01   1.163097e+02
  -1.796954e+02   2.182389e+01
  -1.573131e+02  -1.159254e+02
  -3.112486e+01  -1.868445e+02
   8.876510e+01  -1.333088e+02
   1.076984e+02  -1.848552e+01
   5.310705e+01   4.704194e+01
   2.020580e+01   2.988219e+01
   4.079338e+01  -8.225688e+00
   5.959257e+01  -4.033467e+00
   2.812066e+01   3.644070e+01
  -3.373079e+01   6.234449e+01
  -7.384516e+01   3.863660e+01
  -6.002679e+01  -2.520390e+01
   9.873860e+00  -7.973087e+01
   1.039081e+02  -6.423012e+01
   1.494925e+02   3.685272e+01
   8.014276e+01   1.535445e+02
  -7.936482e+01   1.778992e+02
  -2.075436e+02   7.582497e+01
  -2.022806e+02  -6.819552e+01
  -8.597329e+01  -1.405022e+02
   3.151377e+01  -1.163339e+02
   7.601994e+01  -6.516971e+01
   6.486521e+01  -5.250983e+01
   5.487293e+01  -6.827767e+01
   7.259363e+01  -5.461079e+01
   9.767396e+01   1.947584e+01
   8.852704e+01   1.203408e+02
   2.108070e+01   1.752016e+02
  -7.794154e+01   1.335964e+02
  -1.376417e+02   1.625695e+01
  -1.069441e+02  -9.455400e+01
  -1.558350e+01  -1.249127e+02
   5.135900e+01  -7.393944e+01
   4.631528e+01  -3.724903e+00
   5.838801e+00   3.047175e+01
  -4.324018e+00   2.670064e+01
   2.969407e+01   1.642063e+01
   5.925784e+01   1.960873e+01
   3.265870e+01   2.932192e+01
  -4.701365e+01   2.714333e+01
  -1.177317e+02   2.134952e+00
  -1.097931e+02  -3.805289e+01
  -1.512669e+01  -6.652501e+01
   9.023962e+01  -5.622537e+01
   1.121908e+02  -1.072400e+01
   3.825663e+01   2.989068e+01
  -4.661023e+01   2.653176e+01
  -5.761567e+01  -1.569843e+01
  -2.479833e+00  -5.102109e+01
   4.573892e+01  -4.153798e+01
   4.721830e+01   3.345066e+00
   2.994103e+01   3.846947e+01
   3.180895e+01   3.223834e+01
   4.862707e+01   2.896299e+00
   5.120678e+01   1.269941e+00
   2.409111e+01   5.092344e+01
  -2.827698e+01   1.095209e+02
  -8.868118e+01   1.061515e+02
  -1.224671e+02   2.397745e+01
  -9.183320e+01  -7.030460e+01
  -4.877050e+00  -9.541742e+01
   6.488419e+01  -4.449343e+01
   4.512468e+01   1.325089e+01
  -4.593907e+01   1.451059e+01
  -1.061112e+02  -3.574226e+01
  -5.846487e+01  -8.397624e+01
   6.277925e+01  -8.650309e+01
   1.484414e+02  -3.969410e+01
   1.267153e+02   2.639493e+01
   2.937204e+01   6.786195e+01
  -4.726217e+01   5.580057e+01
  -3.830959e+01   7.210341e+00
   2.959042e+01  -1.923580e+01
   6.867413e+01   1.910085e+01
   2.199223e+01   9.214514e+01
  -7.520123e+01   1.165542e+02
  -1.316652e+02   4.334130e+01
  -9.582524e+01  -8.127693e+01
  -3.672997e+00  -1.532194e+02
   6.867403e+01  -1.106529e+02
   8.080542e+01   5.291384e+00
   4.677115e+01   9.117934e+01
   2.775460e-02   8.337102e+01
  -3.431792e+01   1.661282e+01
  -4.137944e+01  -2.466000e+01
  -2.209548e+01  -7.618555e+00
  -2.917950e+00   1.664131e+01
  -1.344516e+01  -9.923852e+00
  -4.125846e+01  -6.837915e+01
  -3.329530e+01  -8.626291e+01
   3.448619e+01  -3.527165e+01
   1.064734e+02   3.291397e+01
   1.008245e+02   5.709861e+01
   1.278993e+01   3.757414e+01
  -6.972362e+01   1.462867e+01
  -6.868903e+01   5.116243e+00
  -6.756663e+00  -4.482885e+00
   3.107877e+01  -1.672281e+01
   9.997197e+00  -1.537518e+01
  -1.802774e+01  -2.240129e-02
   4.854808e+00   8.074750e+00
   5.880345e+01   5.700091e+00
   6.948800e+01   2.025884e+01
   1.880565e+00   6.108318e+01
  -9.555506e+01   8.436809e+01
  -1.424404e+02   3.991136e+01
  -1.044710e+02  -5.588688e+01
  -1.534953e+01  -1.252432e+02
   6.251371e+01  -1.124493e+02
   8.767700e+01  -4.130508e+01
   6.144438e+01   1.847496e+01
   1.822613e+01   2.684387e+01
  -3.657766e+00   5.308751e+00
   6.997313e+00   2.005047e+00
   2.555053e+01   3.479976e+01
   1.732249e+01   6.933098e+01
  -2.353961e+01   5.445168e+01
  -6.251885e+01  -1.657331e+01
  -5.631711e+01  -8.602716e+01
   1.231442e+00  -8.626684e+01
   6.521214e+01  -1.443904e+01
   7.666143e+01   6.226169e+01
   2.069601e+01   7.976955e+01
  -5.227506e+01   3.915679e+01
  -7.312193e+01  -1.167931e+01
  -2.772591e+01  -3.733615e+01
   2.526240e+01  -3.663990e+01
   2.216050e+01  -2.110471e+01
  -2.793839e+01  -1.902794e+00
  -5.343267e+01   3.331227e+00
  -1.018935e+01  -1.881214e+01
   6.205661e+01  -4.934245e+01
   8.837938e+01  -4.455824e+01
   4.698082e+01   8.697311e+00
  -1.404044e+01   6.274474e+01
  -4.056266e+01   5.912984e+01
  -2.615696e+01   2.112160e+00
   1.444535e+00  -4.358003e+01
   2.084227e+01  -3.093150e+01
   2.718641e+01   1.670778e+01
   1.884957e+01   4.182983e+01
  -3.044081e+00   2.325832e+01
  -2.503254e+01  -8.026652e+00
  -2.956840e+01  -1.563931e+01
  -1.581936e+01  -2.309461e-01
  -3.138150e-01   9.282967e+00
   5.686944e+00  -5.040087e+00
   8.461820e+00  -2.874110e+01
   1.704332e+01  -3.147067e+01
   2.571491e+01  -1.572461e+00
   1.936804e+01   3.719984e+01
  -6.467761e+00   4.646595e+01
  -3.547745e+01   1.347485e+01
  -4.076521e+01  -3.249111e+01
  -8.533047e+00  -4.912102e+01
   4.206348e+01  -2.453577e+01
   6.644810e+01   1.436394e+01
   3.625568e+01   3.479667e+01
  -2.271729e+01   2.942070e+01
  -4.964658e+01   1.343306e+01
  -1.737126e+01   2.856614e+00
   3.052089e+01   4.071832e+00
   2.935023e+01   1.521900e+01
  -2.618339e+01   2.458272e+01
  -7.341100e+01   1.263894e+01
