
 $NMID
 id='ANONYMOUS ', fmtdat='(2E16.6)'
 volume=1.0
 tramp=1.0
 $END
  -3.428005e+03   8.686407e+01
  -2.178588e+03  -1.856021e+03
   2.446952e+02  -2.186769e+03
   1.482752e+03  -1.035169e+03
   8.817514e+02   1.554835e+02
  -2.470419e+02   3.563536e+02
  -5.666800e+02  -2.142924e+02
  -4.609714e+01  -7.220875e+02
   5.552276e+02  -6.339750e+02
   7.172785e+02  -2.324994e+01
   4.218698e+02   6.063063e+02
  -7.961288e+01   7.020224e+02
  -4.166643e+02   1.548482e+02
  -2.999895e+02  -5.010048e+02
   1.543163e+02  -5.908507e+02
   4.570768e+02  -5.022194e+01
   2.781521e+02   5.222957e+02
  -1.834351e+02   5.831772e+02
  -4.753736e+02   1.884720e+02
  -3.901742e+02  -2.261489e+02
  -8.246080e+01  -3.623997e+02
   1.560855e+02  -2.384970e+02
   1.249397e+02  -5.111624e+01
  -1.352108e+02  -9.058596e+00
  -3.099366e+02  -1.751621e+02
  -8.573888e+01  -3.557779e+02
   4.170233e+02  -2.643783e+02
   6.583987e+02   1.058861e+02
   3.031164e+02   4.016924e+02
  -3.145501e+02   3.127737e+02
  -5.630609e+02  -6.421775e+01
  -2.500281e+02  -3.753905e+02
   2.374807e+02  -3.975425e+02
   4.589263e+02  -1.608338e+02
   3.397076e+02   1.659804e+02
   8.153184e+01   3.523969e+02
  -9.388887e+01   2.156119e+02
  -5.911303e+01  -1.329568e+02
   1.488547e+02  -2.675501e+02
   2.898140e+02   6.730315e+01
   1.262690e+02   5.262264e+02
  -2.429006e+02   5.218493e+02
  -4.180522e+02   1.480914e+01
  -1.822823e+02  -3.848751e+02
   1.911636e+02  -2.115988e+02
   2.568183e+02   2.617465e+02
  -7.206155e+01   4.240985e+02
  -4.499966e+02   9.779562e+01
  -4.983103e+02  -3.416595e+02
  -1.587953e+02  -4.874585e+02
   3.009965e+02  -2.863787e+02
   5.217871e+02   4.885591e+01
   3.339057e+02   2.784697e+02
  -8.012220e+01   2.702140e+02
  -3.286059e+02   7.445083e+01
  -2.137470e+02  -9.262699e+01
   4.413979e+01  -6.031798e+01
   8.932880e+01   8.575820e+01
  -1.140067e+02   1.125662e+02
  -2.609308e+02  -4.669148e+01
  -1.280822e+02  -2.187247e+02
   1.552455e+02  -2.349075e+02
   3.066969e+02  -1.046947e+02
   2.148370e+02   7.982470e+01
  -1.682327e+01   2.519999e+02
  -2.310098e+02   3.211764e+02
  -3.183886e+02   1.781647e+02
  -2.409750e+02  -1.312233e+02
  -6.668514e+01  -3.588065e+02
   5.841530e+01  -3.209578e+02
   5.998251e+01  -1.345842e+02
   2.738869e+01  -4.736566e+01
   8.368689e+01  -9.420646e+01
   2.020109e+02  -8.587321e+01
   2.368195e+02   7.534036e+01
   1.171927e+02   2.370287e+02
  -7.165223e+01   2.043502e+02
  -1.893655e+02  -1.098067e+01
  -1.543826e+02  -2.170898e+02
   2.189063e+01  -2.467471e+02
   2.305712e+02  -8.504975e+01
   3.060669e+02   1.477248e+02
   1.684892e+02   2.903643e+02
  -6.078143e+01   2.615611e+02
  -1.750775e+02   1.313325e+02
  -1.357602e+02   4.438725e+01
  -1.137703e+02   5.021996e+01
  -2.332097e+02   5.016079e+01
  -3.708419e+02  -6.283618e+01
  -3.020079e+02  -2.590775e+02
   4.388059e+00  -4.003105e+02
   3.299438e+02  -3.746455e+02
   4.357247e+02  -1.789943e+02
   2.836094e+02   8.186801e+01
   3.812440e+01   2.457188e+02
  -9.573681e+01   2.056818e+02
  -3.968215e+01   3.231097e+01
   1.018303e+02  -6.732641e+01
   1.468052e+02   1.720574e+01
   2.906062e+01   1.512720e+02
  -1.221519e+02   1.269860e+02
  -1.304846e+02  -4.787623e+01
   1.755215e+01  -1.460481e+02
   1.603822e+02  -1.763959e+01
   1.478273e+02   2.161440e+02
  -1.631057e+01   3.149136e+02
  -2.117338e+02   1.873271e+02
  -3.135175e+02  -5.026168e+01
  -2.578956e+02  -2.237812e+02
  -7.435497e+01  -2.438290e+02
   1.080885e+02  -1.382744e+02
   1.483626e+02  -1.485292e+01
   4.245502e+01   1.938489e+01
  -5.513911e+01  -4.524647e+01
  -1.268845e+01  -1.079934e+02
   1.113740e+02  -7.680643e+01
   1.473668e+02   1.543621e+01
   4.104430e+01   5.659077e+01
  -7.391344e+01   2.064013e+00
  -4.343364e+01  -7.576282e+01
   1.234599e+02  -8.195181e+01
   2.665406e+02   5.929467e+00
   2.391382e+02   1.378301e+02
   4.318869e+01   2.350530e+02
  -1.747240e+02   2.275204e+02
  -2.485635e+02   1.054224e+02
  -1.398208e+02  -4.111161e+01
   2.311315e+01  -8.481547e+01
   6.959778e+01  -2.638177e+00
  -3.819794e+01   8.259850e+01
  -1.718566e+02   4.463622e+01
  -1.835160e+02  -9.016404e+01
  -6.026073e+01  -1.780858e+02
   8.025050e+01  -1.344352e+02
   1.212056e+02  -2.293117e+01
   5.280817e+01   3.406795e+01
  -3.272367e+01  -8.833027e+00
  -3.067963e+01  -8.844886e+01
   7.581658e+01  -1.068516e+02
   1.862074e+02  -2.183223e+01
   1.718853e+02   1.143754e+02
   1.803859e+01   1.933343e+02
  -1.425844e+02   1.455679e+02
  -1.667587e+02   1.168935e+01
  -5.651024e+01  -9.315595e+01
   5.614679e+01  -9.458203e+01
   6.861864e+01  -2.641985e+01
   8.577121e+00   2.283268e+01
  -2.725899e+01   1.248948e+01
   8.145778e+00  -1.645636e+01
   7.354969e+01   9.984513e-01
   9.053762e+01   7.762332e+01
   1.480190e+01   1.525626e+02
  -1.202132e+02   1.415872e+02
  -2.145069e+02   1.994608e+01
  -1.815298e+02  -1.370348e+02
  -4.012957e+01  -2.105342e+02
   9.205647e+01  -1.513406e+02
   1.196862e+02  -2.925785e+01
   6.687989e+01   4.337972e+01
   2.935762e+01   2.856211e+01
   4.946401e+01  -1.326997e+01
   7.650189e+01  -7.760355e+00
   4.658170e+01   4.824260e+01
  -3.541269e+01   9.021426e+01
  -1.024525e+02   5.893684e+01
  -8.962490e+01  -3.507040e+01
   1.196198e+01  -1.107454e+02
   1.384810e+02  -8.325002e+01
   1.848521e+02   5.005944e+01
   8.726404e+01   1.873053e+02
  -1.018649e+02   2.064048e+02
  -2.412381e+02   8.492442e+01
  -2.289321e+02  -7.558295e+01
  -9.733925e+01  -1.546600e+02
   3.317082e+01  -1.297377e+02
   8.121397e+01  -7.605198e+01
   6.576129e+01  -6.482743e+01
   5.452579e+01  -8.576127e+01
   8.142097e+01  -7.203565e+01
   1.187066e+02   1.546382e+01
   1.106918e+02   1.374983e+02
   2.970905e+01   2.045212e+02
  -8.718193e+01   1.553871e+02
  -1.562791e+02   1.727865e+01
  -1.210507e+02  -1.108204e+02
  -1.531173e+01  -1.428869e+02
   6.365076e+01  -7.917529e+01
   5.602620e+01   5.986582e+00
   7.605293e-01   4.441050e+01
  -1.728672e+01   3.238851e+01
   2.861164e+01   1.262855e+01
   7.513671e+01   1.650769e+01
   4.416718e+01   3.482960e+01
  -6.208481e+01   3.638678e+01
  -1.515798e+02   3.212292e+00
  -1.316588e+02  -5.020466e+01
  -7.337084e+00  -8.504454e+01
   1.153264e+02  -6.927305e+01
   1.317313e+02  -1.078513e+01
   4.263650e+01   4.113629e+01
  -5.375541e+01   3.857147e+01
  -7.047296e+01  -1.522090e+01
  -1.437763e+01  -6.471981e+01
   4.432035e+01  -5.793577e+01
   6.034257e+01  -1.861118e+00
   4.832813e+01   4.484454e+01
   4.271948e+01   3.793424e+01
   5.258629e+01   6.197727e-01
   5.942582e+01  -5.006304e-01
   3.823109e+01   6.323671e+01
  -2.368295e+01   1.366516e+02
  -1.076161e+02   1.330441e+02
  -1.570186e+02   3.368982e+01
  -1.176665e+02  -8.211552e+01
  -6.205008e+00  -1.180990e+02
   8.030343e+01  -6.177289e+01
   5.596821e+01   1.006035e+01
  -5.265685e+01   1.972810e+01
  -1.235368e+02  -3.553217e+01
  -6.811468e+01  -9.518017e+01
   7.240649e+01  -1.016819e+02
   1.709249e+02  -4.665906e+01
   1.447559e+02   3.111745e+01
   3.195931e+01   7.696496e+01
  -5.556115e+01   6.002506e+01
  -4.408464e+01   3.142469e+00
   3.528241e+01  -2.743354e+01
   8.375413e+01   1.675520e+01
   3.626740e+01   1.051506e+02
  -7.274802e+01   1.427173e+02
  -1.450015e+02   6.472118e+01
  -1.169720e+02  -8.316531e+01
  -1.705744e+01  -1.757363e+02
   7.234716e+01  -1.304605e+02
   9.449810e+01   6.308713e+00
   5.445362e+01   1.067172e+02
  -5.343836e+00   9.453936e+01
  -4.413637e+01   1.638030e+01
  -4.427927e+01  -2.774039e+01
  -1.890538e+01  -6.647727e+00
  -4.171901e+00   1.712559e+01
  -2.410646e+01  -1.637494e+01
  -5.343547e+01  -7.971097e+01
  -3.518644e+01  -9.586888e+01
   4.616821e+01  -4.048867e+01
   1.246337e+02   3.152032e+01
   1.153629e+02   6.057464e+01
   1.743476e+01   4.644090e+01
  -7.517655e+01   2.392890e+01
  -7.879061e+01   7.841027e+00
  -1.341648e+01  -8.601515e+00
   3.222936e+01  -2.057875e+01
   1.519225e+01  -1.398107e+01
  -1.587997e+01   3.080675e+00
   3.873516e+00   6.277780e+00
   6.325139e+01  -7.236051e-01
   8.414826e+01   1.828878e+01
   1.648912e+01   7.275908e+01
  -9.867403e+01   1.081930e+02
  -1.678455e+02   6.160638e+01
  -1.356201e+02  -5.283226e+01
  -3.066772e+01  -1.444684e+02
   6.857400e+01  -1.403213e+02
   1.032015e+02  -5.950549e+01
   7.343264e+01   1.628301e+01
   2.422515e+01   3.279040e+01
   3.830342e-01   1.021000e+01
   1.127245e+01   5.713837e+00
   2.953770e+01   4.238870e+01
   2.010314e+01   8.151418e+01
  -2.475137e+01   6.559166e+01
  -7.238991e+01  -1.292927e+01
  -7.386518e+01  -9.251971e+01
  -1.188450e+01  -1.003418e+02
   6.987531e+01  -2.790935e+01
   9.640062e+01   6.005198e+01
   3.586001e+01   9.250184e+01
  -5.731162e+01   5.658080e+01
  -9.196869e+01  -6.000651e+00
  -4.019828e+01  -4.864255e+01
   2.908482e+01  -5.284360e+01
   3.225212e+01  -2.688802e+01
  -2.658550e+01   4.075867e+00
  -6.198340e+01   8.974194e+00
  -1.594636e+01  -2.343085e+01
   6.960908e+01  -6.138838e+01
   1.059537e+02  -5.304967e+01
   6.193157e+01   1.178893e+01
  -1.100973e+01   7.654460e+01
  -4.855570e+01   7.513822e+01
  -3.746246e+01   9.887948e+00
  -5.743187e+00  -4.854126e+01
   2.102730e+01  -4.221899e+01
   3.353365e+01   1.141770e+01
   2.644334e+01   4.802156e+01
  -5.482061e-01   3.339342e+01
  -3.026670e+01  -5.019238e+00
  -3.766159e+01  -2.028323e+01
  -1.881411e+01  -2.448907e+00
   2.713709e+00   1.575414e+01
   6.115086e+00   3.125430e+00
  -4.165210e-01  -3.066925e+01
   5.680829e+00  -4.487847e+01
   2.602021e+01  -1.519156e+01
   3.400792e+01   3.452084e+01
   7.540007e+00   5.438182e+01
  -3.748147e+01   2.244344e+01
  -5.531396e+01  -3.069679e+01
  -1.742874e+01  -5.518154e+01
   4.979441e+01  -3.327696e+01
   8.304873e+01   9.490223e+00
   4.647953e+01   3.813736e+01
  -2.484512e+01   4.013900e+01
  -5.828406e+01   2.459347e+01
  -2.425447e+01   6.160683e+00
   2.903817e+01  -1.801430e+00
   3.221231e+01   8.379122e+00
  -2.306793e+01   2.588808e+01
  -7.516387e+01   2.076612e+01
