
 $NMID
 id='ANONYMOUS ', fmtdat='(2E16.6)'
 volume=1.0
 tramp=1.0
 $END
  -1.306524e+03   6.444669e+01
  -9.854488e+02  -5.391809e+02
  -2.075720e+02  -8.528040e+02
   4.046783e+02  -7.103980e+02
   4.771700e+02  -2.865399e+02
   1.741258e+02   4.168623e+01
  -8.211987e+01   4.455033e+01
  -6.563944e+01  -1.567583e+02
   1.194476e+02  -2.554866e+02
   2.520468e+02  -1.006084e+02
   2.224865e+02   1.615005e+02
   7.312615e+01   2.683545e+02
  -7.551729e+01   1.206356e+02
  -1.070658e+02  -1.261045e+02
   6.182487e+00  -2.227713e+02
   1.524496e+02  -7.024846e+01
   1.624784e+02   1.860569e+02
  -6.500048e+00   3.021668e+02
  -1.997632e+02   1.806534e+02
  -2.301430e+02  -4.123532e+01
  -9.514900e+01  -1.576152e+02
   2.846381e+01  -1.197647e+02
   6.838882e+00  -5.621060e+01
  -9.384225e+01  -8.215997e+01
  -1.022800e+02  -1.548123e+02
   4.227597e+01  -1.497069e+02
   2.134310e+02  -3.394754e+01
   2.360117e+02   9.369686e+01
   7.491646e+01   1.238748e+02
  -1.259229e+02   4.647245e+01
  -1.868683e+02  -6.634097e+01
  -6.668983e+01  -1.397145e+02
   1.092375e+02  -1.360898e+02
   1.878135e+02  -5.630216e+01
   1.377806e+02   5.376534e+01
   5.222000e+01   1.130054e+02
   2.430909e+01   7.313142e+01
   5.392571e+01  -1.116606e+01
   7.621466e+01  -2.230030e+01
   4.594332e+01   7.987488e+01
  -2.507696e+01   1.875649e+02
  -8.939390e+01   1.618767e+02
  -9.954770e+01   1.254857e+01
  -4.203214e+01  -9.513941e+01
   3.567375e+01  -3.758090e+01
   4.609050e+01   1.078973e+02
  -5.182936e+01   1.514027e+02
  -1.836844e+02   2.031237e+01
  -2.123411e+02  -1.578969e+02
  -8.025015e+01  -2.127521e+02
   1.178005e+02  -1.170444e+02
   2.221030e+02   1.712143e+01
   1.608845e+02   8.634176e+01
   7.141868e+00   8.378356e+01
  -1.044395e+02   5.383537e+01
  -1.030455e+02   2.371734e+01
  -3.234898e+01   1.745899e+00
   8.289523e+00  -2.458367e+00
  -2.822360e+01   5.245841e+00
  -8.418433e+01  -9.852674e+00
  -6.137177e+01  -6.658883e+01
   5.640321e+01  -1.169689e+02
   1.638548e+02  -8.218350e+01
   1.411041e+02   4.662129e+01
  -7.674538e+00   1.726531e+02
  -1.521727e+02   1.834682e+02
  -1.776528e+02   6.730174e+01
  -9.989918e+01  -7.879149e+01
  -2.223171e+01  -1.522648e+02
  -4.616221e+00  -1.380531e+02
  -1.092412e+01  -9.590365e+01
   1.924132e+01  -7.461814e+01
   8.472614e+01  -5.998961e+01
   1.278216e+02  -1.101057e+01
   1.050667e+02   6.859840e+01
   3.001184e+01   1.163946e+02
  -4.722895e+01   7.698577e+01
  -8.101068e+01  -2.844733e+01
  -5.160732e+01  -1.131437e+02
   2.788665e+01  -1.070426e+02
   1.098819e+02  -1.973671e+01
   1.342716e+02   7.867435e+01
   7.895192e+01   1.270205e+02
  -1.064994e+01   1.173158e+02
  -6.474222e+01   8.236658e+01
  -6.937710e+01   5.516773e+01
  -8.070637e+01   4.006982e+01
  -1.402128e+02   1.320764e+01
  -1.963726e+02  -5.023261e+01
  -1.505892e+02  -1.406892e+02
   1.315758e+01  -2.051191e+02
   1.814309e+02  -1.859234e+02
   2.219758e+02  -7.987705e+01
   1.247630e+02   4.583319e+01
   3.990749e+00   1.078818e+02
  -3.338719e+01   8.191168e+01
   1.021693e+01   2.062844e+01
   5.535834e+01  -4.702257e+00
   4.610072e+01   2.255025e+01
  -3.487086e+00   5.356238e+01
  -4.286131e+01   3.580600e+01
  -3.629936e+01  -2.066333e+01
   1.368241e+01  -4.767098e+01
   6.768644e+01   5.487138e+00
   7.065978e+01   1.061860e+02
  -3.807494e+00   1.598941e+02
  -1.153318e+02   1.036868e+02
  -1.770562e+02  -2.633269e+01
  -1.342271e+02  -1.279311e+02
  -2.266028e+01  -1.318327e+02
   6.340928e+01  -6.234117e+01
   6.479380e+01  -6.884097e-01
   1.132252e+01   1.694447e+00
  -1.979350e+01  -3.377988e+01
   8.790752e+00  -5.055406e+01
   5.773872e+01  -2.427869e+01
   6.166080e+01   1.470847e+01
   8.896972e+00   2.122189e+01
  -3.921626e+01  -1.257730e+01
  -1.451956e+01  -4.878652e+01
   7.642511e+01  -4.279563e+01
   1.482137e+02   1.399471e+01
   1.212997e+02   8.688043e+01
   6.624462e+00   1.262337e+02
  -1.024312e+02   1.051142e+02
  -1.223575e+02   4.014531e+01
  -5.734084e+01  -1.894457e+01
   1.460615e+01  -2.919978e+01
   2.354105e+01   4.851785e+00
  -2.959662e+01   3.263642e+01
  -8.413055e+01   1.027726e+01
  -8.286404e+01  -4.802037e+01
  -2.440182e+01  -8.302903e+01
   3.925846e+01  -5.883173e+01
   5.384849e+01  -5.797834e+00
   1.573199e+01   1.516021e+01
  -2.376367e+01  -1.641636e+01
  -1.065031e+01  -5.907331e+01
   5.242526e+01  -5.795731e+01
   1.036632e+02  -2.643256e+00
   8.458627e+01   6.597056e+01
   3.385091e+00   9.619984e+01
  -7.062667e+01   6.851358e+01
  -7.720960e+01   7.749024e+00
  -2.422666e+01  -3.885579e+01
   2.686313e+01  -4.086863e+01
   2.914894e+01  -1.065737e+01
  -4.031869e+00   1.112337e+01
  -2.172730e+01   1.498510e+00
   4.135215e+00  -1.711921e+01
   4.731786e+01  -4.050803e+00
   5.536462e+01   4.610494e+01
   4.940358e+00   8.870660e+01
  -7.186779e+01   7.408022e+01
  -1.148234e+02   1.650466e+00
  -8.953615e+01  -7.686235e+01
  -1.759404e+01  -1.057811e+02
   4.485374e+01  -7.350107e+01
   5.918074e+01  -1.661234e+01
   3.634767e+01   1.728260e+01
   1.785299e+01   1.172172e+01
   2.706689e+01  -7.842538e+00
   4.401350e+01  -4.005077e+00
   3.125000e+01   2.942224e+01
  -1.805271e+01   5.627540e+01
  -6.417677e+01   3.649789e+01
  -5.739582e+01  -2.355601e+01
   9.018257e+00  -6.774914e+01
   8.415660e+01  -4.490070e+01
   1.009969e+02   3.475504e+01
   3.690642e+01   1.044144e+02
  -6.369757e+01   1.039789e+02
  -1.268918e+02   3.577406e+01
  -1.125970e+02  -4.282566e+01
  -4.464003e+01  -7.727957e+01
   1.848748e+01  -6.285218e+01
   3.963386e+01  -3.728111e+01
   2.981464e+01  -3.392674e+01
   2.473012e+01  -4.659925e+01
   4.201179e+01  -4.021258e+01
   6.392736e+01   6.656312e+00
   5.830028e+01   7.234051e+01
   1.323707e+01   1.068889e+02
  -4.699235e+01   7.806553e+01
  -7.900691e+01   3.890724e+00
  -5.777603e+01  -6.097356e+01
  -2.531713e+00  -7.289557e+01
   3.740059e+01  -3.529321e+01
   3.027870e+01   1.067217e+01
  -4.207989e+00   2.845103e+01
  -1.708316e+01   1.730348e+01
   1.082125e+01   3.489238e+00
   4.204864e+01   6.592919e+00
   2.565847e+01   1.947766e+01
  -3.739116e+01   2.022773e+01
  -8.722253e+01  -1.550794e+00
  -6.926425e+01  -3.283208e+01
   4.399013e+00  -4.892444e+01
   6.755768e+01  -3.535571e+01
   6.917099e+01  -1.209678e+00
   1.998515e+01   2.620884e+01
  -2.838911e+01   2.317597e+01
  -3.807517e+01  -7.804233e+00
  -1.274070e+01  -3.686831e+01
   1.893591e+01  -3.443802e+01
   3.440464e+01  -2.945231e+00
   3.192457e+01   2.427046e+01
   2.455064e+01   2.088155e+01
   2.475715e+01   8.876848e-02
   3.063268e+01   8.368187e-02
   2.432453e+01   3.591440e+01
  -1.009181e+01   7.545654e+01
  -6.158358e+01   7.184793e+01
  -9.069288e+01   1.710511e+01
  -6.524570e+01  -4.551172e+01
  -6.151143e-01  -6.548412e+01
   4.584308e+01  -3.596225e+01
   3.068287e+01   3.378630e+00
  -2.722677e+01   1.054521e+01
  -6.294751e+01  -1.792698e+01
  -3.281192e+01  -4.947481e+01
   3.966808e+01  -5.135752e+01
   8.854719e+01  -2.001191e+01
   7.249628e+01   2.009666e+01
   1.320343e+01   3.948116e+01
  -3.070496e+01   2.670822e+01
  -2.268080e+01  -2.650916e+00
   1.938508e+01  -1.632443e+01
   4.511535e+01   7.481507e+00
   2.242171e+01   5.392272e+01
  -3.235675e+01   7.598000e+01
  -7.154283e+01   3.818258e+01
  -6.147494e+01  -3.911540e+01
  -1.192503e+01  -8.962956e+01
   3.622596e+01  -6.654186e+01
   4.901673e+01   5.769651e+00
   2.546690e+01   5.698212e+01
  -8.444328e+00   4.738696e+01
  -2.581859e+01   5.647423e+00
  -1.986867e+01  -1.498037e+01
  -5.504875e+00  -2.708811e+00
  -3.098501e+00   7.427698e+00
  -1.719262e+01  -1.184004e+01
  -2.885243e+01  -4.261050e+01
  -1.354740e+01  -4.786676e+01
   2.854704e+01  -1.953254e+01
   6.401015e+01   1.543722e+01
   5.686992e+01   3.082228e+01
   9.401119e+00   2.606049e+01
  -3.583598e+01   1.448785e+01
  -4.025694e+01   3.147704e+00
  -1.009854e+01  -6.728691e+00
   1.483174e+01  -1.042708e+01
   1.041156e+01  -4.563911e+00
  -5.195925e+00   2.962060e+00
   7.304384e-01   1.511365e+00
   2.953120e+01  -3.068628e+00
   4.495229e+01   8.405422e+00
   1.524737e+01   3.884168e+01
  -4.617926e+01   5.924010e+01
  -8.943239e+01   3.667732e+01
  -7.702478e+01  -2.328730e+01
  -1.980349e+01  -7.456885e+01
   3.643062e+01  -7.644356e+01
   5.544147e+01  -3.500592e+01
   3.864951e+01   7.156862e+00
   1.352344e+01   1.846759e+01
   2.776953e+00   7.628996e+00
   7.613285e+00   5.216454e+00
   1.411158e+01   2.382606e+01
   8.293458e+00   4.319432e+01
  -1.287280e+01   3.459432e+01
  -3.680589e+01  -4.749798e+00
  -4.070757e+01  -4.509266e+01
  -1.154156e+01  -5.198157e+01
   3.309585e+01  -1.919519e+01
   5.244110e+01   2.601064e+01
   2.322219e+01   4.839754e+01
  -2.882117e+01   3.433846e+01
  -5.142451e+01  -8.108728e-01
  -2.438317e+01  -2.917801e+01
   1.605112e+01  -3.269703e+01
   2.120611e+01  -1.458429e+01
  -1.021427e+01   5.093036e+00
  -3.210298e+01   6.100374e+00
  -1.012140e+01  -1.338701e+01
   3.596950e+01  -3.231206e+01
   5.802412e+01  -2.550109e+01
   3.611344e+01   8.567044e+00
  -4.414464e+00   4.134929e+01
  -2.775734e+01   4.144268e+01
  -2.371806e+01   8.714280e+00
  -6.132335e+00  -2.384446e+01
   9.931559e+00  -2.497705e+01
   1.806305e+01   1.937162e+00
   1.513759e+01   2.506096e+01
   7.541063e-01   2.100104e+01
  -1.614206e+01  -7.700522e-01
  -2.094740e+01  -1.265426e+01
  -9.950364e+00  -3.046774e+00
   2.922404e+00   1.113280e+01
   2.929811e+00   7.159245e+00
  -5.522505e+00  -1.405261e+01
  -4.508726e+00  -2.778400e+01
   1.130096e+01  -1.512158e+01
   2.342920e+01   1.330349e+01
   1.152350e+01   2.827282e+01
  -1.758510e+01   1.463524e+01
  -3.242959e+01  -1.291955e+01
  -1.205657e+01  -2.769377e+01
   2.704764e+01  -1.878217e+01
   4.603542e+01   2.625260e+00
   2.559985e+01   1.944700e+01
  -1.283739e+01   2.363703e+01
  -3.094878e+01   1.659972e+01
  -1.507814e+01   4.328281e+00
   1.109054e+01  -3.993582e+00
   1.513971e+01  -3.876385e-01
  -8.217612e+00   1.105785e+01
  -3.318821e+01   1.227475e+01
