
 $NMID
 id='ANONYMOUS ', fmtdat='(2E16.6)'
 volume=1.0
 tramp=1.0
 $END
  -2.471765e+03  -5.768767e+01
  -1.395482e+03  -1.555146e+03
   5.008801e+02  -1.575222e+03
   1.262294e+03  -4.410332e+02
   5.354531e+02   4.510773e+02
  -4.149883e+02   3.548738e+02
  -5.300666e+02  -2.690898e+02
   1.861051e+01  -6.288599e+02
   4.987427e+02  -4.367617e+02
   5.431991e+02   8.140276e+01
   2.388654e+02   5.139527e+02
  -1.671544e+02   5.110055e+02
  -3.822886e+02   5.306442e+01
  -2.141452e+02  -4.249396e+02
   1.730150e+02  -4.275423e+02
   3.536529e+02   1.925214e+01
   1.375657e+02   3.995163e+02
  -2.101278e+02   3.498831e+02
  -3.399902e+02   2.569818e+01
  -2.069475e+02  -2.195760e+02
   8.023706e+00  -2.512468e+02
   1.484201e+02  -1.446678e+02
   1.301622e+02  -4.587683e+00
  -5.331596e+01   5.536051e+01
  -2.248184e+02  -5.581209e+01
  -1.166834e+02  -2.396661e+02
   2.538072e+02  -2.330463e+02
   4.795468e+02   4.592772e+01
   2.453573e+02   3.194971e+02
  -2.234071e+02   2.799022e+02
  -4.242719e+02  -2.236301e+01
  -1.951582e+02  -2.774403e+02
   1.639097e+02  -2.916198e+02
   3.228482e+02  -1.066311e+02
   2.334706e+02   1.376552e+02
   3.236886e+01   2.762618e+02
  -1.253786e+02   1.655946e+02
  -1.093630e+02  -1.255389e+02
   9.056868e+01  -2.567998e+02
   2.588081e+02   3.263474e+00
   1.419760e+02   3.873545e+02
  -1.885905e+02   4.017123e+02
  -3.542845e+02  -1.692726e+00
  -1.491732e+02  -3.248285e+02
   1.723086e+02  -1.880164e+02
   2.225050e+02   1.838106e+02
  -4.107873e+01   3.101725e+02
  -3.143516e+02   7.207213e+01
  -3.273467e+02  -2.369167e+02
  -8.151152e+01  -3.330542e+02
   2.222979e+02  -1.907503e+02
   3.538900e+02   5.252919e+01
   2.048978e+02   2.296065e+02
  -9.642311e+01   2.122950e+02
  -2.588718e+02   2.408792e+01
  -1.373167e+02  -1.260471e+02
   7.447880e+01  -6.804577e+01
   8.751672e+01   9.281297e+01
  -9.529044e+01   1.122494e+02
  -2.005676e+02  -4.634572e+01
  -7.664044e+01  -1.766333e+02
   1.227948e+02  -1.409906e+02
   1.858553e+02  -2.599599e+01
   9.909860e+01   5.400056e+01
  -2.423633e+01   1.135377e+02
  -1.237532e+02   1.659023e+02
  -1.844590e+02   1.154052e+02
  -1.603730e+02  -7.636015e+01
  -3.977891e+01  -2.461175e+02
   7.562595e+01  -2.178330e+02
   8.019777e+01  -5.890384e+01
   1.800736e+01   1.704338e+01
   1.841769e+01  -3.995786e+01
   1.012537e+02  -7.113216e+01
   1.520365e+02   2.685299e+01
   8.859991e+01   1.496360e+02
  -3.952656e+01   1.442310e+02
  -1.261787e+02   7.532561e+00
  -1.090224e+02  -1.330992e+02
   6.360593e+00  -1.639182e+02
   1.478418e+02  -6.425028e+01
   1.989098e+02   9.641971e+01
   9.908873e+01   2.003837e+02
  -6.327412e+01   1.721543e+02
  -1.339892e+02   6.157896e+01
  -8.662288e+01  -6.781829e+00
  -5.220380e+01   1.155986e+01
  -1.236254e+02   3.067278e+01
  -2.146506e+02  -3.678944e+01
  -1.756563e+02  -1.607564e+02
   8.307631e+00  -2.408587e+02
   2.023041e+02  -2.181441e+02
   2.702936e+02  -1.021029e+02
   1.860126e+02   5.513689e+01
   2.884793e+01   1.644755e+02
  -7.747057e+01   1.425906e+02
  -5.236856e+01   1.700621e+01
   5.881555e+01  -6.270222e+01
   1.124812e+02   1.487304e+00
   2.994738e+01   1.120114e+02
  -9.352068e+01   9.943878e+01
  -1.041896e+02  -3.473249e+01
   9.771387e+00  -1.110504e+02
   1.091063e+02  -1.852398e+01
   8.596839e+01   1.398393e+02
  -2.571005e+01   1.913775e+02
  -1.297382e+02   9.782887e+01
  -1.731203e+02  -4.317420e+01
  -1.444138e+02  -1.335927e+02
  -4.863487e+01  -1.428484e+02
   6.283049e+01  -8.625511e+01
   9.950665e+01  -1.034944e+01
   3.476837e+01   1.968733e+01
  -3.814031e+01  -1.943457e+01
  -1.738325e+01  -6.866660e+01
   6.838162e+01  -5.536008e+01
   1.000648e+02   7.807125e+00
   3.395581e+01   4.157092e+01
  -4.242818e+01   1.029027e+01
  -2.932207e+01  -3.804638e+01
   6.624787e+01  -4.302358e+01
   1.497327e+02   5.084192e+00
   1.390072e+02   7.802859e+01
   3.028298e+01   1.373204e+02
  -1.019700e+02   1.398445e+02
  -1.574692e+02   6.685486e+01
  -9.567325e+01  -3.082902e+01
   1.357513e+01  -6.266588e+01
   5.228252e+01  -5.408036e+00
  -1.661809e+01   5.612960e+01
  -1.079575e+02   3.182249e+01
  -1.171344e+02  -5.894136e+01
  -3.601834e+01  -1.165983e+02
   5.440801e+01  -8.717672e+01
   8.087542e+01  -1.516446e+01
   4.075460e+01   2.366475e+01
  -1.230371e+01   3.266082e+00
  -1.847362e+01  -4.212847e+01
   3.823986e+01  -5.774151e+01
   1.054129e+02  -1.291725e+01
   1.019764e+02   6.890969e+01
   8.928195e+00   1.195572e+02
  -9.334041e+01   8.809032e+01
  -1.086086e+02  -1.332896e-01
  -3.550490e+01  -6.584708e+01
   3.856910e+01  -6.185385e+01
   4.751176e+01  -1.638906e+01
   1.175984e+01   1.392492e+01
  -9.728054e+00   1.016229e+01
   6.311798e+00  -2.014498e+00
   3.634345e+01   8.214083e+00
   4.335910e+01   4.555480e+01
   4.578796e+00   8.330204e+01
  -6.915543e+01   7.879389e+01
  -1.253747e+02   1.100384e+01
  -1.069965e+02  -8.360327e+01
  -1.902456e+01  -1.303613e+02
   6.308890e+01  -9.171047e+01
   7.546930e+01  -1.188674e+01
   3.736101e+01   3.327735e+01
   1.443433e+01   2.117235e+01
   2.897651e+01  -5.078309e+00
   4.230877e+01  -1.350625e+00
   1.944431e+01   2.742067e+01
  -2.575948e+01   4.436355e+01
  -5.443924e+01   2.521428e+01
  -4.229564e+01  -2.066516e+01
   9.830313e+00  -5.657737e+01
   7.546609e+01  -4.196997e+01
   1.035422e+02   2.982346e+01
   5.175956e+01   1.084622e+02
  -5.917344e+01   1.214720e+02
  -1.455019e+02   4.866778e+01
  -1.392753e+02  -5.040045e+01
  -5.770707e+01  -9.846560e+01
   2.337151e+01  -8.020619e+01
   5.357435e+01  -4.452211e+01
   4.567779e+01  -3.638160e+01
   3.925662e+01  -4.769665e+01
   5.197105e+01  -3.751694e+01
   6.853934e+01   1.523509e+01
   6.012212e+01   8.579005e+01
   1.174168e+01   1.227364e+02
  -5.643629e+01   9.176625e+01
  -9.563311e+01   8.942698e+00
  -7.232374e+01  -6.755011e+01
  -8.508712e+00  -8.677578e+01
   3.683858e+01  -4.966007e+01
   3.161690e+01  -7.931875e-01
   2.327802e+00   2.148555e+01
  -4.519781e+00   1.760639e+01
   2.043184e+01   1.101612e+01
   4.182501e+01   1.477083e+01
   2.257486e+01   2.155319e+01
  -3.414343e+01   1.777192e+01
  -8.308131e+01  -1.821078e+00
  -7.548412e+01  -2.926508e+01
  -7.911118e+00  -4.630061e+01
   6.489579e+01  -3.689236e+01
   7.819695e+01  -5.154895e+00
   2.540746e+01   2.182486e+01
  -3.350098e+01   1.820106e+01
  -4.028851e+01  -1.204091e+01
  -1.199822e+00  -3.686048e+01
   3.270165e+01  -2.947488e+01
   3.364887e+01   3.211406e+00
   2.110851e+01   2.840849e+01
   2.191872e+01   2.350787e+01
   3.369836e+01   2.392667e+00
   3.574591e+01   1.675158e+00
   1.624973e+01   3.698837e+01
  -2.176220e+01   7.708854e+01
  -6.475804e+01   7.254819e+01
  -8.718307e+01   1.366716e+01
  -6.335539e+01  -5.150590e+01
  -1.090771e+00  -6.703549e+01
   4.712430e+01  -3.010248e+01
   3.183278e+01   9.936972e+00
  -3.239670e+01   9.516126e+00
  -7.364465e+01  -2.639118e+01
  -3.932134e+01  -5.932317e+01
   4.531441e+01  -5.913782e+01
   1.039053e+02  -2.503550e+01
   8.742739e+01   2.052943e+01
   1.916821e+01   4.742727e+01
  -3.356235e+01   3.753021e+01
  -2.632557e+01   3.954326e+00
   2.141138e+01  -1.313816e+01
   4.814386e+01   1.446655e+01
   1.454606e+01   6.521470e+01
  -5.395461e+01   8.139756e+01
  -9.293874e+01   2.942488e+01
  -6.647469e+01  -5.791387e+01
  -8.625826e-01  -1.074946e+02
   4.940479e+01  -7.643491e+01
   5.613714e+01   5.231417e+00
   3.079495e+01   6.434663e+01
  -1.729800e+00   5.738204e+01
  -2.425674e+01   1.036214e+01
  -2.811711e+01  -1.754150e+01
  -1.490250e+01  -4.998511e+00
  -2.216667e+00   1.129379e+01
  -9.408598e+00  -8.192157e+00
  -2.782241e+01  -4.878187e+01
  -2.165794e+01  -6.000713e+01
   2.504948e+01  -2.336933e+01
   7.405725e+01   2.443122e+01
   6.940464e+01   4.100121e+01
   8.170041e+00   2.678330e+01
  -4.888879e+01   9.872664e+00
  -4.794629e+01   2.514531e+00
  -4.757019e+00  -3.942016e+00
   2.172881e+01  -1.145542e+01
   7.189991e+00  -9.933631e+00
  -1.241218e+01   2.900193e-01
   3.346230e+00   5.333198e+00
   4.100862e+01   4.095741e+00
   4.863251e+01   1.525657e+01
   1.099556e+00   4.380265e+01
  -6.791775e+01   5.866602e+01
  -1.012062e+02   2.607485e+01
  -7.366169e+01  -4.104391e+01
  -9.403505e+00  -8.834708e+01
   4.602963e+01  -7.810274e+01
   6.276801e+01  -2.785955e+01
   4.296380e+01   1.376232e+01
   1.227927e+01   1.937068e+01
  -2.623156e+00   4.297513e+00
   4.790903e+00   2.027489e+00
   1.696104e+01   2.480842e+01
   1.069089e+01   4.861022e+01
  -1.737056e+01   3.782007e+01
  -4.366817e+01  -1.219029e+01
  -3.880734e+01  -6.099887e+01
   1.467761e+00  -6.105710e+01
   4.608087e+01  -1.014053e+01
   5.370420e+01   4.439552e+01
   1.381509e+01   5.680004e+01
  -3.771791e+01   2.736891e+01
  -5.177183e+01  -9.473509e+00
  -1.876500e+01  -2.751218e+01
   1.905257e+01  -2.580208e+01
   1.647545e+01  -1.392282e+01
  -1.946628e+01  -8.994637e-01
  -3.762831e+01   1.718463e+00
  -6.918404e+00  -1.371932e+01
   4.421311e+01  -3.367639e+01
   6.263705e+01  -2.919385e+01
   3.292577e+01   7.631201e+00
  -1.082176e+01   4.407857e+01
  -2.992620e+01   4.074134e+01
  -1.935447e+01   9.698120e-01
   1.089083e+00  -3.072587e+01
   1.533508e+01  -2.185192e+01
   1.938818e+01   1.168512e+01
   1.272281e+01   2.976357e+01
  -2.836576e+00   1.683377e+01
  -1.769685e+01  -5.819715e+00
  -2.035275e+01  -1.184545e+01
  -1.085534e+01  -6.490659e-01
  -5.605369e-01   7.067087e+00
   3.289485e+00  -2.773639e+00
   5.435631e+00  -2.045611e+01
   1.205482e+01  -2.332710e+01
   1.870288e+01  -1.921688e+00
   1.433867e+01   2.651000e+01
  -4.269581e+00   3.343898e+01
  -2.519227e+01   9.522395e+00
  -2.891147e+01  -2.346585e+01
  -5.739024e+00  -3.478622e+01
   3.016061e+01  -1.656950e+01
   4.696420e+01   1.115141e+01
   2.508269e+01   2.505059e+01
  -1.670690e+01   2.061062e+01
  -3.554541e+01   9.046232e+00
  -1.266553e+01   1.550033e+00
   2.120157e+01   2.393403e+00
   2.074121e+01   1.028394e+01
  -1.790361e+01   1.700806e+01
  -5.102940e+01   8.703185e+00
