
 $NMID
 id='ANONYMOUS ', fmtdat='(2E16.6)'
 volume=1.0
 tramp=1.0
 $END
   4.419194e+03  -9.792831e+01
   2.590579e+03   2.630971e+03
  -7.558666e+02   2.794718e+03
  -2.150518e+03   8.657491e+02
  -9.246809e+02  -7.238948e+02
   7.261250e+02  -6.087370e+02
   9.393820e+02   4.633398e+02
  -6.195240e+00   1.112840e+03
  -8.512108e+02   8.024184e+02
  -9.581066e+02  -1.035953e+02
  -4.558023e+02  -8.849027e+02
   2.545581e+02  -9.055893e+02
   6.640892e+02  -1.098827e+02
   4.034755e+02   7.424829e+02
  -2.738906e+02   7.674943e+02
  -6.226631e+02  -8.997816e+00
  -2.772222e+02  -6.910961e+02
   3.287663e+02  -6.315776e+02
   5.834292e+02  -8.046808e+01
   3.806438e+02   3.574293e+02
   1.190799e+01   4.370410e+02
  -2.467610e+02   2.649898e+02
  -2.235107e+02   1.109661e+01
   1.087820e+02  -1.101601e+02
   4.249295e+02   8.741921e+01
   2.290523e+02   4.355562e+02
  -4.508091e+02   4.471429e+02
  -8.724008e+02  -4.794742e+01
  -4.574127e+02  -5.594247e+02
   3.925567e+02  -5.180258e+02
   7.688297e+02   1.268134e+01
   3.700460e+02   4.864279e+02
  -2.733531e+02   5.384462e+02
  -5.702507e+02   2.194880e+02
  -4.269657e+02  -2.252776e+02
  -7.633365e+01  -4.864357e+02
   2.111080e+02  -2.933269e+02
   1.952727e+02   2.308499e+02
  -1.586696e+02   4.686078e+02
  -4.729319e+02  -8.437220e-02
  -2.805433e+02  -6.965519e+02
   3.125643e+02  -7.321108e+02
   6.307164e+02  -1.315505e+01
   2.814204e+02   5.733362e+02
  -3.010997e+02   3.411637e+02
  -4.131783e+02  -3.219867e+02
   5.119766e+01  -5.630222e+02
   5.603760e+02  -1.565000e+02
   6.112141e+02   3.932463e+02
   1.790575e+02   5.856732e+02
  -3.805717e+02   3.600726e+02
  -6.375731e+02  -6.030715e+01
  -3.818184e+02  -3.863968e+02
   1.583118e+02  -3.789972e+02
   4.550984e+02  -6.033881e+01
   2.438757e+02   2.081136e+02
  -1.316049e+02   1.166082e+02
  -1.558748e+02  -1.634263e+02
   1.689344e+02  -2.042191e+02
   3.603941e+02   6.967434e+01
   1.481755e+02   3.065977e+02
  -2.023082e+02   2.623048e+02
  -3.226382e+02   7.270776e+01
  -1.867104e+02  -7.641858e+01
   1.790155e+01  -2.074314e+02
   1.967061e+02  -3.220915e+02
   3.222721e+02  -2.333192e+02
   2.993820e+02   1.226739e+02
   9.430007e+01   4.381071e+02
  -1.135366e+02   3.904793e+02
  -1.282582e+02   1.059075e+02
  -2.180802e+01  -2.559127e+01
  -2.604633e+01   8.486070e+01
  -1.813695e+02   1.456406e+02
  -2.830076e+02  -3.366887e+01
  -1.757330e+02  -2.643078e+02
   5.975717e+01  -2.653945e+02
   2.304847e+02  -2.490356e+01
   2.120520e+02   2.316168e+02
   4.125873e+00   2.982256e+02
  -2.625393e+02   1.312273e+02
  -3.688393e+02  -1.532217e+02
  -1.973551e+02  -3.477132e+02
   9.513678e+01  -3.108804e+02
   2.277503e+02  -1.214707e+02
   1.478453e+02   3.065973e-01
   8.902199e+01  -3.342376e+01
   2.213161e+02  -7.562767e+01
   3.940295e+02   3.744178e+01
   3.371137e+02   2.669261e+02
   1.550690e+01   4.353850e+02
  -3.365528e+02   4.196072e+02
  -4.742627e+02   2.167338e+02
  -3.407539e+02  -8.041287e+01
  -6.765821e+01  -2.944900e+02
   1.261839e+02  -2.607623e+02
   8.982466e+01  -2.950363e+01
  -1.050350e+02   1.198572e+02
  -2.044403e+02   3.915782e+00
  -6.136801e+01  -2.009087e+02
   1.617971e+02  -1.843065e+02
   1.893173e+02   5.660679e+01
  -1.037372e+01   2.006902e+02
  -1.964320e+02   4.302943e+01
  -1.705552e+02  -2.407766e+02
   2.194007e+01  -3.449848e+02
   2.182266e+02  -1.937498e+02
   3.162704e+02   5.116013e+01
   2.791905e+02   2.207936e+02
   1.066778e+02   2.538518e+02
  -1.039600e+02   1.643612e+02
  -1.784317e+02   2.818915e+01
  -6.243948e+01  -3.327299e+01
   7.327648e+01   3.238905e+01
   3.827637e+01   1.245705e+02
  -1.193120e+02   1.076735e+02
  -1.816438e+02  -4.933663e+00
  -6.384350e+01  -7.303058e+01
   7.820294e+01  -2.382195e+01
   5.970655e+01   6.665998e+01
  -1.133644e+02   8.888564e+01
  -2.720186e+02   1.262441e+01
  -2.630958e+02  -1.228448e+02
  -7.281023e+01  -2.462723e+02
   1.681411e+02  -2.665247e+02
   2.770158e+02  -1.382099e+02
   1.744342e+02   4.662167e+01
  -2.002954e+01   1.143346e+02
  -9.424097e+01   1.311233e+01
   2.534715e+01  -1.049728e+02
   1.924695e+02  -6.944058e+01
   2.175507e+02   9.356819e+01
   7.713254e+01   2.057524e+02
  -8.888100e+01   1.623921e+02
  -1.442683e+02   3.522193e+01
  -7.515494e+01  -4.002132e+01
   2.482914e+01  -8.878499e+00
   4.181930e+01   7.478024e+01
  -6.070768e+01   1.118571e+02
  -1.896137e+02   3.843804e+01
  -1.932699e+02  -1.115589e+02
  -3.034517e+01  -2.144899e+02
   1.574985e+02  -1.689486e+02
   1.939534e+02  -1.155380e+01
   6.962793e+01   1.144236e+02
  -6.310283e+01   1.150558e+02
  -8.361317e+01   3.381700e+01
  -2.247551e+01  -2.557347e+01
   1.758384e+01  -2.128534e+01
  -8.849023e+00   4.633557e+00
  -6.526308e+01  -7.525545e+00
  -8.533446e+01  -7.399250e+01
  -2.141599e+01  -1.496231e+02
   1.137566e+02  -1.526333e+02
   2.255424e+02  -3.670475e+01
   2.039544e+02   1.372257e+02
   5.008285e+01   2.318499e+02
  -1.023225e+02   1.716651e+02
  -1.332409e+02   3.041020e+01
  -6.998199e+01  -5.420807e+01
  -2.789545e+01  -3.530749e+01
  -5.105314e+01   1.325425e+01
  -7.575518e+01   9.030651e+00
  -3.972008e+01  -4.490726e+01
   3.795318e+01  -8.301247e+01
   9.304224e+01  -5.524058e+01
   8.013581e+01   2.887843e+01
  -7.693270e+00   1.036488e+02
  -1.296513e+02   8.821895e+01
  -1.917962e+02  -3.889611e+01
  -1.084898e+02  -1.899478e+02
   9.130772e+01  -2.280553e+02
   2.565546e+02  -1.063623e+02
   2.568820e+02   7.386649e+01
   1.153022e+02   1.703515e+02
  -3.261803e+01   1.469693e+02
  -9.069663e+01   8.605052e+01
  -7.692676e+01   7.004017e+01
  -6.350463e+01   8.971810e+01
  -8.751127e+01   7.400277e+01
  -1.245074e+02  -1.774693e+01
  -1.191725e+02  -1.457055e+02
  -3.715049e+01  -2.189773e+02
   8.988657e+01  -1.721591e+02
   1.714424e+02  -2.780226e+01
   1.391410e+02   1.130094e+02
   2.607749e+01   1.557363e+02
  -6.114452e+01   9.474527e+01
  -5.851854e+01   5.645659e+00
  -8.230032e+00  -3.951684e+01
   5.893879e+00  -3.422641e+01
  -3.715459e+01  -1.803016e+01
  -7.644274e+01  -2.018894e+01
  -4.368781e+01  -3.501813e+01
   5.865922e+01  -3.764863e+01
   1.501570e+02  -9.657621e+00
   1.408269e+02   4.255182e+01
   2.121263e+01   8.416189e+01
  -1.118377e+02   7.651115e+01
  -1.405922e+02   1.950682e+01
  -4.955572e+01  -3.647628e+01
   5.686448e+01  -3.718380e+01
   7.377436e+01   1.594438e+01
   7.926929e+00   6.462786e+01
  -5.353428e+01   5.614634e+01
  -6.028700e+01  -5.314962e-01
  -4.195717e+01  -4.643081e+01
  -4.270408e+01  -3.869188e+01
  -6.056821e+01  -5.432762e-01
  -6.435253e+01   1.589242e+00
  -3.484294e+01  -6.309675e+01
   2.774057e+01  -1.405219e+02
   1.060279e+02  -1.399682e+02
   1.547809e+02  -3.818501e+01
   1.210807e+02   8.305087e+01
   1.168578e+01   1.207542e+02
  -7.963240e+01   6.124373e+01
  -5.790513e+01  -1.319446e+01
   5.673071e+01  -2.125110e+01
   1.352350e+02   3.798775e+01
   7.813434e+01   1.018326e+02
  -7.391610e+01   1.123641e+02
  -1.839976e+02   5.823478e+01
  -1.602723e+02  -2.618218e+01
  -4.031343e+01  -8.334213e+01
   5.644067e+01  -7.197996e+01
   4.774819e+01  -1.034911e+01
  -3.615013e+01   2.665905e+01
  -8.788328e+01  -1.920100e+01
  -3.448276e+01  -1.140241e+02
   8.545195e+01  -1.515458e+02
   1.614301e+02  -6.399498e+01
   1.256374e+02   9.481744e+01
   1.521668e+01   1.916760e+02
  -7.884038e+01   1.430239e+02
  -1.019096e+02  -2.138674e+00
  -6.389246e+01  -1.120493e+02
  -3.791515e+00  -1.044540e+02
   4.292325e+01  -2.239578e+01
   5.273319e+01   2.858384e+01
   2.705089e+01   8.099774e+00
   2.900187e+00  -2.072607e+01
   1.890417e+01   1.234388e+01
   5.655181e+01   8.353481e+01
   4.601241e+01   1.058627e+02
  -4.234299e+01   4.627088e+01
  -1.356277e+02  -3.428500e+01
  -1.294650e+02  -6.518620e+01
  -1.863688e+01  -4.688987e+01
   8.570373e+01  -2.329522e+01
   8.580543e+01  -1.056061e+01
   9.699433e+00   5.701190e+00
  -3.745886e+01   2.286347e+01
  -1.234611e+01   1.931183e+01
   2.177407e+01  -1.391653e+00
  -6.209402e+00  -9.402472e+00
  -7.323908e+01  -2.773390e+00
  -8.888482e+01  -2.065049e+01
  -8.125175e+00  -7.666131e+01
   1.131394e+02  -1.127565e+02
   1.768107e+02  -6.061608e+01
   1.364521e+02   6.214758e+01
   2.834851e+01   1.560764e+02
  -7.140756e+01   1.462527e+02
  -1.078393e+02   5.868188e+01
  -7.846005e+01  -1.889530e+01
  -2.492068e+01  -3.290596e+01
   3.476501e+00  -7.443357e+00
  -9.471314e+00  -2.617224e+00
  -3.405712e+01  -4.260543e+01
  -2.565607e+01  -8.628270e+01
   2.606154e+01  -7.005143e+01
   7.931261e+01   1.630265e+01
   7.679233e+01   1.035658e+02
   5.435521e+00   1.082192e+02
  -7.996147e+01   2.348206e+01
  -1.007538e+02  -7.180706e+01
  -3.237028e+01  -9.880958e+01
   6.272510e+01  -5.384625e+01
   9.350917e+01   9.229398e+00
   3.830554e+01   4.605762e+01
  -2.945636e+01   4.909784e+01
  -2.766580e+01   2.825299e+01
   3.414147e+01  -8.338860e-02
   6.683021e+01  -7.998836e+00
   1.454547e+01   2.324245e+01
  -7.472029e+01   6.607108e+01
  -1.090369e+02   6.118922e+01
  -6.072356e+01  -8.435542e+00
   1.320324e+01  -8.010188e+01
   4.776109e+01  -7.761810e+01
   3.374980e+01  -5.446203e+00
   1.786249e+00   5.435618e+01
  -2.382306e+01   4.098157e+01
  -3.525851e+01  -1.814047e+01
  -2.674483e+01  -5.131788e+01
   1.924402e+00  -3.036391e+01
   3.200973e+01   7.965007e+00
   3.859307e+01   1.827322e+01
   1.999539e+01  -2.509823e-01
  -7.123551e-01  -1.242649e+01
  -6.944431e+00   5.190034e+00
  -7.414611e+00   3.595472e+01
  -1.721751e+01   4.157759e+01
  -3.135212e+01   5.504595e+00
  -2.811538e+01  -4.403484e+01
   3.084535e+00  -5.852707e+01
   4.308769e+01  -1.994297e+01
   5.418730e+01   3.725185e+01
   1.464940e+01   6.078949e+01
  -5.153157e+01   3.396493e+01
  -8.509380e+01  -1.305641e+01
  -4.815632e+01  -4.123479e+01
   2.653382e+01  -3.916571e+01
   6.155148e+01  -2.111712e+01
   2.226921e+01  -5.093574e+00
  -3.741420e+01  -2.467070e+00
  -3.725020e+01  -1.600676e+01
   3.037676e+01  -3.178315e+01
   8.976851e+01  -2.078710e+01
