
 $NMID
 id='ANONYMOUS ', fmtdat='(2E16.6)'
 volume=1.0
 tramp=1.0
 $END
   3.572527e+03  -9.449872e+01
   2.234695e+03   1.953112e+03
  -3.088032e+02   2.257368e+03
  -1.555095e+03   1.008828e+03
  -8.683232e+02  -2.208505e+02
   3.175996e+02  -3.738902e+02
   6.106269e+02   2.564026e+02
   3.260036e+01   7.739188e+02
  -5.950276e+02   6.538881e+02
  -7.462388e+02   6.245046e+00
  -4.245634e+02  -6.411585e+02
   1.020056e+02  -7.253435e+02
   4.470023e+02  -1.446436e+02
   3.115537e+02   5.352977e+02
  -1.700657e+02   6.136469e+02
  -4.775792e+02   4.186732e+01
  -2.792407e+02  -5.427637e+02
   1.972236e+02  -5.881956e+02
   4.841885e+02  -1.769625e+02
   3.879576e+02   2.384747e+02
   7.534766e+01   3.694855e+02
  -1.664896e+02   2.412358e+02
  -1.360481e+02   4.348305e+01
   1.375793e+02  -9.840231e+00
   3.327935e+02   1.647827e+02
   1.067337e+02   3.728260e+02
  -4.273667e+02   2.942129e+02
  -6.934948e+02  -9.852370e+01
  -3.236818e+02  -4.266422e+02
   3.306517e+02  -3.423842e+02
   5.958074e+02   5.854812e+01
   2.674936e+02   3.932944e+02
  -2.436487e+02   4.196770e+02
  -4.757952e+02   1.709783e+02
  -3.524354e+02  -1.734605e+02
  -8.035701e+01  -3.702062e+02
   1.101413e+02  -2.230125e+02
   7.506365e+01   1.515971e+02
  -1.557045e+02   2.970297e+02
  -3.191977e+02  -6.249077e+01
  -1.473656e+02  -5.558787e+02
   2.548300e+02  -5.522917e+02
   4.476801e+02  -1.134375e+01
   1.934551e+02   4.131617e+02
  -2.091593e+02   2.275861e+02
  -2.797307e+02  -2.739427e+02
   6.956801e+01  -4.461839e+02
   4.676109e+02  -1.076101e+02
   5.179313e+02   3.476586e+02
   1.648135e+02   5.010490e+02
  -3.118779e+02   2.981425e+02
  -5.394397e+02  -4.815074e+01
  -3.408697e+02  -2.912195e+02
   9.171007e+01  -2.834684e+02
   3.450300e+02  -7.205240e+01
   2.148755e+02   1.065899e+02
  -5.753219e+01   6.484394e+01
  -9.635779e+01  -9.804641e+01
   1.241503e+02  -1.244228e+02
   2.748450e+02   5.053748e+01
   1.305539e+02   2.303087e+02
  -1.599428e+02   2.396476e+02
  -3.071305e+02   1.045618e+02
  -2.132459e+02  -7.537721e+01
   1.146966e+01  -2.472719e+02
   2.228016e+02  -3.273852e+02
   3.200238e+02  -1.905960e+02
   2.519467e+02   1.297058e+02
   7.229686e+01   3.710166e+02
  -6.440733e+01   3.298945e+02
  -6.610711e+01   1.291823e+02
  -2.288583e+01   3.849722e+01
  -7.460060e+01   9.705949e+01
  -2.014517e+02   9.795470e+01
  -2.467983e+02  -6.872581e+01
  -1.276419e+02  -2.424722e+02
   7.009463e+01  -2.148189e+02
   1.973064e+02   5.338772e+00
   1.651352e+02   2.201885e+02
  -1.723306e+01   2.560168e+02
  -2.365324e+02   9.343127e+01
  -3.174991e+02  -1.473962e+02
  -1.746492e+02  -2.979810e+02
   6.399227e+01  -2.685203e+02
   1.804550e+02  -1.307507e+02
   1.353130e+02  -4.004387e+01
   1.094785e+02  -5.090168e+01
   2.329486e+02  -5.760837e+01
   3.774051e+02   5.540646e+01
   3.112425e+02   2.583512e+02
   2.445581e+00   4.074910e+02
  -3.287230e+02   3.865482e+02
  -4.416559e+02   1.892825e+02
  -2.935643e+02  -8.043061e+01
  -4.359093e+01  -2.539178e+02
   9.962045e+01  -2.138571e+02
   4.591531e+01  -3.044237e+01
  -1.039916e+02   7.589313e+01
  -1.562153e+02  -1.488267e+01
  -3.346720e+01  -1.594628e+02
   1.285890e+02  -1.351235e+02
   1.391236e+02   4.992744e+01
  -1.696291e+01   1.544528e+02
  -1.666652e+02   2.180668e+01
  -1.534561e+02  -2.191475e+02
   1.392147e+01  -3.201455e+02
   2.110301e+02  -1.916762e+02
   3.158081e+02   4.620394e+01
   2.650879e+02   2.215040e+02
   8.200322e+01   2.464746e+02
  -1.071262e+02   1.440196e+02
  -1.533161e+02   1.749665e+01
  -4.494921e+01  -2.157201e+01
   5.897880e+01   4.371998e+01
   1.696240e+01   1.115612e+02
  -1.131186e+02   8.246235e+01
  -1.531860e+02  -1.348739e+01
  -4.432891e+01  -5.940779e+01
   7.569840e+01  -5.835545e+00
   4.725269e+01   7.494254e+01
  -1.217360e+02   8.541033e+01
  -2.692218e+02   9.556108e-02
  -2.459018e+02  -1.340034e+02
  -5.017625e+01  -2.381517e+02
   1.729847e+02  -2.363988e+02
   2.532512e+02  -1.125175e+02
   1.453227e+02   4.151501e+01
  -2.286957e+01   8.954013e+01
  -7.356814e+01   3.960769e+00
   3.643582e+01  -8.700861e+01
   1.757213e+02  -4.967226e+01
   1.899100e+02   8.983013e+01
   6.408565e+01   1.823413e+02
  -8.100983e+01   1.394563e+02
  -1.249590e+02   2.538493e+01
  -5.621488e+01  -3.521389e+01
   3.270583e+01   5.700260e+00
   3.414773e+01   8.703071e+01
  -7.279616e+01   1.096886e+02
  -1.878114e+02   2.664690e+01
  -1.771718e+02  -1.129246e+02
  -2.159300e+01  -1.971912e+02
   1.440659e+02  -1.506444e+02
   1.708595e+02  -1.292022e+01
   5.888321e+01   9.611416e+01
  -5.683242e+01   9.817838e+01
  -7.082750e+01   2.783585e+01
  -1.066532e+01  -2.377216e+01
   2.628717e+01  -1.452174e+01
  -7.518428e+00   1.503690e+01
  -7.246925e+01  -4.522794e-01
  -9.147749e+01  -7.592259e+01
  -1.805613e+01  -1.528540e+02
   1.182843e+02  -1.456228e+02
   2.172705e+02  -2.484583e+01
   1.871862e+02   1.359806e+02
   4.369862e+01   2.140608e+02
  -9.250364e+01   1.555125e+02
  -1.215924e+02   3.065084e+01
  -6.770589e+01  -4.416682e+01
  -2.939444e+01  -2.908655e+01
  -4.968027e+01   1.396047e+01
  -7.665029e+01   9.089832e+00
  -4.669259e+01  -4.702256e+01
   3.428174e+01  -9.001198e+01
   1.006015e+02  -6.056049e+01
   8.949339e+01   3.268631e+01
  -9.543482e+00   1.105999e+02
  -1.368803e+02   8.661273e+01
  -1.877140e+02  -4.642711e+01
  -9.300115e+01  -1.880758e+02
   9.885257e+01  -2.120226e+02
   2.439492e+02  -9.089971e+01
   2.347125e+02   7.359337e+01
   1.016439e+02   1.567475e+02
  -3.212167e+01   1.330415e+02
  -8.214235e+01   7.843214e+01
  -6.680367e+01   6.623199e+01
  -5.487791e+01   8.701646e+01
  -8.160583e+01   7.348414e+01
  -1.200700e+02  -1.437955e+01
  -1.138707e+02  -1.379172e+02
  -3.311679e+01  -2.071522e+02
   8.639176e+01  -1.593638e+02
   1.591258e+02  -2.032374e+01
   1.254280e+02   1.106056e+02
   1.829029e+01   1.454119e+02
  -6.311549e+01   8.258047e+01
  -5.717409e+01  -3.770252e+00
  -2.606955e+00  -4.425218e+01
   1.545743e+01  -3.350732e+01
  -2.980503e+01  -1.335953e+01
  -7.568396e+01  -1.604168e+01
  -4.476996e+01  -3.433831e+01
   6.140916e+01  -3.773903e+01
   1.522276e+02  -6.317712e+00
   1.344537e+02   4.789954e+01
   1.046811e+01   8.576610e+01
  -1.146432e+02   7.231613e+01
  -1.336577e+02   1.348860e+01
  -4.451869e+01  -4.037134e+01
   5.376773e+01  -3.917510e+01
   7.137772e+01   1.451096e+01
   1.450989e+01   6.447591e+01
  -4.481105e+01   5.816050e+01
  -6.044314e+01   2.418541e+00
  -4.824716e+01  -4.426133e+01
  -4.339780e+01  -3.757193e+01
  -5.386755e+01  -2.068925e-01
  -6.035647e+01   1.284139e+00
  -3.884567e+01  -6.277235e+01
   2.252522e+01  -1.378699e+02
   1.062264e+02  -1.361047e+02
   1.570574e+02  -3.677065e+01
   1.197236e+02   8.102704e+01
   8.535580e+00   1.190708e+02
  -7.962356e+01   6.312869e+01
  -5.645473e+01  -9.798599e+00
   5.319056e+01  -2.058578e+01
   1.259832e+02   3.473902e+01
   7.079026e+01   9.590268e+01
  -7.190292e+01   1.044768e+02
  -1.731766e+02   5.026194e+01
  -1.480536e+02  -2.918747e+01
  -3.402101e+01  -7.802441e+01
   5.556022e+01  -6.260989e+01
   4.501630e+01  -4.584506e+00
  -3.511026e+01   2.790754e+01
  -8.476822e+01  -1.612589e+01
  -3.729422e+01  -1.061483e+02
   7.306346e+01  -1.449441e+02
   1.467992e+02  -6.624264e+01
   1.192705e+02   8.374445e+01
   1.870402e+01   1.782258e+02
  -7.217498e+01   1.334007e+02
  -9.613040e+01  -4.748429e+00
  -5.722108e+01  -1.074806e+02
   3.228903e+00  -9.670770e+01
   4.417835e+01  -1.793058e+01
   4.593906e+01   2.769708e+01
   2.009442e+01   6.952078e+00
   3.931310e+00  -1.778732e+01
   2.392203e+01   1.533103e+01
   5.503748e+01   7.990496e+01
   3.770232e+01   9.754562e+01
  -4.551521e+01   4.224694e+01
  -1.269198e+02  -3.070581e+01
  -1.183612e+02  -6.038962e+01
  -1.831009e+01  -4.648721e+01
   7.650239e+01  -2.455747e+01
   8.004153e+01  -9.056768e+00
   1.322604e+01   7.895290e+00
  -3.285672e+01   2.119747e+01
  -1.490695e+01   1.508714e+01
   1.660799e+01  -2.838484e+00
  -4.152615e+00  -6.764424e+00
  -6.466588e+01   7.322837e-01
  -8.527029e+01  -1.767528e+01
  -1.631619e+01  -7.296377e+01
   9.963496e+01  -1.100110e+02
   1.687753e+02  -6.373445e+01
   1.366188e+02   5.237059e+01
   3.204566e+01   1.460422e+02
  -6.746916e+01   1.425254e+02
  -1.033374e+02   6.090944e+01
  -7.451109e+01  -1.586127e+01
  -2.487888e+01  -3.261874e+01
  -1.392068e-01  -9.708625e+00
  -1.129523e+01  -5.084623e+00
  -3.085380e+01  -4.235958e+01
  -2.188125e+01  -8.242549e+01
   2.427784e+01  -6.674201e+01
   7.363465e+01   1.269319e+01
   7.539094e+01   9.342275e+01
   1.216951e+01   1.013338e+02
  -7.089854e+01   2.799294e+01
  -9.770851e+01  -6.065961e+01
  -3.658946e+01  -9.303975e+01
   5.732700e+01  -5.702713e+01
   9.248293e+01   5.201677e+00
   4.091695e+01   4.783266e+01
  -2.832776e+01   5.295640e+01
  -3.144470e+01   2.783917e+01
   2.746176e+01  -3.612453e+00
   6.270178e+01  -9.557260e+00
   1.616778e+01   2.320875e+01
  -6.988849e+01   6.302884e+01
  -1.063786e+02   5.572633e+01
  -6.233241e+01  -1.044902e+01
   1.040251e+01  -7.738275e+01
   4.767342e+01  -7.649685e+01
   3.678167e+01  -1.003672e+01
   5.682162e+00   4.925091e+01
  -2.082246e+01   4.240133e+01
  -3.376555e+01  -1.195063e+01
  -2.713287e+01  -4.828385e+01
   1.217683e-01  -3.307101e+01
   3.056146e+01   5.072632e+00
   3.831352e+01   1.959716e+01
   1.919886e+01   1.881716e+00
  -2.830059e+00  -1.524805e+01
  -6.658015e+00  -1.981579e+00
  -4.135436e-01   3.114465e+01
  -6.448084e+00   4.419482e+01
  -2.619026e+01   1.410481e+01
  -3.343894e+01  -3.517629e+01
  -6.757031e+00  -5.457542e+01
   3.794369e+01  -2.249264e+01
   5.553723e+01   3.084679e+01
   1.767481e+01   5.577391e+01
  -4.977546e+01   3.413856e+01
  -8.362993e+01  -8.899927e+00
  -4.729817e+01  -3.810679e+01
   2.454972e+01  -4.045136e+01
   5.844452e+01  -2.492220e+01
   2.395185e+01  -6.478041e+00
  -3.005366e+01   1.291639e+00
  -3.279599e+01  -9.184068e+00
   2.401696e+01  -2.678519e+01
   7.710539e+01  -2.129063e+01
