
 $NMID
 id='ANONYMOUS ', fmtdat='(2E16.6)'
 volume=1.0
 tramp=1.0
 $END
  -2.738696e+03  -1.274176e+02
  -1.875210e+03  -1.327249e+03
  -1.928960e+02  -1.747123e+03
   9.516049e+02  -1.284775e+03
   9.331621e+02  -4.484173e+02
   2.619129e+02   8.162353e+01
  -1.858527e+02   1.131900e+01
  -6.552535e+01  -3.608187e+02
   3.208580e+02  -4.854697e+02
   5.305359e+02  -1.318880e+02
   4.009078e+02   3.848863e+02
   7.341045e+01   5.505861e+02
  -1.888663e+02   2.012306e+02
  -1.858473e+02  -3.037322e+02
   7.086779e+01  -4.528932e+02
   3.261395e+02  -9.847138e+01
   2.855937e+02   4.107537e+02
  -7.002466e+01   5.943716e+02
  -4.219232e+02   3.145784e+02
  -4.409543e+02  -1.234078e+02
  -1.561289e+02  -3.277321e+02
   8.416868e+01  -2.298807e+02
   2.728412e+01  -9.665681e+01
  -1.880308e+02  -1.589360e+02
  -2.093509e+02  -3.240933e+02
   9.413137e+01  -3.192992e+02
   4.546997e+02  -6.051894e+01
   4.924399e+02   2.312557e+02
   1.364931e+02   2.913303e+02
  -2.884025e+02   9.364874e+01
  -3.955890e+02  -1.706155e+02
  -1.192207e+02  -3.130750e+02
   2.537214e+02  -2.721491e+02
   4.016707e+02  -8.574756e+01
   2.733338e+02   1.398074e+02
   7.652647e+01   2.471962e+02
   1.842308e+01   1.456917e+02
   1.040899e+02  -4.184137e+01
   1.777766e+02  -5.782034e+01
   1.108930e+02   1.771008e+02
  -7.249430e+01   4.086725e+02
  -2.282619e+02   3.304538e+02
  -2.250353e+02  -9.324227e+00
  -6.437945e+01  -2.276086e+02
   1.022445e+02  -7.425279e+01
   9.126332e+01   2.450098e+02
  -1.338229e+02   3.153157e+02
  -3.891111e+02   1.426743e+01
  -4.142847e+02  -3.588503e+02
  -1.277903e+02  -4.487966e+02
   2.665020e+02  -2.206396e+02
   4.548253e+02   7.379249e+01
   3.061045e+02   2.091152e+02
  -1.602514e+01   1.727526e+02
  -2.284147e+02   8.053938e+01
  -2.002457e+02   1.903029e+01
  -4.893641e+01   2.596332e+00
   1.624259e+01   1.205435e+01
  -7.320548e+01   1.188448e+01
  -1.763946e+02  -4.277071e+01
  -1.080802e+02  -1.527121e+02
   1.348799e+02  -2.257854e+02
   3.360915e+02  -1.401270e+02
   2.742605e+02   1.063863e+02
  -3.083090e+01   3.396020e+02
  -3.222259e+02   3.534376e+02
  -3.698973e+02   1.200111e+02
  -1.984892e+02  -1.746470e+02
  -2.151217e+01  -3.195358e+02
   2.056312e+01  -2.790826e+02
  -5.934302e+00  -1.827393e+02
   3.879247e+01  -1.393985e+02
   1.690259e+02  -1.153392e+02
   2.612394e+02  -1.623550e+01
   2.121522e+02   1.497320e+02
   5.036320e+01   2.459391e+02
  -1.086757e+02   1.569391e+02
  -1.674551e+02  -6.665652e+01
  -9.524486e+01  -2.403857e+02
   7.080066e+01  -2.197846e+02
   2.309222e+02  -2.862655e+01
   2.663347e+02   1.804904e+02
   1.405128e+02   2.731996e+02
  -4.418119e+01   2.356763e+02
  -1.442224e+02   1.506506e+02
  -1.419645e+02   9.597670e+01
  -1.616400e+02   7.155611e+01
  -2.836541e+02   1.432251e+01
  -3.927475e+02  -1.229970e+02
  -2.883660e+02  -3.038898e+02
   5.167349e+01  -4.153544e+02
   3.904929e+02  -3.556429e+02
   4.622358e+02  -1.343398e+02
   2.512114e+02   1.122234e+02
  -6.373435e+00   2.252389e+02
  -8.575668e+01   1.632139e+02
   1.260119e+01   3.682681e+01
   1.173682e+02  -8.662592e+00
   9.855823e+01   5.424140e+01
  -1.479995e+01   1.159927e+02
  -1.006574e+02   6.906411e+01
  -7.610543e+01  -5.287707e+01
   3.794837e+01  -1.009041e+02
   1.417450e+02   1.979385e+01
   1.291170e+02   2.261046e+02
  -3.008430e+01   3.225861e+02
  -2.444407e+02   1.942496e+02
  -3.516993e+02  -7.373050e+01
  -2.566566e+02  -2.737217e+02
  -3.267599e+01  -2.712207e+02
   1.365355e+02  -1.208900e+02
   1.346994e+02   7.837096e+00
   2.328865e+01   8.436032e+00
  -3.915737e+01  -7.040344e+01
   2.231619e+01  -1.048398e+02
   1.226461e+02  -4.459438e+01
   1.268150e+02   3.907776e+01
   1.621025e+01   4.784927e+01
  -7.987695e+01  -2.770849e+01
  -2.623589e+01  -1.000717e+02
   1.575969e+02  -7.867425e+01
   2.977669e+02   4.372552e+01
   2.371326e+02   1.889226e+02
   7.791898e-01   2.579923e+02
  -2.207475e+02   2.037438e+02
  -2.564472e+02   6.687938e+01
  -1.160027e+02  -4.893167e+01
   3.543967e+01  -6.048850e+01
   5.052072e+01   1.388030e+01
  -6.397386e+01   6.584698e+01
  -1.746732e+02   1.143860e+01
  -1.638857e+02  -1.098207e+02
  -3.818745e+01  -1.740751e+02
   8.943080e+01  -1.155272e+02
   1.124610e+02  -4.295028e+00
   3.166861e+01   3.525447e+01
  -4.665717e+01  -3.276300e+01
  -1.718846e+01  -1.191485e+02
   1.105220e+02  -1.121407e+02
   2.100481e+02   5.227398e+00
   1.644566e+02   1.439022e+02
  -5.259659e+00   1.967688e+02
  -1.536036e+02   1.300687e+02
  -1.586164e+02   3.616431e+00
  -4.322859e+01  -8.446578e+01
   6.152938e+01  -8.031926e+01
   6.211921e+01  -1.719881e+01
  -8.064736e+00   2.360131e+01
  -4.350913e+01   2.513698e+00
   9.092691e+00  -3.236664e+01
   9.357498e+01  -2.739350e+00
   1.052886e+02   9.779332e+01
   6.425609e-01   1.785719e+02
  -1.529681e+02   1.419340e+02
  -2.331722e+02  -9.310116e+00
  -1.728996e+02  -1.667444e+02
  -2.179062e+01  -2.173755e+02
   1.017159e+02  -1.431999e+02
   1.221177e+02  -2.506503e+01
   6.997405e+01   4.041098e+01
   3.349821e+01   2.616801e+01
   5.529307e+01  -1.238309e+01
   8.864995e+01  -3.123437e+00
   5.872010e+01   6.143812e+01
  -4.222190e+01   1.094893e+02
  -1.312826e+02   6.619541e+01
  -1.117610e+02  -5.212589e+01
   2.469576e+01  -1.342542e+02
   1.732594e+02  -8.162924e+01
   2.001828e+02   8.080681e+01
   6.390674e+01   2.159446e+02
  -1.407471e+02   2.044096e+02
  -2.622998e+02   5.769639e+01
  -2.238761e+02  -1.016421e+02
  -8.078444e+01  -1.636590e+02
   4.610822e+01  -1.257431e+02
   8.585746e+01  -7.017734e+01
   6.548761e+01  -6.387427e+01
   5.639597e+01  -8.993084e+01
   8.971437e+01  -7.521046e+01
   1.276582e+02   2.164882e+01
   1.084225e+02   1.534881e+02
   1.338028e+01   2.180314e+02
  -1.052827e+02   1.524895e+02
  -1.615218e+02  -1.812077e+00
  -1.104404e+02  -1.309994e+02
   3.547689e+00  -1.488863e+02
   8.037195e+01  -6.837464e+01
   6.091570e+01   2.382429e+01
  -1.035778e+01   5.671635e+01
  -3.510962e+01   3.408696e+01
   2.166753e+01   9.777338e+00
   8.318979e+01   1.865703e+01
   4.903762e+01   4.195917e+01
  -7.696857e+01   3.666357e+01
  -1.750009e+02  -1.236395e+01
  -1.367449e+02  -7.390358e+01
   1.281512e+01  -9.883436e+01
   1.397655e+02  -6.413864e+01
   1.405984e+02   5.570877e+00
   3.826022e+01   5.501005e+01
  -5.975330e+01   4.261383e+01
  -7.563668e+01  -2.049343e+01
  -2.049127e+01  -7.461059e+01
   4.279245e+01  -6.556832e+01
   6.897425e+01  -1.625163e+00
   6.020193e+01   5.181785e+01
   4.664846e+01   4.475626e+01
   5.048871e+01   3.901154e+00
   6.201186e+01   4.132731e+00
   4.415482e+01   7.436954e+01
  -2.986771e+01   1.499340e+02
  -1.322342e+02   1.376684e+02
  -1.838195e+02   2.445245e+01
  -1.256462e+02  -9.919842e+01
   6.042718e+00  -1.320885e+02
   9.584928e+01  -6.668802e+01
   6.093540e+01   1.090244e+01
  -5.637705e+01   1.768809e+01
  -1.250431e+02  -4.475224e+01
  -6.038712e+01  -1.047206e+02
   8.672168e+01  -9.928915e+01
   1.823739e+02  -2.970303e+01
   1.451379e+02   4.976678e+01
   2.212353e+01   8.221787e+01
  -6.596853e+01   5.118690e+01
  -4.629737e+01  -7.511034e+00
   4.073408e+01  -3.025129e+01
   8.968309e+01   2.095246e+01
   3.747183e+01   1.114143e+02
  -7.603402e+01   1.480384e+02
  -1.495117e+02   6.629731e+01
  -1.182999e+02  -8.774164e+01
  -1.153768e+01  -1.824986e+02
   8.236880e+01  -1.297799e+02
   9.877687e+01   1.756912e+01
   4.487968e+01   1.186852e+02
  -2.243223e+01   9.601894e+01
  -5.285942e+01   9.123979e+00
  -3.892297e+01  -3.330767e+01
  -1.148818e+01  -7.100119e+00
  -7.306862e+00   1.506184e+01
  -3.288188e+01  -2.469212e+01
  -5.276644e+01  -8.945361e+01
  -2.173458e+01  -9.972828e+01
   5.961406e+01  -3.686227e+01
   1.273470e+02   3.985073e+01
   1.114186e+02   7.037081e+01
   1.588255e+01   5.345818e+01
  -7.458612e+01   2.364537e+01
  -8.207347e+01   1.182485e+00
  -1.932119e+01  -1.391962e+01
   3.175698e+01  -1.885818e+01
   2.162129e+01  -8.842787e+00
  -1.124573e+01   4.504254e+00
   1.221731e+00   3.719213e+00
   6.026506e+01  -1.241641e+00
   8.932776e+01   2.283868e+01
   2.463549e+01   7.910836e+01
  -1.015120e+02   1.122318e+02
  -1.842743e+02   6.196683e+01
  -1.506293e+02  -5.675291e+01
  -2.947342e+01  -1.527091e+02
   8.280356e+01  -1.492125e+02
   1.155362e+02  -6.305613e+01
   7.685882e+01   1.966484e+01
   2.499823e+01   3.864132e+01
   4.524817e+00   1.487055e+01
   1.476149e+01   1.078402e+01
   2.598056e+01   4.985911e+01
   1.170949e+01   8.859847e+01
  -3.042871e+01   6.814710e+01
  -7.358364e+01  -1.491978e+01
  -7.542486e+01  -9.661252e+01
  -1.548169e+01  -1.056494e+02
   6.919182e+01  -3.300189e+01
   1.012292e+02   6.000094e+01
   3.979557e+01   9.996730e+01
  -6.203839e+01   6.451535e+01
  -1.027124e+02  -8.142999e+00
  -4.548855e+01  -6.076597e+01
   3.558955e+01  -6.313613e+01
   4.378008e+01  -2.738206e+01
  -2.148777e+01   7.745752e+00
  -6.544641e+01   7.850911e+00
  -1.856884e+01  -2.781344e+01
   7.687288e+01  -6.050949e+01
   1.203790e+02  -4.491754e+01
   7.153674e+01   2.084374e+01
  -1.428270e+01   8.245999e+01
  -6.057822e+01   8.012550e+01
  -4.760810e+01   1.457565e+01
  -8.430451e+00  -4.870620e+01
   2.298291e+01  -4.841897e+01
   3.542576e+01   6.936765e+00
   2.707876e+01   5.235507e+01
  -7.688108e-01   4.164642e+01
  -3.211978e+01  -3.944497e+00
  -4.079446e+01  -2.764558e+01
  -1.999391e+01  -7.074924e+00
   4.681470e+00   2.203736e+01
   6.015551e+00   1.381069e+01
  -7.960500e+00  -2.855379e+01
  -4.822744e+00  -5.455117e+01
   2.396829e+01  -2.728424e+01
   4.367629e+01   2.982972e+01
   1.812319e+01   5.729839e+01
  -3.729309e+01   2.637483e+01
  -6.260631e+01  -3.027681e+01
  -2.000265e+01  -5.720541e+01
   5.661962e+01  -3.435623e+01
   9.173189e+01   1.124160e+01
   4.886113e+01   4.245483e+01
  -2.854677e+01   4.554587e+01
  -6.390902e+01   2.889078e+01
  -3.035498e+01   7.001626e+00
   2.317920e+01  -5.323060e+00
   3.012635e+01   2.398476e+00
  -1.920972e+01   2.108369e+01
  -6.956449e+01   1.916225e+01
