
 $NMID
 id='ANONYMOUS ', fmtdat='(2E16.6)'
 volume=1.0
 tramp=1.0
 $END
  -2.795774e+03  -1.069413e+02
  -1.919105e+03  -1.347107e+03
  -1.974533e+02  -1.782685e+03
   9.702261e+02  -1.305271e+03
   9.442765e+02  -4.475093e+02
   2.555532e+02   8.804437e+01
  -1.973084e+02   8.199029e+00
  -6.880609e+01  -3.738636e+02
   3.277020e+02  -4.983761e+02
   5.420261e+02  -1.349912e+02
   4.100970e+02   3.931119e+02
   7.472288e+01   5.620220e+02
  -1.955814e+02   2.047304e+02
  -1.933073e+02  -3.113756e+02
   7.081955e+01  -4.633342e+02
   3.334260e+02  -1.010736e+02
   2.924131e+02   4.176935e+02
  -6.997538e+01   6.037042e+02
  -4.277457e+02   3.192066e+02
  -4.474046e+02  -1.249228e+02
  -1.589147e+02  -3.326067e+02
   8.561251e+01  -2.341637e+02
   2.932440e+01  -9.742184e+01
  -1.904647e+02  -1.569676e+02
  -2.164951e+02  -3.242936e+02
   8.959375e+01  -3.252479e+02
   4.600855e+02  -6.864304e+01
   5.047739e+02   2.287516e+02
   1.441625e+02   2.970969e+02
  -2.924554e+02   1.016882e+02
  -4.061491e+02  -1.682003e+02
  -1.259034e+02  -3.182687e+02
   2.553623e+02  -2.805511e+02
   4.083769e+02  -9.122922e+01
   2.798199e+02   1.407372e+02
   7.945191e+01   2.527790e+02
   1.721577e+01   1.494845e+02
   1.016830e+02  -4.488189e+01
   1.791748e+02  -6.435753e+01
   1.174340e+02   1.764278e+02
  -6.655210e+01   4.176001e+02
  -2.297479e+02   3.410808e+02
  -2.327135e+02  -7.284940e+00
  -6.956371e+01  -2.339543e+02
   1.051002e+02  -7.915251e+01
   9.780845e+01   2.482904e+02
  -1.324082e+02   3.232084e+02
  -3.961309e+02   1.878260e+01
  -4.245645e+02  -3.612533e+02
  -1.331972e+02  -4.556129e+02
   2.698535e+02  -2.270989e+02
   4.635937e+02   7.149075e+01
   3.127209e+02   2.119003e+02
  -1.648679e+01   1.777023e+02
  -2.335945e+02   8.315943e+01
  -2.036160e+02   1.809817e+01
  -4.770045e+01   1.414289e+00
   1.827764e+01   1.365657e+01
  -7.499468e+01   1.478711e+01
  -1.811912e+02  -4.230749e+01
  -1.111811e+02  -1.557887e+02
   1.359792e+02  -2.302527e+02
   3.397239e+02  -1.434723e+02
   2.777098e+02   1.058237e+02
  -2.904425e+01   3.429763e+02
  -3.229819e+02   3.599057e+02
  -3.735422e+02   1.252883e+02
  -2.034295e+02  -1.750610e+02
  -2.483681e+01  -3.250379e+02
   1.994682e+01  -2.844058e+02
  -5.616642e+00  -1.845007e+02
   3.841030e+01  -1.396994e+02
   1.690296e+02  -1.175259e+02
   2.636868e+02  -1.952265e+01
   2.167104e+02   1.490292e+02
   5.408358e+01   2.490597e+02
  -1.084791e+02   1.609666e+02
  -1.707969e+02  -6.538593e+01
  -9.942012e+01  -2.428429e+02
   6.941559e+01  -2.240642e+02
   2.341517e+02  -3.170966e+01
   2.722915e+02   1.808180e+02
   1.449443e+02   2.768132e+02
  -4.374144e+01   2.401042e+02
  -1.461929e+02   1.534269e+02
  -1.434639e+02   9.714820e+01
  -1.626246e+02   7.308491e+01
  -2.866943e+02   1.698532e+01
  -3.988685e+02  -1.211694e+02
  -2.948161e+02  -3.057214e+02
   4.890309e+01  -4.215523e+02
   3.928700e+02  -3.637339e+02
   4.677600e+02  -1.401350e+02
   2.563652e+02   1.116742e+02
  -4.087178e+00   2.290718e+02
  -8.621780e+01   1.671551e+02
   1.185793e+01   3.728252e+01
   1.186641e+02  -1.077915e+01
   1.013893e+02   5.357588e+01
  -1.329986e+01   1.185516e+02
  -1.021493e+02   7.202916e+01
  -7.876967e+01  -5.302473e+01
   3.739315e+01  -1.036269e+02
   1.443664e+02   1.837779e+01
   1.328460e+02   2.284911e+02
  -2.828056e+01   3.274598e+02
  -2.462432e+02   1.984781e+02
  -3.565933e+02  -7.223962e+01
  -2.621626e+02  -2.751953e+02
  -3.570236e+01  -2.744604e+02
   1.372120e+02  -1.238929e+02
   1.370530e+02   6.615085e+00
   2.413027e+01   8.635384e+00
  -4.049476e+01  -7.065243e+01
   2.123895e+01  -1.065808e+02
   1.239348e+02  -4.670993e+01
   1.293901e+02   3.834547e+01
   1.730675e+01   4.863113e+01
  -8.107986e+01  -2.699333e+01
  -2.758670e+01  -1.008651e+02
   1.587442e+02  -8.084803e+01
   3.017949e+02   4.178394e+01
   2.418416e+02   1.892061e+02
   3.264972e+00   2.613234e+02
  -2.217963e+02   2.086287e+02
  -2.596893e+02   7.029191e+01
  -1.185690e+02  -4.875820e+01
   3.530051e+01  -6.213766e+01
   5.176603e+01   1.339100e+01
  -6.394817e+01   6.756492e+01
  -1.771357e+02   1.340365e+01
  -1.674382e+02  -1.100216e+02
  -4.031815e+01  -1.765319e+02
   8.984985e+01  -1.182231e+02
   1.143016e+02  -5.468612e+00
   3.282651e+01   3.553818e+01
  -4.722126e+01  -3.246693e+01
  -1.842788e+01  -1.201502e+02
   1.107530e+02  -1.143441e+02
   2.126928e+02   3.464173e+00
   1.679424e+02   1.444150e+02
  -3.631454e+00   1.996678e+02
  -1.548690e+02   1.332979e+02
  -1.611612e+02   4.827509e+00
  -4.470235e+01  -8.565220e+01
   6.183136e+01  -8.221562e+01
   6.308387e+01  -1.805006e+01
  -7.677318e+00   2.396663e+01
  -4.377955e+01   3.013387e+00
   9.034891e+00  -3.255972e+01
   9.453776e+01  -3.240088e+00
   1.071232e+02   9.820743e+01
   2.015388e+00   1.806755e+02
  -1.536954e+02   1.449585e+02
  -2.363025e+02  -7.411870e+00
  -1.766786e+02  -1.675456e+02
  -2.383942e+01  -2.203534e+02
   1.021570e+02  -1.461512e+02
   1.237523e+02  -2.627739e+01
   7.121481e+01   4.066551e+01
   3.407658e+01   2.641829e+01
   5.592419e+01  -1.291859e+01
   8.969743e+01  -3.795769e+00
   5.969637e+01   6.173614e+01
  -4.207075e+01   1.109682e+02
  -1.322400e+02   6.779555e+01
  -1.132570e+02  -5.188905e+01
   2.400412e+01  -1.358991e+02
   1.746138e+02  -8.390577e+01
   2.033212e+02   8.015338e+01
   6.666309e+01   2.181567e+02
  -1.407704e+02   2.083473e+02
  -2.654123e+02   6.073752e+01
  -2.279558e+02  -1.012334e+02
  -8.335567e+01  -1.654198e+02
   4.574837e+01  -1.279954e+02
   8.661754e+01  -7.188486e+01
   6.609341e+01  -6.526092e+01
   5.666555e+01  -9.154024e+01
   9.043468e+01  -7.681301e+01
   1.295149e+02   2.107470e+01
   1.110250e+02   1.547932e+02
   1.525201e+01   2.209265e+02
  -1.055426e+02   1.554755e+02
  -1.638330e+02  -4.418657e-01
  -1.131141e+02  -1.318478e+02
   2.286930e+00  -1.510006e+02
   8.078690e+01  -7.011265e+01
   6.184894e+01   2.342735e+01
  -9.941437e+00   5.735025e+01
  -3.504265e+01   3.475354e+01
   2.221191e+01   9.845996e+00
   8.438124e+01   1.839633e+01
   4.991753e+01   4.214480e+01
  -7.758172e+01   3.765981e+01
  -1.771847e+02  -1.117468e+01
  -1.391176e+02  -7.367301e+01
   1.198232e+01  -1.000746e+02
   1.409427e+02  -6.603871e+01
   1.425400e+02   4.450503e+00
   3.925072e+01   5.529692e+01
  -6.027096e+01   4.352491e+01
  -7.678425e+01  -2.023360e+01
  -2.110710e+01  -7.540502e+01
   4.308462e+01  -6.665491e+01
   6.981706e+01  -2.062989e+00
   6.115673e+01   5.209803e+01
   4.753047e+01   4.500419e+01
   5.131762e+01   3.577103e+00
   6.291134e+01   3.718878e+00
   4.512949e+01   7.498845e+01
  -2.928834e+01   1.520823e+02
  -1.328593e+02   1.404195e+02
  -1.858470e+02   2.610781e+01
  -1.279509e+02  -9.956799e+01
   5.079212e+00  -1.337974e+02
   9.655705e+01  -6.815032e+01
   6.181285e+01   1.068448e+01
  -5.703704e+01   1.833887e+01
  -1.271608e+02  -4.446594e+01
  -6.209534e+01  -1.057151e+02
   8.710929e+01  -1.013517e+02
   1.846746e+02  -3.162107e+01
   1.476013e+02   4.922449e+01
   2.316845e+01   8.319670e+01
  -6.641231e+01   5.254298e+01
  -4.697936e+01  -7.110899e+00
   4.104971e+01  -3.088722e+01
   9.103060e+01   2.063874e+01
   3.868218e+01   1.127348e+02
  -7.621689e+01   1.506189e+02
  -1.512718e+02   6.817019e+01
  -1.205881e+02  -8.824870e+01
  -1.293651e+01  -1.850316e+02
   8.260177e+01  -1.322455e+02
   1.002675e+02   1.699081e+01
   4.647567e+01   1.199293e+02
  -2.181188e+01   9.755083e+01
  -5.340071e+01   9.731529e+00
  -3.982471e+01  -3.344385e+01
  -1.186797e+01  -7.116872e+00
  -7.253540e+00   1.537515e+01
  -3.332446e+01  -2.469450e+01
  -5.411055e+01  -9.026933e+01
  -2.296202e+01  -1.009998e+02
   5.998959e+01  -3.784378e+01
   1.294442e+02   3.949758e+01
   1.136056e+02   7.053452e+01
   1.647275e+01   5.401309e+01
  -7.558268e+01   2.446473e+01
  -8.322573e+01   1.842631e+00
  -1.956055e+01  -1.390369e+01
   3.213029e+01  -1.937556e+01
   2.174540e+01  -9.212301e+00
  -1.149250e+01   4.616214e+00
   1.324972e+00   3.820581e+00
   6.123552e+01  -1.620637e+00
   9.069739e+01   2.254681e+01
   2.530172e+01   8.002650e+01
  -1.023066e+02   1.144550e+02
  -1.863223e+02   6.399579e+01
  -1.529171e+02  -5.662828e+01
  -3.086453e+01  -1.546558e+02
   8.284569e+01  -1.517577e+02
   1.166326e+02  -6.461817e+01
   7.806083e+01   1.942418e+01
   2.558643e+01   3.894559e+01
   4.585963e+00   1.497115e+01
   1.496635e+01   1.075046e+01
   2.674507e+01   5.028517e+01
   1.260140e+01   8.969901e+01
  -3.035214e+01   6.929884e+01
  -7.475836e+01  -1.465477e+01
  -7.711431e+01  -9.752608e+01
  -1.627297e+01  -1.070412e+02
   7.005953e+01  -3.381158e+01
   1.030197e+02   6.029945e+01
   4.090940e+01   1.010779e+02
  -6.249070e+01   6.568770e+01
  -1.040757e+02  -7.608295e+00
  -4.641301e+01  -6.114826e+01
   3.561445e+01  -6.407190e+01
   4.402207e+01  -2.803564e+01
  -2.188312e+01   7.920346e+00
  -6.631051e+01   8.388360e+00
  -1.895516e+01  -2.802813e+01
   7.750544e+01  -6.190220e+01
   1.215964e+02  -4.648914e+01
   7.252116e+01   2.053724e+01
  -1.393247e+01   8.365922e+01
  -6.074833e+01   8.157951e+01
  -4.802252e+01   1.496847e+01
  -8.795408e+00  -4.939170e+01
   2.300120e+01  -4.915199e+01
   3.596859e+01   6.927179e+00
   2.778723e+01   5.288731e+01
  -5.335646e-01   4.209886e+01
  -3.259034e+01  -3.834708e+00
  -4.150040e+01  -2.765735e+01
  -2.030680e+01  -6.959836e+00
   4.834238e+00   2.220654e+01
   6.177580e+00   1.374736e+01
  -8.091784e+00  -2.899457e+01
  -4.982921e+00  -5.514881e+01
   2.422705e+01  -2.757953e+01
   4.431244e+01   3.013188e+01
   1.850921e+01   5.800547e+01
  -3.770616e+01   2.691472e+01
  -6.357771e+01  -3.037284e+01
  -2.059427e+01  -5.790781e+01
   5.711774e+01  -3.518741e+01
   9.299403e+01   1.082635e+01
   4.980027e+01   4.270741e+01
  -2.862712e+01   4.628432e+01
  -6.458177e+01   2.961456e+01
  -3.063822e+01   7.265272e+00
   2.363147e+01  -5.475679e+00
   3.065116e+01   2.379884e+00
  -1.944985e+01   2.163105e+01
  -7.062089e+01   1.991947e+01
