
 $NMID
 id='ANONYMOUS ', fmtdat='(2E16.6)'
 volume=1.0
 tramp=1.0
 $END
   1.406029e+03  -5.066208e+01
   1.017757e+03   5.870717e+02
   1.881437e+02   8.772104e+02
  -4.144946e+02   7.086412e+02
  -4.548818e+02   2.914061e+02
  -1.485118e+02  -1.695684e+01
   8.338008e+01  -1.576589e+01
   4.718876e+01   1.740862e+02
  -1.386456e+02   2.595293e+02
  -2.618669e+02   9.377223e+01
  -2.221980e+02  -1.745472e+02
  -6.603296e+01  -2.753479e+02
   8.182371e+01  -1.113612e+02
   1.052499e+02   1.445232e+02
  -1.468208e+01   2.328834e+02
  -1.599726e+02   6.598129e+01
  -1.658600e+02  -1.957611e+02
   5.042633e+00  -3.092548e+02
   2.001981e+02  -1.849792e+02
   2.336520e+02   3.968895e+01
   9.759723e+01   1.601442e+02
  -3.089284e+01   1.216653e+02
  -6.556639e+00   5.119561e+01
   1.077230e+02   7.626037e+01
   1.227600e+02   1.623321e+02
  -3.835574e+01   1.705923e+02
  -2.353089e+02   4.821963e+01
  -2.626770e+02  -1.011424e+02
  -7.889361e+01  -1.432256e+02
   1.464462e+02  -5.631671e+01
   2.095177e+02   7.396331e+01
   7.245471e+01   1.560436e+02
  -1.200156e+02   1.496842e+02
  -2.028605e+02   6.080573e+01
  -1.458557e+02  -5.938010e+01
  -4.988791e+01  -1.215023e+02
  -1.838173e+01  -7.132508e+01
  -5.688703e+01   2.621101e+01
  -9.225971e+01   3.344508e+01
  -6.253783e+01  -9.103287e+01
   2.436245e+01  -2.139430e+02
   1.041126e+02  -1.765947e+02
   1.121796e+02  -2.989923e+00
   3.927957e+01   1.120002e+02
  -4.870175e+01   3.875625e+01
  -5.446298e+01  -1.237504e+02
   5.697256e+01  -1.672396e+02
   1.997728e+02  -2.303941e+01
   2.291169e+02   1.671109e+02
   8.606476e+01   2.251489e+02
  -1.271028e+02   1.245655e+02
  -2.370508e+02  -1.794838e+01
  -1.665153e+02  -9.210129e+01
  -3.559318e-01  -8.682085e+01
   1.116050e+02  -5.140327e+01
   1.008769e+02  -2.192947e+01
   2.671582e+01  -6.312557e+00
  -6.286056e+00  -4.491134e+00
   3.742060e+01  -6.639036e+00
   9.099742e+01   1.462238e+01
   6.179411e+01   7.235128e+01
  -5.856067e+01   1.225484e+02
  -1.672552e+02   8.953572e+01
  -1.484820e+02  -4.190043e+01
  -8.641237e-01  -1.791972e+02
   1.515449e+02  -1.997003e+02
   1.873170e+02  -7.869341e+01
   1.102602e+02   8.236525e+01
   2.468494e+01   1.635778e+02
   3.058594e+00   1.436389e+02
   1.392821e+01   9.451928e+01
  -1.262576e+01   7.624961e+01
  -8.369456e+01   6.911392e+01
  -1.364431e+02   1.974746e+01
  -1.169405e+02  -6.940564e+01
  -3.612667e+01  -1.256440e+02
   5.016138e+01  -8.547412e+01
   8.976313e+01   2.812173e+01
   5.940391e+01   1.209129e+02
  -2.767250e+01   1.167830e+02
  -1.185846e+02   2.434453e+01
  -1.455221e+02  -8.186981e+01
  -8.463619e+01  -1.343469e+02
   1.153639e+01  -1.229853e+02
   6.635528e+01  -8.476510e+01
   6.831954e+01  -5.765337e+01
   8.102658e+01  -4.571451e+01
   1.474963e+02  -2.055546e+01
   2.099343e+02   4.613319e+01
   1.635403e+02   1.445516e+02
  -7.984895e+00   2.179072e+02
  -1.865436e+02   2.024478e+02
  -2.335527e+02   9.051326e+01
  -1.346267e+02  -4.718156e+01
  -6.047897e+00  -1.166534e+02
   3.680506e+01  -8.719793e+01
  -9.601677e+00  -1.792044e+01
  -6.128336e+01   8.771225e+00
  -5.271869e+01  -2.482503e+01
   3.643354e+00  -6.025417e+01
   4.886283e+01  -3.875889e+01
   4.052892e+01   2.446456e+01
  -1.585031e+01   5.303884e+01
  -7.412819e+01  -4.646765e+00
  -7.706501e+01  -1.111252e+02
   4.909799e-01  -1.683927e+02
   1.177685e+02  -1.124769e+02
   1.863682e+02   2.153466e+01
   1.460991e+02   1.304548e+02
   2.902982e+01   1.397023e+02
  -6.569519e+01   6.881831e+01
  -6.987193e+01   1.617998e+00
  -1.182559e+01  -3.207129e+00
   2.346361e+01   3.531643e+01
  -7.457596e+00   5.554101e+01
  -6.188891e+01   2.818450e+01
  -6.712189e+01  -1.499608e+01
  -9.924431e+00  -2.402080e+01
   4.306762e+01   1.118988e+01
   1.815664e+01   5.124604e+01
  -7.855028e+01   4.842879e+01
  -1.570857e+02  -9.031149e+00
  -1.319881e+02  -8.761988e+01
  -1.185752e+01  -1.342810e+02
   1.057712e+02  -1.156539e+02
   1.299303e+02  -4.584338e+01
   6.173790e+01   2.024524e+01
  -1.602683e+01   3.246564e+01
  -2.647409e+01  -5.406237e+00
   3.075423e+01  -3.693198e+01
   9.013538e+01  -1.340320e+01
   8.959959e+01   4.966706e+01
   2.738550e+01   8.825822e+01
  -4.116134e+01   6.355041e+01
  -5.788456e+01   6.987689e+00
  -1.751944e+01  -1.698480e+01
   2.627800e+01   1.513764e+01
   1.455520e+01   6.164275e+01
  -5.256260e+01   6.370025e+01
  -1.096447e+02   6.871894e+00
  -9.192862e+01  -6.734367e+01
  -6.078683e+00  -1.022384e+02
   7.362214e+01  -7.421026e+01
   8.164654e+01  -9.094488e+00
   2.590220e+01   4.151724e+01
  -2.827148e+01   4.411279e+01
  -3.121623e+01   1.152443e+01
   3.448900e+00  -1.278706e+01
   2.287241e+01  -3.305830e+00
  -2.997812e+00   1.755323e+01
  -4.865269e+01   6.180362e+00
  -5.962080e+01  -4.584236e+01
  -8.755695e+00  -9.301108e+01
   7.308274e+01  -8.095606e+01
   1.216796e+02  -5.744621e+00
   9.734507e+01   7.875984e+01
   2.119002e+01   1.116249e+02
  -4.607953e+01   7.869787e+01
  -6.199401e+01   1.866201e+01
  -3.809935e+01  -1.744386e+01
  -1.861695e+01  -1.181915e+01
  -2.812602e+01   9.064551e+00
  -4.599425e+01   5.845362e+00
  -3.369771e+01  -2.913163e+01
   1.655700e+01  -5.910998e+01
   6.529571e+01  -4.093395e+01
   6.094425e+01   2.178453e+01
  -6.427225e+00   7.124422e+01
  -8.649617e+01   5.074633e+01
  -1.079663e+02  -3.282364e+01
  -4.300699e+01  -1.094869e+02
   6.398704e+01  -1.126590e+02
   1.335817e+02  -4.181284e+01
   1.206324e+02   4.258497e+01
   4.918215e+01   8.111529e+01
  -1.821863e+01   6.718552e+01
  -4.120090e+01   4.022712e+01
  -3.079935e+01   3.606958e+01
  -2.486071e+01   4.924848e+01
  -4.293822e+01   4.327643e+01
  -6.725571e+01  -5.175380e+00
  -6.341040e+01  -7.455649e+01
  -1.700535e+01  -1.125039e+02
   4.762842e+01  -8.389402e+01
   8.386534e+01  -6.313190e+00
   6.322903e+01   6.304717e+01
   4.832157e+00   7.743746e+01
  -3.880990e+01   3.905597e+01
  -3.292316e+01  -9.800222e+00
   2.790536e+00  -3.022012e+01
   1.693849e+01  -1.952229e+01
  -1.144951e+01  -4.033484e+00
  -4.407644e+01  -5.649667e+00
  -2.752185e+01  -1.946536e+01
   3.838023e+01  -2.276846e+01
   9.173609e+01  -1.803062e+00
   7.453728e+01   3.221259e+01
  -2.268464e+00   5.223331e+01
  -6.981166e+01   3.991566e+01
  -7.329426e+01   3.489804e+00
  -2.242477e+01  -2.699275e+01
   2.894231e+01  -2.501406e+01
   4.022760e+01   7.067597e+00
   1.438945e+01   3.773713e+01
  -1.886512e+01   3.606598e+01
  -3.576416e+01   4.205990e+00
  -3.392715e+01  -2.394168e+01
  -2.639360e+01  -2.102680e+01
  -2.624885e+01   2.735540e-01
  -3.234327e+01   7.220113e-01
  -2.661003e+01  -3.652340e+01
   8.313095e+00  -7.925798e+01
   6.232445e+01  -7.777985e+01
   9.455406e+01  -2.143334e+01
   6.999820e+01   4.560588e+01
   3.004402e+00   6.899977e+01
  -4.667004e+01   3.929388e+01
  -3.212268e+01  -2.703758e+00
   2.839569e+01  -1.180264e+01
   6.685213e+01   1.739482e+01
   3.607678e+01   5.155084e+01
  -4.046507e+01   5.550406e+01
  -9.326923e+01   2.370523e+01
  -7.755181e+01  -1.927838e+01
  -1.514410e+01  -4.166157e+01
   3.200640e+01  -2.946987e+01
   2.444855e+01   1.921446e+00
  -1.970612e+01   1.769019e+01
  -4.751057e+01  -6.602956e+00
  -2.474107e+01  -5.590877e+01
   3.226953e+01  -8.023718e+01
   7.417115e+01  -4.142458e+01
   6.534895e+01   3.980562e+01
   1.455673e+01   9.394473e+01
  -3.664450e+01   7.103785e+01
  -5.208921e+01  -4.618388e+00
  -2.871235e+01  -5.958069e+01
   7.438062e+00  -5.089462e+01
   2.717009e+01  -7.142240e+00
   2.161599e+01   1.555813e+01
   6.092088e+00   3.220754e+00
   3.161511e+00  -8.111669e+00
   1.846922e+01   1.129665e+01
   3.159376e+01   4.394895e+01
   1.566775e+01   5.073209e+01
  -2.941759e+01   2.193460e+01
  -6.782901e+01  -1.471775e+01
  -6.090193e+01  -3.135113e+01
  -1.078249e+01  -2.704958e+01
   3.739076e+01  -1.573587e+01
   4.249399e+01  -4.376760e+00
   1.084803e+01   6.335329e+00
  -1.551655e+01   1.119805e+01
  -1.096742e+01   5.541038e+00
   5.463356e+00  -2.840484e+00
  -7.117036e-01  -1.830880e+00
  -3.098775e+01   3.476974e+00
  -4.740209e+01  -7.611568e+00
  -1.675189e+01  -3.975215e+01
   4.713085e+01  -6.291452e+01
   9.264042e+01  -4.094648e+01
   8.090817e+01   2.208988e+01
   2.253214e+01   7.769374e+01
  -3.593911e+01   8.138161e+01
  -5.694704e+01   3.828013e+01
  -4.075432e+01  -6.555315e+00
  -1.483187e+01  -1.890825e+01
  -3.199523e+00  -7.532621e+00
  -8.281586e+00  -4.954304e+00
  -1.578311e+01  -2.474658e+01
  -1.012510e+01  -4.547935e+01
   1.259498e+01  -3.677065e+01
   3.876608e+01   4.251653e+00
   4.362495e+01   4.640596e+01
   1.315785e+01   5.392228e+01
  -3.409542e+01   2.044459e+01
  -5.524871e+01  -2.613157e+01
  -2.548012e+01  -4.988387e+01
   2.900670e+01  -3.651582e+01
   5.372765e+01  -7.384024e-01
   2.664975e+01   2.946592e+01
  -1.542768e+01   3.462842e+01
  -2.159310e+01   1.636662e+01
   1.056172e+01  -5.050546e+00
   3.352934e+01  -7.171545e+00
   1.102613e+01   1.356253e+01
  -3.702499e+01   3.496206e+01
  -6.049758e+01   2.887679e+01
  -3.828097e+01  -7.484340e+00
   3.477889e+00  -4.345237e+01
   2.772742e+01  -4.452198e+01
   2.409407e+01  -1.002123e+01
   6.732521e+00   2.472921e+01
  -9.549896e+00   2.627449e+01
  -1.862035e+01  -1.769688e+00
  -1.653556e+01  -2.585674e+01
  -1.669471e+00  -2.175345e+01
   1.680999e+01   4.657177e-01
   2.254525e+01   1.248956e+01
   1.074584e+01   2.806589e+00
  -3.585586e+00  -1.129253e+01
  -3.885091e+00  -7.113446e+00
   5.627472e+00   1.422936e+01
   5.451513e+00   2.806258e+01
  -1.089268e+01   1.550393e+01
  -2.415731e+01  -1.310591e+01
  -1.237396e+01  -2.868265e+01
   1.796005e+01  -1.548609e+01
   3.394719e+01   1.257273e+01
   1.313161e+01   2.861756e+01
  -2.777068e+01   2.053684e+01
  -4.814764e+01  -1.397286e+00
  -2.735957e+01  -1.968941e+01
   1.261238e+01  -2.505531e+01
   3.172728e+01  -1.812517e+01
   1.548723e+01  -5.148353e+00
  -1.153314e+01   3.866833e+00
  -1.555195e+01   3.133492e-01
   8.882882e+00  -1.163638e+01
   3.490130e+01  -1.309067e+01
