
 $NMID
 id='ANONYMOUS ', fmtdat='(2E16.6)'
 volume=1.0
 tramp=1.0
 $END
  -2.079900e+03  -2.217081e+01
  -1.493662e+03  -9.074440e+02
  -2.767007e+02  -1.315639e+03
   6.328666e+02  -1.083974e+03
   7.258780e+02  -4.687801e+02
   2.756391e+02   1.830094e+01
  -9.697570e+01   4.499833e+01
  -6.802338e+01  -2.358174e+02
   2.044183e+02  -3.766724e+02
   3.897928e+02  -1.387654e+02
   3.288531e+02   2.598610e+02
   9.911348e+01   4.124372e+02
  -1.118902e+02   1.721415e+02
  -1.437509e+02  -2.073372e+02
   2.766876e+01  -3.426848e+02
   2.368725e+02  -9.663762e+01
   2.425256e+02   2.989702e+02
  -1.747468e+01   4.736802e+02
  -3.140627e+02   2.812506e+02
  -3.596748e+02  -6.697874e+01
  -1.456278e+02  -2.482995e+02
   4.824782e+01  -1.837297e+02
   5.124411e+00  -8.322718e+01
  -1.617246e+02  -1.375596e+02
  -1.651857e+02  -2.672359e+02
   8.519609e+01  -2.513979e+02
   3.619493e+02  -3.924102e+01
   3.767600e+02   1.798588e+02
   9.757071e+01   2.107437e+02
  -2.210334e+02   5.689826e+01
  -2.976607e+02  -1.332751e+02
  -8.944497e+01  -2.347740e+02
   1.920611e+02  -2.087289e+02
   3.066807e+02  -7.365970e+01
   2.128097e+02   9.647716e+01
   6.936131e+01   1.787312e+02
   3.468883e+01   1.052514e+02
   1.017832e+02  -2.549373e+01
   1.421346e+02  -2.554034e+01
   7.150207e+01   1.499540e+02
  -6.713096e+01   3.107066e+02
  -1.657417e+02   2.452436e+02
  -1.532398e+02  -1.885602e+00
  -4.436206e+01  -1.571044e+02
   6.652105e+01  -4.482308e+01
   6.025261e+01   1.880092e+02
  -1.015143e+02   2.403460e+02
  -2.990844e+02   1.559981e+01
  -3.304763e+02  -2.696628e+02
  -1.144293e+02  -3.446368e+02
   1.975566e+02  -1.761928e+02
   3.536002e+02   4.384572e+01
   2.463500e+02   1.443423e+02
   2.270922e+00   1.244608e+02
  -1.643728e+02   7.323757e+01
  -1.556220e+02   3.726386e+01
  -5.053342e+01   1.217644e+01
   3.790320e+00  -5.672271e-01
  -5.219510e+01  -8.036365e-01
  -1.301073e+02  -2.648325e+01
  -8.870410e+01  -1.079277e+02
   9.513649e+01  -1.824542e+02
   2.638424e+02  -1.284287e+02
   2.285439e+02   7.673458e+01
  -1.284205e+01   2.808524e+02
  -2.525592e+02   2.960692e+02
  -2.942807e+02   1.017800e+02
  -1.581859e+02  -1.358952e+02
  -2.358655e+01  -2.465891e+02
   5.074442e-01  -2.158557e+02
  -2.037959e+01  -1.503114e+02
   2.660107e+01  -1.235545e+02
   1.400557e+02  -1.005309e+02
   2.134874e+02  -1.407260e+01
   1.703403e+02   1.196628e+02
   4.075630e+01   1.935623e+02
  -8.457015e+01   1.221420e+02
  -1.321242e+02  -5.334804e+01
  -7.700746e+01  -1.892760e+02
   5.371138e+01  -1.729717e+02
   1.814298e+02  -2.433361e+01
   2.123639e+02   1.364857e+02
   1.180430e+02   2.081786e+02
  -2.359269e+01   1.845681e+02
  -1.040669e+02   1.271211e+02
  -1.091751e+02   8.804044e+01
  -1.310855e+02   6.564211e+01
  -2.301054e+02   1.779539e+01
  -3.179894e+02  -8.961347e+01
  -2.379668e+02  -2.346556e+02
   3.072208e+01  -3.321703e+02
   3.024941e+02  -2.938213e+02
   3.634345e+02  -1.184242e+02
   1.986979e+02   8.282030e+01
  -2.019210e+00   1.756017e+02
  -6.013833e+01   1.268012e+02
   1.815342e+01   2.914040e+01
   9.445542e+01  -3.855368e+00
   7.378456e+01   4.384175e+01
  -1.286950e+01   8.770300e+01
  -7.410986e+01   5.098791e+01
  -5.516965e+01  -3.950531e+01
   2.872408e+01  -7.538816e+01
   1.103892e+02   1.496470e+01
   1.084246e+02   1.749108e+02
  -1.295925e+01   2.570495e+02
  -1.897734e+02   1.639340e+02
  -2.857057e+02  -4.753287e+01
  -2.133444e+02  -2.127083e+02
  -3.103526e+01  -2.165922e+02
   1.068520e+02  -9.861924e+01
   1.049854e+02   3.882709e+00
   1.624217e+01   4.359498e+00
  -3.164180e+01  -5.736341e+01
   1.806898e+01  -8.332793e+01
   9.664828e+01  -3.586506e+01
   9.908520e+01   2.900247e+01
   1.145656e+01   3.606605e+01
  -6.498880e+01  -2.261854e+01
  -2.243201e+01  -8.119954e+01
   1.258614e+02  -6.791483e+01
   2.410382e+02   2.778793e+01
   1.945129e+02   1.466206e+02
   5.219446e+00   2.068101e+02
  -1.724324e+02   1.665560e+02
  -2.010617e+02   5.787003e+01
  -9.049022e+01  -3.516804e+01
   2.725642e+01  -4.604119e+01
   3.800712e+01   1.114832e+01
  -5.132309e+01   5.237926e+01
  -1.379558e+02   1.156329e+01
  -1.312493e+02  -8.293391e+01
  -3.410528e+01  -1.355473e+02
   6.735578e+01  -9.233010e+01
   8.757370e+01  -5.363722e+00
   2.366535e+01   2.679169e+01
  -3.996398e+01  -2.714546e+01
  -1.651275e+01  -9.744732e+01
   8.742819e+01  -9.362765e+01
   1.692665e+02  -5.881011e-01
   1.346157e+02   1.111033e+02
   5.119404e-01   1.561353e+02
  -1.177253e+02   1.067646e+02
  -1.241352e+02   7.993603e+00
  -3.572474e+01  -6.393846e+01
   4.618944e+01  -6.402115e+01
   4.757739e+01  -1.481401e+01
  -7.601218e+00   1.907637e+01
  -3.638727e+01   2.408948e+00
   6.029251e+00  -2.798420e+01
   7.641019e+01  -6.315848e+00
   8.892679e+01   7.575153e+01
   5.667248e+00   1.444369e+02
  -1.195547e+02   1.181822e+02
  -1.870291e+02  -2.024248e+00
  -1.420223e+02  -1.288461e+02
  -2.333191e+01  -1.717971e+02
   7.603473e+01  -1.160651e+02
   9.582426e+01  -2.402739e+01
   5.725916e+01   2.881232e+01
   2.802019e+01   1.905520e+01
   4.395755e+01  -1.183129e+01
   7.149371e+01  -5.337664e+00
   5.037142e+01   4.794524e+01
  -2.995049e+01   9.065046e+01
  -1.048620e+02   5.838573e+01
  -9.321084e+01  -3.900843e+01
   1.589903e+01  -1.100859e+02
   1.382023e+02  -7.107518e+01
   1.633237e+02   5.999558e+01
   5.592310e+01   1.718453e+02
  -1.082561e+02   1.667698e+02
  -2.077366e+02   5.231733e+01
  -1.802174e+02  -7.494598e+01
  -6.807954e+01  -1.273322e+02
   3.320040e+01  -1.006424e+02
   6.570316e+01  -5.804043e+01
   4.921503e+01  -5.289738e+01
   4.128780e+01  -7.379375e+01
   6.901749e+01  -6.334033e+01
   1.028683e+02   1.291605e+01
   9.137193e+01   1.191086e+02
   1.697849e+01   1.735033e+02
  -7.957647e+01   1.242292e+02
  -1.283824e+02   2.406389e+00
  -9.101501e+01  -1.018108e+02
  -5.728226e-01  -1.185645e+02
   6.300480e+01  -5.577668e+01
   4.970643e+01   1.874792e+01
  -7.396782e+00   4.681554e+01
  -2.871185e+01   2.853714e+01
   1.660062e+01   6.517714e+00
   6.749779e+01   1.176612e+01
   4.101675e+01   3.215558e+01
  -6.130512e+01   3.201924e+01
  -1.417897e+02  -4.933839e+00
  -1.116025e+02  -5.611445e+01
   8.861530e+00  -8.038846e+01
   1.110885e+02  -5.548597e+01
   1.124635e+02   1.022797e+00
   3.182195e+01   4.376741e+01
  -4.631961e+01   3.652741e+01
  -6.123126e+01  -1.391794e+01
  -1.989941e+01  -5.942230e+01
   3.104777e+01  -5.445897e+01
   5.554812e+01  -3.951925e+00
   5.112702e+01   3.948269e+01
   3.911626e+01   3.441985e+01
   3.977469e+01   1.538860e+00
   4.949456e+01   1.442757e+00
   3.856292e+01   5.846951e+01
  -1.853679e+01   1.213485e+02
  -1.022840e+02   1.145486e+02
  -1.477521e+02   2.532068e+01
  -1.041880e+02  -7.567488e+01
   1.191897e+00  -1.064166e+02
   7.513270e+01  -5.707773e+01
   4.921236e+01   6.341268e+00
  -4.433559e+01   1.591403e+01
  -1.007440e+02  -3.167090e+01
  -5.080612e+01  -8.162313e+01
   6.649711e+01  -8.153394e+01
   1.444282e+02  -2.840108e+01
   1.166796e+02   3.606861e+01
   1.942032e+01   6.478438e+01
  -5.147749e+01   4.188281e+01
  -3.716779e+01  -5.503228e+00
   3.170549e+01  -2.585927e+01
   7.244499e+01   1.359304e+01
   3.411339e+01   8.737395e+01
  -5.471894e+01   1.206200e+02
  -1.161230e+02   5.842055e+01
  -9.706573e+01  -6.529943e+01
  -1.552733e+01  -1.446191e+02
   6.131217e+01  -1.056719e+02
   7.929115e+01   1.147949e+01
   3.886219e+01   9.357674e+01
  -1.618510e+01   7.694546e+01
  -4.254174e+01   8.340896e+00
  -3.136475e+01  -2.552218e+01
  -8.395508e+00  -5.226903e+00
  -5.592600e+00   1.192139e+01
  -2.808450e+01  -1.929314e+01
  -4.510198e+01  -6.987776e+01
  -1.932744e+01  -7.845758e+01
   4.740353e+01  -3.099354e+01
   1.025282e+02   2.759232e+01
   9.027481e+01   5.252276e+01
   1.443971e+01   4.252549e+01
  -5.793131e+01   2.155411e+01
  -6.522961e+01   3.278193e+00
  -1.657639e+01  -1.092592e+01
   2.429579e+01  -1.591558e+01
   1.757339e+01  -7.171845e+00
  -8.109225e+00   4.177126e+00
   7.652973e-01   2.562644e+00
   4.717992e+01  -3.395938e+00
   7.214129e+01   1.514345e+01
   2.360860e+01   6.235474e+01
  -7.618882e+01   9.315732e+01
  -1.452988e+02   5.620892e+01
  -1.231675e+02  -3.945718e+01
  -2.909653e+01  -1.205702e+02
   6.143266e+01  -1.222832e+02
   9.041504e+01  -5.479684e+01
   6.193826e+01   1.297286e+01
   2.136339e+01   3.031040e+01
   4.694601e+00   1.217104e+01
   1.253911e+01   8.596565e+00
   2.201896e+01   3.934842e+01
   1.162925e+01   7.046718e+01
  -2.211456e+01   5.536467e+01
  -5.887570e+01  -9.173854e+00
  -6.356621e+01  -7.391792e+01
  -1.682270e+01  -8.355116e+01
   5.328739e+01  -2.943086e+01
   8.294446e+01   4.344644e+01
   3.585690e+01   7.839194e+01
  -4.710288e+01   5.442253e+01
  -8.285996e+01  -2.694209e+00
  -3.900511e+01  -4.779804e+01
   2.648734e+01  -5.260751e+01
   3.501141e+01  -2.341643e+01
  -1.601294e+01   7.427575e+00
  -5.185083e+01   8.613781e+00
  -1.609889e+01  -2.181475e+01
   5.931568e+01  -5.069954e+01
   9.522974e+01  -3.914677e+01
   5.858307e+01   1.483934e+01
  -8.485657e+00   6.647533e+01
  -4.628588e+01   6.632481e+01
  -3.835292e+01   1.398824e+01
  -8.908103e+00  -3.817223e+01
   1.651691e+01  -3.995482e+01
   2.850048e+01   3.518000e+00
   2.352293e+01   4.086836e+01
   9.961424e-01   3.400113e+01
  -2.576984e+01  -1.723025e+00
  -3.372126e+01  -2.119979e+01
  -1.622966e+01  -5.406673e+00
   4.818462e+00   1.803906e+01
   5.288501e+00   1.205801e+01
  -8.376270e+00  -2.196920e+01
  -7.304559e+00  -4.415252e+01
   1.759651e+01  -2.405278e+01
   3.691687e+01   2.124932e+01
   1.792432e+01   4.493108e+01
  -2.840810e+01   2.280103e+01
  -5.158757e+01  -2.141833e+01
  -1.836976e+01  -4.467632e+01
   4.427547e+01  -2.949878e+01
   7.403862e+01   5.522061e+00
   4.057242e+01   3.219296e+01
  -2.125130e+01   3.780096e+01
  -5.008986e+01   2.587969e+01
  -2.449764e+01   6.830244e+00
   1.734559e+01  -5.559549e+00
   2.362098e+01  -5.109062e-02
  -1.386080e+01   1.678286e+01
  -5.349254e+01   1.764093e+01
