
 $NMID
 id='ANONYMOUS ', fmtdat='(2E16.6)'
 volume=1.0
 tramp=1.0
 $END
   2.183401e+03   2.153502e+01
   1.531377e+03   9.722854e+02
   2.361719e+02   1.359238e+03
  -6.742083e+02   1.067851e+03
  -7.115693e+02   4.338798e+02
  -2.297934e+02  -2.112004e+01
   1.212123e+02  -1.412173e+01
   5.557436e+01   2.685579e+02
  -2.311032e+02   3.882159e+02
  -4.078040e+02   1.274826e+02
  -3.298729e+02  -2.821083e+02
  -8.486645e+01  -4.265750e+02
   1.300319e+02  -1.638480e+02
   1.494218e+02   2.308178e+02
  -3.852078e+01   3.574782e+02
  -2.498258e+02   9.081715e+01
  -2.437728e+02  -3.124097e+02
   2.455116e+01  -4.777784e+02
   3.185946e+02  -2.758246e+02
   3.589889e+02   7.318204e+01
   1.422519e+02   2.525465e+02
  -5.451885e+01   1.855253e+02
  -1.110456e+01   7.759373e+01
   1.666067e+02   1.254496e+02
   1.830636e+02   2.632701e+02
  -7.253367e+01   2.660919e+02
  -3.731049e+02   5.940574e+01
  -4.027437e+02  -1.776085e+02
  -1.097900e+02  -2.293718e+02
   2.351360e+02  -7.570411e+01
   3.213609e+02   1.320608e+02
   1.004678e+02   2.487026e+02
  -1.981098e+02   2.242825e+02
  -3.196102e+02   8.036463e+01
  -2.217103e+02  -1.019551e+02
  -6.801777e+01  -1.905498e+02
  -2.416474e+01  -1.086749e+02
  -9.374639e+01   3.974504e+01
  -1.500628e+02   4.465885e+01
  -9.199382e+01  -1.501683e+02
   5.530034e+01  -3.337073e+02
   1.760378e+02  -2.655960e+02
   1.726771e+02   6.360267e+00
   4.967999e+01   1.769488e+02
  -7.980990e+01   5.383053e+01
  -7.499146e+01  -1.987484e+02
   1.014055e+02  -2.564360e+02
   3.127184e+02  -2.171111e+01
   3.453806e+02   2.750901e+02
   1.191896e+02   3.550055e+02
  -2.057763e+02   1.844692e+02
  -3.668847e+02  -4.360127e+01
  -2.514007e+02  -1.526786e+02
   5.896647e+00  -1.323786e+02
   1.750897e+02  -7.119230e+01
   1.554587e+02  -2.911671e+01
   4.162278e+01  -1.093347e+01
  -7.082504e+00  -8.035970e+00
   6.017369e+01  -6.059473e+00
   1.394070e+02   2.983734e+01
   9.007201e+01   1.156854e+02
  -9.815882e+01   1.863484e+02
  -2.646738e+02   1.302215e+02
  -2.294098e+02  -7.290930e+01
   7.556968e+00  -2.797089e+02
   2.475728e+02  -3.035366e+02
   2.974359e+02  -1.115707e+02
   1.668172e+02   1.358591e+02
   2.731264e+01   2.560353e+02
  -4.185506e+00   2.219964e+02
   1.783738e+01   1.468004e+02
  -2.230045e+01   1.190048e+02
  -1.346325e+02   1.044596e+02
  -2.152652e+02   2.304971e+01
  -1.788239e+02  -1.161084e+02
  -4.809522e+01  -1.988127e+02
   8.440295e+01  -1.300287e+02
   1.386865e+02   5.010067e+01
   8.492500e+01   1.928449e+02
  -5.102817e+01   1.804793e+02
  -1.868306e+02   3.015199e+01
  -2.214232e+02  -1.369911e+02
  -1.228292e+02  -2.140697e+02
   2.554352e+01  -1.896907e+02
   1.073070e+02  -1.273105e+02
   1.085041e+02  -8.624558e+01
   1.286634e+02  -6.748034e+01
   2.316623e+02  -2.385988e+01
   3.248844e+02   8.430400e+01
   2.462648e+02   2.350042e+02
  -2.551656e+01   3.391702e+02
  -3.028255e+02   3.044867e+02
  -3.693720e+02   1.268246e+02
  -2.065849e+02  -8.228390e+01
  -1.544622e+00  -1.822534e+02
   6.310546e+01  -1.325570e+02
  -1.456079e+01  -2.734694e+01
  -9.713179e+01   9.645670e+00
  -8.063947e+01  -4.313094e+01
   1.048076e+01  -9.389214e+01
   7.916402e+01  -5.618185e+01
   6.097636e+01   4.160637e+01
  -2.894979e+01   8.135078e+01
  -1.154407e+02  -1.243159e+01
  -1.131251e+02  -1.776735e+02
   1.071469e+01  -2.619083e+02
   1.898076e+02  -1.685174e+02
   2.891467e+02   4.392982e+01
   2.202611e+02   2.118744e+02
   3.692650e+01   2.199119e+02
  -1.068096e+02   1.034087e+02
  -1.089456e+02  -2.171645e+00
  -1.772260e+01  -5.958915e+00
   3.470388e+01   5.687473e+01
  -1.534222e+01   8.653339e+01
  -9.860937e+01   3.998200e+01
  -1.036317e+02  -2.797203e+01
  -1.351991e+01  -3.832128e+01
   6.693405e+01   2.014771e+01
   2.548703e+01   8.131956e+01
  -1.253390e+02   7.126414e+01
  -2.446253e+02  -2.309259e+01
  -2.008907e+02  -1.445366e+02
  -1.047120e+01  -2.104396e+02
   1.721669e+02  -1.740850e+02
   2.054331e+02  -6.324289e+01
   9.458525e+01   3.569151e+01
  -2.747236e+01   4.945707e+01
  -4.092867e+01  -1.055943e+01
   5.060818e+01  -5.589743e+01
   1.415316e+02  -1.516254e+01
   1.364221e+02   8.308731e+01
   3.697668e+01   1.391269e+02
  -6.819836e+01   9.625033e+01
  -9.061512e+01   7.029008e+00
  -2.598635e+01  -2.787918e+01
   4.059145e+01   2.504995e+01
   1.945730e+01   9.725141e+01
  -8.570138e+01   9.663277e+01
  -1.715638e+02   4.381913e+00
  -1.393465e+02  -1.105378e+02
  -3.199016e+00  -1.596950e+02
   1.191974e+02  -1.109677e+02
   1.274311e+02  -9.032922e+00
   3.743914e+01   6.619778e+01
  -4.688541e+01   6.679454e+01
  -4.928737e+01   1.580963e+01
   6.290906e+00  -2.001937e+01
   3.612319e+01  -4.010733e+00
  -5.367739e+00   2.729321e+01
  -7.608970e+01   7.191867e+00
  -9.049599e+01  -7.465172e+01
  -8.487776e+00  -1.455908e+02
   1.186763e+02  -1.221233e+02
   1.901765e+02  -1.784226e+00
   1.470746e+02   1.286177e+02
   2.624598e+01   1.751025e+02
  -7.651027e+01   1.196233e+02
  -9.751256e+01   2.532480e+01
  -5.811986e+01  -2.924650e+01
  -2.821572e+01  -1.934282e+01
  -4.430941e+01   1.253015e+01
  -7.202622e+01   6.563894e+00
  -5.104040e+01  -4.713739e+01
   2.888213e+01  -9.120326e+01
   1.040230e+02  -6.041682e+01
   9.399394e+01   3.716922e+01
  -1.384478e+01   1.108246e+02
  -1.377903e+02   7.442711e+01
  -1.665892e+02  -5.739939e+01
  -6.066301e+01  -1.734322e+02
   1.065436e+02  -1.720060e+02
   2.107804e+02  -5.717810e+01
   1.853482e+02   7.368727e+01
   7.159476e+01   1.293555e+02
  -3.250523e+01   1.035065e+02
  -6.655189e+01   6.007714e+01
  -4.998819e+01   5.418754e+01
  -4.145947e+01   7.511396e+01
  -6.928143e+01   6.489383e+01
  -1.043946e+02  -1.189669e+01
  -9.439750e+01  -1.197879e+02
  -1.985903e+01  -1.762557e+02
   7.921067e+01  -1.278428e+02
   1.311029e+02  -4.736782e+00
   9.478750e+01   1.021261e+02
   2.835069e+00   1.210352e+02
  -6.301430e+01   5.859788e+01
  -5.099378e+01  -1.727297e+01
   5.989726e+00  -4.715381e+01
   2.763581e+01  -2.971937e+01
  -1.740398e+01  -7.055700e+00
  -6.826734e+01  -1.123514e+01
  -4.180569e+01  -3.184142e+01
   6.112788e+01  -3.341512e+01
   1.431993e+02   2.307441e+00
   1.144326e+02   5.460911e+01
  -6.554081e+00   8.158547e+01
  -1.111886e+02   5.833041e+01
  -1.145008e+02   1.084990e+00
  -3.347867e+01  -4.350680e+01
   4.641758e+01  -3.731660e+01
   6.223778e+01   1.330775e+01
   2.040078e+01   5.945165e+01
  -3.125450e+01   5.496106e+01
  -5.590508e+01   4.599108e+00
  -5.156858e+01  -3.902261e+01
  -3.994342e+01  -3.421640e+01
  -4.083224e+01  -1.209483e+00
  -5.040826e+01  -7.896719e-01
  -3.947824e+01  -5.830732e+01
   1.738800e+01  -1.229022e+02
   1.015925e+02  -1.177033e+02
   1.486418e+02  -2.816238e+01
   1.064841e+02   7.500531e+01
   7.414516e-01   1.077744e+02
  -7.489026e+01   5.866140e+01
  -4.981057e+01  -6.002957e+00
   4.488994e+01  -1.670899e+01
   1.030228e+02   3.104593e+01
   5.310099e+01   8.247906e+01
  -6.635114e+01   8.409521e+01
  -1.467647e+02   3.135157e+01
  -1.197175e+02  -3.473799e+01
  -2.105639e+01  -6.587582e+01
   5.176480e+01  -4.399952e+01
   3.811279e+01   4.507171e+00
  -3.165814e+01   2.646089e+01
  -7.356366e+01  -1.298777e+01
  -3.527106e+01  -8.835034e+01
   5.479110e+01  -1.228526e+02
   1.176742e+02  -6.007237e+01
   9.926277e+01   6.571619e+01
   1.713594e+01   1.469760e+02
  -6.124863e+01   1.083779e+02
  -8.092318e+01  -1.029335e+01
  -4.121745e+01  -9.458358e+01
   1.472979e+01  -7.899187e+01
   4.287980e+01  -9.587794e+00
   3.271083e+01   2.562195e+01
   9.195121e+00   5.525254e+00
   5.470460e+00  -1.245492e+01
   2.829833e+01   1.854935e+01
   4.667382e+01   7.025917e+01
   2.126181e+01   8.005593e+01
  -4.722331e+01   3.257366e+01
  -1.046936e+02  -2.690955e+01
  -9.290428e+01  -5.249411e+01
  -1.527959e+01  -4.276695e+01
   5.900645e+01  -2.221570e+01
   6.644195e+01  -4.278166e+00
   1.665690e+01   1.041852e+01
  -2.479396e+01   1.644606e+01
  -1.754667e+01   8.034593e+00
   8.569563e+00  -4.007425e+00
  -9.120254e-01  -2.912215e+00
  -4.829137e+01   3.511635e+00
  -7.333427e+01  -1.456799e+01
  -2.389979e+01  -6.263668e+01
   7.687244e+01  -9.504330e+01
   1.464983e+02  -5.847647e+01
   1.246232e+02   3.882128e+01
   3.056621e+01   1.221312e+02
  -6.061064e+01   1.246870e+02
  -9.078451e+01   5.639531e+01
  -6.302582e+01  -1.255794e+01
  -2.205295e+01  -3.029789e+01
  -4.671555e+00  -1.185580e+01
  -1.271873e+01  -8.170052e+00
  -2.316912e+01  -3.953320e+01
  -1.309062e+01  -7.149992e+01
   2.174882e+01  -5.651966e+01
   6.001820e+01   8.893322e+00
   6.512229e+01   7.467348e+01
   1.740453e+01   8.451825e+01
  -5.405126e+01   2.978510e+01
  -8.432565e+01  -4.375171e+01
  -3.683250e+01  -7.899200e+01
   4.710013e+01  -5.519641e+01
   8.366695e+01   1.826254e+00
   3.997070e+01   4.737265e+01
  -2.586775e+01   5.313270e+01
  -3.463106e+01   2.439519e+01
   1.656621e+01  -7.155239e+00
   5.256759e+01  -9.217532e+00
   1.644815e+01   2.171335e+01
  -5.967914e+01   5.225991e+01
  -9.601559e+01   4.148760e+01
  -5.932159e+01  -1.379001e+01
   7.883375e+00  -6.742524e+01
   4.573402e+01  -6.782782e+01
   3.803558e+01  -1.441105e+01
   9.030391e+00   3.875356e+01
  -1.627790e+01   4.036019e+01
  -2.874454e+01  -3.757000e+00
  -2.425470e+01  -4.117654e+01
  -1.479602e+00  -3.398826e+01
   2.608144e+01   1.665201e+00
   3.447277e+01   2.075164e+01
   1.663691e+01   5.023544e+00
  -5.057964e+00  -1.778372e+01
  -5.839370e+00  -1.140550e+01
   7.943009e+00   2.224978e+01
   7.136446e+00   4.380074e+01
  -1.755521e+01   2.353531e+01
  -3.676108e+01  -2.152499e+01
  -1.770980e+01  -4.509247e+01
   2.872630e+01  -2.303404e+01
   5.206151e+01   2.137575e+01
   1.877801e+01   4.519550e+01
  -4.440557e+01   3.041457e+01
  -7.484122e+01  -4.852783e+00
  -4.145170e+01  -3.219974e+01
   2.099983e+01  -3.831321e+01
   5.032638e+01  -2.644689e+01
   2.441327e+01  -7.220346e+00
  -1.799935e+01   5.241349e+00
  -2.402344e+01  -4.069586e-01
   1.454196e+01  -1.741123e+01
   5.495283e+01  -1.813260e+01
