
 $NMID
 id='ANONYMOUS ', fmtdat='(2E16.6)'
 volume=1.0
 tramp=1.0
 $END
  -4.451599e+03   2.693575e+01
  -2.598095e+03  -2.699872e+03
   7.873135e+02  -2.843938e+03
   2.211725e+03  -8.820254e+02
   9.790517e+02   7.382324e+02
  -7.067339e+02   6.322223e+02
  -9.455355e+02  -4.528080e+02
   3.973552e+00  -1.117437e+03
   8.647740e+02  -8.074091e+02
   9.738214e+02   1.102341e+02
   4.584782e+02   9.015364e+02
  -2.635563e+02   9.218381e+02
  -6.725853e+02   1.161929e+02
  -4.023503e+02  -7.477019e+02
   2.840456e+02  -7.749510e+02
   6.320171e+02   1.245617e+01
   2.734434e+02   7.070824e+02
  -3.481595e+02   6.450679e+02
  -6.054896e+02   7.665473e+01
  -3.895927e+02  -3.744053e+02
  -6.615198e+00  -4.505824e+02
   2.545321e+02  -2.691234e+02
   2.273095e+02  -1.612643e+01
  -1.029790e+02   9.691270e+01
  -4.119633e+02  -9.935380e+01
  -2.154350e+02  -4.321072e+02
   4.553196e+02  -4.292901e+02
   8.678757e+02   6.465938e+01
   4.519729e+02   5.622788e+02
  -3.934037e+02   5.081839e+02
  -7.649903e+02  -2.472284e+01
  -3.624424e+02  -4.910813e+02
   2.831404e+02  -5.331773e+02
   5.775446e+02  -2.089938e+02
   4.277364e+02   2.342529e+02
   7.334253e+01   4.920772e+02
  -2.114324e+02   2.996122e+02
  -1.925806e+02  -2.213741e+02
   1.573028e+02  -4.599052e+02
   4.629838e+02   2.669517e+00
   2.669469e+02   6.937300e+02
  -3.210309e+02   7.289045e+02
  -6.311890e+02   1.191347e+01
  -2.789477e+02  -5.735701e+02
   2.995214e+02  -3.403319e+02
   4.051634e+02   3.238715e+02
  -6.125934e+01   5.611837e+02
  -5.647596e+02   1.450043e+02
  -6.059102e+02  -4.111500e+02
  -1.678741e+02  -5.970424e+02
   3.902338e+02  -3.559852e+02
   6.423086e+02   7.460376e+01
   3.830292e+02   3.984876e+02
  -1.599604e+02   3.826436e+02
  -4.609529e+02   5.802821e+01
  -2.520630e+02  -2.121366e+02
   1.270359e+02  -1.204051e+02
   1.572510e+02   1.606082e+02
  -1.667201e+02   2.019931e+02
  -3.613755e+02  -7.329490e+01
  -1.473130e+02  -3.114634e+02
   2.116864e+02  -2.629405e+02
   3.354583e+02  -6.407481e+01
   1.886290e+02   8.984307e+01
  -3.273700e+01   2.139348e+02
  -2.169779e+02   3.159534e+02
  -3.322294e+02   2.210605e+02
  -2.955161e+02  -1.317462e+02
  -8.503017e+01  -4.429837e+02
   1.210137e+02  -3.959940e+02
   1.347524e+02  -1.126658e+02
   3.041421e+01   2.313974e+01
   3.510049e+01  -7.903888e+01
   1.855358e+02  -1.344303e+02
   2.794225e+02   4.375803e+01
   1.674549e+02   2.686370e+02
  -6.591722e+01   2.629977e+02
  -2.293960e+02   1.808424e+01
  -2.044600e+02  -2.377682e+02
   4.201778e+00  -2.981915e+02
   2.660970e+02  -1.234539e+02
   3.665266e+02   1.645494e+02
   1.914324e+02   3.564525e+02
  -1.025297e+02   3.142806e+02
  -2.356923e+02   1.210984e+02
  -1.556163e+02  -2.477126e+00
  -9.596548e+01   2.826313e+01
  -2.268894e+02   6.444915e+01
  -3.960444e+02  -5.425078e+01
  -3.312005e+02  -2.824717e+02
   2.057648e-01  -4.405009e+02
   3.560379e+02  -4.115920e+02
   4.866003e+02  -2.028133e+02
   3.405494e+02   9.011896e+01
   6.026693e+01   2.969012e+02
  -1.315741e+02   2.609138e+02
  -9.015796e+01   3.249370e+01
   1.058521e+02  -1.148242e+02
   2.026469e+02  -7.527836e-01
   5.787282e+01   2.006965e+02
  -1.637267e+02   1.822846e+02
  -1.881312e+02  -5.833345e+01
   1.315325e+01  -2.000868e+02
   1.970299e+02  -3.812490e+01
   1.651450e+02   2.489329e+02
  -3.347076e+01   3.500104e+02
  -2.300701e+02   1.886272e+02
  -3.205697e+02  -6.568268e+01
  -2.736384e+02  -2.352145e+02
  -9.696753e+01  -2.592372e+02
   1.104002e+02  -1.610838e+02
   1.798563e+02  -2.379561e+01
   6.271769e+01   3.337887e+01
  -7.066756e+01  -3.487145e+01
  -3.402626e+01  -1.246695e+02
   1.222418e+02  -1.037122e+02
   1.817649e+02   9.465570e+00
   6.254382e+01   7.352236e+01
  -7.794757e+01   2.004094e+01
  -5.589082e+01  -6.925383e+01
   1.194155e+02  -8.410469e+01
   2.756363e+02  -4.717819e-01
   2.598610e+02   1.349505e+02
   6.304208e+01   2.502710e+02
  -1.789711e+02   2.614519e+02
  -2.830410e+02   1.303671e+02
  -1.745154e+02  -5.065264e+01
   2.204104e+01  -1.135976e+02
   9.394112e+01  -1.160835e+01
  -2.855201e+01   1.030664e+02
  -1.951908e+02   6.341124e+01
  -2.162560e+02  -1.006714e+02
  -7.204706e+01  -2.096105e+02
   9.388303e+01  -1.611748e+02
   1.458592e+02  -3.168090e+01
   7.428362e+01   4.103888e+01
  -2.407164e+01   5.889511e+00
  -3.704170e+01  -7.767722e+01
   6.721843e+01  -1.093708e+02
   1.930103e+02  -3.030267e+01
   1.907217e+02   1.199151e+02
   2.339359e+01   2.174525e+02
  -1.643816e+02   1.659219e+02
  -1.968025e+02   6.635579e+00
  -6.784024e+01  -1.169105e+02
   6.651479e+01  -1.142483e+02
   8.498544e+01  -3.222627e+01
   2.127945e+01   2.521903e+01
  -1.842089e+01   1.921994e+01
   1.063724e+01  -5.177966e+00
   6.761922e+01   1.113949e+01
   8.376248e+01   8.013990e+01
   1.453361e+01   1.530628e+02
  -1.218738e+02   1.493505e+02
  -2.291112e+02   2.788292e+01
  -2.008071e+02  -1.462680e+02
  -4.295199e+01  -2.363166e+02
   1.088405e+02  -1.707365e+02
   1.363549e+02  -2.679513e+01
   7.019681e+01   5.733879e+01
   2.784916e+01   3.701743e+01
   5.260073e+01  -1.149092e+01
   7.762445e+01  -5.730559e+00
   3.861032e+01   4.863413e+01
  -4.309964e+01   8.385095e+01
  -9.845178e+01   5.140422e+01
  -8.038910e+01  -3.454236e+01
   1.353002e+01  -1.054042e+02
   1.361733e+02  -8.299019e+01
   1.922935e+02   4.796454e+01
   1.014165e+02   1.959023e+02
  -1.012221e+02   2.261571e+02
  -2.629777e+02   9.786386e+01
  -2.570308e+02  -8.334867e+01
  -1.110309e+02  -1.757670e+02
   3.766285e+01  -1.474505e+02
   9.453511e+01  -8.440176e+01
   8.025505e+01  -6.916895e+01
   6.770631e+01  -8.965776e+01
   9.195238e+01  -7.233616e+01
   1.262417e+02   2.271527e+01
   1.157471e+02   1.524092e+02
   2.963391e+01   2.233508e+02
  -9.707989e+01   1.710861e+02
  -1.739924e+02   2.206291e+01
  -1.362196e+02  -1.191114e+02
  -2.069164e+01  -1.579999e+02
   6.482527e+01  -9.275352e+01
   5.840788e+01  -2.768919e+00
   5.600195e+00   4.009939e+01
  -8.012781e+00   3.317399e+01
   3.725990e+01   1.864694e+01
   7.752218e+01   2.356460e+01
   4.312022e+01   3.770883e+01
  -6.159531e+01   3.536773e+01
  -1.530175e+02   2.702432e+00
  -1.403880e+02  -4.897063e+01
  -1.698348e+01  -8.520792e+01
   1.168592e+02  -7.232694e+01
   1.427544e+02  -1.428883e+01
   4.798535e+01   3.885722e+01
  -5.965254e+01   3.593841e+01
  -7.449595e+01  -1.905809e+01
  -5.660264e+00  -6.711873e+01
   5.674534e+01  -5.621438e+01
   6.181854e+01   3.037410e+00
   4.139791e+01   4.991561e+01
   4.199525e+01   4.132345e+01
   6.129401e+01   2.235761e+00
   6.532060e+01   6.619855e-01
   3.300542e+01   6.636284e+01
  -3.374229e+01   1.424923e+02
  -1.136246e+02   1.376156e+02
  -1.592771e+02   3.164699e+01
  -1.198706e+02  -8.960988e+01
  -6.619908e+00  -1.229491e+02
   8.408391e+01  -5.898740e+01
   5.879688e+01   1.556997e+01
  -5.840146e+01   1.961237e+01
  -1.359544e+02  -4.311665e+01
  -7.548541e+01  -1.057337e+02
   7.897795e+01  -1.109816e+02
   1.881461e+02  -5.225896e+01
   1.608860e+02   3.216242e+01
   3.775626e+01   8.542225e+01
  -5.925378e+01   7.036173e+01
  -4.808532e+01   8.465739e+00
   3.811191e+01  -2.578804e+01
   8.891496e+01   2.279016e+01
   3.140802e+01   1.175707e+02
  -9.198749e+01   1.519621e+02
  -1.666506e+02   6.031724e+01
  -1.249845e+02  -1.005007e+02
  -9.206996e+00  -1.955596e+02
   8.480175e+01  -1.425560e+02
   1.029646e+02   6.003684e+00
   6.037423e+01   1.156948e+02
  -6.973618e-02   1.050562e+02
  -4.414169e+01   2.045461e+01
  -5.215019e+01  -3.040279e+01
  -2.692244e+01  -8.365657e+00
  -3.508710e+00   2.064827e+01
  -1.859535e+01  -1.432065e+01
  -5.434506e+01  -8.713195e+01
  -4.287364e+01  -1.081313e+02
   4.478870e+01  -4.454913e+01
   1.365999e+02   3.942027e+01
   1.289843e+02   7.019994e+01
   1.695169e+01   4.850959e+01
  -8.792366e+01   2.135607e+01
  -8.728259e+01   7.709294e+00
  -9.533356e+00  -6.883040e+00
   3.863146e+01  -2.219520e+01
   1.297822e+01  -1.848883e+01
  -2.212264e+01   1.294822e+00
   6.161304e+00   9.387162e+00
   7.444151e+01   4.595624e+00
   8.982518e+01   2.424485e+01
   5.945222e+00   7.939289e+01
  -1.189644e+02   1.116362e+02
  -1.827097e+02   5.529884e+01
  -1.376662e+02  -6.872778e+01
  -2.367257e+01  -1.601245e+02
   7.839763e+01  -1.461505e+02
   1.124672e+02  -5.580461e+01
   7.927178e+01   2.194513e+01
   2.397033e+01   3.459186e+01
  -3.968612e+00   8.093631e+00
   9.290110e+00   3.502942e+00
   3.264293e+01   4.442008e+01
   2.264496e+01   8.822678e+01
  -2.904474e+01   7.025062e+01
  -8.022860e+01  -1.905578e+01
  -7.502596e+01  -1.080329e+02
  -2.182215e+00  -1.110060e+02
   8.256133e+01  -2.198470e+01
   1.008746e+02   7.644093e+01
   2.971201e+01   1.023170e+02
  -6.638371e+01   5.305919e+01
  -9.535465e+01  -1.312347e+01
  -3.689275e+01  -4.909167e+01
   3.265546e+01  -4.911608e+01
   2.960429e+01  -2.698451e+01
  -3.486725e+01  -2.331682e-01
  -6.838800e+01   5.893977e+00
  -1.389727e+01  -2.454781e+01
   7.827714e+01  -6.450715e+01
   1.128025e+02  -5.755388e+01
   6.128882e+01   1.163057e+01
  -1.641234e+01   8.123908e+01
  -5.190407e+01   7.689337e+01
  -3.547116e+01   3.909850e+00
  -4.050953e-01  -5.568459e+01
   2.608896e+01  -4.121436e+01
   3.591291e+01   1.942621e+01
   2.544017e+01   5.331472e+01
  -3.577153e+00   3.127385e+01
  -3.257899e+01  -9.133137e+00
  -3.829413e+01  -2.035806e+01
  -2.001903e+01  -6.459491e-01
  -9.678898e-02   1.317264e+01
   6.247708e+00  -4.568816e+00
   8.001417e+00  -3.700315e+01
   1.906994e+01  -4.331122e+01
   3.309400e+01  -5.512343e+00
   2.831070e+01   4.630275e+01
  -4.531612e+00   6.065011e+01
  -4.481099e+01   1.931652e+01
  -5.456035e+01  -4.012461e+01
  -1.315524e+01  -6.268461e+01
   5.390055e+01  -3.258661e+01
   8.660527e+01   1.657888e+01
   4.762878e+01   4.380307e+01
  -2.881467e+01   3.908984e+01
  -6.397921e+01   1.948273e+01
  -2.321346e+01   4.049842e+00
   3.807843e+01   2.862447e+00
   3.794029e+01   1.687285e+01
  -3.121896e+01   3.163662e+01
  -9.162511e+01   1.907452e+01
