
 $NMID
 id='ANONYMOUS ', fmtdat='(2E16.6)'
 volume=1.0
 tramp=1.0
 $END
   2.240883e+03   1.696091e+01
   1.505798e+03   1.070158e+03
   1.040791e+02   1.388212e+03
  -7.678909e+02   9.466483e+02
  -6.616366e+02   2.759059e+02
  -1.032090e+02  -7.170500e+01
   1.937107e+02   4.513289e+01
   3.770067e+01   3.352946e+02
  -2.798701e+02   3.952823e+02
  -4.295914e+02   8.908379e+01
  -3.115005e+02  -3.223297e+02
  -3.924789e+01  -4.383843e+02
   1.747600e+02  -1.400103e+02
   1.603668e+02   2.677611e+02
  -6.245252e+01   3.693286e+02
  -2.673128e+02   7.034306e+01
  -2.250166e+02  -3.257743e+02
   5.392118e+01  -4.515452e+02
   3.169565e+02  -2.311160e+02
   3.290196e+02   9.572392e+01
   1.160411e+02   2.491666e+02
  -7.026076e+01   1.769712e+02
  -3.178817e+01   6.206338e+01
   1.494398e+02   8.844514e+01
   1.966244e+02   2.239103e+02
  -3.455854e+01   2.652131e+02
  -3.536499e+02   9.699020e+01
  -4.213792e+02  -1.513492e+02
  -1.357414e+02  -2.481697e+02
   2.361264e+02  -1.162717e+02
   3.440854e+02   1.109093e+02
   1.198562e+02   2.553482e+02
  -1.914332e+02   2.393809e+02
  -3.205783e+02   8.776627e+01
  -2.244531e+02  -1.074021e+02
  -6.140025e+01  -2.059266e+02
   4.131654e+00  -1.169284e+02
  -5.672445e+01   6.004751e+01
  -1.422700e+02   8.683364e+01
  -1.271468e+02  -1.247907e+02
   1.660203e+01  -3.480431e+02
   1.789742e+02  -2.927930e+02
   2.073275e+02   7.217070e+00
   6.738573e+01   2.064009e+02
  -9.920497e+01   7.828141e+01
  -1.046520e+02  -1.981411e+02
   8.918140e+01  -2.687370e+02
   3.142070e+02  -3.353648e+01
   3.452143e+02   2.654766e+02
   1.152762e+02   3.499339e+02
  -2.079609e+02   1.872065e+02
  -3.652055e+02  -4.241775e+01
  -2.428986e+02  -1.647968e+02
   2.331806e+01  -1.462076e+02
   1.898642e+02  -6.233701e+01
   1.495039e+02  -1.358970e+00
   1.840784e+01   1.709933e+00
  -2.091686e+01  -2.531507e+01
   6.860721e+01  -2.595836e+01
   1.511143e+02   3.297726e+01
   8.753441e+01   1.264752e+02
  -1.008296e+02   1.784182e+02
  -2.475480e+02   1.140488e+02
  -2.060637e+02  -6.560123e+01
   5.886411e+00  -2.486080e+02
   2.200939e+02  -2.819638e+02
   2.758503e+02  -1.165534e+02
   1.678665e+02   1.235153e+02
   3.177200e+01   2.545845e+02
  -1.594742e+01   2.204194e+02
   1.925165e+00   1.287079e+02
  -1.839056e+01   9.378006e+01
  -1.110930e+02   9.539015e+01
  -1.947409e+02   3.563987e+01
  -1.764029e+02  -9.769529e+01
  -5.810112e+01  -1.901762e+02
   7.534797e+01  -1.342875e+02
   1.378795e+02   3.807779e+01
   9.202754e+01   1.816606e+02
  -4.107445e+01   1.787679e+02
  -1.801228e+02   3.866306e+01
  -2.192259e+02  -1.275469e+02
  -1.203671e+02  -2.105317e+02
   3.100169e+01  -1.862564e+02
   1.104792e+02  -1.154766e+02
   1.023732e+02  -7.001108e+01
   1.130274e+02  -5.926621e+01
   2.116017e+02  -2.869190e+01
   3.060377e+02   7.124430e+01
   2.363237e+02   2.183878e+02
  -1.816760e+01   3.216566e+02
  -2.806722e+02   2.926116e+02
  -3.499378e+02   1.267508e+02
  -2.041012e+02  -7.542459e+01
  -8.342633e+00  -1.796376e+02
   6.509922e+01  -1.348946e+02
  -2.337813e+00  -2.422475e+01
  -9.087141e+01   2.102161e+01
  -8.778458e+01  -3.527723e+01
   2.477623e+00  -9.820869e+01
   8.229932e+01  -6.477965e+01
   6.964663e+01   4.064097e+01
  -2.526856e+01   8.761576e+01
  -1.150386e+02  -5.652907e+00
  -1.101329e+02  -1.695383e+02
   1.044794e+01  -2.488646e+02
   1.763671e+02  -1.578647e+02
   2.680756e+02   3.979114e+01
   2.091850e+02   1.945660e+02
   4.210265e+01   2.056570e+02
  -9.763840e+01   1.018630e+02
  -1.075660e+02   1.150730e+00
  -2.078251e+01  -8.708165e+00
   3.645041e+01   4.970637e+01
  -8.258019e+00   8.396063e+01
  -9.302743e+01   4.417918e+01
  -1.036689e+02  -2.338684e+01
  -1.762599e+01  -3.923443e+01
   6.307531e+01   1.353814e+01
   2.757179e+01   7.316595e+01
  -1.134030e+02   6.796338e+01
  -2.275982e+02  -1.634717e+01
  -1.917217e+02  -1.297141e+02
  -1.699683e+01  -1.972436e+02
   1.573504e+02  -1.703512e+02
   1.963125e+02  -6.634559e+01
   9.528935e+01   3.414865e+01
  -2.474814e+01   5.246218e+01
  -4.347893e+01  -7.449932e+00
   4.386988e+01  -5.697049e+01
   1.355937e+02  -1.993510e+01
   1.340230e+02   7.733716e+01
   3.826158e+01   1.348142e+02
  -6.484408e+01   9.543007e+01
  -8.900820e+01   9.408277e+00
  -2.909006e+01  -2.718149e+01
   3.597804e+01   1.898131e+01
   2.093810e+01   8.685410e+01
  -7.552944e+01   9.087803e+01
  -1.594771e+02   8.367361e+00
  -1.340356e+02  -1.012144e+02
  -6.134446e+00  -1.524567e+02
   1.133127e+02  -1.081467e+02
   1.238697e+02  -8.576527e+00
   3.763223e+01   6.592924e+01
  -4.481581e+01   6.645697e+01
  -4.892482e+01   1.633972e+01
   2.647796e+00  -1.924831e+01
   3.127664e+01  -5.882497e+00
  -4.933232e+00   2.259492e+01
  -6.840975e+01   5.521435e+00
  -8.279024e+01  -6.783381e+01
  -9.876561e+00  -1.339537e+02
   1.079069e+02  -1.158519e+02
   1.784050e+02  -6.010267e+00
   1.414559e+02   1.185829e+02
   2.696732e+01   1.666355e+02
  -7.275357e+01   1.153440e+02
  -9.310365e+01   2.392064e+01
  -5.444999e+01  -2.927894e+01
  -2.577601e+01  -1.928156e+01
  -4.127361e+01   1.172808e+01
  -6.640428e+01   6.618204e+00
  -4.584157e+01  -4.259383e+01
   2.688755e+01  -8.278483e+01
   9.381044e+01  -5.546998e+01
   8.494699e+01   3.256358e+01
  -1.138932e+01   1.009443e+02
  -1.251716e+02   7.048232e+01
  -1.558536e+02  -5.001209e+01
  -6.144571e+01  -1.608648e+02
   9.567051e+01  -1.643313e+02
   1.982477e+02  -5.831153e+01
   1.778937e+02   6.727714e+01
   7.056376e+01   1.229793e+02
  -2.968162e+01   9.967333e+01
  -6.350928e+01   5.795028e+01
  -4.855948e+01   5.136019e+01
  -4.009985e+01   7.040998e+01
  -6.519466e+01   6.063757e+01
  -9.783584e+01  -1.117694e+01
  -8.953949e+01  -1.123032e+02
  -2.055501e+01  -1.661679e+02
   7.349845e+01  -1.222124e+02
   1.246617e+02  -7.097971e+00
   9.203595e+01   9.469640e+01
   5.375181e+00   1.148443e+02
  -5.759777e+01   5.790878e+01
  -4.785009e+01  -1.319492e+01
   3.655943e+00  -4.257232e+01
   2.290052e+01  -2.807144e+01
  -1.798995e+01  -7.734966e+00
  -6.341676e+01  -1.097552e+01
  -3.865390e+01  -2.932430e+01
   5.563159e+01  -3.142011e+01
   1.321205e+02   1.610552e-01
   1.080989e+02   4.842434e+01
  -2.647156e+00   7.535249e+01
  -1.018517e+02   5.597442e+01
  -1.079002e+02   3.305218e+00
  -3.269302e+01  -3.910675e+01
   4.346372e+01  -3.433097e+01
   5.831958e+01   1.226505e+01
   1.762855e+01   5.481873e+01
  -3.074812e+01   5.045233e+01
  -5.163549e+01   3.917252e+00
  -4.637384e+01  -3.619725e+01
  -3.704064e+01  -3.165768e+01
  -3.954267e+01  -1.013388e+00
  -4.771641e+01  -3.409990e-01
  -3.594794e+01  -5.370417e+01
   1.657020e+01  -1.145192e+02
   9.319019e+01  -1.107435e+02
   1.368447e+02  -2.759575e+01
   9.947006e+01   6.919123e+01
   2.283079e+00   1.002675e+02
  -6.886766e+01   5.438693e+01
  -4.648075e+01  -6.087126e+00
   4.236383e+01  -1.591981e+01
   9.795773e+01   2.896746e+01
   5.158438e+01   7.762416e+01
  -6.145453e+01   8.036634e+01
  -1.385837e+02   3.201046e+01
  -1.143160e+02  -3.069184e+01
  -2.152894e+01  -6.231639e+01
   4.798273e+01  -4.353666e+01
   3.612554e+01   2.440843e+00
  -2.936027e+01   2.439624e+01
  -6.896156e+01  -1.232076e+01
  -3.245905e+01  -8.352606e+01
   5.312400e+01  -1.156554e+02
   1.122474e+02  -5.567365e+01
   9.385797e+01   6.307189e+01
   1.583973e+01   1.393729e+02
  -5.778133e+01   1.031810e+02
  -7.654088e+01  -8.344478e+00
  -4.052171e+01  -8.855685e+01
   1.135818e+01  -7.536977e+01
   3.937934e+01  -1.037604e+01
   3.222167e+01   2.382098e+01
   1.033601e+01   5.461193e+00
   4.754116e+00  -1.235067e+01
   2.509144e+01   1.610354e+01
   4.407190e+01   6.566466e+01
   2.229718e+01   7.625407e+01
  -4.272448e+01   3.160859e+01
  -9.932724e+01  -2.520154e+01
  -8.920368e+01  -4.933345e+01
  -1.454586e+01  -3.959120e+01
   5.682505e+01  -2.052970e+01
   6.300113e+01  -4.751949e+00
   1.462457e+01   8.893453e+00
  -2.405151e+01   1.576643e+01
  -1.559404e+01   8.707489e+00
   9.216761e+00  -3.312887e+00
  -1.354033e+00  -3.407016e+00
  -4.684440e+01   2.561807e+00
  -6.889201e+01  -1.376814e+01
  -2.041593e+01  -5.863183e+01
   7.400081e+01  -8.905672e+01
   1.372247e+02  -5.429877e+01
   1.154670e+02   3.753451e+01
   2.809109e+01   1.153814e+02
  -5.626262e+01   1.167963e+02
  -8.475767e+01   5.224363e+01
  -5.941829e+01  -1.200543e+01
  -2.065156e+01  -2.796100e+01
  -3.516750e+00  -1.029429e+01
  -1.140680e+01  -6.799319e+00
  -2.257333e+01  -3.654597e+01
  -1.356907e+01  -6.716280e+01
   2.022937e+01  -5.331915e+01
   5.704390e+01   8.813268e+00
   6.104645e+01   7.129696e+01
   1.488984e+01   7.978964e+01
  -5.208961e+01   2.666221e+01
  -7.900228e+01  -4.281117e+01
  -3.350567e+01  -7.428092e+01
   4.453687e+01  -5.054352e+01
   7.767521e+01   2.122085e+00
   3.671734e+01   4.305661e+01
  -2.377763e+01   4.837008e+01
  -3.090920e+01   2.301773e+01
   1.695345e+01  -5.722884e+00
   4.964322e+01  -8.455941e+00
   1.497137e+01   1.996126e+01
  -5.616398e+01   4.953950e+01
  -8.936578e+01   4.050210e+01
  -5.464478e+01  -1.177361e+01
   7.563209e+00  -6.314205e+01
   4.187540e+01  -6.343146e+01
   3.424506e+01  -1.249152e+01
   7.557377e+00   3.706807e+01
  -1.552047e+01   3.707202e+01
  -2.692344e+01  -4.889818e+00
  -2.261411e+01  -3.872024e+01
  -1.204464e+00  -3.072615e+01
   2.448624e+01   2.118894e+00
   3.216764e+01   1.861620e+01
   1.568343e+01   3.987583e+00
  -4.316172e+00  -1.566116e+01
  -5.687512e+00  -8.664694e+00
   5.627922e+00   2.166712e+01
   4.193297e+00   3.964031e+01
  -1.726747e+01   1.960911e+01
  -3.266974e+01  -2.185576e+01
  -1.412155e+01  -4.247270e+01
   2.771179e+01  -2.079526e+01
   4.790464e+01   2.103479e+01
   1.685754e+01   4.295067e+01
  -4.133647e+01   2.841865e+01
  -6.963764e+01  -5.031264e+00
  -3.878965e+01  -3.032517e+01
   1.964687e+01  -3.526418e+01
   4.713636e+01  -2.382688e+01
   2.209013e+01  -6.538569e+00
  -1.846705e+01   3.890708e+00
  -2.328293e+01  -2.037476e+00
   1.506358e+01  -1.741570e+01
   5.401145e+01  -1.685671e+01
