
 $NMID
 id='ANONYMOUS ', fmtdat='(2E16.6)'
 volume=1.0
 tramp=1.0
 $END
  -1.906774e+03  -2.462397e+00
  -1.365351e+03  -8.645522e+02
  -2.058097e+02  -1.231292e+03
   6.350762e+02  -9.541967e+02
   6.702511e+02  -3.516390e+02
   2.094232e+02   6.338492e+01
  -1.296218e+02   3.240857e+01
  -6.898772e+01  -2.442738e+02
   2.027481e+02  -3.548393e+02
   3.698772e+02  -1.155268e+02
   2.995276e+02   2.550141e+02
   7.460767e+01   3.879677e+02
  -1.241927e+02   1.560339e+02
  -1.428605e+02  -2.001989e+02
   3.162315e+01  -3.204008e+02
   2.258559e+02  -8.341492e+01
   2.155231e+02   2.798404e+02
  -3.243770e+01   4.248565e+02
  -2.929009e+02   2.369784e+02
  -3.186895e+02  -7.552461e+01
  -1.210791e+02  -2.289208e+02
   5.156738e+01  -1.664409e+02
   1.614301e+01  -7.353882e+01
  -1.319875e+02  -1.130669e+02
  -1.472482e+02  -2.230837e+02
   6.161989e+01  -2.195141e+02
   3.120515e+02  -4.721784e+01
   3.436243e+02   1.477611e+02
   1.032302e+02   1.928572e+02
  -1.919617e+02   6.851633e+01
  -2.746098e+02  -1.068834e+02
  -9.068161e+01  -2.111322e+02
   1.677603e+02  -1.941276e+02
   2.765633e+02  -7.046058e+01
   1.952466e+02   8.866363e+01
   6.374540e+01   1.694313e+02
   2.194272e+01   1.046398e+02
   7.292759e+01  -2.361139e+01
   1.166431e+02  -3.875319e+01
   7.384502e+01   1.180419e+02
  -4.162916e+01   2.792070e+02
  -1.451628e+02   2.340894e+02
  -1.530134e+02   5.562763e+00
  -5.386088e+01  -1.503982e+02
   6.283354e+01  -5.471066e+01
   6.675772e+01   1.637039e+02
  -8.402003e+01   2.203124e+02
  -2.690519e+02   1.973776e+01
  -2.977875e+02  -2.399162e+02
  -1.016172e+02  -3.108471e+02
   1.789950e+02  -1.615492e+02
   3.195286e+02   3.899654e+01
   2.225959e+02   1.370531e+02
  -1.824497e+00   1.220429e+02
  -1.566469e+02   6.620185e+01
  -1.444254e+02   2.156484e+01
  -3.907902e+01   1.090420e+00
   1.268342e+01   3.517345e+00
  -4.647403e+01   9.182319e+00
  -1.233214e+02  -2.255413e+01
  -8.182236e+01  -1.025291e+02
   8.864567e+01  -1.628439e+02
   2.353554e+02  -1.066566e+02
   1.962329e+02   7.113720e+01
  -1.707775e+01   2.415839e+02
  -2.218111e+02   2.541527e+02
  -2.566908e+02   9.015544e+01
  -1.413634e+02  -1.176519e+02
  -2.328722e+01  -2.218513e+02
   5.169685e+00  -1.974380e+02
  -8.462542e+00  -1.322305e+02
   2.766431e+01  -1.009831e+02
   1.191497e+02  -8.267224e+01
   1.824524e+02  -1.384393e+01
   1.496595e+02   1.012105e+02
   3.946630e+01   1.696994e+02
  -7.185682e+01   1.106104e+02
  -1.169268e+02  -4.342787e+01
  -7.059213e+01  -1.653412e+02
   4.471373e+01  -1.540116e+02
   1.598305e+02  -2.437152e+01
   1.897578e+02   1.199529e+02
   1.055677e+02   1.875130e+02
  -2.399015e+01   1.670421e+02
  -9.786312e+01   1.112553e+02
  -9.973808e+01   7.210459e+01
  -1.140905e+02   5.306796e+01
  -1.993364e+02   1.421293e+01
  -2.778932e+02  -7.937611e+01
  -2.084772e+02  -2.076050e+02
   2.801462e+01  -2.923903e+02
   2.671502e+02  -2.572459e+02
   3.212607e+02  -1.037710e+02
   1.777162e+02   7.245652e+01
   6.613379e-01   1.566103e+02
  -5.457901e+01   1.163591e+02
   1.090263e+01   2.770537e+01
   8.063466e+01  -6.918480e+00
   6.814553e+01   3.491017e+01
  -7.363513e+00   7.952983e+01
  -6.650078e+01   5.046084e+01
  -5.334920e+01  -3.346952e+01
   2.308066e+01  -7.010269e+01
   9.844388e+01   1.071834e+01
   9.560611e+01   1.556442e+02
  -1.395955e+01   2.276029e+02
  -1.684994e+02   1.417088e+02
  -2.495652e+02  -4.537672e+01
  -1.855253e+02  -1.877235e+02
  -2.755664e+01  -1.893399e+02
   9.327079e+01  -8.696857e+01
   9.386764e+01   2.289070e+00
   1.654219e+01   4.382202e+00
  -2.795172e+01  -4.865635e+01
   1.391492e+01  -7.298929e+01
   8.436361e+01  -3.317158e+01
   8.886875e+01   2.424887e+01
   1.229333e+01   3.215535e+01
  -5.596255e+01  -1.853311e+01
  -1.957560e+01  -6.979969e+01
   1.098039e+02  -5.788636e+01
   2.101388e+02   2.565337e+01
   1.696462e+02   1.284753e+02
   4.918551e+00   1.806622e+02
  -1.507594e+02   1.465550e+02
  -1.777344e+02   5.209648e+01
  -8.200660e+01  -3.093634e+01
   2.287942e+01  -4.239758e+01
   3.482519e+01   8.239424e+00
  -4.346425e+01   4.655010e+01
  -1.215667e+02   1.138060e+01
  -1.168736e+02  -7.310527e+01
  -3.073810e+01  -1.207416e+02
   5.968951e+01  -8.272945e+01
   7.818408e+01  -5.629862e+00
   2.259285e+01   2.329383e+01
  -3.310665e+01  -2.305631e+01
  -1.352050e+01  -8.375393e+01
   7.616966e+01  -8.050140e+01
   1.476403e+02   1.321330e-01
   1.180388e+02   9.779834e+01
   3.813371e-01   1.379223e+02
  -1.047057e+02   9.455015e+01
  -1.111193e+02   6.516460e+00
  -3.249968e+01  -5.772102e+01
   4.097640e+01  -5.751092e+01
   4.282351e+01  -1.364126e+01
  -5.547608e+00   1.621307e+01
  -3.061158e+01   1.972231e+00
   6.236322e+00  -2.337729e+01
   6.647606e+01  -3.550161e+00
   7.614641e+01   6.736570e+01
   3.474526e+00   1.258670e+02
  -1.051044e+02   1.024692e+02
  -1.638149e+02  -2.304492e+00
  -1.245050e+02  -1.136398e+02
  -1.993020e+01  -1.520475e+02
   6.808389e+01  -1.027682e+02
   8.529947e+01  -2.043287e+01
   5.045544e+01   2.679888e+01
   2.442306e+01   1.770985e+01
   3.875267e+01  -9.827576e+00
   6.248772e+01  -3.788217e+00
   4.265957e+01   4.262391e+01
  -2.796225e+01   7.836521e+01
  -9.183856e+01   4.891768e+01
  -7.989291e+01  -3.524444e+01
   1.532156e+01  -9.526291e+01
   1.208412e+02  -6.036625e+01
   1.421835e+02   5.337498e+01
   4.861435e+01   1.503672e+02
  -9.503950e+01   1.458846e+02
  -1.828326e+02   4.555807e+01
  -1.590474e+02  -6.658990e+01
  -6.013399e+01  -1.128984e+02
   2.958204e+01  -8.909868e+01
   5.865425e+01  -5.119703e+01
   4.452392e+01  -4.656851e+01
   3.773153e+01  -6.474544e+01
   6.167857e+01  -5.492376e+01
   9.042703e+01   1.262690e+01
   7.944430e+01   1.057720e+02
   1.382239e+01   1.529556e+02
  -7.077635e+01   1.092112e+02
  -1.132170e+02   1.987446e+00
  -7.995294e+01  -8.967510e+01
  -4.345556e-01  -1.043876e+02
   5.495009e+01  -4.921778e+01
   4.293498e+01   1.592237e+01
  -6.651650e+00   4.008601e+01
  -2.440404e+01   2.423575e+01
   1.543297e+01   6.026629e+00
   5.916437e+01   1.146911e+01
   3.541270e+01   2.871713e+01
  -5.369593e+01   2.714528e+01
  -1.235513e+02  -5.710970e+00
  -9.734618e+01  -4.949871e+01
   7.636551e+00  -6.950715e+01
   9.728866e+01  -4.753251e+01
   9.876506e+01   1.237717e+00
   2.765704e+01   3.799190e+01
  -4.134675e+01   3.134387e+01
  -5.370037e+01  -1.291567e+01
  -1.603034e+01  -5.252423e+01
   2.878971e+01  -4.746927e+01
   4.874451e+01  -2.495079e+00
   4.369588e+01   3.564763e+01
   3.378631e+01   3.070232e+01
   3.547871e+01   1.520326e+00
   4.366576e+01   1.612156e+00
   3.263927e+01   5.180169e+01
  -1.803533e+01   1.064237e+02
  -9.056376e+01   9.937172e+01
  -1.291873e+02   2.046426e+01
  -9.046597e+01  -6.752833e+01
   1.867546e+00  -9.306468e+01
   6.645267e+01  -4.884187e+01
   4.327411e+01   6.401402e+00
  -3.929113e+01   1.364079e+01
  -8.884905e+01  -2.875819e+01
  -4.453144e+01  -7.223019e+01
   5.892487e+01  -7.144486e+01
   1.273697e+02  -2.451151e+01
   1.027419e+02   3.199258e+01
   1.714284e+01   5.712807e+01
  -4.514125e+01   3.704745e+01
  -3.244509e+01  -4.510011e+00
   2.819320e+01  -2.216367e+01
   6.366380e+01   1.289874e+01
   2.890047e+01   7.775676e+01
  -5.022529e+01   1.061243e+02
  -1.038567e+02   5.020542e+01
  -8.531706e+01  -5.907761e+01
  -1.218108e+01  -1.282130e+02
   5.507383e+01  -9.301712e+01
   6.967986e+01   1.040797e+01
   3.381276e+01   8.243428e+01
  -1.394005e+01   6.756752e+01
  -3.695087e+01   7.205872e+00
  -2.788259e+01  -2.244750e+01
  -8.062661e+00  -4.453453e+00
  -4.779703e+00   1.061700e+01
  -2.366609e+01  -1.712576e+01
  -3.896018e+01  -6.193344e+01
  -1.725793e+01  -6.929966e+01
   4.128606e+01  -2.681935e+01
   9.041562e+01   2.527314e+01
   7.972032e+01   4.694287e+01
   1.218637e+01   3.737967e+01
  -5.192935e+01   1.848564e+01
  -5.760688e+01   2.543583e+00
  -1.389412e+01  -9.686750e+00
   2.183054e+01  -1.403042e+01
   1.497929e+01  -6.385561e+00
  -7.748814e+00   3.655714e+00
   9.812055e-01   2.426480e+00
   4.235943e+01  -2.467751e+00
   6.342762e+01   1.421649e+01
   1.924220e+01   5.557930e+01
  -6.898246e+01   8.151153e+01
  -1.286961e+02   4.752468e+01
  -1.076964e+02  -3.696209e+01
  -2.413943e+01  -1.069945e+02
   5.537061e+01  -1.067940e+02
   8.027550e+01  -4.685022e+01
   5.456873e+01   1.219007e+01
   1.834714e+01   2.678042e+01
   3.477103e+00   1.063443e+01
   1.055559e+01   7.492582e+00
   1.914382e+01   3.453482e+01
   9.930815e+00   6.197531e+01
  -2.000766e+01   4.858749e+01
  -5.214315e+01  -8.809525e+00
  -5.536039e+01  -6.636660e+01
  -1.336784e+01  -7.429838e+01
   4.810175e+01  -2.508115e+01
   7.287918e+01   3.997221e+01
   3.028097e+01   6.977047e+01
  -4.253707e+01   4.696922e+01
  -7.272507e+01  -3.689332e+00
  -3.319424e+01  -4.218909e+01
   2.407558e+01  -4.534533e+01
   3.047223e+01  -1.993116e+01
  -1.495609e+01   6.261476e+00
  -4.594635e+01   6.965909e+00
  -1.365626e+01  -1.934395e+01
   5.281471e+01  -4.419493e+01
   8.374152e+01  -3.382429e+01
   5.078975e+01   1.352309e+01
  -8.353745e+00   5.844846e+01
  -4.119910e+01   5.758061e+01
  -3.360339e+01   1.116110e+01
  -7.184809e+00  -3.420322e+01
   1.528856e+01  -3.474199e+01
   2.533454e+01   3.982079e+00
   2.020012e+01   3.634538e+01
   1.578137e-01   2.954709e+01
  -2.280438e+01  -2.038406e+00
  -2.920641e+01  -1.877749e+01
  -1.410965e+01  -4.655048e+00
   3.647058e+00   1.563690e+01
   4.169532e+00   9.842210e+00
  -6.569225e+00  -2.014705e+01
  -4.623674e+00  -3.893759e+01
   1.661908e+01  -2.017786e+01
   3.190435e+01   2.019125e+01
   1.431371e+01   4.038341e+01
  -2.576575e+01   1.958911e+01
  -4.502815e+01  -2.006192e+01
  -1.546952e+01  -3.994922e+01
   3.925021e+01  -2.534699e+01
   6.503049e+01   6.052100e+00
   3.534419e+01   2.890715e+01
  -1.929080e+01   3.276875e+01
  -4.460825e+01   2.180037e+01
  -2.139159e+01   5.462624e+00
   1.618190e+01  -4.621286e+00
   2.144902e+01   7.282337e-01
  -1.273935e+01   1.534259e+01
  -4.832774e+01   1.536109e+01
