
 $NMID
 id='ANONYMOUS ', fmtdat='(2E16.6)'
 volume=1.0
 tramp=1.0
 $END
   1.119145e+03   4.189467e+01
   7.186042e+02   5.669117e+02
   5.153189e+00   6.847936e+02
  -4.027671e+02   4.281230e+02
  -3.110035e+02   1.002093e+02
  -2.237597e+01  -3.835323e+01
   1.052611e+02   4.110308e+01
   6.262804e+00   1.779889e+02
  -1.536394e+02   1.898022e+02
  -2.153223e+02   2.935827e+01
  -1.434539e+02  -1.701835e+02
  -3.856864e+00  -2.165963e+02
   9.538405e+01  -5.933166e+01
   7.533119e+01   1.424158e+02
  -4.131121e+01   1.824829e+02
  -1.351678e+02   2.604307e+01
  -1.023220e+02  -1.655072e+02
   3.678107e+01  -2.155632e+02
   1.566493e+02  -1.014389e+02
   1.541343e+02   5.421659e+01
   4.914259e+01   1.224277e+02
  -3.963413e+01   8.386931e+01
  -1.953683e+01   2.591325e+01
   7.178843e+01   3.752974e+01
   9.933761e+01   1.067060e+02
  -1.334361e+01   1.329696e+02
  -1.748933e+02   5.162774e+01
  -2.115833e+02  -7.675501e+01
  -6.749609e+01  -1.298763e+02
   1.211790e+02  -6.200977e+01
   1.743726e+02   5.695276e+01
   5.907198e+01   1.304403e+02
  -9.762654e+01   1.190877e+02
  -1.603798e+02   4.037499e+01
  -1.096857e+02  -5.740205e+01
  -2.526669e+01  -1.051900e+02
   9.629093e+00  -5.750329e+01
  -2.306294e+01   3.523879e+01
  -7.278239e+01   4.961967e+01
  -6.958604e+01  -6.084666e+01
   6.450384e+00  -1.771477e+02
   9.483658e+01  -1.473708e+02
   1.090318e+02   8.827836e+00
   3.198598e+01   1.098030e+02
  -5.545185e+01   4.079386e+01
  -5.478758e+01  -1.012193e+02
   4.621859e+01  -1.348241e+02
   1.568766e+02  -1.446603e+01
   1.676567e+02   1.341236e+02
   5.179076e+01   1.733699e+02
  -1.059857e+02   9.010572e+01
  -1.797504e+02  -2.562982e+01
  -1.154208e+02  -8.658470e+01
   1.778552e+01  -7.350095e+01
   9.699887e+01  -2.555784e+01
   7.098437e+01   6.329472e+00
   3.783371e+00   2.018224e+00
  -1.153368e+01  -1.703270e+01
   3.719954e+01  -1.517916e+01
   7.631764e+01   1.974001e+01
   4.035995e+01   6.564522e+01
  -5.229225e+01   8.513922e+01
  -1.196075e+02   5.100901e+01
  -9.697229e+01  -3.232464e+01
   3.960238e+00  -1.169639e+02
   1.059829e+02  -1.340455e+02
   1.341565e+02  -5.622525e+01
   8.232001e+01   6.105903e+01
   1.318200e+01   1.263257e+02
  -1.306139e+01   1.076982e+02
  -2.692555e+00   5.914449e+01
  -7.977808e+00   4.151557e+01
  -5.110996e+01   4.543518e+01
  -9.364588e+01   1.872225e+01
  -8.662135e+01  -4.701395e+01
  -2.861786e+01  -9.381672e+01
   3.762610e+01  -6.677905e+01
   6.828267e+01   1.834502e+01
   4.511630e+01   8.939014e+01
  -2.072532e+01   8.814998e+01
  -8.885398e+01   1.873050e+01
  -1.068453e+02  -6.410143e+01
  -5.639359e+01  -1.049018e+02
   1.870282e+01  -9.065367e+01
   5.604486e+01  -5.310122e+01
   4.933673e+01  -3.049072e+01
   5.315027e+01  -2.719654e+01
   1.014711e+02  -1.353201e+01
   1.475690e+02   3.566764e+01
   1.130337e+02   1.073656e+02
  -1.082400e+01   1.559019e+02
  -1.377395e+02   1.400023e+02
  -1.710133e+02   5.914033e+01
  -9.985590e+01  -3.860176e+01
  -3.148423e+00  -8.887582e+01
   3.456931e+01  -6.612892e+01
   1.325555e+00  -1.061168e+01
  -4.475519e+01   1.175058e+01
  -4.481098e+01  -1.759671e+01
   1.308198e+00  -4.987873e+01
   4.274325e+01  -3.235638e+01
   3.561384e+01   2.142678e+01
  -1.339172e+01   4.442279e+01
  -5.716836e+01  -3.036463e+00
  -5.209151e+01  -8.357272e+01
   7.666988e+00  -1.204143e+02
   8.608073e+01  -7.446994e+01
   1.282185e+02   2.116940e+01
   9.976720e+01   9.500847e+01
   1.993197e+01   9.985558e+01
  -4.780340e+01   4.933163e+01
  -5.315296e+01  -1.720771e-01
  -1.056687e+01  -5.318904e+00
   1.814708e+01   2.380927e+01
  -3.699241e+00   4.136807e+01
  -4.580043e+01   2.174471e+01
  -5.124566e+01  -1.210063e+01
  -8.909917e+00  -2.008414e+01
   3.069049e+01   6.031979e+00
   1.356562e+01   3.511982e+01
  -5.448789e+01   3.219666e+01
  -1.094737e+02  -8.785715e+00
  -9.222430e+01  -6.330660e+01
  -7.824218e+00  -9.564423e+01
   7.703477e+01  -8.232605e+01
   9.642025e+01  -3.131262e+01
   4.688527e+01   1.793662e+01
  -1.262545e+01   2.635798e+01
  -2.209025e+01  -3.845630e+00
   2.124289e+01  -2.821534e+01
   6.648489e+01  -9.309153e+00
   6.512339e+01   3.880833e+01
   1.760377e+01   6.643563e+01
  -3.266773e+01   4.635970e+01
  -4.398462e+01   3.997846e+00
  -1.465516e+01  -1.390574e+01
   1.703716e+01   8.407807e+00
   1.012841e+01   4.132578e+01
  -3.625421e+01   4.345712e+01
  -7.690050e+01   3.512253e+00
  -6.447541e+01  -4.973666e+01
  -1.985831e+00  -7.426387e+01
   5.618923e+01  -5.176443e+01
   6.064932e+01  -2.691264e+00
   1.776053e+01   3.307429e+01
  -2.264741e+01   3.231694e+01
  -2.437915e+01   7.535952e+00
   8.205525e-01  -9.570226e+00
   1.473396e+01  -3.157428e+00
  -2.358168e+00   1.022821e+01
  -3.231295e+01   1.973773e+00
  -3.896891e+01  -3.285719e+01
  -4.078114e+00  -6.421825e+01
   5.245602e+01  -5.530222e+01
   8.630359e+01  -2.113747e+00
   6.789399e+01   5.826895e+01
   1.174654e+01   8.117854e+01
  -3.654784e+01   5.545817e+01
  -4.542177e+01   1.057163e+01
  -2.581372e+01  -1.498851e+01
  -1.201552e+01  -9.715379e+00
  -1.993127e+01   5.278109e+00
  -3.184512e+01   2.741441e+00
  -2.137915e+01  -2.047346e+01
   1.349353e+01  -3.907436e+01
   4.485400e+01  -2.585780e+01
   4.011505e+01   1.578582e+01
  -5.894633e+00   4.801383e+01
  -6.016784e+01   3.320173e+01
  -7.479257e+01  -2.473703e+01
  -2.915256e+01  -7.801095e+01
   4.695717e+01  -7.917682e+01
   9.648177e+01  -2.715697e+01
   8.602240e+01   3.397726e+01
   3.342605e+01   6.047708e+01
  -1.524533e+01   4.832376e+01
  -3.147007e+01   2.757405e+01
  -2.425312e+01   2.427985e+01
  -2.022165e+01   3.344883e+01
  -3.200023e+01   2.853776e+01
  -4.700618e+01  -6.297953e+00
  -4.228991e+01  -5.499472e+01
  -8.683164e+00  -8.054585e+01
   3.654538e+01  -5.871140e+01
   6.064983e+01  -2.679740e+00
   4.416710e+01   4.647111e+01
   1.980276e+00   5.583192e+01
  -2.818313e+01   2.806604e+01
  -2.313967e+01  -6.188223e+00
   1.641637e+00  -2.026988e+01
   1.068769e+01  -1.355827e+01
  -8.857956e+00  -4.239577e+00
  -3.028930e+01  -5.927723e+00
  -1.826871e+01  -1.433775e+01
   2.674825e+01  -1.474926e+01
   6.333151e+01   7.504552e-01
   5.197116e+01   2.381759e+01
  -1.180429e+00   3.627644e+01
  -4.917450e+01   2.643910e+01
  -5.227035e+01   1.016843e+00
  -1.576601e+01  -1.888487e+01
   2.119663e+01  -1.599837e+01
   2.798198e+01   6.405634e+00
   7.735135e+00   2.627333e+01
  -1.550183e+01   2.369057e+01
  -2.471816e+01   1.377944e+00
  -2.161855e+01  -1.764908e+01
  -1.748978e+01  -1.547766e+01
  -1.930254e+01  -9.199122e-01
  -2.309969e+01  -5.591355e-01
  -1.666051e+01  -2.592902e+01
   9.054952e+00  -5.483668e+01
   4.552045e+01  -5.269070e+01
   6.573174e+01  -1.243373e+01
   4.726546e+01   3.399486e+01
   5.442264e-01   4.826360e+01
  -3.335690e+01   2.551962e+01
  -2.225254e+01  -3.444437e+00
   2.062664e+01  -7.305057e+00
   4.719943e+01   1.493192e+01
   2.446910e+01   3.805295e+01
  -3.029911e+01   3.849820e+01
  -6.742821e+01   1.459304e+01
  -5.532778e+01  -1.560736e+01
  -1.011604e+01  -3.045220e+01
   2.356195e+01  -2.102817e+01
   1.758102e+01   1.173343e+00
  -1.427369e+01   1.141354e+01
  -3.308696e+01  -6.606447e+00
  -1.468039e+01  -4.063107e+01
   2.705835e+01  -5.518232e+01
   5.493036e+01  -2.549990e+01
   4.467744e+01   3.160775e+01
   6.172406e+00   6.758113e+01
  -2.897437e+01   4.945330e+01
  -3.701486e+01  -4.511478e+00
  -1.908415e+01  -4.313523e+01
   5.761185e+00  -3.663376e+01
   1.899037e+01  -4.972044e+00
   1.562958e+01   1.184020e+01
   5.259871e+00   2.903686e+00
   2.374813e+00  -6.068443e+00
   1.172824e+01   7.625406e+00
   2.069210e+01   3.201620e+01
   1.042951e+01   3.734424e+01
  -2.062812e+01   1.515224e+01
  -4.784590e+01  -1.314027e+01
  -4.292583e+01  -2.476280e+01
  -6.716657e+00  -1.911543e+01
   2.784796e+01  -9.191508e+00
   3.058429e+01  -1.803759e+00
   6.817613e+00   4.171147e+00
  -1.192061e+01   7.384408e+00
  -7.497413e+00   4.349116e+00
   4.681892e+00  -1.336086e+00
  -6.757739e-01  -1.827229e+00
  -2.285675e+01   5.375967e-01
  -3.307223e+01  -7.305993e+00
  -8.883227e+00  -2.827139e+01
   3.686421e+01  -4.205680e+01
   6.653526e+01  -2.477195e+01
   5.490030e+01   1.929303e+01
   1.227549e+01   5.597347e+01
  -2.806436e+01   5.574484e+01
  -4.119163e+01   2.426650e+01
  -2.855664e+01  -6.406941e+00
  -9.711384e+00  -1.356635e+01
  -1.477538e+00  -4.762111e+00
  -5.383882e+00  -3.168395e+00
  -1.074177e+01  -1.776477e+01
  -6.165842e+00  -3.259030e+01
   1.023022e+01  -2.556990e+01
   2.751741e+01   4.928376e+00
   2.864492e+01   3.517165e+01
   6.095365e+00   3.858117e+01
  -2.553899e+01   1.199745e+01
  -3.751363e+01  -2.172008e+01
  -1.521779e+01  -3.606233e+01
   2.191544e+01  -2.365348e+01
   3.720450e+01   1.777642e+00
   1.722114e+01   2.074819e+01
  -1.170523e+01   2.281068e+01
  -1.479129e+01   1.093595e+01
   8.442098e+00  -2.296790e+00
   2.404900e+01  -3.546278e+00
   6.959540e+00   9.640897e+00
  -2.759346e+01   2.343227e+01
  -4.339606e+01   1.904822e+01
  -2.608908e+01  -5.875414e+00
   4.262079e+00  -3.031334e+01
   2.054297e+01  -3.019620e+01
   1.624822e+01  -5.585715e+00
   3.056145e+00   1.801108e+01
  -7.820764e+00   1.753429e+01
  -1.282093e+01  -2.885327e+00
  -1.049638e+01  -1.887452e+01
  -3.351367e-01  -1.456294e+01
   1.174152e+01   1.365861e+00
   1.534614e+01   9.083125e+00
   7.584111e+00   1.924445e+00
  -1.915548e+00  -7.345590e+00
  -2.843198e+00  -3.824332e+00
   2.078635e+00   1.052715e+01
   1.235867e+00   1.866446e+01
  -8.494643e+00   8.722332e+00
  -1.504531e+01  -1.105026e+01
  -5.881495e+00  -2.045533e+01
   1.364515e+01  -9.538356e+00
   2.262065e+01   1.071901e+01
   7.524497e+00   2.091003e+01
  -2.010631e+01   1.330220e+01
  -3.334996e+01  -3.134983e+00
  -1.837456e+01  -1.499016e+01
   9.737265e+00  -1.666886e+01
   2.284731e+01  -1.084018e+01
   1.052008e+01  -2.951146e+00
  -9.186271e+00   1.380660e+00
  -1.123551e+01  -1.591508e+00
   7.787098e+00  -8.372104e+00
   2.667208e+01  -7.411985e+00
