
 $NMID
 id='ANONYMOUS ', fmtdat='(2E16.6)'
 volume=1.0
 tramp=1.0
 $END
   5.179558e+07  -6.409910e+05
   3.107252e+07   3.162081e+07
  -6.657693e+06   3.479966e+07
  -2.481905e+07   1.348044e+07
  -1.470266e+07  -6.221844e+06
   3.001445e+06  -8.411070e+06
   8.761357e+06   1.012442e+06
   2.565693e+06   8.700696e+06
  -5.351490e+06   8.431328e+06
  -8.614063e+06   1.923716e+06
  -6.524564e+06  -5.533142e+06
  -9.741373e+05  -7.863086e+06
   3.670695e+06  -2.633569e+06
   2.697601e+06   4.859323e+06
  -3.141129e+06   5.991563e+06
  -7.108367e+06  -1.090561e+06
  -4.201144e+06  -9.178897e+06
   3.246593e+06  -1.076404e+07
   9.155243e+06  -5.535699e+06
   9.992306e+06   1.750126e+06
   6.203268e+06   6.896786e+06
   6.235334e+05   8.046887e+06
  -2.792346e+06   5.492372e+06
  -1.687614e+06   2.155261e+06
   1.292632e+06   1.665844e+06
   5.988135e+05   3.851071e+06
  -4.780818e+06   4.417234e+06
  -8.957611e+06   8.992191e+05
  -6.683133e+06  -3.627880e+06
  -3.826643e+05  -4.847477e+06
   3.452229e+06  -2.688733e+06
   2.502048e+06  -1.272880e+05
  -2.987186e+05   1.093386e+06
  -2.049054e+06   8.183539e+05
  -2.251453e+06  -1.130243e+06
  -9.194269e+05  -3.684614e+06
   1.606743e+06  -3.657377e+06
   3.136795e+06   1.337032e+05
   1.670387e+06   3.482418e+06
  -8.655905e+05   1.841468e+06
  -5.958848e+05  -2.304293e+06
   2.087068e+06  -2.206995e+06
   2.252275e+06   2.844709e+06
  -2.155068e+06   5.536753e+06
  -6.350900e+06   8.705273e+05
  -4.745376e+06  -6.335096e+06
   1.670958e+06  -7.797325e+06
   6.769795e+06  -2.339054e+06
   6.443944e+06   3.816909e+06
   1.865069e+06   5.342925e+06
  -3.015180e+06   2.552701e+06
  -4.752115e+06  -1.160254e+06
  -2.254555e+06  -3.016467e+06
   2.159287e+06  -2.006112e+06
   4.125028e+06   7.566641e+05
   1.795363e+06   2.435038e+06
  -1.555639e+06   1.284950e+06
  -1.600246e+06  -8.524058e+05
   1.142624e+06  -7.735015e+05
   2.149124e+06   1.576782e+06
  -6.435274e+05   3.039309e+06
  -4.199559e+06   1.670458e+06
  -4.761609e+06  -1.188962e+06
  -2.128902e+06  -3.558402e+06
   1.491985e+06  -4.885808e+06
   4.411213e+06  -4.674228e+06
   5.655097e+06  -1.843920e+06
   4.360029e+06   2.790404e+06
   1.089195e+06   5.654959e+06
  -1.521630e+06   4.352694e+06
  -1.466737e+06   1.073552e+06
   5.645522e+03  -2.000397e+05
   1.690004e+05   1.071226e+06
  -1.430549e+06   1.900265e+06
  -2.709737e+06   4.430141e+05
  -2.106991e+06  -1.688329e+06
  -2.210640e+05  -2.058596e+06
   1.426597e+06  -3.817402e+05
   1.724257e+06   1.761915e+06
   1.947665e+05   2.721305e+06
  -2.503550e+06   1.691610e+06
  -4.225264e+06  -9.213992e+05
  -3.108446e+06  -3.394196e+06
  -4.987071e+04  -3.918112e+06
   2.061230e+06  -2.533299e+06
   2.010154e+06  -1.048734e+06
   1.603194e+06  -6.583093e+05
   2.617850e+06  -5.768978e+05
   3.979472e+06   4.644572e+05
   3.318643e+06   2.329521e+06
   3.575827e+05   3.757413e+06
  -2.698437e+06   3.770210e+06
  -3.726373e+06   2.222468e+06
  -2.523416e+06  -2.316905e+05
  -4.201543e+05  -2.094424e+06
   9.189919e+05  -1.893304e+06
   5.509624e+05   6.318572e+03
  -9.290466e+05   1.293262e+06
  -1.747910e+06   4.652866e+05
  -9.167268e+05  -1.091280e+06
   4.122775e+05  -1.080499e+06
   4.111954e+05   2.984017e+05
  -8.928543e+05   6.377341e+05
  -1.648626e+06  -1.099995e+06
  -6.721214e+05  -3.062169e+06
   1.248134e+06  -3.043012e+06
   2.675255e+06  -1.099675e+06
   2.993089e+06   1.088330e+06
   2.227455e+06   2.296279e+06
   6.054043e+05   2.319079e+06
  -1.037490e+06   1.427383e+06
  -1.443029e+06   3.154541e+05
  -4.542014e+05  -1.538092e+04
   3.750186e+05   6.698489e+05
  -3.194161e+05   1.252800e+06
  -1.735081e+06   6.200107e+05
  -1.907603e+06  -7.229425e+05
  -4.148532e+05  -1.284070e+06
   1.043132e+06  -5.935196e+05
   8.422161e+05   3.427326e+05
  -7.098158e+05   5.015380e+05
  -1.958414e+06  -1.460281e+05
  -1.656899e+06  -1.082058e+06
   8.388660e+04  -1.778113e+06
   1.987816e+06  -1.647750e+06
   2.519721e+06  -4.143547e+05
   1.180318e+06   1.105042e+06
  -7.862725e+05   1.437403e+06
  -1.444936e+06   2.411736e+05
  -2.430824e+05  -1.007282e+06
   1.361471e+06  -7.677106e+05
   1.615928e+06   6.232629e+05
   3.923932e+05   1.483163e+06
  -9.383271e+05   9.349020e+05
  -1.149565e+06  -2.223793e+05
  -2.563928e+05  -6.958606e+05
   7.328134e+05  -9.160970e+04
   7.463175e+05   9.265495e+05
  -4.372722e+05   1.353014e+06
  -1.816802e+06   6.300359e+05
  -1.941230e+06  -8.440654e+05
  -4.722015e+05  -1.888403e+06
   1.235552e+06  -1.586938e+06
   1.572063e+06  -2.810282e+05
   5.033529e+05   7.708293e+05
  -5.592047e+05   7.749074e+05
  -5.795023e+05   1.224495e+05
   6.256997e+04  -3.187580e+05
   4.009226e+05  -2.334787e+05
   1.054460e+05   5.091785e+03
  -3.859093e+05  -8.252531e+04
  -4.765051e+05  -5.845347e+05
   1.336849e+05  -1.079282e+06
   1.210293e+06  -8.916907e+05
   1.929682e+06   2.570363e+05
   1.459446e+06   1.697726e+06
  -5.067496e+04   2.232731e+06
  -1.381632e+06   1.385163e+06
  -1.534509e+06  -8.013823e+03
  -8.378898e+05  -7.392659e+05
  -3.606804e+05  -5.504307e+05
  -4.836124e+05  -1.793177e+05
  -5.953739e+05  -2.768207e+05
  -1.127618e+05  -7.023003e+05
   7.468374e+05  -8.614780e+05
   1.284070e+06  -3.797863e+05
   9.930055e+05   5.736416e+05
  -1.269550e+05   1.322979e+06
  -1.492415e+06   1.078225e+06
  -2.078290e+06  -3.003901e+05
  -1.156196e+06  -1.846960e+06
   7.946904e+05  -2.213537e+06
   2.265484e+06  -1.077173e+06
   2.171272e+06   4.674081e+05
   9.400778e+05   1.144447e+06
  -1.168084e+05   8.509216e+05
  -2.938426e+05   4.955695e+05
  -1.180972e+04   7.288791e+05
  -2.811526e+04   1.232235e+06
  -5.564745e+05   1.225739e+06
  -1.178885e+06   3.632628e+05
  -1.298353e+06  -9.140212e+05
  -6.294952e+05  -1.707475e+06
   4.819015e+05  -1.361016e+06
   1.176082e+06  -7.668435e+04
   8.116439e+05   1.128074e+06
  -2.840489e+05   1.290762e+06
  -1.034418e+06   4.152866e+05
  -7.598531e+05  -6.077078e+05
   7.373051e+04  -9.835784e+05
   4.544289e+05  -7.248587e+05
   4.948171e+04  -3.725142e+05
  -4.235370e+05  -2.823872e+05
  -8.111041e+04  -3.475221e+05
   1.040523e+06  -2.509800e+05
   1.911655e+06   1.931876e+05
   1.538387e+06   8.567486e+05
   3.480079e+04   1.311257e+06
  -1.403199e+06   1.130000e+06
  -1.658135e+06   3.532764e+05
  -7.734422e+05  -4.096044e+05
   2.185682e+05  -5.351564e+05
   4.618492e+05  -5.151897e+04
   4.412546e+04   3.958664e+05
  -3.906695e+05   2.699102e+05
  -4.633254e+05  -2.874025e+05
  -2.891824e+05  -6.585133e+05
  -1.273494e+05  -4.465438e+05
  -1.083248e+05   8.867939e+04
  -2.158348e+05   2.881631e+05
  -2.612907e+05  -1.907500e+05
   5.737354e+04  -9.131121e+05
   7.582660e+05  -1.034661e+06
   1.257819e+06  -2.384301e+05
   8.520638e+05   8.001816e+05
  -3.218656e+05   1.081192e+06
  -1.153229e+06   3.892698e+05
  -7.146981e+05  -4.786215e+05
   6.048601e+05  -6.312730e+05
   1.448978e+06  -7.782665e+03
   9.541980e+05   7.144861e+05
  -3.843157e+05   9.113542e+05
  -1.321394e+06   5.163059e+05
  -1.120184e+06  -9.568141e+04
  -1.514534e+05  -4.529819e+05
   5.746237e+05  -2.800260e+05
   3.725716e+05   2.543404e+05
  -5.030077e+05   5.315617e+05
  -1.104190e+06   1.285221e+04
  -7.132096e+05  -1.048190e+06
   4.195912e+05  -1.624176e+06
   1.307224e+06  -9.286297e+05
   1.209563e+06   6.087907e+05
   3.084210e+05   1.630679e+06
  -5.879283e+05   1.227903e+06
  -8.488990e+05  -1.099668e+05
  -4.610420e+05  -1.058203e+06
   1.459820e+05  -8.840168e+05
   5.095725e+05  -1.047949e+05
   4.435729e+05   3.042060e+05
   1.501247e+05   1.017394e+05
   4.104004e+04  -8.328236e+04
   2.891591e+05   2.751154e+05
   5.364682e+05   8.633323e+05
   2.321113e+05   9.643580e+05
  -6.472702e+05   3.938954e+05
  -1.382969e+06  -3.276235e+05
  -1.214583e+06  -6.733556e+05
  -2.115293e+05  -6.308453e+05
   7.422779e+05  -4.525836e+05
   8.825094e+05  -2.307286e+05
   3.416539e+05   4.158700e+04
  -1.142858e+05   2.226826e+05
  -3.252033e+04   1.704226e+05
   2.364776e+05   4.522405e+04
   6.521062e+04   1.215245e+05
  -5.743119e+05   2.836913e+05
  -9.704707e+05   6.800906e+04
  -4.758382e+05  -6.276076e+05
   6.792840e+05  -1.167727e+06
   1.535113e+06  -8.240338e+05
   1.363191e+06   2.997184e+05
   3.635457e+05   1.275959e+06
  -6.180533e+05   1.325128e+06
  -9.358690e+05   5.858123e+05
  -6.235327e+05  -1.519074e+05
  -1.592486e+05  -3.254638e+05
   4.688522e+04  -8.989603e+04
  -7.291624e+04   2.010695e+03
  -2.889939e+05  -3.185316e+05
  -2.769135e+05  -7.225342e+05
   1.134224e+05  -6.470567e+05
   6.401823e+05   4.281104e+04
   7.731934e+05   8.138143e+05
   2.078059e+05   9.577581e+05
  -6.722229e+05   3.140444e+05
  -1.025032e+06  -5.695546e+05
  -4.170011e+05  -9.869004e+05
   6.110240e+05  -6.969369e+05
   1.051425e+06  -1.608460e+04
   5.420613e+05   5.472373e+05
  -2.249803e+05   6.677020e+05
  -3.442637e+05   3.643778e+05
   2.100841e+05  -2.752392e+04
   5.910292e+05  -9.058054e+04
   1.636310e+05   2.805691e+05
  -7.095870e+05   6.836125e+05
  -1.133079e+06   5.656204e+05
  -7.307087e+05  -1.348482e+05
   2.634536e+04  -8.186858e+05
   4.694792e+05  -8.310141e+05
   4.099549e+05  -1.877433e+05
   1.014254e+05   4.332220e+05
  -1.886014e+05   4.335328e+05
  -3.427527e+05  -8.792302e+04
  -2.814225e+05  -5.136525e+05
   1.853718e+04  -4.194833e+05
   3.687922e+05   2.671488e+03
   4.613036e+05   2.408129e+05
   2.256088e+05   8.413491e+04
  -4.718981e+04  -1.568518e+05
  -6.596310e+04  -6.842772e+04
   7.320440e+04   3.233483e+05
   2.867588e+04   5.518493e+05
  -2.797142e+05   2.706667e+05
  -4.907262e+05  -3.004448e+05
  -2.342445e+05  -5.971860e+05
   3.453688e+05  -3.367169e+05
   6.547187e+05   1.974997e+05
   2.933441e+05   5.046510e+05
  -4.477282e+05   3.769749e+05
  -8.372020e+05   3.626212e+03
  -4.781740e+05  -3.134077e+05
   2.466393e+05  -4.091090e+05
   5.863333e+05  -2.783491e+05
   2.489081e+05  -3.281771e+04
  -2.964466e+05   1.181001e+05
  -3.812064e+05   2.035262e+03
   1.061472e+05  -2.745798e+05
   6.314027e+05  -3.221759e+05
