
 $NMID
 id='ANONYMOUS ', fmtdat='(2E16.6)'
 volume=1.0
 tramp=1.0
 $END
   2.109413e+07   2.285860e+06
   1.188655e+07   1.229428e+07
  -2.645030e+06   1.313205e+07
  -9.829182e+06   6.425842e+06
  -6.515113e+06  -8.932902e+05
   4.899990e+05  -3.388022e+06
   3.803613e+06  -7.202156e+05
   2.034786e+06   3.395519e+06
  -1.627466e+06   4.629573e+06
  -3.747784e+06   1.593132e+06
  -2.934407e+06  -2.798965e+06
  -1.568039e+05  -4.031395e+06
   1.976763e+06  -8.463330e+05
   1.347680e+06   3.158962e+06
  -1.385323e+06   3.516625e+06
  -3.206756e+06  -1.657570e+05
  -1.932839e+06  -4.130179e+06
   1.496414e+06  -4.790007e+06
   4.158670e+06  -2.038459e+06
   4.059318e+06   1.486440e+06
   1.723645e+06   3.249521e+06
  -5.452946e+05   2.734733e+06
  -7.873603e+05   1.396272e+06
   7.160975e+05   1.089723e+06
   1.535942e+06   2.153002e+06
  -2.963547e+05   2.982217e+06
  -3.653036e+06   1.910057e+06
  -5.126997e+06  -6.489654e+05
  -2.914017e+06  -2.547381e+06
   9.137214e+05  -2.316110e+06
   2.710968e+06  -5.428628e+05
   1.255485e+06   1.098234e+06
  -1.368135e+06   1.387275e+06
  -2.476708e+06   1.307144e+05
  -1.423712e+06  -1.789262e+06
   4.110758e+05  -2.673491e+06
   1.356215e+06  -1.392076e+06
   8.687831e+05   9.298542e+05
  -2.235935e+05   1.647472e+06
  -5.754406e+05  -1.479478e+05
   2.977156e+05  -2.078293e+06
   1.368979e+06  -1.408299e+06
   1.152818e+06   1.168139e+06
  -4.860828e+05   2.274947e+06
  -1.945537e+06   2.987152e+05
  -1.531674e+06  -2.527268e+06
   7.160961e+05  -3.010295e+06
   2.982373e+06  -7.219678e+05
   3.304279e+06   1.989726e+06
   1.273862e+06   2.857194e+06
  -1.546078e+06   1.631222e+06
  -2.847680e+06  -3.288377e+05
  -1.629649e+06  -1.450167e+06
   7.580643e+05  -1.049735e+06
   1.920814e+06   2.298934e+05
   9.532045e+05   1.005038e+06
  -6.784701e+05   5.565638e+05
  -1.015434e+06  -4.058889e+05
   7.737592e+04  -6.763390e+05
   9.696581e+05  -1.629272e+04
   3.858322e+05   7.278896e+05
  -1.138861e+06   7.298883e+05
  -1.961959e+06  -1.161509e+05
  -1.052117e+06  -1.389839e+06
   1.100642e+06  -2.372594e+06
   2.957865e+06  -2.166202e+06
   3.203689e+06  -4.009542e+05
   1.829005e+06   1.939002e+06
   1.026902e+05   3.105153e+06
  -6.872708e+05   2.436810e+06
  -4.928253e+05   1.117037e+06
  -3.272710e+05   6.191263e+05
  -8.906902e+05   8.715765e+05
  -1.732978e+06   6.223261e+05
  -1.881883e+06  -6.247636e+05
  -9.676017e+05  -1.811612e+06
   4.533006e+05  -1.617730e+06
   1.410592e+06  -4.315003e+04
   1.185156e+06   1.570579e+06
  -1.859399e+05   1.862831e+06
  -1.741559e+06   6.360386e+05
  -2.203209e+06  -1.088393e+06
  -1.182794e+06  -2.030233e+06
   3.188627e+05  -1.757509e+06
   1.005577e+06  -9.376060e+05
   7.962440e+05  -4.848225e+05
   7.810111e+05  -5.443961e+05
   1.619585e+06  -4.628704e+05
   2.502555e+06   3.174947e+05
   2.065753e+06   1.569699e+06
   9.911659e+04   2.482592e+06
  -2.035927e+06   2.347283e+06
  -2.711846e+06   1.091600e+06
  -1.586463e+06  -5.684520e+05
   1.461107e+05  -1.498328e+06
   9.391954e+05  -1.061859e+06
   3.243455e+05   1.374294e+05
  -7.705140e+05   7.504688e+05
  -1.095638e+06   1.777389e+05
  -4.001857e+05  -7.109951e+05
   4.220359e+05  -6.966707e+05
   4.347614e+05   1.849552e+05
  -3.318625e+05   6.636432e+05
  -1.027035e+06  -1.417529e+05
  -8.817390e+05  -1.594319e+06
   1.732847e+05  -2.240875e+06
   1.532168e+06  -1.361185e+06
   2.298480e+06   3.933352e+05
   1.854447e+06   1.718553e+06
   4.408955e+05   1.811610e+06
  -8.524857e+05   9.391551e+05
  -1.043187e+06   7.573698e+04
  -3.043891e+05  -3.127818e+04
   2.239796e+05   4.579298e+05
  -2.018160e+05   7.395314e+05
  -1.038048e+06   3.181934e+05
  -1.162186e+06  -4.367993e+05
  -2.822717e+05  -7.639397e+05
   6.844091e+05  -3.833379e+05
   6.530775e+05   2.550296e+05
  -4.216535e+05   4.889609e+05
  -1.466765e+06   4.246619e+04
  -1.350923e+06  -7.961301e+05
  -1.023306e+04  -1.383299e+06
   1.438424e+06  -1.169920e+06
   1.739877e+06  -2.123392e+05
   7.234931e+05   7.222058e+05
  -5.394709e+05   8.109705e+05
  -8.428994e+05   6.623259e+04
  -4.261044e+04  -6.106429e+05
   9.170642e+05  -4.209199e+05
   1.060939e+06   4.263461e+05
   3.134222e+05   9.911541e+05
  -5.671946e+05   7.003887e+05
  -7.898241e+05  -5.293484e+04
  -2.448306e+05  -4.234902e+05
   4.242679e+05  -4.422064e+04
   4.214346e+05   6.396264e+05
  -3.936855e+05   8.635896e+05
  -1.260765e+06   2.897306e+05
  -1.236174e+06  -6.803865e+05
  -2.259479e+05  -1.264593e+06
   8.514507e+05  -1.002195e+06
   1.041398e+06  -1.666646e+05
   3.497066e+05   5.068947e+05
  -3.806201e+05   5.214589e+05
  -4.587311e+05   4.732097e+04
   2.859403e+03  -3.336084e+05
   3.826418e+05  -2.642278e+05
   2.719432e+05   4.556528e+04
  -1.555598e+05   1.037744e+05
  -3.590711e+05  -2.737280e+05
   3.564148e+04  -6.982801e+05
   8.175204e+05  -5.756940e+05
   1.286366e+06   2.406891e+05
   8.974356e+05   1.201082e+06
  -1.378441e+05   1.529707e+06
  -1.009786e+06   9.649110e+05
  -1.129216e+06  -1.467290e+02
  -6.767969e+05  -6.203553e+05
  -2.675362e+05  -5.994766e+05
  -2.103861e+05  -2.757428e+05
  -2.579539e+05  -1.667183e+05
  -2.719100e+04  -3.948797e+05
   4.997603e+05  -5.778554e+05
   9.163501e+05  -2.758481e+05
   7.519472e+05   4.579838e+05
  -7.800606e+04   1.006791e+06
  -1.073941e+06   7.475871e+05
  -1.442073e+06  -2.743300e+05
  -7.647157e+05  -1.280586e+06
   5.360655e+05  -1.452505e+06
   1.502394e+06  -6.994088e+05
   1.498422e+06   3.010230e+05
   7.407267e+05   8.095585e+05
  -3.160903e+04   7.035551e+05
  -3.152436e+05   4.466523e+05
  -2.142843e+05   4.784784e+05
  -1.615882e+05   7.257595e+05
  -4.039781e+05   7.221314e+05
  -7.596281e+05   1.633802e+05
  -8.090467e+05  -6.916478e+05
  -3.298530e+05  -1.192817e+06
   4.073554e+05  -8.979224e+05
   8.106760e+05  -1.755577e+04
   5.261399e+05   7.511149e+05
  -1.699056e+05   8.513000e+05
  -6.229266e+05   3.304918e+05
  -4.736387e+05  -2.957871e+05
  -8.283817e+03  -5.772463e+05
   2.096514e+05  -4.867725e+05
  -3.520626e+03  -3.025629e+05
  -2.503825e+05  -2.408286e+05
  -2.339909e+04  -2.526547e+05
   6.712175e+05  -1.393533e+05
   1.222562e+06   1.938491e+05
   1.000240e+06   6.078766e+05
   4.108390e+04   8.271949e+05
  -9.083716e+05   6.697229e+05
  -1.103428e+06   2.200845e+05
  -5.332421e+05  -2.045116e+05
   1.301314e+05  -3.010199e+05
   2.860154e+05  -5.807496e+04
  -2.137361e+04   2.055769e+05
  -3.121361e+05   1.459036e+05
  -2.872951e+05  -2.187594e+05
  -8.360169e+04  -4.842895e+05
   1.169697e+04  -3.146360e+05
  -8.703604e+04   1.121490e+05
  -2.245658e+05   2.551955e+05
  -1.859785e+05  -1.348848e+05
   1.238072e+05  -6.476668e+05
   5.639719e+05  -6.501520e+05
   7.722341e+05  -4.376288e+04
   4.429751e+05   5.902124e+05
  -2.736577e+05   6.416473e+05
  -7.477199e+05   1.275540e+05
  -4.486744e+05  -3.870256e+05
   4.200893e+05  -4.160248e+05
   1.021836e+06   1.812140e+04
   7.246501e+05   5.099488e+05
  -2.241746e+05   6.705231e+05
  -9.469939e+05   4.043718e+05
  -8.335380e+05  -5.851748e+04
  -1.239106e+05  -3.356592e+05
   3.952963e+05  -2.015471e+05
   2.135991e+05   1.665548e+05
  -4.094239e+05   2.955701e+05
  -7.446394e+05  -1.115738e+05
  -3.548297e+05  -7.839116e+05
   4.614641e+05  -1.052389e+06
   9.840188e+05  -5.064420e+05
   7.890383e+05   5.131201e+05
   1.110588e+05   1.152609e+06
  -4.711583e+05   8.547245e+05
  -5.928847e+05  -6.921442e+04
  -3.146959e+05  -7.450020e+05
   7.915825e+04  -6.398142e+05
   3.358518e+05  -7.417400e+04
   3.392911e+05   2.457676e+05
   1.534285e+05   9.695103e+04
   1.083928e+04  -7.249091e+04
   1.029459e+05   1.654374e+05
   2.911803e+05   6.051510e+05
   1.754636e+05   6.882440e+05
  -3.878716e+05   2.487930e+05
  -9.443358e+05  -3.025067e+05
  -8.634564e+05  -5.293751e+05
  -1.194750e+05  -4.318400e+05
   5.915304e+05  -2.633297e+05
   6.409603e+05  -1.315113e+05
   1.852463e+05   1.305054e+04
  -1.127500e+05   1.399079e+05
   3.513876e+04   1.492969e+05
   2.307709e+05   8.465576e+04
   9.281919e+03   9.206949e+04
  -4.872110e+05   1.318209e+05
  -6.593311e+05  -3.492591e+04
  -1.823733e+05  -4.459034e+05
   6.043557e+05  -7.126551e+05
   1.052448e+06  -4.156395e+05
   8.249155e+05   3.299418e+05
   1.399367e+05   9.075491e+05
  -4.873683e+05   8.437483e+05
  -6.755769e+05   2.926930e+05
  -4.265602e+05  -1.838941e+05
  -5.711955e+04  -2.315928e+05
   9.868908e+04  -1.604668e+04
  -2.781928e+04   4.483798e+04
  -2.103156e+05  -2.154015e+05
  -1.708875e+05  -5.114708e+05
   1.339376e+05  -4.189562e+05
   4.474303e+05   1.189994e+05
   4.320162e+05   6.522849e+05
   2.351761e+03   6.587705e+05
  -5.200494e+05   1.033420e+05
  -6.388032e+05  -5.179739e+05
  -1.744629e+05  -6.972447e+05
   4.740933e+05  -3.848867e+05
   6.853548e+05   7.863012e+04
   2.954331e+05   3.638715e+05
  -1.934265e+05   3.797690e+05
  -2.045572e+05   2.113829e+05
   2.054643e+05   1.887578e+04
   4.256360e+05  -1.232354e+04
   7.215888e+04   1.904851e+05
  -5.298497e+05   4.276437e+05
  -7.593139e+05   3.568097e+05
  -4.294166e+05  -9.219302e+04
   7.799511e+04  -5.323317e+05
   3.225315e+05  -5.111623e+05
   2.313467e+05  -5.724428e+04
   7.492129e+03   3.272105e+05
  -1.693007e+05   2.499818e+05
  -2.308300e+05  -1.374644e+05
  -1.482542e+05  -3.716593e+05
   5.557198e+04  -2.348575e+05
   2.485985e+05   5.113915e+04
   2.792314e+05   1.574551e+05
   1.479162e+05   3.851085e+04
   5.893937e+03  -6.709305e+04
  -4.027399e+04   3.763465e+04
  -4.887307e+04   2.599786e+05
  -1.259780e+05   3.168598e+05
  -2.429881e+05   6.468687e+04
  -2.400195e+05  -3.035473e+05
  -2.048074e+04  -4.312028e+05
   2.868068e+05  -1.778826e+05
   3.954025e+05   2.169531e+05
   1.359480e+05   3.868038e+05
  -3.151821e+05   2.175797e+05
  -5.379310e+05  -8.115612e+04
  -2.872545e+05  -2.485887e+05
   1.965582e+05  -2.197710e+05
   4.036051e+05  -9.741827e+04
   1.283227e+05   3.423313e+03
  -2.705292e+05   1.387772e+04
  -2.828758e+05  -8.787594e+04
   1.420945e+05  -2.158203e+05
   5.348394e+05  -1.713447e+05
