
 $NMID
 id='ANONYMOUS ', fmtdat='(2E16.6)'
 volume=1.0
 tramp=1.0
 $END
   2.511779e+07   4.252889e+05
   1.680789e+07   1.146403e+07
   2.257439e+05   1.569564e+07
  -1.073823e+07   1.103662e+07
  -9.386724e+06   1.630958e+06
  -8.501650e+05  -4.574765e+06
   5.227580e+06  -2.697796e+06
   4.249366e+06   4.004566e+06
  -9.681002e+05   7.397521e+06
  -4.816349e+06   3.437273e+06
  -4.236704e+06  -3.408912e+06
  -4.954891e+05  -5.575924e+06
   2.594860e+06  -1.061189e+06
   2.080422e+06   4.769140e+06
  -1.475111e+06   5.563637e+06
  -4.364604e+06   6.335277e+05
  -3.305019e+06  -5.072904e+06
   1.115129e+06  -6.468006e+06
   4.932215e+06  -3.001611e+06
   4.927068e+06   1.641260e+06
   1.877037e+06   3.642361e+06
  -5.650501e+05   2.603780e+06
   3.732634e+04   1.256317e+06
   2.310028e+06   1.985550e+06
   2.628385e+06   4.090571e+06
  -8.197699e+05   4.771435e+06
  -5.656805e+06   2.498800e+06
  -7.330792e+06  -1.236111e+06
  -3.846811e+06  -3.541769e+06
   1.732803e+06  -2.896297e+06
   4.161150e+06  -1.989231e+05
   1.499125e+06   2.225604e+06
  -2.930069e+06   2.323448e+06
  -4.426229e+06  -2.058676e+05
  -2.008347e+06  -3.334760e+06
   1.171187e+06  -4.102387e+06
   1.967318e+06  -1.595215e+06
   5.077248e+05   1.584224e+06
  -8.427390e+05   1.881099e+06
  -5.431069e+05  -9.818642e+05
   9.053674e+05  -3.419222e+06
   2.063530e+06  -2.261702e+06
   1.886168e+06   1.288258e+06
   2.758638e+05   3.082673e+06
  -1.686630e+06   1.037514e+06
  -2.092533e+06  -2.507552e+06
   1.499125e+05  -3.659572e+06
   3.577708e+06  -1.236674e+06
   4.913212e+06   2.387561e+06
   2.367779e+06   4.060307e+06
  -2.083111e+06   2.749296e+06
  -4.464290e+06  -3.585797e+04
  -2.876231e+06  -1.940798e+06
   6.882562e+05  -1.738702e+06
   2.666601e+06  -1.181568e+05
   1.596775e+06   1.138165e+06
  -7.619739e+05   8.543417e+05
  -1.648470e+06  -4.878955e+05
  -2.569089e+05  -1.361870e+06
   1.568814e+06  -8.083925e+05
   1.471397e+06   6.243099e+05
  -7.149959e+05   1.450051e+06
  -2.605200e+06   6.251375e+05
  -1.789909e+06  -1.489191e+06
   1.445948e+06  -3.268281e+06
   4.321752e+06  -3.018513e+06
   4.496609e+06  -4.722944e+05
   2.352814e+06   2.728358e+06
   1.405381e+05   4.361989e+06
  -6.612328e+05   3.715615e+06
  -5.680897e+05   2.144998e+06
  -8.830135e+05   1.319579e+06
  -1.969676e+06   1.230827e+06
  -2.965526e+06   4.963056e+05
  -2.797335e+06  -1.427991e+06
  -1.192649e+06  -3.084485e+06
   1.038489e+06  -2.563124e+06
   2.435345e+06   9.860493e+04
   1.872884e+06   2.657714e+06
  -3.899503e+05   2.901619e+06
  -2.631702e+06   7.983372e+05
  -3.063003e+06  -1.713837e+06
  -1.527866e+06  -2.780748e+06
   3.885058e+05  -2.214662e+06
   1.133045e+06  -1.201817e+06
   8.684131e+05  -8.259878e+05
   1.070897e+06  -1.034172e+06
   2.482571e+06  -8.912097e+05
   3.878674e+06   3.392045e+05
   3.253113e+06   2.346318e+06
   2.099984e+05   3.866829e+06
  -3.185898e+06   3.651910e+06
  -4.254916e+06   1.578627e+06
  -2.374050e+06  -1.026830e+06
   4.220648e+05  -2.320152e+06
   1.565664e+06  -1.528452e+06
   4.661178e+05   2.632453e+05
  -1.233316e+06   1.125965e+06
  -1.652395e+06   2.857288e+05
  -5.588196e+05  -1.039491e+06
   7.098685e+05  -1.078375e+06
   7.980616e+05   3.006760e+05
  -4.002000e+05   1.276772e+06
  -1.748165e+06   1.908596e+05
  -1.842295e+06  -2.336432e+06
  -1.565497e+05  -3.851481e+06
   2.379707e+06  -2.653599e+06
   3.913536e+06   4.027129e+05
   3.175576e+06   2.832507e+06
   7.368476e+05   3.001836e+06
  -1.389353e+06   1.474837e+06
  -1.657053e+06   7.220724e+04
  -4.788574e+05  -4.810367e+04
   3.619429e+05   7.107908e+05
  -2.453982e+05   1.129546e+06
  -1.531389e+06   5.383089e+05
  -1.814875e+06  -5.729972e+05
  -5.205363e+05  -1.145352e+06
   1.049888e+06  -6.446248e+05
   1.094142e+06   4.027609e+05
  -6.465466e+05   8.945477e+05
  -2.439915e+06   1.806792e+05
  -2.294540e+06  -1.295028e+06
  -7.270435e+04  -2.314773e+06
   2.296478e+06  -1.932701e+06
   2.757747e+06  -3.714510e+05
   1.150748e+06   1.081676e+06
  -7.803430e+05   1.224979e+06
  -1.238383e+06   1.282230e+05
  -5.082355e+04  -8.977914e+05
   1.408167e+06  -6.613026e+05
   1.689140e+06   6.199582e+05
   5.778668e+05   1.568415e+06
  -8.483756e+05   1.200547e+06
  -1.294403e+06   8.177405e+03
  -4.681410e+05  -6.546920e+05
   6.222969e+05  -1.048971e+05
   6.496170e+05   9.742870e+05
  -6.212923e+05   1.331210e+06
  -1.965843e+06   4.346311e+05
  -1.921782e+06  -1.061831e+06
  -3.699926e+05  -1.965985e+06
   1.296051e+06  -1.589315e+06
   1.631785e+06  -3.065877e+05
   5.930231e+05   7.861045e+05
  -5.792710e+05   8.490911e+05
  -7.578411e+05   6.312611e+04
  -7.970938e+03  -6.057875e+05
   6.815660e+05  -4.701527e+05
   5.353784e+05   1.323536e+05
  -2.214135e+05   2.869189e+05
  -6.315896e+05  -3.583413e+05
  -1.388850e+04  -1.103466e+06
   1.261487e+06  -9.343704e+05
   2.022942e+06   3.546102e+05
   1.415144e+06   1.870082e+06
  -2.120010e+05   2.419510e+06
  -1.609996e+06   1.576450e+06
  -1.847889e+06   3.022404e+04
  -1.134420e+06  -1.054530e+06
  -4.046272e+05  -1.078168e+06
  -2.373334e+05  -4.863447e+05
  -3.371669e+05  -2.021911e+05
  -5.135841e+04  -5.647132e+05
   7.631783e+05  -9.350933e+05
   1.470872e+06  -4.746441e+05
   1.237275e+06   7.537395e+05
  -1.039973e+05   1.664581e+06
  -1.709460e+06   1.227051e+06
  -2.301617e+06  -4.183556e+05
  -1.256386e+06  -2.008630e+06
   7.679014e+05  -2.305400e+06
   2.326622e+06  -1.173399e+06
   2.415486e+06   4.058648e+05
   1.266470e+06   1.299057e+06
  -2.320016e+04   1.205171e+06
  -5.761605e+05   7.571668e+05
  -4.329363e+05   7.067681e+05
  -2.764035e+05   1.060613e+06
  -5.952618e+05   1.097170e+06
  -1.154881e+06   2.580467e+05
  -1.258138e+06  -1.083699e+06
  -5.154048e+05  -1.874653e+06
   6.446862e+05  -1.411003e+06
   1.286060e+06  -4.378539e+04
   8.614211e+05   1.153684e+06
  -2.101968e+05   1.352920e+06
  -9.413111e+05   6.039114e+05
  -7.725218e+05  -3.688375e+05
  -9.788484e+04  -8.796092e+05
   2.508766e+05  -8.064140e+05
  -2.841894e+04  -5.202152e+05
  -3.732276e+05  -3.908124e+05
  -2.456996e+04  -4.014550e+05
   1.031199e+06  -2.423485e+05
   1.889963e+06   2.687912e+05
   1.584945e+06   9.225867e+05
   1.320162e+05   1.279793e+06
  -1.360101e+06   1.061843e+06
  -1.726035e+06   3.965209e+05
  -8.820180e+05  -2.587327e+05
   1.659501e+05  -4.525202e+05
   4.416190e+05  -1.258769e+05
  -3.976191e+04   2.773044e+05
  -5.089007e+05   2.111441e+05
  -4.444218e+05  -3.425229e+05
  -7.812981e+04  -7.589103e+05
   6.495961e+04  -4.821159e+05
  -1.548350e+05   2.082021e+05
  -4.050414e+05   4.297228e+05
  -3.026706e+05  -2.101752e+05
   2.250209e+05  -1.026625e+06
   8.795891e+05  -1.013852e+06
   1.143739e+06  -5.715613e+04
   6.384067e+05   9.087447e+05
  -4.131192e+05   9.628187e+05
  -1.125618e+06   1.654055e+05
  -6.929785e+05  -6.218818e+05
   6.513333e+05  -6.706647e+05
   1.641615e+06   6.077059e+03
   1.213537e+06   8.122101e+05
  -3.179735e+05   1.115854e+06
  -1.529964e+06   7.047900e+05
  -1.371933e+06  -6.956080e+04
  -2.177261e+05  -5.498044e+05
   6.246817e+05  -3.448627e+05
   3.260843e+05   2.399618e+05
  -6.590618e+05   4.325314e+05
  -1.153936e+06  -2.116788e+05
  -5.053217e+05  -1.237996e+06
   7.758892e+05  -1.618495e+06
   1.565775e+06  -7.520460e+05
   1.233100e+06   8.302033e+05
   1.595737e+05   1.828544e+06
  -7.575269e+05   1.374013e+06
  -9.565171e+05  -8.350047e+04
  -5.289638e+05  -1.185092e+06
   9.364187e+04  -1.048860e+06
   5.242028e+05  -1.382505e+05
   5.630071e+05   4.073433e+05
   2.720490e+05   1.763877e+05
   8.031623e+03  -1.300207e+05
   1.215225e+05   2.207189e+05
   4.432010e+05   9.403793e+05
   3.135200e+05   1.110659e+06
  -5.692766e+05   4.163130e+05
  -1.497703e+06  -4.857351e+05
  -1.401370e+06  -8.542584e+05
  -1.943916e+05  -6.763940e+05
   9.687495e+05  -3.968612e+05
   1.030795e+06  -2.130034e+05
   2.710169e+05  -8.998828e+03
  -1.908831e+05   2.121925e+05
   8.762376e+04   2.708218e+05
   3.979615e+05   1.736827e+05
  -4.227545e+03   1.416306e+05
  -8.097429e+05   1.705260e+05
  -1.028323e+06  -7.262880e+04
  -2.218602e+05  -6.750157e+05
   9.914319e+05  -1.076095e+06
   1.621862e+06  -6.216512e+05
   1.233498e+06   5.350494e+05
   1.902092e+05   1.432464e+06
  -7.606853e+05   1.312277e+06
  -1.055833e+06   4.235042e+05
  -6.668818e+05  -3.207226e+05
  -6.862848e+04  -3.577601e+05
   1.838665e+05   1.421797e+04
  -4.046036e+04   1.040169e+05
  -3.528877e+05  -3.353189e+05
  -2.803993e+05  -8.124248e+05
   2.211304e+05  -6.453571e+05
   7.007677e+05   2.243727e+05
   6.363298e+05   1.051323e+06
  -4.995268e+04   1.016062e+06
  -8.311673e+05   1.067712e+05
  -9.714560e+05  -8.567749e+05
  -2.379771e+05  -1.087929e+06
   7.477715e+05  -5.656488e+05
   1.052270e+06   1.388009e+05
   4.451281e+05   5.404704e+05
  -2.942709e+05   5.577266e+05
  -2.877572e+05   3.318348e+05
   3.553328e+05   5.964871e+04
   6.773712e+05  -3.599629e+03
   1.001685e+05   2.892051e+05
  -8.412557e+05   6.702892e+05
  -1.177061e+06   5.892103e+05
  -6.469545e+05  -1.094417e+05
   1.287252e+05  -8.202125e+05
   4.771352e+05  -7.948950e+05
   3.186011e+05  -7.197970e+04
  -1.817095e+04   5.234837e+05
  -2.704853e+05   3.678142e+05
  -3.518387e+05  -2.537477e+05
  -2.214462e+05  -5.862391e+05
   8.997389e+04  -3.348161e+05
   3.836640e+05   9.854134e+04
   4.326089e+05   2.246802e+05
   2.386305e+05   4.190044e+04
   1.850559e+04  -7.339520e+04
  -8.150322e+04   1.131009e+05
  -1.348237e+05   4.139699e+05
  -2.571572e+05   4.371576e+05
  -3.839393e+05   2.927153e+04
  -3.141792e+05  -5.064482e+05
   3.675741e+04  -6.636421e+05
   4.655125e+05  -2.521232e+05
   5.875094e+05   3.629749e+05
   1.848341e+05   6.181254e+05
  -4.873159e+05   3.346301e+05
  -8.186492e+05  -1.456779e+05
  -4.365920e+05  -3.931924e+05
   3.043122e+05  -3.164466e+05
   6.165090e+05  -1.177966e+05
   1.733466e+05   4.331743e+03
  -4.534510e+05  -2.256185e+04
  -4.450940e+05  -1.858671e+05
   2.650465e+05  -3.491903e+05
   8.931304e+05  -2.416408e+05
