
 $NMID
 id='ANONYMOUS ', fmtdat='(2E16.6)'
 volume=1.0
 tramp=1.0
 $END
   3.660084e+07  -7.084404e+04
   2.350310e+07   1.973485e+07
  -2.162422e+06   2.403848e+07
  -1.690262e+07   1.278797e+07
  -1.226384e+07  -1.287238e+06
   5.290367e+05  -6.430442e+06
   7.057444e+06  -1.442214e+06
   3.917280e+06   6.175971e+06
  -2.840701e+06   8.348805e+06
  -6.676350e+06   3.070720e+06
  -5.325661e+06  -4.452822e+06
  -6.274532e+05  -6.768753e+06
   3.125706e+06  -1.677688e+06
   2.298012e+06   5.130949e+06
  -2.338148e+06   6.076254e+06
  -5.736883e+06  -8.940569e+03
  -3.835107e+06  -6.993508e+06
   2.028157e+06  -8.523782e+06
   6.827649e+06  -4.140681e+06
   7.091235e+06   1.758175e+06
   3.616732e+06   4.999872e+06
  -5.075140e+04   4.746012e+06
  -9.108434e+05   3.013701e+06
   9.134049e+05   2.378390e+06
   2.094532e+06   3.568951e+06
  -5.156749e+05   4.656650e+06
  -5.695109e+06   3.171790e+06
  -8.284913e+06  -6.797445e+05
  -5.040141e+06  -3.807782e+06
   1.068560e+06  -3.674022e+06
   4.070612e+06  -9.895441e+05
   1.818047e+06   1.495772e+06
  -2.239656e+06   1.834197e+06
  -3.776823e+06  -4.387224e+04
  -2.061810e+06  -2.770040e+06
   5.887609e+05  -4.102759e+06
   1.930999e+06  -2.402236e+06
   1.428523e+06   1.063300e+06
   4.201496e+04   2.485469e+06
  -5.758046e+05   4.561001e+03
   5.393339e+05  -3.141229e+06
   2.271577e+06  -2.324667e+06
   2.154475e+06   1.989692e+06
  -6.259397e+05   4.275272e+06
  -3.568604e+06   1.140122e+06
  -3.259956e+06  -4.069163e+06
   7.058259e+05  -5.477144e+06
   4.995630e+06  -1.720922e+06
   5.766421e+06   3.168940e+06
   2.249710e+06   4.880276e+06
  -2.645891e+06   2.815846e+06
  -4.884361e+06  -5.786247e+05
  -2.805846e+06  -2.563046e+06
   1.314282e+06  -1.970273e+06
   3.403807e+06   2.292215e+05
   1.780773e+06   1.725951e+06
  -1.112180e+06   1.067823e+06
  -1.729500e+06  -7.009277e+05
   3.053219e+05  -1.275890e+06
   1.980870e+06   5.699455e+04
   8.327237e+05   1.671169e+06
  -2.096090e+06   1.712648e+06
  -3.651874e+06  -1.821022e+04
  -2.053582e+06  -2.397162e+06
   1.598004e+06  -4.041117e+06
   4.664216e+06  -3.707314e+06
   5.183789e+06  -9.214083e+05
   3.174187e+06   2.926898e+06
   4.206042e+05   5.091878e+06
  -1.108179e+06   4.196922e+06
  -1.034775e+06   1.897608e+06
  -6.971784e+05   7.863037e+05
  -1.341313e+06   1.122109e+06
  -2.550285e+06   9.103316e+05
  -2.835629e+06  -9.076104e+05
  -1.469977e+06  -2.760518e+06
   7.244714e+05  -2.460014e+06
   2.188975e+06   3.119513e+04
   1.824593e+06   2.547408e+06
  -2.865948e+05   2.982908e+06
  -2.741144e+06   1.099845e+06
  -3.612909e+06  -1.576576e+06
  -2.154557e+06  -3.177394e+06
   2.568781e+05  -2.965751e+06
   1.543270e+06  -1.774474e+06
   1.368411e+06  -9.753542e+05
   1.381591e+06  -9.452782e+05
   2.727337e+06  -7.596805e+05
   4.156076e+06   5.205209e+05
   3.413268e+06   2.582710e+06
   1.594607e+05   4.070550e+06
  -3.309987e+06   3.815329e+06
  -4.350512e+06   1.775622e+06
  -2.520849e+06  -8.583315e+05
   2.102094e+05  -2.339895e+06
   1.452630e+06  -1.692798e+06
   5.077237e+05   1.930781e+05
  -1.224043e+06   1.210071e+06
  -1.790613e+06   3.244406e+05
  -6.972267e+05  -1.126187e+06
   6.716865e+05  -1.112936e+06
   6.903545e+05   3.547680e+05
  -6.688508e+05   1.118712e+06
  -1.866511e+06  -3.380225e+05
  -1.474028e+06  -2.847720e+06
   4.984511e+05  -3.840618e+06
   2.768929e+06  -2.178500e+06
   3.827469e+06   8.290001e+05
   2.921010e+06   2.933987e+06
   6.232272e+05   2.961612e+06
  -1.390409e+06   1.498434e+06
  -1.675037e+06   1.131595e+05
  -4.974169e+05  -5.289925e+04
   3.658160e+05   7.499559e+05
  -3.188372e+05   1.239691e+06
  -1.715403e+06   5.620809e+05
  -1.948066e+06  -7.150599e+05
  -4.823873e+05  -1.284326e+06
   1.132447e+06  -6.306062e+05
   1.050823e+06   4.475857e+05
  -7.535146e+05   7.847087e+05
  -2.430133e+06  -2.123832e+04
  -2.153906e+06  -1.387218e+06
   6.869908e+04  -2.266491e+06
   2.392092e+06  -1.868699e+06
   2.850787e+06  -3.218478e+05
   1.202459e+06   1.189684e+06
  -8.597287e+05   1.356934e+06
  -1.391478e+06   1.489259e+05
  -1.019042e+05  -9.883794e+05
   1.494294e+06  -6.976825e+05
   1.747829e+06   7.123067e+05
   4.950209e+05   1.656116e+06
  -9.778762e+05   1.152297e+06
  -1.326300e+06  -1.206931e+05
  -3.979372e+05  -7.294136e+05
   7.062486e+05  -8.783248e+04
   6.936423e+05   1.036391e+06
  -6.335036e+05   1.398568e+06
  -2.041952e+06   4.700967e+05
  -2.011154e+06  -1.104777e+06
  -3.701919e+05  -2.067978e+06
   1.401371e+06  -1.647463e+06
   1.720313e+06  -2.670645e+05
   5.720715e+05   8.476001e+05
  -6.346940e+05   8.543904e+05
  -7.360187e+05   6.051284e+04
   4.792715e+04  -5.373397e+05
   6.420240e+05  -3.792674e+05
   3.987106e+05   1.246081e+05
  -3.199227e+05   1.652160e+05
  -6.113593e+05  -4.912679e+05
   7.484805e+04  -1.171053e+06
   1.352705e+06  -9.385511e+05
   2.102807e+06   4.045597e+05
   1.459941e+06   1.965048e+06
  -2.424011e+05   2.490723e+06
  -1.677943e+06   1.548969e+06
  -1.848704e+06  -4.628691e+04
  -1.054351e+06  -1.044433e+06
  -3.664964e+05  -9.605056e+05
  -3.220721e+05  -4.011434e+05
  -4.530061e+05  -2.461852e+05
  -6.578014e+04  -6.538343e+05
   8.365554e+05  -9.452799e+05
   1.513476e+06  -4.197181e+05
   1.197652e+06   7.797525e+05
  -1.799888e+05   1.640926e+06
  -1.779213e+06   1.191362e+06
  -2.347964e+06  -4.770088e+05
  -1.232203e+06  -2.116075e+06
   8.994786e+05  -2.393934e+06
   2.488790e+06  -1.139079e+06
   2.465204e+06   5.344959e+05
   1.179390e+06   1.370230e+06
  -1.069957e+05   1.149579e+06
  -5.367630e+05   6.805127e+05
  -3.217491e+05   7.340602e+05
  -2.263442e+05   1.176565e+06
  -6.469159e+05   1.196002e+06
  -1.241393e+06   2.801423e+05
  -1.315044e+06  -1.124677e+06
  -5.294761e+05  -1.941853e+06
   6.678130e+05  -1.456584e+06
   1.325668e+06  -1.654420e+04
   8.611339e+05   1.244550e+06
  -2.941603e+05   1.410733e+06
  -1.059968e+06   5.448500e+05
  -8.126843e+05  -5.066406e+05
  -1.545972e+04  -9.829025e+05
   3.709961e+05  -8.248179e+05
   1.919937e+04  -4.999805e+05
  -4.018061e+05  -3.843762e+05
  -3.431446e+04  -4.062085e+05
   1.107917e+06  -2.305948e+05
   2.008757e+06   3.138332e+05
   1.638025e+06   1.005764e+06
   6.496002e+04   1.379648e+06
  -1.493110e+06   1.114863e+06
  -1.822441e+06   3.510220e+05
  -8.928467e+05  -3.622214e+05
   2.077588e+05  -5.093643e+05
   4.835685e+05  -9.299114e+04
  -1.457668e+04   3.369354e+05
  -5.005705e+05   2.291280e+05
  -4.684644e+05  -3.556816e+05
  -1.383330e+05  -7.653037e+05
   1.120376e+04  -4.916016e+05
  -1.570172e+05   1.703939e+05
  -3.767026e+05   3.852932e+05
  -3.000091e+05  -2.277763e+05
   2.101797e+05  -1.038410e+06
   9.206652e+05  -1.056377e+06
   1.257422e+06  -9.783338e+04
   7.299012e+05   9.389443e+05
  -4.306599e+05   1.054271e+06
  -1.206617e+06   2.282168e+05
  -7.227497e+05  -6.270277e+05
   6.962268e+05  -6.776337e+05
   1.672246e+06   5.577677e+04
   1.165053e+06   8.707264e+05
  -4.028254e+05   1.101704e+06
  -1.574665e+06   6.258986e+05
  -1.362050e+06  -1.327112e+05
  -1.868907e+05  -5.563370e+05
   6.574674e+05  -3.214207e+05
   3.572393e+05   2.694055e+05
  -6.520473e+05   4.730957e+05
  -1.195426e+06  -1.761989e+05
  -5.737365e+05  -1.253707e+06
   7.379096e+05  -1.689954e+06
   1.584196e+06  -8.128470e+05
   1.271337e+06   8.361052e+05
   1.660195e+05   1.869934e+06
  -7.865799e+05   1.378115e+06
  -9.746494e+05  -1.309558e+05
  -4.971068e+05  -1.230184e+06
   1.564447e+05  -1.051226e+06
   5.573744e+05  -1.176136e+05
   5.378020e+05   4.145884e+05
   2.350265e+05   1.708715e+05
   2.623153e+04  -1.210352e+05
   1.880212e+05   2.545843e+05
   4.762129e+05   9.814168e+05
   2.645358e+05   1.136891e+06
  -6.484344e+05   4.190761e+05
  -1.529911e+06  -5.046453e+05
  -1.388278e+06  -8.871058e+05
  -1.916590e+05  -7.076400e+05
   9.542957e+05  -4.079281e+05
   1.045751e+06  -1.979803e+05
   3.170874e+05   1.597599e+04
  -1.796420e+05   2.216866e+05
   3.651841e+04   2.557900e+05
   3.527053e+05   1.525847e+05
   1.690890e+04   1.411759e+05
  -7.735150e+05   1.934124e+05
  -1.065490e+06  -5.651327e+04
  -3.112129e+05  -6.994854e+05
   9.651559e+05  -1.140710e+06
   1.705010e+06  -6.870380e+05
   1.338901e+06   5.127870e+05
   2.208884e+05   1.464812e+06
  -7.941971e+05   1.373842e+06
  -1.085795e+06   4.770453e+05
  -6.783277e+05  -2.983754e+05
  -9.562848e+04  -3.679174e+05
   1.399883e+05  -1.519782e+04
  -6.153033e+04   7.133540e+04
  -3.402156e+05  -3.628926e+05
  -2.694406e+05  -8.383750e+05
   2.137284e+05  -6.770512e+05
   7.101051e+05   1.924543e+05
   6.903374e+05   1.042798e+06
   1.298817e+04   1.049473e+06
  -8.205472e+05   1.631666e+05
  -1.019731e+06  -8.292792e+05
  -2.858704e+05  -1.120740e+06
   7.565792e+05  -6.254639e+05
   1.110508e+06   1.204076e+05
   4.942696e+05   5.884791e+05
  -3.006175e+05   6.244727e+05
  -3.370310e+05   3.580058e+05
   3.182183e+05   4.468315e+04
   6.853110e+05  -1.417596e+04
   1.219028e+05   3.056426e+05
  -8.643443e+05   6.888574e+05
  -1.253630e+06   5.807549e+05
  -7.175665e+05  -1.433301e+05
   1.225861e+05  -8.650021e+05
   5.276343e+05  -8.446742e+05
   3.728611e+05  -1.138174e+05
   8.120885e+03   5.184162e+05
  -2.657172e+05   4.059899e+05
  -3.585141e+05  -2.173324e+05
  -2.387209e+05  -6.008553e+05
   7.614436e+04  -3.838286e+05
   3.966809e+05   8.016637e+04
   4.647240e+05   2.574269e+05
   2.487832e+05   6.827603e+04
  -5.499836e+03  -1.076145e+05
  -8.923870e+04   4.793520e+04
  -7.889275e+04   3.957103e+05
  -1.741482e+05   4.930665e+05
  -3.625810e+05   1.090040e+05
  -3.806495e+05  -4.643881e+05
  -4.267978e+04  -6.717907e+05
   4.544856e+05  -2.831258e+05
   6.350834e+05   3.387281e+05
   2.162119e+05   6.167213e+05
  -5.122329e+05   3.562850e+05
  -8.693077e+05  -1.221671e+05
  -4.661189e+05  -3.997680e+05
   3.085809e+05  -3.611516e+05
   6.431751e+05  -1.672165e+05
   2.120995e+05  -6.605689e+03
  -4.174830e+05   1.159008e+04
  -4.379537e+05  -1.410126e+05
   2.337681e+05  -3.302643e+05
   8.548069e+05  -2.534111e+05
