
 $NMID
 id='ANONYMOUS ', fmtdat='(2E16.6)'
 volume=1.0
 tramp=1.0
 $END
  -3.186314e+07  -1.308500e+05
  -1.986712e+07  -1.781421e+07
   2.621985e+06  -2.089915e+07
   1.480494e+07  -1.029170e+07
   1.013495e+07   1.791370e+06
  -8.433184e+05   5.445698e+06
  -5.912055e+06   8.005207e+05
  -2.942308e+06  -5.328286e+06
   2.637441e+06  -6.736677e+06
   5.654728e+06  -2.295123e+06
   4.475459e+06   3.797798e+06
   5.360569e+05   5.667071e+06
  -2.658753e+06   1.486819e+06
  -1.966991e+06  -4.142463e+06
   1.976485e+06  -4.911515e+06
   4.811545e+06   1.758138e+05
   3.121061e+06   5.966856e+06
  -1.847757e+06   7.179898e+06
  -5.878674e+06   3.493987e+06
  -6.153164e+06  -1.488882e+06
  -3.252978e+06  -4.385122e+06
   3.331584e+04  -4.336292e+06
   1.080143e+06  -2.734986e+06
  -3.787065e+05  -1.793007e+06
  -1.663298e+06  -2.567861e+06
   1.986744e+05  -3.695111e+06
   4.505410e+06  -2.818985e+06
   6.876482e+06   2.986078e+05
   4.356236e+06   3.101960e+06
  -6.846339e+05   3.221936e+06
  -3.281085e+06   1.099036e+06
  -1.645719e+06  -9.954799e+05
   1.502316e+06  -1.460950e+06
   2.838824e+06  -1.636781e+05
   1.751071e+06   2.006335e+06
  -2.437275e+05   3.310482e+06
  -1.553547e+06   2.133415e+06
  -1.435011e+06  -7.902373e+05
  -2.447365e+05  -2.217766e+06
   5.682588e+05  -2.629674e+05
  -2.283379e+05   2.464651e+06
  -1.793907e+06   1.881705e+06
  -1.741797e+06  -1.734147e+06
   7.422158e+05  -3.608380e+06
   3.278680e+06  -8.210475e+05
   2.815425e+06   3.651395e+06
  -7.424910e+05   4.748162e+06
  -4.309764e+06   1.461610e+06
  -4.771425e+06  -2.643540e+06
  -1.781806e+06  -3.994617e+06
   2.179159e+06  -2.248982e+06
   3.928341e+06   5.240506e+05
   2.186057e+06   2.120357e+06
  -1.194735e+06   1.591084e+06
  -2.858606e+06  -2.718271e+05
  -1.429081e+06  -1.507559e+06
   9.762479e+05  -8.966427e+05
   1.385012e+06   5.836946e+05
  -3.520782e+05   9.460848e+05
  -1.589918e+06  -2.628845e+05
  -4.309615e+05  -1.511654e+06
   1.990333e+06  -1.332422e+06
   3.079324e+06   2.004658e+05
   1.648222e+06   2.099014e+06
  -1.281973e+06   3.397154e+06
  -3.745461e+06   3.164902e+06
  -4.284135e+06   8.889417e+05
  -2.756914e+06  -2.370481e+06
  -4.403683e+05  -4.223717e+06
   9.476362e+05  -3.411133e+06
   8.683412e+05  -1.399253e+06
   4.230440e+05  -5.087769e+05
   8.510135e+05  -9.547678e+05
   1.925585e+06  -9.377467e+05
   2.330119e+06   5.145524e+05
   1.336797e+06   2.097386e+06
  -4.264638e+05   1.976971e+06
  -1.685013e+06   7.252856e+04
  -1.508257e+06  -1.942724e+06
   1.399874e+05  -2.401369e+06
   2.203526e+06  -9.994463e+05
   3.043950e+06   1.184816e+06
   1.887857e+06   2.623830e+06
  -1.817758e+05   2.546528e+06
  -1.337398e+06   1.532040e+06
  -1.193031e+06   7.824120e+05
  -1.132378e+06   7.237264e+05
  -2.179490e+06   6.107018e+05
  -3.341311e+06  -3.799611e+05
  -2.771299e+06  -2.029987e+06
  -1.930591e+05  -3.256589e+06
   2.565561e+06  -3.122428e+06
   3.437713e+06  -1.546419e+06
   2.070538e+06   5.936239e+05
  -5.809346e+04   1.884742e+06
  -1.102956e+06   1.426056e+06
  -4.308489e+05  -1.318482e+05
   9.467845e+05  -1.013896e+06
   1.454527e+06  -2.955039e+05
   6.062517e+05   9.158334e+05
  -5.065428e+05   9.152478e+05
  -5.317902e+05  -2.669780e+05
   5.504054e+05  -8.415327e+05
   1.462371e+06   3.577390e+05
   1.091477e+06   2.301308e+06
  -4.637319e+05   2.977453e+06
  -2.181541e+06   1.629921e+06
  -2.973565e+06  -6.613193e+05
  -2.300744e+06  -2.247480e+06
  -5.394310e+05  -2.301853e+06
   1.064294e+06  -1.220169e+06
   1.329726e+06  -1.346109e+05
   3.977109e+05   3.515299e+04
  -3.072774e+05  -5.951153e+05
   2.496816e+05  -1.011837e+06
   1.393907e+06  -4.765893e+05
   1.582604e+06   5.691163e+05
   3.922568e+05   1.042670e+06
  -9.030584e+05   5.231182e+05
  -8.354605e+05  -3.322194e+05
   5.835326e+05  -6.053622e+05
   1.895202e+06  -9.993857e+02
   1.693793e+06   1.047899e+06
  -2.600321e+04   1.766553e+06
  -1.861081e+06   1.510533e+06
  -2.264116e+06   3.002278e+05
  -9.809129e+05  -9.472279e+05
   6.828935e+05  -1.120665e+06
   1.140611e+06  -1.393260e+05
   1.096565e+05   8.111051e+05
  -1.191448e+06   5.914306e+05
  -1.407299e+06  -5.502538e+05
  -4.025719e+05  -1.314634e+06
   7.759914e+05  -9.134787e+05
   1.052493e+06   9.869753e+04
   3.121560e+05   5.844216e+05
  -5.756020e+05   8.282505e+04
  -5.841812e+05  -8.160177e+05
   4.687318e+05  -1.136393e+06
   1.620280e+06  -4.265342e+05
   1.633806e+06   8.406437e+05
   3.332585e+05   1.650469e+06
  -1.100874e+06   1.339929e+06
  -1.373973e+06   2.308993e+05
  -4.625612e+05  -6.753640e+05
   4.979321e+05  -6.917231e+05
   5.808852e+05  -6.797717e+04
  -2.531323e+04   4.075689e+05
  -4.770092e+05   3.032535e+05
  -2.888688e+05  -6.891854e+04
   2.543798e+05  -9.934025e+04
   4.732877e+05   3.988227e+05
  -5.700553e+04   9.296400e+05
  -1.063906e+06   7.651125e+05
  -1.682696e+06  -2.861183e+05
  -1.201764e+06  -1.541618e+06
   1.467143e+05  -1.986604e+06
   1.303725e+06  -1.250103e+06
   1.454292e+06   1.277151e+04
   8.366903e+05   7.926466e+05
   3.105444e+05   7.200047e+05
   2.888727e+05   2.963101e+05
   3.843046e+05   2.017695e+05
   6.149885e+04   5.319841e+05
  -6.532941e+05   7.572058e+05
  -1.183287e+06   3.499505e+05
  -9.476273e+05  -5.854885e+05
   1.173008e+05  -1.282653e+06
   1.384567e+06  -9.673581e+05
   1.868511e+06   3.364412e+05
   1.010031e+06   1.663150e+06
  -6.894156e+05   1.921901e+06
  -1.973025e+06   9.378750e+05
  -1.961261e+06  -3.981061e+05
  -9.384924e+05  -1.064517e+06
   7.158470e+04  -8.912292e+05
   3.921907e+05  -5.359285e+05
   2.141897e+05  -6.030439e+05
   1.506493e+05  -9.654221e+05
   5.039048e+05  -9.780048e+05
   9.958114e+05  -2.481365e+05
   1.075014e+06   8.716624e+05
   4.619769e+05   1.538427e+06
  -5.025349e+05   1.175770e+06
  -1.054695e+06   3.580254e+04
  -7.030399e+05  -9.829590e+05
   2.224727e+05  -1.127716e+06
   8.461020e+05  -4.332273e+05
   6.515039e+05   4.140732e+05
   9.216470e+03   7.918674e+05
  -3.008232e+05   6.553290e+05
  -1.279259e+04   3.880740e+05
   3.311060e+05   2.946870e+05
   3.734412e+04   3.201800e+05
  -8.837194e+05   1.983892e+05
  -1.613824e+06  -2.194720e+05
  -1.322304e+06  -7.775680e+05
  -6.301424e+04  -1.105063e+06
   1.185714e+06  -9.174170e+05
   1.450066e+06  -3.024540e+05
   7.092649e+05   2.886999e+05
  -1.655046e+05   4.156424e+05
  -3.856682e+05   7.415507e+04
   4.566540e+03  -2.794961e+05
   3.904234e+05  -1.943840e+05
   3.808618e+05   2.759078e+05
   1.371422e+05   6.067203e+05
   1.224468e+04   3.946737e+05
   1.170506e+05  -1.290268e+05
   2.775857e+05  -3.062140e+05
   2.387433e+05   1.733812e+05
  -1.389910e+05   8.253861e+05
  -7.117031e+05   8.609801e+05
  -1.015366e+06   1.079874e+05
  -6.145867e+05  -7.364808e+05
   3.256211e+05  -8.597739e+05
   9.684279e+05  -2.143822e+05
   5.901193e+05   4.823830e+05
  -5.448686e+05   5.484431e+05
  -1.324413e+06  -1.990303e+04
  -9.246144e+05  -6.700295e+05
   3.102852e+05  -8.691536e+05
   1.232870e+06  -5.098127e+05
   1.072042e+06   8.611477e+04
   1.534619e+05   4.344404e+05
  -5.175985e+05   2.624111e+05
  -2.937567e+05  -2.126767e+05
   5.051164e+05  -3.980970e+05
   9.596975e+05   1.069916e+05
   4.948328e+05   9.854858e+05
  -5.425627e+05   1.369018e+06
  -1.241763e+06   6.881937e+05
  -1.030080e+06  -6.366788e+05
  -1.706523e+05  -1.482420e+06
   5.969112e+05  -1.104804e+06
   7.730767e+05   9.231855e+04
   4.111356e+05   9.672519e+05
  -1.118460e+05   8.304898e+05
  -4.424455e+05   9.993013e+04
  -4.290575e+05  -3.145856e+05
  -1.831781e+05  -1.259583e+05
  -2.150718e+04   9.337174e+04
  -1.656761e+05  -2.080305e+05
  -4.024884e+05  -7.756201e+05
  -2.229573e+05  -8.951285e+05
   5.193166e+05  -3.411419e+05
   1.225467e+06   3.708833e+05
   1.111711e+06   6.757833e+05
   1.643762e+05   5.604152e+05
  -7.426982e+05   3.462696e+05
  -8.236477e+05   1.757013e+05
  -2.581512e+05  -1.360392e+04
   1.359577e+05  -1.819752e+05
  -2.471997e+04  -1.946671e+05
  -2.744558e+05  -1.046218e+05
  -2.148049e+04  -1.118251e+05
   6.005575e+05  -1.772888e+05
   8.516954e+05   1.953244e+04
   2.779315e+05   5.564433e+05
  -7.363495e+05   9.377113e+05
  -1.352916e+06   5.883902e+05
  -1.091539e+06  -3.779731e+05
  -2.109864e+05  -1.160661e+06
   6.070535e+05  -1.112919e+06
   8.559807e+05  -4.101746e+05
   5.463692e+05   2.160671e+05
   8.914791e+04   2.919527e+05
  -1.031275e+05   2.408166e+04
   4.890373e+04  -4.980684e+04
   2.727612e+05   2.834337e+05
   2.284864e+05   6.608875e+05
  -1.539681e+05   5.472963e+05
  -5.698710e+05  -1.298348e+05
  -5.807526e+05  -8.106255e+05
  -4.400762e+04  -8.402680e+05
   6.467025e+05  -1.591586e+05
   8.356860e+05   6.305343e+05
   2.580350e+05   8.888266e+05
  -5.894286e+05   5.221715e+05
  -8.926520e+05  -7.031876e+04
  -4.104960e+05  -4.661788e+05
   2.285567e+05  -5.129212e+05
   2.694083e+05  -2.930051e+05
  -2.458359e+05  -2.341425e+04
  -5.430442e+05   2.801065e+04
  -1.061660e+05  -2.432913e+05
   6.735275e+05  -5.657502e+05
   9.924136e+05  -4.801860e+05
   5.819775e+05   1.087593e+05
  -7.949937e+04   6.956630e+05
  -4.114403e+05   6.856585e+05
  -3.053533e+05   1.028342e+05
  -2.328944e+04  -4.100669e+05
   2.023865e+05  -3.343353e+05
   2.916112e+05   1.570741e+05
   2.043956e+05   4.734081e+05
  -5.209391e+04   3.155155e+05
  -3.191161e+05  -5.177435e+04
  -3.772625e+05  -2.017484e+05
  -1.983106e+05  -5.440654e+04
   9.409577e+03   9.322169e+04
   6.677059e+04  -2.647742e+04
   4.129882e+04  -3.145456e+05
   1.140023e+05  -4.099684e+05
   2.851690e+05  -1.112057e+05
   3.269054e+05   3.546417e+05
   6.370278e+04   5.366064e+05
  -3.525849e+05   2.405495e+05
  -5.201493e+05  -2.517474e+05
  -1.908648e+05  -4.840538e+05
   4.029749e+05  -2.955276e+05
   7.011014e+05   7.573629e+04
   3.826846e+05   3.087493e+05
  -2.396553e+05   3.009308e+05
  -5.132657e+05   1.544030e+05
  -1.758600e+05   9.244634e+03
   3.250920e+05  -2.773755e+04
   3.510259e+05   9.253969e+04
  -1.700378e+05   2.647602e+05
  -6.632714e+05   2.241319e+05
