
 $NMID
 id='ANONYMOUS ', fmtdat='(2E16.6)'
 volume=1.0
 tramp=1.0
 $END
  -4.188378e+07  -2.766202e+06
  -2.387939e+07  -2.597266e+07
   6.177754e+06  -2.729599e+07
   2.037360e+07  -1.104124e+07
   1.230959e+07   4.227876e+06
  -2.112644e+06   6.792966e+06
  -7.382817e+06  -2.020795e+05
  -2.633632e+06  -7.115367e+06
   4.250256e+06  -7.685591e+06
   7.306200e+06  -1.938540e+06
   5.319369e+06   5.119162e+06
   3.187530e+05   7.035715e+06
  -3.416133e+06   1.819872e+06
  -2.164707e+06  -4.961341e+06
   2.877312e+06  -5.612901e+06
   6.007205e+06   8.798880e+05
   3.311273e+06   7.877618e+06
  -3.078637e+06   8.943026e+06
  -7.880086e+06   4.046070e+06
  -7.985685e+06  -2.276505e+06
  -4.197356e+06  -6.031585e+06
   2.777068e+05  -6.064210e+06
   2.076640e+06  -3.762392e+06
   3.643261e+05  -1.971688e+06
  -1.669934e+06  -2.593883e+06
   1.366549e+05  -4.189573e+06
   5.320622e+06  -3.419571e+06
   8.363545e+06   4.019389e+05
   5.398861e+06   3.970494e+06
  -6.762838e+05   4.137320e+06
  -3.850095e+06   1.567303e+06
  -2.133355e+06  -8.714893e+05
   1.307236e+06  -1.510265e+06
   2.932603e+06  -3.246434e+05
   2.073893e+06   2.038058e+06
  -5.744620e+04   3.848918e+06
  -1.933854e+06   2.787019e+06
  -2.153935e+06  -8.396117e+05
  -5.476127e+05  -2.979872e+06
   8.515209e+05  -7.646933e+05
  -8.155135e+04   2.721757e+06
  -2.189014e+06   2.088131e+06
  -1.933785e+06  -2.398947e+06
   1.593730e+06  -4.493269e+06
   4.684728e+06  -5.544305e+05
   3.393015e+06   5.196171e+06
  -1.565240e+06   6.164258e+06
  -5.712782e+06   1.535196e+06
  -5.628405e+06  -3.651648e+06
  -1.720376e+06  -4.952148e+06
   2.810869e+06  -2.425771e+06
   4.545879e+06   1.029587e+06
   2.276008e+06   2.740679e+06
  -1.743678e+06   1.764305e+06
  -3.528742e+06  -6.861171e+05
  -1.559930e+06  -2.061436e+06
   1.341893e+06  -1.028416e+06
   1.553328e+06   8.131494e+05
  -6.846993e+05   9.122245e+05
  -1.834720e+06  -8.407852e+05
   6.231049e+04  -2.119388e+06
   3.019226e+06  -1.336194e+06
   3.881675e+06   8.075179e+05
   1.783204e+06   2.912342e+06
  -1.743757e+06   4.178625e+06
  -4.610359e+06   3.786400e+06
  -5.299592e+06   1.010079e+06
  -3.442798e+06  -2.998089e+06
  -4.088893e+05  -5.208211e+06
   1.457024e+06  -3.996865e+06
   1.192880e+06  -1.357489e+06
   2.939773e+05  -3.438418e+05
   6.563611e+05  -1.133560e+06
   2.081957e+06  -1.304373e+06
   2.750089e+06   3.880785e+05
   1.664707e+06   2.302040e+06
  -3.565745e+05   2.238293e+06
  -1.803288e+06   1.202668e+05
  -1.660865e+06  -2.174640e+06
   1.784799e+05  -2.777579e+06
   2.630813e+06  -1.210552e+06
   3.721152e+06   1.445512e+06
   2.317991e+06   3.327206e+06
  -3.356541e+05   3.277140e+06
  -1.856875e+06   1.914804e+06
  -1.642572e+06   8.438505e+05
  -1.436442e+06   6.959160e+05
  -2.582894e+06   5.352573e+05
  -3.886283e+06  -6.443657e+05
  -3.134555e+06  -2.508892e+06
  -8.418081e+04  -3.789519e+06
   3.070804e+06  -3.543813e+06
   4.016361e+06  -1.757481e+06
   2.437078e+06   6.645720e+05
  -8.452129e+03   2.185218e+06
  -1.256783e+06   1.691896e+06
  -5.165595e+05  -1.347425e+05
   1.109572e+06  -1.170362e+06
   1.730687e+06  -2.923853e+05
   7.162015e+05   1.120964e+06
  -5.842986e+05   1.046546e+06
  -5.323838e+05  -3.252056e+05
   7.495923e+05  -8.137001e+05
   1.612980e+06   7.239647e+05
   9.103096e+05   2.818776e+06
  -9.134635e+05   3.238126e+06
  -2.613630e+06   1.493478e+06
  -3.235276e+06  -1.007782e+06
  -2.414840e+06  -2.600296e+06
  -5.128325e+05  -2.581176e+06
   1.237636e+06  -1.372257e+06
   1.525910e+06  -1.403619e+05
   4.576383e+05   5.395880e+04
  -3.290319e+05  -7.029128e+05
   3.645332e+05  -1.182864e+06
   1.687816e+06  -4.849678e+05
   1.819651e+06   7.783258e+05
   3.728807e+05   1.253233e+06
  -1.077253e+06   5.480648e+05
  -9.104022e+05  -4.136008e+05
   7.105833e+05  -6.021725e+05
   2.110350e+06   1.386537e+05
   1.812537e+06   1.246769e+06
  -1.300515e+05   1.953955e+06
  -2.180114e+06   1.622543e+06
  -2.610290e+06   2.480478e+05
  -1.095057e+06  -1.158557e+06
   8.639880e+05  -1.304484e+06
   1.374963e+06  -1.126687e+05
   1.125202e+05   9.767549e+05
  -1.414867e+06   6.447841e+05
  -1.594764e+06  -7.132688e+05
  -3.680714e+05  -1.527492e+06
   9.566681e+05  -9.685960e+05
   1.182292e+06   2.076751e+05
   2.892576e+05   6.949400e+05
  -6.966048e+05   5.586605e+04
  -6.563781e+05  -9.805303e+05
   5.763758e+05  -1.312542e+06
   1.893499e+06  -4.524349e+05
   1.871718e+06   1.027820e+06
   3.223034e+05   1.929936e+06
  -1.341088e+06   1.503603e+06
  -1.598075e+06   1.943671e+05
  -4.849911e+05  -8.025520e+05
   6.103852e+05  -7.639287e+05
   6.486022e+05  -6.424617e+04
  -5.514974e+04   4.195613e+05
  -5.140942e+05   2.959271e+05
  -2.612041e+05  -5.729515e+04
   3.178901e+05  -3.102426e+04
   4.956978e+05   5.239910e+05
  -1.398345e+05   1.071509e+06
  -1.269479e+06   8.314407e+05
  -1.933729e+06  -4.002687e+05
  -1.334810e+06  -1.830231e+06
   2.378324e+05  -2.279078e+06
   1.534185e+06  -1.362053e+06
   1.634288e+06   8.446367e+04
   8.924148e+05   8.959331e+05
   3.385896e+05   7.558022e+05
   3.794867e+05   3.140719e+05
   4.826738e+05   2.795610e+05
   5.129597e+04   6.517682e+05
  -7.941604e+05   8.377990e+05
  -1.361096e+06   3.386544e+05
  -1.039462e+06  -6.887477e+05
   1.928233e+05  -1.427289e+06
   1.619589e+06  -1.038349e+06
   2.125081e+06   4.592895e+05
   1.077694e+06   1.958261e+06
  -9.064685e+05   2.185532e+06
  -2.333373e+06   9.734981e+05
  -2.216408e+06  -5.684171e+05
  -9.834892e+05  -1.247696e+06
   1.330825e+05  -9.658181e+05
   4.227263e+05  -5.676308e+05
   2.049313e+05  -7.126126e+05
   1.875239e+05  -1.158149e+06
   6.363951e+05  -1.137847e+06
   1.181903e+06  -2.549531e+05
   1.220884e+06   1.042779e+06
   4.847573e+05   1.790814e+06
  -6.157794e+05   1.340587e+06
  -1.211882e+06  -3.995635e+03
  -7.590846e+05  -1.176113e+06
   3.298682e+05  -1.287892e+06
   1.018486e+06  -4.215165e+05
   7.256927e+05   5.606096e+05
  -6.686391e+04   9.357961e+05
  -4.198402e+05   7.246199e+05
  -4.386902e+04   4.206760e+05
   3.849074e+05   3.423132e+05
   4.023256e+04   3.676815e+05
  -1.042753e+06   1.869170e+05
  -1.877522e+06  -3.269544e+05
  -1.494611e+06  -9.620395e+05
   4.731546e+03  -1.293687e+06
   1.441491e+06  -1.017709e+06
   1.691230e+06  -2.704861e+05
   7.847883e+05   3.977484e+05
  -2.277207e+05   4.891993e+05
  -4.543177e+05   5.183325e+04
   8.054482e+03  -3.509344e+05
   4.445312e+05  -2.223912e+05
   4.352970e+05   3.312128e+05
   1.721584e+05   7.036624e+05
   3.105821e+04   4.614458e+05
   1.296591e+05  -1.244401e+05
   2.995198e+05  -3.240107e+05
   2.638699e+05   2.099120e+05
  -1.687872e+05   9.418054e+05
  -8.539221e+05   9.761796e+05
  -1.219221e+06   1.020707e+05
  -7.226153e+05  -8.794252e+05
   4.124365e+05  -1.011387e+06
   1.154338e+06  -2.403367e+05
   6.725584e+05   5.669491e+05
  -6.531975e+05   6.053547e+05
  -1.507091e+06  -8.175786e+04
  -9.984564e+05  -8.005228e+05
   4.109585e+05  -9.562401e+05
   1.417234e+06  -5.030658e+05
   1.197184e+06   1.514335e+05
   1.475114e+05   4.937155e+05
  -6.053002e+05   2.681831e+05
  -3.391410e+05  -2.683649e+05
   5.849009e+05  -4.623012e+05
   1.112880e+06   1.313917e+05
   5.715435e+05   1.147536e+06
  -6.375022e+05   1.582461e+06
  -1.441673e+06   7.806004e+05
  -1.171631e+06  -7.532363e+05
  -1.573355e+05  -1.705456e+06
   7.158884e+05  -1.235938e+06
   8.752395e+05   1.488289e+05
   4.208347e+05   1.122863e+06
  -1.777231e+05   9.294689e+05
  -5.174711e+05   8.743877e+04
  -4.653493e+05  -3.654911e+05
  -1.867268e+05  -1.378870e+05
  -3.425576e+04   9.740265e+04
  -2.116059e+05  -2.682569e+05
  -4.488595e+05  -9.144892e+05
  -2.030776e+05  -1.024205e+06
   6.371204e+05  -3.629539e+05
   1.393584e+06   4.622676e+05
   1.232495e+06   8.045536e+05
   1.675001e+05   6.541349e+05
  -8.433319e+05   3.843488e+05
  -9.422017e+05   1.708975e+05
  -3.116672e+05  -4.163025e+04
   1.538665e+05  -2.097586e+05
  -1.952682e+02  -2.044311e+05
  -2.893585e+05  -1.060693e+05
  -3.303892e+04  -1.309083e+05
   6.697644e+05  -2.059176e+05
   9.866910e+05   3.887802e+04
   3.445636e+05   6.644620e+05
  -8.523841e+05   1.084007e+06
  -1.599660e+06   6.565295e+05
  -1.286500e+06  -4.584747e+05
  -2.241087e+05  -1.341513e+06
   7.397733e+05  -1.273970e+06
   1.003588e+06  -4.687873e+05
   6.243934e+05   2.472916e+05
   1.068960e+05   3.428913e+05
  -9.992313e+04   4.775857e+04
   6.178135e+04  -3.503291e+04
   2.917754e+05   3.392549e+05
   2.342950e+05   7.656212e+05
  -1.883618e+05   6.344098e+05
  -6.533046e+05  -1.450186e+05
  -6.693854e+05  -9.362503e+05
  -5.798047e+04  -9.808784e+05
   7.403175e+05  -1.968648e+05
   9.624747e+05   7.267382e+05
   2.920345e+05   1.037673e+06
  -6.938912e+05   6.081181e+05
  -1.043104e+06  -9.953244e+04
  -4.722547e+05  -5.703899e+05
   2.848460e+05  -6.097356e+05
   3.417819e+05  -3.312957e+05
  -2.612403e+05  -1.773690e+04
  -6.218124e+05   2.413523e+04
  -1.234638e+05  -2.900703e+05
   7.905336e+05  -6.318775e+05
   1.172926e+06  -5.049361e+05
   6.875547e+05   1.653843e+05
  -1.097789e+05   8.104766e+05
  -5.155783e+05   7.849062e+05
  -3.832297e+05   1.222699e+05
  -3.188511e+04  -4.669050e+05
   2.405510e+05  -3.949144e+05
   3.365699e+05   1.666268e+05
   2.276873e+05   5.512873e+05
  -6.709081e+04   3.839386e+05
  -3.702251e+05  -5.842703e+04
  -4.339593e+05  -2.591813e+05
  -2.242126e+05  -8.124196e+04
   1.517132e+04   1.275909e+05
   6.915280e+04   6.353187e+03
   2.179439e+04  -3.555562e+05
   1.048606e+05  -5.048323e+05
   3.279885e+05  -1.644188e+05
   4.039553e+05   3.985275e+05
   1.000148e+05   6.270011e+05
  -4.042803e+05   2.827219e+05
  -6.125049e+05  -2.921184e+05
  -2.221583e+05  -5.572396e+05
   4.795439e+05  -3.330342e+05
   8.228351e+05   9.761116e+04
   4.409168e+05   3.666086e+05
  -2.879421e+05   3.579634e+05
  -6.069764e+05   1.845403e+05
  -2.211284e+05   5.705505e+03
   3.562546e+05  -4.784646e+04
   3.995151e+05   8.832143e+04
  -1.792363e+05   2.917529e+05
  -7.386477e+05   2.518897e+05
