
 $NMID
 id='ANONYMOUS ', fmtdat='(2E16.6)'
 volume=1.0
 tramp=1.0
 $END
  -4.443882e+07  -6.184640e+05
  -2.736561e+07  -2.606697e+07
   4.571304e+06  -2.959112e+07
   2.137346e+07  -1.337552e+07
   1.402109e+07   3.657723e+06
  -1.685089e+06   7.608409e+06
  -8.243000e+06   3.464670e+05
  -3.448812e+06  -7.693428e+06
   4.302050e+06  -8.806981e+06
   7.952990e+06  -2.596660e+06
   5.936252e+06   5.272807e+06
   5.686384e+05   7.561591e+06
  -3.523354e+06   2.032494e+06
  -2.345060e+06  -5.374935e+06
   3.032301e+06  -6.304079e+06
   6.622783e+06   6.093952e+05
   3.987707e+06   8.365038e+06
  -2.868700e+06   9.828849e+06
  -8.216885e+06   4.728644e+06
  -8.532660e+06  -2.020704e+06
  -4.689123e+06  -6.049067e+06
  -1.488928e+05  -6.250520e+06
   1.705256e+06  -4.176467e+06
   1.429126e+05  -2.573150e+06
  -1.673701e+06  -3.157056e+06
   3.450775e+05  -4.534387e+06
   5.736004e+06  -3.545655e+06
   8.897861e+06   4.277889e+05
   5.776580e+06   4.081427e+06
  -6.695817e+05   4.210327e+06
  -4.015784e+06   1.496292e+06
  -2.044778e+06  -9.982281e+05
   1.720812e+06  -1.472433e+06
   3.280231e+06  -5.843841e+04
   2.072055e+06   2.364635e+06
  -2.173416e+05   4.080415e+06
  -1.954748e+06   2.930256e+06
  -2.083419e+06  -7.444850e+05
  -6.111879e+05  -2.936017e+06
   6.435120e+05  -7.001996e+05
  -2.970928e+05   2.921111e+06
  -2.427883e+06   2.306036e+06
  -2.262007e+06  -2.509937e+06
   1.378090e+06  -5.027677e+06
   4.894504e+06  -1.060515e+06
   3.928587e+06   5.241970e+06
  -1.256655e+06   6.680384e+06
  -6.001640e+06   1.913937e+06
  -6.235213e+06  -3.808919e+06
  -2.038688e+06  -5.435924e+06
   3.058246e+06  -2.771193e+06
   5.097100e+06   1.042782e+06
   2.661150e+06   3.011068e+06
  -1.784359e+06   2.065238e+06
  -3.873078e+06  -5.557207e+05
  -1.840668e+06  -2.158823e+06
   1.375150e+06  -1.176569e+06
   1.748831e+06   8.715016e+05
  -7.157441e+05   1.167903e+06
  -2.208915e+06  -7.207990e+05
  -2.925904e+05  -2.379037e+06
   3.095331e+06  -1.785238e+06
   4.327258e+06   5.764383e+05
   2.143781e+06   3.059004e+06
  -1.778744e+06   4.522361e+06
  -4.939652e+06   4.084471e+06
  -5.653391e+06   1.133110e+06
  -3.680418e+06  -3.118580e+06
  -5.155109e+05  -5.577944e+06
   1.492227e+06  -4.458698e+06
   1.367420e+06  -1.663576e+06
   5.387965e+05  -3.980284e+05
   8.863761e+05  -1.048438e+06
   2.259337e+06  -1.186140e+06
   2.848325e+06   5.636219e+05
   1.634348e+06   2.532342e+06
  -5.182382e+05   2.366969e+06
  -1.992763e+06   2.150325e+03
  -1.744191e+06  -2.461956e+06
   2.513348e+05  -3.010684e+06
   2.819147e+06  -1.263473e+06
   3.954312e+06   1.534730e+06
   2.519312e+06   3.485276e+06
  -2.351779e+05   3.473839e+06
  -1.870762e+06   2.124460e+06
  -1.730390e+06   1.029297e+06
  -1.595894e+06   8.388387e+05
  -2.875915e+06   6.113744e+05
  -4.294313e+06  -7.101205e+05
  -3.447141e+06  -2.774486e+06
  -6.063230e+04  -4.172104e+06
   3.419101e+06  -3.843998e+06
   4.404430e+06  -1.838350e+06
   2.596541e+06   7.678829e+05
  -8.696822e+04   2.337226e+06
  -1.385892e+06   1.779430e+06
  -5.329912e+05  -1.497116e+05
   1.224014e+06  -1.242350e+06
   1.876294e+06  -3.188363e+05
   7.698752e+05   1.191982e+06
  -6.532362e+05   1.118920e+06
  -5.988482e+05  -3.932247e+05
   8.599091e+05  -9.719297e+05
   1.900353e+06   7.417057e+05
   1.133785e+06   3.182247e+06
  -1.008394e+06   3.752192e+06
  -3.020321e+06   1.761559e+06
  -3.692935e+06  -1.167721e+06
  -2.666159e+06  -2.998342e+06
  -5.006197e+05  -2.903176e+06
   1.396021e+06  -1.481929e+06
   1.673308e+06  -1.193948e+05
   5.043442e+05   6.287672e+04
  -3.532869e+05  -7.748345e+05
   3.891748e+05  -1.297527e+06
   1.836955e+06  -5.421380e+05
   2.006178e+06   8.403387e+05
   4.264820e+05   1.374171e+06
  -1.186943e+06   5.953606e+05
  -1.000957e+06  -4.861701e+05
   8.262913e+05  -6.834341e+05
   2.387014e+06   1.948967e+05
   2.008674e+06   1.458042e+06
  -1.947747e+05   2.199899e+06
  -2.454946e+06   1.768391e+06
  -2.888227e+06   2.426461e+05
  -1.206030e+06  -1.271779e+06
   9.310438e+05  -1.421811e+06
   1.488841e+06  -1.367630e+05
   1.201514e+05   1.046515e+06
  -1.550597e+06   6.931084e+05
  -1.757482e+06  -7.956283e+05
  -4.052197e+05  -1.703087e+06
   1.072081e+06  -1.086561e+06
   1.326869e+06   2.299526e+05
   3.303508e+05   7.766591e+05
  -7.593502e+05   6.163502e+04
  -7.019249e+05  -1.080859e+06
   6.563083e+05  -1.423617e+06
   2.082381e+06  -4.613214e+05
   2.037731e+06   1.153258e+06
   3.354206e+05   2.123424e+06
  -1.485163e+06   1.648518e+06
  -1.766366e+06   2.098673e+05
  -5.369976e+05  -8.886364e+05
   6.787055e+05  -8.382038e+05
   7.132475e+05  -4.963082e+04
  -9.075325e+04   4.795826e+05
  -6.073209e+05   3.044217e+05
  -2.958625e+05  -1.159260e+05
   3.827819e+05  -6.781629e+04
   5.777376e+05   5.874026e+05
  -1.552147e+05   1.201488e+06
  -1.415262e+06   9.102637e+05
  -2.129957e+06  -4.660141e+05
  -1.447213e+06  -2.032317e+06
   2.960998e+05  -2.510382e+06
   1.726432e+06  -1.488354e+06
   1.824971e+06   1.235370e+05
   9.731994e+05   1.034994e+06
   3.291990e+05   8.685836e+05
   3.785100e+05   3.440694e+05
   5.258220e+05   2.863248e+05
   6.301432e+04   7.120099e+05
  -8.920792e+05   9.284769e+05
  -1.530131e+06   3.553235e+05
  -1.145686e+06  -8.026482e+05
   2.513646e+05  -1.600445e+06
   1.822987e+06  -1.127709e+06
   2.347187e+06   5.452345e+05
   1.170090e+06   2.184441e+06
  -1.018187e+06   2.413947e+06
  -2.590620e+06   1.063264e+06
  -2.461256e+06  -6.539827e+05
  -1.083813e+06  -1.416815e+06
   1.773373e+05  -1.092002e+06
   5.074758e+05  -6.136942e+05
   2.492816e+05  -7.472355e+05
   2.085545e+05  -1.246508e+06
   6.967434e+05  -1.243193e+06
   1.294549e+06  -2.731611e+05
   1.325601e+06   1.161154e+06
   5.063159e+05   1.976424e+06
  -6.976553e+05   1.464101e+06
  -1.338693e+06  -2.164982e+04
  -8.317040e+05  -1.306965e+06
   3.715202e+05  -1.429147e+06
   1.137374e+06  -4.776801e+05
   8.196058e+05   6.118879e+05
  -6.100390e+04   1.042390e+06
  -4.641593e+05   8.186193e+05
  -5.833054e+04   4.775291e+05
   4.134863e+05   3.819642e+05
   3.570369e+04   4.061059e+05
  -1.153154e+06   2.022156e+05
  -2.066094e+06  -3.734395e+05
  -1.641848e+06  -1.077492e+06
   5.825949e+03  -1.433885e+06
   1.588790e+06  -1.115725e+06
   1.874001e+06  -2.871939e+05
   8.814021e+05   4.440917e+05
  -2.445575e+05   5.399305e+05
  -5.079198e+05   6.040687e+04
   3.452128e+03  -3.769554e+05
   4.928462e+05  -2.336674e+05
   4.755013e+05   3.682231e+05
   1.701010e+05   7.662344e+05
   2.079146e+04   4.955633e+05
   1.571074e+05  -1.394748e+05
   3.550110e+05  -3.461476e+05
   2.913289e+05   2.414404e+05
  -2.106463e+05   1.033829e+06
  -9.553692e+05   1.062128e+06
  -1.328551e+06   1.047965e+05
  -7.744381e+05  -9.640060e+05
   4.561497e+05  -1.102204e+06
   1.257493e+06  -2.517742e+05
   7.282060e+05   6.343809e+05
  -7.296086e+05   6.644426e+05
  -1.672993e+06  -1.130471e+05
  -1.104110e+06  -9.153256e+05
   4.721957e+05  -1.070535e+06
   1.593623e+06  -5.409225e+05
   1.335595e+06   1.929473e+05
   1.555591e+05   5.558530e+05
  -6.767592e+05   2.913780e+05
  -3.709241e+05  -2.936037e+05
   6.479149e+05  -4.892968e+05
   1.211833e+06   1.658323e+05
   6.001511e+05   1.261957e+06
  -7.273167e+05   1.715547e+06
  -1.593378e+06   8.269564e+05
  -1.274271e+06  -8.490073e+05
  -1.435311e+05  -1.881761e+06
   8.162573e+05  -1.354983e+06
   9.732005e+05   1.765285e+05
   4.514503e+05   1.253877e+06
  -2.129427e+05   1.036650e+06
  -5.756253e+05   9.304774e+04
  -5.084806e+05  -4.208068e+05
  -2.041390e+05  -1.662496e+05
  -4.006216e+04   1.120683e+05
  -2.287990e+05  -2.816717e+05
  -4.804772e+05  -1.007782e+06
  -2.111357e+05  -1.144353e+06
   7.034929e+05  -4.046062e+05
   1.529263e+06   5.333888e+05
   1.351289e+06   9.177259e+05
   1.773258e+05   7.246297e+05
  -9.392603e+05   4.002617e+05
  -1.046927e+06   1.713404e+05
  -3.452451e+05  -3.985546e+04
   1.728915e+05  -2.243731e+05
   2.916579e+03  -2.402194e+05
  -3.156638e+05  -1.380362e+05
  -3.015656e+04  -1.405960e+05
   7.427705e+05  -1.998565e+05
   1.080725e+06   5.944905e+04
   3.619349e+05   7.176849e+05
  -9.533036e+05   1.163916e+06
  -1.757899e+06   7.011626e+05
  -1.394618e+06  -5.131022e+05
  -2.206610e+05  -1.476416e+06
   8.297194e+05  -1.391620e+06
   1.104100e+06  -4.952939e+05
   6.766174e+05   2.881659e+05
   1.088747e+05   3.737556e+05
  -1.086854e+05   3.649212e+04
   7.525798e+04  -4.538785e+04
   3.216363e+05   3.823600e+05
   2.469856e+05   8.507870e+05
  -2.161353e+05   6.901653e+05
  -7.083184e+05  -1.768544e+05
  -7.089736e+05  -1.036713e+06
  -4.318787e+04  -1.065297e+06
   8.088670e+05  -1.920533e+05
   1.034286e+06   8.157081e+05
   3.015223e+05   1.138028e+06
  -7.654133e+05   6.516981e+05
  -1.139638e+06  -1.225881e+05
  -5.144969e+05  -6.250597e+05
   3.129316e+05  -6.615123e+05
   3.744382e+05  -3.663233e+05
  -2.883518e+05  -3.564958e+04
  -6.842953e+05   1.268801e+04
  -1.315535e+05  -3.166788e+05
   8.810480e+05  -6.828308e+05
   1.301778e+06  -5.491022e+05
   7.569587e+05   1.784120e+05
  -1.298280e+05   8.865097e+05
  -5.710399e+05   8.621891e+05
  -4.111278e+05   1.352845e+05
  -2.064464e+04  -5.105626e+05
   2.663344e+05  -4.258696e+05
   3.584755e+05   1.936986e+05
   2.403226e+05   6.086523e+05
  -7.257318e+04   4.145042e+05
  -4.016130e+05  -7.172605e+04
  -4.779128e+05  -2.854516e+05
  -2.512391e+05  -9.001475e+04
   1.963463e+04   1.321926e+05
   9.126340e+04   7.299592e+02
   4.204930e+04  -3.800907e+05
   1.216865e+05  -5.296191e+05
   3.485865e+05  -1.614248e+05
   4.203768e+05   4.372221e+05
   9.033141e+04   6.747494e+05
  -4.467135e+05   2.971426e+05
  -6.592544e+05  -3.279237e+05
  -2.287380e+05  -6.132804e+05
   5.300383e+05  -3.603683e+05
   8.958288e+05   1.172995e+05
   4.769344e+05   4.074093e+05
  -3.149819e+05   3.852107e+05
  -6.598077e+05   1.914784e+05
  -2.381565e+05   9.845143e+03
   3.890355e+05  -3.243611e+04
   4.285227e+05   1.125072e+05
  -2.120699e+05   3.117477e+05
  -8.218849e+05   2.502896e+05
