
 $NMID
 id='ANONYMOUS ', fmtdat='(2E16.6)'
 volume=1.0
 tramp=1.0
 $END
  -2.224991e+07  -1.367216e+06
  -1.365099e+07  -1.238890e+07
   1.848198e+06  -1.431489e+07
   1.048760e+07  -7.600417e+06
   7.533014e+06   6.803271e+05
  -2.977676e+05   3.885062e+06
  -4.367782e+06   9.817717e+05
  -2.469345e+06  -3.799797e+06
   1.777836e+06  -5.281150e+06
   4.175701e+06  -1.903812e+06
   3.204094e+06   2.950057e+06
   1.791263e+05   4.321056e+06
  -2.051112e+06   9.018205e+05
  -1.348067e+06  -3.438146e+06
   1.573447e+06  -3.886981e+06
   3.554363e+06   6.895660e+04
   2.224335e+06   4.423666e+06
  -1.464014e+06   5.225515e+06
  -4.342898e+06   2.311913e+06
  -4.270638e+06  -1.408411e+06
  -1.901564e+06  -3.226852e+06
   3.262900e+05  -2.763163e+06
   5.479446e+05  -1.615074e+06
  -8.230396e+05  -1.504527e+06
  -1.432201e+06  -2.546171e+06
   5.325769e+05  -3.144465e+06
   3.921090e+06  -1.835532e+06
   5.364174e+06   8.218730e+05
   3.029130e+06   2.671222e+06
  -9.735724e+05   2.295614e+06
  -2.798559e+06   3.939691e+05
  -1.133880e+06  -1.211033e+06
   1.681093e+06  -1.288698e+06
   2.671661e+06   1.475168e+05
   1.314656e+06   2.032499e+06
  -6.243498e+05   2.755076e+06
  -1.390912e+06   1.397970e+06
  -7.570717e+05  -8.831358e+05
   2.360691e+05  -1.570410e+06
   4.070533e+05   2.147241e+05
  -5.148362e+05   2.161170e+06
  -1.548196e+06   1.480720e+06
  -1.318580e+06  -1.258449e+06
   3.857998e+05  -2.585048e+06
   2.046200e+06  -5.953054e+05
   1.796341e+06   2.534843e+06
  -5.606874e+05   3.272323e+06
  -3.125709e+06   8.811567e+05
  -3.589748e+06  -2.149610e+06
  -1.378981e+06  -3.167890e+06
   1.739938e+06  -1.789398e+06
   3.162909e+06   4.222828e+05
   1.812026e+06   1.667735e+06
  -8.134882e+05   1.222012e+06
  -2.118441e+06  -1.956154e+05
  -1.095242e+06  -1.091352e+06
   7.095354e+05  -6.329052e+05
   1.119557e+06   4.759653e+05
  -1.222196e+05   8.497259e+05
  -1.220048e+06   7.315731e+04
  -6.148295e+05  -9.128640e+05
   1.179718e+06  -1.000894e+06
   2.220669e+06   9.153351e+03
   1.235090e+06   1.487779e+06
  -1.173498e+06   2.508990e+06
  -3.182528e+06   2.213283e+06
  -3.378655e+06   3.672971e+05
  -1.879125e+06  -2.033984e+06
  -6.704853e+04  -3.289461e+06
   7.798905e+05  -2.677816e+06
   6.442203e+05  -1.284497e+06
   5.131831e+05  -6.237884e+05
   1.057172e+06  -7.565215e+05
   1.833724e+06  -4.681175e+05
   1.885543e+06   7.943764e+05
   8.637845e+05   1.967074e+06
  -6.145324e+05   1.661116e+06
  -1.520425e+06  -8.773321e+04
  -1.168181e+06  -1.780967e+06
   2.968827e+05  -1.980938e+06
   1.856187e+06  -5.992858e+05
   2.274682e+06   1.199976e+06
   1.221889e+06   2.128556e+06
  -3.004640e+05   1.835214e+06
  -1.016830e+06   1.021946e+06
  -8.479568e+05   5.738666e+05
  -8.880066e+05   6.067705e+05
  -1.798827e+06   4.556379e+05
  -2.715321e+06  -4.338135e+05
  -2.182568e+06  -1.783729e+06
  -6.297108e+02  -2.694768e+06
   2.306124e+06  -2.434915e+06
   2.955630e+06  -1.030946e+06
   1.643714e+06   6.832424e+05
  -2.487077e+05   1.566971e+06
  -1.048619e+06   1.066603e+06
  -3.286093e+05  -1.586385e+05
   8.589499e+05  -7.618444e+05
   1.183483e+06  -1.572767e+05
   4.066788e+05   7.609010e+05
  -4.895373e+05   7.225012e+05
  -4.736580e+05  -2.430109e+05
   4.206518e+05  -7.571827e+05
   1.205120e+06   1.739159e+05
   9.729027e+05   1.838181e+06
  -3.056115e+05   2.549333e+06
  -1.826339e+06   1.473352e+06
  -2.553531e+06  -5.716576e+05
  -1.930705e+06  -2.021944e+06
  -3.620184e+05  -2.010759e+06
   9.749390e+05  -9.636080e+05
   1.125247e+06  -2.171331e+04
   3.286821e+05   4.846448e+04
  -2.231039e+05  -5.055959e+05
   2.360996e+05  -7.989423e+05
   1.130079e+06  -3.204554e+05
   1.257004e+06   5.078590e+05
   2.925502e+05   8.455917e+05
  -7.601201e+05   3.924980e+05
  -7.003416e+05  -3.190680e+05
   5.030854e+05  -5.254502e+05
   1.627760e+06   3.964917e+04
   1.434379e+06   9.678405e+05
  -7.803019e+04   1.525897e+06
  -1.635978e+06   1.199820e+06
  -1.902558e+06   1.459912e+05
  -7.614266e+05  -8.107667e+05
   6.015443e+05  -8.584103e+05
   9.074657e+05  -5.369987e+04
   2.843788e+04   6.490802e+05
  -1.005691e+06   4.176806e+05
  -1.139417e+06  -5.087125e+05
  -3.016126e+05  -1.105056e+06
   6.600661e+05  -7.530021e+05
   8.767624e+05   9.184408e+04
   2.591910e+05   4.830638e+05
  -4.590307e+05   4.027374e+04
  -4.264080e+05  -7.037899e+05
   4.634004e+05  -9.077441e+05
   1.369684e+06  -2.503576e+05
   1.300900e+06   7.905971e+05
   1.892560e+05   1.377891e+06
  -9.659526e+05   1.053203e+06
  -1.143065e+06   1.382041e+05
  -3.634649e+05  -5.712116e+05
   4.381578e+05  -5.533976e+05
   4.998077e+05  -2.162956e+04
  -3.399278e+04   3.716142e+05
  -4.471301e+05   2.563361e+05
  -2.921236e+05  -9.261863e+04
   1.963216e+05  -1.242121e+05
   3.977760e+05   3.192557e+05
  -6.614474e+04   7.684086e+05
  -9.157612e+05   5.900243e+05
  -1.383507e+06  -3.212150e+05
  -9.150309e+05  -1.341409e+06
   2.264025e+05  -1.650593e+06
   1.154221e+06  -9.980828e+05
   1.237785e+06   6.580300e+04
   6.962423e+05   7.296452e+05
   2.312249e+05   6.776344e+05
   1.907488e+05   2.978375e+05
   2.729213e+05   1.721819e+05
   2.101277e+04   4.234991e+05
  -5.730792e+05   6.081477e+05
  -1.017976e+06   2.506118e+05
  -7.906140e+05  -5.500885e+05
   1.495611e+05  -1.099941e+06
   1.212363e+06  -7.568723e+05
   1.552759e+06   3.738284e+05
   7.715044e+05   1.432128e+06
  -6.452178e+05   1.561256e+06
  -1.668390e+06   6.993310e+05
  -1.626960e+06  -4.013904e+05
  -7.701678e+05  -9.352137e+05
   8.460974e+04  -7.778153e+05
   3.847374e+05  -4.589821e+05
   2.592821e+05  -4.818154e+05
   1.973932e+05  -7.618474e+05
   4.592733e+05  -7.640042e+05
   8.243093e+05  -1.473670e+05
   8.396979e+05   7.843311e+05
   2.978586e+05   1.305099e+06
  -4.846922e+05   9.499271e+05
  -8.817332e+05  -2.067964e+04
  -5.417178e+05  -8.407753e+05
   2.206465e+05  -9.251367e+05
   7.009049e+05  -3.454492e+05
   5.198206e+05   3.357150e+05
  -2.756940e+03   6.372062e+05
  -2.479149e+05   5.365108e+05
  -1.627543e+04   3.378402e+05
   2.539015e+05   2.711809e+05
   9.956087e+03   2.731256e+05
  -7.345216e+05   1.249053e+05
  -1.315202e+06  -2.597983e+05
  -1.059415e+06  -7.047502e+05
  -1.656676e+04  -9.060705e+05
   1.007702e+06  -6.933673e+05
   1.212431e+06  -1.924737e+05
   5.843892e+05   2.469683e+05
  -1.466052e+05   3.237401e+05
  -3.178654e+05   5.470446e+04
   2.564873e+04  -2.146811e+05
   3.444986e+05  -1.370363e+05
   2.997622e+05   2.495447e+05
   5.991372e+04   5.181461e+05
  -3.192364e+04   3.294533e+05
   1.085607e+05  -1.177579e+05
   2.679392e+05  -2.582160e+05
   1.953895e+05   1.576864e+05
  -1.727411e+05   6.898349e+05
  -6.401071e+05   6.745862e+05
  -8.254906e+05   1.988887e+04
  -4.453386e+05  -6.470322e+05
   3.170444e+05  -6.773586e+05
   8.020424e+05  -1.054879e+05
   4.621932e+05   4.404897e+05
  -4.770584e+05   4.334290e+05
  -1.113766e+06  -7.371336e+04
  -7.667391e+05  -6.031282e+05
   2.829138e+05  -7.292395e+05
   1.063063e+06  -3.920783e+05
   9.111162e+05   1.131466e+05
   1.163758e+05   3.764150e+05
  -4.428986e+05   2.016523e+05
  -2.253582e+05  -1.856341e+05
   4.533357e+05  -2.919718e+05
   7.906047e+05   1.591855e+05
   3.369738e+05   8.562774e+05
  -5.510824e+05   1.101486e+06
  -1.083874e+06   4.900814e+05
  -8.231373e+05  -5.958265e+05
  -5.824737e+04  -1.251987e+06
   5.598528e+05  -9.023422e+05
   6.458597e+05   1.054210e+05
   3.054195e+05   8.295594e+05
  -1.211305e+05   6.992567e+05
  -3.702236e+05   6.693353e+04
  -3.546698e+05  -2.908232e+05
  -1.607111e+05  -1.211313e+05
  -1.695472e+04   8.180417e+04
  -1.049766e+05  -1.712515e+05
  -2.852491e+05  -6.646405e+05
  -1.557921e+05  -7.637868e+05
   4.309700e+05  -2.608595e+05
   1.006541e+06   3.775200e+05
   9.097489e+05   6.263516e+05
   1.091162e+05   4.740412e+05
  -6.550701e+05   2.462523e+05
  -7.041191e+05   1.071212e+05
  -2.025191e+05  -1.570176e+04
   1.291371e+05  -1.423978e+05
  -2.830948e+04  -1.742442e+05
  -2.423853e+05  -1.149609e+05
  -3.254590e+03  -9.601944e+04
   5.326136e+05  -1.053546e+05
   7.069275e+05   7.124290e+04
   1.713328e+05   4.758918e+05
  -6.862048e+05   7.275634e+05
  -1.148770e+06   3.994592e+05
  -8.646615e+05  -3.882507e+05
  -1.014615e+05  -9.840065e+05
   5.657170e+05  -8.876109e+05
   7.376618e+05  -2.792041e+05
   4.457468e+05   2.236327e+05
   4.846885e+04   2.484371e+05
  -1.041011e+05   1.809866e+03
   3.806461e+04  -5.214978e+04
   2.202947e+05   2.470227e+05
   1.595322e+05   5.647202e+05
  -1.643446e+05   4.426319e+05
  -4.706307e+05  -1.552158e+05
  -4.246157e+05  -7.222398e+05
   3.337251e+04  -7.001790e+05
   5.591764e+05  -7.630588e+04
   6.533440e+05   5.914307e+05
   1.509705e+05   7.551452e+05
  -5.250148e+05   3.872067e+05
  -7.312919e+05  -1.164271e+05
  -3.046178e+05  -4.004408e+05
   2.195685e+05  -3.975926e+05
   2.269592e+05  -2.244819e+05
  -2.203506e+05  -4.048754e+04
  -4.592933e+05  -1.143263e+04
  -6.872648e+04  -2.059024e+05
   5.949872e+05  -4.346686e+05
   8.419192e+05  -3.553289e+05
   4.627672e+05   1.110273e+05
  -1.083429e+05   5.686850e+05
  -3.685754e+05   5.413673e+05
  -2.438458e+05   5.631321e+04
   1.371643e+04  -3.501204e+05
   1.915362e+05  -2.579065e+05
   2.345935e+05   1.631436e+05
   1.400926e+05   4.075197e+05
  -6.577818e+04   2.462598e+05
  -2.621128e+05  -6.865967e+04
  -2.976373e+05  -1.798579e+05
  -1.623767e+05  -4.760971e+04
  -5.067985e+03   6.627466e+04
   5.772008e+04  -4.258243e+04
   7.436512e+04  -2.688846e+05
   1.485991e+05  -3.176304e+05
   2.530679e+05  -4.803331e+04
   2.309389e+05   3.325458e+05
  -5.714787e+03   4.529826e+05
  -3.159898e+05   1.719025e+05
  -4.084489e+05  -2.509582e+05
  -1.221990e+05  -4.212017e+05
   3.492799e+05  -2.202508e+05
   5.709486e+05   1.118506e+05
   2.960150e+05   2.806411e+05
  -2.174747e+05   2.250338e+05
  -4.325204e+05   8.413395e+04
  -1.351578e+05  -4.647957e+03
   2.888367e+05   9.324431e+03
   2.929890e+05   1.153254e+05
  -1.716200e+05   2.201191e+05
  -5.888493e+05   1.457415e+05
