
 $NMID
 id='ANONYMOUS ', fmtdat='(2E16.6)'
 volume=1.0
 tramp=1.0
 $END
   5.861464e+07   3.592382e+05
   3.474996e+07   3.711738e+07
  -8.525263e+06   3.978731e+07
  -2.902815e+07   1.441046e+07
  -1.680600e+07  -8.072778e+06
   3.833890e+06  -9.623364e+06
   1.009764e+07   1.791164e+06
   2.402846e+06   1.023038e+07
  -6.762872e+06   9.222402e+06
  -9.980738e+06   1.656209e+06
  -7.078738e+06  -6.411942e+06
  -7.727488e+05  -8.714895e+06
   4.060311e+06  -2.851442e+06
   2.578252e+06   5.353615e+06
  -3.989716e+06   6.419286e+06
  -8.062154e+06  -1.617499e+06
  -4.366906e+06  -1.057662e+07
   4.096157e+06  -1.207993e+07
   1.049552e+07  -6.025215e+06
   1.122014e+07   2.106881e+06
   6.992671e+06   7.795265e+06
   7.844132e+05   9.182551e+06
  -3.259901e+06   6.481880e+06
  -2.385060e+06   2.679144e+06
   8.453674e+05   1.813100e+06
   3.737191e+05   3.944165e+06
  -5.198714e+06   4.471736e+06
  -9.642232e+06   6.633247e+05
  -7.211882e+06  -4.105236e+06
  -4.874460e+05  -5.186299e+06
   3.542677e+06  -2.790716e+06
   2.526545e+06  -3.093791e+05
  -2.659331e+05   7.171415e+05
  -1.907694e+06   5.631483e+05
  -2.141271e+06  -1.130517e+06
  -9.074155e+05  -3.775804e+06
   1.739200e+06  -4.019615e+06
   3.495178e+06  -8.204918e+04
   1.979642e+06   3.761836e+06
  -7.957880e+05   2.251387e+06
  -4.914637e+05  -2.244079e+06
   2.440993e+06  -2.215917e+06
   2.417646e+06   3.358159e+06
  -2.752086e+06   6.317571e+06
  -7.429504e+06   9.279609e+05
  -5.305086e+06  -7.321580e+06
   2.142881e+06  -8.879452e+06
   7.708456e+06  -2.444517e+06
   6.958523e+06   4.622538e+06
   1.671394e+06   6.105204e+06
  -3.565366e+06   2.591043e+06
  -5.178989e+06  -1.712874e+06
  -2.257864e+06  -3.596414e+06
   2.583950e+06  -2.167825e+06
   4.619028e+06   1.064489e+06
   1.912562e+06   2.856065e+06
  -1.798501e+06   1.381778e+06
  -1.687409e+06  -1.077771e+06
   1.496196e+06  -8.202720e+05
   2.505052e+06   2.054414e+06
  -8.964695e+05   3.698355e+06
  -5.007548e+06   1.869039e+06
  -5.475590e+06  -1.609775e+06
  -2.284290e+06  -4.191339e+06
   1.825652e+06  -5.345356e+06
   4.966259e+06  -4.895174e+06
   6.228390e+06  -1.819982e+06
   4.709872e+06   3.141042e+06
   9.810153e+05   6.218999e+06
  -1.993343e+06   4.744180e+06
  -1.874732e+06   1.047224e+06
  -6.180903e+04  -4.545377e+05
   2.882231e+05   9.168345e+05
  -1.384278e+06   1.898836e+06
  -2.733888e+06   4.390839e+05
  -2.070075e+06  -1.732766e+06
  -1.549000e+05  -2.029779e+06
   1.394119e+06  -2.324038e+05
   1.593418e+06   1.950054e+06
   3.812999e+04   2.856097e+06
  -2.713918e+06   1.704220e+06
  -4.519253e+06  -1.112292e+06
  -3.327905e+06  -3.796475e+06
   1.460848e+04  -4.368959e+06
   2.377481e+06  -2.824827e+06
   2.356231e+06  -1.131709e+06
   1.887767e+06  -6.041787e+05
   2.926228e+06  -3.900019e+05
   4.288001e+06   8.289848e+05
   3.402937e+06   2.774797e+06
   8.441878e+04   4.055188e+06
  -3.155222e+06   3.808523e+06
  -4.070131e+06   2.109438e+06
  -2.624124e+06  -3.460009e+05
  -3.489729e+05  -2.168454e+06
   1.022341e+06  -1.933460e+06
   5.629927e+05   7.618909e+03
  -1.051297e+06   1.294900e+06
  -1.899536e+06   3.900488e+05
  -9.410594e+05  -1.206237e+06
   4.871278e+05  -1.088243e+06
   3.628405e+05   3.971955e+05
  -1.141627e+06   5.902181e+05
  -1.817449e+06  -1.480921e+06
  -4.309837e+05  -3.569288e+06
   1.830938e+06  -3.250243e+06
   3.181390e+06  -8.370779e+05
   3.126021e+06   1.588088e+06
   2.062377e+06   2.702252e+06
   3.770836e+05   2.493157e+06
  -1.201974e+06   1.416464e+06
  -1.530867e+06   2.318764e+05
  -4.832106e+05  -4.893507e+04
   3.427980e+05   7.451633e+05
  -4.424654e+05   1.340325e+06
  -1.928704e+06   5.547276e+05
  -2.014952e+06  -9.362124e+05
  -3.421085e+05  -1.432381e+06
   1.172052e+06  -5.359827e+05
   8.330661e+05   4.637092e+05
  -8.689082e+05   4.413697e+05
  -2.089080e+06  -4.156148e+05
  -1.603918e+06  -1.355335e+06
   3.155303e+05  -1.870161e+06
   2.276580e+06  -1.549631e+06
   2.718511e+06  -2.240011e+05
   1.189324e+06   1.279960e+06
  -9.362132e+05   1.506017e+06
  -1.580754e+06   1.809286e+05
  -2.111104e+05  -1.089399e+06
   1.509938e+06  -7.191004e+05
   1.679489e+06   8.099007e+05
   2.727055e+05   1.635910e+06
  -1.121131e+06   9.072727e+05
  -1.222057e+06  -3.736610e+05
  -1.942929e+05  -7.903878e+05
   8.110333e+05  -3.736130e+04
   7.266293e+05   1.052723e+06
  -5.697250e+05   1.405860e+06
  -1.979002e+06   5.314310e+05
  -2.003708e+06  -1.045874e+06
  -3.581812e+05  -2.054973e+06
   1.452105e+06  -1.604234e+06
   1.709714e+06  -1.711729e+05
   4.667977e+05   8.711042e+05
  -6.679409e+05   7.721570e+05
  -5.996544e+05   7.035682e+04
   1.424549e+05  -3.095236e+05
   4.506931e+05  -1.533360e+05
   4.726491e+04   5.426941e+04
  -4.779831e+05  -1.430752e+05
  -4.802471e+05  -7.182663e+05
   2.532347e+05  -1.174922e+06
   1.383988e+06  -8.558297e+05
   2.044795e+06   4.367682e+05
   1.424532e+06   1.930585e+06
  -2.366191e+05   2.368613e+06
  -1.596304e+06   1.337574e+06
  -1.624644e+06  -1.684529e+05
  -7.809315e+05  -8.583025e+05
  -2.879988e+05  -5.657937e+05
  -5.069724e+05  -1.718538e+05
  -6.620536e+05  -3.320881e+05
  -8.872014e+04  -7.841914e+05
   8.868357e+05  -8.668723e+05
   1.416645e+06  -2.763004e+05
   9.861189e+05   7.118868e+05
  -2.859660e+05   1.389257e+06
  -1.698386e+06   1.004629e+06
  -2.185887e+06  -5.073414e+05
  -1.066676e+06  -2.083701e+06
   1.055763e+06  -2.316921e+06
   2.538374e+06  -9.586067e+05
   2.283046e+06   7.150882e+05
   8.658615e+05   1.327521e+06
  -2.446182e+05   8.766877e+05
  -3.523457e+05   4.506408e+05
  -1.951219e+04   7.446815e+05
  -8.200183e+04   1.322863e+06
  -6.819510e+05   1.289739e+06
  -1.294569e+06   3.110099e+05
  -1.314132e+06  -1.069091e+06
  -5.353748e+05  -1.863307e+06
   6.176545e+05  -1.406045e+06
   1.258396e+06   2.278618e+04
   7.738854e+05   1.288007e+06
  -4.288748e+05   1.370840e+06
  -1.182905e+06   3.492116e+05
  -7.945215e+05  -7.510262e+05
   1.716488e+05  -1.087962e+06
   5.856184e+05  -7.560463e+05
   1.084493e+05  -3.869787e+05
  -4.324960e+05  -3.219798e+05
  -6.201692e+04  -3.722103e+05
   1.148297e+06  -1.890688e+05
   2.049034e+06   3.558128e+05
   1.579690e+06   1.051034e+06
  -8.234752e+04   1.433795e+06
  -1.609531e+06   1.117305e+06
  -1.815543e+06   2.323287e+05
  -8.023204e+05  -5.365677e+05
   2.788075e+05  -5.770747e+05
   5.146482e+05  -1.064796e+04
   4.034156e+04   4.403705e+05
  -4.224648e+05   2.587610e+05
  -4.761456e+05  -3.383080e+05
  -2.779556e+05  -7.022309e+05
  -1.230037e+05  -4.691012e+05
  -1.316561e+05   6.851530e+04
  -2.501623e+05   2.558471e+05
  -2.620875e+05  -2.341656e+05
   1.287613e+05  -9.560140e+05
   8.923825e+05  -1.047470e+06
   1.380023e+06  -1.863066e+05
   8.725106e+05   9.024350e+05
  -4.148939e+05   1.149766e+06
  -1.261717e+06   3.583687e+05
  -7.230844e+05  -5.554456e+05
   7.035066e+05  -6.242543e+05
   1.542178e+06   1.268854e+05
   9.312851e+05   8.648725e+05
  -5.192779e+05   9.358468e+05
  -1.464224e+06   4.049960e+05
  -1.174047e+06  -2.249767e+05
  -1.079441e+05  -4.964203e+05
   6.440540e+05  -2.407278e+05
   3.878141e+05   3.036650e+05
  -5.587632e+05   5.295726e+05
  -1.165940e+06  -5.419056e+04
  -6.925296e+05  -1.147048e+06
   5.399926e+05  -1.687153e+06
   1.438216e+06  -8.949544e+05
   1.233516e+06   7.302976e+05
   2.002255e+05   1.748360e+06
  -7.291637e+05   1.244051e+06
  -8.979678e+05  -2.035210e+05
  -3.891111e+05  -1.173387e+06
   2.558951e+05  -9.271448e+05
   5.621558e+05  -6.393769e+04
   4.279248e+05   3.648972e+05
   1.292489e+05   1.248888e+05
   5.967172e+04  -8.341034e+04
   3.172580e+05   3.125355e+05
   5.130370e+05   9.582340e+05
   1.456911e+05   1.049679e+06
  -7.450018e+05   3.767499e+05
  -1.437595e+06  -4.585013e+05
  -1.215519e+06  -8.228962e+05
  -1.747503e+05  -6.928553e+05
   8.046372e+05  -4.140375e+05
   9.524159e+05  -1.643844e+05
   3.810193e+05   7.308856e+04
  -1.299133e+05   2.250073e+05
  -7.433957e+04   1.803197e+05
   2.177947e+05   6.843784e+04
   6.678140e+04   1.283487e+05
  -6.029193e+05   2.510055e+05
  -1.033761e+06   5.464507e+03
  -4.918544e+05  -6.871475e+05
   7.804094e+05  -1.188141e+06
   1.697108e+06  -7.828970e+05
   1.444517e+06   3.925855e+05
   2.957465e+05   1.372740e+06
  -7.587917e+05   1.370539e+06
  -1.030077e+06   5.657214e+05
  -6.395719e+05  -1.988547e+05
  -1.533263e+05  -3.526955e+05
   3.004273e+04  -9.362393e+04
  -9.367503e+04  -1.433882e+04
  -2.757149e+05  -3.731105e+05
  -2.291932e+05  -7.928328e+05
   1.623499e+05  -6.790894e+05
   6.622316e+05   8.191270e+04
   7.629460e+05   8.987872e+05
   1.743047e+05   1.019337e+06
  -7.108862e+05   2.962318e+05
  -1.040540e+06  -6.567089e+05
  -3.837618e+05  -1.071005e+06
   6.876225e+05  -7.078518e+05
   1.123847e+06   4.932434e+04
   5.544471e+05   6.291661e+05
  -2.796438e+05   7.117842e+05
  -4.077172e+05   3.746218e+05
   2.016911e+05  -1.076562e+04
   6.273055e+05  -5.232222e+04
   1.617727e+05   3.099527e+05
  -8.050732e+05   6.695296e+05
  -1.268809e+06   5.103257e+05
  -7.930633e+05  -2.014624e+05
   8.244669e+04  -8.729617e+05
   5.721035e+05  -8.643004e+05
   4.603567e+05  -1.939257e+05
   8.141644e+04   4.532864e+05
  -2.225855e+05   4.545834e+05
  -3.463226e+05  -1.018613e+05
  -2.629504e+05  -5.634263e+05
   3.686832e+04  -4.568075e+05
   3.871614e+05   2.191214e+04
   4.843684e+05   2.979857e+05
   2.395762e+05   1.165412e+05
  -5.488068e+04  -1.784876e+05
  -8.131237e+04  -1.055821e+05
   7.165020e+04   3.231135e+05
   3.535834e+04   5.868360e+05
  -2.871028e+05   2.922680e+05
  -5.097730e+05  -3.203280e+05
  -2.342448e+05  -6.300058e+05
   3.771153e+05  -3.354872e+05
   6.850786e+05   2.390959e+05
   2.790566e+05   5.446079e+05
  -5.063932e+05   3.726235e+05
  -8.939807e+05  -4.365171e+04
  -4.890085e+05  -3.638259e+05
   2.837209e+05  -4.288035e+05
   6.371581e+05  -2.713436e+05
   2.784991e+05  -2.778095e+04
  -2.949580e+05   1.065071e+05
  -3.850202e+05  -9.987524e+03
   1.233097e+05  -2.621283e+05
   6.660748e+05  -2.813228e+05
