
 $NMID
 id='ANONYMOUS ', fmtdat='(2E16.6)'
 volume=1.0
 tramp=1.0
 $END
   5.058401e+07   8.756575e+05
   3.022004e+07   3.119641e+07
  -6.675099e+06   3.395605e+07
  -2.478376e+07   1.347067e+07
  -1.505531e+07  -5.811705e+06
   2.747676e+06  -8.417264e+06
   8.968785e+06   7.396184e+05
   2.827793e+06   8.783732e+06
  -5.447673e+06   8.816972e+06
  -8.795863e+06   2.048162e+06
  -6.362216e+06  -5.778175e+06
  -6.179341e+05  -8.009276e+06
   3.749903e+06  -2.377637e+06
   2.410082e+06   5.294256e+06
  -3.464160e+06   6.239170e+06
  -7.193903e+06  -1.129089e+06
  -4.045770e+06  -9.320241e+06
   3.485379e+06  -1.073255e+07
   9.227474e+06  -5.215042e+06
   9.689924e+06   2.107323e+06
   5.675567e+06   6.855253e+06
   3.782004e+05   7.578221e+06
  -2.482004e+06   5.186680e+06
  -1.225987e+06   2.542333e+06
   1.268829e+06   2.453572e+06
   4.759688e+03   4.196605e+06
  -5.419626e+06   3.933099e+06
  -9.142881e+06   6.564328e+04
  -6.369559e+06  -4.074093e+06
   1.325780e+05  -4.637161e+06
   3.757122e+06  -2.095387e+06
   2.268638e+06   3.696146e+05
  -9.856697e+05   1.112114e+06
  -2.583012e+06   3.182471e+05
  -2.093159e+06  -1.744774e+06
  -3.213128e+05  -3.896436e+06
   1.851765e+06  -3.409589e+06
   2.745244e+06   3.696243e+05
   1.235778e+06   3.317170e+06
  -7.390749e+05   1.429582e+06
  -9.152494e+04  -2.567456e+06
   2.402526e+06  -2.221980e+06
   2.280620e+06   2.888424e+06
  -2.054540e+06   5.541303e+06
  -6.038014e+06   9.190705e+05
  -4.476419e+06  -6.198407e+06
   1.723388e+06  -7.615074e+06
   6.746451e+06  -2.091047e+06
   6.463554e+06   4.172699e+06
   1.805086e+06   5.674288e+06
  -3.259429e+06   2.626204e+06
  -5.044998e+06  -1.363058e+06
  -2.409872e+06  -3.246337e+06
   2.147850e+06  -2.064486e+06
   4.162225e+06   8.151782e+05
   1.829753e+06   2.467232e+06
  -1.564161e+06   1.246214e+06
  -1.687526e+06  -9.604234e+05
   1.075040e+06  -9.668768e+05
   2.290300e+06   1.360835e+06
  -3.135226e+05   2.953793e+06
  -3.972754e+06   1.753496e+06
  -4.792518e+06  -1.097303e+06
  -2.149398e+06  -3.565350e+06
   1.803187e+06  -4.844803e+06
   4.906258e+06  -4.399548e+06
   5.862132e+06  -1.419818e+06
   4.111412e+06   3.112996e+06
   7.045040e+05   5.813624e+06
  -1.727576e+06   4.516504e+06
  -1.583330e+06   1.330253e+06
  -2.871250e+05  -9.026266e+03
  -3.100918e+05   9.898698e+05
  -1.822535e+06   1.521327e+06
  -2.768842e+06  -7.912821e+04
  -1.828423e+06  -2.123421e+06
   1.864849e+05  -2.181829e+06
   1.680135e+06  -1.196666e+05
   1.649876e+06   2.180836e+06
  -1.129952e+05   2.896827e+06
  -2.738530e+06   1.451309e+06
  -4.171202e+06  -1.330393e+06
  -2.855050e+06  -3.605464e+06
   1.524153e+05  -3.855843e+06
   2.105721e+06  -2.414346e+06
   2.010086e+06  -1.046323e+06
   1.709995e+06  -7.037625e+05
   2.854516e+06  -4.874171e+05
   4.223209e+06   7.678793e+05
   3.367484e+06   2.741648e+06
   6.261816e+04   4.054555e+06
  -3.250970e+06   3.766011e+06
  -4.188695e+06   1.936353e+06
  -2.577593e+06  -5.609736e+05
  -1.210129e+05  -2.229740e+06
   1.198251e+06  -1.830839e+06
   5.419552e+05   8.078976e+04
  -1.126804e+06   1.249351e+06
  -1.861567e+06   3.434439e+05
  -8.375318e+05  -1.186173e+06
   5.655520e+05  -1.089445e+06
   4.754485e+05   3.856561e+05
  -9.769129e+05   7.663184e+05
  -1.815398e+06  -1.088590e+06
  -7.637547e+05  -3.309712e+06
   1.387796e+06  -3.436844e+06
   3.039108e+06  -1.280784e+06
   3.354969e+06   1.350647e+06
   2.335086e+06   2.806890e+06
   4.344512e+05   2.662207e+06
  -1.284860e+06   1.428759e+06
  -1.582792e+06   1.701904e+05
  -4.869520e+05  -5.611903e+04
   3.415930e+05   7.495995e+05
  -4.129387e+05   1.296540e+06
  -1.855040e+06   5.337093e+05
  -1.976481e+06  -8.787549e+05
  -3.753484e+05  -1.380736e+06
   1.161954e+06  -5.552854e+05
   9.043713e+05   4.670078e+05
  -8.313600e+05   5.536404e+05
  -2.203379e+06  -2.984687e+05
  -1.782596e+06  -1.384248e+06
   2.490355e+05  -2.005917e+06
   2.333046e+06  -1.634257e+06
   2.764157e+06  -2.261067e+05
   1.176866e+06   1.259473e+06
  -9.247783e+05   1.438686e+06
  -1.512014e+06   1.505494e+05
  -1.586825e+05  -1.053443e+06
   1.510093e+06  -6.921397e+05
   1.691570e+06   7.934209e+05
   3.327772e+05   1.643827e+06
  -1.078631e+06   9.807659e+05
  -1.253297e+06  -2.964893e+05
  -2.580967e+05  -7.694793e+05
   7.720732e+05  -4.593473e+04
   7.006831e+05   1.053393e+06
  -6.084628e+05   1.393551e+06
  -2.004255e+06   4.844742e+05
  -1.990097e+06  -1.089225e+06
  -3.372282e+05  -2.060275e+06
   1.450533e+06  -1.599658e+06
   1.712784e+06  -1.849800e+05
   4.936798e+05   8.668019e+05
  -6.639651e+05   7.925425e+05
  -6.485000e+05   5.954970e+04
   1.120069e+05  -3.891846e+05
   5.206618e+05  -2.286848e+05
   1.728125e+05   8.037102e+04
  -4.188653e+05  -3.759243e+04
  -5.180765e+05  -6.413005e+05
   2.028238e+05  -1.168530e+06
   1.380650e+06  -8.673501e+05
   2.056727e+06   4.490889e+05
   1.411424e+06   1.956694e+06
  -2.668986e+05   2.405530e+06
  -1.639194e+06   1.392092e+06
  -1.700616e+06  -1.439556e+05
  -8.675414e+05  -9.336094e+05
  -3.085253e+05  -7.105996e+05
  -4.371226e+05  -2.600865e+05
  -5.815928e+05  -3.083536e+05
  -7.084427e+04  -7.369127e+05
   8.778154e+05  -8.828312e+05
   1.452468e+06  -3.100648e+05
   1.051725e+06   7.473124e+05
  -2.644532e+05   1.474015e+06
  -1.736766e+06   1.049377e+06
  -2.234186e+06  -5.220574e+05
  -1.099239e+06  -2.104569e+06
   1.025485e+06  -2.327902e+06
   2.527643e+06  -9.914231e+05
   2.336176e+06   6.763703e+05
   9.612736e+05   1.351254e+06
  -2.054227e+05   9.706078e+05
  -4.238056e+05   5.281897e+05
  -1.372877e+05   7.389788e+05
  -1.496018e+05   1.266696e+06
  -6.835254e+05   1.245531e+06
  -1.276805e+06   2.838310e+05
  -1.299194e+06  -1.102990e+06
  -5.098210e+05  -1.894674e+06
   6.515387e+05  -1.414258e+06
   1.280105e+06   2.373517e+04
   7.884690e+05   1.279395e+06
  -3.960920e+05   1.377713e+06
  -1.140858e+06   4.049518e+05
  -7.908043e+05  -6.712133e+05
   1.169365e+05  -1.046251e+06
   5.163826e+05  -7.725901e+05
   8.083427e+04  -4.257923e+05
  -4.167047e+05  -3.491279e+05
  -4.734907e+04  -3.845389e+05
   1.134025e+06  -1.898327e+05
   2.026555e+06   3.647691e+05
   1.585216e+06   1.051905e+06
  -4.632238e+04   1.410782e+06
  -1.578106e+06   1.095115e+06
  -1.817666e+06   2.528526e+05
  -8.271965e+05  -4.824845e+05
   2.596154e+05  -5.483362e+05
   5.027297e+05  -3.410339e+04
   1.520059e+04   4.027992e+05
  -4.530357e+05   2.424766e+05
  -4.684647e+05  -3.497474e+05
  -2.186040e+05  -7.269976e+05
  -6.874825e+04  -4.777671e+05
  -1.415019e+05   1.034683e+05
  -2.984790e+05   2.988519e+05
  -2.723485e+05  -2.346763e+05
   1.695704e+05  -9.823240e+05
   9.136086e+05  -1.037908e+06
   1.335466e+06  -1.374729e+05
   8.085873e+05   9.243816e+05
  -4.336355e+05   1.108241e+06
  -1.243829e+06   2.956175e+05
  -7.149202e+05  -5.889959e+05
   7.072211e+05  -6.339085e+05
   1.584856e+06   1.197516e+05
   1.003427e+06   8.768831e+05
  -4.878345e+05   9.877852e+05
  -1.506480e+06   4.661249e+05
  -1.237048e+06  -2.056329e+05
  -1.301735e+05  -5.184844e+05
   6.506715e+05  -2.616193e+05
   3.724555e+05   2.953857e+05
  -5.976960e+05   5.014374e+05
  -1.173704e+06  -1.121353e+05
  -6.345611e+05  -1.191685e+06
   6.307087e+05  -1.678497e+06
   1.499016e+06  -8.463202e+05
   1.236082e+06   7.820504e+05
   1.663592e+05   1.791472e+06
  -7.636695e+05   1.281316e+06
  -9.215894e+05  -1.878950e+05
  -4.131337e+05  -1.196513e+06
   2.308460e+05  -9.671569e+05
   5.601986e+05  -7.637716e+04
   4.623067e+05   3.873750e+05
   1.656052e+05   1.428456e+05
   4.853751e+04  -9.614248e+04
   2.663676e+05   2.948115e+05
   4.872841e+05   9.710236e+05
   1.755778e+05   1.081072e+06
  -7.134207e+05   3.824221e+05
  -1.462749e+06  -4.917114e+05
  -1.265652e+06  -8.593536e+05
  -1.721465e+05  -6.990685e+05
   8.621526e+05  -4.012828e+05
   9.863619e+05  -1.646420e+05
   3.564455e+05   5.693317e+04
  -1.503154e+05   2.218274e+05
  -3.647949e+04   2.064006e+05
   2.651263e+05   1.013626e+05
   4.710632e+04   1.334876e+05
  -6.663152e+05   2.223878e+05
  -1.043350e+06  -2.937438e+04
  -4.175536e+05  -6.961690e+05
   8.599031e+05  -1.159383e+06
   1.706297e+06  -7.264643e+05
   1.399042e+06   4.525800e+05
   2.515992e+05   1.406994e+06
  -7.867412e+05   1.360074e+06
  -1.055068e+06   5.202501e+05
  -6.499017e+05  -2.421128e+05
  -1.279747e+05  -3.593372e+05
   7.069295e+04  -6.473814e+04
  -8.180306e+04   1.545694e+04
  -2.939659e+05  -3.721185e+05
  -2.337002e+05  -8.105928e+05
   1.887431e+05  -6.751328e+05
   6.772205e+05   1.296146e+05
   7.244756e+05   9.582224e+05
   1.035405e+05   1.030371e+06
  -7.526309e+05   2.390975e+05
  -1.023149e+06  -7.302805e+05
  -3.348299e+05  -1.091586e+06
   7.197408e+05  -6.685367e+05
   1.116373e+06   8.841935e+04
   5.241768e+05   6.200104e+05
  -2.952327e+05   6.756206e+05
  -3.859884e+05   3.630748e+05
   2.434513e+05   1.176125e+04
   6.476978e+05  -3.085680e+04
   1.433659e+05   3.097753e+05
  -8.330863e+05   6.655496e+05
  -1.267263e+06   5.195082e+05
  -7.620368e+05  -1.896638e+05
   1.072908e+05  -8.675136e+05
   5.654644e+05  -8.488040e+05
   4.302814e+05  -1.591931e+05
   4.933260e+04   4.768950e+05
  -2.431971e+05   4.335334e+05
  -3.487965e+05  -1.474999e+05
  -2.469198e+05  -5.790684e+05
   5.642837e+04  -4.292095e+05
   3.895994e+05   4.754696e+04
   4.728530e+05   2.886578e+05
   2.410943e+05   1.018320e+05
  -3.487189e+04  -1.532429e+05
  -8.284801e+04  -5.103396e+04
   1.330856e+04   3.494749e+05
  -4.725294e+04   5.522776e+05
  -3.172133e+05   2.221684e+05
  -4.583580e+05  -3.777596e+05
  -1.571348e+05  -6.466487e+05
   4.083499e+05  -3.114069e+05
   6.628751e+05   2.828252e+05
   2.492764e+05   5.729544e+05
  -5.120769e+05   3.599453e+05
  -8.829025e+05  -8.265053e+04
  -4.754682e+05  -3.820138e+05
   2.973004e+05  -4.002110e+05
   6.413957e+05  -2.256372e+05
   2.543958e+05  -1.677969e+04
  -3.398189e+05   6.847454e+04
  -4.032165e+05  -6.187315e+04
   1.661051e+05  -2.846676e+05
   7.362947e+05  -2.626096e+05
