
 $NMID
 id='ANONYMOUS ', fmtdat='(2E16.6)'
 volume=1.0
 tramp=1.0
 $END
   2.048819e+07   1.128328e+06
   1.220694e+07   1.202449e+07
  -2.402737e+06   1.336729e+07
  -9.971204e+06   6.226610e+06
  -6.565804e+06  -1.550783e+06
   7.730957e+05  -3.771925e+06
   4.065462e+06  -5.582286e+05
   1.961264e+06   3.632406e+06
  -1.872185e+06   4.566590e+06
  -3.860146e+06   1.420478e+06
  -2.874879e+06  -2.799394e+06
  -6.574882e+04  -3.941830e+06
   2.016772e+06  -9.035951e+05
   1.344449e+06   2.925468e+06
  -1.376738e+06   3.273854e+06
  -3.109735e+06  -2.408771e+05
  -1.770924e+06  -3.952799e+06
   1.530584e+06  -4.458473e+06
   3.948533e+06  -1.841166e+06
   3.829494e+06   1.362172e+06
   1.785955e+06   3.016818e+06
  -3.110865e+05   2.761284e+06
  -8.648708e+05   1.638998e+06
   1.783328e+05   1.087652e+06
   1.038078e+06   1.689082e+06
  -2.044019e+05   2.439814e+06
  -3.059739e+06   1.774705e+06
  -4.612869e+06  -3.909220e+05
  -2.872874e+06  -2.284976e+06
   5.821458e+05  -2.301071e+06
   2.358988e+06  -7.569796e+05
   1.182518e+06   7.437992e+05
  -1.055384e+06   1.028808e+06
  -1.943110e+06   2.306290e+04
  -1.030715e+06  -1.504909e+06
   4.506971e+05  -2.255852e+06
   1.233374e+06  -1.261093e+06
   9.217159e+05   7.437741e+05
   2.872133e+04   1.546386e+06
  -4.083860e+05   1.078026e+05
   2.286731e+05  -1.662172e+06
   1.226228e+06  -1.159429e+06
   1.102183e+06   1.225871e+06
  -5.163424e+05   2.342669e+06
  -2.082055e+06   4.569220e+05
  -1.737297e+06  -2.387235e+06
   5.288443e+05  -2.993656e+06
   2.779783e+06  -8.334606e+05
   3.044331e+06   1.793736e+06
   1.077592e+06   2.640438e+06
  -1.514546e+06   1.465922e+06
  -2.615393e+06  -4.310062e+05
  -1.383461e+06  -1.545299e+06
   8.941243e+05  -1.137203e+06
   1.955808e+06   2.449348e+05
   9.341832e+05   1.136992e+06
  -6.965451e+05   6.485167e+05
  -9.513965e+05  -4.564052e+05
   2.359665e+05  -7.124980e+05
   1.086823e+06   1.612618e+05
   3.381347e+05   1.015274e+06
  -1.255937e+06   8.351455e+05
  -1.962606e+06  -2.200963e+05
  -9.818783e+05  -1.393350e+06
   9.833315e+05  -2.092281e+06
   2.571753e+06  -1.841069e+06
   2.805110e+06  -3.704003e+05
   1.665935e+06   1.673556e+06
   8.800534e+04   2.800702e+06
  -7.859428e+05   2.209762e+06
  -6.618544e+05   8.532224e+05
  -3.150786e+05   2.574616e+05
  -5.697047e+05   5.702665e+05
  -1.270432e+06   5.824411e+05
  -1.537549e+06  -3.854031e+05
  -8.639624e+05  -1.463407e+06
   3.425759e+05  -1.377940e+06
   1.189367e+06  -4.580581e+04
   1.012645e+06   1.358669e+06
  -1.614694e+05   1.637958e+06
  -1.521865e+06   6.016564e+05
  -1.964421e+06  -9.140113e+05
  -1.095864e+06  -1.809439e+06
   2.603437e+05  -1.629463e+06
   9.329478e+05  -8.835736e+05
   7.751407e+05  -4.110128e+05
   7.278939e+05  -4.225895e+05
   1.409326e+06  -3.522344e+05
   2.138625e+06   3.265317e+05
   1.738250e+06   1.401393e+06
   4.893657e+04   2.138442e+06
  -1.754306e+06   1.972712e+06
  -2.322600e+06   9.089777e+05
  -1.387010e+06  -4.713249e+05
   8.895521e+04  -1.275260e+06
   8.236726e+05  -9.383186e+05
   3.404298e+05   1.064102e+05
  -6.514187e+05   6.872195e+05
  -1.015579e+06   1.872861e+05
  -4.056319e+05  -6.516253e+05
   3.896687e+05  -6.649582e+05
   4.162826e+05   1.547917e+05
  -3.239588e+05   5.963188e+05
  -9.406900e+05  -1.729772e+05
  -6.904723e+05  -1.489096e+06
   3.349661e+05  -1.966932e+06
   1.445806e+06  -1.053419e+06
   1.935755e+06   5.115618e+05
   1.467768e+06   1.565286e+06
   2.990406e+05   1.541177e+06
  -7.484880e+05   7.600709e+05
  -9.022408e+05   2.992804e+04
  -2.661209e+05  -4.969530e+04
   2.100102e+05   3.967644e+05
  -1.612112e+05   6.763549e+05
  -9.327544e+05   3.112093e+05
  -1.075016e+06  -3.968011e+05
  -2.877799e+05  -7.289327e+05
   5.989740e+05  -3.935322e+05
   5.957947e+05   1.884215e+05
  -3.271692e+05   3.963009e+05
  -1.215975e+06   5.986928e+03
  -1.108962e+06  -6.963745e+05
   2.885046e+04  -1.166739e+06
   1.257199e+06  -9.660093e+05
   1.517509e+06  -1.398051e+05
   6.372715e+05   6.708720e+05
  -4.867244e+05   7.431664e+05
  -7.809699e+05   6.591743e+04
  -7.312962e+04  -5.567152e+05
   8.021976e+05  -3.876119e+05
   9.400583e+05   3.869426e+05
   2.609397e+05   9.002432e+05
  -5.348386e+05   6.298611e+05
  -7.327150e+05  -5.897559e+04
  -2.495565e+05  -4.071266e+05
   3.477167e+05  -9.447484e+04
   3.770491e+05   4.960048e+05
  -2.952090e+05   7.117040e+05
  -1.041763e+06   2.470398e+05
  -1.044397e+06  -5.804699e+05
  -1.823875e+05  -1.094429e+06
   7.653863e+05  -8.635495e+05
   9.405208e+05  -1.140029e+05
   3.222281e+05   4.868050e+05
  -3.407324e+05   4.878736e+05
  -4.245589e+05   5.793662e+04
  -3.151116e+04  -2.786905e+05
   2.926798e+05  -2.281817e+05
   2.111041e+05   1.514426e+04
  -1.195626e+05   5.336130e+04
  -2.667929e+05  -2.452799e+05
   5.886458e+04  -5.700335e+05
   6.932838e+05  -4.543953e+05
   1.073212e+06   2.258233e+05
   7.343373e+05   1.030621e+06
  -1.596151e+05   1.302552e+06
  -9.044036e+05   7.993632e+05
  -9.730585e+05  -5.108406e+04
  -5.396366e+05  -5.804131e+05
  -1.757415e+05  -5.324400e+05
  -1.474949e+05  -2.300848e+05
  -2.006153e+05  -1.301324e+05
   4.383000e+03  -3.124521e+05
   4.430337e+05  -4.410351e+05
   7.509201e+05  -1.769556e+05
   5.743991e+05   4.071195e+05
  -1.124670e+05   8.188285e+05
  -9.092061e+05   5.806010e+05
  -1.196906e+06  -2.661619e+05
  -6.288343e+05  -1.097170e+06
   4.704028e+05  -1.232199e+06
   1.297714e+06  -5.776282e+05
   1.289367e+06   2.930009e+05
   6.218982e+05   7.265250e+05
  -5.200461e+04   6.092530e+05
  -2.892636e+05   3.627486e+05
  -1.942111e+05   3.872393e+05
  -1.503630e+05   6.108971e+05
  -3.581804e+05   6.119943e+05
  -6.497556e+05   1.283262e+05
  -6.749352e+05  -6.037161e+05
  -2.593487e+05  -1.023120e+06
   3.638133e+05  -7.618463e+05
   6.967516e+05  -7.823340e+03
   4.431191e+05   6.458889e+05
  -1.563025e+05   7.294209e+05
  -5.395213e+05   2.852284e+05
  -4.060007e+05  -2.486513e+05
  -9.260409e+03  -4.920106e+05
   1.754555e+05  -4.232269e+05
   5.313311e+03  -2.728747e+05
  -1.879775e+05  -2.147785e+05
   1.160573e+03  -2.070905e+05
   5.630264e+05  -9.468670e+04
   1.011239e+06   1.897989e+05
   8.343582e+05   5.292578e+05
   4.123211e+04   7.001665e+05
  -7.677427e+05   5.565331e+05
  -9.516938e+05   1.746902e+05
  -4.685768e+05  -1.759424e+05
   1.100256e+05  -2.475343e+05
   2.421451e+05  -4.511477e+04
  -3.759849e+04   1.601523e+05
  -2.846335e+05   9.635648e+04
  -2.309025e+05  -2.048219e+05
  -3.235276e+04  -4.120352e+05
   3.245196e+04  -2.635360e+05
  -8.232834e+04   8.881294e+04
  -1.967664e+05   2.083156e+05
  -1.340170e+05  -1.053854e+05
   1.359150e+05  -5.199596e+05
   4.749251e+05  -5.187570e+05
   6.154529e+05  -1.982500e+04
   3.380574e+05   4.949709e+05
  -2.397229e+05   5.182104e+05
  -6.183084e+05   7.409136e+04
  -3.601505e+05  -3.482240e+05
   3.727419e+05  -3.408362e+05
   8.757118e+05   5.230409e+04
   6.088354e+05   4.647356e+05
  -2.124454e+05   5.727414e+05
  -8.284550e+05   3.228884e+05
  -7.180384e+05  -7.212237e+04
  -1.001422e+05  -2.949759e+05
   3.427719e+05  -1.725917e+05
   1.804949e+05   1.346253e+05
  -3.502397e+05   2.308648e+05
  -6.195234e+05  -1.190599e+05
  -2.644689e+05  -6.715952e+05
   4.375731e+05  -8.664814e+05
   8.579293e+05  -3.826030e+05
   6.493522e+05   4.724169e+05
   4.723628e+04   9.870905e+05
  -4.349473e+05   7.154836e+05
  -5.060252e+05  -7.073797e+04
  -2.536333e+05  -6.422011e+05
   7.176902e+04  -5.515991e+05
   2.793518e+05  -6.310522e+04
   2.882665e+05   2.204495e+05
   1.396405e+05   9.182037e+04
   1.135723e+04  -6.931852e+04
   7.245938e+04   1.266802e+05
   2.277692e+05   5.184377e+05
   1.418042e+05   6.037329e+05
  -3.251077e+05   2.112663e+05
  -7.969599e+05  -2.911739e+05
  -7.275788e+05  -4.859294e+05
  -8.666735e+04  -3.666059e+05
   5.228028e+05  -1.939466e+05
   5.537879e+05  -9.133872e+04
   1.491764e+05   7.490916e+03
  -1.071399e+05   1.150893e+05
   2.945532e+04   1.415312e+05
   1.996987e+05   8.813463e+04
   1.081580e+03   6.966473e+04
  -4.251391e+05   8.199625e+04
  -5.521918e+05  -5.163339e+04
  -1.211055e+05  -3.708369e+05
   5.462441e+05  -5.705819e+05
   8.933350e+05  -3.101575e+05
   6.652578e+05   3.102223e+05
   7.773571e+04   7.726368e+05
  -4.344383e+05   6.903191e+05
  -5.713925e+05   2.139413e+05
  -3.498074e+05  -1.739896e+05
  -3.704276e+04  -1.898032e+05
   8.929014e+04   3.750767e+03
  -2.416930e+04   4.763225e+04
  -1.788140e+05  -1.856104e+05
  -1.374782e+05  -4.389053e+05
   1.240128e+05  -3.491036e+05
   3.739265e+05   1.209782e+05
   3.355276e+05   5.715966e+05
  -3.381156e+04   5.527401e+05
  -4.486191e+05   5.360997e+04
  -5.136766e+05  -4.735241e+05
  -1.126718e+05  -5.924059e+05
   4.129509e+05  -2.958893e+05
   5.661847e+05   9.176620e+04
   2.327223e+05   3.016070e+05
  -1.666629e+05   2.996515e+05
  -1.632180e+05   1.762217e+05
   1.842305e+05   3.837939e+04
   3.606021e+05   1.030648e+04
   4.899637e+04   1.591791e+05
  -4.654677e+05   3.450984e+05
  -6.501658e+05   2.895667e+05
  -3.529067e+05  -7.932914e+04
   8.488094e+04  -4.441533e+05
   2.793529e+05  -4.204742e+05
   1.807391e+05  -3.476786e+04
  -1.624139e+04   2.796026e+05
  -1.522761e+05   1.956342e+05
  -1.851417e+05  -1.377185e+05
  -1.090387e+05  -3.194841e+05
   5.456442e+04  -1.847338e+05
   2.067425e+05   5.704697e+04
   2.310880e+05   1.342947e+05
   1.266664e+05   3.200972e+04
   8.412749e+03  -4.450374e+04
  -4.353164e+04   4.894849e+04
  -6.968637e+04   2.191799e+05
  -1.360805e+05   2.419773e+05
  -2.075493e+05   2.138638e+04
  -1.708245e+05  -2.740890e+05
   2.089915e+04  -3.588396e+05
   2.526828e+05  -1.304748e+05
   3.139032e+05   2.029324e+05
   9.180754e+04   3.330160e+05
  -2.696801e+05   1.709664e+05
  -4.421949e+05  -9.067065e+04
  -2.306041e+05  -2.197426e+05
   1.709974e+05  -1.711894e+05
   3.395140e+05  -5.862297e+04
   1.001860e+05   7.674536e+03
  -2.394692e+05  -1.051923e+04
  -2.381818e+05  -9.997857e+04
   1.413667e+05  -1.826528e+05
   4.772041e+05  -1.183332e+05
