
 $NMID
 id='ANONYMOUS ', fmtdat='(2E16.6)'
 volume=1.0
 tramp=1.0
 $END
  -3.392727e+07   9.401192e+05
  -2.190869e+07  -1.845711e+07
   2.081184e+06  -2.252910e+07
   1.562407e+07  -1.145729e+07
   1.102599e+07   1.712573e+06
  -7.364633e+05   5.888033e+06
  -6.347087e+06   9.505787e+05
  -3.257114e+06  -5.679079e+06
   2.732606e+06  -7.244707e+06
   6.018849e+06  -2.567171e+06
   4.850194e+06   3.893962e+06
   7.200571e+05   5.965594e+06
  -2.722467e+06   1.657028e+06
  -2.103146e+06  -4.303606e+06
   2.052738e+06  -5.235982e+06
   5.166953e+06   8.465683e+04
   3.488793e+06   6.303139e+06
  -1.782102e+06   7.740210e+06
  -6.164829e+06   3.930209e+06
  -6.599449e+06  -1.350060e+06
  -3.646975e+06  -4.510242e+06
  -1.984658e+05  -4.617373e+06
   1.011014e+06  -3.050352e+06
  -3.745515e+05  -2.035695e+06
  -1.677511e+06  -2.723162e+06
   2.018941e+05  -3.842385e+06
   4.658264e+06  -2.992721e+06
   7.192566e+06   1.842384e+05
   4.646501e+06   3.126425e+06
  -5.935689e+05   3.330693e+06
  -3.333206e+06   1.180925e+06
  -1.663470e+06  -9.672170e+05
   1.576277e+06  -1.443253e+06
   2.929717e+06  -1.336988e+05
   1.815202e+06   2.061975e+06
  -1.910898e+05   3.429192e+06
  -1.541152e+06   2.297917e+06
  -1.514269e+06  -6.991798e+05
  -3.664527e+05  -2.267816e+06
   5.106919e+05  -3.281350e+05
  -2.391886e+05   2.538145e+06
  -1.884872e+06   2.002684e+06
  -1.906558e+06  -1.814885e+06
   7.128593e+05  -3.910004e+06
   3.517139e+06  -1.028657e+06
   3.139490e+06   3.798931e+06
  -6.535047e+05   5.112257e+06
  -4.547189e+06   1.679480e+06
  -5.111409e+06  -2.732820e+06
  -1.940195e+06  -4.235010e+06
   2.291982e+06  -2.412061e+06
   4.179819e+06   5.254612e+05
   2.357980e+06   2.238739e+06
  -1.235024e+06   1.725095e+06
  -3.047608e+06  -2.226318e+05
  -1.566309e+06  -1.568354e+06
   1.006013e+06  -9.730025e+05
   1.471878e+06   6.013001e+05
  -3.915057e+05   1.024032e+06
  -1.750065e+06  -2.738765e+05
  -5.099408e+05  -1.673369e+06
   2.128639e+06  -1.524634e+06
   3.338280e+06   1.418696e+05
   1.827675e+06   2.220539e+06
  -1.279464e+06   3.630534e+06
  -3.886432e+06   3.407147e+06
  -4.495422e+06   1.029781e+06
  -2.962648e+06  -2.419564e+06
  -5.587094e+05  -4.441920e+06
   9.540568e+05  -3.647302e+06
   9.453283e+05  -1.512229e+06
   4.853345e+05  -5.084807e+05
   8.813550e+05  -9.472629e+05
   1.967471e+06  -9.630913e+05
   2.397820e+06   5.121991e+05
   1.387704e+06   2.150967e+06
  -4.313941e+05   2.032129e+06
  -1.737662e+06   6.120968e+04
  -1.568290e+06  -2.023731e+06
   1.249337e+05  -2.506161e+06
   2.281574e+06  -1.078083e+06
   3.211631e+06   1.176859e+06
   2.059130e+06   2.712340e+06
  -1.080576e+05   2.702697e+06
  -1.372344e+06   1.682308e+06
  -1.267592e+06   8.805297e+05
  -1.214118e+06   7.855006e+05
  -2.312086e+06   6.565444e+05
  -3.539643e+06  -3.812421e+05
  -2.942644e+06  -2.124029e+06
  -2.226493e+05  -3.429975e+06
   2.680321e+06  -3.299092e+06
   3.589655e+06  -1.649465e+06
   2.161413e+06   5.923117e+05
  -4.400938e+04   1.954914e+06
  -1.124843e+06   1.496246e+06
  -4.401533e+05  -1.246218e+05
   9.796045e+05  -1.062054e+06
   1.517965e+06  -3.266480e+05
   6.495915e+05   9.437819e+05
  -5.140810e+05   9.516282e+05
  -5.457761e+05  -2.891360e+05
   6.038457e+05  -8.882672e+05
   1.579223e+06   3.981523e+05
   1.170811e+06   2.470001e+06
  -5.128569e+05   3.175450e+06
  -2.344510e+06   1.721742e+06
  -3.155972e+06  -7.134251e+05
  -2.417757e+06  -2.375819e+06
  -5.626839e+05  -2.420704e+06
   1.111587e+06  -1.286799e+06
   1.390962e+06  -1.522723e+05
   4.192291e+05   3.200261e+04
  -3.236206e+05  -6.234266e+05
   2.559130e+05  -1.068012e+06
   1.463475e+06  -5.153400e+05
   1.671031e+06   5.864951e+05
   4.192416e+05   1.092647e+06
  -9.459007e+05   5.463806e+05
  -8.673068e+05  -3.550345e+05
   6.340062e+05  -6.331111e+05
   2.005522e+06   1.469604e+04
   1.775455e+06   1.115790e+06
  -3.824414e+04   1.860526e+06
  -1.958636e+06   1.590813e+06
  -2.380364e+06   3.269472e+05
  -1.042204e+06  -9.873337e+05
   7.028052e+05  -1.186801e+06
   1.196725e+06  -1.643970e+05
   1.252475e+05   8.452032e+05
  -1.246299e+06   6.279241e+05
  -1.483145e+06  -5.724265e+05
  -4.272479e+05  -1.383370e+06
   8.175588e+05  -9.626776e+05
   1.108300e+06   1.047732e+05
   3.254715e+05   6.145455e+05
  -6.083717e+05   8.411937e+04
  -6.147584e+05  -8.603065e+05
   4.923787e+05  -1.196497e+06
   1.703416e+06  -4.542534e+05
   1.723033e+06   8.758388e+05
   3.607943e+05   1.734728e+06
  -1.149970e+06   1.418625e+06
  -1.444236e+06   2.539991e+05
  -4.889547e+05  -7.047467e+05
   5.195855e+05  -7.250479e+05
   6.006365e+05  -7.001009e+04
  -4.122777e+04   4.231862e+05
  -5.068344e+05   3.037225e+05
  -2.906599e+05  -8.675734e+04
   2.888231e+05  -1.048723e+05
   5.104030e+05   4.317721e+05
  -5.963233e+04   9.913790e+05
  -1.123791e+06   8.135489e+05
  -1.776840e+06  -2.953390e+05
  -1.274843e+06  -1.618771e+06
   1.437897e+05  -2.091404e+06
   1.367956e+06  -1.318734e+06
   1.530932e+06   1.160401e+04
   8.772489e+05   8.308841e+05
   3.211097e+05   7.475289e+05
   3.067433e+05   2.988290e+05
   4.174524e+05   2.084531e+05
   7.474241e+04   5.685151e+05
  -6.905983e+05   8.075734e+05
  -1.254606e+06   3.707828e+05
  -1.000577e+06  -6.205598e+05
   1.275555e+05  -1.355097e+06
   1.462485e+06  -1.022641e+06
   1.971184e+06   3.505354e+05
   1.068212e+06   1.752274e+06
  -7.232120e+05   2.032035e+06
  -2.080425e+06   9.967528e+05
  -2.068914e+06  -4.168450e+05
  -9.852156e+05  -1.122724e+06
   8.206811e+04  -9.354516e+05
   4.115815e+05  -5.552678e+05
   2.120217e+05  -6.283020e+05
   1.423301e+05  -1.018578e+06
   5.217745e+05  -1.038226e+06
   1.048368e+06  -2.708533e+05
   1.136972e+06   9.098538e+05
   4.945270e+05   1.615411e+06
  -5.216204e+05   1.238517e+06
  -1.109293e+06   4.042106e+04
  -7.449206e+05  -1.035876e+06
   2.329199e+05  -1.192616e+06
   8.989015e+05  -4.586460e+05
   6.961439e+05   4.419057e+05
   1.106607e+04   8.441767e+05
  -3.230779e+05   6.960148e+05
  -1.663626e+04   4.069868e+05
   3.526805e+05   3.061133e+05
   4.257097e+04   3.373969e+05
  -9.353982e+05   2.157502e+05
  -1.708954e+06  -2.221984e+05
  -1.398970e+06  -8.158166e+05
  -6.778506e+04  -1.170711e+06
   1.249555e+06  -9.776302e+05
   1.529058e+06  -3.239068e+05
   7.501243e+05   3.084493e+05
  -1.728099e+05   4.444990e+05
  -4.104161e+05   7.882673e+04
  -3.656494e+03  -2.991053e+05
   4.061567e+05  -2.096136e+05
   4.051593e+05   2.864791e+05
   1.545814e+05   6.337699e+05
   2.101462e+04   4.119280e+05
   1.251238e+05  -1.335086e+05
   2.914265e+05  -3.161532e+05
   2.535235e+05   1.861389e+05
  -1.412810e+05   8.702195e+05
  -7.478849e+05   9.126545e+05
  -1.076000e+06   1.252911e+05
  -6.585137e+05  -7.697577e+05
   3.357816e+05  -9.135767e+05
   1.020526e+06  -2.399293e+05
   6.252326e+05   5.019171e+05
  -5.724233e+05   5.814994e+05
  -1.395087e+06  -1.668257e+04
  -9.721525e+05  -7.064266e+05
   3.298097e+05  -9.169784e+05
   1.299173e+06  -5.356386e+05
   1.127061e+06   9.220158e+04
   1.601706e+05   4.569212e+05
  -5.454582e+05   2.759775e+05
  -3.123028e+05  -2.234840e+05
   5.259934e+05  -4.227587e+05
   1.009071e+06   1.030143e+05
   5.309038e+05   1.029479e+06
  -5.546108e+05   1.443724e+06
  -1.297280e+06   7.356545e+05
  -1.088035e+06  -6.604274e+05
  -1.899403e+05  -1.557595e+06
   6.229143e+05  -1.163689e+06
   8.153908e+05   9.717750e+04
   4.342764e+05   1.018734e+06
  -1.206697e+05   8.740719e+05
  -4.684114e+05   1.052618e+05
  -4.486622e+05  -3.302631e+05
  -1.877553e+05  -1.323263e+05
  -2.388607e+04   9.763230e+04
  -1.828548e+05  -2.182252e+05
  -4.307705e+05  -8.136628e+05
  -2.341817e+05  -9.413405e+05
   5.506825e+05  -3.636836e+05
   1.290794e+06   3.827340e+05
   1.169307e+06   7.066296e+05
   1.765226e+05   5.907199e+05
  -7.749538e+05   3.680754e+05
  -8.650940e+05   1.876048e+05
  -2.770134e+05  -1.366487e+04
   1.393568e+05  -1.918726e+05
  -2.155164e+04  -2.047447e+05
  -2.825791e+05  -1.088303e+05
  -2.454205e+04  -1.169348e+05
   6.245678e+05  -1.896956e+05
   8.962980e+05   1.343242e+04
   3.046404e+05   5.809949e+05
  -7.614702e+05   9.925701e+05
  -1.421450e+06   6.344482e+05
  -1.157125e+06  -3.837008e+05
  -2.321184e+05  -1.218325e+06
   6.323513e+05  -1.178416e+06
   8.972279e+05  -4.411284e+05
   5.742938e+05   2.217691e+05
   9.756008e+04   3.060846e+05
  -1.024582e+05   2.692850e+04
   5.479938e+04  -4.986107e+04
   2.870113e+05   2.996326e+05
   2.420245e+05   6.949248e+05
  -1.569359e+05   5.768678e+05
  -5.972593e+05  -1.300527e+05
  -6.177928e+05  -8.435005e+05
  -5.866677e+04  -8.811759e+05
   6.733124e+05  -1.758806e+05
   8.834996e+05   6.514144e+05
   2.819171e+05   9.321381e+05
  -6.138862e+05   5.576089e+05
  -9.421069e+05  -6.494751e+04
  -4.398385e+05  -4.904072e+05
   2.356841e+05  -5.464861e+05
   2.856466e+05  -3.127162e+05
  -2.534829e+05  -2.247032e+04
  -5.700829e+05   3.373377e+04
  -1.158315e+05  -2.556192e+05
   7.047897e+05  -5.996221e+05
   1.046411e+06  -5.107809e+05
   6.197497e+05   1.116133e+05
  -7.699138e+04   7.341997e+05
  -4.311362e+05   7.285660e+05
  -3.240458e+05   1.163205e+05
  -2.947088e+04  -4.282992e+05
   2.084556e+05  -3.558306e+05
   3.060572e+05   1.587936e+05
   2.193474e+05   4.962236e+05
  -4.945867e+04   3.359253e+05
  -3.353929e+05  -5.001455e+04
  -4.012926e+05  -2.116737e+05
  -2.104517e+05  -5.832951e+04
   1.418059e+04   1.004765e+05
   7.327370e+04  -2.131040e+04
   3.624311e+04  -3.256704e+05
   1.058956e+05  -4.331647e+05
   2.927220e+05  -1.261125e+05
   3.502772e+05   3.626529e+05
   7.878846e+04   5.600157e+05
  -3.660151e+05   2.571486e+05
  -5.511022e+05  -2.567107e+05
  -2.060361e+05  -5.053026e+05
   4.229708e+05  -3.153922e+05
   7.400985e+05   7.120393e+04
   4.062585e+05   3.211837e+05
  -2.482175e+05   3.216712e+05
  -5.379129e+05   1.711426e+05
  -1.880731e+05   1.374170e+04
   3.349938e+05  -3.287562e+04
   3.655773e+05   9.033087e+04
  -1.741110e+05   2.748293e+05
  -6.892264e+05   2.381957e+05
