
 $NMID
 id='ANONYMOUS ', fmtdat='(2E16.6)'
 volume=1.0
 tramp=1.0
 $END
  -4.199888e+07  -2.700248e+06
  -2.477049e+07  -2.451265e+07
   4.752930e+06  -2.703336e+07
   1.989799e+07  -1.282657e+07
   1.320800e+07   2.511685e+06
  -1.206900e+06   7.005782e+06
  -7.714614e+06   9.838854e+05
  -3.748732e+06  -7.013940e+06
   3.609989e+06  -8.877070e+06
   7.521163e+06  -2.886139e+06
   5.767267e+06   5.315793e+06
   4.219560e+05   7.660583e+06
  -3.666448e+06   1.809326e+06
  -2.473193e+06  -5.755055e+06
   2.821469e+06  -6.555746e+06
   6.353554e+06   4.351681e+05
   3.824675e+06   8.105575e+06
  -2.874577e+06   9.455891e+06
  -8.074443e+06   4.250519e+06
  -8.084870e+06  -2.494283e+06
  -3.884738e+06  -6.127162e+06
   5.147495e+05  -5.645765e+06
   1.559922e+06  -3.328759e+06
  -7.236649e+05  -2.344718e+06
  -2.357301e+06  -3.746677e+06
   5.110166e+05  -5.193408e+06
   6.453703e+06  -3.566704e+06
   9.395880e+06   9.177957e+05
   5.649820e+06   4.525471e+06
  -1.275860e+06   4.311663e+06
  -4.663026e+06   1.215320e+06
  -2.220015e+06  -1.629123e+06
   2.262814e+06  -2.121844e+06
   4.121864e+06  -1.240576e+05
   2.419067e+06   3.002717e+06
  -5.766768e+05   4.674766e+06
  -2.327695e+06   2.768371e+06
  -1.827166e+06  -1.327592e+06
  -1.586000e+04  -3.035225e+06
   8.778556e+05  -1.252579e+05
  -4.850643e+05   3.516744e+06
  -2.554538e+06   2.518795e+06
  -2.242024e+06  -2.353932e+06
   1.101998e+06  -4.650727e+06
   4.207805e+06  -8.088883e+05
   3.361451e+06   4.978725e+06
  -1.302637e+06   6.139942e+06
  -5.815725e+06   1.607396e+06
  -6.275766e+06  -3.814776e+06
  -2.259198e+06  -5.466454e+06
   3.011079e+06  -2.976300e+06
   5.311110e+06   8.165492e+05
   2.937561e+06   2.896213e+06
  -1.583392e+06   2.053866e+06
  -3.766049e+06  -4.766936e+05
  -1.849821e+06  -2.025149e+06
   1.320899e+06  -1.120656e+06
   1.867746e+06   8.205298e+05
  -3.864627e+05   1.259682e+06
  -2.028509e+06  -2.750872e+05
  -5.823119e+05  -1.822960e+06
   2.557391e+06  -1.584331e+06
   4.011317e+06   3.637496e+05
   2.076654e+06   2.831981e+06
  -1.980939e+06   4.522439e+06
  -5.369779e+06   4.090534e+06
  -5.923028e+06   8.988027e+05
  -3.557756e+06  -3.461890e+06
  -3.167443e+05  -5.784741e+06
   1.403813e+06  -4.587499e+06
   1.148456e+06  -1.951220e+06
   6.224932e+05  -8.435087e+05
   1.376997e+06  -1.371134e+06
   2.860393e+06  -1.150855e+06
   3.255358e+06   9.482179e+05
   1.731845e+06   3.070777e+06
  -7.343763e+05   2.774375e+06
  -2.396592e+06   3.258594e+04
  -2.029741e+06  -2.784468e+06
   3.250163e+05  -3.325620e+06
   3.112371e+06  -1.223136e+06
   4.089818e+06   1.860446e+06
   2.359261e+06   3.714878e+06
  -4.535386e+05   3.404326e+06
  -1.900750e+06   1.931961e+06
  -1.616048e+06   9.721162e+05
  -1.546627e+06   9.527282e+05
  -3.010759e+06   7.550378e+05
  -4.576776e+06  -6.750419e+05
  -3.724852e+06  -2.926945e+06
  -1.120165e+05  -4.505406e+06
   3.715622e+06  -4.193698e+06
   4.863861e+06  -1.954181e+06
   2.839926e+06   9.631151e+05
  -2.120587e+05   2.634257e+06
  -1.628839e+06   1.915983e+06
  -5.819028e+05  -2.117345e+05
   1.369516e+06  -1.345479e+06
   2.001378e+06  -3.287147e+05
   7.656292e+05   1.286387e+06
  -7.424470e+05   1.241258e+06
  -7.317400e+05  -3.705033e+05
   7.346081e+05  -1.144728e+06
   1.942363e+06   4.747115e+05
   1.447772e+06   3.121599e+06
  -6.389462e+05   4.075759e+06
  -2.994302e+06   2.241664e+06
  -4.108197e+06  -9.569473e+05
  -3.161107e+06  -3.194334e+06
  -6.772776e+05  -3.236188e+06
   1.543497e+06  -1.654252e+06
   1.861508e+06  -1.239208e+05
   5.507541e+05   6.400823e+04
  -3.929145e+05  -8.329724e+05
   3.894353e+05  -1.362138e+06
   1.921430e+06  -5.756798e+05
   2.129770e+06   8.406695e+05
   4.927347e+05   1.423600e+06
  -1.254317e+06   6.708981e+05
  -1.139056e+06  -4.889394e+05
   8.203820e+05  -8.206493e+05
   2.629044e+06   5.406908e+04
   2.331376e+06   1.512293e+06
  -8.704719e+04   2.458669e+06
  -2.639013e+06   2.025361e+06
  -3.145914e+06   3.217765e+05
  -1.306183e+06  -1.340289e+06
   9.917926e+05  -1.493708e+06
   1.559847e+06  -1.289506e+05
   9.625504e+04   1.113312e+06
  -1.668355e+06   7.507931e+05
  -1.911652e+06  -8.139792e+05
  -5.122286e+05  -1.817962e+06
   1.083851e+06  -1.231831e+06
   1.434319e+06   1.581318e+05
   4.109317e+05   7.952347e+05
  -7.835725e+05   7.104915e+04
  -7.510496e+05  -1.163143e+06
   7.210233e+05  -1.545560e+06
   2.272029e+06  -4.990579e+05
   2.217301e+06   1.250442e+06
   3.798822e+05   2.295295e+06
  -1.576367e+06   1.797441e+06
  -1.900441e+06   2.665438e+05
  -6.133643e+05  -9.371654e+05
   7.080733e+05  -9.282075e+05
   8.069491e+05  -7.205301e+04
  -4.469375e+04   5.674190e+05
  -6.803814e+05   4.130564e+05
  -4.217251e+05  -1.037127e+05
   3.376052e+05  -1.398032e+05
   6.378910e+05   5.575871e+05
  -1.146495e+05   1.279583e+06
  -1.508449e+06   1.010338e+06
  -2.317529e+06  -4.775384e+05
  -1.589288e+06  -2.194945e+06
   2.933282e+05  -2.750114e+06
   1.855940e+06  -1.686508e+06
   2.021553e+06   6.394054e+04
   1.155129e+06   1.133195e+06
   4.283707e+05   1.036273e+06
   3.875815e+05   4.540880e+05
   5.034797e+05   3.084537e+05
   5.003518e+04   7.384042e+05
  -9.389286e+05   1.025032e+06
  -1.664524e+06   4.410561e+05
  -1.308635e+06  -8.583747e+05
   2.071473e+05  -1.789165e+06
   1.967150e+06  -1.288376e+06
   2.581564e+06   5.509084e+05
   1.325196e+06   2.345067e+06
  -1.036380e+06   2.617845e+06
  -2.760535e+06   1.207198e+06
  -2.693397e+06  -6.228274e+05
  -1.270076e+06  -1.500848e+06
   1.167359e+05  -1.239778e+06
   5.689692e+05  -7.500124e+05
   3.485352e+05  -8.413637e+05
   2.741993e+05  -1.326145e+06
   7.474002e+05  -1.318902e+06
   1.387239e+06  -2.882236e+05
   1.446414e+06   1.262899e+06
   5.660264e+05   2.155843e+06
  -7.535250e+05   1.606228e+06
  -1.460652e+06   2.616394e+03
  -9.248107e+05  -1.386364e+06
   3.525506e+05  -1.542339e+06
   1.170850e+06  -5.613678e+05
   8.658512e+05   5.889572e+05
  -2.196394e+04   1.077116e+06
  -4.312142e+05   8.808980e+05
  -2.267026e+04   5.367718e+05
   4.486001e+05   4.319522e+05
   3.707431e+04   4.521325e+05
  -1.230805e+06   2.312208e+05
  -2.220790e+06  -3.868033e+05
  -1.791480e+06  -1.137329e+06
  -3.466218e+04  -1.517936e+06
   1.680604e+06  -1.200355e+06
   2.012398e+06  -3.540762e+05
   9.592622e+05   4.171574e+05
  -2.504378e+05   5.585913e+05
  -5.310494e+05   8.660022e+04
   2.877158e+04  -3.870512e+05
   5.569015e+05  -2.574668e+05
   5.169097e+05   4.013589e+05
   1.581618e+05   8.619889e+05
  -8.244204e+03   5.579961e+05
   1.644434e+05  -1.823280e+05
   4.013309e+05  -4.255986e+05
   3.253761e+05   2.546298e+05
  -2.356996e+05   1.151706e+06
  -1.035021e+06   1.158772e+06
  -1.413683e+06   8.081591e+04
  -8.081229e+05  -1.065694e+06
   5.034016e+05  -1.170432e+06
   1.359592e+06  -2.371915e+05
   7.997170e+05   7.017275e+05
  -7.772850e+05   7.364670e+05
  -1.837195e+06  -7.833616e+04
  -1.263283e+06  -9.580537e+05
   4.538715e+05  -1.191797e+06
   1.724475e+06  -6.665962e+05
   1.485373e+06   1.542616e+05
   1.997278e+05   6.070776e+05
  -7.240109e+05   3.421019e+05
  -3.899797e+05  -3.096898e+05
   7.300312e+05  -5.281262e+05
   1.333737e+06   2.024186e+05
   6.364095e+05   1.404542e+06
  -8.304018e+05   1.883901e+06
  -1.768209e+06   8.986121e+05
  -1.406033e+06  -9.353420e+05
  -1.709610e+05  -2.071677e+06
   8.750183e+05  -1.513183e+06
   1.065561e+06   1.569919e+05
   5.307924e+05   1.356099e+06
  -1.831548e+05   1.143536e+06
  -6.142034e+05   1.172373e+05
  -5.875601e+05  -4.526550e+05
  -2.555444e+05  -1.782340e+05
  -2.898869e+04   1.276365e+05
  -2.069248e+05  -3.032748e+05
  -5.179173e+05  -1.097862e+06
  -2.773155e+05  -1.245533e+06
   7.273416e+05  -4.411822e+05
   1.687407e+06   5.698514e+05
   1.520934e+06   9.818397e+05
   2.019457e+05   7.849307e+05
  -1.055047e+06   4.544774e+05
  -1.152626e+06   2.112311e+05
  -3.495335e+05  -3.362421e+04
   1.994187e+05  -2.488285e+05
  -3.729432e+04  -2.670780e+05
  -3.885010e+05  -1.542760e+05
  -2.106167e+04  -1.613557e+05
   8.554037e+05  -2.249414e+05
   1.185047e+06   7.155480e+04
   3.479068e+05   7.993856e+05
  -1.080334e+06   1.273431e+06
  -1.911193e+06   7.428822e+05
  -1.497219e+06  -5.927501e+05
  -2.374388e+05  -1.629694e+06
   8.993619e+05  -1.514666e+06
   1.217379e+06  -5.240561e+05
   7.555890e+05   3.304814e+05
   1.057048e+05   4.146574e+05
  -1.565626e+05   3.199717e+04
   6.217246e+04  -6.871123e+04
   3.659442e+05   4.013134e+05
   2.878512e+05   9.260583e+05
  -2.440840e+05   7.529388e+05
  -7.929883e+05  -2.115816e+05
  -7.700006e+05  -1.164878e+06
  -1.263295e+04  -1.179436e+06
   9.193991e+05  -1.894687e+05
   1.138322e+06   9.257260e+05
   3.118245e+05   1.254559e+06
  -8.530310e+05   6.950547e+05
  -1.238241e+06  -1.474442e+05
  -5.384106e+05  -6.696605e+05
   3.513407e+05  -6.959056e+05
   3.858623e+05  -3.848704e+05
  -3.504700e+05  -3.779504e+04
  -7.604411e+05   1.398919e+04
  -1.326899e+05  -3.455706e+05
   9.628892e+05  -7.556533e+05
   1.392338e+06  -6.180621e+05
   7.922715e+05   1.823074e+05
  -1.473804e+05   9.622287e+05
  -6.033759e+05   9.249290e+05
  -4.301055e+05   1.162729e+05
  -1.317615e+04  -5.786418e+05
   3.034045e+05  -4.541718e+05
   4.061057e+05   2.373202e+05
   2.611659e+05   6.700941e+05
  -9.573425e+04   4.337719e+05
  -4.443600e+05  -8.996193e+04
  -5.082089e+05  -2.975469e+05
  -2.689100e+05  -8.185823e+04
  -1.952506e+01   1.296742e+05
   8.225087e+04  -4.212069e+04
   7.527941e+04  -4.491329e+05
   1.966613e+05  -5.735523e+05
   4.187390e+05  -1.361868e+05
   4.396500e+05   5.251567e+05
   5.466280e+04   7.638415e+05
  -5.088521e+05   3.190113e+05
  -7.133769e+05  -3.841826e+05
  -2.423738e+05  -6.892213e+05
   5.749674e+05  -3.888526e+05
   9.723596e+05   1.463142e+05
   5.161722e+05   4.505454e+05
  -3.534535e+05   4.030527e+05
  -7.267827e+05   1.833362e+05
  -2.422510e+05  -1.735812e+03
   4.650201e+05  -2.641870e+04
   4.942061e+05   1.482174e+05
  -2.491667e+05   3.700277e+05
  -9.418374e+05   2.904823e+05
