
 $NMID
 id='ANONYMOUS ', fmtdat='(2E16.6)'
 volume=1.0
 tramp=1.0
 $END
  -2.321857e+07  -7.423552e+04
  -1.567612e+07  -1.017870e+07
  -5.335961e+05  -1.438569e+07
   9.633526e+06  -1.048784e+07
   8.646985e+06  -1.853201e+06
   9.457915e+05   4.189668e+06
  -4.767916e+06   2.702767e+06
  -4.089498e+06  -3.575457e+06
   6.685666e+05  -6.939984e+06
   4.378289e+06  -3.347796e+06
   4.014641e+06   3.096881e+06
   5.692082e+05   5.209221e+06
  -2.416171e+06   1.023849e+06
  -2.061316e+06  -4.451692e+06
   1.234298e+06  -5.257840e+06
   4.035535e+06  -7.060794e+05
   3.181880e+06   4.640131e+06
  -9.007642e+05   6.028576e+06
  -4.527690e+06   2.861924e+06
  -4.592017e+06  -1.476391e+06
  -1.747347e+06  -3.370883e+06
   5.424771e+05  -2.380361e+06
  -7.814205e+04  -1.081662e+06
  -2.295904e+06  -1.780106e+06
  -2.619732e+06  -3.828660e+06
   6.795773e+05  -4.547908e+06
   5.309010e+06  -2.460927e+06
   6.930856e+06   1.047889e+06
   3.657834e+06   3.273275e+06
  -1.621650e+06   2.754591e+06
  -3.953651e+06   2.458798e+05
  -1.468132e+06  -2.115167e+06
   2.745602e+06  -2.305205e+06
   4.231297e+06   8.822569e+04
   1.987490e+06   3.140476e+06
  -1.042672e+06   3.922871e+06
  -1.843157e+06   1.516441e+06
  -4.813123e+05  -1.531757e+06
   8.106418e+05  -1.786763e+06
   5.544346e+05   9.676008e+05
  -7.913953e+05   3.279183e+06
  -1.892411e+06   2.181706e+06
  -1.788300e+06  -1.145546e+06
  -3.545165e+05  -2.833676e+06
   1.479548e+06  -9.788080e+05
   1.948705e+06   2.269580e+06
  -6.565224e+04   3.364956e+06
  -3.296514e+06   1.200593e+06
  -4.647776e+06  -2.124607e+06
  -2.325079e+06  -3.745714e+06
   1.881238e+06  -2.636473e+06
   4.195230e+06  -8.844997e+04
   2.759744e+06   1.737747e+06
  -5.832923e+05   1.637757e+06
  -2.477188e+06   1.769754e+05
  -1.517539e+06  -1.013770e+06
   6.875000e+05  -8.084645e+05
   1.563591e+06   4.142512e+05
   3.052831e+05   1.276327e+06
  -1.428383e+06   8.375223e+05
  -1.419210e+06  -4.909501e+05
   5.786832e+05  -1.348608e+06
   2.386620e+06  -6.640124e+05
   1.697909e+06   1.327967e+06
  -1.301299e+06   3.086052e+06
  -4.018732e+06   2.916406e+06
  -4.220785e+06   5.147583e+05
  -2.245308e+06  -2.535031e+06
  -2.055165e+05  -4.095223e+06
   5.267739e+05  -3.500248e+06
   4.598346e+05  -2.047902e+06
   8.049297e+05  -1.300881e+06
   1.866631e+06  -1.228519e+06
   2.825473e+06  -5.249736e+05
   2.689327e+06   1.314807e+06
   1.192400e+06   2.914309e+06
  -9.377084e+05   2.461581e+06
  -2.321257e+06  -3.574859e+04
  -1.838842e+06  -2.477259e+06
   3.089015e+05  -2.753746e+06
   2.473294e+06  -7.991611e+05
   2.914377e+06   1.569544e+06
   1.471463e+06   2.589748e+06
  -3.379897e+05   2.070579e+06
  -1.035674e+06   1.127277e+06
  -7.811034e+05   7.848856e+05
  -9.728170e+05   1.002206e+06
  -2.315038e+06   9.026358e+05
  -3.662553e+06  -2.282990e+05
  -3.121338e+06  -2.137784e+06
  -2.863831e+05  -3.644812e+06
   2.929232e+06  -3.520129e+06
   3.991033e+06  -1.580856e+06
   2.267054e+06   9.286261e+05
  -3.571697e+05   2.209312e+06
  -1.455653e+06   1.477121e+06
  -4.463609e+05  -2.425510e+05
   1.143623e+06  -1.090114e+06
   1.551175e+06  -3.040007e+05
   5.442824e+05   9.692582e+05
  -6.493452e+05   1.036088e+06
  -7.664141e+05  -2.612588e+05
   3.327567e+05  -1.220282e+06
   1.633971e+06  -2.450431e+05
   1.806421e+06   2.136540e+06
   2.703346e+05   3.630345e+06
  -2.162841e+06   2.583428e+06
  -3.710592e+06  -2.678049e+05
  -3.082814e+06  -2.598307e+06
  -7.733496e+05  -2.824839e+06
   1.281839e+06  -1.427248e+06
   1.567065e+06  -1.043108e+05
   4.534888e+05   3.453029e+04
  -3.579558e+05  -6.626024e+05
   2.047901e+05  -1.067804e+06
   1.428387e+06  -5.399737e+05
   1.721586e+06   4.959211e+05
   5.183213e+05   1.064144e+06
  -9.743717e+05   6.331961e+05
  -1.045991e+06  -3.529907e+05
   5.842365e+05  -8.649155e+05
   2.302333e+06  -2.372983e+05
   2.207301e+06   1.165907e+06
   1.301299e+05   2.189401e+06
  -2.123554e+06   1.883964e+06
  -2.596591e+06   4.159800e+05
  -1.109689e+06  -9.929199e+05
   7.089698e+05  -1.169398e+06
   1.161965e+06  -1.459884e+05
   6.441540e+04   8.450054e+05
  -1.314147e+06   6.548649e+05
  -1.608519e+06  -5.444236e+05
  -5.857049e+05  -1.465277e+06
   7.677998e+05  -1.155878e+06
   1.220813e+06  -4.353403e+04
   4.602003e+05   6.035343e+05
  -5.820423e+05   1.124506e+05
  -6.336793e+05  -9.053653e+05
   5.585816e+05  -1.270892e+06
   1.848135e+06  -4.532562e+05
   1.838512e+06   9.607283e+05
   3.935374e+05   1.847595e+06
  -1.186155e+06   1.529522e+06
  -1.532450e+06   3.282869e+05
  -5.794018e+05  -7.267469e+05
   5.259689e+05  -8.156373e+05
   7.167743e+05  -7.783119e+04
   2.544254e+04   5.754181e+05
  -6.346493e+05   4.658774e+05
  -5.167463e+05  -1.107902e+05
   1.959064e+05  -2.808091e+05
   6.046880e+05   3.178686e+05
   4.155238e+04   1.039419e+06
  -1.168491e+06   9.116641e+05
  -1.918482e+06  -2.883260e+05
  -1.378748e+06  -1.734140e+06
   1.447951e+05  -2.291439e+06
   1.483883e+06  -1.529697e+06
   1.747243e+06  -7.514540e+04
   1.102721e+06   9.710085e+05
   4.124359e+05   1.016515e+06
   2.335405e+05   4.610155e+05
   3.172842e+05   1.839663e+05
   5.911851e+04   5.295511e+05
  -6.977109e+05   9.011055e+05
  -1.378697e+06   4.851434e+05
  -1.190431e+06  -6.832124e+05
   5.590324e+04  -1.578211e+06
   1.586192e+06  -1.201518e+06
   2.185327e+06   3.411418e+05
   1.234746e+06   1.866916e+06
  -6.691968e+05   2.193201e+06
  -2.166893e+06   1.162921e+06
  -2.291076e+06  -3.231133e+05
  -1.231868e+06  -1.195265e+06
  -1.116330e+04  -1.142547e+06
   5.283921e+05  -7.347838e+05
   3.996504e+05  -6.800878e+05
   2.420489e+05  -1.005812e+06
   5.376891e+05  -1.046528e+06
   1.083589e+06  -2.680780e+05
   1.212479e+06   9.961017e+05
   5.291236e+05   1.759875e+06
  -5.775724e+05   1.347971e+06
  -1.213980e+06   7.163404e+04
  -8.402537e+05  -1.067868e+06
   1.648330e+05  -1.281103e+06
   8.701371e+05  -5.938925e+05
   7.350257e+05   3.254341e+05
   1.148588e+05   8.236945e+05
  -2.133867e+05   7.657992e+05
   4.172533e+04   4.918235e+05
   3.611947e+05   3.623480e+05
   3.197840e+04   3.795733e+05
  -9.667679e+05   2.522445e+05
  -1.788854e+06  -2.111866e+05
  -1.517490e+06  -8.339367e+05
  -1.556515e+05  -1.202239e+06
   1.257764e+06  -1.031249e+06
   1.619216e+06  -4.154812e+05
   8.382570e+05   2.197033e+05
  -1.458255e+05   4.286019e+05
  -4.124713e+05   1.301069e+05
   3.368580e+04  -2.611578e+05
   4.777181e+05  -2.110808e+05
   4.272957e+05   3.138511e+05
   8.850133e+04   7.177184e+05
  -5.316101e+04   4.586398e+05
   1.409096e+05  -2.025435e+05
   3.740684e+05  -4.189500e+05
   2.912091e+05   1.912325e+05
  -1.903746e+05   9.770519e+05
  -8.083778e+05   9.772352e+05
  -1.076930e+06   7.601493e+04
  -6.202994e+05  -8.461698e+05
   3.700202e+05  -9.162827e+05
   1.059308e+06  -1.778253e+05
   6.689424e+05   5.731411e+05
  -5.990983e+05   6.487607e+05
  -1.551843e+06   3.402458e+04
  -1.168884e+06  -7.370256e+05
   2.707849e+05  -1.062735e+06
   1.428370e+06  -7.055729e+05
   1.299648e+06   3.084998e+04
   2.202127e+05   5.145169e+05
  -5.813207e+05   3.413570e+05
  -3.120640e+05  -2.188848e+05
   6.152176e+05  -4.228747e+05
   1.096120e+06   1.763871e+05
   5.033571e+05   1.161114e+06
  -7.005290e+05   1.547619e+06
  -1.465430e+06   7.449031e+05
  -1.184699e+06  -7.579916e+05
  -1.922092e+05  -1.725645e+06
   6.840832e+05  -1.317586e+06
   9.056288e+05   5.501859e+04
   5.287736e+05   1.106897e+06
  -6.142983e+04   9.936893e+05
  -4.910514e+05   1.432539e+05
  -5.435019e+05  -3.717586e+05
  -2.635337e+05  -1.601671e+05
  -3.493054e+03   1.233220e+05
  -1.161698e+05  -2.059614e+05
  -4.388504e+05  -8.787628e+05
  -3.243419e+05  -1.041898e+06
   5.255316e+05  -4.054538e+05
   1.427226e+06   4.249843e+05
   1.346463e+06   7.744668e+05
   1.991508e+05   6.343330e+05
  -9.089454e+05   3.979497e+05
  -9.699452e+05   2.259211e+05
  -2.536095e+05   1.499768e+04
   1.765367e+05  -2.050953e+05
  -9.206412e+04  -2.540096e+05
  -3.834454e+05  -1.553047e+05
   1.782066e+03  -1.346939e+05
   7.649734e+05  -1.798459e+05
   9.737942e+05   4.658761e+04
   2.207809e+05   6.347088e+05
  -9.164279e+05   1.039172e+06
  -1.518513e+06   6.210966e+05
  -1.175589e+06  -4.814013e+05
  -2.110391e+05  -1.350916e+06
   6.895677e+05  -1.256305e+06
   9.895694e+05  -4.221106e+05
   6.387239e+05   2.895916e+05
   7.168484e+04   3.372341e+05
  -1.771950e+05  -9.690151e+03
   3.416967e+04  -1.005433e+05
   3.418615e+05   3.076998e+05
   2.842018e+05   7.611760e+05
  -1.954874e+05   6.146998e+05
  -6.688654e+05  -1.979908e+05
  -6.243128e+05  -9.822062e+05
   2.756445e+04  -9.628525e+05
   7.861775e+05  -1.178159e+05
   9.378208e+05   7.910583e+05
   2.474483e+05   1.023959e+06
  -6.957593e+05   5.497494e+05
  -9.970455e+05  -1.092408e+05
  -4.304857e+05  -5.001613e+05
   2.668810e+05  -5.314586e+05
   2.629498e+05  -3.184459e+05
  -3.399417e+05  -4.814085e+04
  -6.410909e+05   1.839353e+04
  -1.001208e+05  -2.711777e+05
   7.802374e+05  -6.526663e+05
   1.096851e+06  -5.838163e+05
   6.108760e+05   8.853537e+04
  -1.041583e+05   7.774792e+05
  -4.319726e+05   7.601015e+05
  -2.982657e+05   7.230699e+04
   6.246278e+03  -4.968628e+05
   2.486462e+05  -3.527536e+05
   3.394630e+05   2.340078e+05
   2.220680e+05   5.495766e+05
  -7.917935e+04   3.170000e+05
  -3.652846e+05  -8.558980e+04
  -4.124983e+05  -2.018142e+05
  -2.258308e+05  -3.308475e+04
  -1.774290e+04   6.877985e+04
   7.274330e+04  -1.119597e+05
   1.203792e+05  -3.971581e+05
   2.385957e+05  -4.189388e+05
   3.655993e+05  -3.320416e+04
   3.068733e+05   4.757051e+05
  -2.346994e+04   6.305089e+05
  -4.361132e+05   2.482156e+05
  -5.628616e+05  -3.322779e+05
  -1.878045e+05  -5.817047e+05
   4.529014e+05  -3.264971e+05
   7.764950e+05   1.212316e+05
   4.208684e+05   3.624815e+05
  -2.815528e+05   3.043741e+05
  -5.807366e+05   1.228170e+05
  -1.625785e+05  -1.452937e+03
   4.323075e+05   1.174217e+04
   4.270154e+05   1.676799e+05
  -2.439516e+05   3.383245e+05
  -8.420943e+05   2.497139e+05
