
 $NMID
 id='ANONYMOUS ', fmtdat='(2E16.6)'
 volume=1.0
 tramp=1.0
 $END
  -2.978589e+03  -3.931078e+01
  -1.958742e+03  -1.157625e+03
  -2.598709e+02  -1.842777e+03
   8.952185e+02  -1.245210e+03
   9.734941e+02  -2.875087e+02
   1.798707e+02   1.313129e+02
  -1.976530e+02   6.755599e+01
  -2.347087e+01  -3.882260e+02
   3.501023e+02  -6.465727e+02
   4.950128e+02  -1.266046e+02
   4.176573e+02   3.252809e+02
   6.877157e+01   5.689979e+02
  -1.821350e+02   1.129134e+02
  -2.671902e+02  -3.716661e+02
   3.772786e+01  -5.357388e+02
   3.272749e+02  -1.296045e+02
   2.806671e+02   3.907095e+02
  -1.342000e+02   6.438052e+02
  -3.760502e+02   2.671095e+02
  -3.832391e+02  -1.546044e+02
  -1.435251e+02  -3.630026e+02
   6.832869e+01  -2.633318e+02
   9.528080e+01  -4.629056e+01
  -1.910207e+02  -9.173176e+01
  -2.596553e+02  -2.549847e+02
   2.307457e+01  -2.660371e+02
   3.701244e+02  -1.463963e+02
   5.257427e+02   1.633819e+02
   2.251915e+02   2.880326e+02
  -2.952238e+02   1.724170e+02
  -4.156964e+02  -7.781463e+01
  -1.550621e+02  -2.855943e+02
   2.442697e+02  -2.902960e+02
   3.648838e+02  -1.391454e+02
   3.295903e+02   7.212914e+01
   9.512392e+01   2.755038e+02
   3.926351e+01   1.795342e+02
   5.810544e+01  -4.090160e+01
   1.804068e+02  -1.053742e+02
   1.597576e+02   1.332601e+02
   9.870380e-01   4.325802e+02
  -2.010712e+02   4.375123e+02
  -3.014369e+02   1.196303e+01
  -6.909531e+01  -2.548850e+02
   1.532100e+02  -8.141568e+01
   1.029235e+02   2.258753e+02
  -1.186707e+02   3.276597e+02
  -3.337211e+02   1.031363e+02
  -4.395867e+02  -3.348567e+02
  -1.502857e+02  -4.283132e+02
   2.450078e+02  -2.482019e+02
   4.661249e+02   3.381225e+01
   3.248094e+02   2.603937e+02
  -2.070389e+01   2.346596e+02
  -2.491353e+02   5.907293e+01
  -1.706822e+02   1.761593e+01
  -1.298590e+01  -4.935469e+00
   1.440423e+01   3.913371e+01
  -9.570300e+01   2.618752e+01
  -2.187513e+02  -1.628482e+01
  -1.181147e+02  -1.575437e+02
   1.515178e+02  -2.088877e+02
   3.229576e+02  -1.174082e+02
   2.407512e+02   1.038896e+02
  -1.323282e+01   3.268204e+02
  -2.847252e+02   3.420485e+02
  -3.066234e+02   1.731151e+02
  -1.867289e+02  -1.218450e+02
  -8.867068e+01  -2.808674e+02
  -1.988085e+01  -2.602242e+02
  -1.384430e+01  -1.526146e+02
   2.167111e+01  -1.410890e+02
   1.255925e+02  -1.023887e+02
   2.329894e+02  -3.176873e+01
   1.824025e+02   1.266286e+02
   7.705794e+01   2.271352e+02
  -6.846609e+01   1.795698e+02
  -1.972312e+02  -3.192862e+01
  -8.793701e+01  -2.296172e+02
   6.785910e+01  -2.170167e+02
   2.650539e+02  -3.683866e+01
   2.844357e+02   1.829419e+02
   1.585682e+02   2.349031e+02
  -2.038060e+01   2.612882e+02
  -1.432882e+02   1.284777e+02
  -1.333233e+02   6.250691e+01
  -1.511095e+02   9.805790e+01
  -2.608092e+02   6.776471e+01
  -4.035531e+02  -5.240213e+01
  -2.760127e+02  -2.490869e+02
   5.651675e+01  -4.053489e+02
   3.864686e+02  -3.871009e+02
   3.932910e+02  -1.466781e+02
   2.805831e+02   7.578106e+01
  -1.560967e+00   2.071703e+02
  -8.468926e+01   1.608552e+02
   3.126809e+01   9.234574e+00
   1.079682e+02  -3.189346e+01
   1.089222e+02   3.620659e+01
   6.468339e+00   1.150607e+02
  -9.706285e+01   5.465635e+01
  -1.107409e+02  -7.355138e+01
   4.097032e+01  -1.350204e+02
   1.537411e+02   4.123286e+01
   1.310208e+02   2.369006e+02
  -1.633504e+01   3.436598e+02
  -2.202701e+02   2.139933e+02
  -3.606919e+02  -7.063577e+01
  -2.809679e+02  -2.424223e+02
  -6.289387e+01  -2.225542e+02
   1.419393e+02  -1.774773e+02
   1.155934e+02  -5.650802e+00
   2.248850e+01   1.695716e+01
  -5.702325e+01  -8.777967e+01
  -3.747706e+01  -5.445307e+01
   9.261889e+01  -4.297593e+01
   1.542616e+02   2.538822e+01
   1.181241e+01   7.584948e+00
  -7.253618e+01   4.770739e+01
  -1.342586e+00  -1.034849e+02
   1.595821e+02  -7.191965e+01
   2.712332e+02   2.679744e+01
   2.449526e+02   1.373178e+02
   3.058207e+01   2.354290e+02
  -2.182785e+02   2.281120e+02
  -2.442622e+02   6.235549e+01
  -9.220845e+01  -2.168261e+01
   2.500402e+01  -1.953833e+01
   2.829665e+01  -1.222589e+01
  -2.168586e+01   6.818268e+01
  -2.224331e+02  -1.043639e+01
  -1.373979e+02  -8.806871e+01
  -4.984691e+01  -1.398839e+02
   8.445553e+01  -1.079017e+02
   4.817843e+01  -2.937947e+01
   4.895701e+01   4.229836e+01
  -9.329035e+01  -6.179207e+00
  -1.715259e+01  -1.178446e+02
   9.238603e+01  -1.370628e+02
   2.034007e+02  -1.293232e+01
   1.290111e+02   1.341377e+02
  -3.099613e+01   1.819548e+02
  -1.610123e+02   1.111135e+02
  -1.179173e+02  -2.607341e+01
  -4.121315e+01  -1.027650e+02
   5.966480e+01  -6.145724e+01
   6.419190e+01  -2.226986e+01
   2.133689e+00  -1.258751e+01
  -3.338938e+01   2.837336e+01
   2.937021e+01   3.014154e+01
   9.214292e+01  -3.882860e-01
   7.945291e+01   8.816955e+01
  -1.114069e+00   1.253197e+02
  -1.136758e+02   1.379157e+02
  -2.244566e+02  -2.326806e+01
  -1.701074e+02  -1.574864e+02
  -3.479964e+01  -1.833593e+02
   9.753906e+01  -1.727952e+02
   5.339788e+01  -2.714925e+01
   9.659249e+01   5.237404e+01
   4.037372e+01   1.280576e+01
   7.305809e+01  -1.848139e+01
   9.537141e+01  -8.402865e+00
   6.287584e+00   7.359971e+01
  -2.578259e+01   1.434463e+02
  -9.497252e+01   4.922945e+01
  -1.292397e+02  -4.109078e+01
   2.682662e+01  -1.346719e+02
   1.682376e+02  -1.075255e+02
   1.697091e+02   1.014586e+02
   6.647525e+01   2.252634e+02
  -1.180404e+02   1.774131e+02
  -2.566380e+02   4.279046e+01
  -2.505542e+02  -4.525109e+01
  -1.043726e+02  -1.495742e+02
   5.993949e+01  -1.092017e+02
   5.946369e+01  -4.730878e+01
   5.684980e+01  -5.273987e+01
   7.901172e+01  -6.126633e+01
   1.068701e+02  -3.327351e+01
   1.421992e+02  -1.166294e+01
   1.301275e+02   1.385797e+02
   7.930950e+00   1.692176e+02
  -8.623449e+01   1.274230e+02
  -1.486013e+02   6.397816e+01
  -1.139833e+02  -1.482319e+02
   5.889186e+00  -1.596373e+02
   9.380674e+01  -8.190816e+01
   4.026603e+01   2.171645e+01
  -1.214612e+01   2.222956e+01
  -1.168790e+01   4.778624e+01
  -3.051273e+00   1.299433e+01
   6.648158e+01  -4.061603e+01
   7.497450e+01   4.156119e+01
  -8.455073e+01  -7.968527e-01
  -1.823113e+02  -1.413825e+01
  -1.279458e+02  -7.186454e+01
   3.962624e+00  -1.097622e+02
   1.576882e+02  -8.340449e+01
   1.438399e+02   8.754094e+00
   5.747872e+00   5.607137e+01
  -7.514283e+01   5.444348e+01
  -4.839439e+01  -3.748749e+01
  -1.351388e+01  -2.737691e+01
   1.728697e+01  -6.840042e+01
   2.365022e+01   1.375201e+01
   6.307822e+01   6.926019e+01
   1.945517e+01   5.907390e+01
   3.688837e+01  -1.341949e+01
   5.131234e+01  -1.907430e+00
   5.762023e+01   1.105669e+02
   4.410602e+00   1.738612e+02
  -1.205216e+02   1.552692e+02
  -1.510196e+02   1.213411e+01
  -1.035259e+02  -9.607058e+01
  -9.346727e+00  -1.462472e+02
   1.087069e+02  -5.739159e+01
   3.167245e+01   2.013765e+01
  -1.850844e+01   3.111404e+01
  -1.033273e+02  -7.893950e+00
  -6.633413e+01  -8.359009e+01
   3.781986e+01  -6.054298e+01
   1.666658e+02  -7.922183e+00
   1.336715e+02   6.739626e+01
   4.135951e+01   4.590418e+01
  -3.923200e+01   3.844114e+01
  -3.570716e+01  -1.616199e+01
   4.104410e+01  -2.625020e+01
   1.080819e+02   2.609080e+01
   3.201435e+01   1.213312e+02
  -7.369013e+01   1.107465e+02
  -1.077048e+02   6.759171e+01
  -1.237356e+02  -5.076836e+01
  -3.942982e+01  -1.430947e+02
   4.873812e+01  -1.049966e+02
   7.470197e+01   8.875529e+00
   4.826696e+01   8.822049e+01
  -1.168481e+01   6.966379e+01
  -4.539517e+01   2.739160e+01
  -1.993179e+01  -4.872320e+01
  -3.401181e+01  -9.281135e+00
  -1.666607e+01   2.718388e+01
  -6.909809e+01  -1.484521e+01
  -1.503831e+01  -1.129334e+02
  -8.393900e+00  -1.170182e+02
   7.788763e+01  -5.222828e+01
   1.252763e+02   3.396064e+01
   1.289112e+02   5.069085e+01
  -2.309945e+01   5.599198e+01
  -9.063403e+01   2.018037e+01
  -7.163793e+01   2.668759e+01
  -5.223335e+01   2.225115e+01
   7.659664e+01   2.070466e+00
   2.171568e+01   1.027979e+01
  -5.200126e+01  -2.490240e+00
  -3.268468e+00   3.265542e+00
   5.607600e+01   2.098529e+01
   1.011524e+02   2.998139e+01
  -7.731379e-01   1.288515e+02
  -1.365443e+02   8.604152e+01
  -1.720204e+02   2.587166e+01
  -1.267607e+02  -4.969451e+01
  -4.375829e+01  -9.996429e+01
   1.028736e+02  -1.477770e+02
   9.096295e+01  -6.606679e+01
   6.186349e+01   1.717576e+01
   3.385127e+01   4.411990e+01
  -2.827189e+01   1.407980e+01
   7.192191e+01   2.869266e+01
  -1.847396e+01   2.095589e+01
   2.451194e+01   7.253634e+01
  -2.133470e+01   6.794429e+01
  -7.432019e+01  -2.554893e+01
  -6.225098e+01  -9.191805e+01
  -4.860918e+01  -7.513185e+01
   5.442887e+01  -5.612996e+01
   1.166447e+02   4.107004e+01
   4.671131e+01   6.363692e+01
  -2.875483e+01   7.399574e+01
  -6.987038e+01   1.317298e+01
  -4.867756e+01  -3.885464e+01
   4.523020e+01  -8.757884e+01
   6.061084e+01  -1.939784e+01
  -5.556834e+01   1.645810e+01
  -3.256453e+01  -6.530614e+00
  -2.464631e+01  -1.019902e+01
   5.535090e+01  -6.618411e+01
   7.134433e+01  -7.285810e+01
   7.172995e+01   4.270420e+01
  -1.587576e+01   6.823251e+01
  -4.486363e+01   4.968990e+01
  -3.354860e+01  -2.830858e+01
  -3.630435e+01  -7.284928e+01
  -2.189266e+01  -6.297951e+01
   1.988100e+01   1.582932e+01
   7.330390e+01   6.505207e+01
   1.589144e+01   5.461495e+01
  -2.212246e+01  -1.540200e+00
  -1.544332e+01  -5.057922e+01
   1.404017e+01   1.568929e+01
   2.122866e+01   2.275017e+01
   2.446353e+01   2.050312e+01
   3.133225e-01  -6.651957e+00
  -1.836594e+01  -7.131609e+01
  -8.889793e+00  -6.831632e+01
   2.734477e+01   3.968516e+01
   2.092295e+01   4.643537e+01
  -3.577101e+01   1.586204e+01
  -8.638653e+01  -1.312530e+01
  -4.856451e+01  -1.530466e+01
   4.167247e+01  -2.916176e+01
   7.298360e+01   1.171375e+01
   2.341618e+01   4.329567e+01
  -4.545454e+01   3.392512e+01
  -7.035212e+01   1.248076e+01
  -5.303246e+01  -1.069898e+01
   7.798558e+01  -1.935443e+01
   2.013538e+01  -8.698736e+00
  -2.074077e+01   3.277378e+01
  -1.201248e+02   1.297049e+01
