
 $NMID
 id='ANONYMOUS ', fmtdat='(2E16.6)'
 volume=1.0
 tramp=1.0
 $END
   2.855016e+03  -4.053277e+02
   1.672089e+03   1.324856e+03
   1.104661e+02   1.640455e+03
  -8.814102e+02   1.050119e+03
  -8.337410e+02   1.903820e+02
  -9.379996e+01  -1.434892e+02
   3.342359e+02   2.862299e+01
   4.509655e+01   4.354300e+02
  -4.056150e+02   5.184853e+02
  -5.108447e+02   7.397368e+01
  -3.498624e+02  -4.471059e+02
  -2.695401e+01  -5.244429e+02
   1.993244e+02  -1.783463e+02
   2.516106e+02   3.089929e+02
  -2.510927e+01   4.991624e+02
  -2.989772e+02   1.022070e+02
  -1.971423e+02  -3.726000e+02
   1.314416e+02  -5.172631e+02
   3.336839e+02  -2.068782e+02
   4.228096e+02   1.486699e+02
   5.785590e+01   3.389653e+02
  -6.478585e+01   1.668386e+02
  -1.118113e+02   5.977045e+01
   1.577037e+02   7.648997e+01
   2.463059e+02   2.311382e+02
  -6.448613e+01   2.545242e+02
  -3.838243e+02   1.346312e+02
  -4.670100e+02  -1.586569e+02
  -1.468220e+02  -2.020488e+02
   2.801240e+02  -1.437439e+02
   3.542466e+02   1.379169e+02
   1.163447e+02   3.178529e+02
  -2.410437e+02   2.997154e+02
  -3.877219e+02   6.968030e+01
  -2.595004e+02  -1.730440e+02
  -9.383108e+01  -2.587179e+02
  -4.716704e+01  -1.410280e+02
  -8.034532e+01   6.032453e+01
  -1.387733e+02   1.244554e+02
  -1.004405e+02  -1.318341e+02
   7.247965e+01  -4.527936e+02
   1.842047e+02  -3.811533e+02
   2.642138e+02   2.274639e+01
   1.939638e+01   2.176853e+02
  -1.129093e+02   7.261690e+01
  -1.225067e+02  -2.363167e+02
   1.862257e+02  -3.409742e+02
   3.888500e+02  -8.357529e+00
   3.738402e+02   3.887479e+02
   1.021921e+02   4.467793e+02
  -3.332187e+02   2.294298e+02
  -4.213556e+02  -4.782393e+01
  -2.800158e+02  -2.120607e+02
   2.111951e+01  -2.077498e+02
   2.441046e+02  -7.246425e+01
   1.733456e+02   2.257030e+01
   1.511247e+01   2.045658e+01
   8.433914e+00  -3.694934e+01
   8.214286e+01  -4.182873e+01
   2.018849e+02  -3.834359e+00
   9.011599e+01   1.569415e+02
  -1.576660e+02   2.337036e+02
  -3.441056e+02   1.213802e+02
  -2.238572e+02  -9.671660e+01
   7.697128e+01  -2.859319e+02
   2.092624e+02  -2.923093e+02
   2.973303e+02  -1.266511e+02
   2.201045e+02   1.364692e+02
   6.961208e+01   3.103764e+02
  -5.013656e+01   2.613804e+02
  -2.934279e+01   1.747395e+02
  -2.300157e+01   1.116550e+02
  -1.345964e+02   9.661553e+01
  -2.726075e+02   6.644306e+00
  -1.933391e+02  -9.067213e+01
  -6.907392e+01  -3.091016e+02
   1.115009e+02  -1.563952e+02
   1.689398e+02   2.585791e+01
   1.136512e+02   2.272906e+02
  -3.622659e+00   2.207339e+02
  -2.358813e+02   5.213025e+01
  -2.461760e+02  -1.798871e+02
  -1.155359e+02  -2.743597e+02
   9.392863e+00  -2.416311e+02
   1.856484e+02  -8.853874e+01
   1.856294e+02  -3.827221e+01
   1.045560e+02  -2.574342e+01
   1.925744e+02  -6.008109e+01
   3.818195e+02   9.341430e+01
   2.632998e+02   2.725932e+02
  -5.312737e+01   4.025641e+02
  -3.791160e+02   2.905420e+02
  -3.670915e+02   1.005832e+02
  -2.818253e+02  -1.334602e+02
   3.566299e+01  -1.968539e+02
   8.829577e+01  -1.634341e+02
   3.493204e+01  -3.057472e+01
  -9.577710e+01   3.880266e+01
  -1.136340e+02  -1.405109e+01
  -1.292776e+01  -1.588144e+02
   1.469889e+02  -4.117756e+01
   9.955748e+01   4.440855e+01
  -3.943269e+01   8.729743e+01
  -1.695521e+02  -5.766112e+01
  -9.821558e+01  -2.515530e+02
   1.003525e+01  -3.103458e+02
   2.059851e+02  -1.567220e+02
   3.085141e+02   8.095693e+01
   2.571141e+02   2.585270e+02
   3.139425e+01   2.489640e+02
  -1.285279e+02   1.507052e+02
  -1.463099e+02  -8.873845e+00
  -1.002483e+01  -6.275820e+01
   3.231014e+01   4.170398e+01
  -4.258352e+01   1.030383e+02
  -1.203575e+02   4.144986e+01
  -1.283604e+02  -3.952731e+01
  -5.503846e+00  -5.110475e+01
   4.238836e+01  -1.471908e+01
   2.644940e+01   9.491142e+01
  -1.712864e+02   4.901023e+01
  -2.445439e+02  -4.537043e+01
  -1.876109e+02  -1.638586e+02
  -3.021910e+00  -2.508688e+02
   1.974088e+02  -2.099374e+02
   2.703050e+02  -9.461195e+01
   1.127765e+02   7.534756e+01
  -5.555157e+01   7.205838e+01
  -7.881969e+01  -1.323731e+01
   6.727240e+01  -4.258597e+01
   1.124170e+02  -6.399108e+01
   1.585495e+02   6.804341e+01
   2.747952e+01   1.628018e+02
  -1.160697e+02   1.339994e+02
  -1.020961e+02   3.488557e+01
  -1.265109e+01  -9.648627e+00
   4.959824e+01  -2.141743e-01
   4.108946e+01   7.717672e+01
  -7.526836e+01   1.176752e+02
  -1.886503e+02   6.796802e+01
  -1.328815e+02  -1.571022e+02
  -3.354011e+01  -2.137924e+02
   1.688583e+02  -1.579376e+02
   1.733605e+02   1.416950e+01
   3.949513e+01   9.505976e+01
  -4.708217e+01   7.240098e+01
  -3.536869e+01   3.729849e+01
  -1.030606e+01  -1.821950e+01
   2.588525e+01  -3.245702e+01
   8.042566e+00   1.389033e+01
  -7.632417e+01  -3.369526e+01
  -9.765073e+01  -1.106412e+02
  -8.519646e+00  -1.498261e+02
   1.363572e+02  -1.621322e+02
   1.814343e+02  -8.709003e+00
   1.912384e+02   1.696043e+02
   2.563058e+01   1.919737e+02
  -1.436320e+02   1.855132e+02
  -1.502740e+02  -2.025699e+00
  -4.720056e+01  -1.397295e+01
   3.451032e+00   2.377119e+01
  -7.526579e+01   4.764122e+01
  -6.607736e+01   3.620985e+01
  -5.620005e+01  -6.588216e+01
   5.148316e+01  -8.150767e+01
   1.144872e+02  -6.442953e+01
   1.562199e+02   6.365218e+01
  -3.508455e+01   1.599172e+02
  -1.728092e+02   7.075240e+01
  -1.979551e+02  -5.063938e+01
  -7.133071e+01  -1.932482e+02
   1.459209e+02  -2.219294e+02
   2.523823e+02  -1.087287e+02
   2.300813e+02   1.372455e+02
   6.196832e+01   1.358441e+02
  -5.011757e+01   1.118709e+02
  -1.081563e+02   6.609699e+01
  -6.878404e+01   8.263576e+01
  -4.794592e+01   9.342342e+01
  -5.883727e+01   5.481193e+01
  -1.497532e+02  -3.985098e+01
  -1.203272e+02  -1.067120e+02
   2.351395e+01  -2.021380e+02
   1.540981e+02  -1.260673e+02
   1.794390e+02  -8.770674e+00
   1.080026e+02   1.172752e+02
  -2.320694e+00   1.152288e+02
  -7.676940e+01   6.552503e+01
  -8.439077e+01  -4.328325e+01
  -1.716143e+01  -5.813475e+01
   3.039955e+01  -6.043799e+01
  -5.743583e+01  -1.651358e+01
  -6.140123e+01   2.093171e+00
  -5.662143e+01  -1.045937e+01
   8.783794e+01  -4.159463e+01
   1.412402e+02   1.936805e+01
   1.139326e+02   8.709863e+01
  -4.095489e+00   8.525413e+01
  -1.240988e+02   1.808053e+01
  -1.581007e+02   3.987538e+01
  -4.615346e+01  -8.254590e+01
   2.227427e+01  -1.712670e+01
   4.303526e+01   2.839564e+01
   9.364599e+00   6.427552e+01
  -6.058412e+01   5.890475e+01
  -3.979864e+01   2.010272e+01
  -6.737226e+01  -7.144364e+01
  -4.027848e+01  -2.881510e+01
  -1.731607e+01   5.751715e+01
  -5.262557e+01   2.914211e+01
  -5.292161e+01  -7.915906e+01
   6.578315e+01  -1.315228e+02
   1.242674e+02  -1.052840e+02
   1.589306e+02  -3.708607e+01
   1.208635e+02   8.078204e+01
  -9.399802e+00   9.725160e+01
  -8.940611e+01   6.192234e+01
  -4.192338e+01  -2.995862e+01
   3.865752e+01   7.946901e+00
   8.836200e+01   5.337723e+01
   3.835978e+01   1.034604e+02
  -8.697425e+01   1.143774e+02
  -2.003320e+02   5.475479e+01
  -1.354619e+02  -8.697032e+01
  -4.892872e+01  -1.001738e+02
   8.800725e+01  -8.403872e+01
   3.257385e+01   2.410313e+00
  -2.647627e+01   4.639428e+01
  -7.458743e+01  -3.074464e+01
  -2.122848e+01  -1.323774e+02
   4.274510e+01  -8.828273e+01
   1.626488e+02  -6.221059e+01
   9.123944e+01   8.765575e+01
  -1.420277e+01   1.835697e+02
  -6.405024e+01   1.167477e+02
  -8.861689e+01  -1.712420e+01
  -1.137374e+01  -1.578983e+02
   3.145721e+01  -1.254111e+02
   2.202461e+01  -7.736069e+00
   2.766910e+01   5.043430e+01
   2.044602e+01   1.188545e+01
   2.253082e+01  -4.558095e+01
   4.913587e+01   4.942901e+01
   6.330896e+01   7.554217e+01
   1.240913e+01   8.078124e+01
  -6.672972e+01   7.749663e+01
  -1.068663e+02  -4.898488e+01
  -1.192116e+02  -8.072172e+01
  -4.580727e+00  -5.536435e+01
   1.231888e+02  -5.579885e+01
   5.873278e+01  -1.911572e+01
   2.599098e+01   9.668208e+00
  -3.584017e+01   2.766389e+01
  -1.101848e+01  -9.400186e+00
   9.034232e+00  -4.000432e+01
   6.039512e-01  -5.444015e-01
  -4.784072e+01  -6.404933e+00
  -8.615626e+01  -4.630268e+00
  -2.984250e+01  -1.172520e+02
   1.116544e+02  -1.555922e+02
   1.523131e+02  -4.994672e+01
   1.268854e+02   2.876487e+01
   5.948024e+01   1.483776e+02
  -9.342002e+01   1.450211e+02
  -1.174480e+02   9.013325e+01
  -8.732254e+01  -3.909982e+01
  -1.769414e+01  -4.542959e+01
  -1.857002e+01  -2.222543e+01
  -2.276961e+01  -1.129993e+01
  -4.302676e+01  -4.496758e-01
  -8.281344e+00  -8.596361e+01
   4.349410e+01  -3.824175e+01
   5.718402e+01   5.362389e+01
   7.963075e+01   8.935380e+01
  -2.528119e+01   9.454753e+01
  -6.219869e+01   3.231448e+01
  -6.319393e+01  -1.099101e+01
  -5.789006e+01  -8.300335e+01
   3.798757e+01  -6.931843e+01
   9.620428e+01  -8.450260e+00
  -7.290504e+00   4.766860e+01
  -2.820118e+01   6.078048e+01
  -4.378732e+01   1.103163e+01
   4.070926e+01  -4.526751e+01
   5.191761e+01   3.784736e+01
   1.604843e+01   4.950030e+01
  -6.350432e+01   6.489606e+01
  -9.864919e+01   7.016844e+01
  -7.813157e+01   2.719143e+00
   3.042330e+01  -1.792038e+01
  -4.004701e+00  -3.962365e+01
   2.701186e+01   6.679593e+00
   3.314063e+01   2.176156e+01
  -1.180448e+01   4.515698e+01
  -1.267483e+01  -1.821397e+01
  -6.691908e+01  -3.881792e+01
   4.837449e+01  -2.901107e+01
   5.886043e+01   3.237342e+01
   2.388409e+01  -1.615557e+01
   1.888728e+00   4.202181e+00
  -3.613937e+01  -2.652239e+01
  -1.292662e+01   6.555592e+01
  -6.284522e+00   6.188972e+01
   9.029335e+00   4.960254e+01
  -1.737860e+00   3.606437e+01
  -9.226255e+00  -4.100061e+01
  -3.633661e+01  -4.401434e+01
   1.441852e+01   1.782423e+01
   3.161327e+01   5.947651e+01
   3.668715e+01   7.556323e+01
  -5.868714e+01  -1.709946e+01
  -1.019827e+02   2.778987e+01
  -6.028274e+01  -6.850705e+01
   2.684927e+01  -3.022048e+01
   5.401868e+01   4.224054e+01
   3.851686e+01  -2.636360e+01
  -5.497826e+01  -1.146989e+01
  -4.610766e+01  -8.465003e+00
   2.682623e+01  -3.513894e+01
   7.448740e+01  -3.312485e+01
