
 $NMID
 id='ANONYMOUS ', fmtdat='(2E16.6)'
 volume=1.0
 tramp=1.0
 $END
  -2.965579e+03  -2.058641e+02
  -2.081882e+03  -1.463651e+03
   3.896787e+00  -1.906307e+03
   1.227435e+03  -1.088476e+03
   6.970427e+02   6.857490e+01
  -1.258187e+02   2.506541e+02
  -4.185512e+02  -1.388258e+02
  -2.498592e+01  -6.286933e+02
   4.694246e+02  -5.090223e+02
   5.887492e+02  -6.749736e+01
   3.411659e+02   5.217964e+02
  -9.341122e+01   5.944838e+02
  -4.100729e+02   1.805725e+02
  -2.310676e+02  -4.969999e+02
   1.863973e+02  -5.227692e+02
   3.637005e+02  -3.401292e+01
   1.528522e+02   4.635759e+02
  -1.779687e+02   4.807044e+02
  -3.804214e+02   1.465845e+02
  -3.006895e+02  -1.389217e+02
  -6.233377e+01  -2.702408e+02
   1.199110e+02  -1.452871e+02
   7.192336e+01  -4.617825e+01
  -1.315836e+02  -4.687541e+01
  -2.890910e+02  -1.409261e+02
  -1.033538e+02  -3.309299e+02
   3.499290e+02  -2.904020e+02
   6.336614e+02   1.029495e+02
   2.509582e+02   4.602680e+02
  -2.577750e+02   3.031645e+02
  -4.712433e+02  -4.528197e+01
  -2.499675e+02  -3.110816e+02
   1.912743e+02  -3.770463e+02
   4.191780e+02  -8.734346e+01
   2.865892e+02   1.108934e+02
   8.533869e+01   3.039164e+02
  -1.475931e+02   1.903587e+02
  -6.425154e+01  -1.832925e+02
   1.745310e+02  -2.433017e+02
   3.032212e+02   6.988400e+01
   1.039970e+02   4.793877e+02
  -2.119689e+02   5.155781e+02
  -3.754921e+02   4.585491e+00
  -1.772775e+02  -2.759792e+02
   1.914305e+02  -1.777329e+02
   2.117574e+02   1.498219e+02
  -5.534501e+01   4.178497e+02
  -4.200486e+02   1.183443e+02
  -4.545708e+02  -2.772479e+02
  -1.498308e+02  -3.913113e+02
   2.956420e+02  -2.170590e+02
   4.659763e+02   5.736334e+01
   2.460614e+02   1.637974e+02
  -6.524472e+01   2.573094e+02
  -2.650695e+02   7.088117e+01
  -1.843826e+02  -3.648741e+01
   6.322735e+01  -4.025574e+01
   9.731404e+01   5.968535e+01
  -1.529772e+02   1.254366e+02
  -2.697022e+02  -5.177610e+01
  -1.366114e+02  -2.140445e+02
   1.154886e+02  -1.783471e+02
   2.247554e+02  -9.074784e+01
   2.045668e+02   5.561917e+01
   1.132813e+01   2.169795e+02
  -2.226574e+02   2.995184e+02
  -2.927090e+02   1.890190e+02
  -2.310722e+02  -1.336120e+02
  -1.206404e+02  -3.261877e+02
  -6.789280e-01  -3.010637e+02
   6.820188e+01  -1.045580e+02
   1.792669e+01  -7.356506e+01
   6.482920e+01  -8.485624e+01
   1.748649e+02  -6.856038e+01
   2.452441e+02   6.796241e+01
   1.416543e+02   2.134497e+02
  -5.574093e+01   1.710046e+02
  -1.865141e+02   9.823279e+00
  -1.735184e+02  -2.216168e+02
   9.715541e+00  -2.358270e+02
   2.071349e+02  -6.745265e+01
   2.125093e+02   9.646816e+01
   1.504937e+02   2.597402e+02
  -7.503106e+01   1.893375e+02
  -1.685740e+02   1.275474e+02
  -8.574964e+01   1.104528e+02
  -1.457599e+02   3.418635e+01
  -2.282935e+02   5.238219e+01
  -3.470646e+02  -8.693617e+01
  -2.500448e+02  -1.829655e+02
  -2.529073e+01  -3.123478e+02
   2.801957e+02  -4.028844e+02
   3.934163e+02  -2.382927e+02
   2.215606e+02   5.233427e+01
   1.659615e+00   2.087871e+02
  -1.171608e+02   1.562450e+02
  -6.258478e+01   5.058613e+01
   7.921045e+01  -7.402302e+01
   1.690745e+02   2.999035e+01
   2.361810e+01   1.462816e+02
  -9.393876e+01   1.323144e+02
  -1.020755e+02  -3.509127e+01
   1.399491e+01  -1.665827e+02
   1.050198e+02  -2.414817e+01
   9.327826e+01   1.818888e+02
  -5.000782e+01   2.266822e+02
  -1.474989e+02   1.980062e+02
  -2.931557e+02  -4.769560e+01
  -1.717809e+02  -1.247109e+02
  -9.519446e+01  -2.059770e+02
   1.108217e+02  -1.494990e+02
   1.157494e+02  -1.905847e+00
   3.264390e+01   2.264176e+01
  -3.588689e+01  -4.889811e+01
  -4.199480e+01  -1.283316e+02
   9.176558e+01  -5.561422e+01
   1.056412e+02  -1.527181e+01
   4.424581e+01   6.217391e+01
  -2.726155e+01   3.460708e+00
   2.271220e+00  -5.308820e+01
   1.262068e+02  -5.974494e+01
   2.448773e+02   4.345116e-01
   2.427574e+02   8.664036e+01
   2.818419e+01   2.142100e+02
  -1.663243e+02   1.704296e+02
  -2.530139e+02   1.231410e+02
  -9.165926e+01   6.290205e+00
   7.796428e+01  -8.529742e+01
   9.294265e+01   1.204939e+01
  -3.472298e+01   7.421399e+01
  -1.406032e+02  -2.518538e+00
  -1.545665e+02  -7.732392e+01
  -5.750853e+01  -1.312721e+02
   5.477083e+01  -1.303491e+02
   6.182752e+01  -3.148446e+01
   5.924046e+01   1.118279e+01
  -3.270725e+01  -1.569607e+01
  -4.688555e+01  -5.032187e+01
   6.753396e+01  -1.020250e+02
   1.766659e+02  -6.826786e+01
   1.974469e+02   1.188382e+02
   4.965037e+01   1.666011e+02
  -1.241152e+02   1.279637e+02
  -1.553215e+02   3.767018e+01
  -3.036015e+01  -8.483926e+01
   3.301214e+01  -1.098008e+02
   6.813755e+01  -4.706152e+01
   5.208456e+01   4.618825e+01
  -2.610097e+01   1.802019e+01
   3.154290e+01  -3.823090e+01
   1.104442e+02  -7.173882e+00
   1.025470e+02   4.584960e+01
   4.088204e+01   1.717586e+02
  -8.122725e+01   1.012599e+02
  -2.243449e+02   4.037544e+01
  -1.268765e+02  -1.200700e+02
  -7.380823e+01  -1.800333e+02
   7.756260e+01  -1.464089e+02
   1.207291e+02  -1.212699e+01
   8.547240e+01   2.746670e+01
   8.544688e+00   1.091640e+01
   2.341089e+01  -9.277747e+00
   9.233190e+01  -2.410622e+01
   9.727989e+01   3.278595e+01
  -1.362420e+01   5.872965e+01
  -1.217304e+02   5.742755e+01
  -6.986950e+01   6.935560e+00
   4.073108e+01  -1.393045e+02
   8.648102e+01  -1.016932e+02
   2.109099e+02   9.519466e+00
   6.969238e+01   1.585361e+02
  -9.331826e+01   2.040536e+02
  -1.992857e+02   8.268614e+01
  -2.154710e+02  -7.167390e+01
  -9.778863e+01  -1.564553e+02
   2.261857e+01  -1.149914e+02
   7.382306e+01  -6.512020e+01
   3.732648e+01  -3.507745e+01
   3.718204e+01  -9.918604e+01
   5.416301e+01  -9.891520e+01
   1.301912e+02  -1.981086e+00
   1.294012e+02   1.110296e+02
  -3.170359e+01   1.521829e+02
  -4.817335e+01   1.366790e+02
  -1.553295e+02   3.923614e+01
  -1.064827e+02  -8.466443e+01
   1.114244e+01  -1.150603e+02
   7.686605e+01  -1.135524e+02
   2.733959e+01   3.109552e+01
  -2.132019e+01   2.714141e+01
  -4.327981e+01   3.692314e+01
   6.695090e+00   3.215284e+01
   3.372853e+01   3.732644e+01
   7.494333e+01   2.149171e+01
  -3.682858e+01   4.843638e+01
  -1.444065e+02  -3.479543e+01
  -7.383093e+01  -5.465875e+01
  -2.354620e+01  -9.518952e+01
   8.171026e+01  -7.335451e+01
   7.501721e+01   3.502635e+00
   6.738530e+01   1.953335e+01
  -8.111486e+01   2.305010e+00
  -8.466130e+01   5.363998e+00
  -4.695239e+01  -7.221539e+01
   7.454549e+01  -9.188075e+01
   6.104635e+01  -2.721935e+01
   7.750090e+01   1.329313e+01
   4.456971e+01   6.004375e+01
   6.915896e+01   7.331220e+00
   3.614935e+01  -2.879434e+01
   5.657769e+01   1.547058e+01
   2.540511e+01   7.812682e+01
  -1.054636e+02   8.383990e+01
  -1.289579e+02   5.404036e+00
  -9.792090e+01  -7.550245e+01
   3.400479e+00  -9.498812e+01
   5.353629e+01  -4.010673e+01
   1.051001e+01   2.443771e+01
  -4.247042e+01   8.218689e+00
  -1.073709e+02  -1.506222e+01
  -4.981260e+01  -5.377580e+01
   6.006738e+01  -1.045184e+02
   1.648072e+02  -7.789640e+01
   1.613826e+02   1.662481e+01
   5.964598e+01   6.021170e+00
  -3.999159e+01   7.579393e+01
  -7.151951e+01  -6.640305e+00
   2.644761e+01  -5.612568e+00
   7.339343e+01   9.648309e+00
   6.056035e+00   9.691949e+01
  -5.039194e+01   1.196083e+02
  -1.457827e+02   8.088820e+01
  -1.269750e+02  -5.081684e+01
  -6.405662e+01  -1.552810e+02
   7.069278e+01  -9.595615e+01
   6.791816e+01  -1.933978e+01
   7.092561e+01   1.273047e+02
   4.076237e+01   7.387941e+01
   2.052035e+01   2.402281e+01
  -6.562435e+01  -3.181255e+01
  -1.079573e+01  -3.306585e+01
  -4.880657e+00  -1.766737e+00
  -6.797509e+00  -2.586576e+01
  -7.393930e+01  -3.927965e+01
  -7.687124e+01  -6.449469e+01
   4.676570e+01  -2.779901e+01
   9.336477e+01   4.454508e+01
   9.541183e+01   5.385724e+01
   2.350325e+01   3.178549e+01
  -3.283349e+01   1.713155e+01
  -4.634633e+01  -2.826897e+01
   6.625042e+00   8.283573e+00
   5.692278e+01   2.217816e+01
   3.059700e+01  -1.930073e+01
  -3.174943e+01   2.807310e+01
   1.775443e+01  -2.868835e+01
   5.033618e+01   2.050739e+01
   6.451991e+01   2.294248e+01
   2.263243e+01   6.117478e+01
  -7.685291e+01   1.007227e+02
  -8.025378e+01   6.859630e+01
  -1.016483e+02  -2.165707e+01
  -4.512103e+01  -9.352361e+01
   2.062064e+01  -1.490865e+02
   7.221201e+01  -3.542646e+01
   8.243490e+01  -3.679072e+00
   3.380437e+01   2.027955e+01
   3.219277e+01  -7.237836e+00
   3.509733e+00   9.510782e+00
   3.274885e+01   7.041545e+01
   3.515539e+01   5.994129e+01
  -3.638190e+01   4.071827e+01
  -9.034263e+01  -1.610498e+01
  -7.252501e+01  -8.737777e+01
  -7.161464e+00  -8.111515e+01
   7.885344e+01  -1.494311e+01
   2.869611e+01   3.277779e+01
   3.337468e+01   7.054703e+01
  -4.453952e+01   3.222553e+01
  -8.894830e+01  -4.843242e+01
  -4.447404e+01  -1.978311e+01
  -1.018638e+01  -2.125859e+01
   1.792302e+01  -3.043851e+01
   1.520090e+01  -6.676593e+01
  -6.390102e+01  -2.721206e+01
  -1.076270e+01  -3.196671e+01
   1.103031e+02  -6.562387e+01
   6.762198e+01  -3.883305e+01
   5.672247e+01   2.696161e+01
   2.201267e+01   8.200988e+01
  -2.680176e+01   9.239605e+01
  -1.900735e+01   5.222926e+01
  -4.711066e+01  -9.559280e+00
  -1.047102e+01  -5.026605e+01
  -4.160630e+00   2.046684e-01
   6.636077e+01   3.371971e+01
   1.538407e+01   2.868988e+01
  -3.739849e+01  -2.453990e+01
  -1.273063e+01  -1.073095e+00
  -3.404545e+01  -2.242580e+01
   8.245631e+00   5.195548e+00
  -6.657165e+00  -2.177503e+01
  -2.567145e+01  -1.527222e+01
  -8.840604e+00  -3.200146e+01
  -1.707723e+01  -1.518090e+00
   1.203219e+01   1.953027e+00
   1.412564e+01   2.291078e+01
  -3.198495e+01   2.512029e+01
  -3.932499e+01  -1.304875e+01
  -9.718168e+00  -2.103871e+01
   1.454685e+01  -2.564494e+01
   5.482210e+01  -3.156137e+00
   4.472509e+01   4.020218e+01
   2.181064e+01   3.302652e+01
  -3.195360e+01   3.544705e+01
  -5.306389e+01  -1.154468e+01
   2.357455e+01   5.897759e+00
  -2.861495e+00  -7.780099e-01
  -6.184846e+01   2.571061e+01
  -5.691134e+01   6.401789e+01
