
 $NMID
 id='ANONYMOUS ', fmtdat='(2E16.6)'
 volume=1.0
 tramp=1.0
 $END
   3.014871e+03  -2.685023e+02
   1.679194e+03   1.362469e+03
  -2.097799e+02   1.907206e+03
  -1.185628e+03   1.163165e+03
  -7.574964e+02   1.030546e+02
  -5.506559e+01  -2.819634e+02
   2.540052e+02   7.022900e+01
  -1.140654e+01   5.665091e+02
  -3.712018e+02   5.395718e+02
  -5.807552e+02   3.733122e+01
  -3.453234e+02  -4.031160e+02
  -7.085568e+01  -5.902995e+02
   3.222167e+02  -1.936082e+02
   2.449901e+02   3.619967e+02
  -1.018954e+02   5.147502e+02
  -3.822175e+02   9.014703e+01
  -2.625703e+02  -4.382083e+02
   8.292615e+01  -5.495754e+02
   3.965084e+02  -2.018287e+02
   4.076983e+02   1.572184e+02
   1.404141e+02   2.865608e+02
  -4.108152e+01   2.327421e+02
  -7.201528e+01   1.159107e+02
   1.355420e+02   8.969808e+01
   2.940939e+02   1.807226e+02
  -1.921162e+01   3.033822e+02
  -3.932894e+02   1.788319e+02
  -5.965839e+02  -1.315830e+02
  -2.014324e+02  -3.323594e+02
   2.783542e+02  -2.429069e+02
   4.363076e+02   7.794817e+01
   1.867272e+02   2.897205e+02
  -1.663769e+02   3.237599e+02
  -4.196100e+02   1.147925e+02
  -3.028876e+02  -1.310042e+02
  -4.974557e+01  -2.470722e+02
   2.668590e+01  -1.179945e+02
  -4.193536e+01   1.194437e+02
  -1.628732e+02   1.478833e+02
  -1.766648e+02  -7.760371e+01
  -6.149886e+01  -4.281529e+02
   2.171620e+02  -4.479863e+02
   3.384053e+02  -3.030067e+00
   1.066465e+02   2.704671e+02
  -1.326355e+02   1.188396e+02
  -1.725807e+02  -2.130286e+02
   1.405983e+02  -3.819565e+02
   4.320141e+02  -2.503524e+01
   4.396857e+02   3.522957e+02
   1.032701e+02   4.093828e+02
  -2.679702e+02   2.705656e+02
  -4.400596e+02  -6.304780e+01
  -3.037041e+02  -1.733911e+02
   9.112628e+00  -1.938057e+02
   2.864327e+02  -9.039581e+01
   2.055474e+02   2.951809e+01
   1.221971e+00   5.198573e+01
  -3.546271e+01  -5.268395e+01
   1.204491e+02  -8.318189e+01
   2.144661e+02   7.241823e+01
   1.107138e+02   2.072114e+02
  -1.359262e+02   1.872233e+02
  -2.717126e+02   5.003000e+01
  -2.133261e+02  -1.008774e+02
   1.944650e+01  -2.297334e+02
   2.130407e+02  -3.016807e+02
   3.021323e+02  -1.424257e+02
   1.669839e+02   1.292262e+02
   4.924950e+01   3.044845e+02
  -5.481188e+01   2.704435e+02
  -8.180825e+01   1.710169e+02
  -1.362121e+01   9.237538e+01
  -3.662812e+01   1.071058e+02
  -1.988517e+02   9.158837e+01
  -2.271104e+02  -7.116448e+01
  -1.074806e+02  -1.880310e+02
   6.805901e+01  -1.526497e+02
   1.537162e+02   2.516586e+01
   1.021622e+02   2.064932e+02
  -5.938373e+01   2.265962e+02
  -2.162110e+02   7.379267e+01
  -2.729413e+02  -1.267863e+02
  -1.434241e+02  -2.461056e+02
   1.002498e+02  -2.338336e+02
   1.740277e+02  -7.616378e+01
   1.158645e+02  -1.102673e+02
   9.754410e+01  -4.970426e+01
   2.248254e+02  -9.211375e+00
   3.609576e+02   8.103269e+01
   2.578800e+02   2.310296e+02
  -3.109126e+01   3.568916e+02
  -3.452172e+02   3.620428e+02
  -4.234676e+02   2.030430e+02
  -2.783066e+02  -5.166157e+01
  -2.668198e+01  -2.393802e+02
   7.548127e+01  -1.386925e+02
   2.480829e+01  -2.196301e+01
  -8.810365e+01   9.769305e+01
  -1.615156e+02  -1.802896e-01
  -3.436397e+01  -1.478559e+02
   1.229401e+02  -1.311680e+02
   1.457303e+02   4.489237e+01
  -2.634481e+01   1.268467e+02
  -1.582028e+02  -2.851432e+01
  -1.493922e+02  -1.657993e+02
   2.208156e+01  -2.471192e+02
   2.582139e+02  -1.400508e+02
   2.808147e+02   5.690967e+01
   2.786960e+02   2.152891e+02
   6.261466e+01   1.564245e+02
  -8.766664e+01   1.204002e+02
  -1.378751e+02   3.475386e+01
  -4.905145e+01   1.985615e+01
   6.633154e+01   6.356987e+01
  -7.616570e+00   1.031995e+02
  -9.467388e+01   1.170962e+02
  -1.221903e+02  -2.116251e+01
  -2.732534e+01  -3.960469e+01
   9.519745e+01  -2.937778e+01
   3.064866e+01   5.833288e+01
  -1.256514e+02   6.375857e+01
  -2.714914e+02  -1.500749e+01
  -2.450368e+02  -1.270470e+02
  -2.784858e+01  -2.456029e+02
   1.951633e+02  -1.982182e+02
   2.391872e+02  -9.028394e+01
   1.045489e+02   6.266130e+01
  -6.146646e+01   5.875291e+01
  -3.703721e+01  -3.539014e+01
   5.106524e+01  -7.814463e+01
   7.857335e+01  -4.947779e+01
   1.721519e+02   1.149441e+02
   5.831938e+01   1.581946e+02
  -9.034924e+01   1.083973e+02
  -1.008507e+02   3.971351e+00
  -7.904202e-01  -7.697981e+00
   2.592919e+01   2.285457e+00
   1.790824e+01   1.207597e+02
  -1.322787e+02   1.382639e+02
  -1.981405e+02  -1.186557e+01
  -1.612578e+02  -1.138219e+02
  -3.581654e+01  -1.684099e+02
   9.680087e+01  -1.401932e+02
   1.678064e+02  -1.971680e+00
   2.410616e+01   8.344855e+01
  -3.347469e+01   9.600631e+01
  -3.309023e+01   1.785239e+01
   5.095858e+00  -9.410517e+00
   3.273347e+01   5.982593e+01
  -6.943874e+00   3.883159e+01
  -5.739879e+01   3.637838e+01
  -4.883299e+01  -1.461930e+01
  -2.100728e+01  -1.284274e+02
   9.771789e+01  -1.309889e+02
   2.031345e+02  -3.152998e+01
   1.380244e+02   1.280237e+02
   4.347248e+01   2.248208e+02
  -9.813979e+01   1.488127e+02
  -8.900700e+01   4.523545e+01
  -3.062409e+01  -4.362840e+01
  -2.587696e+01  -6.282782e+01
  -1.051579e+01  -9.089135e+00
  -7.280207e+01   8.179829e+00
  -4.167149e+01  -7.312788e+01
   3.379875e+01  -1.312401e+02
   1.103089e+02  -6.140721e+01
   6.366098e+01   6.019966e+01
  -1.064248e+01   8.241421e+01
  -1.196872e+02   8.199411e+01
  -1.849478e+02  -5.419009e+01
  -1.023922e+02  -1.625169e+02
   1.399453e+02  -1.881351e+02
   2.118723e+02  -7.277827e+01
   2.042230e+02   9.034989e+01
   1.121216e+02   1.492012e+02
  -4.719780e+01   1.250307e+02
  -5.615863e+01   9.761632e+01
  -5.173864e+01   7.179992e+01
  -6.012948e+01   7.161190e+01
  -4.071489e+01   7.469190e+01
  -7.436843e+01  -3.153522e+01
  -8.518520e+01  -1.227578e+02
  -4.368478e+01  -1.882051e+02
   8.756338e+01  -1.291369e+02
   1.210169e+02   3.284268e+01
   8.779804e+01   1.223031e+02
  -6.677926e+00   1.341288e+02
  -8.577502e+01   6.334944e+01
  -5.579048e+01  -2.602175e+01
   5.728756e-02  -6.771716e+01
  -3.301513e+01  -1.783946e+01
  -1.994601e+01  -3.414232e+01
  -7.012303e+01   5.871761e+00
  -3.707039e+01   2.675471e+01
   6.713343e+01  -4.511465e+01
   9.875033e+01   2.971221e+01
   1.051135e+02   4.591700e+01
   1.577975e+01   5.181126e+01
  -8.544198e+01   2.569516e+01
  -1.028657e+02  -1.554638e+01
  -4.231350e+01   2.610975e+01
   3.116208e+01  -1.920796e+01
   4.627041e+01  -7.651516e-01
  -2.327052e+01   8.379475e+01
  -6.159335e+01   1.054899e+02
  -6.862495e+01  -3.092122e+01
  -5.436975e+01  -9.117664e+01
  -1.814978e+01  -6.574923e+01
  -3.625854e+01   9.478621e-01
  -6.886911e+01   1.314771e+01
  -5.245391e+01  -6.642959e+01
   3.485957e+01  -1.371080e+02
   1.029820e+02  -1.418102e+02
   1.590194e+02  -8.601404e+00
   1.100203e+02   8.196485e+01
   3.772613e+00   1.369201e+02
  -5.800134e+01   3.739076e+01
  -3.633644e+01   4.042457e+00
   5.448128e+01  -6.053732e+00
   1.084789e+02  -7.998454e+00
   3.502014e+01   8.287606e+01
  -2.251952e+01   6.090975e+01
  -1.328640e+02   5.245744e+01
  -1.995249e+02  -7.424934e+01
  -2.708139e+01  -9.463008e+01
   3.609865e+01  -5.269933e+01
  -3.018615e+00   6.194390e+00
  -3.167147e+00  -4.138970e+00
  -6.309174e+01   5.200144e-01
  -3.369862e+01  -1.293810e+02
   8.607128e+01  -9.149405e+01
   8.290599e+01  -3.635834e+01
   8.794145e+01   8.437257e+01
   2.019696e+01   1.712074e+02
  -8.940693e+01   1.277963e+02
  -8.464733e+01  -4.471025e+01
  -6.879417e+01  -9.152390e+01
   3.278932e+01  -9.507038e+01
   1.820705e+01  -3.778479e+01
   5.668212e+01   4.870374e+00
  -4.977512e+00   2.010040e+01
   4.153314e+00  -3.224326e+01
   2.753492e+01   1.575441e+01
   2.438826e+01   1.030183e+02
   6.255749e+01   9.970328e+01
  -5.513991e+01   7.086856e+01
  -1.100221e+02   8.995879e+00
  -1.166332e+02  -1.643972e+01
   4.832693e+00  -8.297844e+01
   8.645980e+01   1.772667e+01
   8.252406e+01   2.713878e+01
   2.540178e+01   3.844909e+01
  -1.218810e+01  -1.608906e+01
   1.991738e+01   2.147994e+01
   1.864234e+01   2.000789e+01
  -1.934652e+01  -1.918853e+01
  -6.560093e+01  -4.385918e+01
  -7.398277e+01  -2.782496e+01
   7.420244e-01  -7.440003e+01
   9.097964e+01  -8.811911e+01
   1.890433e+02  -3.444369e+01
   8.005122e+01   9.110170e+01
   3.322405e+01   1.636503e+02
  -9.941784e+01   1.251335e+02
  -1.056407e+02   7.598338e+01
  -9.868241e+01  -3.474057e+01
  -4.315712e+01  -8.323929e+01
  -1.097232e-01  -1.756702e+00
  -4.994455e+01  -6.094089e+01
  -3.422981e+01  -3.182113e+01
   1.206019e+01  -8.695723e+01
   3.806885e+01  -8.832348e+01
   4.689373e+01   2.675506e+01
   6.932083e+01   9.664557e+01
   3.786159e+01   9.353718e+01
  -5.847088e+01   3.059520e+00
  -8.052201e+01  -5.736628e+01
  -5.159979e+01  -6.666982e+01
   2.859066e+01  -7.641816e+01
   8.136141e+01  -2.129525e+01
   3.686615e+00   4.463736e+01
  -3.410912e+01   4.206648e+01
  -4.882636e+01   5.725700e+01
  -1.458162e+01  -1.307756e+01
   3.152972e+01  -9.528957e+00
   1.538839e+01   6.490889e+01
  -4.535877e+01   4.526575e+01
  -9.202730e+01   2.342160e+01
  -1.003268e+02   1.025009e+01
   2.774347e+01  -4.662560e+01
   8.429944e+01  -9.179396e+01
   4.583165e+01  -5.234863e+01
  -1.579151e+01   2.962982e+01
   2.692627e+01   2.269555e+01
  -4.477251e+00   1.225350e+01
  -2.544370e+01  -1.443767e+01
   2.584256e+01  -2.640712e+01
   6.128248e+01   2.928934e+01
   3.028174e+00  -2.387511e+01
   1.359110e+01  -1.915612e+01
  -4.315859e+00   2.662879e+01
  -5.704717e+00  -2.907226e+01
  -3.019790e+01   2.637047e+01
  -5.700375e-01   5.262133e+01
  -1.496702e+01  -6.938009e+00
  -2.796842e+01  -1.438567e+01
  -2.283130e+01  -4.590514e+01
   7.250628e+01  -5.655384e+01
   3.226504e+01   1.641095e+00
   2.272497e+01   2.551360e+01
  -2.961048e+01   3.512405e+01
  -4.208127e+01  -1.367901e+01
  -7.946830e+01  -1.852213e+01
  -2.057667e+01  -4.144996e+01
   1.978887e+01   9.478562e+00
   2.425281e+01  -4.275581e+01
  -9.196082e+00  -1.479658e+01
  -3.135747e+01  -3.730698e+01
   1.781496e+01  -3.565558e+01
   8.319865e+01   3.355586e+01
