
 $NMID
 id='ANONYMOUS ', fmtdat='(2E16.6)'
 volume=1.0
 tramp=1.0
 $END
   3.157283e+03   2.615522e+02
   1.820918e+03   1.839805e+03
  -1.314253e+02   1.891762e+03
  -1.305761e+03   9.082879e+02
  -6.657291e+02  -3.650752e+01
   2.094391e+02  -2.398121e+02
   4.992870e+02   1.876615e+02
   1.166090e+00   6.556380e+02
  -5.411966e+02   5.936784e+02
  -6.415562e+02  -3.929270e+01
  -3.123091e+02  -5.612935e+02
   1.271153e+02  -5.427446e+02
   3.550248e+02  -7.294931e+01
   2.006411e+02   4.609179e+02
  -1.697769e+02   5.070695e+02
  -3.445705e+02   4.483416e+01
  -1.169889e+02  -4.624139e+02
   1.525420e+02  -4.906934e+02
   3.631073e+02  -1.753218e+02
   2.848372e+02   1.783150e+02
   4.631436e+01   2.762970e+02
  -1.332078e+02   1.773244e+02
  -9.141756e+01   3.572677e+01
   1.575438e+02   5.108786e+01
   3.162469e+02   1.539093e+02
   6.886323e+01   3.196358e+02
  -4.105251e+02   1.842374e+02
  -5.541233e+02  -1.116284e+02
  -2.095624e+02  -3.539688e+02
   3.380435e+02  -2.237079e+02
   4.524128e+02   7.581932e+01
   1.655932e+02   2.925480e+02
  -1.797979e+02   2.945374e+02
  -3.736905e+02   1.384097e+02
  -3.070174e+02  -1.231773e+02
  -1.123160e+02  -3.344487e+02
   1.003784e+02  -1.987019e+02
   2.062386e+01   1.053425e+02
  -1.421921e+02   2.275424e+02
  -2.444600e+02  -7.186806e+01
  -1.287287e+02  -4.664209e+02
   1.993233e+02  -3.844835e+02
   3.315574e+02   1.064115e+01
   1.571940e+02   2.894040e+02
  -1.954599e+02   1.702164e+02
  -1.644932e+02  -1.927375e+02
   1.019812e+02  -3.753113e+02
   3.421336e+02  -8.891323e+01
   4.227912e+02   2.745836e+02
   1.675813e+02   3.737058e+02
  -2.921711e+02   2.614779e+02
  -4.321009e+02  -3.046673e+01
  -2.755119e+02  -2.428230e+02
   7.954336e+01  -2.396674e+02
   3.009451e+02  -6.573507e+01
   1.917772e+02   5.681227e+01
  -2.994862e+01   1.877691e+01
  -8.442034e+01  -7.059587e+01
   7.028299e+01  -1.521554e+01
   2.016059e+02   1.062242e+02
   6.058585e+01   1.806377e+02
  -1.201607e+02   1.537490e+02
  -2.468575e+02   4.622264e+01
  -1.412468e+02  -3.721931e+01
   4.052035e+01  -2.155570e+02
   2.097663e+02  -2.370431e+02
   3.007200e+02  -1.073407e+02
   1.540135e+02   1.481482e+02
   2.073928e+01   2.986348e+02
  -2.841500e+01   2.886139e+02
  -3.016166e+01   1.680238e+02
  -1.190651e+01   1.636727e+01
  -4.982156e+01   6.665412e+01
  -2.110120e+02   7.124972e+01
  -2.230357e+02  -6.385814e+01
  -8.478002e+01  -2.176320e+02
   8.891772e+01  -1.615304e+02
   1.164470e+02   8.727911e+00
   1.033293e+02   1.977728e+02
  -2.530767e+01   2.089286e+02
  -1.907604e+02  -8.115346e+00
  -2.336114e+02  -1.556426e+02
  -1.134188e+02  -2.737030e+02
   3.941918e+01  -2.285153e+02
   1.128288e+02  -1.352768e+02
   1.136046e+02  -1.016083e+02
   1.388228e+02  -3.915725e+01
   2.321454e+02  -7.409573e+01
   2.845329e+02   4.493430e+01
   2.705711e+02   2.143549e+02
  -5.811430e+01   3.005989e+02
  -2.772655e+02   3.267829e+02
  -3.753025e+02   6.483816e+01
  -2.045386e+02  -7.645745e+01
  -4.405543e+01  -2.218989e+02
   1.057368e+02  -1.397189e+02
  -1.301431e+01  -6.528447e+01
  -1.107158e+02   7.163845e+01
  -1.182730e+02  -2.665082e+01
   4.906020e+00  -1.711933e+02
   1.114490e+02  -1.126733e+02
   1.054808e+02   4.915520e+01
  -4.307209e+01   1.311094e+02
  -1.375642e+02  -9.348864e-01
  -1.071312e+02  -1.806260e+02
   3.819075e+01  -2.533383e+02
   2.058194e+02  -1.569899e+02
   1.979393e+02   5.784816e+01
   2.188929e+02   1.945126e+02
   3.317314e+01   1.856738e+02
  -1.041917e+02   1.062498e+02
  -1.162754e+02   2.299927e+01
  -4.349661e+01  -1.948789e+01
   5.284877e+01   6.047997e+01
   2.524224e+01   1.177614e+02
  -7.298248e+01   1.040534e+02
  -1.240884e+02  -7.980581e+00
  -3.791068e+01  -4.238994e+01
   6.668143e+01   3.198248e+00
   6.691642e+00   4.920935e+01
  -9.756367e+01   6.402566e+01
  -2.358069e+02  -2.757361e+01
  -2.748171e+02  -1.191183e+02
  -2.937219e+01  -2.232410e+02
   1.723731e+02  -1.934802e+02
   2.632937e+02  -7.877185e+01
   9.210828e+01   2.871123e+01
   2.262618e+00   4.042980e+01
  -7.409309e+01  -4.386652e+00
   1.848158e+01  -8.495723e+01
   1.533092e+02  -2.966474e+01
   1.394451e+02   7.288397e+01
   6.354161e+01   1.033524e+02
  -5.553843e+01   1.423095e+02
  -1.185854e+02  -6.032934e+00
  -4.973955e+01  -6.440080e+01
   2.995060e+00   2.709142e-01
   2.437931e+01   5.679498e+01
  -5.583859e+01   1.117164e+02
  -1.565272e+02   3.379631e+01
  -1.354777e+02  -8.380840e+01
  -1.722805e+01  -1.776799e+02
   1.553938e+02  -1.348770e+02
   1.105868e+02  -1.411966e+01
   6.385787e+01   9.398236e+01
  -4.944517e+01   7.666107e+01
  -6.757697e+01   2.206619e+01
   1.845384e+01  -1.178812e+01
   3.717312e+01  -1.660732e+01
  -5.556774e+00   1.804375e+01
  -4.488989e+01  -2.946735e+01
  -8.861498e+01  -8.702909e+01
  -2.780935e+01  -1.033383e+02
   9.644749e+01  -5.528763e+01
   1.725789e+02   3.526872e+01
   1.620625e+02   1.079204e+02
   1.640132e+01   1.970656e+02
  -7.472388e+01   1.488312e+02
  -1.078469e+02   1.862550e+01
  -4.526274e+01   2.674426e+01
  -2.322700e+01  -1.806802e+01
  -4.570822e+01   3.410096e+01
  -2.579585e+01   1.785448e+01
  -5.422164e+00  -3.066727e+01
   5.740288e+01  -8.128682e+01
   1.449016e+02  -6.678098e+01
   7.028931e+01   7.935658e+01
  -2.427049e+01   1.059503e+02
  -1.180275e+02   6.679273e+01
  -1.684974e+02  -5.104413e+01
  -4.741572e+01  -1.738371e+02
   6.814797e+01  -1.938571e+02
   2.311353e+02  -1.163960e+02
   2.214626e+02   8.492359e+01
   9.802783e+01   1.036791e+02
  -7.585539e+01   8.722378e+01
  -7.900965e+01   9.982905e+01
  -2.980538e+01   8.403320e+01
  -3.162133e+01   7.370350e+01
  -5.888058e+01   6.716626e+01
  -9.872615e+01  -1.199100e+01
  -9.868051e+01  -1.897304e+02
  -5.485283e+01  -2.161057e+02
   7.845134e+01  -1.047379e+02
   1.507541e+02  -5.363717e+01
   1.045901e+02   9.374089e+01
  -2.107105e+01   1.101452e+02
  -4.074250e+01   8.398493e+01
  -5.937034e+01   1.085196e+01
   1.056602e+01  -6.988911e+01
   5.266331e+01  -2.614779e+01
  -3.988601e+01  -1.298923e+00
  -5.409895e+01  -1.439444e+01
  -2.230795e+01  -4.938048e+01
   3.235684e+01  -1.816609e+01
   1.542308e+02  -3.177886e+00
   7.837644e+01   8.108135e+01
  -1.600692e+01   9.909765e+01
  -7.529535e+01   1.014597e+02
  -9.927113e+01  -5.937264e-01
  -1.556512e+01  -5.686346e+01
   4.551640e+01  -2.487507e+01
   5.123142e+01   4.053208e+01
   4.032965e-01   6.218574e+01
  -2.406674e+01   9.648224e+01
  -7.910733e+01  -5.675358e+01
   1.097457e+01  -5.879353e+01
  -4.963349e+01  -6.751796e+01
  -3.026855e+01   4.611828e+00
  -6.396765e+01   1.489509e+01
  -1.896940e+01  -4.212654e+01
   2.407825e+01  -9.390891e+01
   1.038939e+02  -1.266892e+02
   1.461684e+02  -1.170562e+00
   8.579562e+01   5.537101e+01
   7.210405e-01   1.185780e+02
  -7.182166e+01   1.866319e+01
  -7.756501e+01  -2.668732e+01
   2.625428e+01  -5.920426e+01
   7.139250e+01   2.884898e+01
   4.374314e+01   9.851519e+01
  -1.098233e+02   7.265345e+01
  -1.704715e+02   2.712212e+01
  -1.156307e+02  -5.095631e+01
  -2.353737e+01  -6.279446e+01
   3.216416e+01  -5.612238e+01
   5.804415e+01  -3.691290e+01
  -7.275519e+01   3.670981e+01
  -5.127581e+01  -4.453063e+01
  -5.276746e+00  -8.624198e+01
   9.890983e+01  -9.990533e+01
   1.117831e+02  -3.679036e+01
   9.173644e+01   3.862156e+01
   2.360453e+01   1.695417e+02
  -3.798663e+01   7.756308e+01
  -5.206611e+01   9.400357e+00
  -1.802005e+01  -7.871315e+01
  -1.309058e+00  -7.332673e+01
   5.133382e+01  -5.136897e+01
   5.662458e+01   2.350988e+00
   4.984390e+01   5.208172e-01
   6.937474e+00  -1.986260e+01
   3.551881e+01   3.136617e+01
   4.943964e+01   5.943516e+01
   2.726734e+01   1.117663e+02
  -4.352819e+01   7.002402e+01
  -7.942039e+01  -4.019824e+01
  -9.627558e+01  -8.229259e+01
  -8.893910e+00  -1.837016e+01
   1.978324e+01  -7.787375e+01
   6.882145e+01   5.652230e+00
   1.505108e+00  -4.875509e+00
  -4.016824e+00  -2.589021e+00
  -4.614686e+01   3.645254e+01
   4.616455e+01   1.548659e+01
  -1.611634e+01  -1.631088e+01
  -1.236391e+01  -5.317384e+00
  -7.708592e+01  -4.378633e+01
  -9.786927e+00  -5.228580e+01
   1.000418e+02  -8.302120e+01
   1.493764e+02  -3.499312e+01
   1.448944e+02   6.410186e+01
   2.574110e+01   1.300096e+02
  -2.409609e+01   1.015247e+02
  -5.336872e+01   6.962857e+01
  -6.727483e+01  -1.400264e+01
   7.913160e+00  -3.608475e+01
  -7.459867e+00  -3.041841e+00
  -4.497766e+01  -1.703365e+01
  -7.601354e+00  -7.304353e+01
  -6.697406e+00  -7.137774e+01
   4.579127e+01  -7.832329e+01
   6.629818e+01  -2.925078e-01
   4.240772e+01   4.124367e+01
   1.790860e+01   9.814823e+01
  -5.277949e+01   2.877952e+01
  -9.923409e+01  -6.221446e+01
  -3.544659e+01  -6.601307e+01
   4.497230e+01  -5.306911e+01
   6.920605e+01   7.899700e+00
   8.467878e+01   3.610563e+01
   4.632536e+00   4.232977e+01
  -3.616162e+01  -1.197529e+01
   1.721822e+01   2.493523e+00
   1.797985e+01   8.226806e+00
   1.669494e+01   3.325606e+01
  -9.697881e+01   4.967757e+01
  -9.110370e+01   1.432773e+01
  -6.318035e+01   1.949564e+01
  -6.003701e+01  -7.122523e+01
   6.162964e+01  -8.908940e+01
  -1.009674e+01  -1.151134e+01
   1.694524e+01   2.876981e+01
  -2.922589e+01   6.165484e+01
  -2.717212e+00  -1.778239e+01
  -3.351596e+01  -5.333386e+00
  -3.041389e+01  -2.475223e+01
   6.865399e+00  -2.036689e+01
   3.515706e+01   2.767014e+01
   6.892874e+00  -1.944746e+01
   1.432432e+01  -4.963219e+00
   7.785354e-02  -2.173963e+01
   2.515133e+01   5.303740e+01
  -6.510828e+00   3.307041e+01
  -2.494544e+01  -1.947733e+01
  -4.765786e+00  -1.556064e+01
   2.402005e+01  -6.175400e+01
   6.072465e+01  -4.220953e+01
   7.076425e+01  -1.642023e+01
   4.561445e+01   6.036250e+01
  -3.830798e+01  -4.747867e+00
  -5.893918e+01  -6.285395e+00
  -1.520132e+01  -1.807593e+01
   5.130186e+01  -7.796963e-01
   6.911750e+01  -2.159452e+01
  -2.127689e+01  -2.705935e+01
  -3.222127e+01   1.206117e+01
  -6.016468e+01  -1.109455e+01
   5.022556e+01  -3.478714e+01
   9.983616e+01   7.218916e+00
