
 $NMID
 id='ANONYMOUS ', fmtdat='(2E16.6)'
 volume=1.0
 tramp=1.0
 $END
  -3.337892e+03   7.381695e+01
  -2.195128e+03  -1.897406e+03
   1.009172e+02  -2.329910e+03
   1.599641e+03  -1.152568e+03
   9.728011e+02   7.557189e+01
  -1.735529e+02   2.540016e+02
  -5.248562e+02  -1.594648e+02
  -1.507162e+01  -6.494064e+02
   5.764078e+02  -5.435967e+02
   7.552949e+02   4.993390e+01
   3.730731e+02   6.036810e+02
  -8.848006e+01   7.113533e+02
  -4.073077e+02   1.483308e+02
  -2.567115e+02  -4.748169e+02
   2.336848e+02  -5.400870e+02
   4.194454e+02   6.150291e+00
   2.220920e+02   5.436932e+02
  -2.198156e+02   5.526558e+02
  -5.428426e+02   1.858894e+02
  -3.997537e+02  -1.764134e+02
  -6.069775e+01  -4.055973e+02
   1.962441e+02  -2.462925e+02
   2.001135e+02  -1.045709e+02
  -1.830308e+02  -6.033264e+01
  -3.198255e+02  -2.232441e+02
  -4.458245e+01  -3.654566e+02
   5.135236e+02  -2.066432e+02
   6.559437e+02   1.495361e+02
   2.242297e+02   4.473398e+02
  -3.781444e+02   2.766627e+02
  -5.673333e+02  -1.596968e+02
  -2.186274e+02  -4.588151e+02
   2.384034e+02  -3.747188e+02
   4.555225e+02  -8.303676e+01
   3.204392e+02   1.901766e+02
   6.660238e+01   3.805378e+02
  -4.623517e+01   1.643691e+02
  -1.298157e+01  -1.075939e+02
   1.627036e+02  -1.667465e+02
   2.752822e+02   1.815960e+02
   4.575156e+01   5.452574e+02
  -3.130238e+02   3.941848e+02
  -4.006126e+02  -2.984751e+01
  -1.732046e+02  -3.888064e+02
   1.873940e+02  -2.003410e+02
   2.543333e+02   2.645833e+02
  -1.205929e+02   4.678238e+02
  -4.997791e+02   1.466272e+02
  -5.002202e+02  -3.452078e+02
  -1.164540e+02  -5.050302e+02
   3.524043e+02  -2.663757e+02
   5.417947e+02   4.987267e+01
   3.325043e+02   2.635272e+02
  -1.027224e+02   2.304187e+02
  -2.983352e+02   2.159715e+01
  -1.979827e+02  -1.125390e+02
   7.474658e+01  -2.989238e+01
   5.576323e+01   1.226499e+02
  -1.060126e+02   8.552530e+01
  -2.850717e+02  -8.905697e+01
  -1.027597e+02  -2.605492e+02
   2.050294e+02  -2.566317e+02
   3.653508e+02  -1.105040e+02
   2.596597e+02   9.660848e+01
  -5.464047e+01   2.911372e+02
  -3.084478e+02   3.269042e+02
  -3.364720e+02   1.798433e+02
  -2.222389e+02  -1.543347e+02
  -2.501762e+01  -3.619244e+02
   5.548565e+01  -2.910369e+02
   4.282405e+01  -1.039665e+02
  -8.501159e+00  -5.080822e+01
   1.036462e+02  -1.194146e+02
   2.210887e+02  -5.506192e+01
   2.458112e+02   1.108381e+02
   1.039884e+02   2.526065e+02
  -1.082855e+02   1.932301e+02
  -1.764045e+02  -6.276342e+01
  -1.036537e+02  -2.437528e+02
   5.810112e+01  -2.240847e+02
   2.433673e+02  -4.436515e+01
   2.468092e+02   1.392819e+02
   1.461546e+02   2.694345e+02
  -3.294690e+01   2.465346e+02
  -2.047577e+02   1.650923e+02
  -1.668223e+02   4.034702e+01
  -1.757486e+02   7.141916e+00
  -2.586927e+02  -2.102034e+01
  -3.988015e+02  -1.104222e+02
  -2.827584e+02  -3.699717e+02
   8.135160e+01  -3.798841e+02
   3.804252e+02  -3.254516e+02
   4.831721e+02  -1.327798e+02
   2.567204e+02   1.472124e+02
   2.622596e+01   2.729256e+02
  -1.261293e+02   2.096956e+02
   5.512248e-02   4.732107e+01
   1.250655e+02   1.096908e+01
   1.622698e+02   5.351275e+01
  -1.925258e+01   1.975843e+02
  -1.237315e+02   9.991044e+01
  -1.535163e+02  -1.016529e+01
   2.184832e+01  -1.553155e+02
   2.259807e+02  -5.131458e-02
   8.436634e+01   2.493338e+02
  -4.523622e+01   3.464856e+02
  -2.670533e+02   1.471548e+02
  -3.213379e+02  -5.785350e+01
  -2.343733e+02  -2.810254e+02
  -6.167105e+01  -2.875500e+02
   1.772998e+02  -1.429729e+02
   1.644293e+02   5.529723e+01
   4.041322e+01   4.488347e+01
  -5.928562e+01  -2.448051e+01
  -9.775564e+00  -1.239743e+02
   1.112547e+02  -7.773673e+01
   1.797710e+02   5.971887e+01
   1.423316e+01   9.388083e+01
  -8.230173e+01   8.383808e-01
  -6.111596e+01  -1.171106e+02
   1.167563e+02  -7.462538e+01
   2.783298e+02   5.398718e+01
   1.996946e+02   1.688967e+02
   2.843937e+01   2.707852e+02
  -2.451566e+02   2.048427e+02
  -3.332484e+02   4.108078e+01
  -1.944142e+02  -8.018603e+01
   2.826640e+01  -9.027854e+01
   5.558070e+01  -2.815005e+01
  -7.563146e+01   6.093103e+01
  -1.833524e+02   6.268006e+00
  -1.438221e+02  -1.059417e+02
  -7.414992e+01  -2.128483e+02
   7.573998e+01  -1.208986e+02
   1.395673e+02   1.166863e+01
   8.236803e+01   7.926568e+01
  -3.453774e+01  -2.420306e+01
  -6.849154e+00  -1.301381e+02
   8.601487e+01  -1.131813e+02
   1.466191e+02   1.523261e+01
   1.800995e+02   1.236420e+02
   8.015080e+00   2.148751e+02
  -1.620606e+02   1.132932e+02
  -1.488499e+02  -1.672514e+00
  -7.809717e+01  -8.436560e+01
   3.757551e+01  -7.096010e+01
   7.732247e+01  -2.539451e+01
   8.115711e+00   2.254181e+01
  -4.755326e+01  -8.421665e+00
   5.786508e+00  -5.212665e+01
   1.001244e+02  -1.474366e+01
   8.969688e+01   1.259704e+02
  -2.959428e+01   1.727292e+02
  -1.098154e+02   1.440110e+02
  -2.064456e+02   2.627378e+01
  -1.977860e+02  -1.371087e+02
  -3.691561e+01  -2.241538e+02
   1.145647e+02  -1.613692e+02
   1.696714e+02  -5.440306e+01
   9.604757e+01   6.366503e+01
   4.651362e+01   1.758251e+01
   9.661842e+01  -5.879633e+01
   1.829794e+01  -2.672994e+01
   2.532986e+01   9.655277e+01
  -3.997469e+01   6.215062e+01
  -8.142229e+01   6.104764e+01
  -1.091692e+02  -3.089764e+01
  -2.211046e+00  -1.563557e+02
   1.679271e+02  -8.385708e+01
   1.624731e+02   4.239356e+01
   9.771928e+01   1.707197e+02
  -1.676848e+02   2.096032e+02
  -2.507052e+02   8.107576e+01
  -2.387729e+02  -1.391772e+02
  -3.724533e+01  -1.602353e+02
   3.092573e+01  -1.203181e+02
   1.062876e+02  -9.951443e+01
   7.835955e+01  -6.390664e+01
   8.327472e+01  -1.039161e+02
   7.018691e+01  -9.441918e+01
   1.431489e+02   6.802663e+01
   9.742600e+01   1.336300e+02
   6.783617e+01   2.015091e+02
  -1.258044e+02   1.735593e+02
  -1.262992e+02   4.150625e+01
  -1.107717e+02  -1.571321e+02
   1.101097e+01  -1.743101e+02
   9.411807e+01  -5.768117e+01
   5.898349e+01   1.489290e+00
   9.066230e+00   3.606105e+01
  -8.196256e+00   4.381394e+01
  -4.271027e+00   3.710811e+00
   1.182047e+02   6.231290e+01
  -1.031584e+00   3.304465e+01
  -6.997997e+01   2.366459e+01
  -1.611131e+02  -2.473710e+01
  -1.315789e+02  -5.959942e+01
  -1.331952e+00  -1.117893e+02
   1.439898e+02  -7.162814e+01
   1.587481e+02  -2.332202e+01
   1.684291e+01   3.203650e+01
  -5.250429e+01   3.964990e+01
  -2.792476e+01   4.639329e+00
   1.593172e+01  -1.660058e+01
   8.413171e+01  -4.224257e+01
   6.804251e+01   2.490696e-01
   6.884091e+01   9.254476e+01
   2.623799e+01   8.040512e+01
   5.851977e+01  -5.228505e+01
   7.828999e+01   5.186101e+00
   9.949136e+00   9.078397e+01
  -3.003017e+01   1.185492e+02
  -1.679277e+02   1.143749e+02
  -1.608933e+02   3.569000e+01
  -1.225386e+02  -1.107900e+02
   3.393740e+01  -1.323350e+02
   8.730761e+01  -1.318464e+02
   7.551236e+01   3.539225e+01
  -4.854783e+01   5.917496e+01
  -1.135477e+02  -7.783886e+01
  -7.561991e+01  -1.094136e+02
   8.464341e+01  -7.065147e+01
   1.816318e+02  -5.239790e+01
   1.700359e+02   3.560822e+01
   1.025236e+01   7.197840e+01
  -5.292975e+01   1.003497e+01
  -7.475006e+01  -1.999994e+01
   1.933023e+01  -4.502521e+01
   5.712010e+01   2.704440e+01
  -9.115507e+00   1.147918e+02
  -8.235501e+01   1.806601e+02
  -1.603003e+02   8.113895e+01
  -1.141166e+02  -7.941100e+01
  -3.848916e+01  -1.941773e+02
   9.891128e+01  -1.256139e+02
   9.297061e+01   5.790307e+01
   6.032636e+01   1.280163e+02
   2.898479e+00   1.064166e+02
  -3.410679e+01  -1.375390e+01
  -3.504425e+01  -6.273796e+01
  -3.509031e+00  -3.070759e+01
  -2.234645e+01   1.652937e+01
  -5.240091e+00   5.864783e+00
  -4.522475e+01  -1.077524e+02
  -5.342225e+01  -1.172900e+02
   3.915225e+01  -1.772589e+01
   1.227020e+02   4.571170e+01
   1.720531e+02   1.268092e+02
   3.578565e+01   5.373699e+01
  -8.615131e+01   2.963444e+01
  -8.310314e+01   5.296725e+00
  -4.378099e+00  -8.735891e+00
   3.345953e+01  -5.031607e+01
   3.424514e+01  -5.350779e+01
  -1.297525e+01  -2.165310e+01
   1.107035e+01   3.464579e+01
   1.952551e+01   6.286730e+00
   9.924215e+01  -1.208757e+01
   9.558693e+00   5.656182e+01
  -5.668491e+01   9.226195e+01
  -1.515560e+02   1.026242e+02
  -1.377734e+02  -8.666380e+01
  -3.509761e+01  -1.499331e+02
   6.092458e+01  -1.663037e+02
   1.605726e+02  -4.420010e+01
   6.231699e+01   2.867222e+01
  -1.422768e+01   6.274031e+01
  -1.051973e+01   1.772591e+01
   2.504726e+01  -6.349951e+00
   8.270101e+01   6.987712e+01
   5.178689e+01   8.749156e+01
  -3.913356e+01   1.016315e+02
  -7.394339e+01   8.587914e+00
  -6.934907e+01  -4.901561e+01
  -1.284631e+01  -8.985709e+01
   6.512662e+01  -3.567102e+01
   9.992051e+01   8.421878e+01
   1.465230e+01   1.103902e+02
  -5.513545e+01   9.154728e+01
  -1.098804e+02  -1.064797e+01
  -6.788035e+01  -3.425154e+01
   2.849670e+01  -5.681912e+01
   5.819540e+01  -3.742513e+01
  -3.685988e+01  -2.336375e+01
  -7.296855e+01  -6.270294e+00
  -4.709797e+01  -2.266903e+01
   1.116980e+02  -1.644649e+01
   1.416771e+02  -2.151093e+01
   1.070346e+02   4.943493e+01
   6.896307e+00   1.022079e+02
  -3.457684e+01   7.000188e+01
  -1.726752e+01  -1.903339e+00
   2.831482e+01  -2.662105e+01
   2.623910e+00  -8.807694e+01
   6.314494e+01   1.948567e+01
   1.713382e+00   6.795643e+01
  -5.720118e-01   1.243423e+01
   8.106716e+00   3.462581e+00
  -6.505808e+01  -5.906647e+01
  -1.111459e+01  -2.030037e+01
  -7.867417e+00   2.361985e+01
   1.761652e+01   5.784680e-01
  -1.053527e+01  -4.074332e+01
   1.476309e+01  -3.076121e+01
   5.854704e+01  -2.747665e+00
   6.125588e+01   8.082907e+01
   2.805272e+01   5.088359e+01
  -6.394255e+01   3.682843e+01
  -6.888351e+01  -6.116356e+01
  -3.982898e+01  -6.550331e+01
   3.596187e+01  -4.403757e+01
   7.875493e+01   2.588339e+01
   1.765127e+01   4.568587e+01
  -3.603643e+01   3.956853e+01
  -5.719429e+01   1.404462e+01
  -3.633863e+01  -3.624035e+00
   4.082091e+01  -1.944417e+01
  -1.128806e+01   3.403726e+01
  -5.210387e+01   4.895529e+00
  -4.039944e+01   8.404160e+00
