
 $NMID
 id='ANONYMOUS ', fmtdat='(2E16.6)'
 volume=1.0
 tramp=1.0
 $END
  -2.645641e+03  -1.843299e+02
  -1.548006e+03  -1.512089e+03
   2.079046e+02  -1.506563e+03
   9.616576e+02  -9.365072e+02
   6.908839e+02  -2.441551e+02
   2.809495e+01   6.010086e+01
  -2.490896e+02  -1.261620e+02
  -6.833770e+01  -4.502102e+02
   3.712469e+02  -4.846538e+02
   5.497751e+02  -1.815354e+01
   3.360649e+02   4.258627e+02
   6.251714e+01   5.669806e+02
  -2.322880e+02   1.380659e+02
  -2.014217e+02  -2.746340e+02
   9.627842e+01  -4.258014e+02
   2.986781e+02  -9.506732e+01
   2.419557e+02   3.634220e+02
  -3.433819e+01   5.217340e+02
  -3.699134e+02   2.681606e+02
  -3.607691e+02  -9.091886e+01
  -1.328379e+02  -3.037877e+02
   6.553968e+01  -2.494645e+02
   4.041318e+01  -7.807226e+01
  -1.838717e+02  -7.729305e+01
  -2.648102e+02  -2.375303e+02
   4.234748e+00  -2.467812e+02
   3.714869e+02  -1.637687e+02
   5.457573e+02   1.583036e+02
   2.043803e+02   2.176434e+02
  -2.846668e+02   2.197766e+02
  -4.276193e+02  -8.118320e+01
  -1.691293e+02  -2.895426e+02
   1.963625e+02  -2.975521e+02
   3.846028e+02  -1.476169e+02
   2.182703e+02   7.750492e+01
   4.828401e+01   2.173773e+02
  -2.195852e+01   1.453370e+02
   2.177477e+01  -3.931618e+01
   1.766899e+02  -1.735232e+02
   1.431870e+02   1.096218e+02
   7.738355e+01   4.000071e+02
  -1.463578e+02   3.129009e+02
  -3.250208e+02   3.052129e+00
  -8.494072e+01  -2.150727e+02
   1.560569e+02  -1.157669e+02
   1.322030e+02   2.610593e+02
  -1.254542e+02   2.974811e+02
  -3.412283e+02   1.419169e+01
  -4.147544e+02  -3.628203e+02
  -2.173230e+02  -4.126356e+02
   2.719760e+02  -2.364590e+02
   4.314010e+02   2.404935e+01
   2.850282e+02   1.935014e+02
  -6.680529e+01   2.088777e+02
  -2.653326e+02   1.056140e+02
  -1.894306e+02  -2.743382e+01
  -4.864887e+00   1.808393e+01
   9.737110e-01   5.317230e+01
  -7.355456e+01   4.180527e+01
  -1.634216e+02  -5.945113e+01
  -1.315894e+02  -1.146206e+02
   1.341172e+02  -2.147324e+02
   2.914459e+02  -9.152728e+01
   2.727799e+02   7.242265e+01
   2.015889e+01   2.918873e+02
  -1.097351e+02   2.892026e+02
  -2.809506e+02   1.443470e+02
  -2.200681e+02  -7.480873e+01
  -9.874875e+01  -2.298016e+02
  -1.963246e+01  -2.416411e+02
   5.790616e+01  -8.179853e+01
   2.771136e+01  -5.964426e+01
   1.450884e+02  -1.371523e+02
   2.423010e+02  -3.380718e+01
   2.083731e+02   6.893642e+01
   1.016667e+02   2.354332e+02
  -6.522942e+01   1.244073e+02
  -1.615216e+02  -4.140801e-01
  -1.036315e+02  -2.069198e+02
   4.500347e+01  -2.283572e+02
   1.770236e+02  -8.456388e+01
   2.416347e+02   1.761973e+02
   1.878368e+02   2.417461e+02
  -7.347505e+01   2.130967e+02
  -1.267154e+02   1.593134e+02
  -1.027637e+02   1.002004e+02
  -7.764185e+01   7.799423e+01
  -2.322283e+02   5.356536e+00
  -2.880991e+02  -8.122586e+01
  -3.163768e+02  -2.776233e+02
   8.371933e+00  -3.515953e+02
   2.690928e+02  -2.990124e+02
   3.785444e+02  -1.441803e+02
   2.760535e+02   1.130988e+02
   1.322274e+01   2.430718e+02
  -3.703732e+01   2.229891e+02
   4.506271e+01   4.044602e+01
   6.048941e+01   4.034160e+00
   1.294589e+02   6.687026e+01
   3.388387e+01   1.033258e+02
  -9.343993e+01   1.138052e+02
  -8.389899e+01  -2.560101e+01
   1.689659e+01  -1.167047e+02
   1.552741e+02  -1.737189e+01
   1.283150e+02   1.683579e+02
  -2.183609e+01   3.110345e+02
  -2.317477e+02   1.709943e+02
  -3.324914e+02   1.054180e+01
  -2.473510e+02  -2.332535e+02
  -7.545258e+01  -2.537421e+02
   1.270550e+02  -1.621908e+02
   1.459276e+02   7.648216e+00
   2.952985e+01   2.151322e+01
  -2.128850e+01  -3.374821e+01
   8.994227e+00  -8.126645e+01
   1.479663e+02  -5.341359e+01
   1.376975e+02   1.314584e+01
   4.714042e+01   6.864180e+01
  -7.538472e+01  -8.187656e+00
  -4.993306e+01  -3.491403e+01
   1.270466e+02  -3.907853e+01
   2.455084e+02   2.474294e+01
   1.934116e+02   1.845376e+02
   5.592250e+01   2.037565e+02
  -1.764669e+02   2.256838e+02
  -2.214467e+02   6.318588e+01
  -1.359159e+02  -1.728088e+01
   3.529169e+01  -8.268549e+01
   6.925985e+01  -1.656250e+01
  -9.108486e+01   6.226056e+01
  -1.181797e+02   5.699649e-01
  -1.732142e+02  -6.362003e+01
  -7.102955e+01  -1.161895e+02
   4.890644e+01  -1.003353e+02
   1.234514e+02  -1.531346e+01
   1.995084e+01   1.263372e+01
  -5.156836e+01  -3.754792e+01
  -1.896902e+01  -1.474442e+02
   1.101652e+02  -8.888238e+01
   2.143593e+02  -7.234345e+00
   1.115257e+02   7.518074e+01
   5.562827e+01   1.665017e+02
  -1.368329e+02   1.042593e+02
  -1.711436e+02   4.470658e+01
  -3.044044e+01  -9.579221e+01
   5.777557e+01  -4.229860e+01
   9.266562e+01  -3.938889e+01
   1.965355e+01   1.212661e+01
  -1.192745e+01   2.511057e+01
  -3.694732e+01  -2.005542e+01
   7.796511e+01   6.905691e+00
   1.335394e+02   8.350173e+01
   2.206329e+01   1.382068e+02
  -7.770667e+01   1.269959e+02
  -2.125399e+02   4.530940e+01
  -1.384500e+02  -1.461736e+02
  -5.439532e+01  -1.707841e+02
   6.635976e+01  -1.567473e+02
   1.208600e+02   8.417269e+00
   2.137640e+01   2.149286e+01
   2.979491e+01  -8.736042e+00
   9.203204e+01   3.191021e+01
   9.018160e+01   2.277479e+01
   2.056626e+01   4.931787e+01
  -1.434680e+01   1.108060e+02
  -9.211575e+01   4.036606e+01
  -8.596458e+01  -1.358342e+01
   5.861842e+00  -1.387963e+02
   1.340493e+02  -8.069712e+01
   1.701133e+02   8.231052e+01
   8.839676e+01   1.620286e+02
  -6.855931e+01   2.070694e+02
  -2.279797e+02   9.775290e+01
  -2.155273e+02  -7.647118e+01
  -1.201174e+02  -1.631048e+02
   1.704096e+01  -1.044543e+02
   7.871826e+01  -9.022086e+01
   9.118752e+01  -4.521805e+01
   7.058695e+01  -6.457737e+01
   5.184290e+01  -6.301696e+01
   8.005665e+01   4.044030e+01
   1.204273e+02   8.946135e+01
   1.808514e+01   2.249826e+02
  -7.667923e+01   1.263913e+02
  -1.232787e+02   7.174137e+00
  -1.218086e+02  -7.888063e+01
  -1.332894e+01  -1.281984e+02
   2.635251e+01  -6.012093e+01
   5.689215e+01  -2.011408e+00
  -2.977282e+01   7.693600e+01
  -2.420054e+01   3.087505e+00
   2.123433e+01   5.914419e+00
   6.945154e+01   3.680711e+01
   1.294160e+01  -1.395006e+00
  -7.545156e+01   5.773840e+01
  -1.349751e+02   2.108120e+01
  -9.149452e+01  -2.440767e+01
   1.787267e+01  -1.098574e+02
   1.109191e+02  -6.426917e+01
   1.083948e+02   1.745072e+01
   2.712119e+01   6.185667e+01
  -2.496607e+01   5.791700e+01
  -1.067657e+01  -6.063483e+00
   2.917661e+01  -3.498421e+01
   4.202477e+01  -7.053534e+01
   3.703046e+01  -3.665854e+00
   6.200986e+01   2.280675e+01
   6.308358e+01   9.315019e+01
   2.095195e+01   2.283038e+01
   5.868513e+01  -1.574481e+01
   4.005568e+01   8.975126e+01
  -4.703261e+01   1.192584e+02
  -1.035278e+02   1.600168e+02
  -1.070046e+02   5.797909e+01
  -1.197121e+02  -3.202217e+01
  -1.345606e+01  -1.207392e+02
   8.434757e+01  -4.659610e+01
   1.927701e+01   6.663670e+00
  -9.957817e+01  -3.544876e+00
  -8.884179e+01  -6.927540e+00
  -3.897212e+01  -1.036579e+02
   1.108373e+02  -1.003008e+02
   1.421195e+02  -5.980390e+01
   1.599755e+02   4.828162e+01
   7.391056e+01   6.467622e+01
  -9.700350e+01   5.756120e+01
  -4.554258e+01  -3.992335e+01
   5.237566e+01  -2.823230e+01
   5.985126e+01  -1.027618e+01
   5.309251e+01   8.716670e+01
  -5.997632e+01   1.109052e+02
  -1.450185e+02   5.994985e+01
  -1.258165e+02  -6.710201e+01
  -1.830894e+01  -1.502197e+02
   5.035204e+01  -1.217991e+02
   1.410849e+02   3.347644e+01
   7.134717e+01   1.105630e+02
   3.071356e+01   1.122747e+02
  -5.333960e+01   1.307673e+01
  -6.792334e+01   4.064975e+00
  -4.219916e+01  -3.831096e+01
   1.391783e+01   3.930434e+01
  -5.111783e+01  -3.585155e+01
  -8.419528e+01  -8.302640e+01
  -4.799948e+01  -1.150248e+02
   7.569109e+01  -6.464334e+01
   1.130851e+02   5.874632e+00
   9.674916e+01   9.592146e+00
   4.588289e+01   5.594882e+01
  -1.159896e+02   1.925787e+01
  -1.179659e+02   1.230447e+01
   1.391866e+01  -4.384128e+01
   3.741481e+01  -2.834103e+01
  -1.269929e+01   2.499306e-01
  -9.732478e+00  -1.786493e+01
  -1.580572e+01  -2.857629e+00
   4.722642e+01  -2.147105e+01
   6.764751e+01   2.162070e+01
   5.454915e+00   3.467051e+01
  -1.072535e+02   9.649542e+01
  -1.573489e+02   7.370221e+01
  -1.421073e+02  -6.492154e+01
  -7.588676e+01  -1.361979e+02
   1.726876e+01  -1.287253e+02
   4.502296e+01  -5.427639e+01
   7.354082e+01  -3.774397e+01
  -3.034176e+00   3.607737e+01
  -5.894209e+00   6.247031e+00
   2.153674e+01  -1.240248e+01
   3.095618e+01   6.319294e+01
   9.229990e+00   7.866841e+01
  -4.069982e+01   7.864796e+01
  -6.288577e+01  -8.794965e+00
  -5.736762e+01  -4.452183e+01
   4.819414e+00  -8.321045e+01
   4.806422e+01  -3.752708e+01
   9.821223e+01   6.557445e+01
   4.264920e+01   7.032542e+01
  -7.564062e+01   9.650584e+01
  -5.443479e+01  -3.243286e+00
  -2.939732e+01  -6.242170e+01
   3.620544e+01  -4.795969e+01
   6.557148e+01  -5.252675e+01
   1.189471e+01   1.958669e+01
  -4.329294e+01  -1.921673e+01
  -3.448399e+01  -5.785143e+00
   9.558800e+01  -7.360868e+01
   1.298587e+02  -5.363414e+01
   1.050366e+02  -2.154725e+01
  -1.426452e+01   6.030329e+01
  -7.004570e+01   6.632574e+01
  -3.136876e+01  -3.132756e+00
   1.778945e+01  -1.851146e+01
  -2.459921e+00  -4.116484e+01
   3.108587e+01   7.698065e+00
   2.447452e+01   1.017641e+01
  -3.059915e+00   3.750273e+01
  -2.152493e+01  -1.646876e+01
  -4.324670e+01  -2.147917e+01
  -1.428274e+01  -1.730780e+01
   3.067878e+00   4.323695e+01
   1.898893e+00   1.466778e+01
   2.581557e+01  -5.577920e+01
  -6.454156e+00  -4.217805e+01
   3.666233e+01  -6.006644e+01
   1.931969e+00   3.904516e+01
   3.380914e+01   2.915614e+01
  -5.959314e+01   1.733019e+01
  -2.405494e+01  -7.054792e+01
  -6.659532e+00  -2.031388e+01
   3.607655e+01   6.960867e+00
   3.941705e+01  -9.471976e+00
   6.170107e+01   5.724544e+01
  -1.510175e+01   1.857603e+01
  -1.661550e+01   4.303624e+01
  -8.905755e+00   1.132564e+01
  -1.291628e+01  -5.381730e+01
   1.610341e+01  -5.532328e+00
  -4.642842e+00  -6.274419e+00
  -4.064252e+01   3.837003e+01
