
 $NMID
 id='ANONYMOUS ', fmtdat='(2E16.6)'
 volume=1.0
 tramp=1.0
 $END
   2.742834e+03  -4.339583e+02
   1.892945e+03   1.063786e+03
   3.540971e+02   1.583645e+03
  -7.606135e+02   1.346696e+03
  -7.909787e+02   3.227071e+02
  -2.005090e+02  -2.332141e+01
   9.953108e+01   5.678862e+01
  -3.003805e+00   2.942933e+02
  -2.353594e+02   4.660233e+02
  -5.016833e+02   1.687397e+02
  -4.766476e+02  -2.946786e+02
  -1.555841e+02  -5.258061e+02
   1.296032e+02  -2.073970e+02
   1.857813e+02   1.780550e+02
  -2.199505e+01   4.185465e+02
  -2.640938e+02   1.328700e+02
  -3.213925e+02  -3.732372e+02
   3.208239e+01  -6.176314e+02
   3.921373e+02  -3.292071e+02
   4.516979e+02   2.751043e+01
   2.149983e+02   3.407402e+02
  -2.536044e+01   2.606859e+02
  -2.066070e+01   9.849772e+01
   1.329731e+02   1.659600e+02
   1.676165e+02   2.730774e+02
   1.938966e+01   2.921720e+02
  -3.592168e+02   1.514925e+02
  -4.731465e+02  -1.437831e+02
  -1.538885e+02  -2.956235e+02
   3.123120e+02  -7.738163e+01
   4.144673e+02   1.627529e+02
   9.636766e+01   3.296577e+02
  -2.145750e+02   2.971693e+02
  -3.653881e+02   9.389083e+01
  -3.039314e+02  -6.172357e+01
  -1.643792e+02  -2.497351e+02
  -1.040670e+02  -1.058040e+02
  -7.575866e+01   6.257536e+01
  -1.560119e+02   1.264357e+02
  -1.289393e+02  -1.344020e+02
   3.721752e+00  -3.558006e+02
   1.338495e+02  -2.922549e+02
   2.006677e+02   2.397702e+01
   9.362741e+01   2.491358e+02
  -8.447963e+01   5.009450e+01
  -1.467723e+02  -2.086560e+02
   7.666319e+01  -3.153498e+02
   3.599986e+02  -5.332089e+01
   4.001870e+02   3.372922e+02
   1.646446e+02   4.007400e+02
  -2.133752e+02   2.275649e+02
  -4.087598e+02   2.896654e+01
  -3.552622e+02  -1.662938e+02
  -5.719020e+00  -1.918517e+02
   2.559125e+02  -1.098549e+02
   1.973685e+02   1.488960e+01
   5.163848e+01   3.853614e+00
  -2.871340e+01  -2.738594e+01
   6.027444e+01  -2.643727e+01
   1.816663e+02   1.674368e+01
   7.861386e+01   1.600757e+02
  -1.440756e+02   2.668078e+02
  -3.467739e+02   1.043844e+02
  -2.489945e+02  -1.203647e+02
   7.524720e+00  -3.329103e+02
   2.443916e+02  -3.346395e+02
   2.871089e+02  -1.655291e+02
   1.799462e+02   1.377650e+02
   6.945894e+01   2.596131e+02
  -2.115068e+01   2.984610e+02
   8.015143e+01   1.579505e+02
  -2.658389e+01   8.511667e+01
  -1.709748e+02   1.483595e+02
  -2.378230e+02   2.896980e+01
  -2.080298e+02  -1.326876e+02
  -6.036270e+01  -2.282817e+02
   7.354809e+01  -1.602987e+02
   1.931248e+02   5.616937e+01
   1.303558e+02   2.299241e+02
  -4.056943e+01   2.523389e+02
  -2.162968e+02   8.333526e+01
  -2.445738e+02  -1.182217e+02
  -1.785112e+02  -2.288896e+02
   8.158176e+00  -2.186843e+02
   1.063500e+02  -1.545755e+02
   1.222358e+02  -8.735708e+01
   7.109825e+01  -9.301238e+01
   2.553042e+02  -5.335411e+01
   3.871853e+02   9.426653e+01
   2.833521e+02   2.205734e+02
  -3.349314e+01   3.526808e+02
  -3.088366e+02   3.889637e+02
  -4.482967e+02   2.013747e+02
  -2.402553e+02  -1.183744e+02
   1.170803e+01  -1.876463e+02
   7.784765e+01  -2.299263e+02
  -6.988992e+01  -7.704965e+01
  -1.099485e+02  -1.210815e+01
  -7.162172e+01  -8.146090e+01
  -3.901654e+00  -7.347361e+01
   6.587161e+01  -7.124401e+01
   8.177144e+01   3.194254e+01
  -2.953098e+01   1.091477e+02
  -1.166371e+02   1.363984e+00
  -1.267611e+02  -2.551765e+02
  -5.041724e+01  -2.923610e+02
   2.208043e+02  -1.686846e+02
   3.281598e+02   4.241243e+01
   2.380322e+02   2.267417e+02
   6.076252e+01   2.350210e+02
  -1.674581e+02   1.415655e+02
  -1.296984e+02   1.761947e+01
  -4.455426e+01  -9.878441e+00
   4.806167e+01   6.522320e+01
  -1.290375e+01   9.601406e+01
  -1.221386e+02   8.048658e+01
  -1.002032e+02  -6.418304e+01
   1.602733e+00  -5.275499e+01
   5.081865e+01   1.812933e+01
   2.824561e+01   8.204404e+01
  -1.606215e+02   4.263434e+01
  -3.035318e+02  -2.247898e+01
  -2.483652e+02  -1.157791e+02
  -4.907120e+01  -2.390409e+02
   2.090720e+02  -2.099679e+02
   2.485985e+02  -2.883810e+01
   1.000306e+02   5.713250e+00
  -2.077711e+01   3.026661e+01
  -6.581223e+01   1.260830e+01
   5.280788e+01  -7.132763e+01
   1.335139e+02   8.340733e+00
   1.847674e+02   8.981789e+01
   7.907321e+01   1.103491e+02
  -6.798702e+01   1.038815e+02
  -9.034638e+01   1.358046e+01
  -3.118241e+01   7.291149e+00
   4.037498e+01   4.129482e+01
   1.808435e+01   1.769415e+02
  -6.266856e+01   1.274275e+02
  -2.508216e+02   4.772857e+00
  -1.686540e+02  -1.393516e+02
   6.892126e+00  -1.967884e+02
   1.222908e+02  -1.100926e+02
   1.148572e+02  -3.590715e+01
   4.584127e+01   9.100201e+01
  -3.571217e+01   4.479363e+01
  -8.271385e+01   4.744302e+01
  -2.597207e+01   2.329941e+00
  -1.517085e+01   4.280491e+00
   1.733984e+01   3.960254e+01
  -1.366817e+02  -1.379589e+01
  -9.139219e+01  -6.963912e+01
  -2.261645e+01  -2.186580e+02
   1.565859e+02  -1.447790e+02
   2.421535e+02  -2.247117e+01
   1.509935e+02   1.641785e+02
   3.858888e+01   2.384160e+02
  -1.003382e+02   1.750119e+02
  -1.482861e+02   4.146718e+00
  -6.830616e+01  -3.844993e+01
  -2.716868e+01   1.220481e+01
  -8.035421e+01   2.227633e+01
  -1.061974e+02   5.049109e+01
  -6.963547e+01  -1.142604e+02
   3.670565e+01  -1.172840e+02
   1.758715e+02  -7.886698e+01
   1.320713e+02   2.869802e+01
  -2.482394e+01   1.650866e+02
  -1.782504e+02   8.944541e+01
  -1.623829e+02  -5.842957e+01
  -5.884709e+01  -1.959041e+02
   1.060399e+02  -2.175379e+02
   2.823662e+02  -9.156367e+01
   2.084424e+02   5.559835e+01
   1.009236e+02   1.402172e+02
  -2.939729e+01   1.291758e+02
  -4.917959e+01   2.006303e+01
  -1.364172e+01   3.786892e+01
  -4.580814e+01   9.078205e+01
  -5.825729e+01   9.360992e+01
  -1.725339e+02   4.891167e+00
  -1.198119e+02  -1.145570e+02
   7.874483e+00  -2.143276e+02
   8.647356e+01  -1.949446e+02
   1.301154e+02   1.314743e+01
   1.074619e+02   1.295538e+02
  -1.264349e+00   1.113845e+02
  -7.624705e+01   6.990601e+01
  -3.478550e+01   7.331537e+00
  -2.366634e+01  -3.500965e+01
   1.618478e+01  -3.516649e+01
   9.151984e+00   6.619167e-01
  -7.438617e+01  -3.422465e+01
  -2.132050e+01  -7.411914e+01
   6.403597e+01  -4.717504e+01
   1.515646e+02  -2.148973e+01
   1.269866e+02   1.993829e+01
  -3.316597e+01   9.112367e+01
  -1.413429e+02   7.556832e+01
  -1.443941e+02   2.539563e+01
  -3.972900e+01  -5.163900e+01
   4.837172e+01  -3.332808e+01
   7.588909e+01   1.595378e+01
   1.153310e+01   3.991453e+01
  -3.973834e+01   5.522712e+01
  -5.215619e+01  -1.059907e+01
  -7.853247e+01  -5.428740e+01
  -5.116642e+01  -6.939980e+01
  -3.710151e+01  -1.196171e+01
  -4.509553e+01  -1.263962e+01
  -3.883456e+01  -1.018270e+02
  -1.857554e+00  -1.569494e+02
   1.349967e+02  -1.634926e+02
   1.164393e+02  -2.034589e+01
   1.166602e+02   1.027764e+02
  -1.243783e+01   1.218997e+02
  -5.637196e+01   1.074413e+02
  -4.888789e+01   2.198004e+01
   4.527848e+01  -3.093493e+01
   1.024166e+02   2.662974e+01
   6.850528e+01   1.179044e+02
  -6.199741e+01   1.088195e+02
  -1.733417e+02   1.568867e+01
  -1.302413e+02  -2.559121e+01
  -2.720085e+01  -9.372884e+01
   6.161040e+01  -4.446413e+01
   1.920328e+01   2.816403e+01
  -4.452195e+01   3.935060e+01
  -8.558931e+01  -2.701626e+01
  -7.930388e+01  -1.275589e+02
   7.660125e+01  -1.416684e+02
   1.335038e+02  -5.575847e+01
   7.283019e+01   1.066890e+02
   3.971922e+01   1.616853e+02
  -7.307829e+01   1.489903e+02
  -1.120824e+02   5.125638e+01
  -9.456756e+01  -9.421344e+01
   1.028860e+01  -1.300411e+02
   2.730739e+01  -1.008859e+01
   1.665467e+01   4.048623e+01
   2.111904e+01  -3.899150e+01
  -9.065123e+00  -4.524636e+00
   4.673655e+01   1.286016e+01
   7.710167e+01   1.123811e+02
   1.488552e+01   1.096549e+02
  -3.375955e+01   3.125719e+01
  -1.331715e+02  -2.185028e+01
  -6.308200e+01  -4.513532e+01
  -5.806422e+00  -3.047497e+01
   9.500844e+01  -8.741681e+00
   8.381633e+01  -3.320777e+01
   5.965562e+01   1.317243e+01
  -1.101071e+01  -2.326020e+01
   3.761439e+01   2.669408e+01
   2.031836e+01   5.564217e+01
  -2.310018e+01  -9.871833e+00
  -5.103157e+01   2.508596e+01
  -1.171402e+02   2.345934e+01
  -3.729836e+01  -8.076978e+01
   3.863875e+01  -8.414576e+01
   1.699628e+02  -2.049281e+01
   1.153606e+02   2.732700e+01
   7.437700e+01   1.387118e+02
  -7.847460e+01   1.678499e+02
  -1.005114e+02   9.899892e+01
  -9.123894e+01   1.333662e+01
  -6.286948e+01  -2.796981e+01
  -3.532862e+01   3.640493e+00
  -2.874699e+01  -1.914795e+01
   3.239658e+00  -3.098520e+01
  -1.249909e+01  -7.640747e+01
  -2.475149e+00  -3.270346e+01
   5.604085e+01   3.245799e+01
   1.121853e+02   9.472472e+01
   2.182252e+01   6.707920e+01
  -4.506848e+01   4.071846e+01
  -1.143865e+02  -2.174430e+01
  -4.705781e+01  -6.822738e+01
   5.832720e+01  -7.458789e+01
   1.169439e+02   1.433114e+01
   7.043086e+01   6.572674e+01
  -4.884009e+00   1.158834e+02
  -2.638581e+01   4.543190e+01
  -9.333303e+00  -2.040008e+01
   4.202313e+01  -4.967189e+01
   3.337295e+01   4.469654e+01
  -6.352535e+01   5.522900e+01
  -1.440084e+02   4.624340e+01
  -7.346141e+01   1.292324e+01
   2.275851e-01  -1.015705e+02
   5.860158e+01  -1.137987e+02
   3.130830e+01   2.368378e+01
  -1.419004e+01   1.098075e+01
  -1.677091e+01   8.118047e+01
   9.055559e-02   7.825375e-01
  -5.206617e+01  -1.234840e+01
   1.820742e+01  -4.094899e+01
   2.923809e+01  -1.447799e+01
   5.297009e+01   6.097314e+01
   2.990963e+00  -2.100303e+00
  -6.160049e+00  -3.326957e+01
   2.649547e+01  -2.499146e+01
   1.758133e+01   3.657570e+01
   6.250968e+00   8.271023e+01
  -1.103153e+00   4.790276e+01
  -2.118363e+01  -1.281774e+01
  -3.504023e+01  -4.633474e+01
   1.549794e+01  -2.355057e+01
   2.641115e+01   2.452700e+01
   4.360688e+00   6.422556e+01
  -4.505949e+01   5.710236e+01
  -2.939585e+01  -2.059949e+01
  -5.071447e+01  -3.740274e+01
   4.365214e+01   5.594353e+00
   2.772139e+01  -2.500009e+01
   3.613242e+01   1.212434e+01
  -1.921064e+01   4.818247e+00
  -3.921055e+01  -4.704419e+00
   1.080230e+00  -2.830137e+01
   5.327660e+01  -2.901439e+00
