
 $NMID
 id='ANONYMOUS ', fmtdat='(2E16.6)'
 volume=1.0
 tramp=1.0
 $END
  -9.046369e+02  -2.469866e+02
  -6.727983e+02  -6.541554e+02
   1.897457e+01  -4.195890e+02
   3.449322e+02  -1.182096e+02
   1.304347e+02  -1.433178e+01
  -1.220586e+02   2.078519e+01
  -1.822615e+02  -1.609225e+02
   8.241199e+01  -2.077677e+02
   2.316354e+02  -1.862783e+02
   1.436613e+02   3.088728e+01
   3.521416e+01   1.365219e+02
  -1.139666e+02   2.100197e+02
  -8.812387e+01   1.304090e+01
  -1.237526e+01  -1.715381e+02
   1.677550e+01  -1.520679e+02
   9.726012e+01   4.156181e+01
  -1.444416e+01   8.962944e+01
  -2.247699e+01   6.017612e+01
  -1.155668e+02  -3.687106e+01
  -7.409751e+01  -6.210735e+00
  -5.088469e+01  -6.088876e+01
   1.398154e+01  -6.657106e+01
   2.938513e+01  -1.512650e+01
  -3.577782e+01  -1.613706e+01
  -1.059041e+02  -6.834955e+01
  -1.414011e+01  -1.309938e+02
   9.352126e+01  -6.017423e+01
   1.985885e+02   2.034846e+01
   5.486753e+01   1.404505e+02
  -1.166788e+02   9.133073e+01
  -1.464344e+02  -2.203457e+01
  -1.465000e+01  -9.216642e+01
   5.026855e+01  -8.300615e+01
   1.298681e+02  -4.466661e+01
   7.051718e+01   5.025509e+01
  -8.740860e+00   8.140509e+01
  -2.971183e+01   4.694113e+01
   3.005768e+00   1.275379e+01
   6.298005e+01  -6.735068e+01
   6.194638e+01   1.200744e+00
   1.878538e+01   1.803024e+02
  -1.128396e+02   1.776152e+02
  -1.284571e+02  -1.402990e+01
  -1.196225e+01  -7.565826e+01
   5.068252e+01  -5.676684e+01
   5.720910e+01   1.011220e+02
  -2.946228e+01   9.007359e+01
  -1.069867e+02   4.723553e+01
  -1.138611e+02  -2.080798e+01
  -7.321471e+00  -9.560857e+01
   8.242722e+01  -6.450956e+01
   1.296816e+02   9.206566e-01
   8.115735e+01   5.177035e+01
  -1.085729e+01   2.269394e+01
  -1.140726e+02   1.159267e+01
  -6.453488e+01  -4.999875e+01
   4.598909e+01   1.288555e+01
   1.345404e+01   3.104449e+01
  -1.215314e+01   9.810388e+00
  -3.151486e+01   2.519409e-01
  -4.162408e+00  -5.408149e+01
   5.967275e+01  -6.538878e+01
   3.548644e+01  -2.225573e+01
   4.492498e+01   9.334153e+00
   2.786260e+01   9.454659e+00
  -3.526238e+01   3.272720e+01
  -5.784870e+01   4.697491e+01
  -1.258155e+02  -3.910640e+01
   2.638519e+00  -7.759303e+01
   5.659738e+01  -6.779258e+01
   1.298892e+00  -6.247506e+01
  -3.613918e+00  -2.468385e+01
   1.262141e+01   1.441270e+01
   2.693161e+00  -1.102524e+01
   5.050756e+01   3.534670e+01
   2.147351e+01   3.273936e+01
  -1.444943e+01   2.912877e+01
  -3.916044e+01   2.701302e+00
  -1.963928e+01  -6.468351e+01
   1.751686e+01  -7.795851e+01
   1.892836e+00   1.980782e+01
   3.450058e+01   9.991070e+01
   3.842467e+01   1.217069e+02
  -3.052490e+01   6.191368e+01
  -6.513215e+01   2.684549e+01
  -5.284227e+01  -3.844463e+01
  -1.087625e+01  -4.526356e+01
  -6.751180e+01   2.703371e+00
  -4.740798e+01   3.854314e+01
  -1.073142e+02  -6.586251e+01
   2.225328e+01  -8.869691e+01
   6.796496e+01  -5.760860e+01
   1.143356e+02   1.238917e+01
   7.894032e+01  -1.361604e+01
   7.877715e-01   9.062501e+00
  -4.830669e+01   1.878332e+01
  -4.466721e+01  -1.756914e+01
   3.904180e+01  -3.398393e+00
   3.513297e+01   1.220500e+01
  -2.256294e+00   6.378049e+01
  -5.267484e+01  -2.715404e+00
  -3.691660e+01  -3.046212e+01
   3.637435e+01  -3.463058e+01
   6.563982e+00  -2.673140e+00
   1.346809e+01   8.944847e+01
  -8.580720e+00   1.216402e+02
  -6.223502e+01   2.642095e+01
  -6.884215e+01  -1.845548e+01
  -9.457676e+00  -5.325868e+01
  -4.674347e+01  -3.224857e+01
   3.450284e+00  -5.077677e+01
   3.440450e+01  -3.716458e+00
   2.150839e+01  -2.065943e+01
   2.946483e+01   2.011632e+01
  -2.885721e+01  -3.038137e+01
   7.969248e+01  -1.122696e+01
   2.879717e+01  -2.138015e+01
   3.482261e-01   3.413274e+01
  -1.787194e+01   2.871203e+01
   4.997683e+00  -1.414717e+01
   1.644703e+01  -6.523473e+01
   5.664813e+01   4.119484e+01
   3.911682e+01   2.873061e+01
   1.257921e+01   6.034471e+01
  -5.942956e+01   7.896434e+01
  -9.645571e+01   1.984159e+01
  -4.948837e+01  -2.465389e+01
   2.553603e+01  -5.199567e+01
   9.862897e+00   6.314730e+00
   9.221454e+00  -2.300184e+00
  -1.451301e+01   1.424438e+00
  -6.758321e+01  -4.265810e+01
  -3.069151e+01   2.987639e+00
   1.164896e+01  -1.417820e+01
   3.279779e+01   4.404394e+01
   4.769375e+01   1.572949e+00
  -1.300911e+01  -9.755152e+00
  -3.701716e+00  -5.730242e+01
   4.363140e+00  -5.950484e+01
   6.921829e+01  -6.287765e+01
   9.177709e+01  -1.663649e+01
   3.285709e+00   1.674671e+00
  -3.626955e+01  -1.861766e+00
  -5.493558e+00   6.842960e+01
  -3.043129e+01  -5.635505e+01
   3.947440e+01  -1.248712e+01
  -2.190160e+01  -3.049945e+00
  -1.283487e+01   2.504254e+01
  -1.432135e+01  -7.698256e-01
  -2.174682e+01   1.876311e+01
   6.028613e-01  -1.257268e+01
   1.290280e+01   3.172892e+01
   5.010899e+00  -6.088261e+00
  -8.340055e+00  -7.855910e+00
  -7.559826e+01  -5.991255e+01
  -7.794681e+01  -4.312462e+01
   1.475065e+01   8.508738e+00
   6.006975e+01  -5.266545e+01
   4.395552e+01   8.829814e+00
  -3.313860e+01  -6.695070e+00
  -2.094105e+01   3.157892e+01
   3.256467e+01  -3.046415e+00
   1.500125e+01  -4.428325e+00
   2.307059e+00   9.812512e+00
   7.699339e+00   2.261783e+01
  -8.253810e+00   1.741861e+01
  -1.632965e+01  -5.970878e+00
   9.847672e+00  -3.731558e+01
   3.551184e+01  -2.187036e+01
   2.406762e+01   3.509777e+01
   1.737121e+01   4.792544e+01
  -3.297991e+01   9.779241e+01
  -5.498517e+01   4.028789e+01
  -7.317334e+01  -2.803408e+01
  -3.265376e+01  -4.161427e+01
   3.563888e+01  -2.723351e+01
   2.636078e+01  -3.779353e+01
   1.924099e+01  -3.940013e+01
   1.340042e+01  -8.459950e+00
   2.517986e+01  -1.584535e+01
   3.813446e+01  -1.738643e+01
   4.600824e+01   3.135119e+01
   5.488991e-01   5.639785e+01
  -5.121117e+01   1.193709e+01
  -6.990296e+01  -4.240956e+00
  -4.011223e+01  -6.158719e+01
   2.067428e+01  -1.197438e+01
   2.837335e+01  -1.358076e+01
   7.186541e+01   2.597214e+01
  -1.246752e+01  -3.039711e+01
  -3.041873e+01   5.462826e+01
  -2.499373e+01  -1.469510e+01
   4.776713e+00   2.828287e+01
   2.344671e+01   1.172561e+01
   1.991850e-01  -2.069909e+01
  -3.102464e+01   4.561309e+01
  -4.010897e+01   1.870761e+01
  -1.387472e+01  -2.468455e+01
   3.023954e+01  -2.352555e+01
   6.028224e+01  -4.849660e+00
   1.587343e+01  -2.511786e+01
  -2.584616e+01   1.146952e+01
   1.996076e+01  -8.454632e-01
   1.641995e+01  -1.626122e+01
   3.899594e+01  -3.280346e+01
   7.485061e+00   4.089148e+01
   2.892056e+01   2.025507e+01
   1.904267e+01   2.186972e+01
   3.166406e+01   3.346154e-01
   3.211892e+01  -3.092720e-02
   1.245550e+01   2.858419e+01
  -9.723531e+00   6.188627e+00
  -1.135458e+01   5.724788e+01
   5.237557e+00  -2.042656e+00
  -3.201373e+01   3.699940e+01
  -7.470821e+00  -2.313119e+01
  -2.784850e+01  -3.050524e+00
   3.678809e+01  -3.327140e+01
  -4.469513e+01  -4.663263e+01
  -5.138201e+00  -5.933198e+00
  -5.301232e+00   3.955233e+00
   2.358060e+01   1.127401e+01
   4.437792e+01   1.661253e+01
   4.905543e+01   2.240424e+01
   4.347340e+01   1.425043e+01
  -4.526284e+00   4.032568e+00
   1.020478e+01   3.300898e+01
  -4.381355e-01  -2.880005e+01
  -1.607481e+01  -6.354260e-01
   3.566306e+01  -1.159968e+01
  -4.044833e+01   6.345870e+01
  -2.880703e+01  -1.650914e+01
  -6.492363e+01  -5.615019e+01
   1.731708e+01  -5.422577e+01
   2.535339e+01   4.752242e+01
   1.020876e+01   2.609807e+00
  -4.194066e+00  -9.068886e+00
   4.734983e+01  -1.218885e+01
   2.536255e+01  -3.460151e+01
  -1.632276e+01   2.565741e+01
  -3.383446e+01  -1.128957e+01
  -1.357900e+01  -1.769632e+01
   5.101928e+00  -4.538283e+01
  -1.918486e+01  -5.275230e+01
  -5.472839e-01   3.328262e+01
  -2.054152e+01  -1.748781e+01
   2.413595e+01   1.501696e+01
   3.813521e+01   2.765279e+01
   5.764689e+01  -1.528185e+01
   5.008118e+01   2.364824e+00
   3.041704e+01   1.644724e+01
   5.419913e+00   4.067161e+01
  -2.425629e+01   1.830610e+01
   1.945875e+01  -2.838023e+01
  -2.350560e+01   2.356058e+01
  -4.285456e+01   2.416806e+01
  -8.544566e+00  -3.376865e+00
   1.205024e+01  -5.512331e+00
  -8.348633e+00   2.919985e+01
  -1.714693e+01   2.378634e+01
  -5.788675e+01   2.560744e+01
  -8.498011e+00  -5.372368e+01
  -1.436171e+01  -3.441931e+01
  -2.206695e+01  -1.080061e+01
   4.069109e+01  -1.566100e+01
  -2.691372e+01  -2.284497e+01
  -1.333814e+01   2.183295e+01
  -1.373616e+01  -1.020863e+01
  -9.200175e+00  -2.460044e+01
  -3.324335e+01   3.820951e+01
  -1.630085e+01   3.142858e+01
   3.063711e+00   1.180105e+01
  -5.835318e+00  -3.814816e+00
   1.333145e+01  -9.481155e+01
  -1.954524e+01  -1.494376e+01
   4.396207e+01  -1.128573e+01
   5.951891e+01   1.633237e+01
   8.164800e+00   4.126511e+01
   1.965380e+01   3.889191e+00
  -8.820696e+00   9.957385e+00
  -3.799256e+01  -3.223638e+01
   2.156810e+00  -2.818079e+01
   2.376579e+01  -4.270064e+01
  -2.790706e+01  -6.610288e+01
  -1.084567e+01  -7.440716e+00
  -3.945081e+01  -2.376567e+01
   2.852011e+01   2.878579e+01
   5.839629e+01  -5.431664e+01
   2.324467e+01  -2.248036e+01
   2.137115e+01   1.573280e+01
   1.764108e+01   2.600811e+01
  -1.422078e+01   2.569019e+01
   3.680279e+01  -4.432020e+01
   7.372913e+01  -3.029169e+01
   1.262768e+01   2.604753e+00
   2.293118e+01   2.659397e+01
  -1.664880e+00   2.582553e+01
  -2.930158e+01   2.700933e+01
  -1.839606e+01  -4.252324e+01
   3.029351e+01   7.139633e+00
  -1.269608e+01   1.154009e+01
  -2.015248e+00   6.140989e+00
   7.451059e+00   2.484930e+01
  -4.353177e+00  -5.817582e+01
   2.298466e+01  -3.518700e+00
  -1.892112e+01   1.308684e+01
   2.522306e+01  -1.833230e+00
   2.012497e+01  -1.415129e+00
  -2.203692e+01  -1.686450e+01
  -3.931295e+01  -3.629478e+01
   2.692953e+01  -3.567756e+01
   2.654704e+01  -1.798817e+00
   2.545421e+01   3.461549e+01
   8.858658e+00   3.898366e+01
  -2.189109e+01  -2.750756e+01
  -5.033037e+00  -7.260549e+00
   3.855511e+01  -1.102256e+01
  -1.154209e+01   6.486613e+01
  -2.122689e+01  -8.262326e+00
  -1.819599e+01  -2.168902e+00
