
 $NMID
 id='ANONYMOUS ', fmtdat='(2E16.6)'
 volume=1.0
 tramp=1.0
 $END
   2.543153e+03  -6.082036e+01
   1.926716e+03   9.192883e+02
   2.793531e+02   1.596045e+03
  -6.938775e+02   1.437675e+03
  -7.088505e+02   3.909193e+02
  -1.761907e+02  -9.052752e+01
   2.540639e+02  -1.997023e+01
   4.290683e+01   3.470219e+02
  -2.770934e+02   4.321197e+02
  -5.090663e+02   1.063509e+02
  -3.544662e+02  -3.114286e+02
  -7.340393e+01  -4.568338e+02
   1.217675e+02  -1.565202e+02
   2.142051e+02   2.604797e+02
   3.820941e+01   3.498628e+02
  -2.417323e+02   1.142210e+02
  -2.314067e+02  -3.243644e+02
  -1.451285e+01  -5.209606e+02
   2.602623e+02  -2.855050e+02
   3.436482e+02   1.098353e+02
   1.738834e+02   2.484365e+02
  -4.052102e+01   2.306771e+02
  -1.908356e+01   1.013697e+02
   1.674010e+02   1.016074e+02
   2.214502e+02   2.474566e+02
   2.084542e+01   1.982140e+02
  -3.244068e+02   1.563138e+02
  -4.323905e+02  -5.678663e+01
  -1.616297e+02  -1.991198e+02
   2.285647e+02  -1.500382e+02
   3.437791e+02  -2.895419e+01
   1.306610e+02   2.204213e+02
  -1.429425e+02   2.635683e+02
  -3.361904e+02   1.271635e+02
  -2.382232e+02  -5.542607e+01
  -1.146021e+02  -1.644525e+02
  -1.522556e+01  -1.818411e+02
  -5.429483e+01   5.409145e+01
  -1.447754e+02   1.016112e+02
  -1.540556e+02  -1.384906e+02
  -7.107715e+01  -3.392662e+02
   1.145075e+02  -3.850351e+02
   2.512336e+02  -6.878371e+01
   5.880044e+00   1.686268e+02
  -3.766275e+01   6.814790e+01
  -1.024703e+02  -1.876673e+02
   9.433770e+01  -3.141620e+02
   2.901186e+02  -1.025132e+02
   3.201223e+02   3.221123e+02
   1.589949e+02   3.223833e+02
  -2.174594e+02   2.028083e+02
  -3.765582e+02   2.063927e+01
  -2.549746e+02  -1.545952e+02
  -5.389057e+01  -1.827401e+02
   1.802422e+02  -1.241661e+02
   1.243048e+02  -7.342200e+01
   3.793628e+01   7.391161e+00
  -8.939776e+00  -2.518212e+01
   1.180215e+02  -8.708527e+00
   1.719739e+02  -1.818089e+01
   1.122365e+02   9.656970e+01
  -1.499381e+02   1.375347e+02
  -2.663961e+02   1.242441e+02
  -2.037822e+02  -8.039622e+01
  -2.221991e+01  -2.371308e+02
   2.067620e+02  -2.909503e+02
   2.873986e+02  -1.767283e+02
   1.910251e+02   1.235269e+02
   1.077134e+02   2.729648e+02
   1.767952e+01   2.638678e+02
   1.939193e+01   1.541633e+02
  -3.815008e+01   7.352109e+01
  -1.226339e+02   1.251587e+02
  -2.021158e+02   8.783964e+01
  -1.846263e+02  -9.674340e+01
  -5.359264e+01  -1.662652e+02
   1.017300e+02  -1.346504e+02
   1.519128e+02   6.027909e+01
   9.055811e+01   1.964178e+02
  -1.067831e+01   1.773614e+02
  -2.257217e+02   4.628399e+01
  -2.253329e+02  -1.665638e+02
  -1.311356e+02  -2.065106e+02
   4.598624e+01  -2.062309e+02
   1.282698e+02  -1.151425e+02
   1.235265e+02  -6.454446e+01
   1.590561e+02  -5.762072e+01
   1.757643e+02  -6.763429e+01
   3.402605e+02   5.643236e+01
   2.863662e+02   2.331889e+02
  -1.577522e+00   3.280569e+02
  -2.689527e+02   2.967557e+02
  -3.977205e+02   1.447790e+02
  -2.213606e+02  -1.056804e+02
  -4.259868e+01  -2.311506e+02
   4.596305e+01  -1.528374e+02
   1.565719e+01  -2.590634e+01
  -9.987802e+01   4.502831e+00
  -1.841759e+01  -7.548290e+01
   1.016824e+01  -1.066376e+02
   9.241561e+01  -1.186012e+02
   7.544346e+01   2.441245e+01
  -3.206360e+01   1.407511e+02
  -1.253406e+02   1.310043e+00
  -9.413652e+01  -1.933933e+02
   3.047037e+01  -2.625602e+02
   1.671969e+02  -1.381869e+02
   2.615636e+02   5.870953e+01
   2.733434e+02   2.279836e+02
   5.326735e+01   1.865402e+02
  -6.329856e+01   1.098739e+02
  -1.164857e+02   2.826885e+01
  -3.905965e+01  -1.127576e+01
   1.578909e+01   4.847866e+01
   5.007288e+01   7.719834e+01
  -7.319843e+01   5.586668e+01
  -8.213015e+01   1.985402e+00
  -7.090295e+00  -2.324920e+01
   6.996016e+00   4.896097e+01
  -6.356713e+00   7.028494e+01
  -1.471356e+02   1.020007e+02
  -2.441096e+02  -2.178850e+01
  -2.265204e+02  -1.399757e+02
  -3.386406e+01  -1.915540e+02
   1.533743e+02  -1.514526e+02
   2.098191e+02  -5.973206e+01
   7.925903e+01   5.033258e+00
  -3.654374e+01   5.557126e+01
  -1.648564e+01  -2.935324e+01
   4.619236e+01  -1.031133e+02
   1.472221e+02  -1.051674e+01
   1.298126e+02   4.159265e+01
   4.655341e+01   1.496130e+02
  -7.774011e+01   1.071397e+02
  -1.040991e+02   1.153384e+01
  -1.001173e+01  -1.919700e+01
   9.360386e+01   3.422544e+00
   4.360030e+00   7.929356e+01
  -5.611616e+01   1.098543e+02
  -1.564131e+02   1.296007e+01
  -1.301139e+02  -8.773944e+01
  -3.357990e+01  -1.534704e+02
   5.976087e+01  -9.486932e+01
   1.134938e+02  -2.127316e+01
   6.222267e+01   8.038732e+01
  -2.143708e+01   5.747218e+01
  -3.112871e+01   3.662618e+01
  -1.066824e+01  -4.329794e+01
   5.755542e+01   2.846547e+01
  -1.853828e+00  -4.218062e+00
  -8.924225e+01  -1.689209e+01
  -1.057707e+02  -8.504516e+01
  -1.834113e+01  -1.303438e+02
   1.107197e+02  -1.381809e+02
   1.555116e+02  -1.039057e+01
   1.599932e+02   1.522629e+02
   4.209495e+01   1.620840e+02
  -5.877786e+01   1.319445e+02
  -9.970360e+01   4.443840e+01
  -4.510359e+01  -1.587324e+01
  -9.831581e+00  -2.045019e+01
  -7.395998e+01   2.245895e+00
  -1.014009e+02   2.630043e+01
  -2.423131e+01  -5.672079e+01
   5.254184e+01  -8.543856e+01
   1.512565e+02  -7.177149e+01
   1.364010e+02   5.506931e+01
  -3.067433e+01   1.008835e+02
  -1.287526e+02   5.534858e+01
  -1.618638e+02  -6.232123e+01
  -6.167047e+01  -1.787923e+02
   1.184722e+02  -2.250156e+02
   2.120205e+02  -7.796241e+01
   1.621548e+02   9.587285e+01
   2.596683e+01   1.515478e+02
  -2.436332e+01   1.078262e+02
  -5.047051e+01   8.840826e+01
  -6.974786e+01   1.219183e+02
  -5.592292e+01   1.089941e+02
  -6.005594e+01   6.682840e+01
  -5.528546e+01  -1.649204e+01
  -1.180795e+02  -1.161241e+02
  -3.515007e+01  -1.470313e+02
   5.329345e+01  -1.375577e+02
   9.458786e+01  -3.975956e+01
   1.374837e+02   9.035694e+01
   3.382275e+01   1.039823e+02
  -4.429131e+01   5.124190e+01
  -7.044568e+01  -8.068337e+00
   3.585840e+01  -5.775770e+01
   4.656482e+01  -1.850369e+01
  -2.880769e+01  -1.318532e+01
  -1.042576e+02   6.063136e+00
  -2.331420e+01  -2.935460e+01
   7.580046e+01  -1.272881e+00
   1.792973e+02  -1.131560e+01
   7.831703e+01   7.590463e+01
  -3.394801e+01   7.726068e+01
  -1.514819e+02   9.180110e+01
  -1.208443e+02   4.034740e+01
  -3.992700e+01  -4.729209e+01
   4.759339e+01  -4.449037e+01
   7.707433e+01   2.568568e+01
   4.218291e+01   5.530832e+01
  -1.636622e+01   7.716138e+01
  -5.430672e+01   3.305468e+01
  -4.330412e+01  -1.819874e+01
  -2.128062e+01  -2.400986e+01
  -8.927868e+00   1.750834e+01
  -6.861685e+01   2.272705e+01
  -1.539111e+01  -7.360141e+01
   1.771401e+01  -1.511530e+02
   8.099104e+01  -1.409195e+02
   1.229655e+02  -4.630829e+01
   8.479257e+01   4.803562e+01
   1.722915e+01   1.105455e+02
  -7.701893e+01   4.002604e+01
  -5.982549e+01   1.304438e+01
   1.385790e+01   3.196904e+01
   1.122819e+02   1.484525e+01
   3.121086e+01   4.471995e+01
  -7.715777e+01   1.026151e+02
  -1.514252e+02   4.538981e+01
  -9.491387e+01  -5.962710e+01
  -4.240623e+01  -6.714232e+01
   3.852958e+01  -5.416719e+01
   2.940814e+01   1.058832e+01
  -5.388422e+01   4.115818e+01
  -5.339753e+01  -2.444182e+01
  -2.368681e+01  -1.098714e+02
   7.010843e+01  -1.385571e+02
   7.329633e+01  -1.197088e+02
   1.117375e+02   6.088687e+01
   9.703301e+00   1.413428e+02
  -4.652726e+01   1.231429e+02
  -1.175862e+02  -2.561210e+01
  -3.047583e+01  -6.517428e+01
   3.292358e+01  -8.186052e+01
   4.055062e+01   1.052498e+01
   2.769940e+01  -1.018696e+01
   1.153836e+00   1.402294e+00
   8.921272e+00  -1.214108e+01
   2.054505e+01   4.384080e+01
  -7.210016e+00   8.970950e+01
   6.156308e+01   8.940561e+01
  -3.409802e+01   5.224456e+01
  -8.206933e+01  -4.647535e+01
  -1.296638e+02  -3.083327e+01
   1.816115e+01  -5.673225e+01
   4.145232e+01  -2.647234e+00
   3.110269e+01   1.045807e+01
   3.412204e+01  -3.806651e+01
  -3.656820e+01  -3.206579e+00
  -3.165618e+01   1.119576e+01
   1.745792e+01   1.986702e+01
  -1.109363e+01   3.101548e+00
  -1.034723e+02  -4.642516e+00
  -9.125525e+01  -3.154118e+01
  -1.853019e+01  -8.222546e+01
   1.078722e+02  -1.403669e+02
   1.099118e+02  -4.627161e+01
   1.406619e+02   1.065046e+01
   2.148467e+01   1.291234e+02
  -5.910019e+01   1.613094e+02
  -6.177023e+01   2.064651e+01
  -7.457290e+01  -1.133862e+01
  -2.263276e+00  -3.393046e+01
   1.228450e+01   2.254162e+01
  -1.807415e+01  -1.330157e+01
  -2.125418e+01  -4.896937e+01
  -1.703703e+01  -7.581564e+01
   1.482661e+01  -6.717545e+01
   1.207871e+01  -2.276058e+01
   4.389158e+01   8.667157e+01
  -3.276161e+01   8.140808e+01
  -8.079378e+01   3.404242e+01
  -8.647791e+01  -3.039611e+01
  -4.510545e+01  -6.975237e+01
   1.508320e+01  -6.282904e+01
   5.697565e+01  -3.685533e+01
   2.582695e+01   3.366442e+01
  -4.634926e+01   5.076649e+01
  -2.210976e+01   1.743048e+00
   5.744886e+00  -1.728875e+01
   3.982178e+01   2.820202e+01
   1.348756e+01   2.879281e+01
  -7.314797e+01   8.038708e+01
  -8.639780e+01   6.427597e+01
  -6.365230e+01   2.620090e+00
  -1.481796e+01  -6.292650e+01
   2.646326e+01  -6.894424e+01
   1.735436e+01   4.964736e+00
  -1.269095e+01   4.993069e+01
  -2.931816e+01   4.347481e+01
  -5.176759e+01  -1.262575e+01
  -1.166341e+01  -4.051043e+01
  -4.782543e+01  -3.266018e+01
   1.605726e+01  -8.263953e+00
   7.775699e+00   4.256388e+01
   4.177944e+01  -2.405402e+01
  -2.770948e+01  -8.224860e-02
  -1.423343e+01  -3.126821e+01
   7.291929e+00   5.832562e+01
  -1.507251e+01   4.142965e+01
  -5.452885e+01  -7.000311e+00
  -6.192057e+01  -4.082932e+01
  -4.513232e+01  -8.099265e+01
   1.222727e+01  -3.063803e+01
   4.111494e+01   5.256147e+01
   2.264869e+01   1.071061e+02
  -7.032364e+01   3.889902e+01
  -9.932243e+01  -2.232644e+01
  -7.543274e+01  -1.149868e+01
   8.533844e+00  -3.262263e+01
   6.280980e+01  -2.876212e+01
   4.309840e+01   4.954575e+01
  -4.086571e+01   1.046703e+01
  -2.259507e+01   4.218559e+01
   1.551402e+01  -3.058543e+01
   9.019647e+01  -1.907099e+01
