
 $NMID
 id='ANONYMOUS ', fmtdat='(2E16.6)'
 volume=1.0
 tramp=1.0
 $END
   2.950708e+03   4.153922e+00
   1.673424e+03   2.010887e+03
  -7.426451e+02   2.153156e+03
  -1.661483e+03   7.556053e+02
  -6.941869e+02  -4.194754e+02
   4.361196e+02  -4.366719e+02
   7.044298e+02   3.226799e+02
   6.303610e+01   8.312015e+02
  -5.547348e+02   6.525443e+02
  -8.536364e+02   3.788161e+01
  -3.511903e+02  -6.788523e+02
   1.636904e+02  -6.757228e+02
   5.135687e+02  -9.549328e+01
   2.876546e+02   6.025572e+02
  -2.703971e+02   5.695443e+02
  -4.922152e+02   6.513415e+00
  -2.208623e+02  -5.947835e+02
   2.437372e+02  -5.250849e+02
   5.180470e+02  -1.000704e+02
   3.714293e+02   2.838204e+02
  -6.077611e+00   4.019398e+02
  -2.371610e+02   2.532450e+02
  -2.184701e+02   5.394810e+00
   1.055419e+02  -7.653235e+01
   3.646389e+02   8.103732e+01
   1.757354e+02   3.262650e+02
  -3.492709e+02   3.032463e+02
  -6.508540e+02  -6.078333e+01
  -3.623126e+02  -4.701778e+02
   2.824602e+02  -4.283354e+02
   5.741520e+02   3.486897e+01
   2.563565e+02   4.006104e+02
  -2.501250e+02   4.292777e+02
  -4.941617e+02   1.241220e+02
  -3.916259e+02  -2.275300e+02
  -3.505207e+01  -4.279387e+02
   2.062490e+02  -2.439688e+02
   1.831860e+02   2.039344e+02
  -8.259127e+01   3.471326e+02
  -3.706963e+02  -6.069916e+00
  -1.318465e+02  -5.469515e+02
   2.527380e+02  -6.211618e+02
   4.963012e+02  -1.969020e+01
   2.147428e+02   4.545537e+02
  -2.189321e+02   3.439367e+02
  -3.013301e+02  -2.373394e+02
  -1.895516e+01  -4.411784e+02
   5.162995e+02  -1.144902e+02
   5.280442e+02   2.799578e+02
   1.568032e+02   4.396583e+02
  -3.159425e+02   3.133496e+02
  -5.061358e+02  -5.842202e+01
  -3.156345e+02  -3.314966e+02
   9.708607e+01  -2.756435e+02
   3.651264e+02  -1.991942e+01
   2.004037e+02   1.753140e+02
  -7.012916e+01   5.660461e+01
  -1.457273e+02  -1.525191e+02
   1.280224e+02  -1.587578e+02
   3.005827e+02   7.601919e+00
   1.549986e+02   2.344440e+02
  -1.531977e+02   2.580724e+02
  -2.399356e+02   1.174394e+02
  -1.750589e+02  -8.190640e+01
   6.193231e+00  -2.626061e+02
   2.705707e+02  -2.852087e+02
   2.637619e+02  -1.715771e+02
   2.652766e+02   9.831926e+01
  -6.171875e+00   3.964456e+02
  -5.291039e+01   3.021251e+02
  -8.516879e+01   9.895808e+01
  -4.350994e+00  -8.785922e+00
  -2.845596e+01   4.942067e+01
  -1.469433e+02   1.625166e+02
  -2.722006e+02  -2.502272e+01
  -1.185262e+02  -2.051245e+02
   7.555526e+01  -1.964439e+02
   2.079667e+02  -3.946654e+01
   1.789249e+02   1.876978e+02
   7.444849e+00   1.717485e+02
  -2.065766e+02   2.862729e+01
  -2.599523e+02  -1.009668e+02
  -1.567011e+02  -3.002835e+02
   9.246716e+01  -2.313966e+02
   2.096621e+02  -1.176341e+02
   8.975290e+01   1.253858e+01
   8.575242e+01  -2.808850e+01
   1.880659e+02  -1.687598e+01
   3.022824e+02   5.374634e+01
   2.550059e+02   2.289265e+02
  -1.059759e+01   3.644861e+02
  -3.935427e+02   3.736353e+02
  -4.461500e+02   8.925612e+01
  -2.624546e+02  -9.782892e+01
  -2.104228e+01  -2.307030e+02
   1.298585e+02  -1.893268e+02
   8.855502e+01  -1.806645e+00
  -8.186574e+01   1.060667e+02
  -1.761068e+02  -4.180536e+01
  -1.000990e+01  -1.483765e+02
   1.813023e+02  -1.187083e+02
   1.769873e+02   5.748876e+01
  -6.796151e+00   1.609860e+02
  -1.448292e+02   6.749681e+01
  -1.663806e+02  -1.986097e+02
   1.111622e+01  -3.028030e+02
   1.647627e+02  -1.675553e+02
   3.046591e+02   9.911973e+00
   1.841158e+02   2.067900e+02
   7.403125e+01   2.487512e+02
  -1.446821e+02   1.419618e+02
  -1.272260e+02   2.194593e+01
  -9.185559e+01  -6.606223e+01
   8.668836e+01   1.189479e+00
   7.466599e+01   1.196304e+02
  -1.122711e+02   9.684299e+01
  -1.791254e+02  -2.353060e+01
  -3.193399e+01  -5.947774e+01
   8.846658e+01  -1.011686e+01
   4.559725e+01   6.012615e+01
  -9.563298e+01   8.448695e+01
  -2.449561e+02  -1.604889e+01
  -1.911996e+02  -9.673570e+01
  -6.039658e+01  -2.359420e+02
   1.542469e+02  -2.173840e+02
   2.524974e+02  -1.068974e+02
   2.160081e+02   5.149768e+01
  -1.752833e+01   9.158611e+01
  -9.606744e+01  -2.764229e+00
  -2.493106e+00  -8.707975e+01
   1.540801e+02  -6.116043e+01
   1.507177e+02   3.849972e+01
   5.302786e+01   1.819973e+02
  -6.916112e+01   1.607689e+02
  -1.497905e+02   4.093133e+00
  -6.703690e+01  -5.507745e+01
   3.647300e+01  -4.300961e+01
   1.169454e+02   6.373929e+01
  -2.128721e+01   1.369612e+02
  -1.546763e+02   6.849906e+01
  -1.734765e+02  -1.207749e+02
   2.332776e+01  -2.499330e+02
   1.584234e+02  -1.551150e+02
   1.797395e+02  -7.159156e+00
   8.862999e+01   1.252540e+02
  -4.546727e+01   8.694602e+01
  -4.145979e+01   5.511000e+01
   1.060822e+01  -3.378494e+00
   1.512425e+01  -4.284496e+01
   1.762691e+01   1.888234e+01
  -1.018856e+00  -1.082710e+01
  -1.113116e+02  -8.528115e+01
   5.363973e+00  -1.340304e+02
   1.094879e+02  -1.566889e+02
   2.201444e+02  -4.784577e+01
   1.938226e+02   9.547442e+01
   9.690379e+00   2.574955e+02
  -8.566429e+01   1.605072e+02
  -1.097133e+02  -1.258237e+00
  -8.846023e+01  -4.845406e+01
  -1.603606e+01  -5.283354e+01
  -1.942504e+01   4.721705e+00
  -5.685321e+01   2.492027e+01
  -4.516869e+01  -4.188379e+01
   3.445479e+01  -8.645503e+01
   8.425048e+01  -2.417948e+01
   8.668438e+01   4.672755e+01
  -1.997158e+01   1.032871e+02
  -1.094195e+02   6.987819e+01
  -1.655390e+02  -4.280967e+01
  -9.932657e+01  -1.760468e+02
   8.407262e+01  -1.696884e+02
   1.735408e+02  -3.430756e+01
   1.631906e+02   9.615861e+01
   6.567274e+01   1.531259e+02
  -6.279519e+01   1.174083e+02
  -1.133129e+02   9.321588e+01
  -1.607968e+01   4.486622e+01
  -4.953431e+01   2.770968e+01
  -1.296978e+02   6.283148e+01
  -8.087721e+01   1.169657e+01
  -8.809051e+01  -9.171773e+01
  -2.940035e+01  -1.847484e+02
   8.182622e+01  -1.113906e+02
   1.342268e+02  -2.751748e+01
   1.329971e+02   8.616304e+01
  -8.009717e+00   1.261489e+02
  -9.545135e+01   7.429180e+01
  -9.776569e+01  -1.264748e+01
  -2.998742e+01  -2.719551e+01
  -7.461751e+00  -4.822506e+01
  -3.925880e+01  -2.874404e+01
  -7.155532e+01  -2.811926e+01
  -6.102533e+01  -6.772904e+00
   2.575995e+01  -4.032984e+00
   1.376508e+02  -2.557386e+01
   1.411791e+02   6.248040e+01
   2.770392e+01   1.034189e+02
  -1.120281e+02   4.282766e+01
  -9.601560e+01  -1.760981e+01
  -1.819319e+01  -4.095156e+01
   6.731148e+01  -9.571706e+00
   8.705341e+01   1.771363e+01
  -2.226724e+01   5.283476e+01
  -7.023540e+01   7.021910e+01
  -1.628848e+01   2.074041e+01
  -6.681916e+01  -1.766846e+01
  -2.273111e+01  -5.058511e+00
  -4.975611e+01   1.391603e+01
  -1.083549e+02  -2.470695e+01
  -1.775381e+01  -1.485846e+01
  -1.845972e+01  -1.539195e+02
   1.207485e+02  -1.032791e+02
   1.543419e+02  -3.114681e+01
   5.757009e+01   7.385846e+01
  -4.276770e+01   1.107151e+02
  -4.499108e+01   9.427545e+01
  -6.431356e+01  -2.923402e+01
   6.879758e+01  -5.038587e+01
   1.546520e+02   1.806622e+01
   7.561797e+01   1.163604e+02
  -7.875710e+01   7.812666e+01
  -1.503945e+02   5.912188e+01
  -1.766834e+02  -5.225020e+01
  -5.168002e+01  -5.365529e+01
  -8.488870e+00  -6.161515e+01
   6.311632e+01  -4.530902e+01
  -7.647750e+00   1.222602e+01
  -9.816286e+01  -4.327159e+01
  -6.155297e+01  -7.244592e+01
   7.999099e+01  -1.116241e+02
   1.435069e+02  -9.860633e+01
   1.313053e+02   7.277342e+01
   8.542351e+00   1.690113e+02
  -3.225378e+01   1.066452e+02
  -5.181022e+01  -5.972701e+01
  -4.023332e+01  -1.098570e+02
   7.923431e+00  -8.412461e+01
  -3.796360e+00  -2.747189e+01
   4.886451e+00   3.250110e+01
  -2.884068e+01   1.092725e+01
  -2.225345e+01   4.159786e+00
   3.011342e+01  -3.674535e+01
   3.557741e+01   6.596595e+01
   1.338643e+01   1.113015e+02
  -3.419018e+01   4.317156e+01
  -1.037813e+02  -2.557865e+01
  -1.064404e+02  -8.196063e+01
  -5.484109e+01  -4.950222e+01
   4.972200e+01  -7.387909e+00
   5.733499e+01   2.974675e+01
   9.828437e+00   1.885890e+01
  -2.752912e+01  -2.698777e+01
  -3.474206e+01   1.492706e+00
   1.449802e+01   9.825129e+00
   8.409599e+00  -2.518992e+01
  -5.442571e+01  -6.350692e+01
  -9.130846e+01  -1.454257e+01
   1.343754e+01  -2.182376e+01
   8.457690e+01  -7.189389e+01
   1.249821e+02  -5.913721e+00
   9.482669e+01   1.109296e+02
   1.365094e+01   1.255793e+02
  -7.062543e+01   1.184677e+02
  -5.257589e+01   2.770085e+01
  -6.501510e+01  -1.698529e+01
  -6.723972e-01  -2.852925e+01
   4.131768e+01   2.051930e+01
  -2.805227e+01  -4.212117e+01
  -3.224670e+01  -3.252879e+01
   6.124473e+00  -1.189746e+02
   2.118392e+01  -6.058575e+01
   8.798767e+01   4.842167e+00
   2.687316e+01   7.988701e+01
  -1.516504e+01   1.279916e+02
  -1.007046e+02   6.028481e+01
  -3.788152e+01  -8.157267e+01
   5.338829e+00  -9.461723e+01
   5.159298e+01  -5.458577e+00
   5.460650e+01  -6.355411e+00
   9.969284e+00   4.408348e+00
  -4.203296e+01  -6.446430e+00
   1.173544e+01   2.992608e+01
   1.383028e+01  -7.935283e+00
   7.689761e+01   8.885103e+00
   2.675592e+01   1.598736e+01
  -7.190373e+01   4.346475e+01
  -9.533209e+01   3.548727e+01
  -7.579993e+01   1.779324e+01
  -2.505428e+01  -3.941797e+01
   4.095599e+01  -9.659980e+01
   4.885131e+01   2.942303e+00
  -1.752589e+01   3.101256e+01
  -3.192967e+01   4.408718e+01
  -6.957232e+01  -3.440125e+01
  -1.078203e+01  -6.805209e+01
   5.780289e+01  -5.042999e+01
   4.096035e+01   2.138728e+01
   4.451479e+01   6.742444e+01
   1.319707e+01  -5.358363e+00
  -2.577136e+01  -1.259296e+01
   1.378288e+01   7.375650e+00
  -2.189535e+01  -1.278418e+00
  -1.473352e+01   3.756018e+01
   1.799533e+01   1.348341e+01
   7.482632e+00  -9.143107e+01
   2.612128e+00  -2.679949e+01
   5.196712e+01  -7.858859e+00
   1.776022e+01  -6.506849e-01
   1.850529e+01   6.577726e+01
  -7.040703e+01   2.192133e+01
  -6.706870e+01  -1.185183e+01
  -3.126262e+01  -3.943540e+01
  -2.845245e+01   1.178609e+00
   6.272277e+01  -3.179438e+01
  -1.983890e+01  -1.381565e+01
  -3.432910e+00   3.061525e+00
  -1.429096e+01  -1.263976e+01
  -4.745261e+00  -3.036177e+01
   6.856719e+01  -2.349913e+01
