
 $NMID
 id='ANONYMOUS ', fmtdat='(2E16.6)'
 volume=1.0
 tramp=1.0
 $END
  -1.932484e+03  -1.708839e+02
  -1.113880e+03  -1.277098e+03
   1.061734e+02  -1.191256e+03
   7.641423e+02  -3.302651e+02
   3.029255e+02  -8.072120e+00
  -1.663326e+02   1.812182e+02
  -2.897253e+02  -1.127315e+02
   5.968361e+01  -3.709314e+02
   3.255025e+02  -2.793923e+02
   3.875330e+02  -2.306772e+01
   1.251974e+02   3.519713e+02
  -1.278933e+02   2.987290e+02
  -2.360708e+02   1.243186e+01
  -8.013531e+01  -2.767371e+02
   9.058630e+01  -2.451453e+02
   2.235223e+02   5.113548e+01
  -2.702070e+01   2.455120e+02
  -1.012996e+02   2.533643e+02
  -1.557670e+02   4.479146e+01
  -9.759189e+01  -1.923342e+01
  -2.480288e+01  -1.203072e+02
   7.819540e+01  -6.881368e+01
   2.598493e+01  -3.429172e+01
  -7.585141e+01   9.882971e-01
  -1.934786e+02  -6.171130e+01
  -4.496721e+01  -2.379653e+02
   2.308156e+02  -1.378794e+02
   3.330333e+02   6.682240e+01
   8.409327e+01   2.099175e+02
  -2.054576e+02   1.128963e+02
  -2.959105e+02   2.511032e+00
  -1.097563e+02  -2.061809e+02
   1.093990e+02  -1.774814e+02
   1.682802e+02  -6.053845e+01
   1.050840e+02   8.195232e+01
   2.616918e+01   1.784858e+02
  -8.114741e+01   6.637101e+01
   3.231602e+00  -6.619569e+01
   9.323629e+01  -1.480490e+02
   1.391072e+02   5.404606e+01
   9.306518e+00   2.982210e+02
  -1.272108e+02   1.731224e+02
  -2.159567e+02  -7.671368e+01
  -9.393498e+01  -1.817905e+02
   1.109491e+02  -7.801272e+01
   7.303851e+01   1.632489e+02
  -2.833041e+01   1.943035e+02
  -2.376250e+02   4.853924e+01
  -2.522908e+02  -1.268763e+02
  -6.319592e+01  -1.793687e+02
   1.454379e+02  -9.166419e+01
   2.489347e+02   7.453428e+01
   1.460343e+02   1.597007e+02
  -8.073845e+01   1.261270e+02
  -1.967468e+02   1.526098e+01
  -1.252191e+02  -9.996327e+00
   5.463902e+01  -4.184124e+01
   2.761034e+01   4.904274e+01
  -6.491888e+01   5.690396e+00
  -1.551403e+02  -5.290649e+01
  -4.819814e+01  -9.946595e+01
   1.042584e+02  -5.803072e+01
   1.002233e+02  -4.177711e+01
   7.462331e+01   3.326006e+00
  -4.385391e+01   1.126827e+02
  -1.083153e+02   1.238764e+02
  -2.005752e+02   9.659496e+01
  -1.266571e+02  -6.847395e+01
  -3.103440e+01  -1.682880e+02
   1.036208e+00  -1.818500e+02
   7.398278e+00  -4.581961e+01
  -6.434543e+00  -6.310659e+01
   3.541052e+01  -8.063440e+01
   7.078797e+01  -6.952809e+01
   1.051145e+02   4.382203e+01
   6.556893e+01   1.016941e+02
  -6.815243e+01   1.396304e+02
  -9.234416e+01  -1.046177e+01
  -3.491692e+01  -1.123862e+02
   1.290651e+01  -1.338857e+02
   9.429720e+01  -1.982620e+01
   1.131445e+02   1.192554e+02
   5.075950e+01   1.558190e+02
  -5.111864e+01   1.312626e+02
  -1.372475e+02   7.220251e+01
  -1.054093e+02   2.924128e+01
  -5.337274e+01   7.819935e+00
  -7.278106e+01  -4.548583e+01
  -1.722532e+02  -6.496432e+01
  -1.186030e+02  -1.649293e+02
  -1.453148e+01  -2.005207e+02
   1.683773e+02  -1.726299e+02
   2.181216e+02  -7.642976e+01
   1.335769e+02   4.123447e+01
   2.399547e+01   1.060923e+02
  -6.609231e+01   1.293898e+02
  -4.864687e+01   6.216868e-01
   4.276663e+01  -3.129859e+01
   8.333639e+01   2.863140e+01
   7.453360e+00   1.241380e+02
  -9.681741e+01   3.869160e+01
  -6.685296e+01  -8.572652e+01
  -9.006867e+00  -9.625898e+01
   9.045703e+01  -1.375375e+01
   6.513865e+01   1.053672e+02
  -5.099877e+01   1.303536e+02
  -9.230211e+01   9.127436e+01
  -1.567537e+02  -1.454613e+01
  -1.322454e+02  -1.053213e+02
  -4.359977e+01  -1.209309e+02
   6.352298e+01  -4.739322e+01
   6.811223e+01   5.151952e-02
   4.784640e+01   1.930902e+01
  -1.679464e+01  -2.462405e+01
  -4.254737e+00  -7.389826e+01
   7.798660e+01  -1.996027e+01
   7.815587e+01   4.511531e+01
   1.607989e+01   4.023037e+01
  -3.044564e+01  -1.946891e+01
  -3.707589e+01  -2.542614e+00
   6.019267e+01  -3.498593e+01
   1.625160e+02   4.198112e+01
   1.484441e+02   1.484773e+02
   2.930059e+00   1.382583e+02
  -1.312944e+02   1.043085e+02
  -1.420433e+02   3.714263e+01
  -4.204585e+01  -2.172610e+01
   7.622785e+00  -3.797551e+01
   2.565139e+01   3.091626e+01
  -1.541854e+01  -1.502946e+01
  -9.661116e+01  -1.545803e+01
  -5.613380e+01  -6.981327e+01
  -1.112067e+01  -7.374565e+01
   5.791033e+01  -1.927387e+01
   3.556485e+01  -1.835550e+01
   2.290360e+01   5.088222e+00
   2.592640e+00   2.495853e+00
   2.150936e+01  -1.036430e+01
   3.424766e+01  -5.029710e+01
   8.514189e+01  -9.194964e+00
   7.005713e+01   8.684548e+01
   5.402481e+00   1.158673e+02
  -1.274398e+02   4.763935e+01
  -1.089512e+02   1.359125e+01
   1.399484e+01  -2.957180e+01
   3.697283e+01  -1.220882e+02
  -3.752406e+00   1.624581e+00
   3.699000e+01   2.050242e+00
  -1.639859e+01  -2.555974e+01
   2.056652e+01   6.206560e+00
   2.857402e+01  -2.320094e+00
   2.359401e+01   4.039013e+01
   4.240051e+01   9.511432e+01
  -4.001503e+01   7.162850e+01
  -6.810725e+01   3.624764e+00
  -1.381892e+02  -5.216185e+01
  -1.133402e+01  -1.187768e+02
   3.963430e+01  -4.867170e+01
   1.464205e+02   2.611624e+00
   7.315994e+00   3.759198e+01
  -5.467093e+00  -2.150693e+01
   5.655765e+01  -9.632146e+00
   5.249848e+01   1.679823e+00
   3.778110e+01   2.817160e+01
   4.353579e-01  -2.586121e+00
  -4.406159e+01  -4.607741e-01
  -1.683864e+01   1.361687e+00
  -1.115329e+01  -6.337042e+01
   6.412088e+01  -5.253260e+01
   6.846138e+01   4.856530e+01
   4.227734e+01   9.376836e+01
  -5.500062e+01   7.183924e+01
  -1.062625e+02   5.306140e+01
  -1.525806e+02  -7.109370e+01
  -3.275442e+01  -8.659210e+01
   1.833707e+01  -6.556644e+01
   5.188802e+01  -5.732959e+00
   4.088594e+01  -2.150073e+00
   4.075997e+01  -5.653346e+01
   4.628544e+01  -9.567606e+00
   3.606439e+01   1.760234e+01
   7.762693e+01   8.537224e+01
  -5.453162e-01   1.378993e+02
  -2.722851e+01   8.450697e+01
  -4.897117e+01   4.662349e+01
  -5.888749e+01  -7.854397e+01
  -6.392526e+00  -9.695457e+01
   3.388006e+01  -4.228425e+01
   1.105474e+01  -3.171179e+01
   1.669406e+01   6.396440e+00
  -3.593022e+01   2.419466e+01
   2.100572e+01   4.141852e+01
   8.911760e+01   4.344830e+01
   2.917021e+01   1.366250e+01
  -1.824129e+01   1.316751e+01
  -4.593906e+01   1.399636e+01
  -4.201135e+01  -3.696981e+01
  -2.156340e+01  -2.900216e+01
   5.507177e+01  -3.687400e+01
   6.521008e+01  -4.555422e+00
  -7.160262e+00   2.178955e+01
  -2.400064e+01  -1.969347e+01
  -1.369813e+01  -3.336416e+01
  -5.094058e-01  -7.519839e+00
   1.779716e+01   3.199627e+01
   5.466843e+01   3.056230e+00
   2.489608e+00   4.261828e+01
   4.476581e+01   2.324187e+01
   1.944573e+01  -4.318197e+00
  -1.044850e+01  -6.662870e+00
   2.365106e+01   5.152831e+01
  -2.944972e+01   4.913366e+01
  -2.846081e+01   7.298273e+01
  -8.100801e+01   3.762589e+01
  -2.295804e+01  -2.850617e+01
   1.279481e+01  -5.653971e+01
  -1.405417e+01  -2.194028e+01
   4.476159e+01   6.364351e+00
  -2.226890e+01  -2.438217e+01
  -2.647064e+01  -3.630651e+01
   3.006117e+00  -1.979236e+01
   3.795901e+01  -1.805844e+01
   1.307946e+02   3.015054e+01
   8.541613e+01   3.372201e+01
   1.541387e+01   2.836387e+01
  -5.608157e+01  -6.860005e-01
  -2.800916e+01  -1.774288e+01
   2.037983e+00  -8.643618e+00
   5.577476e+00   1.444101e-01
  -2.368269e+00   8.834892e+00
  -2.214532e+01   8.803033e+01
  -9.729930e+01   5.177568e+01
  -4.752355e+01  -3.625914e+01
  -2.063337e+01  -1.154040e+02
   6.970900e+01  -8.654650e+01
   6.757643e+01   1.982308e+01
  -5.053111e+00   7.977639e+00
   6.488318e+00   7.942896e+01
  -9.041009e+00   2.149732e+01
  -3.212531e+01  -8.188639e+00
   2.637793e+00  -2.338046e-01
  -3.431975e+01   1.491248e+01
  -1.866901e+01   3.944972e+01
  -4.537075e+01   1.208530e+01
  -3.734538e+01  -5.839325e+01
   4.827251e+01  -5.684273e+00
   2.506583e+01   6.872774e+00
   5.514392e+01   1.909659e+01
  -2.031464e+01   5.188783e+01
  -4.330185e+01  -1.190004e+00
  -5.261392e+01  -1.807970e+01
  -1.955178e+01   2.190310e+00
   6.067813e+01  -4.555850e+00
   7.176836e+01   2.110384e+01
  -6.089938e+00   2.468753e+01
  -5.961789e+00  -2.651962e+01
   2.941463e+01  -8.069540e+00
   7.075677e+01   3.964583e+00
  -1.897584e+01   3.564621e+01
  -4.597091e+01   4.797718e+01
  -9.872938e+01   2.461033e+01
  -6.660711e+01  -2.714601e+01
  -5.812386e+01  -7.995988e+01
   5.952512e+01  -9.997270e+01
   5.767469e+01  -3.813428e+01
   6.061118e+01   2.199076e+01
  -5.929193e+00   4.700748e+01
   3.218675e+00  -1.758177e+01
   4.006056e+01   4.350362e+00
   9.406904e+00   1.115029e+01
   2.210042e+01   9.755611e+00
  -3.305571e+01   2.214839e+01
  -4.349133e+01   3.171202e+01
  -5.738717e+01  -5.988257e+01
  -4.642106e+01  -1.933280e+01
  -4.596007e+00   8.667859e+00
   6.415542e+01   3.824941e+01
  -5.869029e+00   3.310412e+01
  -1.453551e+01   5.012738e+01
  -7.100059e+01  -2.839741e+01
  -6.485774e+01  -2.042663e+01
   4.957173e+00  -3.803711e+01
   1.645190e+01  -1.062976e+01
   7.169807e+00   4.456348e+01
  -2.834333e+01  -1.120771e+01
   9.726448e+00  -8.615897e+00
   7.062810e+01  -5.782247e+01
   7.781377e+01  -1.221089e+01
   8.068536e+01  -2.796498e+01
   3.789190e+01   8.712618e+00
  -1.209092e+01   3.870139e+01
  -1.374146e+01   2.991286e+01
   1.489918e+01  -1.129963e+01
   1.216679e+01  -6.353623e+01
   4.606887e+01   1.086726e+01
   1.050410e+01   5.337057e+01
   3.141558e+01   3.561233e+01
   3.505344e+01   3.273822e+01
   7.355646e+00  -9.618246e+00
  -1.745655e+01   1.535152e+01
   9.356494e+00   7.886599e+00
   3.781974e+01  -6.298814e-01
   3.952482e+00   9.549786e-01
  -3.851181e+00  -4.334796e+00
   2.363259e+01   9.468345e+00
  -1.890417e+01   3.202997e+01
   4.991455e+01   8.912165e+00
  -3.501876e+01   4.793099e+01
  -4.238301e+01  -4.431838e+01
  -2.036789e+01   1.845619e+01
   2.763928e+01   1.281458e+01
   8.114055e+00   1.668844e+01
   1.274497e+01   1.715616e+01
   2.025131e+01  -2.610234e+01
  -1.863708e+01  -1.334832e+01
   2.002262e+01   2.081162e+01
   1.099741e+01  -4.965785e+00
  -1.569710e+01  -7.932432e-02
  -1.036025e+01  -1.347095e+01
  -3.222663e+01  -3.863498e+01
