
 $NMID
 id='ANONYMOUS ', fmtdat='(2E16.6)'
 volume=1.0
 tramp=1.0
 $END
   2.872427e+03   4.189647e+01
   1.831672e+03   1.540622e+03
   4.617946e+01   2.067551e+03
  -1.259063e+03   1.089373e+03
  -7.523598e+02   4.536923e+01
  -1.359918e+01  -1.885707e+02
   3.870483e+02   1.138771e+02
  -1.142967e+00   5.572729e+02
  -4.450539e+02   4.345781e+02
  -5.372706e+02  -1.793311e+00
  -3.353912e+02  -4.635145e+02
   4.165757e+01  -5.674092e+02
   2.993971e+02  -1.544609e+02
   2.219468e+02   3.625598e+02
  -2.255261e+02   4.650410e+02
  -4.128718e+02   5.297351e+01
  -2.889625e+02  -4.402380e+02
   2.296839e+02  -4.964246e+02
   4.450468e+02  -2.192067e+02
   3.496924e+02   9.967268e+01
   1.141037e+02   2.672919e+02
  -1.308970e+02   1.905116e+02
  -1.182349e+02   8.764312e+01
   1.724062e+02   5.331413e+01
   2.860031e+02   2.254080e+02
   5.306583e+01   3.609056e+02
  -4.234886e+02   1.824411e+02
  -5.218362e+02  -9.292921e+01
  -2.231734e+02  -3.817727e+02
   3.572185e+02  -2.899697e+02
   4.715176e+02   1.655982e+02
   1.798595e+02   3.783664e+02
  -2.455780e+02   2.850824e+02
  -3.584808e+02   1.487763e+02
  -2.383108e+02  -2.033035e+02
  -7.711407e+01  -2.814343e+02
   3.930817e+01  -1.688396e+02
   3.152908e+01   6.186591e+01
  -1.338555e+02   1.785684e+02
  -2.066892e+02  -1.296568e+02
   3.628397e+01  -4.168869e+02
   3.196612e+02  -3.801519e+02
   3.594712e+02   3.755762e+01
   1.214467e+02   3.252918e+02
  -1.517292e+02   1.139291e+02
  -2.451500e+02  -2.072296e+02
   1.115557e+02  -4.338657e+02
   3.408178e+02  -8.545454e+01
   4.848409e+02   3.047439e+02
   9.203748e+01   4.061889e+02
  -2.887931e+02   2.438812e+02
  -4.677023e+02  -7.306757e+01
  -3.021274e+02  -1.941670e+02
   8.002090e+01  -2.013050e+02
   2.831074e+02  -6.560254e+01
   1.739781e+02   6.734096e+01
  -3.142165e+00   2.190328e+01
  -1.657192e+01  -1.072414e+02
   9.954376e+01  -1.091022e+02
   1.840958e+02   5.702143e+01
   1.503427e+02   1.798943e+02
  -9.542455e+01   2.282522e+02
  -2.819621e+02   9.477256e+01
  -2.220139e+02  -3.514731e+01
  -6.824467e+00  -2.383842e+02
   2.165368e+02  -3.154168e+02
   3.398863e+02  -1.228628e+02
   2.301819e+02   1.506282e+02
   4.421820e+01   3.348875e+02
  -5.220622e+01   2.881709e+02
  -2.966885e+01   1.358977e+02
  -1.093534e+01   4.862693e+01
  -1.121313e+02   8.768652e+01
  -1.907997e+02   8.753938e+01
  -2.270064e+02  -1.204970e+02
  -6.609460e+01  -2.001359e+02
   7.520306e+01  -1.588218e+02
   1.493412e+02   1.087851e+01
   8.414889e+01   2.219183e+02
  -4.243110e+01   1.728288e+02
  -2.074689e+02   8.891937e+01
  -2.696406e+02  -1.495954e+02
  -1.143681e+02  -2.197400e+02
   7.588832e+01  -2.008354e+02
   1.716415e+02  -1.353381e+02
   1.133708e+02  -7.016874e+01
   1.026909e+02  -5.572151e+01
   2.106542e+02  -1.187773e+00
   3.629042e+02   3.908005e+01
   2.500544e+02   2.577467e+02
  -2.870011e+01   3.940717e+02
  -3.275249e+02   2.824867e+02
  -4.484110e+02   1.147195e+02
  -2.050145e+02  -5.348280e+01
  -8.878756e+00  -2.626346e+02
   9.754125e+01  -1.232227e+02
   1.100728e+01  -5.673141e+00
  -1.279629e+02   8.496891e+01
  -1.067607e+02  -5.846838e+01
  -1.435364e+01  -1.463288e+02
   1.414801e+02  -1.046334e+02
   1.110408e+02   2.367269e+01
  -3.193956e+01   1.325819e+02
  -1.667425e+02  -2.348807e-01
  -9.938458e+01  -1.721407e+02
   1.316807e+01  -2.969534e+02
   1.665859e+02  -1.271392e+02
   2.797282e+02   3.231921e+01
   2.576762e+02   2.432238e+02
   3.965034e+01   2.695183e+02
  -6.037814e+01   1.327857e+02
  -1.506048e+02   9.873967e+00
  -3.941126e+01   1.330666e+00
   4.838119e+01   8.569373e+01
   3.631781e+01   1.351126e+02
  -8.065987e+01   5.420633e+01
  -1.140491e+02  -4.807751e+01
  -6.370579e+01  -1.098349e+02
   1.127133e+02   3.738467e+00
   4.384414e+01   1.149689e+02
  -1.705696e+02   5.287467e+01
  -2.587850e+02  -3.414078e+01
  -2.332817e+02  -1.378999e+02
  -5.244150e+01  -2.384050e+02
   2.155974e+02  -1.982860e+02
   2.234436e+02  -8.857270e+01
   9.053851e+01   4.391662e+01
  -1.343838e+01   8.622236e+01
  -3.503730e+01   4.419016e-01
   3.879100e+01  -6.338709e+01
   1.795342e+02  -4.392904e+01
   1.271093e+02   8.933295e+01
   4.641985e+01   9.934880e+01
  -3.439221e+01   1.053994e+02
  -1.241282e+02   5.843996e+00
  -2.179977e+01  -3.891804e+01
   6.527628e+01   2.682815e+01
   7.426617e+00   1.183694e+02
  -9.726385e+01   1.013786e+02
  -2.303161e+02   1.982431e+01
  -1.563688e+02  -9.381856e+01
  -1.798658e+01  -1.682606e+02
   1.545977e+02  -9.797498e+01
   1.589421e+02   1.045521e+01
   5.087315e+01   8.797863e+01
  -6.410867e+01   9.372208e+01
  -4.816382e+01   1.499209e+01
   1.094625e+01  -1.003137e+01
   4.691315e+01   3.816073e+01
  -4.669528e-01   2.969256e+01
  -6.326400e+01   1.599480e+01
  -8.125581e+01  -7.131844e+01
  -1.129336e+01  -2.064357e+02
   1.376442e+02  -1.424735e+02
   1.808824e+02  -6.137497e+01
   1.554399e+02   1.209584e+02
   4.290457e+01   2.115405e+02
  -1.431551e+02   1.386213e+02
  -1.279004e+02  -1.681613e+01
  -4.306603e+01  -8.964828e+01
  -3.274053e+01  -5.597920e+00
  -5.052437e+01   2.571127e+01
  -7.034069e+01   2.326995e+01
  -7.603039e+01  -7.411666e+01
  -1.366597e+01  -9.355903e+01
   7.940931e+01  -6.842126e+01
   1.252156e+02   5.688057e+01
   1.363370e+00   1.215120e+02
  -1.216861e+02   5.006642e+01
  -1.199887e+02  -6.199683e+01
  -8.862646e+01  -1.948357e+02
   8.127360e+01  -1.792604e+02
   2.179789e+02  -6.131133e+01
   1.528733e+02   7.245453e+01
   3.587882e+01   1.146174e+02
  -6.211032e+01   9.174151e+01
  -8.198258e+01   7.797110e+01
  -3.361116e+01   5.972236e+01
  -3.943217e+01   9.502976e+01
  -7.569158e+01   1.018419e+02
  -8.885489e+01  -4.548756e+01
  -1.126355e+02  -1.257918e+02
  -1.681312e+01  -2.007508e+02
   4.269008e+01  -1.221610e+02
   1.293151e+02  -8.519568e-01
   7.762507e+01   1.488905e+02
  -1.748805e+01   1.323115e+02
  -9.597235e+01  -1.146676e+01
  -5.941211e+01   4.409732e+00
   5.983005e+01  -1.074218e+02
   3.879048e+01  -6.895948e+01
  -3.650754e+01  -1.248678e+01
  -9.648438e+01  -6.766319e+01
  -7.895089e+01  -6.357095e+01
   5.925984e+01  -6.904466e+01
   1.694487e+02  -7.279803e+01
   1.253717e+02   5.523296e+01
   4.616647e+01   7.001847e+01
  -1.677213e+02   1.090547e+02
  -1.281000e+02   8.122269e+00
  -3.978233e+01  -3.688350e+01
   5.944336e+01  -3.136046e+01
   4.180421e+01   3.944591e+01
   5.663524e+00   7.102462e+01
  -3.748789e+01   7.753803e+01
  -4.206153e+01   3.044942e+01
  -6.956098e+01  -2.043641e+01
  -3.466180e+01  -5.084415e+01
  -6.063813e+01  -2.878750e+01
  -7.206365e+01   1.720917e+00
  -3.864877e+01  -8.776152e+01
   3.849955e+01  -9.907096e+01
   1.094139e+02  -1.425541e+02
   1.515769e+02  -7.967622e+01
   1.136529e+02   6.002120e+01
   1.644582e+00   1.237584e+02
  -5.396725e+01   4.662245e+01
  -2.462439e+01   4.858455e+01
   3.074357e+01  -1.851318e+01
   1.175284e+02   2.596558e+01
   1.168544e+02   1.168809e+02
  -8.944767e+01   9.918130e+01
  -1.165995e+02   5.364544e+01
  -1.933216e+02  -2.713752e+01
  -3.932340e+01  -8.663942e+01
   5.592064e+01   7.671557e-01
   6.089635e+01   1.183608e+01
  -6.662111e+01   3.634744e+01
  -6.302027e+01  -6.643024e+01
  -3.472651e+01  -8.597818e+01
   1.061528e+02  -1.559270e+02
   1.786047e+02  -3.276580e+01
   9.621247e+01   9.251915e+01
   7.014096e+01   1.765250e+02
  -5.923298e+01   1.575803e+02
  -7.837834e+01  -7.015970e+00
  -1.002479e+01  -1.098978e+02
   5.103021e+00  -2.830352e+01
   6.510623e+01  -9.083998e-01
   1.236836e+01   2.450049e+01
   5.459695e+00   2.216300e+01
  -6.350146e+01  -3.833176e+01
   2.862912e+01   3.005617e+01
   9.527390e+01   6.640651e+01
   8.937863e+00   9.685256e+01
  -4.094799e+01   5.941125e+01
  -1.238178e+02  -5.588262e+01
  -6.462743e+01  -5.491473e+01
  -1.207698e+01  -3.131361e+01
   2.527903e+01  -2.087651e+01
   7.535648e+01   2.350749e+01
   4.181027e+00   5.414232e+00
  -6.784842e+01   6.298413e+00
  -1.837801e+01   1.324684e+01
   5.074562e+01  -3.456229e+01
   1.715835e+01  -1.870788e+01
  -4.211581e+01  -4.935225e+01
  -7.785110e+01  -5.588224e+01
   9.420766e+00  -5.952826e+01
   7.099648e+01  -8.148010e+01
   1.446573e+02  -5.857392e+01
   1.037773e+02   7.812615e+01
   2.624377e+01   1.532096e+02
  -1.197843e+02   1.502733e+02
  -9.998262e+01   2.730002e+01
  -8.993783e+01  -1.497700e+01
  -1.397753e+01  -4.835682e+01
  -9.352735e+00   7.475577e+00
  -1.251830e+01   1.770369e+01
  -5.866993e+01  -1.057961e+02
  -7.349312e+00  -1.047759e+02
   3.502158e+01  -4.237270e+01
   5.477358e+01  -3.602736e+01
   1.013237e+02   2.507287e+01
  -5.081714e+00   1.045806e+02
  -4.688230e+01   1.242248e+01
  -7.910256e+01  -1.514937e+01
  -5.004216e+01  -9.142892e+01
   3.587205e+01  -2.049074e+01
   6.045810e+01   1.498350e+01
   4.162736e+01   4.375404e+01
  -3.119867e+01   5.699682e+01
  -3.356089e+01   6.455739e+01
   1.401746e+01  -3.006261e+00
  -2.262672e+01  -5.965605e+00
  -2.102097e+01   1.082650e+01
  -7.459350e+01   1.522696e+01
  -1.213125e+02   5.427051e+01
  -6.174869e+01  -1.041425e+01
  -8.171927e+00  -7.838411e+01
   5.596989e+01  -4.592615e+01
   5.332995e+01   2.897778e+01
   1.602129e+01   4.912270e+01
  -2.578386e+01   2.735808e+01
  -3.855257e+01   1.970664e+01
   2.617090e+01  -3.618473e+01
  -2.728174e+01  -2.002278e+01
  -4.827645e+00   7.324244e-01
   4.874901e+01   7.672259e+01
   1.668436e+01   7.361225e+00
   1.602735e+01  -2.282225e+01
   8.168314e+00  -4.944232e+01
  -1.966271e+01   7.460395e+01
  -6.511541e+00   2.351902e+01
  -1.911249e+01   2.415436e+01
  -9.781571e+00  -4.046039e+00
   1.804694e+01  -9.031483e+01
   1.406587e+01  -1.518378e+01
   5.808457e+01   2.028996e+01
   4.286918e+01   7.660068e+01
  -8.116545e+01   7.005182e+01
  -2.838330e+01   4.741535e+00
  -2.480344e+01  -4.295625e+01
   2.600869e+01  -3.626721e+01
   4.989791e+01   1.862380e+01
   2.735156e+01  -4.406772e+01
  -1.430330e+01   4.353810e+01
  -1.271019e+01  -6.105659e+01
   3.141949e+01  -1.497970e+01
   5.606141e+01  -2.777338e+01
