
 $NMID
 id='ANONYMOUS ', fmtdat='(2E16.6)'
 volume=1.0
 tramp=1.0
 $END
   1.498468e+03   1.963566e+02
   1.215722e+03   8.231106e+02
  -5.755621e+00   1.008227e+03
  -5.476319e+02   4.518078e+02
  -3.316306e+02   2.028781e+02
  -3.592960e+01  -3.888803e+01
   1.586693e+02   8.171570e+01
   1.023602e+02   2.611932e+02
  -2.287997e+02   3.199468e+02
  -4.265044e+02  -2.971183e+00
  -2.199343e+02  -2.650848e+02
  -1.253371e+01  -3.718113e+02
   1.743237e+02  -8.201139e+01
   1.504644e+02   2.215926e+02
  -6.143967e+01   3.182342e+02
  -1.831218e+02  -1.894515e+01
  -9.442939e+01  -2.290451e+02
   9.965334e+01  -3.263001e+02
   2.421096e+02  -1.409874e+02
   1.751090e+02   6.262460e+01
   9.012119e+01   1.803310e+02
  -3.209122e+01   1.095601e+02
  -5.812145e+00   1.831930e+01
   1.035342e+02   8.712600e+00
   1.351454e+02   1.445493e+02
   2.369193e+01   2.087717e+02
  -2.592239e+02   1.236689e+02
  -2.711229e+02  -1.264182e+02
  -1.443335e+02  -2.329862e+02
   1.469663e+02  -9.137512e+01
   2.304234e+02   8.689845e+01
   9.357746e+01   2.217442e+02
  -1.452704e+02   1.590762e+02
  -2.381344e+02   7.749685e+01
  -2.177939e+02  -1.024504e+02
  -8.035890e+01  -1.354550e+02
  -3.946735e+00  -9.385757e+01
  -4.408525e+01   1.121092e+01
  -1.124976e+02   5.642106e+01
  -1.741169e+02  -1.269378e+02
  -1.379894e+01  -2.784128e+02
   1.528986e+02  -3.036999e+02
   1.905243e+02  -2.579509e+01
   5.566125e+01   2.144558e+02
  -7.255528e+01   8.454503e+01
  -1.083679e+02  -1.154441e+02
   8.978941e+01  -2.100386e+02
   2.908226e+02  -5.388325e+00
   2.171486e+02   1.802393e+02
   5.076833e+01   2.203632e+02
  -1.709167e+02   1.397413e+02
  -2.795499e+02   9.636066e-01
  -1.045578e+02  -1.339643e+02
   5.219823e+01  -1.094944e+02
   1.908243e+02  -6.196164e+01
   9.372015e+01   7.500191e+01
   6.271358e-01   1.398613e+01
  -1.687166e+01  -5.061443e+01
   7.236074e+01  -6.163466e+01
   6.079035e+01   3.379865e+01
   6.311021e+01   6.797413e+01
  -6.989147e+01   1.389862e+02
  -1.388818e+02   8.845121e+01
  -1.048322e+02  -5.989683e+00
   2.950295e+01  -1.145792e+02
   1.426739e+02  -2.463986e+02
   1.793242e+02  -1.049180e+02
   1.005461e+02   8.338195e+01
   2.759942e+00   1.946915e+02
  -5.843230e+01   9.874476e+01
   3.601508e-01   3.674878e+01
   4.739815e+01   6.623298e+01
  -6.549763e+01   5.656088e+01
  -1.279606e+02  -1.053233e+01
  -8.923116e+01  -5.111770e+01
  -5.598603e+01  -1.280113e+02
   5.632140e+01  -7.442189e+01
   1.147259e+02   3.930980e+01
   6.291259e+01   1.255468e+02
  -4.472708e+01   1.239174e+02
  -1.056763e+02   3.365120e+00
  -8.780410e+01  -6.980324e+01
  -8.992126e+01  -1.497613e+02
   4.105814e+01  -9.668127e+01
   5.389253e+01  -8.463030e+01
   5.067664e+01  -2.913629e+01
   8.076759e+01  -2.265752e+00
   9.650614e+01  -9.906945e+00
   2.052691e+02   8.099464e+01
   1.190925e+02   8.717884e+01
  -1.269082e+01   2.183466e+02
  -1.992376e+02   2.219636e+02
  -2.474627e+02   3.787298e+01
  -9.173876e+01  -5.228443e+01
   2.630418e+01  -1.769682e+02
   9.235850e+01  -8.499296e+01
   3.719982e+01   3.628983e+00
  -4.022649e+01   3.986122e+01
  -9.106241e+01   2.016993e+01
   9.441782e+01  -7.193034e+01
   8.085461e+01  -1.682062e+01
   6.836745e+01   4.699782e+01
  -1.331261e+01   9.148106e+01
  -3.427318e+01  -3.256298e+01
  -1.388281e+02  -8.883681e+01
   5.301013e+00  -1.464068e+02
   8.713849e+01  -9.026162e+01
   1.770602e+02   4.233856e+01
   1.347855e+02   1.242301e+02
   6.940782e+01   1.605004e+02
  -6.984270e+01   6.271492e+01
  -5.098272e+01   7.531947e+00
  -4.910968e+01   3.343517e+01
   2.742777e+01   3.475102e+01
   3.404381e+00   7.875034e+01
  -6.868093e+01   6.801995e+01
  -1.024531e+02  -9.038913e+00
  -6.984388e+00  -2.028491e+01
   3.130798e+01   2.375592e+01
   2.194075e+00   3.828422e+01
  -8.755091e+01  -1.926219e+01
  -1.553376e+02  -9.995526e+00
  -1.578943e+02  -8.905172e+01
   1.305718e+01  -1.687880e+02
   1.473439e+02  -1.108167e+02
   1.136660e+02  -3.950186e+01
   6.651911e+01  -4.358341e+01
  -2.233679e+00   2.996056e+01
  -5.297012e+01  -3.668457e+01
   3.685340e+01  -3.119333e+01
   9.485003e+01  -4.681641e+01
   1.526676e+02   4.994567e+01
   2.916874e+01   5.391077e+01
  -6.389564e+01   5.847290e+01
  -9.704940e+01   5.154793e+01
  -5.626766e+01  -2.707917e+01
   1.241278e+01   5.602315e+00
   1.197740e+01   5.313418e+01
  -3.314939e+01   1.168931e+02
  -1.000061e+02  -1.148391e+01
  -1.044027e+02  -5.150768e+01
  -1.385325e+01  -8.638872e+01
   9.840739e+01  -6.611588e+01
   9.885510e+01   7.176150e+00
   2.311658e+01   4.236107e+01
  -2.110834e+01   5.144748e+01
  -3.262540e+00  -1.334655e+01
  -6.524320e+00  -3.200882e+00
  -4.422891e+00   1.127148e+01
   2.540603e+00   1.401257e+00
  -5.424181e+01   1.694120e+01
  -1.586027e+01  -1.940732e+01
  -1.585533e+01  -1.104009e+02
   4.370239e+01  -6.112178e+01
   1.338309e+02  -4.066516e+01
   1.309648e+02   9.277280e+01
   2.173129e+01   9.751234e+01
  -4.510433e+01   9.517178e+01
  -8.080017e+01   1.627643e+01
  -4.510841e+01  -3.707945e+01
  -1.218723e+01  -2.187261e+01
  -4.328962e+01  -3.902783e+00
  -5.328241e+01  -1.073511e+00
  -1.342324e+01  -3.322506e+01
   1.425299e+01  -3.806407e+01
   7.401933e+01   3.516535e+01
   2.324194e+01   1.448945e+01
  -1.024291e+01   4.944421e+01
  -7.855861e+01   4.050406e+01
  -1.342590e+02  -5.668622e+01
  -7.575135e+01  -1.230514e+02
   7.669269e+01  -8.913756e+01
   1.347416e+02  -3.616514e+01
   6.452107e+01   7.199345e+01
   5.906142e+01   3.914931e+01
   6.225789e-01   7.012418e+01
  -1.417821e+01   9.053232e+00
  -5.076917e+00  -7.827150e-01
  -3.940437e+01   6.584869e+01
  -1.427821e+01   3.136814e+01
  -9.025682e+01   1.736436e+01
  -3.428547e+01  -8.541191e+01
  -6.169638e+01  -1.308390e+02
   1.894420e+01  -2.609145e+01
   8.976674e+01  -1.210980e+01
   6.414562e+01   3.707876e+01
   1.570496e+01   9.584675e+01
  -4.350656e+01   9.327277e+01
  -4.062421e+01   1.287744e+01
  -6.013506e+00  -2.769014e+01
   4.258033e+01   2.876431e+00
   2.480550e+00   3.083173e+01
  -5.521835e+01  -2.175133e+01
  -2.094414e+01  -1.127627e+01
   2.909822e+01  -6.362528e-02
   4.542881e+01  -2.034222e+00
   1.105454e+02   2.137365e+01
  -1.677890e+01   5.044113e+01
  -1.078990e+02   3.236402e+01
  -7.218578e+01  -5.498037e+00
  -2.014559e+01  -3.577526e+01
   2.963126e+01  -8.341177e+01
   4.193742e+01   4.164219e+01
  -5.551167e-01   5.868395e+01
  -4.549223e+01   2.454643e+01
  -2.744861e+01   8.905430e+00
  -5.960774e+01  -7.791295e+00
  -1.695953e+01  -2.313738e+01
  -5.977108e+01   1.075971e+01
  -7.236757e+01   2.251734e+01
  -1.906226e+01   6.914048e-01
   2.289650e+01  -7.021043e+01
   5.712169e+01  -1.269904e+02
   8.132947e+01  -6.391689e+01
   8.506556e+01   7.311427e+01
   2.464070e+01   3.385874e+01
  -3.572705e+01   9.672997e+00
  -4.295800e+01   9.715279e+00
   5.626937e+01  -3.060164e+01
   2.210730e+01  -3.941903e+01
   1.466070e+01   5.691291e+00
  -3.860652e+01   7.606154e+01
  -9.752612e+01   2.582858e+01
  -9.223024e+01  -2.701991e+00
  -3.479702e+00  -2.024418e+01
   6.100913e+00  -4.919976e+01
  -1.053952e+01  -1.877591e+01
  -5.143178e+01   2.486499e+01
  -2.723417e+01   2.061903e+01
  -7.662677e+01  -3.546071e+01
   7.174038e+01  -1.012909e+02
   1.653966e+01  -2.438947e+01
   7.460323e+01   5.227883e+01
   2.561646e+01   1.071201e+02
  -7.668620e+01   7.257825e+01
  -3.035699e+01   2.322616e+01
  -3.609500e+01  -7.560662e+00
   6.533355e+00  -3.084290e+01
  -3.120815e-01   3.683717e+00
   2.563464e+01   2.222154e+01
  -1.106846e+01   3.161717e+00
  -2.190408e+01   4.257780e+00
   4.378050e+01  -3.814583e+01
   1.519645e+01   3.629840e+01
   2.827061e+00   8.759965e+01
  -2.254889e+01   2.754289e+01
  -3.861343e+01  -3.231104e+01
  -4.247486e+01  -4.608048e+01
  -1.513439e+01   5.184259e+00
   4.946491e+01  -1.123036e+01
   4.101661e+01   8.712708e+00
  -7.788214e+00   1.799772e+01
  -5.939659e+00   1.297506e+01
  -1.375937e+01  -1.587920e+01
   3.878155e+01  -2.938802e+01
  -1.077479e+01   2.351490e+01
  -8.235081e+01   1.234239e+01
   3.204902e+00   5.419857e+00
   2.417774e+01  -4.188717e+01
   4.809318e+01  -6.961394e+01
   1.276718e+02  -5.859221e+01
   2.825137e+01   5.189943e+01
  -1.942714e+01   5.797302e+01
  -3.859814e+01   9.645703e+01
  -3.923730e+01   1.580273e+01
  -4.923493e+01  -3.546259e+01
  -2.901316e+00  -4.021551e+01
   3.721546e+00   2.327197e+01
   3.798164e+00  -1.607922e+01
  -3.568956e+00  -2.135810e+01
  -4.051358e+00  -2.812497e+01
  -3.108556e+01  -2.956302e+01
   2.653218e+01   3.020692e+01
   7.895985e+01   6.878150e+01
   1.190362e+00   9.956105e+01
  -2.421813e+01   3.868718e+01
  -4.513038e+01  -1.220208e+01
  -8.457006e+00  -2.177338e+01
   5.250807e+01  -6.341903e+00
   6.742345e+01   5.870312e+00
   5.643169e+01   5.080816e+01
  -4.445265e+01   2.269912e+01
  -3.058555e+01   2.726142e+01
   2.103949e+00  -1.570782e+01
   5.748625e+01  -4.654295e+01
   3.191841e+01  -1.081527e+01
  -4.967073e+01   6.142300e+01
  -4.188814e+01   5.168727e+01
  -5.533815e+01  -1.399344e+01
   2.560288e+00  -7.767631e+01
   2.260162e+01  -7.078708e+01
   6.568738e+01  -4.231082e+01
   4.211775e+01   9.254352e+00
  -2.896303e+01   1.481763e+01
  -7.953691e+00   8.113659e+00
  -4.276174e+01  -1.338834e+01
   4.593103e+01  -2.524771e+01
   3.670729e+01   1.025939e+01
   1.825259e+01  -2.418879e-01
   3.271934e+00   7.182079e+00
  -3.824408e+01  -2.600923e+01
  -5.290438e+00  -3.413521e+01
  -2.208652e+01   1.857107e+00
  -1.629050e+01   4.204611e+01
  -2.083011e-01   2.052238e+01
  -3.040901e+01  -2.391652e+01
   1.637002e+00  -2.875094e+01
   4.387315e+01  -8.595384e+00
   2.891558e+01   3.780428e+01
  -4.946097e-01   7.521192e+01
  -2.036070e+01   2.641077e+00
  -7.027190e+01  -1.813450e+01
  -5.347262e+01   5.660182e+00
   2.545142e+01   5.125197e+00
   1.625003e+01  -3.363367e+01
   1.287516e+01   9.584982e+00
  -1.708391e+01  -2.280896e+01
  -2.267034e+01   1.393917e+01
   2.838192e+01  -3.342084e+01
  -8.750523e-01  -1.759084e+01
