
 $NMID
 id='ANONYMOUS ', fmtdat='(2E16.6)'
 volume=1.0
 tramp=1.0
 $END
  -9.795017e+02   2.959641e+02
  -1.029118e+03  -6.266774e+02
  -6.796298e+01  -7.005612e+02
   4.686520e+02  -6.269556e+02
   3.417477e+02  -1.917677e+02
   2.113347e+01   1.223063e+02
  -1.639967e+02  -4.663173e+00
  -2.021902e+01  -1.199854e+02
   1.186279e+02  -2.343347e+02
   2.123489e+02  -1.031518e+02
   1.963353e+02   1.632870e+02
   1.005792e+02   1.844353e+02
  -6.276149e+01   9.607041e+01
  -1.372109e+02  -1.367080e+02
  -9.291564e-01  -2.265634e+02
   9.720645e+01  -8.654628e+01
   1.208892e+02   8.865240e+01
   1.114005e+01   1.992398e+02
  -4.024214e+01   1.427066e+02
  -1.400688e+02   1.825445e+01
  -1.094669e+02  -6.264662e+01
  -7.429045e-01  -1.144481e+02
  -1.647247e+01  -2.579412e+01
  -1.678131e+01  -8.615180e+00
  -9.072024e+01  -1.120132e+02
  -1.191324e+01  -1.152215e+02
   1.440615e+02  -1.263173e+02
   1.848016e+02   3.685624e+01
   1.124127e+02   9.541914e+01
  -9.996690e+01   8.948960e+01
  -1.720980e+02   8.540952e+00
  -1.429773e+02  -1.253299e+02
   7.480527e+01  -1.302035e+02
   1.316423e+02  -4.190558e+01
   1.053602e+02   2.390828e+01
   3.307656e+01   8.597392e+01
   5.829404e+01   1.695064e+01
   3.162134e+01  -3.988543e+01
   1.659237e+02  -5.790237e+01
   6.421706e+01   4.965679e+01
   5.673678e+01   2.142816e+02
  -3.696425e+01   1.909403e+02
  -8.395170e+01   5.685476e+00
  -4.730549e+00  -6.556164e+01
   5.348286e+01  -3.646346e+01
   7.832925e+01   1.213268e+02
  -4.973449e+00   1.134790e+02
  -1.253648e+02   5.983040e+01
  -1.608080e+02  -1.058556e+02
  -3.730646e+01  -2.065431e+02
   1.296471e+02  -1.330223e+02
   1.391526e+02   9.108805e+00
   1.308233e+02   6.587513e+01
   8.276354e+00   6.678041e+01
  -9.457070e+01   3.524919e+01
  -6.252830e+01   2.697234e+01
   6.415294e+00   2.994592e+01
   1.634820e+01  -3.650763e+01
  -5.511204e+01   1.311829e+00
  -7.005761e+01  -1.867020e+01
  -7.122714e+01  -5.910127e+00
   1.402137e+01  -5.108069e+01
   4.697977e+01  -6.356832e+01
   7.062239e+01  -5.971598e-01
  -1.356251e+01   9.296014e+01
  -1.558078e+01   1.377843e+02
  -1.883246e+02   3.941771e+01
  -1.014004e+02  -9.127749e+01
  -7.413102e+01  -9.274906e+01
   5.643456e+00  -1.236114e+02
   1.565777e+01  -4.475172e+01
   8.876915e+00  -4.994996e+01
   4.357471e+01  -4.919085e+01
   4.831348e+01  -7.693642e+00
   7.502730e+01   1.172973e+01
   3.873192e+01   1.031470e+02
  -1.757087e+01   5.149924e+01
  -6.331748e+01  -5.827156e+00
  -9.154602e+01  -7.504380e+01
  -6.494851e+00  -6.764253e+01
   3.106178e+01   1.540382e+01
   9.280518e+01   4.106281e+01
   5.769648e+01   9.542316e+01
  -4.417834e+01   9.840662e+01
  -2.035166e+01   4.735799e+01
  -5.118686e+01   5.816848e+01
  -6.149679e+01   6.100807e+01
  -5.543384e+01   3.513653e+01
  -1.808431e+02  -2.735977e+01
  -1.087975e+02  -1.230738e+02
   3.805162e+01  -1.669921e+02
   1.488420e+02  -8.876560e+01
   1.617502e+02  -1.310149e+02
   1.415102e+02  -1.076819e+00
  -2.451067e+01   9.035689e+01
   3.360594e+01   6.570852e+01
   1.435897e+01  -1.054337e+01
   3.846695e+01  -6.688505e+01
   4.184916e+01   1.493883e+01
  -1.467467e+01   7.096533e+01
  -3.609951e+01   5.002564e+01
  -5.705579e+01   1.771479e+01
   1.647504e+01  -3.471996e+01
   2.000613e+01  -2.981053e+01
   3.480939e+01   9.375909e+01
  -1.058106e+00   1.138062e+02
  -4.051666e+01   1.114871e+02
  -1.214170e+02   5.087828e+01
  -8.980107e+01  -4.923665e+01
  -3.753214e+01  -1.059237e+02
   2.468433e+01  -3.730295e+01
   6.038950e+01  -1.724150e+01
  -2.971332e+01   3.117069e+01
  -3.123846e+01  -1.650774e+01
   8.608698e+00  -5.955481e+01
  -1.797604e+01  -7.310568e+00
   3.969788e+01   3.345560e+01
  -1.080709e+01   2.785287e+01
  -6.675321e+01   3.971597e+00
  -4.006370e+01  -4.708777e+01
   5.240209e+01  -5.047977e+01
   1.240226e+02  -2.547262e+01
   1.433664e+02   9.726309e+01
   9.841471e+01   1.074240e+02
  -8.748245e+01   1.227728e+02
  -1.255809e+02   4.833109e+01
  -5.179885e+01  -7.187203e+00
   2.356456e+01  -4.247667e+01
  -1.458381e+01   1.147185e+01
  -2.439864e+01  -2.114606e+01
  -5.038316e+01   4.691737e+01
  -5.503188e+01  -2.255318e+01
  -4.297370e+01  -6.091116e+01
  -3.023733e+00  -8.506368e+01
   6.127663e+01  -5.040135e+01
   8.216990e+01   5.635757e+01
  -1.980736e+01  -4.223001e+00
  -6.149856e+01  -1.903803e+01
   9.076343e+00  -6.529850e+01
   8.069212e+01  -1.119779e+01
   1.243726e+02   7.188221e+01
   3.693970e+01   6.552297e+01
  -4.997338e+01   4.229061e+01
  -7.359129e+01   9.697159e+00
  -3.658151e+01  -2.249519e+01
   1.524799e+01  -6.715844e+01
   1.847112e+01  -1.335605e+01
  -1.210998e+01  -2.422927e+01
  -3.112244e+01   4.371794e+01
   3.145255e+01   3.061216e+00
   9.062147e+00  -3.108020e+01
   5.167990e+01   9.662125e-01
   4.879769e+01   6.400298e+01
  -8.868279e+00   5.403030e+01
  -8.790629e+01  -2.189314e+01
  -6.200432e+01  -5.249563e+01
  -1.707399e+01  -7.394330e+01
   2.712503e+01  -5.548788e+01
   3.809014e+01  -2.186633e+01
   5.149347e+01  -2.336702e+01
  -1.511818e+01   1.200615e+01
   6.151334e+00  -1.994422e+01
   4.571931e+01   5.009098e+00
  -3.902941e+00   5.566417e+01
  -8.507356e+00   6.376732e+01
  -2.477379e+01   5.142865e+01
  -1.822620e+01   3.540146e+01
  -4.675771e+01  -1.984868e+01
   3.107254e+01  -1.487374e+01
   4.889773e+01  -2.122599e+01
   3.453657e+01   5.589585e+01
  -5.883310e+01   8.871853e+01
  -5.045160e+01   7.440282e+01
  -8.308479e+01  -2.635247e+01
  -2.093475e+00  -6.600337e+01
   1.845163e+01  -1.038902e+00
   5.443441e+01  -7.095638e+01
  -4.945331e+00  -2.334477e+01
   1.978822e+01  -4.230925e+01
   3.981645e+01  -5.468857e+01
   2.255358e+01   2.461898e+01
   3.127808e+01   3.308165e+01
   7.073775e+01   1.301054e+02
  -3.311747e+01   6.184315e+01
  -6.803744e+01   4.059144e+01
  -5.287373e+01  -2.051098e+01
  -2.181956e+01  -4.510787e+01
  -4.347850e+01  -4.859925e+01
   1.406740e+01   1.897153e+01
   1.469596e+01  -8.957134e+00
   1.175289e+01  -2.537747e+01
   3.337583e+01   4.192358e+00
   7.405003e+01  -1.680902e+01
   2.345915e+01   3.216781e+01
   8.540659e+00   2.658210e+01
  -3.191000e+01   3.046792e+01
  -1.054665e+02   1.061902e+01
   1.848255e+01  -3.444462e+01
   2.384431e+01   9.755376e+00
   3.475307e+01  -3.288644e-01
   5.512152e+01  -2.172196e+01
  -4.558992e+01  -2.975814e+01
  -4.513325e+00  -2.608171e+00
  -3.090301e+01  -2.036401e+01
  -8.688969e+00  -3.028763e+01
   2.447632e+01  -6.869980e+00
   2.948893e+01   1.394837e+00
   4.560127e+01   5.082709e+00
   4.591314e+01   3.562122e+01
   6.777631e+00  -3.433175e+01
   6.366536e+00   1.149350e+01
  -4.199708e+01   4.534750e+01
  -7.551343e+00   8.138322e+01
  -4.865130e+01  -6.060039e+00
  -8.298026e+01  -2.926958e+01
   1.909640e+01  -1.308711e+01
  -1.177966e+01  -5.485040e+01
  -1.510731e+01  -6.643151e+01
  -1.269553e+01  -1.938477e+01
  -2.917640e+01   1.729775e+01
  -2.934941e+01  -2.914419e+01
   8.251904e+00  -3.119562e+01
   6.489267e+01  -5.160257e+01
   9.890904e+01   1.389065e+00
   6.528518e+01  -8.083654e+00
   6.359750e+00  -4.563898e+00
  -3.076367e+01  -5.431543e+01
  -1.562451e+01  -2.491338e+01
   2.239872e+01   1.669460e+01
   1.199908e+01   5.409568e+01
  -3.533742e+01   4.894409e+01
  -3.438067e+01  -1.214298e+01
  -4.781607e+01  -2.596446e+01
  -2.003100e+01  -4.412659e+01
   1.512323e+01  -2.825656e+01
   2.196596e+01  -2.453362e+00
   4.256616e+01   5.658557e+00
   1.461139e+01   4.365066e+01
  -6.085736e+00   4.632994e+01
  -1.550220e+01  -1.594689e+01
  -1.542237e+01  -1.862394e+01
  -1.405528e+00  -4.972830e+00
  -6.140384e+00   6.992183e+00
  -5.989765e+01  -3.047810e+01
   7.118714e+00  -1.160905e+01
   5.372926e+01  -6.580289e+00
   2.422671e+01   2.503893e+01
   3.439675e+01   4.830962e+01
  -4.174865e+01   1.705612e+01
   1.038292e+00  -2.666893e+01
  -5.497875e+01   3.798466e+01
  -3.838021e-01  -1.139061e+01
   1.439319e+01  -8.744477e+00
   1.148361e+01  -2.796723e+01
   7.079874e+00   3.636456e+00
   3.308887e+01   4.401409e-01
   5.911764e+01  -1.241656e+01
   4.149953e+01   8.547487e-01
  -1.204065e+01   3.990517e+01
  -3.704277e+01   5.679619e+01
  -1.143900e+02   3.145148e+01
  -2.280139e+01  -1.963739e+00
  -5.253656e+01  -1.484205e+01
   8.502182e+00  -6.508857e+01
   2.248067e+01  -2.136580e+01
   2.367425e+01   3.041338e+01
   1.959564e+00  -1.042492e+01
   4.291152e+00   2.256099e+01
   4.157136e+00   2.614276e+01
   3.563652e+01  -1.623340e+01
   4.382692e+01   1.250412e+01
   2.040912e+01   3.700226e+01
  -3.966367e+01  -1.330198e+01
  -5.410827e+01  -2.952508e+01
   2.362985e+01  -3.108125e+01
   2.657796e+01   2.654763e+01
   2.335415e+01   1.233779e+01
   2.646113e+01   5.616231e+01
  -1.214838e+01   4.339607e+01
  -3.517215e+01   3.293212e+01
  -3.854020e+00  -3.359533e+01
   1.423878e+01  -4.814173e+01
   2.282885e+00  -1.074430e+01
   7.175637e-01  -3.175861e+01
  -1.061513e+01   7.409258e+00
  -2.427612e+01  -4.184695e+01
   3.348595e+01  -4.729139e+01
   2.055852e+01  -5.275988e+01
   6.199647e+01   5.784612e+00
  -2.624099e+01   2.762215e+01
  -5.507772e+01   3.662079e+01
  -2.922446e+01  -4.797935e+00
  -3.598517e+00   6.736885e+00
   1.002373e+01  -3.428457e+01
  -1.276222e+01   1.503993e+00
   1.105953e+01   5.324751e+01
   5.112796e+00   5.089722e+01
   3.367657e+01   3.362139e+01
  -2.907103e+01   1.221701e+00
   1.051377e+01  -1.401340e+01
  -4.008580e+01  -1.735073e+01
   3.059714e+01  -3.055248e+01
  -4.371059e+01  -3.076390e+00
  -8.682063e+00  -1.524107e+01
  -1.126247e+01   1.808321e+01
  -2.504501e+01   2.770902e+01
   1.549505e+00   2.123273e+01
  -3.106393e+01   4.960360e+01
  -1.707340e+01  -3.318299e+01
  -3.951377e+01  -3.297274e+01
  -3.125992e-01  -2.713236e+01
   4.258473e+01   7.006153e+00
   9.496685e+00   1.627433e+01
  -8.932065e+00   3.721065e+01
  -4.666837e-01  -2.721228e+01
  -2.015700e+01   8.472437e+00
   3.865930e+00   2.303930e+00
  -1.741920e+01   2.767889e+01
  -2.251315e+01  -1.674012e+01
  -3.699729e+01  -4.421558e+01
