
 $NMID
 id='ANONYMOUS ', fmtdat='(2E16.6)'
 volume=1.0
 tramp=1.0
 $END
   1.311878e+03   6.721350e+01
   5.487050e+02   7.719515e+02
  -2.514184e+02   5.525037e+02
  -4.716816e+02  -6.698299e+01
  -2.225436e+02  -1.086375e+02
   2.725583e+02  -2.773424e+01
   1.339074e+02   2.026793e+02
  -1.055368e+02   2.504523e+02
  -2.621122e+02   1.401686e+02
  -2.340620e+02  -1.072399e+02
  -5.795783e+01  -2.310632e+02
   7.261871e+01  -2.134235e+02
   1.436484e+02  -5.710622e+01
   4.972546e+01   2.119765e+02
  -9.780263e+01   2.280504e+02
  -8.552515e+01   3.774483e+01
  -1.709347e+01  -1.187500e+02
   1.237704e+02  -1.593284e+02
   1.049861e+02  -8.575654e+00
   8.143245e+01   9.397097e+01
  -1.854931e+01   7.344004e+01
  -5.493181e+01   1.122776e+02
  -6.956138e+01   3.169743e+01
   1.616966e+01  -5.024134e+01
   1.092469e+02  -7.146247e+00
   6.961568e+00   1.071111e+02
  -1.580816e+02   1.054227e+02
  -3.198273e+02   1.446217e+01
  -9.600569e+01  -1.612848e+02
   6.708191e+01  -8.435665e+01
   2.085307e+02   4.773417e+00
   5.209964e+01   1.440999e+02
  -7.416847e+01   1.186414e+02
  -1.064157e+02   1.370445e+01
  -1.018453e+02  -6.841654e+01
   2.436662e+01  -1.211392e+02
   1.136030e+02  -8.577815e+01
   5.543679e+01   6.662660e+00
  -3.472687e+01   9.554601e+01
  -1.336846e+02  -7.778062e+00
  -3.669519e+01  -1.767745e+02
   1.634849e+02  -1.408237e+02
   1.296816e+02  -1.793875e+01
   1.071541e+01   1.255125e+02
  -7.924227e+01   2.996926e+01
  -6.556790e+01  -8.827579e+01
   1.740671e+01  -1.642311e+02
   9.963891e+01  -1.700405e+01
   1.105509e+02   9.276178e+01
  -4.031412e+01   1.817252e+02
  -7.999561e+01   5.545407e+01
  -1.552558e+02  -1.607986e+01
  -5.804364e+01  -8.704798e+01
   6.492307e+01  -7.060960e+01
   1.114943e+02  -1.521413e+01
   7.501637e+01   5.410545e+01
  -3.320181e+01   1.991238e+01
  -2.404404e+01  -6.506058e+01
   7.469676e+01  -4.442949e+01
   1.029739e+02   7.280641e+01
   3.914292e+01   1.112888e+02
  -7.458081e+01   4.930748e+01
  -4.628312e+01  -1.561475e+01
  -8.983828e+01   1.510411e+01
  -4.246226e+01   4.078332e+01
   4.057286e+01  -5.797533e+01
   9.925051e+01  -4.037645e+01
   6.429237e+01   7.017223e+01
  -3.993446e+01   9.200245e+01
  -6.475605e+01   6.108145e+01
   6.089271e+00   7.528493e-01
   2.780031e+01  -1.783236e+01
   8.473178e-01   3.376277e+01
  -6.752523e+01  -2.934854e+01
  -2.638604e+01  -2.958406e+01
   1.135789e+01  -4.425593e+00
   4.987885e+00  -1.576664e+00
   3.046286e+01   2.176275e+00
   3.647993e+01   5.782859e+01
  -6.467296e+01   5.784663e+01
  -5.423201e+01   5.722199e-01
  -1.988544e+01  -5.002372e+01
  -2.313100e+01  -1.099621e+02
   4.804255e+01  -4.986984e+01
   8.093248e+01   2.103694e+01
   2.689920e+01   1.423318e+01
   3.177991e+01  -3.665348e+00
   5.843154e+01   1.175124e+01
   6.999630e+01   5.386678e+01
   3.594897e+01   3.744956e+01
  -5.171679e+01   1.131623e+02
  -1.018305e+02   5.857753e+01
  -1.662133e+02   2.847409e+01
  -3.721212e+01  -1.715465e+01
  -7.889979e+00  -5.754706e+01
   4.745730e+01  -7.576997e+00
   1.956607e+01  -2.769442e+01
  -3.610957e+01   4.713183e+01
   6.862918e+00   5.933912e+00
  -3.420190e+01  -6.472559e+01
   8.430038e+01  -1.548075e+01
   1.290238e+01   1.703209e+01
   1.424123e+01   3.889315e+01
  -2.099893e+01  -2.309667e+01
  -3.730163e+01  -5.841987e+01
   2.269024e+01  -6.892556e+01
   5.772511e+01   2.032343e+00
   8.433594e+01   2.192759e+01
   8.319554e+01   6.007967e+01
   5.263114e+01   5.295317e+01
  -6.059655e+01   5.347015e+01
  -5.098254e+01   1.615776e+01
  -3.882746e+01  -1.400066e+01
   2.759188e+01  -1.897832e+01
  -8.279324e+00   1.754244e+01
   2.220892e+01   2.140532e+01
  -2.972355e+01   9.938388e+00
  -1.222646e+01   2.743517e+00
   1.376038e+01   1.940523e+01
   6.539354e+00   3.395960e+01
  -2.340332e+01  -1.723903e+00
  -8.510693e+01  -1.009224e+01
  -6.436456e+01   2.038586e+00
   1.451988e+01  -6.933513e+01
   6.357659e+01  -3.788928e+01
   1.257648e+02  -3.783872e+01
   2.332983e+01  -4.620336e+01
   2.785887e+01   4.728142e+01
  -1.610290e+01   1.973197e+01
   6.858674e+01  -3.919762e+01
   1.311003e+01  -3.466927e+00
   9.055929e+01   3.117606e+01
   3.564584e+01   4.443166e+01
  -1.140111e+01   4.974934e+01
  -7.284992e+01  -1.843216e+01
  -3.814453e+01  -3.035459e+01
  -5.666655e+00  -4.367904e+01
  -1.692812e+01   8.983157e+00
  -1.706261e+01   6.377233e+00
  -1.855674e+01   2.468234e+01
  -5.740516e+01  -3.540212e+01
  -1.095111e+01  -6.618855e+01
   6.704996e+01  -2.017875e+01
   3.561851e+01   2.933641e+01
  -1.092021e+01   1.388387e+01
  -3.624939e+01   4.570273e+01
   1.362242e+01   3.441600e+01
  -3.323612e+00   2.520997e+01
  -9.569676e+00  -2.432694e+01
  -3.557274e+01  -2.178811e+01
  -4.339513e+00  -4.277529e+01
  -6.177734e+00   2.367660e+00
   2.725806e+01  -5.424767e+00
  -3.095844e-01  -1.788952e+00
   5.513960e+01   4.749921e+01
   2.453404e+01   4.210030e+01
  -1.012227e+01   1.029542e+02
  -3.847398e+01   2.813128e+01
  -1.373848e+01  -4.239707e+00
  -1.855680e+00  -2.969100e+01
   5.588674e+00   2.293125e+01
   1.380709e+01   1.048395e+01
  -4.140497e+01   1.288525e+01
  -2.908194e+01   2.150318e+00
   1.984201e+01  -1.292929e+01
   1.025777e+01   6.901475e+00
   3.706684e+00  -2.447698e+00
  -2.226014e+01   1.344929e+01
  -4.678371e+01   1.363560e+01
  -9.636902e+00   1.677983e+01
  -4.955801e+01  -4.582855e+01
   1.944753e+01  -1.898434e+01
   2.348247e+01  -2.805174e+00
   7.399138e+00   5.496120e+01
  -1.305169e+00   7.710676e+01
  -5.137308e+00   4.777610e+01
  -3.500109e+01   3.618163e+01
  -2.193611e+01   2.348449e+01
  -1.578807e+01  -1.271863e+01
  -1.421593e+00   4.338647e+01
  -3.131114e+01   1.590339e+01
  -3.564279e+01  -4.757274e+00
  -1.431846e+01  -7.728479e+01
   4.461293e+01  -7.616343e+01
   6.135319e+01   9.109255e+00
   2.028090e+01   4.448072e+01
   1.501652e+00   3.345168e+01
  -1.606902e+01   4.203454e+01
   9.952910e+00  -3.183793e+01
  -1.952162e+01  -1.065732e+01
   4.076435e+01   4.327452e+01
  -5.934761e+01  -3.699510e+00
  -2.229192e+01   2.659341e+01
  -5.931536e+01  -4.882499e+01
  -4.616657e+01  -9.064793e+00
   4.437006e+01  -7.342641e+00
   4.123349e+01  -9.010298e-01
   1.185039e+01  -2.091494e+01
  -2.374188e+01   4.837045e+00
  -3.717809e+01   8.215033e+00
   1.816725e+01   4.745932e+01
   1.671288e+01   5.045898e+00
   1.171315e+01  -2.652656e+01
   1.371511e+01   7.487863e+00
   2.277102e+01   2.341240e+01
  -3.398536e+01   1.739563e+01
   2.763144e+01  -3.419533e+00
   4.278261e+01  -4.171872e+00
   1.074002e+01   7.653628e-01
  -1.109845e+01  -3.263284e+01
  -1.061450e+01  -3.641790e+01
   6.088528e+01  -4.085521e+01
   3.621642e+01  -1.246305e+01
   4.842865e+01   1.798912e+00
  -4.729764e+01  -2.524692e+00
   2.613732e+00   2.970178e+01
  -1.473000e+01  -1.708016e+01
  -5.065671e+01  -9.194241e+00
   4.844161e+01   1.184359e+01
  -6.733913e+00   4.416028e+01
   5.395878e+00   4.630183e+01
  -4.133764e+01  -4.231100e+01
  -4.127598e+01   1.431612e+01
  -4.198464e+01  -3.503481e+01
  -9.291381e+00  -1.360934e+01
   3.685314e+01   8.406907e+00
  -2.123800e+01   1.120736e+01
  -4.191900e+01   1.379220e+01
   2.052798e+01   1.451362e+01
  -4.325887e+01   2.750727e+01
   2.446170e+01   6.158458e+00
   3.293556e+01  -2.514535e+01
   3.614686e+01   9.210662e+01
   1.805460e+01   5.071627e+01
   4.305244e+01   2.047363e+01
  -2.809446e+01  -1.708571e+01
   3.836522e-01  -1.500750e+01
  -1.228752e+01  -3.878135e+00
  -1.939984e+00  -2.831078e+00
   4.146514e+00  -3.015504e+01
   3.955816e+01   4.231023e+01
   2.637509e+01   1.867081e+01
  -1.122441e+01   4.506989e+01
  -1.632963e+01   9.684381e+00
  -2.710388e+01   2.606679e+01
  -6.637942e+00  -5.509338e+01
   1.486591e+01   1.759694e+01
  -1.702346e+01  -1.715964e+01
   1.513027e+01  -1.584360e+01
   2.021408e+01  -3.898340e+00
  -5.989500e+00  -5.126552e+01
  -1.494570e-01   4.095439e+00
  -1.203234e+01   5.087253e+00
   2.331318e+01   1.730416e+01
  -3.296461e+01   3.032540e+00
  -4.261513e+01   5.638717e+00
   1.162066e+01  -2.337646e+01
  -3.201125e+01  -2.131159e+01
   6.875385e+00  -9.211809e+00
   2.034131e+01  -1.367984e+01
   2.802305e+01  -7.163182e-01
   5.118715e+01   1.000707e+01
  -1.111490e+01   5.435076e+01
   2.219285e+01   2.518559e+01
  -3.134654e+01  -6.186047e+00
  -8.180575e+00   1.884253e+01
  -9.922627e+00  -6.760026e+00
   6.207833e+00   2.540571e+01
  -2.866087e+01  -3.540719e+00
   2.615483e+01   9.805616e+00
   4.266109e+00  -4.512674e+01
  -8.801690e-01  -5.276584e+01
   8.971585e+00   2.768678e+01
   1.251006e+01   3.902428e+01
   2.420549e+01   8.681669e+00
  -3.442995e+01   8.700517e+00
  -9.046726e+00  -4.082377e+01
  -4.493812e+01  -3.620153e+01
   2.393115e+01   5.487014e+00
   3.241286e+01  -1.392832e+01
   2.263263e+01   1.202684e+01
  -2.789684e+01   5.518522e+00
  -1.447765e+01   1.807593e+01
   3.090436e+01   2.298023e+01
   2.114658e-01   6.056802e+00
  -1.199776e+01   2.285062e+01
  -4.643334e+01   2.861943e+00
  -6.119900e+01  -5.513383e+00
   1.607190e+01  -3.331365e+01
  -5.682188e+00   1.419746e+01
   1.675548e+01  -4.594405e+01
   2.283148e+01   6.073140e-02
   3.012107e+01  -9.035773e+00
   8.293505e+00   5.262468e+01
  -1.208569e+01  -2.730635e+01
  -2.598895e+01  -2.700386e+01
   7.153168e+00  -6.232974e+00
   1.953491e+01  -1.325763e+01
   2.841948e+01   2.091465e+01
  -2.001596e+01  -1.937000e+01
  -3.738540e+01  -1.682816e+01
   2.197448e+01   3.967671e+01
  -1.639446e+01   2.273763e+01
  -5.076488e+01   5.417085e+00
   2.152067e+01   1.558207e+01
  -1.098707e+01  -5.008295e+01
  -5.688308e+00  -2.450321e+01
   6.590939e+01   8.596789e+00
   1.798615e+01   3.312932e+01
   5.393044e+00   1.703955e+01
   1.817508e+01  -8.593386e+00
  -1.870529e+01  -1.185632e+01
  -2.589272e+01  -1.950548e+01
  -3.159270e+01  -3.988377e+01
   6.434621e+01   3.110860e+01
   2.172152e+01   2.468690e+01
  -2.071432e+01  -7.825246e+00
   1.358261e+00   9.186899e+00
  -3.448054e+01  -9.544799e-01
   4.229507e+01   2.587715e+01
