
 $NMID
 id='ANONYMOUS ', fmtdat='(2E16.6)'
 volume=1.0
 tramp=1.0
 $END
  -3.278592e+03  -1.773793e+02
  -1.994515e+03  -2.041605e+03
   7.766408e+02  -2.321658e+03
   1.818733e+03  -6.405819e+02
   8.303123e+02   5.285337e+02
  -5.236230e+02   5.368201e+02
  -7.261314e+02  -2.868598e+02
  -6.591793e+01  -8.664086e+02
   7.418869e+02  -5.902867e+02
   7.767123e+02   9.631930e+01
   3.239468e+02   7.561908e+02
  -2.802326e+02   7.517847e+02
  -5.761152e+02   4.445982e+01
  -3.396207e+02  -6.045385e+02
   2.116490e+02  -6.631566e+02
   5.546066e+02   1.296273e+01
   2.351849e+02   6.127273e+02
  -2.937934e+02   5.825458e+02
  -5.952536e+02   1.644340e+02
  -3.970787e+02  -3.270573e+02
  -1.455526e+01  -3.885094e+02
   3.104341e+02  -2.338346e+02
   2.104808e+02  -4.231881e+00
  -9.318629e+01   1.222336e+02
  -3.914408e+02  -1.001384e+02
  -1.175325e+02  -4.148547e+02
   4.328662e+02  -3.575854e+02
   7.467629e+02   9.569817e+01
   3.569009e+02   5.177912e+02
  -2.999019e+02   4.330500e+02
  -6.015305e+02  -4.361771e+01
  -3.198800e+02  -4.135505e+02
   1.505920e+02  -4.736679e+02
   4.555231e+02  -1.139552e+02
   3.994221e+02   2.519968e+02
   2.757553e+01   3.974135e+02
  -2.486592e+02   2.711765e+02
  -1.720701e+02  -1.960513e+02
   1.051585e+02  -3.890674e+02
   3.762859e+02   5.856292e+01
   1.563179e+02   5.892347e+02
  -3.126261e+02   5.202565e+02
  -5.300950e+02  -2.229279e+01
  -2.013309e+02  -3.989875e+02
   2.624982e+02  -2.622585e+02
   3.471097e+02   2.512731e+02
  -3.778432e+01   5.324740e+02
  -4.489672e+02   1.200463e+02
  -4.794415e+02  -3.819858e+02
  -1.109770e+02  -4.695155e+02
   2.954364e+02  -2.680582e+02
   5.640846e+02   7.692795e+01
   2.536481e+02   3.000843e+02
  -1.550302e+02   3.465737e+02
  -3.829481e+02  -6.793404e+00
  -1.850579e+02  -2.092441e+02
   4.917334e+01  -9.279484e+01
   9.291340e+01   1.097314e+02
  -1.512235e+02   1.713771e+02
  -3.125077e+02   8.975525e+00
  -1.370269e+02  -2.633443e+02
   1.937554e+02  -2.501161e+02
   2.807651e+02  -9.525657e+01
   2.069513e+02   7.306239e+01
   2.886913e+01   2.056822e+02
  -2.175989e+02   2.393551e+02
  -3.322397e+02   1.445749e+02
  -2.636742e+02  -1.465336e+02
  -2.480190e+01  -3.531469e+02
   8.208867e+01  -2.683611e+02
   5.978400e+01  -2.080027e+01
  -1.134547e+01  -2.656687e+01
   2.979872e+01  -9.943444e+01
   2.087702e+02  -1.091666e+02
   2.215609e+02   6.905130e+01
   1.352918e+02   2.529079e+02
  -4.976945e+01   2.036038e+02
  -1.934475e+02   2.789599e+01
  -1.620239e+02  -1.567082e+02
   2.116709e+01  -2.452015e+02
   1.594630e+02  -5.740115e+01
   2.210496e+02   1.465475e+02
   2.042302e+02   2.699670e+02
  -5.606695e+01   2.653428e+02
  -2.125752e+02   1.397547e+02
  -1.376316e+02   6.618493e+00
  -9.056695e+01   6.164575e+01
  -1.690515e+02   1.039011e+02
  -3.401657e+02  -4.547008e+01
  -2.968342e+02  -2.454739e+02
   3.829438e+01  -3.291940e+02
   2.888135e+02  -3.938205e+02
   4.408810e+02  -1.512247e+02
   3.009176e+02   6.858506e+01
   4.310107e+01   2.296225e+02
  -1.325037e+02   1.910804e+02
  -6.568857e+01   3.117162e+01
   3.946441e+01  -8.134748e+01
   1.408336e+02   5.428237e+01
   3.367844e+01   1.422698e+02
  -1.509548e+02   1.330838e+02
  -1.219891e+02  -8.415392e+01
   3.521028e+01  -1.569928e+02
   1.672540e+02   7.367508e+00
   1.529736e+02   2.036164e+02
  -1.563728e+01   2.926106e+02
  -2.185468e+02   1.133085e+02
  -2.842581e+02  -3.416945e+01
  -2.198904e+02  -2.026835e+02
  -9.844861e+01  -2.485919e+02
   6.991675e+01  -1.463543e+02
   1.615076e+02  -6.503405e+01
   3.749812e+01   4.847892e+01
  -8.937673e+01  -2.327916e+01
  -5.285491e+01  -9.734058e+01
   9.678616e+01  -6.169884e+01
   1.763841e+02   3.440137e+01
   3.013596e+01   3.277042e+01
  -6.317226e+01   1.155736e+01
  -7.381317e+01  -5.250913e+01
   7.925160e+01  -5.601027e+01
   2.247756e+02  -2.287153e+01
   2.599655e+02   1.090750e+02
   5.137822e+01   1.812194e+02
  -1.704719e+02   2.560283e+02
  -2.530607e+02   1.215848e+02
  -1.752201e+02  -3.867798e+01
   2.588671e+01  -1.189106e+02
   6.885084e+01   1.063439e+01
  -4.968965e+01   1.157396e+02
  -1.294578e+02   5.555067e+01
  -1.892581e+02  -8.764642e+01
  -8.095917e+01  -1.657772e+02
   9.118058e+01  -1.228145e+02
   1.763319e+02  -9.555735e+00
   7.030555e+01   2.593990e+01
  -4.165470e+01   1.817185e+01
  -7.422522e+01  -8.750894e+01
   5.123576e+01  -7.830780e+01
   1.565370e+02  -4.217496e+01
   1.919964e+02   1.050601e+02
   5.344166e+01   1.946114e+02
  -1.776353e+02   1.252649e+02
  -1.204130e+02  -5.130650e+00
  -5.108207e+01  -9.379344e+01
   4.865047e+01  -5.734198e+01
   9.447423e+01  -1.696808e+01
   2.277352e+00   4.668137e+01
  -8.463213e+00   3.447919e+01
  -3.676657e+00   3.476899e+01
   6.464476e+01   1.726607e+00
   9.061733e+01   6.981132e+01
   2.164737e+01   1.326494e+02
  -1.359304e+02   1.221285e+02
  -2.286319e+02   1.102810e+01
  -1.720510e+02  -1.081650e+02
  -2.011677e+01  -1.971623e+02
   1.071583e+02  -1.237137e+02
   1.224268e+02  -2.403979e+01
   8.108448e+01   5.260222e+01
   3.524757e+01   1.402650e+01
   8.201523e+01  -3.113632e+01
   1.102108e+02  -1.842155e+01
   2.891531e+01   4.174811e+01
   2.575466e+01   6.535014e+01
  -8.506703e+01   6.081315e+01
  -5.880999e+01  -6.529840e-01
   2.573483e+00  -8.522617e+01
   1.241837e+02  -7.630147e+01
   1.678120e+02   6.876165e+00
   9.349123e+01   2.007255e+02
  -1.187769e+02   2.243134e+02
  -2.321382e+02   1.225779e+02
  -2.608881e+02  -3.676999e+01
  -1.019694e+02  -8.521210e+01
  -1.833857e+01  -1.094181e+02
   9.985191e+01  -8.150416e+01
   6.568650e+01  -5.278411e+01
   3.169943e+01  -5.516095e+01
   9.888188e+01  -6.004735e+01
   9.661606e+01   5.405926e+01
   9.055913e+01   1.102190e+02
   3.662083e+01   2.280844e+02
  -3.637492e+01   1.241632e+02
  -1.315087e+02  -8.182274e+00
  -5.868802e+01  -1.424374e+02
   1.105182e+01  -1.395417e+02
   5.590054e+01  -6.088908e+01
   5.067883e+01  -1.547891e+01
   5.082327e+00   2.650256e+01
  -3.263527e+01   4.065774e+01
   6.733203e+00   1.974673e+01
   1.240375e+02   5.773898e+01
   4.445341e+01   4.567420e+01
  -1.839689e+01   3.633910e+01
  -1.434490e+02  -2.193688e+00
  -1.603066e+02  -7.577906e+01
  -1.159870e+01  -1.067421e+02
   1.226214e+02  -2.884458e+01
   1.544524e+02   1.368526e+01
   3.782640e+01   6.245374e+01
  -3.061823e+01   1.657104e+01
  -8.748674e+01  -1.174720e+01
   8.149536e+00  -6.871517e+01
   7.360102e+01  -7.347313e+01
   8.405280e+01   7.067396e+00
   5.011701e+01   6.896653e+01
   2.536649e+01   5.504693e+01
   2.728798e+01   1.797578e+01
   4.634991e+01   1.372268e+01
  -4.473103e+00   8.177967e+01
   6.642912e+00   1.422883e+02
  -1.030494e+02   1.343681e+02
  -1.763935e+02   3.536048e-01
  -7.404622e+01  -6.913331e+01
  -3.093706e+01  -1.098707e+02
   1.139325e+02  -3.083666e+00
   4.291197e+01   3.812618e+01
  -6.339180e+01   1.978105e+01
  -8.971982e+01  -2.195293e+01
  -3.125667e+01  -1.273442e+02
   9.404778e+01  -9.948798e+01
   1.423487e+02  -1.476728e+01
   1.534229e+02   6.177074e+01
   5.493886e+01   5.859167e+01
  -4.385965e+01   4.923783e+01
  -3.203174e+01  -2.836237e+00
   2.843407e+01  -7.303169e+01
   8.569600e+01   1.060953e+01
   2.334688e+01   1.063563e+02
  -9.287453e+01   1.556306e+02
  -1.306126e+02   5.273576e+01
  -9.808113e+01  -6.449468e+01
  -1.019904e+01  -1.576854e+02
   7.792098e+01  -1.229571e+02
   7.125607e+01   2.685137e+01
   5.575641e+01   1.234839e+02
  -5.259353e+00   7.127046e+01
  -2.399797e+01   2.315885e+01
  -3.960964e+01  -2.597264e+01
  -1.056810e+01  -5.745129e-01
  -4.065023e+01   1.206918e+01
  -2.140730e+01  -2.755553e+01
   1.048224e+01  -5.479162e+01
  -3.134266e+01  -8.341175e+01
   1.039962e+01  -1.730134e+01
   1.208914e+02   5.691821e+01
   1.151552e+02   6.940405e+01
   3.566700e+01   5.425706e+01
  -8.129718e+01   3.519026e+01
  -7.481827e+01  -4.027607e+00
  -2.046594e+01  -6.548176e+00
   2.817805e+01  -4.964337e+01
   1.496688e+01   6.329354e+00
  -3.686202e+01   5.562814e+01
  -3.181432e+00   2.849340e+01
   6.720990e+01   1.777120e+01
   9.477212e+01   5.654479e+01
  -1.006928e+01   7.556714e+01
  -7.890674e+01   9.947383e+01
  -1.282838e+02   8.227361e+01
  -1.172336e+02  -5.396627e+01
  -9.680464e+00  -1.764526e+02
   7.547129e+01  -7.083355e+01
   8.731482e+01  -3.645669e+01
   8.178742e+01  -1.973163e+01
   2.810008e+01   9.968365e+01
   6.863915e+00   9.636391e+00
   7.176797e+00   2.802736e+01
  -1.279165e+01   2.820871e+01
  -1.999801e+01   1.918980e+01
  -1.392248e+01   8.962265e+01
  -6.344952e+01  -9.560150e+00
  -4.472149e+01  -9.350841e+01
   3.654744e+01  -1.251658e+02
   7.000409e+01  -4.745697e+01
   1.074865e+02   5.173769e+01
   3.456602e+01   1.233858e+02
  -4.865352e+01   6.026095e+01
  -8.431319e+01  -3.276029e-02
  -5.476360e+01  -6.979769e+01
   6.321527e+01  -7.792985e+01
   2.087073e+01  -2.426234e+01
  -3.731324e+01   1.379639e+01
  -4.039738e+01   2.420368e+00
  -2.104266e+01  -2.942742e+01
   1.007914e+02  -6.711462e+01
   9.295334e+01  -1.000342e+02
   6.568301e+01  -2.110284e+00
   2.742475e+01   7.938581e+01
  -4.463885e+01   7.404813e+01
   1.280646e+01   4.003629e+00
   4.932359e+00  -6.166432e+01
   1.972539e+01  -5.589930e+00
   6.614722e+01   9.600791e+00
   2.103347e+01   3.133896e+01
  -3.149816e+01   3.604265e+01
   1.162570e+01  -1.668604e+01
  -2.723804e+01  -1.618043e+01
  -1.465238e+01  -9.736365e+00
   2.277669e+01   3.149239e+01
   3.880831e+00  -5.547937e+00
   1.384738e+01   4.342804e+00
   6.880124e-01  -3.392263e+01
   5.032726e+01  -3.725936e+01
   5.604122e+01   6.337709e+01
   7.318761e+00   5.976436e+01
  -1.182599e+01   2.449994e+01
  -4.867446e+01  -5.541267e+01
   6.928104e-01  -6.148925e+01
   7.081198e+01  -5.191169e+01
   1.200710e+02   6.866120e+00
   2.090722e+01   2.029800e+01
   8.300646e+00   3.297601e+01
  -4.891840e+01   3.399355e+01
  -4.906399e+01  -2.604208e+01
   9.812873e+00   4.724241e+00
   3.149641e+01   1.758596e+01
  -3.372251e+01   1.448285e+01
  -6.485108e+01  -1.109307e+01
