
 $NMID
 id='ANONYMOUS ', fmtdat='(2E16.6)'
 volume=1.0
 tramp=1.0
 $END
  -2.498982e+03   2.184369e+02
  -1.977823e+03  -7.585353e+02
  -4.131436e+02  -1.585853e+03
   7.307866e+02  -1.289757e+03
   7.223400e+02  -4.552071e+02
   1.559850e+02   1.276916e+02
  -3.118810e+02  -1.298834e+01
  -7.865729e+01  -4.464215e+02
   2.336752e+02  -4.698776e+02
   4.543518e+02  -1.466432e+02
   4.611680e+02   2.721717e+02
   1.898761e+02   4.808895e+02
  -1.502504e+02   1.990841e+02
  -1.830682e+02  -2.245617e+02
  -3.598233e+00  -4.550242e+02
   2.758017e+02  -1.063434e+02
   2.957755e+02   3.079367e+02
   4.208048e+01   5.543988e+02
  -2.962365e+02   2.952832e+02
  -3.922186e+02  -5.186368e+01
  -1.789157e+02  -2.400375e+02
   3.779611e+01  -2.342872e+02
   2.263116e+01  -1.047222e+02
  -1.737438e+02  -1.387774e+02
  -1.888248e+02  -3.115026e+02
   1.068908e+01  -3.198076e+02
   3.553066e+02  -1.892321e+02
   4.993000e+02   1.154035e+02
   1.957688e+02   1.884536e+02
  -2.039365e+02   1.887059e+02
  -3.993594e+02  -7.646541e+01
  -1.427069e+02  -2.347397e+02
   1.783864e+02  -3.330015e+02
   3.209364e+02  -1.679468e+02
   2.897969e+02   9.225631e+01
   1.323409e+02   1.927413e+02
   2.478044e+01   1.238287e+02
   9.902564e+01  -3.928010e+01
   1.184142e+02  -9.566494e+01
   1.703991e+02   1.309272e+02
  -1.023176e+01   3.710952e+02
  -1.362478e+02   3.211074e+02
  -1.993057e+02   3.144961e+01
  -8.929843e+01  -2.326303e+02
   8.500208e+01  -1.304244e+02
   1.296705e+02   1.682067e+02
  -9.944533e+01   2.918448e+02
  -3.291298e+02   3.773610e+01
  -4.315670e+02  -2.554490e+02
  -1.441632e+02  -3.768090e+02
   1.373311e+02  -2.290883e+02
   3.768637e+02  -3.589025e+01
   3.291126e+02   2.110698e+02
   2.308443e+01   1.147180e+02
  -2.104011e+02   1.577131e+02
  -1.818193e+02   3.182156e+01
  -4.619062e+00   3.621639e+01
   4.705044e+01   2.247076e+01
  -9.813404e+01   1.224824e+01
  -1.883029e+02   6.505340e+00
  -1.481260e+02  -1.275385e+02
   7.991161e+01  -2.344359e+02
   2.888927e+02  -1.379510e+02
   2.304451e+02   5.780166e+01
  -2.277331e+01   2.416263e+02
  -1.989824e+02   3.354536e+02
  -2.800227e+02   1.540277e+02
  -1.689330e+02  -9.865921e+01
  -6.311718e+01  -2.555723e+02
   7.153436e+01  -2.491649e+02
  -1.207722e+01  -1.333253e+02
   2.915266e+01  -1.054244e+02
   8.219187e+01  -8.795018e+01
   2.004341e+02  -8.138149e+01
   1.965002e+02   6.971302e+01
   9.669031e+01   1.870757e+02
  -5.883894e+01   1.381822e+02
  -1.333984e+02  -1.874448e+00
  -1.373176e+02  -1.626791e+02
   4.948653e+01  -2.164453e+02
   2.240338e+02  -9.008767e+01
   2.795435e+02   1.133681e+02
   1.756346e+02   2.292777e+02
  -3.539880e+01   2.506033e+02
  -1.257834e+02   1.631759e+02
  -1.256367e+02   6.637948e+01
  -1.349663e+02   5.321312e+01
  -2.297646e+02   3.784601e+01
  -4.610916e+02  -9.675190e+01
  -3.038258e+02  -2.275960e+02
   2.737095e+01  -4.046317e+02
   2.809311e+02  -3.399748e+02
   4.297506e+02  -1.267649e+02
   2.059569e+02   7.593426e+01
   2.735667e+01   1.775431e+02
  -4.985307e+01   1.628062e+02
   2.077971e+01   2.020739e+01
   6.162546e+01  -5.479010e+01
   5.048610e+01   6.381703e+01
   2.381898e+01   8.811733e+01
  -1.015880e+02   6.189738e+01
  -1.093870e+02  -5.368132e+01
   5.301939e+01  -9.938639e+01
   1.015524e+02  -9.555010e+00
   1.367387e+02   1.549924e+02
   1.791260e+01   2.577533e+02
  -1.608232e+02   1.864783e+02
  -2.566352e+02  -1.582671e+01
  -2.776949e+02  -2.012470e+02
  -8.006261e+01  -2.034222e+02
   1.055530e+02  -9.864973e+01
   9.780094e+01  -2.066603e+01
   2.600434e+01  -8.196796e+00
  -7.145983e+01  -5.970191e+01
   3.434759e+00  -7.085858e+01
   1.084121e+02  -9.117284e+01
   1.408639e+02  -3.368642e+01
   1.335973e+01   3.135247e+01
  -4.803557e+01   3.064330e+01
  -4.979807e+00  -8.943313e+01
   1.248985e+02  -8.954934e+01
   2.582572e+02  -3.664653e+00
   2.067909e+02   9.316820e+01
   2.285812e+01   2.295695e+02
  -1.257408e+02   2.610210e+02
  -2.007155e+02   8.701781e+01
  -1.276243e+02  -2.725505e+01
  -4.160440e-01  -8.485932e+01
   5.490061e+01   4.281212e+00
  -7.411888e+01   5.530749e+01
  -1.494406e+02   5.642787e+01
  -1.760064e+02  -1.015464e+02
  -5.592410e+01  -1.879415e+02
   7.640239e+01  -1.297688e+02
   1.167349e+02  -7.261243e+01
   5.961045e+01  -1.027380e+01
  -3.647987e+01   5.492899e+00
  -5.198311e+01  -6.777077e+01
   7.632568e+01  -9.232729e+01
   1.762203e+02  -2.024444e+01
   1.778102e+02   1.547496e+02
   1.925022e+01   1.803575e+02
  -9.150119e+01   1.551149e+02
  -1.519425e+02   7.658431e+01
  -4.508293e+01  -2.837291e+01
   8.114658e+01  -5.193068e+01
   4.872265e+01  -9.553461e+00
   2.468434e+01   8.081270e+00
  -2.305341e+01  -1.656793e+00
  -8.204909e+00   1.246578e+01
   4.913681e+01   7.475553e+00
   8.464741e+01   1.082862e+02
   2.923193e+01   1.747891e+02
  -1.421069e+02   1.079059e+02
  -1.983871e+02   2.154433e+01
  -1.776432e+02  -1.387268e+02
  -4.794802e+01  -1.881123e+02
   8.116503e+01  -7.923505e+01
   1.130979e+02  -9.515987e+01
   7.770861e+01  -2.561405e+00
   2.275027e+01   3.957889e+01
   3.333490e+01  -1.040039e+01
   9.517517e+01  -8.586542e+00
   7.071875e+01   3.844400e+01
  -6.864217e+01   7.951960e+01
  -9.338232e+01   9.544272e+01
  -1.592429e+02  -3.600293e+01
   3.456413e+01  -9.951376e+01
   1.383279e+02  -7.248014e+01
   1.630331e+02   7.177548e+01
   5.505840e+01   2.235296e+02
  -8.366702e+01   1.875889e+02
  -1.574457e+02   5.230043e+01
  -2.078736e+02  -5.469127e+01
  -6.130415e+01  -1.193134e+02
   3.734138e+01  -1.012069e+02
   4.241029e+01  -1.055284e+02
   4.134022e+01  -5.586982e+01
   6.389778e+01  -8.037244e+01
   7.247174e+01  -2.681392e+01
   1.461588e+02   5.214223e+01
   1.016519e+02   1.172207e+02
   6.996354e-01   1.845398e+02
  -6.554131e+01   1.783232e+02
  -1.340926e+02   3.784322e+01
  -1.298263e+02  -1.027243e+02
   3.213162e+01  -1.013995e+02
  -6.395561e-01  -6.326325e+01
   5.296209e+01  -6.387459e+00
   3.526462e+01   5.000155e+01
   2.257112e+01   3.002066e+01
   3.781742e+01   9.797525e+00
   1.075137e+02   2.153744e+01
   2.681665e+01   8.029651e+01
  -8.422025e+01  -3.858280e+00
  -1.301260e+02  -7.543178e+00
  -1.297120e+02  -5.642660e+01
  -1.443400e+01  -5.651680e+01
   9.006950e+01  -8.961147e+01
   1.195269e+02  -3.081086e+01
   3.733738e+01  -8.551279e+00
  -9.011436e+01   4.204967e+01
  -7.824098e+01  -1.874888e+01
  -2.861900e+01  -8.921950e+01
   5.938859e+01  -7.017544e+01
   7.245806e+01   8.017907e+00
   8.556244e+01  -2.695129e+01
   3.855083e+01  -1.604130e+01
   5.955311e+01  -3.358376e+01
   8.390232e+01   4.079041e+00
   2.720664e+01   1.004988e+02
  -1.719028e+01   1.125149e+02
  -1.364141e+02   1.196983e+02
  -1.923655e+02   2.549297e+01
  -1.056195e+02  -7.201008e+01
  -3.402054e+01  -1.388955e+02
   7.286045e+01  -6.601620e+01
   4.424038e+01   1.888056e+01
  -6.498348e+01   3.426354e+01
  -9.817776e+01   9.879780e+00
  -8.568005e+01  -1.220852e+02
   6.568805e+01  -9.448478e+01
   1.740967e+02  -6.830971e+01
   1.127050e+02   1.621622e+01
   2.257600e+01   4.367005e+01
  -9.230603e+01   3.818691e+01
  -3.679724e+01  -1.084728e+01
   2.765747e+01  -3.548217e+01
   8.454829e+01   1.442287e+01
   5.302647e+01   5.609689e+01
  -4.291329e+01   1.350110e+02
  -1.163684e+02   3.964359e+01
  -1.050454e+02  -4.593751e+01
  -2.413738e+01  -1.938932e+02
   4.424708e+01  -9.355396e+01
   7.910246e+01  -4.180255e+01
   8.353967e+01   6.409539e+01
  -4.191999e+00   8.566205e+01
  -5.175275e+01  -1.201313e+01
  -4.397357e+01  -9.846958e+00
   3.521865e+00   5.356272e+00
   1.628460e+01   3.968642e+00
  -4.786161e+01  -1.585456e+01
  -3.389622e+01  -3.151243e+01
  -1.921470e+01  -5.799554e+01
   2.977673e+01  -2.382851e+01
   1.374988e+02   3.121526e+01
   9.074779e+01   5.540089e+01
   4.632601e+01   2.724914e+01
  -5.663794e+01   9.315392e+00
  -7.818106e+01  -7.632495e+00
  -1.273538e+01  -3.659154e+01
   3.500329e+01  -2.181417e+00
   3.948570e+01  -1.515460e+01
  -3.106048e+01   2.803748e+01
  -1.700333e+01   3.209952e+01
   5.941123e+01  -2.702250e+01
   9.485421e+01   2.136472e+01
   4.916661e+01   7.011046e+01
  -7.416057e+01   1.430650e+02
  -1.491775e+02   5.899458e+01
  -1.232113e+02  -1.739158e+01
  -1.871030e+01  -1.474382e+02
   5.065205e+01  -1.844616e+02
   1.081854e+02  -8.858041e+01
   1.008440e+02   2.687180e+01
   1.078712e+01   1.880650e+01
   4.246468e+00  -1.017885e+01
   2.434022e+00   1.467751e+01
   1.914534e+01   4.075000e+01
   1.513939e+01   6.202886e+01
  -5.354412e+01   8.875551e+01
  -9.617838e+01   4.888340e+01
  -8.561741e+01  -7.558228e+01
  -7.928722e+01  -7.053739e+01
   8.534519e+01  -4.419686e+01
   8.475955e+01   4.480845e+01
   2.995767e+01   5.738097e+01
  -3.907928e+01   7.046597e+01
  -1.000593e+02  -6.699596e+00
  -6.342018e+01  -6.387498e+01
   4.113122e+01  -8.419005e+01
   4.237515e+01  -2.515058e+00
  -3.820799e+01   1.134148e+01
  -4.218960e+01   1.254688e+01
  -2.585545e+01  -2.714648e+00
   8.554033e+01  -9.149401e+01
   9.897340e+01  -1.300897e+01
   1.534023e+01   2.601623e+01
   1.657305e+01   4.929665e+01
  -5.473971e+01   9.726603e+01
  -4.600407e+01   3.119329e+00
  -5.806162e+01  -6.320497e+01
   4.668270e+00  -6.113627e+01
   1.457781e+01   1.177166e+01
  -3.384638e+00   4.566907e+01
  -8.220758e+00   4.161803e+01
  -4.347694e+00  -1.398108e+01
  -4.101577e+01  -1.735599e+01
  -1.310560e+01   5.403052e+01
   3.255371e+01   3.894338e+01
   3.898990e+01   1.117817e+01
  -2.211687e+01   1.130768e+01
   3.531360e+00   1.648529e+01
   5.502245e+01  -3.592165e+01
   5.123903e+01   2.854925e+01
   5.687733e+01   3.770580e+01
   1.879953e+01   3.218676e+01
  -2.194842e+01  -3.994978e+01
  -1.469716e+00  -2.431676e+01
   4.206263e+01  -5.326753e+01
   7.355231e+01   3.840942e+01
   6.059971e+01  -8.460418e+00
  -5.078863e+00   7.281703e+00
  -9.842063e+01  -2.194187e+01
  -1.046185e+00   1.148873e+01
   2.195500e+01   3.169308e+01
   4.751936e+00   1.820330e+01
  -5.759178e-01   2.781564e+01
  -5.529187e+01   3.426448e+01
