
 $NMID
 id='ANONYMOUS ', fmtdat='(2E16.6)'
 volume=1.0
 tramp=1.0
 $END
   3.057803e+03   1.945699e+02
   1.718407e+03   1.528724e+03
  -1.122969e+02   2.061899e+03
  -1.187016e+03   1.131711e+03
  -9.216273e+02  -1.230807e+02
   1.486536e+02  -2.285797e+02
   5.429964e+02   1.220207e+02
   7.813573e+01   6.985548e+02
  -5.312873e+02   5.451880e+02
  -6.197146e+02   6.034355e+01
  -3.764089e+02  -5.375175e+02
   8.441710e+01  -6.367541e+02
   3.853689e+02  -1.893649e+02
   3.114189e+02   4.678392e+02
  -1.445634e+02   5.055693e+02
  -4.320627e+02   8.277767e+01
  -2.856199e+02  -4.849485e+02
   1.897546e+02  -5.497047e+02
   4.055411e+02  -2.034602e+02
   4.124768e+02   1.714431e+02
   7.150665e+01   3.289752e+02
  -1.263724e+02   1.973314e+02
  -9.407929e+01   3.555827e+01
   1.778819e+02   3.681088e+01
   2.759703e+02   2.021582e+02
   2.131718e+01   3.120031e+02
  -3.615976e+02   1.825058e+02
  -5.828862e+02  -1.199474e+02
  -2.433729e+02  -3.492905e+02
   3.061368e+02  -2.125838e+02
   4.193373e+02   4.062339e+01
   2.087426e+02   2.951812e+02
  -2.165072e+02   3.500492e+02
  -4.035928e+02   1.658705e+02
  -2.854080e+02  -1.847457e+02
  -4.226588e+01  -3.433402e+02
   1.080419e+02  -1.601990e+02
   4.729602e+01   7.385943e+01
  -1.301638e+02   1.988953e+02
  -1.900364e+02  -7.947756e+01
  -1.063326e+02  -4.160183e+02
   2.117134e+02  -4.775958e+02
   3.474511e+02  -6.109623e+01
   1.779286e+02   3.301613e+02
  -1.741015e+02   1.929201e+02
  -2.275786e+02  -1.982138e+02
   5.891838e+01  -3.587870e+02
   4.189754e+02  -1.149700e+02
   4.758117e+02   2.863375e+02
   1.577451e+02   4.735634e+02
  -2.645618e+02   2.743502e+02
  -5.146431e+02  -9.433014e+01
  -3.123952e+02  -2.588002e+02
   8.893584e+01  -2.999924e+02
   3.016570e+02  -1.056956e+02
   2.247710e+02   6.552690e+01
   8.307464e+00   5.361622e+01
  -5.374533e+01  -5.323602e+01
   1.200043e+02  -6.027903e+01
   2.462417e+02   5.960542e+01
   1.469538e+02   2.508572e+02
  -1.576832e+02   1.543952e+02
  -2.629759e+02   9.205709e+01
  -2.215802e+02  -9.577599e+01
   3.146436e+01  -2.284799e+02
   2.591084e+02  -2.712106e+02
   2.734939e+02  -1.080595e+02
   1.568334e+02   9.638902e+01
   3.823833e+01   3.126976e+02
  -1.749033e+01   2.639727e+02
  -2.043365e+01   1.609715e+02
  -4.450250e+01   4.776060e+01
  -1.457749e+02   1.525663e+02
  -1.863948e+02   1.083937e+02
  -2.142252e+02  -9.043915e+01
  -9.096639e+01  -2.205250e+02
   5.492452e+01  -1.976621e+02
   1.530331e+02  -1.372256e+01
   1.043497e+02   2.096512e+02
   1.655541e+01   2.176620e+02
  -1.709638e+02   1.212334e+02
  -2.523458e+02  -1.518892e+02
  -1.450513e+02  -2.815634e+02
   3.870383e+01  -2.639007e+02
   1.777950e+02  -9.803190e+01
   1.382175e+02  -6.399719e+01
   1.275768e+02   2.393714e+01
   2.258036e+02   8.697350e+00
   3.533742e+02   6.277312e+01
   2.628237e+02   2.519680e+02
  -4.998306e+00   3.610249e+02
  -2.808529e+02   2.896005e+02
  -4.317564e+02   1.185176e+02
  -2.447395e+02  -6.930876e+01
  -1.529887e+01  -1.817675e+02
   8.994810e+01  -1.809808e+02
   3.912493e+01  -1.629374e+01
  -9.174830e+01   4.538511e+01
  -1.140299e+02  -1.658565e+01
  -1.149844e+01  -1.265561e+02
   9.286153e+01  -6.803824e+01
   9.118536e+01   2.878256e+01
   3.942596e+00   1.330905e+02
  -1.513580e+02  -1.012933e+01
  -8.138224e+01  -1.946658e+02
   1.157141e+01  -2.721232e+02
   1.953262e+02  -1.720653e+02
   2.752796e+02   6.279385e+01
   2.174888e+02   2.370084e+02
   6.519569e+01   2.418971e+02
  -8.671890e+01   1.429799e+02
  -1.710385e+02  -1.087086e+00
  -2.410217e+01  -2.163381e+01
   6.305392e+01   6.008278e+01
   3.456684e+00   1.203938e+02
  -1.184118e+02   8.054846e+01
  -8.557224e+01   3.279411e+00
  -2.214655e+01  -2.766789e+01
   2.843147e+01   1.622214e+01
   8.057580e+01   8.162230e+01
  -9.621925e+01   6.147064e+01
  -2.690003e+02  -1.924033e+01
  -2.471412e+02  -1.754270e+02
   3.487798e+01  -2.278334e+02
   1.846698e+02  -1.817111e+02
   2.432585e+02  -7.412855e+01
   1.283454e+02   6.203938e+01
  -4.787741e+01   7.724260e+01
  -5.404215e+01   1.231296e+01
   5.404477e+01  -9.617289e+01
   1.688693e+02  -2.601690e+01
   1.638416e+02   9.330673e+01
   4.248422e+01   1.508752e+02
  -3.794212e+01   1.174007e+02
  -8.943826e+01   7.718056e+00
  -4.134538e+01  -3.591882e+01
   6.901197e+01   3.056082e+01
   8.492666e+01   1.151235e+02
  -9.118284e+01   1.280503e+02
  -2.265295e+02  -3.460236e+01
  -1.532455e+02  -1.300623e+02
  -2.018865e+01  -1.673176e+02
   1.085765e+02  -8.658299e+01
   1.026307e+02   2.109290e+01
   2.039383e+01   1.093740e+02
  -5.189734e+01   6.174296e+01
  -6.958429e+01  -1.182524e+01
   5.507786e+01  -1.433183e+01
   3.992597e+01   2.051431e+01
  -3.478464e+01   1.308114e+00
  -7.664171e+01  -3.263618e+01
  -1.001925e+02  -6.106905e+01
  -6.877282e+01  -1.543304e+02
   8.767083e+01  -9.791517e+01
   2.017359e+02  -1.954598e+01
   1.602940e+02   1.536096e+02
   3.452515e+01   2.209139e+02
  -1.078675e+02   1.234931e+02
  -1.469907e+02   2.343684e+01
  -3.871531e+01  -6.828617e+01
  -7.817453e+01  -1.310242e+01
  -8.666442e+01   6.620870e+00
  -7.792551e+01   2.756387e+01
  -2.826890e+01  -7.776041e+01
   5.269313e+01  -8.404365e+01
   1.412492e+02  -6.251090e+01
   7.743973e+01   5.799431e+01
  -6.421668e+00   1.419339e+02
  -1.743838e+02   7.206223e+01
  -1.849791e+02  -3.049349e+01
  -7.571824e+01  -1.498563e+02
   8.853542e+01  -1.898321e+02
   2.041205e+02  -3.409255e+01
   2.109305e+02   1.096038e+02
   1.023683e+02   1.325129e+02
  -2.107410e+01   1.510735e+02
  -8.947658e+01   7.926769e+01
  -3.241743e+01   1.036315e+02
  -1.418418e+01   6.387089e+01
  -5.003149e+01   8.183701e+01
  -1.082474e+02  -2.369317e+01
  -1.095203e+02  -1.533087e+02
  -3.329542e+01  -2.532132e+02
   1.091880e+02  -1.540772e+02
   1.612416e+02   1.696083e+00
   1.164939e+02   1.404390e+02
  -3.289260e+00   1.574247e+02
  -4.327598e+01   5.298377e+01
  -2.789553e+01  -3.024312e+01
  -3.300259e+01  -1.287393e+01
   2.057211e+01  -5.301062e+01
   2.862731e+01   1.468368e+01
  -7.149817e+01  -1.010537e+01
  -5.804816e+01  -2.288182e+01
   8.245011e+01  -5.829274e+01
   1.342029e+02   1.466939e+01
   1.280817e+02   5.768918e+01
   9.867448e+00   7.108462e+01
  -1.454915e+02   1.754511e+01
  -1.367911e+02  -5.363578e+00
  -3.893651e+01  -6.309971e+01
   9.128838e+01  -4.476138e+01
   4.956512e+01  -8.955067e+00
   1.388931e+01   6.656304e+01
  -3.238127e+01   4.401658e+01
  -5.905706e+01  -2.126573e+01
  -6.298077e+01  -5.995202e+01
  -3.731461e+01  -3.425135e+00
  -4.406206e+01   7.614211e+00
  -1.920014e+01  -3.266023e+01
  -4.119568e+01  -1.266526e+02
   1.663352e+01  -1.580972e+02
   1.165605e+02  -1.208646e+02
   1.596523e+02  -5.752525e-03
   1.176434e+02   9.155241e+01
  -3.540129e+01   1.265397e+02
  -1.098075e+02   5.707459e+01
  -4.458591e+01  -1.464492e+01
   7.317417e+01  -2.816041e+01
   1.211627e+02   6.891814e+01
   1.931962e+01   9.872339e+01
  -9.691200e+01   6.955393e+01
  -1.726339e+02   5.332779e+01
  -1.060790e+02  -6.054888e+01
  -4.844005e+00  -7.236035e+01
   1.854457e+01  -2.644133e+01
   3.216328e+01   2.704002e+01
  -4.673250e+01   1.477028e+01
  -7.438586e+01   1.679415e+01
  -7.361130e+00  -9.876638e+01
   1.131154e+02  -1.319214e+02
   1.630270e+02  -6.865505e+01
   1.252533e+02   7.966057e+01
   1.560449e+01   1.517859e+02
  -7.741196e+01   1.459142e+02
  -1.102546e+02  -6.562502e+01
  -4.816551e+01  -1.241703e+02
  -4.123345e-01  -5.856104e+01
   3.003139e+01   1.568417e+01
   8.630618e+01   1.035881e+01
   5.851972e+00   1.706130e+01
  -3.269891e+01  -3.118742e+01
   4.818432e+00  -4.765457e+01
   1.986436e+01   6.178966e+01
   4.592541e+01   1.391313e+02
  -4.135962e+01   7.729504e+01
  -8.892392e+01   3.372342e+00
  -1.038886e+02  -4.862255e+01
  -1.577237e+00  -1.504002e+01
   1.664858e+01  -2.184100e+01
   4.979335e+01   4.358151e+01
   1.841709e+00   2.003628e+01
  -1.243959e+00  -1.874579e+01
  -2.742577e+01   1.916910e+01
   3.410239e+01  -6.091838e+00
  -4.080004e+01   1.825701e+01
  -6.725829e+01   1.145046e+01
  -4.920482e+01  -3.970739e+01
  -4.320176e+01  -7.830295e+01
   7.235308e+01  -9.580307e+01
   1.553657e+02  -2.068543e+01
   1.129812e+02   7.327721e+01
   6.071094e+00   1.198379e+02
  -7.730306e+01   1.243032e+02
  -1.157267e+02   4.904901e+01
  -8.428494e+01  -4.087492e+00
   3.067379e+01  -4.046011e+01
  -3.200399e+00  -1.158369e+01
  -2.409849e+01  -4.859428e+01
  -2.377651e+01  -5.040472e+01
  -4.715091e+01  -8.975761e+01
   3.202049e+01  -6.705352e+01
   5.201363e+01   2.335298e+00
   6.735455e+01   8.601354e+01
  -2.080110e+01   1.177902e+02
  -4.360175e+01   4.735634e+01
  -8.412038e+01  -8.252760e+01
  -7.543639e+01  -6.880944e+01
   1.989536e+01  -6.829875e+01
   4.948866e+01   1.817861e+01
   2.588862e+01   3.642248e+01
  -4.196877e+01   8.922316e+01
  -3.873019e+01   5.532633e+01
   3.984561e+01  -2.687570e+01
   3.639328e+01  -8.787087e-01
   4.192816e+00   1.632713e+01
  -5.448649e+01   3.772648e+01
  -9.687290e+01   1.874015e+01
  -6.768229e+01  -8.368779e+00
  -4.843987e+00  -7.648439e+01
   7.271203e+01  -5.848510e+01
   5.297832e+01  -1.872884e+01
   4.989274e+01   6.396799e+01
  -2.611937e+01   2.575067e+01
  -4.651911e+01   1.949086e+01
  -2.786197e+01  -3.356747e+01
  -1.448048e+01   2.006062e+01
   1.877011e+00   1.970154e-01
   4.414877e+01   3.422033e+01
   4.714572e+01  -5.521136e+00
   9.777495e+00  -1.661387e+01
  -1.793100e+01   7.844161e+01
  -1.225806e+01   5.122744e+01
  -1.161226e+01   8.742628e+01
   3.715400e+00  -1.599882e+01
  -9.685838e+00  -4.723050e+01
   9.245061e+00  -2.387729e+01
   3.955917e+01  -3.969612e+01
   5.346749e+00   2.489702e+01
   2.097158e+01   5.781855e+01
  -7.936382e+01  -8.174189e+00
  -6.182857e+01  -1.602455e+01
   8.346163e+00  -6.446202e+01
   4.230916e+01  -1.975036e+01
   3.637127e+01   6.339290e+00
   5.638334e+01   1.869699e+01
  -3.937547e+01  -1.167030e+01
  -3.829835e+01  -6.157381e+01
   2.999964e+01   3.197731e+01
   7.975654e+01  -1.584078e+01
