
 $NMID
 id='ANONYMOUS ', fmtdat='(2E16.6)'
 volume=1.0
 tramp=1.0
 $END
  -2.704159e+03  -1.366662e+02
  -1.497879e+03  -1.549439e+03
   4.893740e+01  -1.473434e+03
   8.419455e+02  -9.398943e+02
   5.743096e+02  -8.373554e+01
  -5.891422e+01   9.968297e+01
  -2.927377e+02  -8.673777e+01
  -2.337800e+01  -4.752671e+02
   3.538530e+02  -4.194918e+02
   4.941615e+02  -6.816025e+01
   2.943412e+02   4.060272e+02
  -2.980028e+01   5.015390e+02
  -2.745097e+02   1.114812e+02
  -1.776174e+02  -3.390028e+02
   1.307599e+02  -4.120243e+02
   3.299819e+02  -2.691370e+01
   2.437531e+02   4.318316e+02
  -1.105167e+02   4.867367e+02
  -3.524442e+02   2.508632e+02
  -3.504688e+02  -1.853680e+02
  -7.658260e+01  -2.896457e+02
   1.059393e+02  -2.044452e+02
   5.681077e+01  -1.370048e+01
  -1.420829e+02  -1.120048e+01
  -2.819742e+02  -2.229539e+02
   7.186458e+00  -3.143023e+02
   4.589137e+02  -2.020045e+02
   5.276213e+02   1.582645e+02
   1.851080e+02   2.719930e+02
  -2.951662e+02   2.282434e+02
  -4.163536e+02  -4.899455e+01
  -1.901359e+02  -3.378025e+02
   2.117790e+02  -3.083365e+02
   3.540701e+02  -5.829798e+01
   2.528814e+02   1.327914e+02
   5.408614e+01   2.821591e+02
  -8.029238e+01   6.518434e+01
   4.527842e+01  -1.453264e+02
   1.893643e+02  -1.120604e+02
   2.063398e+02   1.294148e+02
  -1.633850e+01   4.470552e+02
  -2.369213e+02   4.326083e+02
  -2.741138e+02  -3.838313e+00
  -1.013339e+02  -3.060457e+02
   1.399834e+02  -1.219702e+02
   1.210766e+02   2.685844e+02
  -4.741867e+01   2.553100e+02
  -3.378156e+02   4.191496e+01
  -4.218092e+02  -2.114904e+02
  -1.669484e+02  -3.925930e+02
   2.447823e+02  -2.136978e+02
   4.444496e+02   6.333107e+01
   2.050156e+02   2.358820e+02
  -6.856269e+01   1.654796e+02
  -2.164376e+02   3.620259e+01
  -1.280971e+02  -3.401970e+01
  -2.328113e+01  -2.638719e+01
   5.377073e+01   3.407234e+01
  -8.356110e+01   5.877840e+01
  -1.939384e+02  -6.211276e+01
  -6.169850e+01  -1.759362e+02
   1.119928e+02  -1.658610e+02
   2.785083e+02  -1.520614e+02
   2.504894e+02   4.808037e+01
  -3.370444e+01   2.665677e+02
  -2.488333e+02   2.846204e+02
  -2.523285e+02   1.149170e+02
  -1.849726e+02  -1.747368e+02
  -3.767803e+01  -2.670877e+02
  -6.275742e+00  -2.359639e+02
  -2.329403e+01  -1.125996e+02
   1.593846e+01  -7.767763e+01
   9.102547e+01  -1.378064e+02
   1.738772e+02  -9.147605e+00
   1.779649e+02   8.257053e+01
   1.066871e+02   1.589070e+02
  -2.082049e+01   1.978656e+02
  -1.900699e+02  -1.333922e+01
  -1.406654e+02  -1.878444e+02
   1.524962e+01  -2.104285e+02
   2.344440e+02  -1.006547e+02
   2.885523e+02   1.082901e+02
   1.727890e+02   2.420055e+02
  -2.441307e+01   2.416829e+02
  -1.477928e+02   1.100673e+02
  -5.116860e+01   3.710514e+01
  -7.284832e+01   4.551260e+01
  -1.587937e+02   6.382157e+01
  -3.626718e+02  -2.334822e+01
  -2.361235e+02  -2.320324e+02
   2.500263e+01  -3.500635e+02
   2.781654e+02  -3.341818e+02
   3.727909e+02  -1.763771e+02
   2.579635e+02   8.062721e+01
   2.077427e+01   1.976490e+02
  -8.436734e+01   1.688673e+02
  -7.965299e+00  -7.137668e+00
   7.976609e+01  -2.762677e+00
   8.652972e+01   3.831823e+01
   5.377997e+01   1.236351e+02
  -9.812133e+01   8.040984e+01
  -4.337140e+01  -6.947117e+01
  -7.126011e+00  -9.261153e+01
   1.061721e+02  -1.264984e+01
   1.008657e+02   1.830466e+02
   4.714873e+01   2.155231e+02
  -2.124734e+02   1.569506e+02
  -3.455964e+02  -6.873201e+01
  -1.977453e+02  -2.203181e+02
  -7.940238e+01  -2.471727e+02
   1.076732e+02  -9.982291e+01
   1.523670e+02  -1.508222e+01
   5.402418e+01   5.452098e+01
  -6.451121e+01  -5.769476e+01
  -2.990697e+01  -7.633704e+01
   1.075110e+02  -5.015096e+01
   9.306550e+01   3.875972e+01
   4.401665e+01   9.736863e+01
  -5.195794e+01  -1.054258e+01
  -1.265280e+01  -7.666026e+01
   7.952934e+01  -4.975613e+01
   2.387838e+02   1.645297e+01
   1.904537e+02   1.516505e+02
   3.505781e+01   2.679876e+02
  -1.660115e+02   2.257109e+02
  -2.128391e+02   8.907637e+01
  -7.988734e+01  -3.045070e+00
   4.579824e+01  -7.437614e+01
   6.083740e+01   4.212167e+01
  -4.681489e+01   5.408149e+01
  -1.215513e+02  -5.232243e+00
  -1.793951e+02  -9.448325e+01
  -5.129449e+01  -1.163124e+02
   8.793169e+01  -9.666635e+01
   5.403396e+01  -1.772271e+01
   3.622857e+00   1.067836e+01
  -2.551737e+01  -9.004936e+00
  -5.653273e+00  -1.469845e+02
   8.207296e+01  -8.711797e+01
   1.606766e+02  -1.410908e+01
   1.478848e+02   1.188967e+02
   2.898327e+01   1.886447e+02
  -1.205887e+02   1.014872e+02
  -1.724101e+02   2.039432e+01
  -5.232109e+01  -2.651482e+01
   5.895609e+01  -9.173079e+01
   5.368190e+01  -3.303866e+01
  -7.946377e+00   3.766287e+01
  -4.647903e+01  -2.382827e+01
   1.545915e+01  -5.547574e+01
   3.497107e+01  -1.850406e+01
   9.971344e+01   4.859928e+01
   7.596052e+00   1.441098e+02
  -9.524762e+01   5.834027e+01
  -1.684977e+02  -2.669918e+01
  -1.517622e+02  -1.141064e+02
  -6.971566e+00  -1.571024e+02
   2.947166e+01  -1.301660e+02
   1.099196e+02  -3.525471e+01
   1.046070e+02   6.966925e+01
   7.075255e+01   2.957962e+01
   4.706697e+01   1.081261e+01
   7.470298e+01   8.816115e+00
   4.106097e+01   4.633323e+01
  -1.507899e+01   8.926234e+01
  -1.172113e+02   5.669603e+01
  -8.446565e+01  -2.116036e+01
   3.237649e+01  -1.297275e+02
   1.494628e+02  -1.010941e+02
   1.342827e+02   6.692338e+01
   8.060448e+01   1.621988e+02
  -5.753502e+01   1.939892e+02
  -2.240694e+02   6.567006e+01
  -2.356934e+02  -6.977988e+01
  -5.080670e+01  -1.395998e+02
   3.415825e+01  -1.443030e+02
   6.862204e+01  -6.536204e+01
   8.426024e+01  -5.215200e+01
   7.983870e+01  -8.526618e+01
   4.081160e+01  -2.901495e+01
   1.049457e+02  -2.889341e+00
   1.276303e+02   1.324981e+02
  -8.571963e+00   1.760435e+02
  -7.980998e+01   1.397070e+02
  -1.265140e+02  -3.737428e+01
  -1.117432e+02  -9.324256e+01
  -8.455223e+00  -1.376772e+02
   9.634230e+01  -9.312138e+01
   4.934828e+01   2.784098e+01
  -2.741100e+01   4.954719e+01
  -4.028184e+01  -1.531229e+01
   4.827860e+01  -1.800584e+01
   1.009935e+02   3.718283e+01
   1.760312e+01   5.194232e+00
  -6.144402e+01   5.589819e+01
  -1.433738e+02   2.030688e+01
  -1.110776e+02  -7.685860e+01
   1.414413e+01  -9.529675e+01
   1.011698e+02  -3.247604e+01
   1.302342e+02   9.286544e+00
   4.523439e+01   2.514987e+01
  -3.321800e+01   3.065423e+01
  -5.208381e+01  -1.696918e+01
  -2.511348e+01  -2.632704e+01
   5.447306e+01  -4.442714e+01
   1.295379e+01   6.633601e+00
   4.620212e+01   4.625453e+01
   5.454900e+01   1.845743e+01
   2.927367e+01  -6.508358e+00
   7.522961e+01  -1.035009e+01
   6.530904e+01   6.462335e+01
  -3.755310e-01   1.410842e+02
  -1.191245e+02   1.592967e+02
  -1.343966e+02  -3.892168e+00
  -7.557614e+01  -8.340845e+01
   5.490397e+00  -1.596210e+02
   9.133429e+01  -8.288912e+01
   6.812485e+01  -8.591151e+00
  -8.470209e+01   2.718092e+01
  -9.558805e+01  -4.469613e+01
  -1.088253e+02  -7.274203e+01
   2.106921e+01  -1.348981e+02
   1.223064e+02  -4.533158e+01
   1.302861e+02  -1.727150e+01
   4.437232e+00   9.751547e+01
  -9.144644e+01   6.299449e+01
  -6.024727e+01  -7.196888e+00
   6.134121e+01  -2.771619e+01
   1.163564e+02  -8.312333e-01
   4.732285e+01   4.805469e+01
  -2.868625e+01   1.240376e+02
  -1.397675e+02   7.119727e+01
  -8.069798e+01  -7.952564e+01
   5.527150e-01  -1.507190e+02
   1.004728e+02  -6.390937e+01
   9.922708e+01   2.406133e+01
   3.179925e+01   1.100420e+02
  -3.142001e+01   1.153125e+02
  -9.317712e+01   2.027401e+01
  -2.175924e+01  -6.628116e+01
   2.517409e+00  -5.342105e+00
  -2.128783e+01  -3.222034e+00
  -1.734454e+01  -5.563882e+00
  -5.798350e+01  -5.595468e+01
  -5.142670e+01  -1.071669e+02
   5.612628e+01  -8.011445e+01
   1.077360e+02  -5.748509e+00
   6.715331e+01   2.509256e+01
   2.032312e+01   3.092053e+01
  -8.017733e+01  -1.634290e+01
  -7.311222e+01   5.387535e+00
  -3.019330e+01  -1.187050e+01
   3.774554e+01  -3.422651e+01
   4.851817e+01  -3.573011e+00
   1.332966e+01   5.849140e+00
  -8.092445e+00   1.335433e+01
   4.167737e+01  -1.648819e+01
   9.288042e+01   1.805842e+01
   9.767185e+00   5.820105e+01
  -5.897002e+01   1.056501e+02
  -1.668094e+02   4.135051e+01
  -7.823561e+01  -3.783727e+01
   5.684185e+00  -1.248149e+02
   3.427466e+01  -1.348087e+02
   5.757504e+01  -7.056224e+01
   7.519537e+01   1.878030e+01
   2.750710e+01   4.032695e+01
   2.186291e+00   1.360426e+00
   3.190943e+01  -6.304913e+00
   3.403546e+01   1.699680e+01
   3.211300e+01   9.607623e+01
  -7.652879e+01   8.578846e+01
  -7.281146e+01  -1.512116e+01
  -8.681651e+01  -1.194846e+02
  -4.192105e+00  -1.138114e+02
   5.164364e+01  -2.639782e+01
   9.966446e+01   3.321140e+01
   1.052769e+01   4.467629e+01
  -8.460301e+01   3.700402e+01
  -8.254974e+01  -4.341306e-01
  -3.522552e+01  -6.161510e+01
   4.093991e+01  -8.238955e+01
   4.182962e+01   1.441114e+01
  -4.772006e-01   8.113808e+00
  -5.654787e+01  -1.249748e+00
  -1.809017e+00   1.016888e-01
   5.607861e+01  -5.149089e+01
   1.382934e+02  -3.701157e+01
   5.593535e+01   3.955230e+01
  -1.315049e+01   7.991776e+01
  -8.060427e+00   8.482500e+01
  -1.754589e+01   5.198159e+01
  -2.046737e-01  -4.955050e+01
   2.309620e+01  -5.782402e+01
   6.790314e-01   3.038951e+01
   1.690736e+01   5.790041e+01
  -2.516359e+01   2.761718e+01
  -1.251653e+01   3.364510e+01
   1.112649e+00  -2.435311e+01
  -2.641186e+01  -2.580780e+01
  -2.667042e+01   6.883638e+01
  -7.445794e+00  -3.272754e+01
  -1.918445e+01  -1.324429e+01
   6.536967e-01  -4.526622e+01
   3.497863e+01   2.086003e+01
   2.336981e+01   1.925704e+01
   5.946399e+01   7.549618e+01
  -4.756436e+01   2.280362e+01
  -3.948939e+01  -2.314113e+01
  -6.302690e+01  -5.702675e+01
   6.096801e+01  -2.962521e+01
   5.372492e+01   2.316371e+01
  -3.858215e+00   2.128548e+01
  -4.733631e+01   5.555537e+01
  -3.828417e+01   4.018086e+01
  -2.406009e+01   1.725127e+01
   1.838662e+01   1.035982e+00
   3.594435e+01   3.134629e+00
  -2.676137e+01   3.172345e+00
  -3.943322e+01  -1.384446e+01
