
 $NMID
 id='ANONYMOUS ', fmtdat='(2E16.6)'
 volume=1.0
 tramp=1.0
 $END
   2.820485e+03   2.455363e+02
   1.256084e+03   1.610500e+03
  -3.875841e+02   1.431254e+03
  -1.123535e+03   5.314553e+02
  -3.949110e+02   1.463498e+01
   1.443679e+02  -2.324127e+02
   2.794422e+02   2.008652e+02
  -5.386239e+01   5.455676e+02
  -4.337544e+02   4.729458e+02
  -5.649486e+02  -1.606431e+00
  -2.158809e+02  -4.681374e+02
   1.090776e+02  -5.009414e+02
   2.715078e+02  -6.511572e+01
   1.907916e+02   3.422645e+02
  -1.789864e+02   4.067078e+02
  -3.114034e+02  -2.508334e+01
  -1.023872e+02  -3.918632e+02
   2.038759e+02  -4.565851e+02
   3.849039e+02  -1.098225e+02
   2.750930e+02   1.842690e+02
   4.617387e+01   2.954943e+02
  -1.800128e+02   1.484716e+02
  -6.987831e+01   1.182041e+01
   1.580273e+02  -3.822448e+01
   2.949885e+02   1.987134e+02
   3.741138e+01   3.438126e+02
  -3.664251e+02   1.739367e+02
  -5.171642e+02  -1.253386e+02
  -1.467559e+02  -3.134437e+02
   3.211088e+02  -1.918553e+02
   4.587462e+02   1.333462e+02
   1.427984e+02   3.510485e+02
  -2.250048e+02   2.796000e+02
  -3.671711e+02   7.861791e+01
  -2.633536e+02  -2.021930e+02
   1.480889e+01  -2.373039e+02
   1.198794e+02  -9.885651e+01
   2.347174e+01   1.312639e+02
  -2.102447e+02   1.830400e+02
  -2.682520e+02  -1.086593e+02
  -5.088136e+01  -4.757790e+02
   2.226836e+02  -3.540574e+02
   2.878921e+02   1.665503e+01
   2.883725e+01   3.503752e+02
  -1.903067e+02   9.569685e+01
  -1.418783e+02  -2.450362e+02
   1.115434e+02  -2.657029e+02
   3.221005e+02   2.843000e+01
   3.639088e+02   3.451577e+02
   6.793307e+01   3.848472e+02
  -2.975129e+02   1.907614e+02
  -3.661904e+02  -4.761685e+01
  -2.041505e+02  -2.582344e+02
   5.575223e+01  -2.064962e+02
   2.689616e+02  -3.067412e+01
   7.098015e+01   3.922916e+01
  -3.007223e+01   4.772465e+00
  -5.957089e+01  -8.170098e+01
   9.039387e+01  -8.741256e+01
   2.063901e+02   3.347939e+01
   1.167851e+02   1.686808e+02
  -1.261684e+02   1.886030e+02
  -2.154454e+02   9.481408e+01
  -1.582195e+02  -1.015063e+02
  -2.261031e+00  -2.183318e+02
   2.144724e+02  -2.900973e+02
   2.741422e+02  -1.574332e+02
   1.882318e+02   1.360525e+02
   1.521173e+01   3.332575e+02
  -6.433929e+01   1.736805e+02
  -1.172104e+01   1.326132e+02
   8.616859e+00   4.562533e+01
  -9.176219e+01   8.273788e+01
  -1.917968e+02   4.245598e+01
  -2.097890e+02  -9.593149e+01
  -7.944938e+01  -2.059857e+02
   5.036519e+01  -1.664089e+02
   1.394529e+02   2.067350e+01
   1.196038e+02   1.374338e+02
  -1.047747e+02   2.290361e+02
  -2.393800e+02   4.032700e+01
  -1.973533e+02  -1.563546e+02
  -1.003045e+02  -2.799458e+02
   9.488202e+01  -1.814733e+02
   1.029316e+02  -1.188777e+02
   9.967810e+01  -7.242090e+01
   7.588833e+01  -1.015267e+02
   2.235107e+02  -7.565640e+01
   3.205551e+02   9.886938e+01
   2.040556e+02   2.620475e+02
   7.931634e+00   3.364300e+02
  -2.479335e+02   2.421374e+02
  -3.384179e+02   9.994232e+01
  -2.252428e+02  -1.337871e+02
   2.018522e+01  -2.187532e+02
   9.308133e+01  -1.580930e+02
  -2.583054e+00  -3.229467e+00
  -7.670252e+01   3.906857e+01
  -7.747079e+01  -2.363210e+01
  -1.281349e+01  -1.272037e+02
   1.589996e+02  -1.077005e+02
   1.231063e+02   7.594229e+01
  -5.739354e+01   1.216146e+02
  -1.150698e+02  -2.462318e+01
  -1.132866e+02  -1.979164e+02
  -1.572522e+01  -2.174276e+02
   1.809367e+02  -1.347911e+02
   2.286525e+02   8.713423e+01
   1.760930e+02   1.891226e+02
   5.029194e+01   2.313992e+02
  -1.308726e+02   4.668039e+01
  -9.014231e+01   3.680593e+01
  -4.121225e+01  -1.445051e+01
   2.187429e+01   4.086950e+01
  -8.393570e+00   9.226524e+01
  -1.104516e+02   4.762535e+01
  -1.283299e+02  -1.217806e+01
  -2.397287e+01  -3.526308e+01
   4.481572e+01   3.962660e+01
   1.611620e+01   8.555530e+01
  -1.164599e+02   6.625676e+01
  -2.357105e+02  -7.857216e+00
  -1.610579e+02  -1.199761e+02
  -2.247912e+00  -2.208257e+02
   1.694641e+02  -2.064571e+02
   2.030098e+02  -6.220365e+01
   1.232712e+02   1.841593e+01
  -4.771537e+01   9.584789e+01
  -4.530098e+00  -3.569829e+01
   5.007227e+01  -6.229554e+01
   1.482576e+02  -2.316045e+01
   1.413212e+02   7.106463e+01
   1.241556e+01   1.653549e+02
  -1.081453e+02   1.072834e+02
  -9.236674e+01  -3.373345e+01
  -1.198551e+01  -5.114335e+01
   4.186770e+00  -1.955701e+01
   4.594110e+01   9.880638e+01
  -9.672804e+01   1.031849e+02
  -1.526910e+02   3.609617e+01
  -1.306088e+02  -1.127396e+02
   8.090445e+00  -1.879647e+02
   6.459672e+01  -7.007912e+01
   1.091913e+02   1.788429e+01
   3.165025e+01   7.820792e+01
  -2.581836e+01   8.049383e+01
  -6.455522e+01   5.749629e+01
   3.609251e+01  -4.526348e+01
   4.370596e+01   2.066312e+01
  -2.498266e+01   1.394860e+01
  -8.774375e+01   1.441028e+00
  -6.338960e+01  -7.787311e+01
   2.995447e+01  -1.193434e+02
   1.062445e+02  -1.094503e+02
   1.832224e+02   4.649617e+01
   1.486106e+02   1.530136e+02
   3.834595e+01   1.609693e+02
  -3.384188e+01   8.638771e+01
  -8.618580e+01   5.791891e+01
  -3.033272e+01  -2.385772e+01
  -4.590861e+01  -1.081538e+01
  -7.396255e+01  -9.176897e+00
  -5.504392e+01  -3.012027e+01
  -4.035244e+01  -6.607966e+01
   1.089551e+01  -1.145643e+02
   1.060795e+02  -9.190003e+01
   8.769613e+01   6.545826e+00
  -1.574004e+00   1.048111e+02
  -1.175831e+02   9.617138e+01
  -1.603558e+02  -3.850658e+01
  -7.376526e+01  -2.014440e+02
   1.195259e+02  -1.152380e+02
   1.335559e+02  -5.640731e+01
   1.780248e+02   9.588331e+01
   6.857169e+01   1.162009e+02
  -2.163178e+01   1.254502e+02
  -6.190064e+01   7.206601e+01
  -9.106279e+01   1.039458e+02
  -3.054669e+01   4.076094e+01
  -2.093852e+01   4.434975e+01
  -1.104374e+02  -1.977360e+01
  -6.126693e+01  -9.536412e+01
  -2.861409e+01  -2.354857e+02
   5.423684e+01  -1.066175e+02
   1.532996e+02   1.942116e+00
   5.682623e+01   1.230477e+02
   3.876880e-01   1.288228e+02
  -9.348617e+01   9.928520e+01
  -2.623183e+01  -4.074209e+01
   2.199570e+01  -5.331229e+01
  -1.372504e-01  -3.967822e+01
   4.806819e+00  -1.248389e+01
  -4.377535e+01  -6.805344e-01
  -6.966382e+00  -3.515011e+01
   8.756998e+01  -3.417046e+01
   1.090801e+02   4.153977e+01
   9.642890e+01   4.118526e+01
  -1.902524e+01   7.410507e+01
  -1.205670e+02   9.123611e+01
  -1.167126e+02   1.187415e+00
  -2.457683e+01  -4.732515e+01
   7.241514e+01  -7.152139e+01
   4.765706e+01   2.176113e+01
   2.142696e+01   6.707556e+01
  -2.994229e+01   2.196356e+01
  -2.372808e+01   1.897161e+01
  -4.402111e+01  -8.583244e+00
  -2.231105e+01  -2.671333e+01
  -9.305618e+01  -2.834215e+01
  -4.943418e+01   1.150189e+00
  -5.529169e+01  -7.506534e+01
   3.335055e+01  -9.032500e+01
   1.013034e+02  -1.467849e+02
   1.068640e+02   7.795980e+00
   8.837330e+01   8.345843e+01
   1.660019e+01   1.402230e+02
  -6.890899e+01   6.650480e+01
  -5.830975e+01  -1.357819e+01
   5.122978e+01  -2.591400e+01
   1.084340e+02   5.282583e+00
   7.451086e+01   7.667967e+01
  -8.412877e+01   7.131004e+01
  -1.449327e+02   3.076728e+01
  -7.555203e+01  -4.782017e+01
   1.807266e+01  -6.538994e+01
   7.320011e+01  -5.040327e+01
   3.246593e+01   3.572076e+01
  -2.768679e+01  -2.710401e+00
  -7.122494e+01  -1.942264e+01
  -3.140946e+01  -8.469814e+01
   6.534570e+01  -1.134739e+02
   9.144136e+01  -5.342920e+01
   9.207578e+01   7.208786e+01
  -1.646889e+01   1.334948e+02
  -5.412857e+01   1.173825e+02
  -1.075743e+02  -3.655010e+01
  -5.698030e+01  -7.854746e+01
   1.110024e+01  -4.909938e+01
   3.995516e+01   1.976500e+01
   1.506224e+00   2.679214e+01
  -1.944366e+01   1.022081e+01
   1.653516e+01   1.908333e+00
   4.149519e+01  -1.754332e+00
   3.240512e+01   9.272399e+01
   9.370860e+01   8.122258e+01
  -4.621237e+01   6.387950e+01
  -8.957429e+01  -3.023704e+01
  -4.493152e+01  -3.719727e+01
  -2.561462e+01  -3.069784e+01
   6.906032e+01   1.605751e+01
   8.914402e+01   9.075241e+00
  -5.554435e+01   1.057640e+01
  -7.115429e+01  -2.840960e+01
  -3.992298e+01   8.896521e+00
  -7.260436e+00  -2.347296e+01
  -3.867090e+00  -2.471023e+00
  -3.743548e+01   3.252702e+01
  -4.345929e+01   7.245875e+00
  -5.786058e+01  -2.770908e+01
   8.436662e+01  -1.097982e+02
   1.885865e+02  -5.833474e+01
   1.106117e+02   3.807231e+01
   3.617794e+01   1.409196e+02
  -8.823382e+01   1.033280e+02
  -8.527203e+01   2.535985e+01
  -2.922467e+01   6.115323e+00
   3.503045e+00  -2.379955e+01
   1.633492e+01  -5.036847e+00
  -5.177137e+01  -7.275875e+00
  -4.026766e+01  -4.067154e+01
   2.784710e+00  -4.986706e+01
   9.764503e+00  -6.285835e+01
   4.956398e+01   1.089436e+01
   6.380795e+01   5.025640e+01
  -2.385100e+01   7.412311e+01
  -7.295997e+01  -3.732119e+00
  -4.767677e+01  -6.539727e+01
  -4.502462e+00  -1.081414e+02
   2.670186e+01  -4.976442e+01
   5.196340e+01  -3.866977e+01
   3.004023e+01   7.393568e+01
  -3.314121e+01   3.928032e+01
  -1.785541e+01   3.616237e+01
   1.996602e+01  -1.224225e+01
   3.021745e+01   9.787774e+00
   8.150611e-02   4.025625e+01
  -5.212305e+01   5.428384e+01
  -1.488652e+02   1.561067e+01
  -4.055992e+01   3.862999e+00
  -1.811731e+01  -4.403330e+01
   7.636816e+01  -9.679518e+01
   2.824886e+01  -4.819200e+01
  -1.131356e+01   3.269430e+01
  -1.623247e+01   4.539487e+01
  -2.289012e+01  -1.585518e+01
  -1.185731e+01  -2.131769e+01
   3.265191e+01  -1.923140e+01
   3.901657e+01  -1.503558e+01
   4.704944e+01   2.665259e+01
   6.529453e+00  -2.798136e+01
  -2.636527e+01   6.157434e+00
   6.484014e+00  -2.470410e+01
   1.741320e+01   4.624164e+00
   1.132248e+01   7.860912e+01
  -2.927286e+01   1.036439e+01
  -3.173096e+01  -1.593650e+01
  -2.986004e+01   9.849389e+00
   2.678561e+01  -2.317789e+00
   6.186987e+01   4.014888e+01
   4.646050e+01   5.098128e+01
  -7.207549e+01   6.315683e+01
  -5.829552e+01  -3.337740e+01
  -2.969088e+01  -6.769407e+01
   5.347530e+01  -1.000551e+02
   7.669197e+01  -2.967037e+01
   1.485575e+01  -7.839794e+00
  -2.881810e+01   4.332624e+01
  -1.494565e+01   8.854170e+00
   3.063203e+01  -1.827389e+01
   3.474417e+01  -1.553850e+01
