
 $NMID
 id='ANONYMOUS ', fmtdat='(2E16.6)'
 volume=1.0
 tramp=1.0
 $END
   2.754792e+03  -3.571762e+02
   1.969465e+03   7.233688e+02
   5.409717e+02   1.543794e+03
  -7.409417e+02   1.334964e+03
  -7.707983e+02   4.717982e+02
  -1.665066e+02  -9.317181e+01
   2.398320e+02  -5.870497e+01
   1.037875e+02   4.365611e+02
  -1.894153e+02   5.322766e+02
  -4.711670e+02   2.345262e+02
  -4.575799e+02  -2.680540e+02
  -1.344855e+02  -5.043258e+02
   1.058866e+02  -2.243778e+02
   1.936300e+02   2.010841e+02
  -6.845682e+00   4.031226e+02
  -2.717324e+02   1.337121e+02
  -2.790664e+02  -3.885359e+02
  -3.262657e+01  -5.248582e+02
   3.939379e+02  -3.454285e+02
   3.944875e+02   1.212116e+02
   1.603729e+02   2.857999e+02
   3.533054e+01   2.073597e+02
  -3.299497e+01   1.181528e+02
   1.059076e+02   1.412963e+02
   1.434725e+02   2.671424e+02
  -1.104896e+02   2.592287e+02
  -3.475196e+02   8.291944e+01
  -4.023160e+02  -1.404563e+02
  -2.294910e+02  -2.297403e+02
   2.320628e+02  -1.669666e+02
   3.755684e+02   9.860146e+01
   1.198306e+02   2.560061e+02
  -1.664760e+02   3.072459e+02
  -3.391200e+02   1.443626e+02
  -3.165054e+02  -4.079451e+01
  -1.101614e+02  -1.884362e+02
  -2.541741e+01  -1.570056e+02
  -2.967507e+01   2.836295e+01
  -1.125541e+02   1.159838e+02
  -1.228833e+02  -8.479681e+01
   3.084665e+01  -3.444699e+02
   1.796436e+02  -3.429044e+02
   2.257187e+02  -2.118454e+01
   1.075860e+02   2.385808e+02
  -8.769003e+01   1.340069e+02
  -1.392332e+02  -1.705935e+02
   7.579274e+01  -3.227944e+02
   3.678008e+02  -8.198376e+01
   4.036681e+02   2.151893e+02
   1.979792e+02   3.870110e+02
  -2.150957e+02   2.131964e+02
  -4.342919e+02  -3.178269e+01
  -3.319637e+02  -1.650722e+02
  -2.377709e-01  -1.847693e+02
   2.172187e+02  -1.272454e+02
   1.701762e+02  -3.438646e+01
   1.795876e+01   3.466479e+01
  -4.981998e+00   3.313669e+01
   5.669754e+01  -1.946268e+01
   1.907922e+02  -5.550061e+00
   1.162409e+02   1.340837e+02
  -1.454451e+02   1.889006e+02
  -2.902075e+02   1.851409e+02
  -2.491794e+02  -1.212102e+02
   2.062539e+01  -3.308542e+02
   2.593449e+02  -3.300582e+02
   2.969644e+02  -1.539557e+02
   1.683993e+02   1.323233e+02
   3.698822e+01   2.918211e+02
   7.630393e+00   2.260151e+02
  -1.802186e+01   1.705699e+02
  -1.244419e+01   1.034817e+02
  -1.096162e+02   8.599726e+01
  -2.322800e+02   4.668641e+01
  -1.875036e+02  -1.284102e+02
  -9.268504e+01  -2.208409e+02
   1.305224e+02  -1.612763e+02
   1.272903e+02   1.322424e+01
   1.015316e+02   2.189301e+02
  -1.628471e+00   2.144597e+02
  -2.178085e+02   8.668973e+00
  -2.818634e+02  -1.184784e+02
  -1.779687e+02  -2.515206e+02
   6.669558e-01  -2.364849e+02
   1.262597e+02  -1.721232e+02
   1.136358e+02  -6.050400e+01
   1.185111e+02  -7.599181e+01
   2.197436e+02  -5.803442e+01
   3.417025e+02   1.081201e+02
   3.208853e+02   2.531566e+02
   7.161112e+00   4.211619e+02
  -3.093227e+02   2.802112e+02
  -3.233851e+02   1.607072e+02
  -2.817657e+02  -1.002466e+02
  -5.282775e+01  -2.201986e+02
   1.201992e+02  -1.247662e+02
   8.882991e+00  -2.859750e+01
  -5.612903e+01   3.319035e+01
  -4.887390e+01  -3.365993e+01
  -1.822004e+01  -1.397610e+02
   8.249581e+01  -7.351098e+01
   7.792140e+01   7.363722e+00
   1.164472e+01   6.960493e+01
  -1.108213e+02  -5.555427e+00
  -1.260036e+02  -1.638080e+02
   7.000845e+01  -2.815930e+02
   1.530127e+02  -1.948795e+02
   3.208124e+02   6.564868e+01
   2.544933e+02   2.457181e+02
   2.919831e+01   2.435066e+02
  -1.098667e+02   7.054728e+01
  -7.303546e+01   2.132555e+00
  -7.469656e+00  -3.699402e+01
   5.517447e+01   2.933281e+01
  -8.833472e+00   1.313749e+02
  -1.158160e+02   8.060510e+01
  -1.685052e+02  -8.240699e+00
   2.131971e+01  -6.273397e+01
   1.029304e+02   1.469209e+01
   1.286240e+01   5.865208e+01
  -1.481109e+02   6.765148e+01
  -2.970114e+02   3.040070e+00
  -2.119536e+02  -1.221415e+02
  -1.366821e+01  -2.275602e+02
   1.769765e+02  -2.294470e+02
   1.941391e+02  -6.424983e+01
   1.079169e+02   3.553099e+01
  -6.385937e+01   4.776288e+01
  -3.950175e+01   2.924763e+01
   3.123587e+01  -7.210728e+01
   1.737295e+02  -1.158135e+01
   1.395208e+02   9.334714e+01
   6.389794e+01   1.501409e+02
  -9.244870e+01   1.350177e+02
  -6.133268e+01   5.478594e+01
  -2.763160e+01  -3.294459e+01
   9.769242e+00   1.605611e+01
   2.766644e+01   7.849014e+01
  -1.070135e+02   7.669799e+01
  -1.511187e+02   3.862835e+01
  -1.237416e+02  -1.069918e+02
  -5.924043e+00  -1.856152e+02
   1.146720e+02  -9.500646e+01
   1.827898e+02  -2.341145e+01
   1.729664e+01   7.348109e+01
  -4.285023e+01   8.031758e+01
  -6.953759e+01   2.811151e+01
  -6.499948e+00  -1.997854e+01
   8.889079e+01  -8.016868e+00
   3.818014e+00   3.131676e+01
  -9.359401e+01   2.502005e+01
  -9.643623e+01  -1.014930e+02
   1.827763e+01  -1.715666e+02
   1.013405e+02  -1.251690e+02
   2.154468e+02  -3.677300e+01
   1.582013e+02   1.474444e+02
   2.125461e+01   1.672033e+02
  -6.891798e+01   1.150942e+02
  -9.052185e+01   5.331150e+01
  -7.405065e+01  -2.900934e+01
   1.183896e+01  -5.774682e+00
  -2.716502e+01   2.561892e+01
  -7.741519e+01   2.332316e+00
  -7.777811e+01  -2.336061e+01
   2.279873e+01  -8.423993e+01
   1.078904e+02  -9.242864e+01
   8.743046e+01   3.606964e+01
  -1.475802e+01   7.790229e+01
  -1.841010e+02   5.844963e+01
  -2.131814e+02  -3.525981e+01
  -4.448947e+01  -2.090622e+02
   7.355418e+01  -1.785548e+02
   2.033548e+02  -7.461761e+01
   2.313908e+02   1.132306e+02
   5.787373e+01   1.705826e+02
  -2.305872e+01   1.126383e+02
  -5.915580e+01   9.694567e+01
  -2.717411e+01   8.512218e+01
  -3.761030e+01   9.683628e+01
  -6.543821e+01   5.668697e+01
  -1.236725e+02   1.559351e+01
  -1.541942e+02  -1.086920e+02
  -3.540283e+01  -2.107113e+02
   4.905223e+01  -1.673423e+02
   1.862022e+02  -9.327347e+00
   1.219825e+02   8.421928e+01
  -2.106933e+01   1.162892e+02
  -8.115904e+01   5.837931e+01
  -8.372972e+01   1.220801e+01
  -7.589468e+00  -4.691625e+01
   7.340425e+00  -4.083049e+01
  -5.040880e+01  -2.057455e+01
  -5.983881e+01  -3.715446e+01
  -8.544686e+00  -3.680854e+01
   9.881441e+01  -6.412444e+01
   1.490606e+02   2.567329e+01
   1.186094e+02   4.099910e+01
   1.218450e+01   8.703682e+01
  -1.298715e+02   6.045823e+01
  -1.048107e+02   3.698597e+01
  -2.156299e+01  -2.326270e+00
   1.101206e+02   1.673608e+01
   4.662999e+01   3.720340e+01
   1.057793e+01   1.080448e+02
  -3.533105e+01   3.844792e+01
  -4.993093e+01   5.277180e+01
  -3.162851e+01  -3.114991e+01
  -6.267221e+01  -5.958523e+00
  -4.234150e+01   2.319197e+00
  -4.223409e+01   2.059453e+01
  -5.354983e+01  -3.777548e+01
   3.012796e+01  -1.142545e+02
   1.061008e+02  -1.557802e+02
   1.532413e+02  -4.175931e+01
   1.503802e+02   5.991559e+01
   2.130772e+01   1.318588e+02
  -6.563419e+01   7.538336e+01
  -8.514750e+01   2.716368e+01
   7.299791e+01  -1.184370e+01
   9.644377e+01  -2.056117e+01
   8.304934e+01   3.808817e+01
  -4.270010e+01   1.017746e+02
  -1.965121e+02   5.705530e+01
  -1.326994e+02  -4.045757e+00
   2.674607e+00  -7.515876e+01
   4.966938e+01  -5.095269e+01
   5.744659e+01   1.076456e+01
  -4.597823e+00   3.089749e+01
  -8.667615e+01   1.173508e+00
  -4.927774e+01  -9.597410e+01
   4.966974e+01  -9.054169e+01
   1.379335e+02  -1.039346e+02
   9.668978e+01   6.804654e+01
   3.513989e+00   2.020052e+02
  -6.579619e+01   8.316549e+01
  -6.167449e+01  -7.242161e+00
  -5.053563e+01  -1.128690e+02
  -2.373945e+01  -9.474417e+01
   4.980590e+01  -9.119999e+01
   4.899455e+01   5.883282e+01
   2.731926e+01   1.217048e+01
   2.019025e+01  -7.645318e+00
   7.013754e+01   2.047343e+01
   1.434655e+01   9.998680e+01
   9.451972e+01   5.331942e+01
  -4.275831e+00   1.399299e+01
  -1.144539e+02  -2.890025e+01
  -1.420242e+02  -9.277880e+00
  -1.433113e+01  -6.687106e+01
   8.245517e+01  -3.418590e+01
   6.531402e+01  -1.486480e+00
   5.356790e+01   2.030922e+01
  -3.869218e+01   3.531167e+01
  -2.781603e+00  -1.407807e+01
   1.466571e+01  -4.177094e+01
  -1.437044e+01  -3.132920e+01
  -5.421315e+01  -9.351775e+00
  -1.199825e+02  -1.365074e+01
  -1.047756e+01  -8.564379e+01
   5.094392e+01  -1.424684e+02
   1.232518e+02  -8.118575e+01
   1.517481e+02   5.830290e+01
   3.822454e+01   1.149767e+02
  -5.171779e+01   1.753428e+02
  -1.107036e+02   6.516340e+01
  -1.017601e+02   3.000967e+01
  -3.118691e+01  -4.039382e+01
   5.989728e+00  -2.154593e+01
  -1.976239e+00  -2.764999e+01
  -6.823459e+00  -5.737096e+01
  -3.291974e+01  -5.132755e+01
   8.872941e+00  -5.957683e+01
   1.162745e+01  -2.216607e+01
   6.354340e+01   4.765091e+01
   4.424416e+01   9.365551e+01
  -1.500712e+01   2.688789e+01
  -1.261738e+02  -2.907870e+01
  -8.660599e+01  -8.395212e+01
   5.531992e+01  -9.704042e+01
   8.782294e+01   7.519909e+00
   6.862445e+01   4.420959e+01
  -4.997271e+01   9.708340e+01
  -8.468407e+01   2.436763e+01
  -1.024438e+01  -1.643549e+01
   7.944489e+01  -3.357522e+01
   4.963727e+00   4.040178e+01
  -6.894797e+01   1.045274e+02
  -1.109480e+02   5.432844e+00
  -4.149595e+01  -3.611439e+01
  -6.437921e+00  -8.748303e+01
   5.996730e+01  -6.600640e+01
   5.645348e+01  -2.667839e+01
   8.468104e+00   7.248374e+01
  -5.631669e+00   4.809254e+01
   2.237439e+00  -2.337066e+01
  -6.581418e+01  -6.557662e+01
  -2.731806e+01  -6.011219e-01
  -1.915753e+01  -2.437240e+01
   3.207062e+01   2.036718e+01
   2.824061e+01  -1.774734e+01
   9.603601e+00  -4.229680e+01
  -2.582664e+01  -3.646320e+01
   6.394559e+00   5.415582e+01
  -3.695664e+00   6.636561e+01
  -1.386840e+01   7.938123e+01
  -6.509398e+01  -3.642407e+01
  -2.839534e+01   3.504049e+00
   5.352022e+01  -2.772872e+01
   8.249053e+01   2.930716e+01
   2.222383e+01   6.610302e+01
  -5.056327e+01   5.867175e+01
  -1.004062e+02  -3.409112e+01
  -8.480522e+01  -4.666220e+00
  -3.614419e-01  -1.784988e+01
   3.697446e+01  -2.003384e+01
   5.482902e+01  -1.125293e+01
  -5.165173e+01   3.275776e+00
  -2.876068e+01   1.298965e+01
   2.746230e+01  -2.288742e+01
   5.864208e+01  -1.196918e+01
