
 $NMID
 id='ANONYMOUS ', fmtdat='(2E16.6)'
 volume=1.0
 tramp=1.0
 $END
  -1.777224e+03  -1.615976e+02
  -1.396686e+03  -6.310613e+02
  -4.036159e+02  -1.215507e+03
   5.374477e+02  -1.038785e+03
   5.166894e+02  -4.095083e+02
   2.604154e+02   8.805461e+01
  -8.271013e+01   8.142539e+01
  -1.428689e+02  -1.256746e+02
   7.749353e+01  -3.351546e+02
   3.300559e+02  -1.265330e+02
   3.248564e+02   1.600311e+02
   7.192845e+01   3.127528e+02
  -1.213664e+02   1.406177e+02
  -9.365984e+01  -2.224307e+02
   3.929636e+01  -2.881579e+02
   1.960401e+02  -6.821017e+01
   2.142174e+02   2.714040e+02
   5.529089e+00   3.896074e+02
  -2.173596e+02   2.893302e+02
  -2.714678e+02   2.611688e+01
  -1.254121e+02  -2.000155e+02
  -4.918908e+01  -1.516819e+02
  -2.586929e+00  -8.930217e+01
  -1.086687e+02  -1.031270e+02
  -9.498735e+01  -2.705418e+02
   8.105422e+01  -1.744873e+02
   3.168086e+02  -1.961029e+01
   2.943821e+02   1.100738e+02
   1.692474e+01   1.214685e+02
  -2.220458e+02   2.387374e+01
  -2.048831e+02  -8.088862e+01
   1.538231e+00  -1.837876e+02
   1.805941e+02  -1.867673e+02
   2.313744e+02  -1.078651e+02
   1.936546e+02   3.111232e+01
   1.121811e+02   1.566495e+02
   6.640701e+01   8.224982e+01
   9.812563e+01   2.177233e+00
   8.941943e+01  -2.787869e+00
   4.709977e+01   1.637357e+02
  -1.003751e+02   2.740479e+02
  -1.781023e+02   2.146730e+02
  -1.169063e+02  -7.677996e-01
  -3.471432e+01  -1.261687e+02
   8.505107e+01  -3.353574e+01
   5.656116e+01   1.160406e+02
  -6.970009e+01   1.281040e+02
  -2.697564e+02   2.025150e+01
  -2.235337e+02  -2.276573e+02
  -7.197131e+01  -2.394075e+02
   1.436519e+02  -1.328457e+02
   3.004840e+02  -5.987619e+01
   1.759570e+02   2.677224e+01
  -7.735676e+00   1.801079e+01
  -1.375354e+02   3.916025e+01
  -1.506724e+02   2.425271e+01
  -8.309796e+01   4.838730e+01
  -2.158743e+01   2.593346e+01
  -2.854290e+01  -1.319794e+01
  -1.559030e+02   3.093155e+01
  -8.001219e+01  -2.474548e+01
   6.053163e+01  -1.436334e+02
   1.842680e+02  -1.363285e+02
   1.905518e+02   4.486825e+01
  -5.891800e+01   2.626559e+02
  -2.150388e+02   1.995373e+02
  -1.672201e+02   7.341540e+01
  -1.401481e+02  -6.978192e+01
   2.684377e+01  -2.602149e+02
   4.005367e+01  -1.594412e+02
   2.661982e+01  -1.453252e+02
   6.578561e+01  -8.747120e+01
   1.172742e+02  -5.587525e+01
   1.473273e+02  -4.745504e+00
   1.105157e+02   9.685797e+01
   6.701901e+01   1.450135e+02
  -1.253163e+02   1.227059e+02
  -1.304181e+02  -7.732116e+01
  -7.016122e+01  -1.910662e+02
   3.142600e+01  -1.718962e+02
   1.660372e+02  -4.547793e+01
   1.583760e+02   1.200703e+02
   6.976429e+01   2.103624e+02
  -1.901741e+00   1.628082e+02
  -6.407581e+01   1.075901e+02
  -7.666152e+01   4.872318e+01
  -1.090011e+02   8.346650e+01
  -2.334952e+02   3.405671e+01
  -3.018131e+02  -1.090811e+02
  -1.765621e+02  -2.214973e+02
   2.622394e+01  -3.179930e+02
   2.706180e+02  -2.580634e+02
   2.866981e+02  -8.188783e+01
   1.212934e+02   5.680072e+01
  -1.269749e+01   1.453947e+02
  -7.257583e+01   1.330842e+02
   3.120301e+01   7.628441e+00
   5.597453e+01  -1.403870e+01
   3.829376e+01   3.822483e+01
  -5.349008e+01   1.113948e+02
  -4.410149e+01   6.195411e+01
  -4.640096e+01  -2.364603e+00
   6.221399e+00  -4.572922e+01
   1.102861e+02  -1.357285e+01
   8.143728e+01   1.226218e+02
  -2.955026e+01   1.853624e+02
  -9.284341e+01   1.436569e+02
  -2.355175e+02  -5.275463e+01
  -1.647895e+02  -1.918111e+02
  -1.805638e+01  -1.607623e+02
   4.768417e+01  -1.025640e+02
   9.063419e+01   5.975923e+00
   9.711446e-01  -2.340363e+01
  -1.135463e+01  -9.368616e+01
   2.487423e+01  -6.326233e+01
   8.494764e+01  -7.638218e+00
   6.747538e+01   1.272823e+01
   8.508993e+00   4.473851e+01
  -5.426665e+01  -5.452434e+01
  -2.488392e+01  -1.077249e+02
   1.075345e+02  -3.897301e+01
   1.874530e+02   8.165283e+00
   1.813505e+02   7.359330e+01
   5.663662e+01   1.944408e+02
  -1.466988e+02   1.302734e+02
  -1.712830e+02   9.194876e+01
  -6.337277e+01  -3.897001e+01
   1.629810e+01  -5.651293e+01
   7.805061e+00  -2.542246e+01
  -4.977400e+01   2.625411e+01
  -1.896666e+02  -5.463649e+00
  -9.908896e+01  -1.213500e+02
  -2.027401e+01  -1.482243e+02
   5.880505e+01  -5.408586e+01
   5.532534e+01   2.928518e+01
   3.786016e+01   1.325138e+01
  -7.753270e+00  -3.794941e+01
  -3.356485e+01  -1.043902e+02
   8.593693e+01  -5.432234e+01
   1.227911e+02   4.592008e+01
   9.662474e+01   8.768547e+01
   1.681030e+01   1.073465e+02
  -6.953714e+01   8.410832e+01
  -1.278028e+02   1.028302e+01
  -9.526382e+00  -3.578806e+01
   6.692375e+01  -6.069044e+01
   3.188238e+01  -1.973723e+01
  -1.511574e+01   3.386532e+01
  -2.645510e+01   5.283333e+01
   7.942382e+00  -1.234159e+01
   8.030259e+01  -2.078195e+01
   9.293674e+01   7.674049e+01
  -3.261476e+01   1.166821e+02
  -1.239841e+02   7.391826e+01
  -1.907555e+02   8.321287e+00
  -1.256470e+02  -1.504554e+02
  -2.030938e+01  -1.299479e+02
   9.620279e+01  -8.803259e+01
   5.099452e+01  -2.403584e+01
   5.389903e+01  -1.157980e+00
  -1.923373e+01  -6.293601e+00
   4.316939e+01   1.662951e+01
   9.085878e+01  -1.056288e+01
   1.072368e+01   6.364840e+01
  -1.561915e+01   8.246384e+01
  -8.015665e+01   5.099988e+01
  -1.045577e+02  -1.975729e+01
   3.840868e+01  -8.873879e+01
   1.173921e+02  -6.273352e+01
   8.608373e+01   5.474454e+01
   1.088007e+01   1.016755e+02
  -5.236128e+01   1.267532e+02
  -1.563112e+02   1.592685e+01
  -1.521474e+02  -6.395476e+01
  -3.758332e+01  -8.426081e+01
   4.573056e+01  -6.979959e+01
   4.879312e+01  -8.819498e+01
   9.892946e+00  -6.459803e+01
   1.763888e+01  -5.590889e+01
   2.890061e+01  -8.296205e+01
   6.619862e+01   3.997512e+00
   9.886768e+01   1.114692e+02
   1.784303e+01   1.520660e+02
  -7.149475e+01   7.864689e+01
  -8.400014e+01   4.844141e+00
  -3.262699e+01  -4.786022e+01
   1.501034e+01  -7.854267e+01
   6.173365e+01  -6.284375e+01
   4.097483e+01   9.541904e+00
   1.818384e+01   2.726564e+01
  -2.611351e+01   2.263091e+01
  -1.446427e+01   9.429872e+00
   1.740896e+01   4.655804e+00
   2.855844e+01   2.053770e+01
  -6.920826e+01   2.192744e+01
  -1.255023e+02   9.573807e+00
  -1.051543e+02  -8.327705e+01
   4.034343e+01  -1.043317e+02
   1.089374e+02  -1.420542e+01
   1.279249e+02  -1.854702e+01
   5.539849e+01  -1.027127e+01
  -4.208222e+01   3.186292e+01
  -3.182733e+01  -9.519623e+00
  -2.367452e+01  -5.709903e+01
   8.787062e+00  -3.301200e+01
   7.680042e+01  -1.966728e+01
   3.832314e+01   2.588189e+01
   4.973031e+01   2.988611e+01
   4.639401e+01  -4.471308e+01
   5.546284e+01   4.589605e+00
   1.409755e+01   5.015131e+01
   3.679860e+00   1.343655e+02
  -7.636308e+01   1.426006e+02
  -1.643011e+02   4.744116e+01
  -7.998199e+01  -5.460059e+01
   1.007614e+01  -1.004153e+02
   9.296937e+01  -5.971425e+01
   6.562646e+01  -3.397373e+01
  -3.944654e+01  -4.713764e+01
  -8.868760e+01  -3.038742e+01
  -6.392826e+01  -8.508418e+01
   9.922959e+01  -6.806804e+01
   1.139548e+02  -4.832760e+01
   1.125948e+02   3.035627e+01
   2.237124e+01   6.524118e+01
  -2.883812e+01   3.055638e+01
  -7.216045e+01   5.057577e+00
   3.253149e+01   2.025692e+01
   7.071501e+01   1.044774e+01
   5.021437e+01   1.129537e+02
  -4.537953e+01   9.453868e+01
  -1.086425e+02   6.033392e+01
  -7.233660e+01  -4.167531e+01
  -2.592763e+01  -8.378390e+01
   5.400578e+01  -4.449459e+01
   3.992443e+01   4.713249e+01
   2.477977e+01   6.372986e+01
  -4.323507e+01   7.519799e+01
  -2.858314e+01   1.000048e+01
  -1.948942e+01  -6.139445e+01
   2.222348e+01  -2.503109e+01
  -1.015532e+01   2.844170e+01
  -2.792167e+01   9.905616e+00
  -7.073661e+01  -5.893262e+00
  -4.458895e+01  -2.020914e+01
  -1.080987e+01  -4.643586e+01
   9.817654e+01   1.012398e+01
   8.368935e+01   4.338455e+01
   1.756571e+00   1.022811e+01
  -5.014561e+01   4.855040e+00
  -8.016570e+01   3.264937e+00
  -7.294865e+00   1.267317e+01
   3.497783e+01  -2.798372e+01
   7.423203e+01  -3.879735e+01
   1.262634e+01  -4.024490e+00
   2.074081e+01  -1.278591e+00
   4.741254e+01  -1.941231e+01
   3.251927e+01   4.360989e+01
   4.569192e+01   1.016001e+02
  -2.659299e+01   1.318660e+02
  -1.599995e+02   6.926586e+01
  -1.443483e+02  -6.839270e+01
  -1.627208e+01  -1.737911e+02
   3.453906e+01  -1.296230e+02
   8.859168e+01  -7.236922e+01
   3.335882e+01   9.548244e+00
  -1.141659e+01   3.407916e+01
  -3.486133e+01   1.404182e+01
   6.051329e+01  -1.271813e+01
   4.407370e+01   1.119203e+00
   1.322242e+01   4.456800e+01
  -2.457080e+01   8.623646e+01
  -8.925977e+01   4.527765e+01
  -4.594264e+01  -8.102096e+01
  -1.699262e+01  -7.552554e+01
   7.349837e+01  -4.052253e+01
   4.232813e+01   6.201372e+01
   7.705881e+00   8.958760e+01
  -5.211242e+01   4.581756e+01
  -5.615157e+01   1.119804e+01
  -2.710036e+01  -2.554406e+01
   2.802019e+01  -4.743940e+01
   4.997729e+01  -2.144702e+01
  -1.231742e+01  -4.291939e+00
  -2.939115e+01  -1.579334e+01
   4.709766e+00  -4.728497e+01
   4.201616e+01  -4.440856e+01
   5.565196e+01  -6.341855e+01
   7.998449e+01  -4.215050e+00
  -4.940275e+01   3.596331e+01
  -5.378844e+01  -3.340132e+01
  -5.697476e+01  -2.370313e+01
  -3.320491e+01  -6.169312e+01
   2.985001e+00  -1.154044e+00
   3.897326e+00  -1.175711e+00
   1.973526e+01   6.506161e+01
   2.720828e+01   4.451018e+01
  -2.700559e+01  -1.765469e+01
  -4.063546e+01   3.979237e+00
  -2.862386e+01   1.635499e+01
  -8.330371e-02   3.509416e+01
   2.402816e+01   2.122561e+01
  -3.167846e+01  -2.315178e+01
  -5.611676e+00  -2.578750e+01
   3.527777e+01  -3.757207e+01
   3.873996e+01   4.429381e+01
   1.993699e+01   2.398064e+01
  -4.324383e+01   1.765132e+01
  -4.756414e+01   1.443639e+01
   3.164295e-01  -4.986992e+00
   4.539584e+01  -3.684411e+01
   7.006561e+01  -8.614633e+00
   5.557213e+01   5.094510e+01
  -1.867724e+01   2.717891e+01
  -5.501046e+01  -4.864420e+00
   3.524657e+00   7.339432e+01
   4.398133e+01  -1.702893e+01
   3.304479e+01   1.228287e+01
  -4.958901e+01   6.277590e+01
  -6.943057e+01   4.610422e+01
