
 $NMID
 id='ANONYMOUS ', fmtdat='(2E16.6)'
 volume=1.0
 tramp=1.0
 $END
  -3.482040e+03   2.453885e+02
  -2.301952e+03  -1.845129e+03
   1.427810e+02  -2.039314e+03
   1.309349e+03  -1.093695e+03
   8.736276e+02   1.366696e+02
  -1.850079e+02   2.799833e+02
  -5.375640e+02  -2.217265e+02
  -7.202326e+00  -7.799884e+02
   6.157093e+02  -7.157560e+02
   7.635054e+02  -5.030601e+01
   4.852273e+02   6.407013e+02
  -1.876731e+01   6.787802e+02
  -3.843480e+02   2.088065e+02
  -2.355916e+02  -5.667967e+02
   2.098153e+02  -6.246950e+02
   4.689395e+02  -5.646502e+01
   3.227908e+02   5.213256e+02
  -1.878688e+02   6.140095e+02
  -4.830233e+02   2.055377e+02
  -4.481544e+02  -2.278216e+02
  -7.542236e+01  -3.729548e+02
   1.439443e+02  -2.550562e+02
   1.149532e+02  -4.547408e+01
  -1.437486e+02  -3.258656e+00
  -3.782436e+02  -2.119607e+02
  -4.714902e+01  -3.530543e+02
   4.641648e+02  -1.750613e+02
   6.632221e+02   1.757112e+02
   2.803673e+02   4.118309e+02
  -3.533431e+02   2.837804e+02
  -5.545673e+02  -1.146067e+02
  -2.461409e+02  -3.922916e+02
   2.684489e+02  -4.098557e+02
   4.549141e+02  -1.841410e+02
   3.519671e+02   1.850095e+02
   1.031032e+02   3.625003e+02
  -4.426287e+01   1.634015e+02
  -6.087465e+01  -1.411475e+02
   1.468869e+02  -2.919648e+02
   3.185249e+02   1.351457e+02
   1.201707e+02   6.149070e+02
  -2.394854e+02   4.688838e+02
  -4.146570e+02   4.757217e+01
  -1.893363e+02  -3.989537e+02
   2.212961e+02  -2.261743e+02
   2.830154e+02   2.767119e+02
  -9.656199e+01   4.627336e+02
  -4.455696e+02   1.463696e+02
  -5.338091e+02  -3.566859e+02
  -1.483401e+02  -4.884497e+02
   2.982289e+02  -2.554510e+02
   5.655876e+02   1.939302e+01
   3.657700e+02   2.577402e+02
  -1.267690e+02   2.397041e+02
  -3.038678e+02   8.611240e+01
  -1.933008e+02  -8.457471e+01
   3.622046e+01  -2.823148e+01
   8.492431e+01   8.020480e+01
  -1.111198e+02   8.011835e+01
  -2.494312e+02  -7.231208e+01
  -1.512668e+02  -2.328106e+02
   1.200567e+02  -2.614417e+02
   3.216791e+02  -1.963935e+02
   2.714669e+02   1.053882e+02
  -7.497367e+00   2.773551e+02
  -2.717736e+02   3.247912e+02
  -3.549315e+02   1.936164e+02
  -2.279954e+02  -1.362721e+02
  -8.050557e+01  -3.688972e+02
   7.884519e+01  -3.009142e+02
  -1.160825e+01  -9.657252e+01
   2.073130e+01  -3.099280e+01
   8.311725e+01  -3.821704e+01
   2.154345e+02  -1.190798e+02
   2.205538e+02   1.164975e+02
   9.492446e+01   2.632920e+02
  -6.771369e+01   2.290551e+02
  -1.981579e+02  -2.237813e+01
  -1.684730e+02  -2.292771e+02
   3.387991e+01  -2.391460e+02
   2.399818e+02  -7.342523e+01
   3.018312e+02   1.435894e+02
   1.867962e+02   2.710677e+02
  -1.474607e+01   2.417772e+02
  -1.591953e+02   1.142770e+02
  -1.767995e+02   1.017676e+02
  -1.436408e+02   8.935608e+01
  -2.639625e+02   3.910257e+01
  -3.454242e+02  -4.626286e+01
  -3.307397e+02  -3.302226e+02
  -5.394715e+00  -4.287956e+02
   3.290019e+02  -4.114882e+02
   4.556337e+02  -1.812304e+02
   2.757756e+02   9.347145e+01
   2.396947e+01   2.133763e+02
  -1.235579e+02   1.774448e+02
  -2.009471e+01   3.342144e+01
   1.094929e+02  -7.483276e+01
   1.284872e+02   1.142309e+00
   3.455111e+01   1.764614e+02
  -1.264006e+02   1.412761e+02
  -1.465506e+02  -3.272429e+01
   2.726723e+01  -1.392225e+02
   1.696697e+02  -2.811454e+01
   1.699687e+02   1.941417e+02
   4.296429e+01   3.118200e+02
  -2.166612e+02   1.497228e+02
  -3.730126e+02  -4.641690e+01
  -2.992874e+02  -2.773648e+02
  -6.420748e+01  -2.357653e+02
   1.723859e+02  -1.484953e+02
   1.966402e+02  -7.923356e+00
   4.586050e+01  -2.021396e+01
  -6.622045e+01  -2.549552e+01
  -2.425771e+01  -1.370802e+02
   1.129878e+02  -6.131441e+01
   1.476867e+02  -1.189861e+01
   3.136337e+01   3.346092e+01
  -6.968935e+01   2.939142e+01
  -5.591675e+01  -7.168110e+01
   1.652445e+02  -1.078291e+02
   2.738995e+02  -1.959141e+01
   2.346193e+02   1.575535e+02
   8.773364e+00   2.424260e+02
  -1.936084e+02   2.305059e+02
  -2.769377e+02   6.249001e+01
  -1.354214e+02  -5.016887e+01
   3.162439e+01  -8.095404e+01
   8.121177e+01  -6.472666e+00
  -6.084004e+01   9.402616e+01
  -1.642222e+02   1.208789e+01
  -1.713113e+02  -1.014533e+02
  -4.264800e+01  -2.313857e+02
   1.219868e+02  -1.212315e+02
   1.215439e+02  -2.845822e+01
   3.121489e+01   6.736573e+01
  -1.336048e+00  -2.949203e+00
  -4.741898e+01  -6.051069e+01
   5.360395e+01  -7.546579e+01
   2.092941e+02  -2.897243e+01
   1.636629e+02   1.398492e+02
   1.849086e+01   2.102084e+02
  -1.168646e+02   1.481903e+02
  -1.644951e+02   1.655395e+01
  -5.244905e+01  -7.509387e+01
   4.096549e+01  -7.636710e+01
   5.130800e+01  -7.818477e+01
   1.496007e+01   4.170473e+00
  -3.817683e+01  -1.156251e+01
   4.635449e+01  -2.154894e+01
   6.542588e+01  -1.580628e+01
   9.878789e+01   1.202411e+02
   5.396292e+00   8.968558e+01
  -1.408719e+02   1.475403e+02
  -2.557175e+02   3.379958e+01
  -2.171142e+02  -1.565402e+02
  -3.542884e+01  -2.109453e+02
   1.092792e+02  -1.622479e+02
   1.103380e+02  -4.768073e+01
   7.085821e+01   2.191802e+01
   2.212389e+01   6.062433e+01
   3.662987e+01  -3.337588e+01
   1.055070e+02   2.449308e+01
   5.885627e+01   4.316487e+01
  -1.727528e+01   8.197125e+01
  -9.154242e+01   6.190276e+01
  -9.723400e+01  -1.371386e+00
  -3.116260e+01  -8.468579e+01
   1.513576e+02  -1.300997e+02
   1.796228e+02   7.141336e+01
   7.789592e+01   1.549383e+02
  -1.465719e+02   2.079735e+02
  -2.426502e+02   7.026481e+01
  -2.354010e+02  -3.276161e+01
  -7.356119e+01  -1.778019e+02
   6.536222e+00  -1.219039e+02
   7.511087e+01  -1.009465e+02
   6.443858e+01  -6.744225e+01
   3.381427e+01  -1.121419e+02
   9.513859e+01  -9.590717e+01
   7.753906e+01   4.034794e-01
   1.273118e+02   1.222723e+02
   1.999632e+01   1.895005e+02
  -6.440325e+01   1.697757e+02
  -1.630016e+02   4.770826e+01
  -1.502375e+02  -1.143467e+02
  -3.614377e+01  -1.301126e+02
   9.962701e+01  -9.261815e+01
   1.003903e+02   1.787279e+01
   4.213543e+01   8.502500e+01
  -4.946585e+00   5.744020e+01
  -1.492416e+01   2.050949e+01
   4.269566e+01   6.039540e+01
   3.289494e+01   1.353417e+01
  -3.229667e+01   7.872979e+00
  -1.235120e+02   1.992736e+01
  -1.654156e+02  -3.770829e+01
  -1.178788e+01  -1.162064e+02
   1.171782e+02  -1.024050e+02
   1.599040e+02  -5.749784e+01
   5.038910e+01   2.996051e+01
  -3.128394e+01   4.160988e+01
  -1.081831e+02  -3.038915e+01
  -3.089788e+01  -1.126808e+02
   2.481735e+01  -9.376390e+01
   7.975141e+01  -2.060554e+00
   7.378692e+01   5.244576e+01
   5.823924e+01   2.290319e+00
   2.417861e+01  -2.308735e+01
   8.969091e+01   2.128003e+01
   3.579622e+01   5.093717e+01
   2.553736e+01   1.187365e+02
  -1.066966e+02   1.568222e+02
  -1.259339e+02   1.442992e+01
  -1.658148e+02  -9.644581e+01
  -1.320388e+01  -1.192589e+02
   1.113000e+02  -5.747328e+01
   7.601340e+01   4.243740e+01
  -7.163851e+01  -4.534028e+00
  -1.457317e+02   1.884803e+01
  -6.486446e+01  -8.989630e+01
   7.517982e+01  -8.895369e+01
   1.854893e+02  -2.311359e+01
   1.564917e+02  -7.817368e+00
   4.768140e+01   5.409200e+01
  -2.594307e+01   2.660673e+01
  -3.893848e+01   3.919154e+00
   5.207299e+01  -4.518586e+01
   1.348509e+02   2.339705e+00
   9.459335e+01   1.479287e+02
  -7.554222e+01   1.731900e+02
  -1.567051e+02   9.132255e+01
  -1.537330e+02  -1.332416e+02
  -3.109628e+01  -1.728801e+02
   4.890866e+01  -1.408623e+02
   1.219332e+02  -3.166985e+01
   5.471908e+01   1.184093e+02
  -3.438280e+01   1.337133e+02
  -8.140817e+01  -1.198290e+01
  -3.220342e+01  -6.156974e+01
  -4.159467e+01   1.415364e+01
  -3.661315e+01   5.460657e+00
  -4.930229e+01  -2.699475e+01
  -8.873722e+01  -9.808302e+01
  -4.534920e+01  -1.189802e+02
   6.661702e+01  -4.835854e+01
   1.243895e+02   3.207732e+01
   9.204832e+01   3.980442e+01
   1.643994e+01   6.229535e+01
  -9.391067e+01  -1.885048e+01
  -4.945750e+01   1.300018e+01
  -6.894083e+01  -8.132317e+00
   2.450069e+01  -9.381983e+00
   3.743634e+01  -4.948692e+01
  -2.102914e+01  -3.064304e+01
  -2.472444e+01  -1.171364e+01
   1.045751e+02   1.495870e+01
   6.924880e+01   5.553747e+00
   3.022170e+01   9.982539e+01
  -8.252977e+01   9.744555e+01
  -1.848919e+02   5.074631e+01
  -1.579430e+02  -3.013345e+01
   3.021237e+00  -1.410278e+02
   6.769165e+01  -1.252005e+02
   9.412634e+01  -9.127824e+01
   3.419409e+01   1.913799e+01
   2.710748e+01   9.515545e+01
   2.563079e+01   2.617394e+01
   3.119225e+01   1.960488e+01
   1.756558e+01   1.528442e+01
  -2.407746e+01   1.158991e+02
  -9.574860e+00   5.548054e+01
  -7.880571e+01   5.667273e+01
  -5.025443e+01  -9.245657e+01
   1.556552e+01  -1.171434e+02
   6.750046e+01  -3.860691e+01
   7.193677e+01   7.814517e+01
   7.363544e+01   1.047968e+02
  -9.446068e+01   7.744998e+01
  -8.453254e+01   5.504436e+00
  -1.130438e+01  -5.924197e+01
   3.461039e+01  -8.342126e+01
   1.875850e+01  -2.334074e+00
  -5.325042e+01  -7.711057e+00
  -6.517628e+01   7.230270e+00
   4.249163e+01  -3.488993e+01
   1.145261e+02  -6.057532e+01
   1.087804e+02  -6.553675e+01
   7.917911e+01   5.408578e+00
  -6.959276e+00   1.147993e+02
  -4.948006e+01   8.749679e+01
  -5.354924e+01  -7.199054e+00
  -3.978407e+01  -4.105198e+01
   1.217430e+01  -1.724779e+01
   7.881436e+00   1.797389e+01
  -2.190482e+01   4.226139e+01
  -3.154352e+01   2.422278e+01
  -3.069949e+01   1.702276e+01
   2.248004e+01  -5.309629e+01
  -3.853824e+01  -4.603734e+00
   9.344002e+01   1.558461e+01
   3.721412e+00  -3.319353e+01
  -1.018126e+01  -1.680627e+01
  -1.013162e+00  -4.441754e+01
   2.300207e+01  -1.408593e+01
   5.907534e+01   4.920673e+01
   4.793419e+01   5.310976e+01
   9.041372e+00   5.235061e+01
  -1.105266e+01   2.814525e+01
   2.436401e+00  -3.613224e+01
   2.299022e+01  -3.747450e+01
   1.083669e+02   2.726835e+01
   2.879043e+01   1.203872e+00
  -2.072613e+01   2.141105e+01
  -7.311957e+01   6.299645e+00
   1.094293e+01   4.056978e+00
   3.318314e+00  -4.283811e+01
   2.797077e+01   4.616008e+01
  -3.107947e+01   1.183199e+01
  -8.238573e+01   3.367956e+00
