
 $NMID
 id='ANONYMOUS ', fmtdat='(2E16.6)'
 volume=1.0
 tramp=1.0
 $END
  -6.342358e+02  -5.344125e+02
  -7.189855e+02  -3.961628e+02
  -2.676927e+02  -5.797880e+02
   2.191852e+02  -1.963431e+02
   3.925901e+02  -2.389078e+02
   4.432676e+01  -1.076145e+02
  -1.207733e+02  -6.159137e+01
   7.667285e+00  -7.601078e+01
   5.537896e+01  -1.433242e+02
   8.628835e+01  -7.332469e+01
   1.288357e+02   1.725215e+01
   9.054525e+01   2.255105e+02
  -8.408525e+01   1.196494e+02
  -7.410210e+00  -7.319416e+01
   1.844687e+01  -1.768487e+02
   8.020720e+01  -3.997113e+01
   5.585718e+01   1.335635e+02
   1.046523e+01   1.873527e+02
  -1.561246e+02   1.546367e+02
  -1.251911e+02  -3.810887e+01
  -6.220052e+01  -1.167547e+02
   4.413167e+01  -9.290128e+01
   1.755273e+01  -1.080079e+01
  -3.681933e+01  -5.851608e+01
  -5.864522e+01  -8.031296e+01
   2.826268e+01  -1.076241e+02
   1.126369e+02  -1.109893e+01
   1.152554e+02   5.075379e+01
   4.923066e+01   6.541267e+01
  -6.895922e+01  -1.648669e+01
  -6.494280e+01  -6.413539e+01
  -4.721643e+01  -1.083834e+02
   8.311026e+01  -8.000719e+01
   9.695634e+01  -7.772926e+01
   1.153306e+02   1.946764e+01
   9.387893e+01   1.027238e+02
   3.116420e+01   4.958111e+01
   8.674008e+01  -3.784036e+01
   1.370968e+02  -7.367536e+01
   2.672582e+01   5.203698e+01
  -4.391048e+01   1.465912e+02
  -1.188432e+02   1.541780e+02
  -8.284706e+01  -1.522952e+00
  -5.532259e+01  -4.493613e+01
   3.045067e+00  -6.748519e+01
   3.350283e+00   1.046882e+02
  -5.205876e+01   6.124684e+01
  -1.228921e+02  -1.649257e+00
  -9.098781e+01  -1.143850e+02
  -9.468741e+00  -1.739754e+02
   9.185463e+01  -6.531194e+01
   1.712633e+02  -2.823295e+01
   4.088069e+01   1.094336e+02
   1.323703e+01  -5.025099e+00
  -8.751743e+01   6.840547e+01
  -5.757184e+01   1.818252e+01
  -3.312455e+01  -2.057095e+01
   2.195205e+01  -1.639877e+01
   3.257430e+01   1.097017e+01
  -3.971544e+01  -1.707608e+01
  -1.671794e+01  -4.619208e+01
   4.316178e+01   1.305887e+01
   8.669720e+01  -4.620399e+01
   1.057016e+02   2.703562e+01
  -5.513098e+01   9.755232e+01
  -9.833361e+01   8.541030e+01
  -1.122619e+02   3.467596e+01
   8.786898e+00  -5.395222e+01
   5.399323e+01  -9.407715e+01
   4.962216e+01  -9.997923e+01
   3.594791e+01  -8.111144e+01
   2.673840e+01  -2.837367e+01
   5.626094e+01  -1.610027e+01
   8.847090e+01  -1.494234e+01
   7.760766e+01   1.129111e+01
   2.407496e+01   5.764177e+01
  -8.647340e+01   7.281389e+01
  -9.470807e+01  -2.342404e+01
  -3.447227e+01  -1.175510e+02
   6.921808e+01  -1.172213e+02
   1.166386e+02   3.046624e+01
   1.036101e+02   1.100263e+02
  -1.035818e+01   7.973853e+01
  -3.043106e+01   5.607832e+01
  -6.769408e+01   2.679615e+01
  -1.347064e+01  -1.114456e+01
  -3.764353e+01   5.554366e+01
  -9.976359e+01   5.369567e+01
  -1.303259e+02  -2.571784e+01
  -1.350774e+02  -1.076036e+02
   4.061505e+01  -1.269352e+02
   1.728224e+02  -1.606644e+02
   1.559852e+02  -2.538478e+00
   4.526728e+01   6.104502e+01
  -4.053668e+01   6.579248e+01
  -5.111456e+01   4.099478e+01
   3.038983e+00   1.311122e+01
   4.473891e+01   4.197134e+00
   5.421885e+01   2.351243e+01
  -3.657170e+01   6.474916e+01
  -3.169514e+01   2.065973e+01
  -6.151400e+01   2.105687e+01
   7.561729e+00  -8.419598e-01
   7.809092e+01   1.677711e+01
   7.932020e+00   8.279093e+01
  -2.508984e+01   1.115052e+02
  -8.143269e+01   4.261944e+01
  -1.300422e+02   3.397316e-01
  -1.007353e+02  -8.179290e+01
  -6.016954e+01  -9.442515e+01
   4.564414e+01  -5.704626e+01
   7.812323e+01  -3.153846e+01
  -5.721281e+01   2.089602e+01
   2.338299e+00  -2.543271e+00
  -8.236164e+00  -5.257141e+01
   4.889546e+01  -1.860057e+01
   5.264167e+01   1.286673e+01
   6.022666e-01   6.781924e+00
  -3.361246e+01  -4.017100e+00
  -2.373564e+01  -1.398065e+01
   2.234135e+00   1.547908e+01
   7.834524e+01   3.171820e+01
   1.223948e+02   3.520696e+01
  -1.507424e+00   4.998494e+01
  -7.355544e+01   5.010156e+01
  -8.315537e+01   4.546214e+00
  -1.710769e+01  -2.872020e+01
  -7.894425e+00   5.976845e+01
   1.399746e+01   1.349599e+01
  -5.433632e+01   2.628565e+01
  -8.834894e+01   3.540869e+01
  -6.322839e+01  -3.100667e+01
   1.214201e+01  -1.019267e+02
   9.166656e+01  -5.679180e+01
   3.630265e+01   1.950654e+01
   4.111619e+01  -1.428515e+01
   9.602326e+00  -6.214309e+01
   2.528728e+01  -5.850162e+01
   5.711880e+01   1.082702e+01
   6.341188e+01   1.175847e+01
   3.122395e+01   2.467417e+01
   1.351736e+01   3.587941e+01
  -3.978727e+01   4.577359e+01
  -7.295699e+01   2.376857e+01
  -4.643273e+01  -7.935203e+00
   1.267326e+01  -3.055307e+01
   3.423838e+01   9.261408e+00
   9.328392e+00   4.152283e+01
  -2.531477e+01   1.001684e+01
   9.956700e+00   2.219346e+01
   4.364721e+01   2.719268e+01
   4.471151e+01   1.771136e+01
   1.166722e+01   1.099748e+02
  -6.166932e+01   5.981080e+01
  -4.190711e+01   7.690597e+00
  -8.587792e+01  -8.903442e+01
  -3.494842e+01  -3.026268e+01
   3.849060e+01  -3.112778e+01
   4.068910e+01   4.812629e+00
   2.380101e-01  -7.869199e+00
   4.134152e+01   2.385198e+01
  -9.029452e+00  -1.921566e+01
   3.628174e+01   4.307875e+00
   2.906099e+01   3.124073e+01
  -3.902354e+01   5.360185e+00
  -4.314183e+01   4.204791e+01
   1.915292e+01  -3.057969e+01
   4.553832e+00  -4.941421e+01
   5.684281e+01  -1.624090e+01
   2.145905e+01   8.458292e+01
   4.842287e+01   4.793078e+01
  -8.410826e+00   8.857831e+01
  -8.265681e+01  -6.010182e+00
  -5.168016e+01  -4.202926e+01
   6.709255e+00  -6.323414e+01
   2.235658e+01  -2.053867e+01
   2.059941e+01  -3.162961e+01
   5.490528e+01  -2.100159e+01
   5.548351e+01  -2.652116e+01
   2.489890e+00  -5.397480e+01
   3.466401e+01   4.720486e+01
   5.143415e+01   4.265810e+01
   4.367868e+01   1.205368e+02
  -2.700684e+01   5.331008e+01
  -4.944009e+01   8.096338e+00
  -3.362935e+01  -4.901582e+01
   7.452621e+00  -4.240218e+01
  -1.765696e+00   1.507602e+00
   2.218820e+01   4.828941e+01
  -5.840168e+00   5.881702e+01
   2.192033e+00  -1.059773e+01
   8.906945e+00  -1.935655e+01
   5.106040e+01   2.390268e+01
   4.289613e+01  -2.869148e+00
  -3.338373e+01   1.918128e+01
  -8.410379e+01  -2.059787e+01
  -4.425112e+01   2.058997e+01
  -1.150583e+01  -4.635742e+01
   5.774552e+01  -1.006253e+01
   5.077637e+01  -4.524840e+00
   2.595146e+00   2.300759e+01
  -4.238827e+01   7.906902e+00
   2.249595e+01  -4.869525e+01
  -2.669993e+01  -3.127235e+01
   5.434634e+01  -1.985468e+01
   6.652133e+01   1.769190e+01
   3.001177e+00   1.399814e+01
   1.119299e+01   5.561509e+01
   1.027382e+01  -3.371015e+00
   3.602732e+01  -2.825320e+01
  -4.440402e+01   4.493771e+00
  -2.651997e+01   1.783865e+01
  -3.360631e+01   2.866578e+01
  -5.779784e+01  -3.651201e+01
  -4.572435e+01  -3.926978e+01
  -1.805359e+01  -6.079904e+01
   1.756003e+01  -3.490259e+00
  -6.578762e+00  -4.154326e+01
  -3.479456e+01   1.194778e+01
  -2.798666e+01  -1.141322e+01
  -7.663880e-02  -4.410980e+01
   7.532515e+01  -1.996770e+01
   7.427379e+01   2.009243e+01
   4.328569e+01  -3.578119e+01
   2.545728e+01   9.738750e-01
   7.841733e-01  -1.865844e+01
   1.700311e+01  -2.699894e+01
   2.835239e+01   3.869158e+01
   3.754055e+01   2.251412e+01
   3.687711e+01   2.241917e+01
  -3.685652e+01   7.442871e+01
  -2.816271e+01   4.833214e+01
  -1.288872e+01  -2.216541e+01
  -8.754918e+00  -4.763512e+01
  -2.485274e+01  -3.095523e+01
   5.146419e+01   3.583427e+01
   1.743241e+01   3.528933e+01
  -1.086742e+01  -5.130996e-02
  -5.808480e+01  -1.074357e+01
  -6.409052e+01  -3.577466e+01
   6.684672e+00   2.874210e+01
  -2.662371e+01   2.231715e+00
  -1.651738e+01  -8.187942e+00
  -2.017506e+01  -4.775213e+01
   2.025234e+01  -2.057593e+01
   3.271127e+01  -3.890363e+01
   2.251353e+01   2.766056e+01
   1.544017e+01   1.632084e+01
   5.519605e+00  -2.002563e+01
  -1.798261e+01  -5.225291e+01
  -6.082259e+00  -3.723572e+00
  -2.780166e+01  -8.098588e-01
   1.930544e+01  -1.612287e+01
  -7.330170e+00  -7.721035e+00
  -4.389412e+01   1.699153e+01
  -2.522318e+00   1.181133e+01
   1.318716e+01  -1.917505e+01
  -3.438251e+00   1.710306e+01
   8.997108e-01  -2.487032e+01
  -4.530634e+01   7.044023e+01
  -1.089734e+02   2.366002e+01
  -2.633966e+01  -1.035562e+01
  -6.097674e+00  -3.116637e+01
   1.665880e+01  -3.675422e+01
   7.085712e+01  -1.167950e+01
   2.439899e+01   1.808075e+01
   4.549167e+00   1.988877e+01
   6.996719e+00  -4.451478e+01
   5.918682e+01   3.185789e+01
   3.471059e+01  -7.110903e+00
   2.650466e+00   8.951766e+00
  -2.117903e+01  -3.885408e-01
  -4.563942e+01   2.387810e+01
  -1.552489e+01  -2.423302e+01
  -1.427558e+01  -8.321299e+01
   6.464759e+01  -1.251143e+01
   2.302983e+01   2.905507e+01
  -1.119648e+01   2.789597e+01
  -1.590427e+01   2.106276e+01
  -4.740574e+01  -4.081623e+00
   9.313082e+00  -6.448664e+01
   5.489946e+01  -2.598559e+01
  -1.358757e+00   2.108822e+01
  -5.864982e+01  -1.399144e+01
   2.730037e+01   8.725095e+00
   1.795161e+01  -4.151537e+01
   5.244998e+01  -1.407535e+00
   5.234731e+01   1.741473e+01
  -3.144108e+00  -3.454793e+01
   2.052702e+01   4.732091e+01
  -3.705939e+01   1.615278e+01
   2.769949e+00  -1.747364e+01
   4.679155e+00   1.142802e+01
  -9.665885e+00  -6.846405e+01
  -1.027729e+01   8.586978e+01
   1.818934e+01   5.187755e+01
   2.842035e+01  -1.113033e+01
  -2.191668e+00   9.568491e+00
  -1.961413e+01  -2.633425e+01
  -1.354814e+01   1.250483e+01
  -1.026129e+01  -1.550715e+01
   1.949870e+01  -9.917612e+00
  -1.565675e+01  -1.150376e+01
   7.844643e+00  -4.067296e+01
  -2.789634e+01   2.399196e+01
   1.455839e+01  -5.056309e+00
  -9.465917e+00   2.824765e+01
  -1.609289e+01   4.273673e+01
  -4.614994e+01  -8.752460e+00
  -8.774032e+00  -2.101821e+01
   3.586159e+01   1.815316e+01
   5.057766e+00   2.934637e+01
   4.903326e+01   5.708315e+01
  -1.322826e+01   2.687860e+01
  -2.691339e+01   2.334765e+01
  -6.188938e+00   9.542545e+00
  -1.808146e+01   1.404077e-01
   1.849123e+01  -2.782571e+01
  -3.079258e+01   2.949131e+01
  -2.730708e+01   1.307469e+01
