
 $NMID
 id='ANONYMOUS ', fmtdat='(2E16.6)'
 volume=1.0
 tramp=1.0
 $END
   1.112255e+03   6.451058e+02
   5.079680e+02   9.872163e+02
  -2.882779e+02   9.185267e+02
  -7.760489e+02   2.855343e+02
  -4.962902e+02  -2.054702e+01
  -5.103457e+00  -1.431551e+02
   1.626707e+02   1.313292e+02
   6.136184e+01   2.185596e+02
  -2.020866e+02   2.728154e+02
  -2.704346e+02  -2.076909e+01
  -1.369951e+02  -2.211865e+02
   7.280955e+01  -2.409044e+02
   1.642162e+02  -2.080454e+01
   7.185502e+01   2.670373e+02
  -1.185853e+02   2.358148e+02
  -1.791831e+02   1.405359e+01
  -7.271882e+01  -2.534408e+02
   1.169358e+02  -2.593718e+02
   2.786464e+02  -5.587650e+01
   1.496850e+02   8.939012e+01
  -5.784726e+00   1.765910e+02
  -1.374195e+02   1.554432e+02
  -4.074959e+01  -9.067719e+00
   1.422110e+02   6.483204e+01
   1.186831e+02   1.800064e+02
   4.789661e+01   1.668367e+02
  -2.426765e+02   5.857070e+01
  -2.593658e+02  -9.836775e+01
  -1.578679e+01  -2.298486e+02
   1.525960e+02  -3.438521e+01
   2.039187e+02   1.329637e+02
   1.079850e+01   1.856747e+02
  -2.127376e+02   1.528424e+02
  -1.915578e+02   1.953229e+01
  -1.969148e+02  -6.776402e+01
   3.914259e+01  -2.315867e+02
   4.040440e+01  -1.342761e+02
  -5.593356e+01   6.630787e+01
  -9.144745e+01   1.009941e+01
  -8.595509e+01  -1.190756e+02
   7.822499e+01  -1.887622e+02
   1.884275e+02  -1.526064e+02
   8.472988e+01   7.614276e+01
   1.641750e+01   1.728954e+02
  -8.213585e+01   4.611023e+01
  -9.393763e+01  -1.126227e+02
   1.087870e+02  -1.719121e+02
   2.094086e+02   1.334403e+01
   1.622216e+02   1.861013e+02
   7.646177e+01   2.492842e+02
  -1.622767e+02   9.552371e+01
  -2.440414e+02  -3.117453e+01
  -1.328530e+02  -1.481888e+02
   5.201377e+01  -7.434749e+01
   1.119646e+02   1.994632e+01
   6.830178e+01   1.712824e+01
   4.217085e+00  -2.754408e+01
  -6.477762e+00  -3.547267e+01
   2.540126e+01   3.439519e+01
   6.108396e+01   5.180091e+01
   3.031395e+01   6.563054e+01
  -8.362836e+01   6.438409e+01
  -1.529022e+02  -2.387539e+00
  -1.450325e+02  -4.684905e+01
   2.316732e+01  -1.378882e+02
   2.214663e+02  -1.906841e+02
   1.857706e+02  -1.130910e+02
   7.028084e+01   1.195195e+02
  -5.698115e+01   1.701739e+02
  -3.913439e+01   1.533951e+02
  -2.839847e+01   8.919832e+01
  -1.301430e+01   3.532801e+01
  -6.586479e+01   6.988052e+01
  -7.242451e+01  -6.630891e+00
  -1.086478e+02  -9.230386e+01
   3.699149e+01  -1.180168e+02
   6.938724e+01  -7.959013e+01
   7.206482e+01   4.423247e+01
   2.817885e+01   1.613334e+02
  -8.446447e+01   1.203059e+02
  -1.193169e+02  -4.728277e+01
  -1.497087e+02  -1.630080e+02
   4.198194e+01  -1.396196e+02
   4.287844e+01  -1.239086e+02
   5.002270e+01  -1.883880e+01
   3.723584e+01  -6.229148e+01
   8.412216e+01  -1.802128e+01
   1.550311e+02   1.692794e+01
   2.156930e+02   1.013193e+02
   1.818047e+02   1.918323e+02
  -5.587543e+01   2.551651e+02
  -1.574808e+02   2.139926e+02
  -2.543678e+02   6.048148e+00
  -1.114181e+02  -8.860173e+01
   4.390871e+01  -1.512130e+02
   8.909692e+01  -6.681229e+01
   6.637404e+00   1.322226e+01
  -8.029915e+01   1.891101e+01
  -1.327737e+01   1.100318e+01
   5.611344e+00  -5.634750e+01
   4.243121e+01  -1.556429e+01
   5.783497e+01   5.715528e+01
  -2.925956e+01   1.873269e+01
  -9.034604e+01  -4.804948e+01
  -9.359395e+01  -1.548519e+02
   3.236890e+01  -1.815743e+02
   1.439269e+02  -4.193693e+01
   1.627977e+02   4.140196e+01
   1.278094e+02   1.584137e+02
   1.706712e+00   1.580776e+02
  -1.171025e+02   9.111890e+01
  -5.404950e+01  -2.972127e+00
  -1.930924e+01  -3.341384e+01
   9.354745e+00  -1.405516e+01
  -2.269532e+01   6.184844e+01
  -9.256998e+01   1.602915e+00
  -6.453628e+01   7.745406e+00
   3.712417e+01  -4.827374e+01
   8.662975e+01  -1.427925e+01
   3.525435e+01   1.570897e+01
  -1.109284e+02   7.522492e+00
  -1.390246e+02  -3.491641e+01
  -7.504861e+01  -1.025802e+02
  -4.467850e+00  -1.386703e+02
   1.312457e+02  -6.944984e+01
   1.523076e+02   5.020012e+00
   3.048044e+01   8.404227e+01
  -6.338556e+01  -1.888883e+00
  -5.280791e+01   3.893373e+00
   1.710725e+01  -3.683572e+01
   9.698651e+01   1.199425e+01
   4.201897e+01   5.424202e+01
  -9.193427e+00   1.069284e+02
  -8.061827e+01   6.307944e+01
  -5.900320e+01  -6.789804e+00
   5.934558e+00  -4.092646e+01
   2.910192e+01   1.354967e+01
  -9.336560e+00   6.698833e+01
  -2.393635e+01   4.393800e+01
  -1.118226e+02  -4.315165e+00
  -7.096956e+01  -6.446975e+01
  -8.381154e+00  -7.297763e+01
   6.396581e+01  -3.064506e+01
   6.978661e+01   6.412187e+01
  -1.599079e+00   8.673009e+01
  -1.086693e+01   3.232152e+01
  -7.142844e+01   2.861029e+01
  -2.231785e+01  -6.665045e-01
   2.079224e+01  -5.965355e+00
  -4.159259e+00   2.554934e+01
  -8.390608e+01  -1.060240e+01
  -8.181157e+01  -4.986822e+01
   1.233188e+01  -9.892235e+01
   4.878839e+01  -3.153274e+01
   5.724875e+01   5.033823e+01
   9.725740e+01   9.545558e+01
  -1.385028e+01   9.072888e+01
  -6.690809e+01   4.613261e+01
  -4.362417e+01  -3.505987e+01
  -3.965879e+01  -2.394475e+01
  -1.919453e+01   2.487889e+01
  -1.439821e+01   1.892302e+00
  -3.680421e+01   1.213835e+01
  -2.499632e+01  -2.477160e+01
   2.300327e+01  -2.819404e+01
   4.981513e+01  -1.981375e+00
   2.763414e+01   6.012762e+00
   8.214404e+00   7.325403e+01
  -1.156656e+02   6.602664e+01
  -7.375018e+01  -4.048788e+01
  -3.449296e+01  -1.043243e+02
   8.573192e+01  -1.110004e+02
   1.056880e+02  -4.599303e+01
   9.798010e+01   6.051908e+01
   1.141212e+01   8.941301e+01
  -2.825900e+01   4.471430e+01
  -4.384903e+01   5.853016e+00
  -1.929132e+01   2.170672e+01
  -4.703424e+01   1.912053e+01
  -4.709073e+01   4.601605e+01
  -6.206608e+01  -2.907744e+00
  -2.668681e+01  -6.392316e+01
  -4.507358e+00  -1.417563e+02
   4.740212e+01  -9.021038e+01
   8.085348e+01   7.362044e+00
   5.225114e+01   1.092991e+02
  -6.653168e+00   1.049391e+02
  -5.209408e+01   4.271532e+01
  -2.262375e+01  -1.457545e+01
  -3.712302e+00  -2.570680e+00
   6.478410e-01  -1.585890e+01
   9.081693e+00   3.878923e+00
   2.588385e+01  -1.415248e+00
   1.889851e+01  -8.786463e+01
  -6.696587e+00  -1.586662e+01
   9.878745e+01  -3.724467e+00
   1.107113e+02   4.472630e+01
   1.235832e+01   4.141883e+01
  -6.989904e+01   3.890000e+01
  -8.699696e+01  -1.462777e+00
  -3.430224e+01  -4.763874e+01
   8.937039e+01  -3.086181e+01
   3.992851e+01   1.635047e+01
  -1.218646e+01   2.981152e+01
  -4.366397e+01   3.031502e+00
  -6.552363e+01  -5.647909e+00
  -4.966462e+01   2.321473e+01
  -3.986223e+01  -1.271676e+01
  -2.059763e+01  -5.739213e+00
   1.519599e+01  -3.965159e+00
  -2.339605e+01  -3.214274e+01
   3.063459e+01  -4.247266e+01
   9.756501e+01  -4.768574e+01
   1.334452e+02   8.430376e+00
   3.557471e+01   5.575908e+01
   5.314985e-01   6.751058e+01
  -3.479799e+01   2.237282e+01
  -2.918949e+01   1.360336e+01
  -2.890557e+00  -2.017425e+01
   9.279856e+00   3.441315e+01
   3.923272e+01   5.890468e+01
  -4.372165e+01   7.259661e+01
  -5.526289e+01   7.944936e+00
  -1.058543e+02  -2.484303e+01
   1.315235e+01  -8.310711e+00
   1.025366e+02  -3.004979e+01
  -7.713505e+00   2.783110e+01
  -4.869091e+00   7.764948e+00
  -4.353435e+01  -7.232880e+01
  -2.597112e+01  -5.839988e+01
   4.521349e+01  -8.155648e+01
   7.495223e+01  -9.494866e+00
   5.278157e+01   4.541754e+01
  -2.876489e+01   8.388404e+01
  -9.782353e+01   3.251893e+01
  -5.121010e+01   1.558293e+01
  -8.497272e+00  -6.308205e+01
   3.079814e+01  -6.319113e+01
   2.549817e+01   3.200381e+01
   4.238208e+01   1.001630e+01
  -2.863314e+01  -6.548253e+00
   5.347270e+00   1.614829e+01
   1.599310e+01  -1.183897e+00
   2.096992e+01   3.473382e+01
  -1.281245e-01   4.337796e+01
  -2.510347e+01   3.526961e+01
  -1.933223e+01  -1.199872e+01
  -4.771195e+01  -1.907383e+01
  -8.508890e+00   2.157632e+00
   2.211750e+01   1.942600e+01
   3.470600e+01  -9.002220e+00
   1.846053e-01  -1.408841e+01
  -1.177374e+00   4.778908e+01
  -2.514581e+01   1.393346e+01
   1.707125e+01   1.936125e+01
  -6.627112e+00  -9.033975e+00
  -6.105217e+01  -2.380687e+01
  -3.110995e+01   2.781615e+00
  -4.436403e+01  -6.817435e+01
   6.084679e+01  -3.679159e+01
   1.213979e+02  -3.436185e+01
   9.147351e+01   5.222030e+00
  -1.169571e+01   6.424655e+01
  -7.240209e+01   8.709012e+01
  -4.686872e+01   3.843976e+00
  -8.692769e+01  -5.282414e+01
  -4.431174e+01  -6.506880e+01
  -2.653385e+00  -1.030845e+01
   3.692566e+01   2.669194e+00
   4.034491e+01  -5.648964e+01
   1.225491e+01  -9.097509e+01
   1.629656e+01  -1.119826e+01
   3.498806e+01  -1.123528e+01
   1.759890e+01   3.938046e+01
  -1.727535e+01   5.270521e+01
  -3.102442e+01  -1.995439e+01
  -3.487672e+01  -7.683074e+01
  -2.786141e+01  -4.940692e+01
   7.341477e+01  -1.679893e+01
   2.247206e+01   2.942922e+01
   3.418467e+01   9.845250e+00
   1.685770e+01  -1.279247e+01
  -2.768046e+01   1.910431e+00
  -1.312391e+00   2.231083e+01
   2.005605e+01   3.281575e+01
   1.905267e+01  -1.230896e+00
  -2.465942e+01   3.964468e+01
  -7.138745e+01   2.031959e+01
   9.315226e+00  -5.338788e+01
   4.044798e+00  -3.179649e+01
   3.409832e+01  -1.960148e+01
   2.615246e+01  -1.702247e+01
   2.105937e+01   4.917743e-01
  -2.838425e+01   6.229271e+00
   1.319701e+01   1.503837e+01
   4.074077e+00  -5.405672e+00
   1.566306e+01  -4.846152e+00
  -5.035965e+01  -2.223683e+01
   5.374626e+01   8.512531e+00
   1.684126e+01   1.811762e+01
   1.892730e+01   5.670998e+00
  -3.997040e+01   9.461579e+00
  -1.845852e+01   2.081325e+01
  -2.640371e-01   1.287070e+00
  -1.386011e+01   2.074071e+01
  -2.752506e+01  -5.359910e+01
  -4.195719e+01  -5.405585e+01
  -1.165794e+01  -1.969926e+01
  -3.492150e+01   1.934595e+01
   1.443302e+01   1.690735e+01
  -1.227106e+01   4.009697e+01
  -1.354889e+01  -4.043726e+01
  -6.314866e+00  -3.251787e+00
   2.454269e+01  -1.663676e+00
   1.695581e+01   8.842003e+00
  -1.776889e+01   4.373823e+01
  -3.483801e+01  -1.728664e+01
   8.023192e+00   3.814515e+01
  -1.020405e+01  -1.451217e+01
   2.359442e+01  -1.549751e+00
