
 $NMID
 id='ANONYMOUS ', fmtdat='(2E16.6)'
 volume=1.0
 tramp=1.0
 $END
   2.669644e+03  -3.243707e+02
   1.571455e+03   1.554587e+03
  -2.606800e+02   1.577384e+03
  -1.083084e+03   8.597062e+02
  -6.868040e+02  -9.926866e+01
   2.743753e+02  -2.524169e+02
   4.256481e+02   2.278252e+02
  -1.638481e+01   5.549906e+02
  -5.625739e+02   4.063728e+02
  -5.735866e+02  -3.695342e+01
  -2.898190e+02  -4.938684e+02
   1.301908e+02  -5.360320e+02
   4.010772e+02  -6.139595e+01
   1.414815e+02   4.290742e+02
  -1.452416e+02   4.761069e+02
  -4.243391e+02   3.895036e+01
  -1.400140e+02  -4.184155e+02
   1.032155e+02  -4.300402e+02
   3.775907e+02  -1.308614e+02
   2.753192e+02   1.739036e+02
   3.816229e+01   2.804189e+02
  -8.001445e+01   1.336081e+02
  -6.609318e+01  -2.189214e+01
   1.334542e+02   6.429264e+00
   2.971666e+02   1.943087e+02
   5.152659e+01   2.451350e+02
  -2.994713e+02   1.857352e+02
  -4.178562e+02  -1.279642e+02
  -1.881966e+02  -3.588555e+02
   2.945895e+02  -2.099810e+02
   4.129419e+02   1.379234e+02
   1.049652e+02   3.241309e+02
  -2.170538e+02   2.782465e+02
  -3.320982e+02   3.711063e+01
  -2.486866e+02  -1.944785e+02
  -1.544997e+01  -2.563773e+02
   1.246483e+02  -1.167977e+02
  -8.818136e+00   1.355310e+02
  -1.736873e+02   2.035859e+02
  -2.692681e+02  -9.188053e+01
  -9.102117e+01  -4.669354e+02
   1.959952e+02  -4.434411e+02
   3.099325e+02   4.918186e+01
   8.978690e+01   2.959185e+02
  -1.699641e+02   1.684236e+02
  -1.763171e+02  -2.118240e+02
   4.934416e+01  -3.658356e+02
   3.645213e+02  -3.133099e+01
   3.749951e+02   3.014419e+02
   4.756309e+01   4.020280e+02
  -2.951953e+02   1.395761e+02
  -3.687265e+02  -1.327846e+02
  -2.228844e+02  -2.971275e+02
   9.854102e+01  -2.189329e+02
   3.033265e+02  -5.442916e+00
   1.334604e+02   8.965566e+01
  -5.621794e+01   4.555435e+01
  -4.518429e+01  -9.948795e+01
   1.200084e+02  -4.296873e+01
   2.229213e+02   4.920211e+01
   5.315268e+01   2.033397e+02
  -1.798449e+02   1.621387e+02
  -2.186026e+02   1.061866e+02
  -1.682845e+02  -9.475404e+01
   1.985101e+01  -1.790698e+02
   2.307513e+02  -2.035960e+02
   2.972247e+02  -3.890253e+01
   2.199207e+02   1.686529e+02
   8.353039e+01   3.594785e+02
  -1.163981e+02   2.267325e+02
  -6.316500e+01   4.870080e+01
  -1.563753e+01  -6.473339e+00
  -7.023916e+01   8.958381e+01
  -1.544452e+02   4.663653e+01
  -1.870537e+02  -1.042347e+02
  -1.304376e+02  -1.888049e+02
   1.176942e+02  -1.516793e+02
   1.616519e+02  -7.090595e+00
   1.101121e+02   1.877728e+02
  -3.616346e+01   1.809243e+02
  -1.697558e+02   5.174459e+01
  -2.208965e+02  -1.451183e+02
  -1.320141e+02  -2.348589e+02
   9.037469e+01  -1.760811e+02
   1.813514e+02  -8.955475e+01
   1.483053e+02  -2.329265e+01
   1.135449e+02  -8.594295e+00
   1.317325e+02   8.236458e+00
   2.737218e+02   5.591476e+01
   2.135099e+02   1.991085e+02
  -6.635632e+00   2.949890e+02
  -3.153218e+02   2.773890e+02
  -3.003170e+02   1.448185e+02
  -1.928281e+02  -6.817704e+01
  -4.667747e+01  -2.374080e+02
   1.039308e+02  -1.314265e+02
   5.094317e+01  -3.550552e+01
  -8.766694e+01   3.265582e+01
  -1.273606e+02   4.366617e+00
  -3.414121e+01  -1.120232e+02
   1.203779e+02  -6.815999e+01
   9.849732e+01   4.949071e+01
  -1.370961e+01   1.038423e+02
  -1.011200e+02  -6.901417e+00
  -1.225189e+02  -1.949638e+02
   3.971706e+01  -2.599949e+02
   2.164290e+02  -1.495840e+02
   2.151350e+02   8.022832e+01
   1.988468e+02   2.030365e+02
   2.052162e+01   2.022601e+02
  -9.529342e+01   8.254221e+01
  -1.558250e+02   5.127667e+00
  -2.150641e+01  -2.620156e+01
   7.053893e+01   6.426062e+01
   5.502765e+00   1.191640e+02
  -9.788358e+01   7.946136e+01
  -9.219848e+01  -1.210220e+01
   2.082464e+01  -3.491670e+01
   4.742258e+01   2.231065e+01
   2.772605e+01   6.076147e+01
  -1.184490e+02   6.630791e+01
  -2.317172e+02  -3.530307e+01
  -1.901509e+02  -1.264576e+02
  -4.296011e+01  -1.653939e+02
   1.730988e+02  -2.161665e+02
   1.917332e+02  -6.786782e+01
   7.867982e+01   2.174350e+01
   5.671625e+00   7.011542e+01
  -1.882321e+01   5.161574e+01
   1.677289e+01  -9.142086e+01
   1.599653e+02  -3.346773e+01
   1.277058e+02   1.191290e+02
   2.188798e+01   1.265994e+02
  -7.626720e+01   9.589408e+01
  -7.016841e+01  -2.365050e+00
  -5.345039e+01  -6.273073e+00
   3.691630e+01  -1.657704e+01
   4.561630e+01   1.123873e+02
  -1.165642e+02   4.755986e+01
  -1.781804e+02   8.074111e+00
  -2.022756e+02  -1.030642e+02
  -1.300210e+01  -1.702073e+02
   1.085023e+02  -1.072574e+02
   8.981270e+01  -1.090414e+01
   2.979759e+01   6.620481e+01
  -6.118567e+01   6.868302e+01
  -1.016315e+02  -1.169221e+01
   3.214362e+01  -4.524281e+01
   1.236437e+01   2.743919e+01
   5.442405e+00   2.668977e+01
  -5.012816e+01  -1.189007e+01
  -1.210406e+02  -3.461171e+01
  -3.095867e+00  -9.746324e+01
   1.017170e+02  -1.259396e+02
   1.707085e+02   7.907491e-01
   1.433313e+02   1.360905e+02
   3.314570e+01   1.887982e+02
  -6.733681e+01   1.407876e+02
  -7.977606e+01  -1.412946e+00
  -5.971998e+01  -7.252777e+01
  -1.761927e+01  -3.207064e+01
  -6.175316e+01   4.338213e+00
  -3.909032e+01   4.106999e+01
  -5.512333e+01  -3.064447e+00
   3.646083e+01  -4.399213e+01
   1.007740e+02  -6.208792e+01
   5.495081e+01   2.121412e+01
  -8.715296e+00   4.572612e+01
  -9.425814e+01   7.321965e+01
  -1.544612e+02  -7.127471e+01
  -6.086733e+01  -1.686026e+02
   8.889590e+01  -1.728994e+02
   1.976043e+02  -3.843437e+01
   2.338473e+02   8.002165e+01
   6.592837e+01   1.864517e+02
  -3.472467e+01   9.352149e+01
  -9.652213e+01   5.261658e+01
  -6.038704e+01   4.849088e+00
  -5.585089e+01   4.723513e+01
  -3.120250e+01   1.096687e+01
  -7.663845e+01   1.510875e+01
  -9.257044e+01  -7.838706e+01
  -1.674656e+01  -1.430570e+02
   7.495417e+01  -1.310419e+02
   1.542433e+02   3.469477e+00
   8.107618e+01   4.996129e+01
   2.522790e+01   1.199981e+02
  -5.880667e+01   8.742969e+01
  -5.068429e+01  -3.397668e+01
  -9.209200e+00  -9.123500e+01
   8.208622e-01  -6.889635e+01
  -3.018217e+01  -3.875360e+01
  -2.168565e+01   1.053610e+01
  -2.483717e+01  -3.849394e+01
   7.040303e+01  -2.412296e+01
   1.056064e+02  -3.674844e+01
   1.256854e+02   3.757709e+01
  -5.681931e+00   1.456095e+01
  -9.373917e+01   4.386915e+01
  -1.115895e+02   1.735034e+01
  -2.333505e+01  -4.393121e+01
   3.441476e+01  -3.972287e+01
   4.740302e+01   1.022603e+01
   1.738948e+01   8.067796e+01
  -3.667852e+01   3.821779e+01
  -2.334055e+01  -3.158783e+01
  -3.570194e+01  -3.582991e+01
  -3.355696e+01  -3.691913e+01
  -3.721034e+01   1.222969e+01
  -6.249895e+01  -3.863479e+01
  -5.823898e+01  -1.865157e+01
   4.064967e+01  -5.700908e+01
   7.768791e+01  -1.066330e+02
   8.912143e+01  -1.886227e+01
   9.184550e+01   3.148351e+01
   5.955016e+00   1.184447e+02
  -9.671085e+01   2.721753e+01
  -4.430272e+01  -2.779520e+01
   6.445304e+01   9.062405e-01
   1.009503e+02   4.439279e+01
   4.007359e+01   7.376783e+01
  -6.733246e+01   7.665807e+01
  -1.484866e+02  -1.801128e+01
  -1.106626e+02  -5.414568e+01
   2.603430e+01  -5.292776e+01
   6.739386e+01  -3.785648e+01
  -1.869431e+01   3.716216e+01
  -4.662646e+01  -1.535176e+00
  -7.400775e+01  -7.009874e+00
  -1.921448e+01  -7.710339e+01
   7.120734e+01  -1.533368e+02
   1.351957e+02  -6.657476e+01
   1.286159e+02   9.916961e+01
  -2.410580e+00   1.431701e+02
  -3.737250e+01   1.427010e+02
  -7.442566e+01  -1.138577e+01
  -4.308459e+01  -6.290407e+01
  -1.334028e+01  -1.123807e+02
   6.808010e+01   1.801140e+00
   6.238477e+01   1.487967e+01
   7.803710e+00   1.636085e+01
  -7.078714e+01   2.276510e+01
  -3.529316e+00  -8.463946e-02
   2.841681e+01   4.958048e+01
   2.409788e+01   5.839303e+01
  -7.718577e+01   2.900429e+01
  -1.254237e+02  -5.775686e+01
  -1.133172e+02  -3.734062e+01
   3.814983e+00  -1.133403e+02
   4.432133e+01   1.695511e+01
   4.218964e+01   1.155764e+01
   1.024166e+01   2.578632e+01
  -4.352572e+01   1.219712e+01
  -4.056224e+00   1.319748e+01
   3.018684e+01  -1.239905e+01
   7.565274e+00  -2.509092e+01
  -4.138551e+01  -7.025463e+00
  -5.380881e+01  -4.828226e+00
   1.203787e+01  -1.238909e+01
   6.078853e+01  -1.094502e+02
   1.191810e+02  -2.619651e+01
   8.217615e+01   5.176514e+01
   2.963194e+00   1.202734e+02
  -7.600544e+01   1.452577e+02
  -4.052731e+01   6.457876e+01
  -7.622364e+01  -3.100193e+01
  -2.316331e+01  -6.857794e+01
   1.662732e+01  -4.566271e+01
  -3.955262e+00  -2.181433e+01
  -4.640508e+01  -3.436789e+01
  -2.465501e+01  -5.670148e+01
   2.269634e+00  -5.323314e+01
   3.757539e+01   3.805798e+01
   7.918729e+01   9.017281e+01
  -7.937808e+00   7.225901e+01
  -6.041014e+01   4.257145e+01
  -8.772443e+01  -6.139680e+01
   1.026278e+01  -4.265658e+01
   2.481081e+01  -5.337040e+01
   8.237942e+01   1.379457e+01
   7.535668e+00   6.196139e+01
  -2.507506e+01   7.678168e+01
  -1.732306e+01   3.389638e+01
  -2.680542e+01  -1.181568e+01
   4.494249e+01  -3.884967e+01
   1.699432e+01   1.365895e+01
  -2.322722e+01   5.648399e+01
  -6.647673e+01   3.067249e+01
  -5.073166e+01  -1.919574e+01
   1.387058e+01  -5.350589e+01
   2.885829e+01   6.939814e+00
   5.537411e+01  -1.547908e+01
  -2.932009e+01   6.077961e+01
  -4.362323e+01   3.362338e+01
  -1.006152e+01  -8.031278e+00
   1.355548e+01   3.922447e+01
   2.509762e+00   2.723518e+00
   3.473615e+01  -2.698448e+01
  -1.067743e+01  -3.043955e+00
   6.246034e+01  -1.320305e+01
   5.018712e+00  -5.533425e+00
  -8.185642e+00  -9.248177e+00
  -1.461422e+00   1.795218e+01
  -6.672325e+00   3.215204e+01
  -5.009724e+01   4.386726e+01
  -1.866889e+01  -1.766234e+01
   3.067638e+01  -2.309031e+01
   1.318687e+01   9.919621e+00
   2.723929e+01   6.749544e+01
   2.349797e+01   5.623911e+01
  -2.343102e+00   2.053682e+01
  -7.049217e+01   1.618839e+00
  -2.430620e+01  -3.894066e+01
   1.163800e+01  -3.842569e+01
   3.767970e+01  -2.976190e+01
  -2.909214e+00  -1.000500e+01
   9.560747e+00  -2.961552e+01
  -8.809230e+00  -2.866628e+01
   9.367179e-01  -5.204078e+01
   7.237883e+01   2.219552e+01
