
 $NMID
 id='ANONYMOUS ', fmtdat='(2E16.6)'
 volume=1.0
 tramp=1.0
 $END
  -3.207355e+03  -6.593777e+02
  -1.743495e+03  -1.496520e+03
   1.292685e+02  -1.895206e+03
   1.277077e+03  -9.610596e+02
   7.400153e+02   2.833760e+01
  -1.066135e+02   2.400906e+02
  -4.887464e+02  -2.744992e+02
  -3.576779e+01  -6.484086e+02
   5.043425e+02  -4.698541e+02
   5.891773e+02   1.549024e+01
   3.249712e+02   5.473514e+02
  -7.950912e+01   5.538536e+02
  -3.501566e+02   8.190614e+01
  -1.347957e+02  -4.130552e+02
   1.856782e+02  -4.895480e+02
   3.777112e+02   4.071200e+01
   2.134096e+02   4.365338e+02
  -1.892005e+02   5.241209e+02
  -4.306429e+02   1.347506e+02
  -3.475036e+02  -2.316254e+02
  -8.395995e+01  -3.273017e+02
   1.314908e+02  -1.778692e+02
   1.335432e+02  -5.235784e+01
  -1.423582e+02  -3.364429e+01
  -3.196477e+02  -2.824440e+02
  -3.782994e+01  -3.164196e+02
   4.379983e+02  -2.091839e+02
   6.655592e+02   2.074323e+02
   2.123093e+02   3.790033e+02
  -3.413876e+02   2.693035e+02
  -5.349183e+02  -1.166934e+02
  -1.636358e+02  -3.363317e+02
   2.670060e+02  -2.977552e+02
   4.595819e+02  -1.663029e+02
   2.693666e+02   1.861274e+02
   4.439630e+00   2.985069e+02
  -8.743261e+01   1.701735e+02
  -1.577877e+01  -1.018210e+02
   1.595559e+02  -1.908744e+02
   2.223293e+02   1.016038e+02
   1.098876e+02   5.304433e+02
  -2.427626e+02   4.133896e+02
  -2.850118e+02  -1.611577e+01
  -1.245895e+02  -3.761744e+02
   2.015139e+02  -1.422205e+02
   1.385198e+02   2.421671e+02
  -9.856835e+01   3.779880e+02
  -3.983261e+02   1.207918e+01
  -4.740049e+02  -3.911026e+02
  -1.207992e+02  -4.417074e+02
   3.055199e+02  -2.241780e+02
   4.521987e+02   1.269588e+02
   2.785535e+02   2.162976e+02
  -1.047861e+02   2.107735e+02
  -2.932967e+02   1.665986e+00
  -1.602269e+02  -7.296807e+01
   5.907478e+01  -5.554774e+01
   5.822620e+01   6.910567e+01
  -1.202960e+02   8.449114e+01
  -2.212555e+02  -2.347098e+01
  -1.179133e+02  -1.324800e+02
   1.927897e+02  -1.911433e+02
   2.902926e+02  -8.780566e+01
   1.843362e+02   1.074341e+02
  -5.724189e+00   2.662773e+02
  -2.237446e+02   2.959989e+02
  -2.970824e+02   1.760091e+02
  -2.232423e+02  -1.782773e+02
  -2.300119e+01  -3.038793e+02
   5.016299e+01  -3.337547e+02
  -5.620325e+01  -1.535328e+02
  -1.004667e+01  -7.100485e+01
   1.218551e+02  -1.154927e+02
   2.605746e+02  -1.154188e+02
   2.387738e+02   9.610005e+01
   7.435048e+01   2.101609e+02
  -1.068235e+02   1.263775e+02
  -1.697530e+02  -2.942652e+01
  -1.017022e+02  -2.728964e+02
   7.437346e+01  -2.182204e+02
   2.595896e+02  -8.218724e+01
   2.693552e+02   2.025131e+02
   1.316318e+02   2.699395e+02
  -6.576743e+01   2.579939e+02
  -1.488099e+02   1.380393e+02
  -1.331927e+02   4.746263e+01
  -1.136936e+02   6.422177e+01
  -2.366233e+02   5.069840e+01
  -3.927894e+02  -1.360185e+02
  -2.947867e+02  -2.899036e+02
   5.308493e+01  -4.223481e+02
   2.829596e+02  -3.622126e+02
   4.238426e+02  -1.405793e+02
   2.927758e+02   1.216031e+02
   6.262853e+01   2.395061e+02
  -9.691742e+01   2.197324e+02
  -8.009854e+01  -6.728397e+00
   9.340794e+01  -4.953206e+01
   1.233234e+02  -2.508604e+01
  -2.517218e+01   1.553007e+02
  -1.033119e+02   7.642781e+01
  -1.231171e+02  -8.856656e+01
   4.707450e+01  -1.138327e+02
   1.559919e+02  -2.292800e+01
   1.147560e+02   2.891364e+02
  -9.641545e+00   3.196128e+02
  -2.068394e+02   1.706341e+02
  -3.187533e+02  -7.971556e+01
  -2.498481e+02  -2.223801e+02
  -7.133515e+01  -2.549893e+02
   1.192794e+02  -9.454526e+01
   2.007273e+02   8.940845e+00
   2.852253e+01   4.146483e+01
  -7.268958e+01  -2.411017e+01
   1.200144e+01  -1.132103e+02
   1.317592e+02  -8.459954e+01
   9.921569e+01   5.088831e+01
   6.519176e+01   4.300910e+01
  -8.853759e+01   1.019862e+01
  -4.292651e+01  -4.517155e+01
   1.258502e+02  -1.367551e+02
   2.924104e+02   3.524235e+01
   2.259978e+02   1.488626e+02
   4.484338e+01   2.505547e+02
  -2.355284e+02   2.133203e+02
  -2.189325e+02   5.716679e+01
  -1.398806e+02  -4.913431e+01
   1.430373e+00  -7.642214e+01
   3.372796e+01  -1.344857e+00
  -5.099604e+01   3.007378e+01
  -2.282895e+02   7.929597e+01
  -1.811795e+02  -1.006143e+02
  -2.602829e+01  -1.663689e+02
   8.119005e+01  -1.283069e+02
   1.124689e+02   1.652775e+01
   3.302833e+01   4.160244e+01
  -3.141687e+01  -6.671103e+01
  -2.805861e+01  -6.082360e+01
   1.097649e+02  -1.001243e+02
   1.789276e+02  -3.759269e+00
   1.310069e+02   1.551646e+02
   1.412217e+01   1.449552e+02
  -1.163379e+02   1.155751e+02
  -1.723194e+02   2.037294e+01
  -6.057124e+01  -7.019249e+01
   8.450298e+01  -7.449386e+01
   5.995710e+01  -2.288447e+01
   1.743771e+01   2.621409e+01
  -2.609511e+01   2.975660e+01
   3.931345e+01   9.013264e+00
   8.015514e+01   1.425681e+01
   1.396764e+02   6.763186e+01
   1.939290e+01   1.591809e+02
  -7.776181e+01   9.384882e+01
  -2.250121e+02  -3.425625e+01
  -1.966811e+02  -1.150364e+02
  -4.219639e+01  -2.055217e+02
   8.113023e+01  -1.265369e+02
   1.075417e+02   3.143702e+01
   9.862018e+01   6.927951e+01
   1.900309e+01   5.766721e+01
   4.279273e+01  -3.018689e+01
   5.351594e+01   3.688710e+01
   6.395064e+01   6.828286e+01
  -3.022456e+01   9.772571e+01
  -1.163473e+02   3.524462e+01
  -9.626453e+01  -5.151982e+01
   3.456120e+01  -1.191611e+02
   1.339952e+02  -8.384144e+01
   1.618999e+02   4.897261e+01
   6.116629e+01   1.819388e+02
  -1.002083e+02   2.259328e+02
  -2.162242e+02   8.918013e+01
  -2.179977e+02  -5.397129e+01
  -8.182075e+01  -1.595117e+02
   3.194189e+01  -1.371097e+02
   7.015463e+01  -9.025992e+01
   7.761280e+01  -8.537510e+01
   6.603309e+01  -8.039866e+01
   7.311267e+01  -9.151417e+01
   1.411250e+02   3.181537e+01
   7.544244e+01   1.713107e+02
   6.879144e+00   2.035577e+02
  -1.280271e+02   1.203970e+02
  -1.227471e+02   1.881601e+01
  -1.086124e+02  -1.134057e+02
   6.908928e+00  -1.184603e+02
   8.917441e+01  -8.960612e+01
   2.104940e+01   3.076986e+01
   2.130977e+01   5.379311e+01
   3.193831e+01   4.041215e+01
   5.668074e+01  -4.440413e+00
   1.153324e+02   1.615129e+01
   1.795845e+01   2.444715e+01
  -6.911806e+01   3.809550e+01
  -1.525359e+02  -2.749306e+01
  -8.845229e+01  -6.617869e+01
   2.906759e+00  -1.051622e+02
   1.358352e+02  -3.456379e+01
   1.359688e+02   1.464043e+01
   1.390909e+01   9.196069e+00
  -5.147770e+01   5.646945e+00
  -7.488821e+01  -3.631105e+01
  -3.448601e+01  -4.580835e+01
  -2.161741e+01  -4.895163e+01
   3.311212e+01  -2.812557e+01
   4.842755e+00   4.596291e+01
   2.660483e+01  -7.124454e-01
   4.039720e+01  -4.385490e+01
   6.028110e+01   3.807395e+00
   1.003359e+01   5.836245e+01
  -7.328828e+01   1.084980e+02
  -9.992377e+01   1.021531e+02
  -1.271248e+02   3.147073e+01
  -9.577419e+01  -8.676218e+01
   7.664004e+00  -1.002302e+02
   1.252877e+02  -4.373322e+01
   3.088341e+01  -2.053758e+01
  -8.734900e+01  -6.637938e+00
  -1.412428e+02  -3.161891e+01
  -3.833003e+01  -7.874645e+01
   7.502560e+01  -9.836977e+01
   1.653919e+02   2.869320e+01
   1.355504e+02   5.613558e+01
   5.224017e+01   4.597376e+01
  -4.775407e+01   3.534785e+01
  -5.183213e+01  -8.487101e+00
  -2.241813e+00  -2.889083e+01
   3.641324e+01  -3.293386e+00
   3.371804e+01   8.561599e+01
  -2.881399e+01   1.600444e+02
  -1.183153e+02   5.385436e+01
  -9.533092e+01  -7.251716e+01
   1.218144e+00  -1.725803e+02
   4.714083e+01  -1.206719e+02
   1.216067e+02   4.496982e+01
   5.884501e+01   1.126604e+02
   3.290362e+01   5.546000e+01
  -5.100005e+01  -1.266731e+01
  -2.832832e+01   8.771796e+00
  -1.014375e+01  -2.177136e+00
   2.274414e+01  -2.332085e+00
   1.189845e+00  -2.558249e+01
  -1.044395e+02  -9.759406e+01
  -2.476401e+01  -1.115171e+02
   5.720928e+01  -7.799416e+01
   1.297940e+02   3.910933e+01
   1.090927e+02   6.966567e+01
  -1.861951e+01   6.172695e+01
  -6.934699e+01   4.568754e+00
  -6.413250e+01   2.449341e+01
  -5.851330e+00  -2.062588e+01
   4.052799e+01  -3.286729e+01
   2.854677e+01  -1.078213e+01
  -2.048397e+01  -1.311028e+01
   3.194396e+01   3.771050e+00
   5.755780e+01   1.490744e+01
   8.427994e+01   1.980122e+01
   2.681800e+01   5.065505e+01
  -7.433209e+01   7.810276e+01
  -1.862712e+02   4.196138e+01
  -1.468232e+02  -4.151786e+01
  -4.732500e+01  -1.569075e+02
   3.684200e+01  -1.308325e+02
   7.263163e+01  -1.123133e+02
   5.222232e+01  -3.281182e+01
  -1.481964e+01   5.261129e+00
  -1.258506e+01   2.921057e+01
   5.613771e+00   2.348916e+01
   3.758067e+01   2.465669e+01
  -3.350308e+01   1.360013e+02
  -5.036162e+01   7.300494e+01
  -5.912580e+01   2.437916e+00
  -3.332677e+01  -1.300388e+02
   1.968392e+01  -1.102563e+02
   7.029991e+01  -4.478546e+01
   1.030725e+02   6.312290e+01
  -2.527026e+01   1.246881e+02
  -6.207488e+01   7.137874e+01
  -1.285901e+02  -1.372526e+01
  -2.884757e+01  -5.172395e+01
   3.393524e+01  -3.030683e+01
   4.124185e+01  -2.390726e+01
  -1.881193e+01   2.726268e+01
  -6.336467e+01   1.238497e+01
  -5.783622e+01  -5.256230e+01
   5.042225e+01  -5.649332e+01
   8.645531e+01  -3.479918e+01
   7.280284e+01   8.258124e+01
  -2.290432e+01   6.670952e+01
  -6.700927e+01   6.936711e+01
  -6.867476e+00  -2.395192e+01
  -2.022949e+01  -4.562599e+01
  -9.860124e+00   2.697750e+01
   3.659873e+01   6.155911e+00
   4.632138e+01   4.848712e+01
   4.840844e+00   2.909170e+01
  -5.745196e+01   6.024536e+01
  -4.246553e+01  -1.510132e+01
  -4.535819e+01  -2.702768e+01
  -1.499853e+01   1.342757e+01
  -1.529999e+01   9.639678e+00
  -5.587725e+00  -1.948852e+01
  -8.197687e+00  -2.211461e+01
   1.236395e+01  -4.736746e+01
   1.971301e+01   2.878773e+01
   3.741532e+01   6.925343e+01
  -3.945508e+01   1.995516e+01
  -6.989420e+01  -1.872708e+01
  -3.870166e+01  -7.307136e+01
   7.767475e+01  -2.085066e+01
   6.605193e+01   1.952275e+01
   3.683761e+01   9.119131e+01
  -1.351658e+01   5.726931e+01
  -5.770177e+01   2.923931e+01
  -8.765854e+00  -2.289208e+01
   2.976685e+00  -2.049633e+00
   2.802329e+01  -1.511247e+00
  -1.071634e+01   2.179690e+01
  -5.039849e+01  -8.282422e+00
