
 $NMID
 id='ANONYMOUS ', fmtdat='(2E16.6)'
 volume=1.0
 tramp=1.0
 $END
  -2.600710e+03   5.283408e+01
  -1.731365e+03  -1.144387e+03
   7.476323e+01  -1.581943e+03
   8.577210e+02  -1.029756e+03
   7.702143e+02  -1.548145e+02
   7.657381e+01   2.624724e+02
  -3.084424e+02  -1.452125e+02
  -5.012886e+01  -4.887374e+02
   3.632352e+02  -4.568622e+02
   5.702155e+02  -4.112061e+01
   3.584123e+02   3.914629e+02
  -2.600167e+01   5.124449e+02
  -2.629911e+02   1.540040e+02
  -1.757104e+02  -3.880172e+02
   1.027646e+02  -4.961025e+02
   3.557038e+02  -1.078339e+02
   2.984868e+02   3.679272e+02
  -9.083607e+01   5.010266e+02
  -3.852897e+02   2.233106e+02
  -3.646488e+02  -1.827138e+02
  -8.794292e+01  -2.670259e+02
   1.006585e+02  -1.941271e+02
   4.519987e+01  -5.559770e+01
  -1.648867e+02  -6.195734e+01
  -2.287611e+02  -2.643960e+02
  -2.866449e+01  -3.506998e+02
   4.020457e+02  -1.518447e+02
   5.811502e+02   2.131672e+02
   1.545776e+02   3.007327e+02
  -2.816277e+02   1.878030e+02
  -4.032833e+02  -9.138491e+01
  -1.976122e+02  -2.712798e+02
   2.243670e+02  -2.824319e+02
   3.613247e+02  -1.019947e+02
   2.913437e+02   2.085026e+02
  -9.152515e+00   2.329746e+02
  -7.076828e+01   1.173367e+02
   4.629157e+01  -6.095828e+01
   1.499038e+02  -8.928288e+01
   1.350711e+02   8.609356e+01
   2.840681e+01   4.119477e+02
  -1.720368e+02   3.818126e+02
  -2.905144e+02   2.048106e+01
  -1.524891e+02  -2.853580e+02
   1.324717e+02  -8.937391e+01
   1.475849e+02   2.336474e+02
  -3.425822e+01   3.570562e+02
  -3.739366e+02   4.290562e+01
  -4.158155e+02  -2.629358e+02
  -1.395280e+02  -4.469020e+02
   2.093129e+02  -2.780372e+02
   4.665490e+02   8.567959e+01
   3.262379e+02   2.047745e+02
  -8.355098e+01   1.887486e+02
  -2.403174e+02   8.511413e+01
  -1.562516e+02  -7.090691e+01
   1.009241e+00   9.342996e+00
   3.076937e+01   4.310431e+01
  -8.407332e+01   4.517983e+01
  -1.803581e+02  -6.588381e+01
  -1.165118e+02  -1.430842e+02
   1.055409e+02  -2.251597e+02
   3.823274e+02  -1.297818e+02
   2.492243e+02   8.308195e+01
  -4.524428e+01   2.993820e+02
  -2.492514e+02   3.159056e+02
  -3.182037e+02   6.368187e+01
  -2.023337e+02  -1.749876e+02
  -2.000759e+01  -2.821992e+02
  -1.681732e+01  -2.573359e+02
  -4.914440e+01  -1.450456e+02
   1.319282e+01  -1.075465e+02
   1.105345e+02  -1.243005e+02
   2.133149e+02  -9.511205e+01
   1.779958e+02   1.165740e+02
   3.139423e+01   2.174293e+02
  -1.252040e+02   1.428222e+02
  -2.008007e+02  -6.656108e+01
  -9.857573e+01  -2.807329e+02
   8.303445e+01  -2.193815e+02
   2.463958e+02  -3.002261e-01
   2.664760e+02   1.146310e+02
   1.719897e+02   2.542134e+02
  -5.721179e+01   2.078970e+02
  -1.144333e+02   1.682617e+02
  -1.609257e+02   1.268672e+02
  -1.032060e+02   6.490537e+01
  -2.761953e+02  -1.565590e+01
  -3.925496e+02  -1.297839e+02
  -2.728088e+02  -2.748771e+02
   2.433268e+01  -3.548238e+02
   3.417002e+02  -3.481899e+02
   4.184734e+02  -1.319440e+02
   2.494573e+02   1.137767e+02
   7.824410e+00   1.895798e+02
  -8.270254e+01   1.341595e+02
   9.242398e+00   4.016772e+01
   7.818095e+01  -5.908720e+01
   1.245716e+02   2.011982e+01
   6.180427e+01   9.687286e+01
  -8.608127e+01   1.168676e+02
  -1.093565e+02  -4.202209e+01
   7.223475e+01  -1.161500e+02
   1.698315e+02   1.807906e+01
   1.377702e+02   2.307345e+02
  -2.414490e+01   3.115331e+02
  -2.141993e+02   1.791324e+02
  -3.312175e+02  -5.334240e+01
  -2.536232e+02  -2.501661e+02
  -4.698707e+01  -2.513016e+02
   1.274930e+02  -1.212228e+02
   1.358778e+02  -1.071642e+01
   6.385714e+01   3.474219e+01
  -5.254533e+01  -6.561667e+01
   9.943185e+00  -1.117822e+02
   9.581967e+01  -4.486739e+01
   1.272812e+02   5.626297e+01
   4.224653e+01   6.014433e+01
  -1.043603e+02  -2.843592e+01
  -3.832654e+01  -1.099940e+02
   1.298788e+02  -1.116672e+02
   2.487704e+02   3.534934e+01
   2.220818e+02   1.177221e+02
   2.439318e+01   2.741866e+02
  -2.071848e+02   2.139812e+02
  -2.099714e+02   5.214227e+01
  -1.238968e+02  -7.522227e+01
   3.266407e+01  -4.062123e+01
   6.544671e+01   2.290851e+01
  -6.309992e+01   2.141958e+01
  -1.592077e+02   4.616619e+01
  -1.520159e+02  -1.172508e+02
  -6.044422e+01  -1.807270e+02
   1.280227e+02  -1.466742e+02
   1.044160e+02   2.915650e+01
   6.632801e+01   3.151185e+01
  -6.066522e+01  -2.707591e+01
  -6.129006e+01  -1.095255e+02
   2.853488e+01  -1.073137e+02
   2.116472e+02   2.749084e+01
   1.642793e+02   1.082146e+02
   9.571538e+00   1.937078e+02
  -1.237129e+02   8.630145e+01
  -1.724305e+02  -2.876025e+01
  -4.022269e+01  -6.039159e+01
   5.275952e+01  -1.132632e+02
   1.166981e+02  -8.214202e+01
  -3.457827e+00   4.081032e+01
  -8.763682e+01  -1.637431e+01
   5.691164e+00  -1.987223e+01
   5.366580e+01  -3.888636e+00
   8.970702e+01   4.054272e+01
   1.590789e+00   1.227719e+02
  -1.554545e+02   1.358149e+02
  -2.506672e+02  -1.025588e+00
  -1.455602e+02  -1.476323e+02
  -3.508328e+01  -1.477059e+02
   7.707098e+01  -1.691481e+02
   1.441258e+02   1.624490e+00
   5.154634e+01   6.012308e+01
  -8.119470e+00   5.674547e+01
   6.098554e+01  -1.590952e+01
   7.010555e+01  -7.324276e+01
   6.528299e+01   1.021976e+02
  -4.302852e+01   1.011720e+02
  -1.166369e+02   5.865333e+01
  -6.902035e+01  -4.213153e+01
   9.292004e+00  -1.038279e+02
   1.525672e+02  -9.723222e+01
   2.199199e+02   3.161767e+01
   6.553045e+01   2.028727e+02
  -1.630798e+02   1.680525e+02
  -2.473922e+02   7.204808e+01
  -2.319293e+02  -7.167742e+01
  -1.157368e+02  -1.564565e+02
   3.011697e+01  -1.547881e+02
   1.077052e+02  -4.592597e+01
   9.425925e+01  -6.670125e+01
   4.986749e+01  -7.681348e+01
   1.113156e+02  -3.574554e+01
   1.295530e+02   1.443979e+01
   1.007819e+02   1.414456e+02
   3.805947e+01   2.159750e+02
  -6.679247e+01   1.310833e+02
  -1.495410e+02  -1.917352e+01
  -9.082940e+01  -1.115519e+02
   1.913628e+01  -1.438646e+02
   3.176224e+01  -2.689985e+01
   4.583108e+01   1.945445e+01
  -2.450847e+01   3.362220e+01
  -2.899733e+01   7.230432e+01
   3.737229e+01   3.233074e+01
   8.026935e+01   3.557070e+01
   1.388590e+01   3.423069e+01
  -4.913229e+01   2.364322e+01
  -1.182470e+02  -1.349996e+01
  -1.366016e+02  -8.115765e+01
  -5.060083e+00  -1.281673e+02
   9.273756e+01  -6.300568e+01
   1.391228e+02   3.835782e+01
   2.456338e+01   5.518967e+01
  -2.148705e+01   5.202794e+01
  -6.598475e+01  -4.247110e+01
  -6.625774e+00  -6.478278e+01
   5.437711e+01  -1.203376e+02
   6.743096e+01   3.261658e+01
   1.216332e+01   9.108487e+01
   3.972107e+01   9.426547e+01
   1.730194e+01   2.845478e+01
   6.382990e+01  -5.118525e+00
   2.849218e+01   7.906817e+01
  -6.174055e+00   1.717932e+02
  -1.564906e+02   1.188551e+02
  -1.364571e+02   1.688508e+01
  -1.347797e+02  -7.423232e+01
   2.914329e+01  -5.558760e+01
   9.604962e+01  -6.416768e+01
   9.273728e+01   2.392187e+01
  -3.113921e+01   2.339323e+01
  -9.902775e+01   1.581701e+01
  -8.034573e+01  -5.637403e+01
   6.435841e+01  -1.374520e+02
   1.462235e+02   1.350976e+01
   1.685284e+02   6.461761e+01
   2.302228e+01   7.171168e+01
  -6.474251e+01  -3.253319e+00
  -5.859869e+01  -8.789315e+00
   3.714730e+01  -3.120803e+01
   1.057500e+02   2.513888e+01
   5.726898e+00   1.116981e+02
  -7.647853e+01   1.019691e+02
  -1.097290e+02   8.100528e+01
  -8.010596e+01  -1.011435e+02
  -3.981432e+01  -1.484520e+02
   1.265326e+02  -1.344012e+02
   5.252012e+01   2.006898e+00
  -1.023585e+01   9.690613e+01
  -3.107132e-01   8.471826e+01
  -6.088286e+01   6.272987e+00
  -5.122863e+01  -3.446632e+01
   2.933557e+01  -3.736820e+01
   1.577138e+00   3.339996e+00
   1.446230e+01  -2.943200e+00
  -2.703288e+01  -4.267285e+01
  -6.731163e+00  -5.974106e+01
   5.228379e+01  -9.878863e+00
   9.559107e+01   2.092583e+01
   1.319121e+02   8.611437e+01
   2.754209e+01   5.536848e+01
  -4.137525e+01   9.316443e+00
  -7.543919e+01  -1.806537e+01
  -2.701053e+01  -2.418226e+01
   6.185189e+00   1.428713e+01
   9.628002e+00  -1.600243e+01
  -4.760550e+01   2.398690e+01
  -6.525063e+00  -4.292125e+01
   7.076379e+01  -5.323584e+00
   9.524702e+01  -4.043919e+00
   1.948512e+01   8.556652e+01
  -6.985600e+01   1.067113e+02
  -1.540796e+02   5.856967e+01
  -1.364592e+02  -7.328207e+01
  -1.403215e+01  -1.708488e+02
   8.408604e+01  -1.151111e+02
   5.541227e+01  -6.396977e+01
   5.509573e+01   5.048126e+01
   3.852340e+01   5.203942e+01
  -6.523081e+00   3.552162e-01
   7.146076e-01  -2.035931e+01
   7.531196e+01   2.194258e+01
  -1.087769e+01   8.229914e+01
  -6.158576e+01   7.441055e+01
  -1.054287e+02  -3.629231e+01
  -6.484782e+01  -6.571334e+01
  -4.901122e+00  -1.253549e+02
   1.197180e+02  -7.637717e+00
   9.804701e+01   7.149391e+01
   6.516557e+01   1.179779e+02
  -6.628766e+01   7.912224e+01
  -1.047023e+02   2.125211e+01
  -4.077870e+01  -1.001677e+02
   3.425049e+01  -5.422309e+01
   5.327376e+01  -1.055694e+01
  -3.943406e+01   7.850487e+00
  -5.325571e+01   3.023021e+01
  -1.223810e+01  -4.318274e+01
   6.841235e+01  -4.904055e+01
   9.541665e+01  -3.915614e+01
   6.308147e+01   1.356671e+01
   2.193839e+01   1.144037e+02
  -1.004376e+02   8.368577e+01
  -5.571231e+01   1.635054e+00
   2.563637e+00  -5.053827e+01
   4.907283e+01  -5.439014e+01
   1.642432e+01   2.414909e+01
   2.882834e+01   6.413411e+01
  -1.827786e+01   4.409769e+01
  -2.702456e+01   2.409199e+01
  -3.925751e+01  -2.172278e+01
   1.509239e+01   4.217949e+00
  -2.126367e+01   4.581080e+00
  -2.637464e+01   4.439779e+01
   1.177166e+01  -6.349332e+00
  -3.403095e+00  -3.660535e+01
   8.293811e+01   2.753660e+01
   6.143904e+01   4.596190e+01
   4.017900e+01   9.786479e+01
  -4.142286e+01   2.442037e+01
  -8.966337e+01  -4.264027e+01
  -3.750436e+01  -4.418759e+01
   2.740253e+01  -5.106202e+01
   5.335304e+01  -8.997327e+00
   1.176318e+02   3.828533e+01
  -2.072654e+01   5.623630e+01
  -4.528016e+01  -9.739533e-01
  -4.500758e+01  -2.997412e+01
   3.420062e+01  -1.213564e+01
   5.470124e+01  -2.886256e+01
  -2.951871e+01   3.624427e+01
  -6.306687e+01  -3.049964e+01
