
 $NMID
 id='ANONYMOUS ', fmtdat='(2E16.6)'
 volume=1.0
 tramp=1.0
 $END
   2.319750e+03  -2.563402e+02
   1.552158e+03   8.486638e+02
   1.029609e+02   1.329068e+03
  -9.194923e+02   9.624337e+02
  -8.011923e+02   9.955967e+01
   3.288313e+01  -1.764056e+02
   2.484609e+02   1.066392e+02
   4.881095e+01   4.020233e+02
  -3.009989e+02   4.364051e+02
  -4.557058e+02   1.348586e+02
  -3.699198e+02  -3.138257e+02
   2.082325e+01  -4.309747e+02
   2.550372e+02  -1.304477e+02
   2.703679e+02   3.009483e+02
  -1.778129e+01   4.299338e+02
  -2.751048e+02   9.767999e+01
  -2.593230e+02  -3.516332e+02
   8.401596e+01  -4.599349e+02
   3.147301e+02  -2.299195e+02
   3.612189e+02   1.522419e+02
   8.968781e+01   1.846613e+02
  -7.852734e+01   1.663235e+02
  -6.340102e+01   4.191685e+01
   6.756960e+01   3.479109e+01
   1.805768e+02   1.189916e+02
   4.484023e+01   2.308913e+02
  -3.215807e+02   1.067300e+02
  -4.708700e+02  -7.380944e+01
  -1.875308e+02  -2.379949e+02
   2.118127e+02  -2.068466e+02
   3.857063e+02   7.632985e+01
   1.593148e+02   2.412835e+02
  -1.534803e+02   2.577491e+02
  -3.128724e+02   1.261063e+02
  -2.586669e+02  -1.121078e+02
  -6.913117e+00  -1.762020e+02
   7.341176e+01  -1.209978e+02
   1.778382e+01   1.036354e+02
  -7.680271e+01   1.605694e+02
  -1.658263e+02  -5.159182e+01
  -7.356380e+01  -2.852842e+02
   1.141386e+02  -2.860677e+02
   2.108873e+02  -4.713216e+00
   8.000379e+01   2.467332e+02
  -8.491559e+01   1.055902e+02
  -1.722581e+02  -1.368661e+02
   5.293662e+01  -2.579493e+02
   3.332175e+02  -4.967983e+00
   2.838259e+02   2.348317e+02
   1.521493e+02   3.301005e+02
  -2.060639e+02   2.075326e+02
  -3.958642e+02  -6.914127e+01
  -2.740594e+02  -1.624474e+02
   3.494649e-01  -1.976841e+02
   2.198016e+02  -5.788135e+01
   1.582638e+02   1.616016e+01
  -2.585175e+01  -2.460525e+01
  -5.868738e+01  -4.371749e+01
   5.089331e+01  -4.019994e+01
   1.343844e+02   1.605879e+01
   1.277559e+02   1.339179e+02
  -1.281181e+02   1.877551e+02
  -2.533321e+02   1.278983e+02
  -2.222082e+02  -6.127496e+01
  -6.952276e+00  -1.992726e+02
   1.574191e+02  -2.539438e+02
   2.469712e+02  -9.127663e+01
   2.134251e+02   9.202043e+01
   8.098394e+01   2.639853e+02
   4.691067e+01   2.504389e+02
  -4.936083e+01   1.603573e+02
  -3.275187e+01   3.722604e+01
  -1.115452e+02   4.345533e+01
  -1.038584e+02   3.301144e+01
  -1.585880e+02  -7.561818e+01
  -8.205957e+01  -1.890979e+02
   6.175201e+01  -1.428136e+02
   1.527626e+02   3.942076e+01
   1.049694e+02   1.886915e+02
  -2.953902e+01   1.881499e+02
  -1.727016e+02   3.273637e+01
  -2.603432e+02  -1.313969e+02
  -1.702341e+02  -1.695710e+02
   5.797908e+01  -2.177435e+02
   1.228146e+02  -9.415367e+01
   1.202227e+02  -3.238508e+01
   9.181093e+01  -7.947812e+01
   1.264060e+02  -5.513417e+01
   2.654377e+02   3.242718e+01
   2.136909e+02   2.270846e+02
   9.427382e+00   2.717864e+02
  -2.935924e+02   3.090773e+02
  -3.572588e+02   1.595947e+02
  -2.240099e+02  -4.809703e+01
  -7.257181e+01  -1.676939e+02
   7.362046e+01  -1.348864e+02
  -4.163046e+00  -4.418191e+00
  -4.713490e+01   5.278478e+01
  -1.291068e+02  -4.051423e+01
   5.792619e+00  -8.160190e+01
   5.474672e+01  -1.111234e+02
   1.003626e+02  -9.229603e+00
  -7.875509e+01   1.139994e+02
  -1.510742e+02   1.154794e+01
  -1.371140e+02  -1.989775e+02
  -1.712722e+01  -2.763041e+02
   1.761434e+02  -1.316934e+02
   2.290362e+02   3.762976e+01
   1.477325e+02   1.844599e+02
   5.962114e+01   2.007638e+02
  -8.121607e+01   1.037874e+02
  -9.418771e+01   7.578633e+00
  -1.654140e+01  -4.265550e+01
   6.336031e+01   3.636743e+01
   3.027737e+01   6.776461e+01
  -9.927522e+01   6.855358e+01
  -8.782505e+01  -1.425602e+01
   8.525172e+00  -5.585097e+01
   6.720806e+01   2.189820e+01
   7.449215e+00   9.396986e+01
  -1.291114e+02   1.029260e+02
  -1.976124e+02  -2.889126e+01
  -1.715826e+02  -9.724798e+01
  -4.567370e+01  -1.639744e+02
   1.592659e+02  -1.744791e+02
   2.035916e+02  -1.007372e+02
   9.765319e+01   4.051039e+01
  -4.886647e+01   4.038383e+01
  -5.098139e+01  -4.544053e+00
   4.031600e+01  -5.972706e+01
   1.219955e+02  -2.669746e+01
   1.414052e+02   6.026940e+01
   3.475954e+01   1.524538e+02
  -5.425969e+01   1.316569e+02
  -6.943698e+01   2.447723e+01
  -4.911463e+01  -2.474694e+01
   1.100763e+01   4.566600e+00
   4.482973e+01   6.844491e+01
  -7.464918e+01   9.883914e+01
  -1.447649e+02   3.261087e+01
  -1.321227e+02  -1.050991e+02
  -1.559252e+01  -1.323087e+02
   1.073527e+02  -1.123737e+02
   1.444293e+02  -2.310975e+01
   8.617523e+01   6.296406e+01
  -8.230266e+01   7.918563e+01
  -6.744729e+01  -6.898720e-01
  -2.315539e+01  -1.535062e+01
   1.846224e+01   1.728282e+01
  -4.592581e+00   3.424218e+01
  -9.633886e+01   3.505510e+01
  -6.843175e+01  -3.942120e+01
  -3.318017e+01  -1.267404e+02
   1.387712e+02  -1.005347e+02
   1.762246e+02  -3.886065e+01
   1.131105e+02   1.147571e+02
   3.581150e+01   1.210402e+02
  -8.677776e+01   1.537419e+02
  -9.131794e+01   3.038753e+01
  -2.251773e+01  -1.875465e+01
  -2.576908e+01   1.517719e-01
  -3.490080e+01  -1.526113e+01
   2.685957e+00   1.176789e+01
  -2.240891e+01  -3.180967e+01
   2.454641e+01  -9.377529e+01
   5.640065e+01  -2.722097e+01
   5.855977e+01   4.032504e+01
  -2.531426e+01   6.003384e+01
  -1.372184e+02   4.918464e+01
  -1.680419e+02  -5.180455e+01
  -1.013749e+02  -1.700536e+02
   8.851825e+01  -1.460936e+02
   2.216634e+02  -2.276487e+01
   1.903583e+02   7.490026e+01
   4.336564e+01   1.244011e+02
  -9.058367e+00   1.112971e+02
  -1.028533e+02   3.815728e+01
  -2.060647e+01   4.210944e+01
  -5.657482e+01   4.992880e+01
  -8.626041e+01   7.757116e+01
  -1.244223e+02  -2.547208e+01
  -8.339130e+01  -1.123296e+02
  -3.309235e+01  -1.876492e+02
   5.334262e+01  -1.612519e+02
   1.238894e+02  -2.269027e+01
   6.336570e+01   7.798681e+01
   1.647210e+01   1.054119e+02
  -7.842173e+01   6.468165e+01
  -3.323852e+01  -2.749879e+01
  -9.323285e+00  -3.685093e+00
  -6.662686e+00  -3.037925e+01
  -4.148687e+01   8.801049e-01
  -5.659753e+01   1.633520e+00
  -4.889133e+01  -5.347964e+01
   3.182156e+01  -7.001334e+00
   7.853265e+01   2.365146e+01
   1.241119e+02   7.841443e+01
  -3.645994e+01   5.551957e+01
  -8.329620e+01   4.999374e+01
  -1.079185e+02   2.503982e+01
  -4.311123e+00  -3.816335e+01
   4.451339e+01  -4.133457e+00
   1.767277e+01   1.456198e+01
   4.877293e+00   6.701941e+01
  -6.055972e+01   3.344775e+01
  -1.696829e+01   1.165546e+01
  -5.412262e+01  -1.510038e+01
  -4.031338e+01  -1.662356e+01
  -4.271702e+01  -6.200797e+00
  -2.746210e+01  -3.520596e+00
  -6.164836e+01  -7.430218e+01
  -3.881161e+01  -1.403469e+02
   8.417212e+01  -1.038979e+02
   8.619282e+01   8.865505e+00
   1.182434e+02   6.564748e+01
   2.816322e+01   1.044778e+02
  -4.807506e+01   3.003298e+01
  -3.866160e+01   6.633630e+00
   2.472148e+01  -3.988074e+01
   1.264771e+02   1.704471e+01
   3.018400e+01   8.834592e+01
  -6.466559e+01   6.816736e+01
  -1.409491e+02   3.417185e+01
  -1.050814e+02  -4.936523e+01
  -5.946135e+01  -7.523555e+01
   4.156890e+01  -2.780366e+01
   8.730624e+01  -6.195075e+00
  -1.700715e+01   4.367619e+01
  -1.101771e+02  -9.036541e+00
  -8.013452e+01  -6.075288e+01
   4.391148e+01  -9.687394e+01
   8.940133e+01  -5.553744e+01
   1.145404e+02   1.170494e+02
   2.824532e+01   1.639502e+02
  -7.744503e+01   1.092777e+02
  -1.266414e+02   7.112635e-01
  -4.175600e+01  -7.364957e+01
   8.239314e+00  -5.796823e+01
   4.016379e+01   1.382044e+01
  -5.729289e+00   4.095962e+01
   2.898693e+01   5.162278e-01
  -2.660779e+01  -2.069179e+01
   4.062376e+01  -1.895784e+01
   9.837663e+01   4.455000e+01
  -4.779896e+00   7.008561e+01
  -1.055498e+02   6.731769e+01
  -5.840094e+01  -5.351739e+00
  -6.990770e+01  -8.089271e+00
  -9.165951e+00  -3.948910e+01
   1.108444e+01  -8.638694e+00
   2.173688e+01   3.540312e+01
  -1.097438e+01   5.623497e+01
  -1.177237e+01   1.455284e+01
   2.364905e-01  -3.950699e+00
  -1.227233e+01  -3.665190e+00
  -1.776653e+00  -2.492049e+00
  -5.430977e+01   2.690212e+01
  -9.940606e+01  -2.943594e+01
  -3.880882e+01  -7.868292e+01
   6.949282e+01  -8.279112e+01
   1.146191e+02  -3.321461e+01
   1.116103e+02   7.835254e+01
   2.971152e+01   1.339064e+02
  -6.030010e+01   8.583299e+01
  -4.061966e+01   6.201186e+01
  -7.562976e+01  -3.767408e+01
  -8.966735e+00  -2.434634e+01
  -9.859935e+00   8.747338e+00
  -8.827158e+00   2.177368e+00
  -5.295421e+01  -2.286938e+01
  -6.118052e+01  -6.504143e+01
   4.201019e+01  -5.618623e+01
   4.168723e+01  -1.968437e+00
   4.520322e+01   3.046577e+01
  -7.178203e+00   4.921289e+01
  -2.713554e+01   4.574188e+01
  -7.372275e+01  -2.939141e+01
  -1.482530e+01  -4.445401e+01
   2.755840e+01  -2.805223e+01
   5.736120e+01  -1.215704e+01
   5.558020e+01   3.517975e+01
  -3.746901e+01   9.947664e+00
  -1.210462e+01   1.474202e+01
   3.139286e+01  -4.380168e+00
   4.118040e+01  -2.407266e+01
   2.917822e+01  -1.069346e+00
  -7.234293e+01   4.645064e+01
  -6.646881e+01   5.157088e+01
  -4.521226e+01  -5.066054e+00
  -1.222407e+01  -2.343930e+01
   5.253588e+01  -5.858600e+01
   2.044618e+01  -1.424547e+01
   2.678852e+01   4.291485e+01
  -1.398582e+01   5.459908e+01
   4.262016e+00   3.485153e+01
   2.179636e+01  -4.094602e+01
   2.203959e+01  -4.565995e+00
  -1.522910e+01  -1.141670e+00
   4.767433e+01   3.604300e+01
   2.422433e+01   4.335510e+01
  -2.246874e+01   1.204569e+00
   3.453867e+01   6.028687e+00
  -2.259987e+01  -8.918358e+00
  -5.485938e+01   6.747050e+00
   4.717032e+00   3.127318e+01
  -7.647849e+00  -2.681830e+01
   3.656467e+01  -1.507918e+01
   2.734462e+01   1.620034e+01
   3.812688e+01   3.878960e+01
   3.028155e+01   7.430380e+01
  -2.067354e+01   3.858444e+01
  -8.312898e+01  -3.547722e+01
  -4.382124e+01  -5.742790e+01
   5.619751e+01  -3.276095e+01
   4.541553e+01  -2.529284e+01
   1.525127e+00  -2.507635e+01
  -2.719617e+01   1.713335e+01
  -5.674509e+01   1.990142e+01
   1.943602e+01   4.567910e+01
   5.367738e+01  -2.003843e-01
