
 $NMID
 id='ANONYMOUS ', fmtdat='(2E16.6)'
 volume=1.0
 tramp=1.0
 $END
  -2.194230e+03  -1.300754e+02
  -1.213943e+03  -1.559326e+03
   2.666880e+02  -1.115982e+03
   6.274253e+02  -5.025781e+02
   4.537550e+02  -7.184379e+01
  -9.055238e+01  -3.488857e+01
  -1.769806e+02  -1.036526e+02
   6.536408e-01  -4.171817e+02
   3.407947e+02  -2.762251e+02
   4.329686e+02   1.194162e+01
   1.781912e+02   3.058705e+02
  -5.486934e+01   3.696820e+02
  -1.571319e+02   7.346315e+01
  -1.719793e+02  -2.149976e+02
   9.130667e+01  -3.205130e+02
   2.104137e+02  -3.463271e+01
   1.484228e+02   3.153485e+02
  -9.611923e+01   3.163799e+02
  -2.391932e+02   1.397912e+02
  -2.945380e+02  -9.391877e+01
  -5.284970e+01  -1.763708e+02
   1.006805e+02  -9.744606e+01
   1.787585e+01  -5.715194e+01
  -1.264713e+02  -5.331525e+01
  -1.559488e+02  -1.931655e+02
   2.019183e+01  -2.369961e+02
   2.685126e+02  -1.009525e+02
   4.237492e+02   1.394597e+02
   1.055162e+02   2.510465e+02
  -1.975504e+02   8.046321e+01
  -2.530300e+02  -9.153087e+01
  -1.879872e+01  -2.478368e+02
   1.856013e+02  -1.907229e+02
   2.451651e+02  -6.643170e+01
   1.984633e+02   1.377413e+02
   6.981406e+00   1.673384e+02
  -2.707986e+00   8.144634e+01
   5.775550e+01  -9.030317e+01
   1.384360e+02  -6.404218e+01
   1.126230e+02   1.680725e+02
  -6.931023e+01   3.810502e+02
  -2.153300e+02   2.256408e+02
  -2.052867e+02  -2.067938e+01
   1.238240e+01  -2.319815e+02
   1.077785e+02  -4.160613e+01
   1.091063e+02   2.166343e+02
  -1.002791e+02   2.472013e+02
  -3.276815e+02   1.556990e+01
  -2.047724e+02  -2.179293e+02
  -8.176865e+01  -3.053773e+02
   1.872307e+02  -1.628361e+02
   2.878145e+02   5.685252e+01
   1.449938e+02   1.505491e+02
  -5.809587e+01   1.245923e+02
  -2.068829e+02   2.868360e+01
  -1.714837e+02   1.623109e+01
   1.454259e+01   9.024447e+00
   4.927745e+00   3.528526e+01
  -5.792536e+01   5.026496e+01
  -8.815719e+01  -8.621473e+01
  -3.229837e+00  -1.312035e+02
   1.169243e+02  -1.573593e+02
   1.839079e+02  -7.002204e+01
   1.488263e+02   4.655749e+01
   1.082683e+00   1.813147e+02
  -1.543310e+02   2.310830e+02
  -1.830205e+02   2.902925e+01
  -1.621676e+02  -1.708256e+02
   3.660086e+01  -2.231044e+02
   3.773906e+01  -1.908297e+02
   3.224801e+01  -5.732049e+01
  -2.848396e+01  -5.383116e+01
   5.175204e+01  -1.123894e+02
   1.618316e+02   1.213072e+01
   9.372343e+01   7.400852e+01
   6.280481e+01   1.283941e+02
  -5.862867e+01   1.279704e+02
  -6.908857e+01  -2.525025e+01
  -3.477713e+01  -1.618398e+02
   1.373113e+01  -1.303263e+02
   1.416965e+02  -5.327293e+01
   1.862459e+02   1.343929e+02
   1.311766e+02   2.340184e+02
  -2.666180e+01   1.103847e+02
  -7.660151e+01   6.093172e+01
  -5.888842e+01   5.477494e+01
  -8.868752e+01   2.797490e+01
  -1.778611e+02   1.694932e+00
  -2.613923e+02  -5.126400e+01
  -1.834866e+02  -1.657062e+02
   6.177084e+01  -2.653193e+02
   1.291868e+02  -2.324937e+02
   2.630549e+02  -1.193585e+02
   1.381451e+02   4.745178e+01
  -5.584918e+01   1.619398e+02
  -4.966326e+01   1.031375e+02
  -3.310974e+00   6.857282e+01
   5.284466e+01   1.747575e+01
   7.148459e+01   2.536881e+00
  -9.101944e+00   8.505513e+01
  -5.897963e+01   6.437176e+01
  -6.960485e+01  -6.212266e+01
   2.355291e+01  -7.388400e+01
   1.049354e+02   4.944695e+00
   3.197561e+01   1.448243e+02
  -3.005886e+01   1.553451e+02
  -1.318777e+02   6.715496e+01
  -1.743818e+02  -9.871427e+00
  -1.628748e+02  -1.366226e+02
  -2.817067e+01  -1.600781e+02
   5.485922e+01  -6.745307e+01
   8.303126e+01   9.013283e+00
  -6.013720e+00   1.701639e+01
  -2.008345e+01  -2.268069e+01
   4.077318e+01  -1.089688e+02
   7.471930e+01  -2.465849e+01
   6.484155e+01   7.639014e+01
   2.384371e+01   4.185286e+01
  -5.053066e+01   8.959388e+00
  -4.414574e+01  -8.257583e+01
   9.379243e+01   1.466941e+01
   1.986575e+02   2.871760e+00
   1.540955e+02   8.012953e+01
   4.338192e+00   1.037764e+02
  -1.689024e+02   1.067133e+02
  -1.875764e+02   4.934145e+01
  -3.379620e+01  -4.037979e+01
   3.379836e+01  -5.354132e+01
   3.725177e+01  -5.952507e+00
  -4.295940e+01   3.934585e+01
  -1.071389e+02   1.932314e+01
  -1.000356e+02  -7.352686e+01
  -2.936763e+01  -1.218812e+02
   7.437973e+01  -4.473878e+01
   7.085968e+01   3.401433e+01
   4.501519e+01   2.082044e+01
  -6.486700e+00  -3.934385e+01
   3.288248e+01  -7.415012e+01
   3.125694e+01  -1.647487e+01
   1.341097e+02   2.121741e+01
   1.498438e+02   8.052160e+01
  -5.600307e+01   1.243801e+02
  -1.178300e+02   5.795013e+01
  -1.155261e+02  -9.554340e+00
   9.656962e+00  -9.443393e+01
   6.687525e+01  -4.816435e+01
   8.519125e+01  -1.279050e+01
  -6.826330e+00   1.305085e+01
   3.838862e+00   4.589986e+00
  -1.276423e+01   7.187430e+00
   4.610867e+01   3.539531e+00
   2.470938e+01   3.754417e+01
   1.100288e+01   9.326771e+01
  -1.041264e+02   1.139170e+02
  -1.713830e+02  -1.071115e+01
  -1.058747e+02  -9.613223e+01
   4.926728e+00  -1.513098e+02
   7.159007e+01  -8.606544e+01
   5.030443e+01  -3.376201e+01
   3.342121e+01   2.093268e+01
   1.844979e+01   3.505375e+01
   3.926063e+01   3.167508e+01
   3.899324e+01   3.980665e+01
   1.103409e+01   4.882434e+00
  -2.189440e+01   6.463771e+01
  -6.900863e+01   2.003185e+01
  -5.242688e+01  -6.818940e+01
  -4.701352e+01  -8.036877e+01
   6.654016e+01  -6.354149e+01
   1.583671e+02   4.221571e+01
   6.083780e+01   1.666402e+02
  -1.119014e+02   1.132076e+02
  -7.536014e+01   4.028948e+01
  -1.231328e+02  -5.914059e+01
  -1.263517e+02  -8.710403e+01
   1.332748e+01  -9.760176e+01
   3.029195e+01  -3.092147e+01
   1.019481e+01  -4.443275e+00
   6.296458e+01  -8.152814e+01
   1.096869e+02  -5.697066e+01
   4.697766e+01   7.404480e-01
   5.993088e+01   5.894029e+01
  -1.624873e+01   1.570717e+02
  -7.235911e+01   6.581990e+01
  -1.676275e+02  -2.863624e+01
  -6.132390e+01  -1.021134e+02
   4.834929e+00  -8.323514e+01
   2.079601e+01  -4.365495e+01
   3.547236e+01   1.136977e+01
   3.595864e+01   3.051742e+01
  -4.064698e+01  -1.786232e+01
   3.649492e+01  -4.254747e+01
   8.371645e+01  -7.042522e-02
   2.364771e+01   4.715008e+01
  -6.557293e+01   2.693479e+01
  -7.139904e+01  -2.578529e+01
  -1.078516e+02  -5.770343e+01
  -2.159685e+01  -3.034794e+01
   5.199455e+01  -2.699689e+01
   6.546785e+01  -1.321709e+01
   3.230290e+01  -3.461986e-01
  -3.353002e+01  -3.035034e+01
  -5.019449e+01  -2.779473e-01
  -3.221669e+01  -4.076800e+01
   2.582472e+01  -4.629328e+01
   1.389064e+01   4.373960e+01
   2.293506e+01   5.396852e+01
   3.083838e+01   1.577513e+01
   2.212406e+01   3.855346e+00
   1.626996e+01   2.307281e+01
   5.813271e+01   5.794729e+01
  -6.510598e+01   8.383049e+01
  -5.622947e+01   6.734641e+01
  -9.243681e+01   2.353241e+01
  -7.764019e+01  -9.872472e+01
  -1.899653e+01  -9.744280e+01
   6.570928e+01   2.143796e+01
   5.833172e+01  -2.100386e+01
  -1.483695e+01   2.124134e+01
  -7.125802e+01  -1.937162e+01
  -1.386031e+01  -3.194221e+01
   4.755439e+01  -7.438071e+01
   1.496733e+02  -3.553759e+01
   5.824935e+01   4.578587e+01
   5.014775e+01   2.192105e+01
  -8.566207e+01   1.033364e+01
  -3.787929e+01  -1.535392e+01
   5.121462e+01  -2.156735e+01
   5.545919e+01  -2.137309e+01
   3.024730e+01   5.857755e+01
  -4.037236e+01   5.489442e+01
  -6.544156e+01   5.425007e+01
  -6.631989e+01  -5.556859e+01
   3.342346e+01  -1.020801e+02
   4.068542e+01  -9.751658e+01
   5.403664e+01   9.048287e+00
   1.138318e+01   4.587028e+01
  -3.425694e+01   5.584428e+00
  -1.131849e+00   2.661638e+01
  -1.422028e+01  -3.377250e+01
  -2.058678e+00   5.693461e+01
   2.585128e+01  -1.618829e+01
   3.829602e+01   2.241894e+01
  -3.759849e+01  -7.090726e+01
  -3.211323e+01  -7.062195e+01
   5.109362e+01   4.117671e+00
   6.456824e+01   5.363482e+01
   3.282180e+01   5.909848e+01
  -5.625729e+00   5.260238e+01
  -5.040161e+01  -2.374250e+00
  -7.239212e+01   9.207439e+00
   1.821590e+01  -1.255594e+01
   4.028077e+01  -2.020689e+01
  -1.678901e+01   2.176247e+01
   2.504616e+01   5.150867e+00
  -1.672741e+01   2.663481e+00
   2.372748e+01  -2.456631e+01
   7.403331e+01   3.323323e+01
  -1.152915e+01   3.918741e+01
  -6.926522e+01   5.164012e+01
  -8.448581e+01   6.476227e+01
  -7.425858e+01  -5.691714e+01
  -3.335510e+01  -5.608323e+01
   6.090271e+01  -8.385548e+01
   4.758541e+01  -5.538663e+01
   1.645131e+01  -2.256735e+01
   4.497472e+01   5.285787e+01
  -4.190091e+01   3.028134e+00
   5.342594e+00   1.211915e+01
  -2.277363e+01   2.527833e+01
   2.342837e+01   6.461533e+01
  -7.959342e+00   1.193660e+01
   8.838547e+00   2.123745e+01
  -8.211855e+01  -4.100700e+01
   1.170727e+01  -6.945096e+01
   2.421045e+01  -1.471258e+01
   7.095281e+01   3.462873e+01
   8.026272e+00   2.477809e+01
  -2.248825e+01   5.372221e+01
  -5.246248e+01  -2.009131e+01
  -2.552897e+01  -3.056776e+01
   1.500578e+00  -5.252038e+01
   2.662585e+00  -5.611395e+00
  -7.251238e+01   3.091005e+00
  -3.454098e+01   1.950984e+01
  -2.834776e+01  -1.590139e+01
   6.214583e+01  -3.300740e+01
   7.332983e+01  -5.120703e+01
   1.901133e+01   2.127640e+01
   4.118292e+01   7.047784e+01
  -2.241356e+01   8.188463e+01
  -6.457488e+01   3.918264e+01
  -1.505328e+01  -9.511136e+00
  -7.961199e+00  -7.963398e+00
  -1.865363e+01   1.034183e+01
   1.932077e+01   3.553469e+01
   7.585717e+00   4.064431e+01
   1.703613e+01  -1.153471e-01
  -1.601699e+01  -6.300381e+01
  -1.213055e+01  -9.814320e+00
  -2.996633e+01   2.150374e+01
   2.587011e+01   2.481213e+01
  -1.812172e+01  -1.082543e+01
  -4.849741e+01  -5.407844e+01
   6.540975e+00  -6.611647e+01
   6.384061e+01   2.903144e+01
  -2.757864e+01   5.866669e+01
   1.225292e+00  -6.686441e+00
  -3.210672e+01  -3.571783e+01
   3.287565e+01  -4.191554e+01
   7.859954e+01  -2.793932e+01
   5.661936e+01   4.262198e+01
   3.729492e+01   7.650225e+00
  -3.841382e+01   2.532190e+01
  -1.684710e+01   8.565198e+00
  -1.428179e+01   6.967537e+00
   4.913109e+01   1.286615e+01
   4.211853e+01   1.558900e+01
  -3.950391e+00   1.029027e+01
   9.617835e+00   7.021567e+00
