
 $NMID
 id='ANONYMOUS ', fmtdat='(2E16.6)'
 volume=1.0
 tramp=1.0
 $END
   2.948310e+03   1.880273e+02
   1.743735e+03   1.521141e+03
  -3.067785e+01   1.802394e+03
  -1.141189e+03   1.078530e+03
  -7.860599e+02   2.022889e+02
  -8.114339e+00  -2.811274e+02
   3.606022e+02   1.455175e+02
   6.106920e+01   5.275924e+02
  -4.846021e+02   5.623433e+02
  -6.250880e+02   6.491476e+01
  -3.545885e+02  -4.686268e+02
   2.102323e+01  -6.202726e+02
   2.959420e+02  -1.199751e+02
   1.888623e+02   4.027633e+02
  -9.397048e+01   5.131725e+02
  -3.954246e+02   3.077243e+01
  -2.609562e+02  -4.554995e+02
   1.298351e+02  -5.405435e+02
   3.969180e+02  -2.006217e+02
   3.629963e+02   1.968427e+02
   8.969554e+01   2.646728e+02
  -1.199476e+02   2.031731e+02
  -1.193617e+01   7.293496e+01
   2.038908e+02   9.404969e+01
   2.637163e+02   2.536745e+02
  -3.079573e+01   3.681396e+02
  -4.354092e+02   1.562659e+02
  -5.231217e+02  -1.837261e+02
  -2.056692e+02  -3.606829e+02
   3.430636e+02  -1.847773e+02
   4.674707e+02   1.380971e+02
   1.729835e+02   3.642827e+02
  -2.291035e+02   3.035022e+02
  -4.055602e+02   7.348630e+01
  -2.903360e+02  -1.564555e+02
  -1.325690e+01  -2.828293e+02
   3.862380e+01  -1.997682e+02
  -2.361844e+01   1.315623e+02
  -1.566609e+02   1.001751e+02
  -1.960701e+02  -1.327848e+02
   1.007810e+01  -5.144221e+02
   2.161267e+02  -4.510674e+02
   2.775381e+02   1.283522e+01
   7.849443e+01   3.112374e+02
  -1.520997e+02   8.777431e+01
  -1.943674e+02  -2.860938e+02
   1.145559e+02  -3.419941e+02
   4.335779e+02  -8.399337e+01
   4.762800e+02   3.774880e+02
   1.515385e+02   4.586338e+02
  -2.882783e+02   2.540098e+02
  -5.169338e+02  -3.597259e+01
  -3.134933e+02  -2.061309e+02
   6.120713e+01  -1.869332e+02
   2.236362e+02  -5.274354e+01
   1.892516e+02   3.284929e+01
  -3.921560e+00  -1.112728e+01
  -5.640585e+01  -3.141821e+01
   1.686910e+02   1.406730e+01
   2.556787e+02   9.104347e+01
   1.067252e+02   2.048954e+02
  -1.627016e+02   1.925159e+02
  -3.207478e+02   9.499341e+01
  -2.288049e+02  -8.925198e+01
   3.603421e+01  -3.205058e+02
   2.559045e+02  -3.033739e+02
   3.197328e+02  -1.365184e+02
   2.305728e+02   1.280076e+02
   3.313868e+01   2.839434e+02
  -5.671217e+01   3.429334e+02
   1.267942e+00   1.520047e+02
  -3.098349e+01   1.249279e+02
  -1.084003e+02   9.854527e+01
  -2.154727e+02   1.862083e+01
  -2.317055e+02  -1.260795e+02
  -9.173871e+01  -2.271638e+02
   1.065622e+02  -1.710565e+02
   2.214223e+02   4.149490e+01
   1.201163e+02   2.294810e+02
  -9.106586e+01   2.026277e+02
  -2.400563e+02   5.758073e+01
  -3.134644e+02  -1.305951e+02
  -7.960483e+01  -2.923812e+02
   5.879197e+01  -2.708285e+02
   1.528723e+02  -1.689880e+02
   1.316068e+02  -6.372134e+01
   1.165032e+02  -5.576020e+01
   2.642901e+02  -5.511852e+01
   3.975576e+02   1.138399e+02
   3.002353e+02   3.152217e+02
   4.454521e+00   3.656922e+02
  -2.876220e+02   3.964614e+02
  -4.369163e+02   1.983940e+02
  -2.614705e+02  -7.902549e+01
  -2.020591e+01  -2.391384e+02
   9.608698e+01  -2.285656e+02
   2.833926e+01  -5.085947e+01
  -7.273958e+01   4.365281e+01
  -1.388106e+02  -1.972094e+01
  -3.505670e+01  -1.617171e+02
   6.926575e+01  -1.253798e+02
   9.169837e+01   2.536057e+01
  -4.980702e+01   1.415391e+02
  -1.810685e+02   2.162203e+00
  -1.745246e+02  -2.299618e+02
  -1.936732e+00  -3.478895e+02
   1.885951e+02  -1.812438e+02
   3.293106e+02   4.110351e+01
   2.599150e+02   2.298568e+02
   1.266443e+00   2.184369e+02
  -1.176184e+02   1.175184e+02
  -1.433755e+02  -1.198567e+01
  -2.198001e+01  -2.997617e+01
   4.959590e+01   7.641331e+00
  -5.854297e+01   1.319930e+02
  -1.115464e+02   4.213006e+01
  -1.396888e+02  -7.747981e+01
  -5.593086e+01  -6.645460e+01
   7.075812e+01  -2.134359e+01
   8.501118e+01   1.022232e+02
  -1.676939e+02   1.219157e+02
  -2.788347e+02   3.110817e+00
  -2.404539e+02  -2.074997e+02
  -1.477277e+01  -2.086684e+02
   1.817494e+02  -2.398352e+02
   1.683593e+02  -5.520497e+01
   1.160051e+02   4.094294e+01
  -1.002044e+02   8.794021e+01
  -1.106477e+02  -2.229393e+01
   4.469204e+01  -1.138196e+02
   2.393374e+02  -4.334611e+01
   1.776447e+02   1.185366e+02
   5.841715e+01   1.839724e+02
  -8.992793e+01   1.060034e+02
  -1.640130e+02  -9.766289e+00
  -4.571699e+01  -9.456546e+00
   3.559956e+01  -1.879644e+01
   4.670334e+01   5.155247e+01
  -8.209594e+01   1.065770e+02
  -2.060592e+02   7.577946e+01
  -1.934783e+02  -1.223493e+02
   2.247606e+01  -1.742066e+02
   1.164582e+02  -1.266758e+02
   1.830085e+02  -4.019303e+00
   2.981037e+01   6.848917e+01
  -7.995455e+01   8.197455e+01
  -1.065483e+02  -4.775139e+00
  -2.780204e+01  -3.102026e+01
   2.656633e+01  -2.270734e+01
  -3.529448e+01   1.394643e+00
  -8.356159e+01   4.125678e+01
  -1.036714e+02  -1.045885e+02
  -3.401167e+01  -1.818302e+02
   1.251281e+02  -1.429737e+02
   2.565664e+02  -2.018998e+01
   1.900557e+02   1.759278e+02
   6.424815e+01   1.978176e+02
  -8.128069e+01   1.682008e+02
  -9.390023e+01   1.324319e+01
  -9.142869e+01  -8.357205e+01
  -3.592732e+01  -2.740215e+01
  -2.803474e+01   8.839848e+00
  -8.288626e+01   3.037198e+01
  -7.252340e+01  -6.515966e+01
   2.545341e+01  -9.851328e+01
   1.182123e+02  -1.057865e+02
   1.278355e+02  -1.778591e+01
  -1.986204e+01   1.641500e+02
  -1.903978e+02   1.012149e+02
  -2.280837e+02  -3.081401e+01
  -6.846499e+01  -2.067624e+02
   1.207955e+02  -2.547079e+02
   2.614306e+02  -9.921955e+01
   2.604604e+02   8.538493e+01
   7.218802e+01   1.778881e+02
  -3.074764e+01   1.521033e+02
  -9.738357e+01   2.873831e+01
  -7.123404e+01   4.023811e+01
  -6.566034e+01   7.468150e+01
  -9.523536e+01   7.139685e+01
  -1.536078e+02  -2.000020e+01
  -1.075565e+02  -1.230935e+02
  -4.321245e+00  -2.590619e+02
   8.726081e+01  -1.752704e+02
   1.687863e+02   2.997338e+01
   8.949373e+01   1.738230e+02
  -1.616706e+01   1.302031e+02
  -1.488343e+02   4.429569e+01
  -3.090059e+01  -3.226847e+01
   1.021004e+01  -2.951704e+01
   7.098826e+01  -4.876130e+01
   1.761002e+01  -4.115100e+00
  -8.455293e+01  -1.765741e+01
  -2.367796e+01  -6.962744e+01
   8.741964e+01  -3.216371e+01
   1.525641e+02   2.025771e+01
   9.876651e+01   8.828537e+01
   2.205584e+01   9.453688e+01
  -1.241264e+02   4.763914e+01
  -1.449258e+02  -1.358660e+01
  -2.645245e+01  -5.811515e+01
   5.158113e+01  -2.927549e+01
   6.192318e+01   4.291735e+01
  -1.320956e+01   3.359089e+01
   6.679850e+00   5.534179e+01
  -5.287275e+01   1.517758e+01
  -3.762973e+01  -8.062631e+00
  -5.012861e+01  -2.619236e+01
  -3.174076e+01  -2.744413e+01
  -4.628567e+01   3.153295e+01
  -1.026091e+02  -9.123069e+01
   1.329944e+01  -1.560629e+02
   1.404484e+02  -1.000392e+02
   1.734723e+02  -5.305424e+01
   1.053391e+02   7.949053e+01
  -3.604916e+00   1.097239e+02
  -1.024303e+02   3.183685e+01
  -6.355306e+01  -1.943427e+01
   5.928412e+01  -9.383891e+00
   1.274014e+02   2.191659e+01
   3.868032e+01   1.036807e+02
  -1.069389e+02   1.570305e+02
  -1.323490e+02   4.521780e+01
  -1.106892e+02   8.986925e-01
  -4.309046e-01  -4.698115e+01
   1.787310e+01  -6.619315e+01
   6.722827e+01   1.048251e+01
  -3.639738e+01   5.395887e+01
  -7.421982e+01  -3.551084e+01
  -3.669272e+01  -8.716584e+01
   6.053681e+01  -1.271896e+02
   1.715377e+02  -6.862646e+01
   1.082194e+02   5.127506e+01
   4.105221e+01   1.570864e+02
  -6.732165e+01   1.618528e+02
  -1.005012e+02  -8.588491e+00
  -3.773886e+01  -8.326495e+01
   1.712745e+01  -1.128325e+02
   3.190465e+01   1.175596e+01
   6.029146e+01  -1.119231e+01
   4.059106e+00   3.966296e+01
   5.914563e+00  -2.429727e+01
   2.215615e+01   2.870795e+01
   4.767189e+01   4.850169e+01
  -7.548068e+00   1.091272e+02
  -9.144096e+01   3.402934e+01
  -1.665089e+02  -8.113248e+01
  -1.105384e+02  -5.706265e+01
   9.794380e+00  -1.104988e+02
   7.788644e+01  -5.301136e+01
   6.875394e+01  -8.159003e+00
   4.425670e+01   1.566432e+01
  -6.195135e+01   1.044815e+01
  -2.625559e+01  -2.326590e-01
   2.442589e+00  -5.216112e+00
  -1.289430e+01  -5.019037e+00
  -4.851434e+01   4.598456e+00
  -8.338817e+01  -6.139619e+01
  -3.751715e+01  -8.463489e+01
   1.003028e+02  -9.514823e+01
   2.022514e+02  -9.566388e+01
   1.711364e+02   1.326378e+01
   3.845088e+01   1.435304e+02
  -3.335857e+01   1.390302e+02
  -1.426583e+02   7.144513e+01
  -5.697086e+01  -1.828663e+01
  -4.633825e+01  -8.627405e+01
  -9.792223e+00  -6.323219e+01
  -8.063430e+00  -1.525278e+01
  -1.811756e+00  -2.918177e+01
   9.030414e-01  -7.648694e+01
  -2.702645e+00  -4.854544e+01
   8.064274e+01   7.082406e+00
   5.572224e+01   7.805699e+01
  -1.785719e+01   1.197655e+02
  -6.528409e+01   7.544162e+01
  -1.598845e+02  -6.608370e+01
  -6.201699e+01  -1.701822e+02
   8.344597e+01  -2.341247e+01
   1.017348e+02  -2.404319e+01
   5.891429e+01   9.042326e+01
  -3.845262e+01   3.078448e+01
  -2.816754e+01   2.690345e+01
   3.944267e+00   2.184827e+00
   3.791609e+01   3.026303e+01
  -6.322289e+00   2.894827e+01
  -8.423516e+01   8.642576e+01
  -8.989870e+01   6.816179e+01
  -9.102529e+01  -9.130486e+00
   2.502641e+01  -5.900165e+01
   2.634555e+01  -1.054193e+02
   5.022112e+01  -2.294374e+01
   1.872803e+01   4.338685e+01
   6.917287e-01   4.004902e+01
  -1.858934e+01   2.617164e+01
  -2.163233e+01  -6.786587e+00
  -2.391761e+01  -7.596620e+00
   5.759676e+01  -4.745100e+00
   4.951292e+01   4.108280e+01
   1.814329e+01   2.311234e+01
  -3.264842e+01  -5.263070e+01
  -1.641525e+00  -1.615508e+01
   1.026192e+00   1.761221e+01
   1.067762e+00   7.152273e+01
   4.113743e+00   3.030399e+01
  -4.149461e+01  -3.773579e+01
  -2.027239e+01  -4.954245e+01
   2.389378e+01  -2.887608e+01
   7.238988e+01   2.273523e+00
   4.658288e-01   9.959320e+01
  -5.717528e+01   5.265485e+01
  -1.360354e+02  -5.472220e+01
  -7.273311e+01  -2.805354e+01
   3.317926e+01  -4.965236e+01
   8.539453e+01  -5.047164e+01
  -1.049359e+01  -3.297559e+00
  -1.264253e+01   4.731673e+00
  -3.712588e+01  -1.716688e+01
   4.418869e+01  -2.074305e+01
   7.718715e+01   5.181096e+00
