
 $NMID
 id='ANONYMOUS ', fmtdat='(2E16.6)'
 volume=1.0
 tramp=1.0
 $END
   2.557286e+03   7.205549e+01
   1.345358e+03   2.214906e+03
  -4.671482e+02   1.954801e+03
  -1.494656e+03   7.741795e+02
  -8.156628e+02  -4.749267e+02
   3.308291e+02  -4.564997e+02
   6.260991e+02   2.001593e+02
   4.159457e+01   7.275681e+02
  -5.309132e+02   5.838549e+02
  -7.837420e+02  -4.932899e+01
  -4.134587e+02  -6.550170e+02
   2.178705e+02  -6.656626e+02
   5.110444e+02  -8.627339e+01
   2.738034e+02   4.630732e+02
  -1.795381e+02   6.122637e+02
  -4.543635e+02   2.978368e+01
  -2.455453e+02  -4.717605e+02
   2.522152e+02  -5.104849e+02
   5.017016e+02  -1.157233e+02
   3.422228e+02   2.633367e+02
   1.585347e+01   3.560607e+02
  -2.292646e+02   2.093710e+02
  -1.611987e+02  -6.437955e+01
   1.378884e+02  -8.318103e+01
   3.041682e+02   1.435630e+02
   1.639529e+02   3.749304e+02
  -3.113053e+02   2.811618e+02
  -5.923727e+02  -4.003665e+01
  -2.692841e+02  -3.690552e+02
   2.446354e+02  -3.425950e+02
   5.201310e+02   6.074602e+01
   2.091923e+02   3.323682e+02
  -1.643672e+02   3.692855e+02
  -4.556773e+02   1.456633e+02
  -3.295649e+02  -1.915471e+02
  -1.355682e+01  -3.194182e+02
   1.820357e+02  -2.111009e+02
   9.351243e+01   1.846266e+02
  -1.046157e+02   3.578753e+02
  -3.000801e+02  -5.186116e+01
  -9.279552e+01  -4.270207e+02
   3.039152e+02  -5.696410e+02
   3.981221e+02   5.880698e+01
   2.002482e+02   3.234192e+02
  -2.226391e+02   2.102743e+02
  -2.680164e+02  -2.250518e+02
   6.623262e+01  -3.823502e+02
   3.713177e+02  -1.237597e+02
   4.232975e+02   2.786608e+02
   1.243955e+02   4.118705e+02
  -2.611374e+02   2.066707e+02
  -4.618754e+02  -4.507355e+01
  -2.760211e+02  -3.621680e+02
   1.175787e+02  -2.647080e+02
   2.699612e+02  -5.963289e+01
   1.613609e+02   1.259523e+02
  -6.589452e+01   8.293914e+01
  -1.035824e+02  -7.336102e+01
   8.330568e+01  -1.831713e+02
   2.583015e+02   3.429761e+01
   1.532392e+02   1.832576e+02
  -1.404293e+02   2.588602e+02
  -2.667969e+02   5.391432e+01
  -1.539672e+02  -1.019440e+02
   7.310949e+01  -2.230836e+02
   1.800128e+02  -2.300673e+02
   2.787131e+02  -1.233936e+02
   1.969101e+02   1.674324e+02
   1.075389e+01   3.127301e+02
  -8.881312e+01   2.551674e+02
  -2.861351e+01   5.401176e+01
  -2.879290e+00   8.249892e+00
  -6.458209e+01   3.995469e+01
  -1.555976e+02   1.227372e+02
  -2.044683e+02  -7.480161e+01
  -7.717348e+01  -2.209586e+02
   5.638733e+01  -1.868433e+02
   1.929895e+02   3.096444e+00
   1.897121e+02   1.658023e+02
  -6.555533e+00   1.972707e+02
  -1.724841e+02   8.367119e+01
  -2.493612e+02  -1.208865e+02
  -1.381623e+02  -3.151683e+02
   3.698881e+01  -2.116829e+02
   1.746009e+02  -6.109506e+01
   9.080522e+01  -1.825597e+00
   9.213233e+01  -3.139576e+01
   1.638749e+02  -6.578975e+01
   2.989014e+02  -2.299877e+01
   2.484573e+02   2.227391e+02
   5.560626e+01   3.819660e+02
  -3.322213e+02   3.029521e+02
  -4.064029e+02   1.333208e+02
  -2.400471e+02  -5.819851e+01
  -3.193308e+01  -2.317845e+02
   4.996638e+01  -1.777801e+02
   7.446379e+01  -3.281520e+01
  -6.713117e+01   7.788683e+01
  -1.450057e+02   6.743325e+00
  -5.900169e+01  -1.401817e+02
   1.026308e+02  -1.239410e+02
   1.420296e+02   5.902543e+01
   1.151808e+01   9.916514e+01
  -1.464820e+02   3.254034e+01
  -1.022590e+02  -1.405189e+02
  -1.652177e-01  -2.782152e+02
   1.929745e+02  -1.485793e+02
   2.921772e+02   7.184171e+01
   2.307827e+02   2.150416e+02
   3.844255e+01   2.496815e+02
  -7.274997e+01   9.836955e+01
  -1.430617e+02  -1.321273e+01
  -4.904462e+01  -2.082396e+01
   6.252357e+01   2.172543e+01
   5.481722e+00   1.043855e+02
  -8.556193e+01   4.152434e+01
  -6.560173e+01  -3.397090e+01
   2.880087e+00  -6.619757e+01
   6.797209e+01   4.523358e+00
  -6.992495e-01   6.056432e+01
  -1.215993e+02   6.339333e+01
  -1.971394e+02  -2.969860e+01
  -2.284392e+02  -1.240579e+02
  -3.391419e+01  -1.919093e+02
   1.611222e+02  -1.589598e+02
   1.788122e+02  -9.596024e+01
   1.175169e+02   2.147351e+01
   1.782160e+01   7.971224e+01
  -6.159302e+01  -1.740100e+00
   2.654855e+01  -1.114031e+02
   1.659816e+02  -3.453416e+01
   1.407932e+02   6.539550e+01
   6.348151e+01   1.741160e+02
  -6.028978e+01   8.524155e+01
  -1.374489e+02   2.800578e+01
  -1.140943e+02  -3.077571e+01
   2.315640e+01   9.158476e+00
   1.328528e+01   6.310141e+01
  -3.371756e+01   7.846330e+01
  -1.422523e+02   3.720784e+00
  -1.718133e+02  -1.325137e+02
  -9.015458e+00  -1.685554e+02
   1.469267e+02  -1.319514e+02
   1.839936e+02  -2.690722e+00
   5.033218e+01   7.885755e+01
  -7.522474e+01   6.966680e+01
  -9.483007e+01   1.534104e+01
  -1.391995e+01  -6.113954e+01
   9.085636e+01   8.799852e+00
  -3.502638e+01   2.029443e+01
  -1.455564e+01  -9.933545e+00
  -4.516009e+01  -6.182872e+01
  -2.950030e+00  -1.044587e+02
   7.456149e+01  -1.264698e+02
   1.934322e+02  -3.828287e+00
   1.390724e+02   1.038518e+02
   5.027698e+01   2.160557e+02
  -6.934080e+01   1.403929e+02
  -6.480490e+01  -1.360611e+01
  -7.581533e+01  -2.428418e+01
  -2.551427e+00  -2.957437e+01
  -1.288896e+01   6.940321e+00
  -7.277548e+01  -1.999157e+01
  -1.926176e+01  -1.764855e+01
   2.815283e+01  -5.026251e+01
   8.212618e+01  -6.973841e+01
   4.785826e+01   2.960979e+01
   1.822675e+01   7.080929e+01
  -1.353912e+02   6.959906e+01
  -1.349010e+02  -5.711577e+01
  -5.429218e+01  -1.840513e+02
   1.047957e+02  -1.012131e+02
   1.470150e+02  -9.408721e+01
   2.198565e+02   4.381540e+01
   9.198445e+01   1.661302e+02
  -2.237601e+01   1.008289e+02
  -5.443221e+01   5.581502e+01
  -7.471330e+01   5.274109e+01
  -6.806990e+01   2.746205e+01
  -1.452341e+01   5.263291e+01
  -9.573045e+01  -4.037035e+01
  -1.020018e+02  -1.173681e+02
  -3.955538e+01  -2.255263e+02
   5.184203e+01  -1.111721e+02
   1.075477e+02  -1.899930e+01
   8.104110e+01   9.354855e+01
   1.049302e+01   1.164152e+02
  -6.851901e+01   8.892137e+01
  -4.554799e+01  -9.162700e+00
   3.522993e+00  -1.459718e+01
   2.336181e+01  -4.434489e+01
  -2.770334e+01  -4.502271e+01
  -2.213922e+01  -1.142826e+01
  -2.726803e+01  -4.617758e+01
   2.954577e+00  -6.355711e+01
   1.228612e+02  -3.260567e+01
   8.839226e+01   3.770966e+01
   6.505944e+00   4.262328e+01
  -7.897107e+01   7.121743e+01
  -9.694711e+01   2.286908e+00
  -4.514339e+01  -7.307346e+01
   2.194407e+01  -5.269759e+01
   8.780638e+00   1.607661e+01
  -1.068562e+01   7.149619e+01
  -3.174100e+01   6.271751e+01
  -2.504589e+01   2.255567e+01
  -4.186097e+01  -5.576757e+01
  -1.799049e+01  -7.211406e+01
  -4.158316e+01  -4.655781e+01
  -5.440175e+01  -8.361569e+00
  -1.119829e+01  -4.096963e+01
   2.377264e+01  -1.149984e+02
   4.359492e+01  -6.788259e+01
   1.668223e+02  -1.187625e+01
   1.263861e+02   8.772498e+01
   2.549930e+01   6.484940e+01
  -5.566889e+01   5.479600e+01
  -3.266574e+01  -5.231601e+00
   3.894405e+01  -5.738311e+01
   6.602522e+01   2.569774e+01
   5.185177e+01   3.582356e+01
  -4.736075e+01   8.756989e+01
  -1.441315e+02   3.421047e+01
  -1.451470e+02  -1.646526e+01
  -6.650589e+01  -4.863396e+01
   5.153184e+00  -4.788667e+01
   4.519419e+01   2.573379e+01
  -2.650412e+01   1.156117e+01
  -7.056090e+01  -5.566445e+01
  -2.179369e+01  -9.330575e+01
   9.156460e+01  -1.039801e+02
   1.305031e+02  -2.792852e+01
   1.133915e+02   8.405646e+01
  -1.822550e+01   1.188897e+02
  -7.401607e+01   8.300827e+01
  -8.376497e+01   7.052100e-01
  -6.485845e+01  -1.219571e+02
   2.314511e+01  -6.659940e+01
   5.368231e+01  -4.632430e+01
   2.860351e+01   4.138421e+01
   1.656620e+01   1.628382e+01
  -4.428047e+00  -8.261937e+00
   5.848469e+01   3.322027e+01
   5.661308e+01   9.193456e+01
   4.233244e+00   1.176890e+02
  -7.456448e+01   7.287278e+01
  -9.852147e+01   1.589441e+00
  -1.222671e+02  -5.641359e+01
  -1.434334e+01  -7.118492e+01
   3.005730e+01  -2.937519e+00
   7.356061e+01  -2.716349e+01
   2.853339e+01   2.494415e+01
  -2.197495e+01   2.714389e+01
   1.293883e+01   3.652107e+00
   1.675112e+01   1.909157e+01
  -3.055196e-01  -4.589093e+01
  -4.581592e+01   4.319450e-01
  -3.347959e+01  -6.640892e-01
  -1.279637e+01  -8.093697e+01
   7.339286e+01  -6.842144e+01
   1.489339e+02  -6.473229e+01
   1.167872e+02   6.534097e+01
  -4.251582e-01   1.256103e+02
  -7.667979e+01   1.033452e+02
  -1.462136e+02   3.540442e+01
  -4.026478e+01  -1.665473e+01
   2.073169e+01  -1.139680e+01
   1.176516e+01  -3.019331e+01
  -3.148278e+01  -2.015377e+01
   8.506830e+00  -1.282101e+01
  -3.442297e+01  -9.292254e+01
   3.144955e+01  -7.279949e+01
   1.558897e+01   6.141037e+01
   7.130016e+01   9.612647e+01
  -3.973742e+00   1.030459e+02
  -6.439041e+01   2.352137e+01
  -8.460723e+01  -7.867019e+01
  -2.139260e+01  -9.198168e+01
   5.716855e+01  -8.805796e+01
   9.926038e+01   2.431470e+00
   1.057666e+01   4.937348e+01
  -5.970683e+00   4.079932e+01
   9.561542e+00   8.720068e+00
   3.870781e+01  -5.608054e+00
   5.307317e+01   3.573525e+01
  -1.018932e+01   7.675397e+00
  -8.358809e+01   8.226900e+01
  -8.939987e+01  -1.111989e+01
  -4.651525e+01  -4.475544e+01
   2.169380e+01  -3.895113e+01
   6.875691e+01  -9.492033e+01
   4.605627e+01  -2.849993e+01
   1.517384e+01   5.126573e+01
  -7.230755e+01   8.550484e+01
  -5.988590e+01  -3.102957e+01
   1.371466e+00  -2.880970e+01
   5.915346e+01  -4.648900e+01
   2.044452e+01   1.849414e+00
   3.307965e+01  -4.851564e+00
   2.059220e+01  -8.433029e+00
   1.335761e+01  -1.367609e+00
  -2.191770e+00   2.240047e+01
  -2.385532e+01   4.383995e+01
   2.881552e+01   8.129394e+00
  -1.026278e+01   3.742711e+00
  -7.251204e+01  -2.910425e+01
  -9.601233e+00  -3.500214e+01
   1.726995e+01  -1.596576e+01
   2.795227e+01  -4.195438e+01
   3.811967e+01   4.660544e+01
  -2.240195e+00   5.599181e+01
  -6.094228e+01  -1.009023e+01
  -1.215896e+01  -3.407056e+01
   2.646578e+01  -6.392959e+01
   6.813084e+01  -4.599506e+01
   2.689875e+01   3.154020e+01
  -1.891303e+01   3.150725e+01
  -3.496548e+01  -4.093167e+01
   2.290278e+01  -1.676944e+01
   8.660674e+01  -6.538585e+01
