
 $NMID
 id='ANONYMOUS ', fmtdat='(2E16.6)'
 volume=1.0
 tramp=1.0
 $END
  -2.273751e+03   4.872399e+02
  -1.994915e+03  -9.042651e+02
  -4.294495e+02  -1.449938e+03
   5.863191e+02  -1.234835e+03
   7.541570e+02  -5.139669e+02
   2.256010e+02   9.908938e+01
  -2.029835e+02   1.127628e+01
   4.611136e+01  -3.814112e+02
   3.013467e+02  -4.829006e+02
   4.906958e+02  -1.913319e+02
   3.456433e+02   2.730582e+02
   4.396641e+01   4.437664e+02
  -2.072540e+02   1.178907e+02
  -1.408875e+02  -2.996174e+02
  -4.753449e+01  -4.199364e+02
   2.929607e+02  -1.178775e+02
   3.075633e+02   3.084630e+02
  -1.436506e+00   4.999139e+02
  -2.958657e+02   2.672614e+02
  -3.368659e+02  -7.870256e+01
  -1.413351e+02  -2.656523e+02
   2.487452e+01  -1.939033e+02
   1.022459e+01  -7.863250e+01
  -1.611674e+02  -1.304714e+02
  -2.077764e+02  -2.648452e+02
   6.833156e+01  -2.855860e+02
   3.705925e+02  -8.386938e+01
   4.847026e+02   1.806399e+02
   1.722827e+02   2.568855e+02
  -2.289052e+02   1.194334e+02
  -3.497004e+02  -1.325332e+02
  -1.326623e+02  -2.690614e+02
   1.701738e+02  -2.280948e+02
   3.144839e+02  -1.441202e+02
   2.670997e+02   5.413771e+01
   1.357250e+02   1.800492e+02
  -7.011584e+00   1.127742e+02
   1.036297e+02  -5.644271e+01
   1.009381e+02  -9.057394e+01
   9.951504e+01   1.346662e+02
  -1.479140e+01   3.636784e+02
  -1.389925e+02   3.342052e+02
  -2.741224e+02   2.512755e+01
  -5.941998e+01  -1.912193e+02
   8.765317e+01  -7.970203e+01
   1.204025e+02   2.050247e+02
  -1.415934e+02   3.692757e+02
  -3.890488e+02   4.576512e+01
  -4.133368e+02  -3.058341e+02
  -1.284866e+02  -4.264077e+02
   2.104711e+02  -2.173748e+02
   4.016703e+02   4.884160e+01
   2.744307e+02   1.889337e+02
  -1.276046e+01   1.748151e+02
  -1.884434e+02   1.134189e+02
  -2.014629e+02  -2.659050e+01
  -2.466704e+01  -1.222004e+01
  -5.815907e+00   5.439557e+01
  -1.214475e+02   3.248613e+00
  -1.932655e+02  -8.805564e+01
  -1.201204e+02  -1.684877e+02
   7.233372e+01  -1.771337e+02
   2.912455e+02  -1.202188e+02
   2.218353e+02   6.088920e+01
   1.874874e+01   3.061170e+02
  -2.479678e+02   2.897110e+02
  -3.206109e+02   1.488657e+02
  -1.312179e+02  -8.350362e+01
  -9.870895e+01  -2.377050e+02
   2.412256e+01  -2.605884e+02
  -2.859843e+01  -2.305848e+02
   6.416785e+01  -1.577671e+02
   1.656000e+02  -7.986449e+01
   2.449032e+02  -8.079991e+01
   2.070565e+02   1.005715e+02
   5.737241e+01   2.373104e+02
  -9.165745e+01   1.567294e+02
  -1.746731e+02   2.886495e+00
  -1.453079e+02  -2.212525e+02
   2.962388e+01  -2.151979e+02
   1.839968e+02  -5.445121e+01
   2.503987e+02   1.463513e+02
   8.261129e+01   2.201242e+02
  -3.445322e+01   1.974928e+02
  -1.524060e+02   1.449160e+02
  -1.164590e+02   7.147696e+01
  -1.537592e+02   6.036260e+01
  -1.955511e+02   2.732767e+01
  -3.845290e+02  -6.520632e+01
  -2.549847e+02  -2.811556e+02
   1.349319e+01  -4.175600e+02
   3.158326e+02  -3.450688e+02
   4.588480e+02  -1.301680e+02
   1.929643e+02   6.851594e+01
   5.811751e+01   2.166944e+02
  -6.299525e+01   1.916983e+02
  -1.708774e+00   4.551503e+01
   6.432679e+01  -4.557388e+01
   7.829186e+01   3.246781e+01
   3.657944e+00   1.357258e+02
  -1.120873e+02   6.758200e+01
  -1.013566e+02  -4.383446e+01
   6.869619e+01  -1.290749e+02
   1.055137e+02   3.568138e+01
   1.217565e+02   1.722436e+02
   4.042602e+00   3.209950e+02
  -1.420435e+02   1.932311e+02
  -2.840368e+02  -6.841429e+01
  -2.120033e+02  -2.289520e+02
  -4.020488e+01  -2.276311e+02
   1.280636e+02  -7.663306e+01
   1.512970e+02   2.335236e+01
   5.509823e+01   3.939620e-01
  -6.516659e+01  -3.741032e+01
   1.841801e+01  -1.057278e+02
   6.980832e+01  -5.669070e+01
   1.034136e+02   5.164194e+01
   4.078158e+01   2.152106e+01
  -9.617907e+01  -5.296182e+01
  -1.928569e+01  -3.248934e+01
   1.280332e+02  -3.201725e+01
   2.345560e+02   4.276244e+01
   2.244725e+02   1.521995e+02
  -1.501741e+01   2.406697e+02
  -1.622684e+02   2.237887e+02
  -2.337224e+02   8.281782e+01
  -1.146666e+02   1.692668e+00
   8.972065e+00  -3.528769e+01
   6.041891e+01  -6.002587e+00
  -3.071062e+01   6.135435e+01
  -1.360096e+02   1.553794e+01
  -1.227052e+02  -1.245126e+02
  -8.101207e+01  -1.519700e+02
   4.599278e+01  -1.585416e+02
   1.109482e+02  -1.428136e+01
   9.173477e+01   2.172387e+01
  -3.731559e+01  -7.467808e+00
  -3.260155e+01  -1.400218e+02
   8.184245e+01  -1.307158e+02
   1.924595e+02   2.019431e+01
   1.528471e+02   1.422574e+02
  -5.911334e+00   1.578619e+02
  -1.269771e+02   1.228816e+02
  -1.471139e+02   4.338110e+01
  -4.577802e+01  -5.465039e+01
   8.351347e+01  -9.841117e+01
   1.493274e+01  -4.198537e+01
   1.282575e+01   4.954359e+01
  -2.543790e+01   3.873160e+01
  -4.712116e+00  -5.030469e+01
   1.045839e+02   3.094041e+00
   8.141562e+01   6.590367e+01
   4.543896e+01   1.823033e+02
  -9.232836e+01   1.449802e+02
  -2.557580e+02   1.818141e+01
  -2.127312e+02  -1.404085e+02
   1.707427e+00  -1.741493e+02
   8.551658e+00  -1.400678e+02
   8.446306e+01   2.150782e+01
   5.682443e+01   2.281136e+01
   4.274829e+01   1.249852e+01
   1.801435e+01  -5.239185e+01
   5.725110e+01   1.667438e+00
   5.561663e+01   7.652676e+01
  -7.219745e+01   9.870785e+01
  -8.074183e+01   7.773823e+01
  -1.207225e+02  -2.935186e+01
  -7.429975e-01  -1.696276e+02
   1.606330e+02  -1.033702e+02
   1.926788e+02   5.569108e+01
   7.314511e+01   1.775520e+02
  -1.104114e+02   2.254378e+02
  -2.671824e+02   8.842834e+01
  -1.688774e+02  -9.016672e+01
  -7.802825e+01  -1.479589e+02
   2.052451e+01  -1.043579e+02
   6.386121e+01  -6.430629e+01
   5.000385e+01  -1.096057e+02
   5.321403e+01  -1.187421e+02
   8.149763e+01  -8.545690e+01
   1.217810e+02   4.022753e+01
   7.400843e+01   1.092639e+02
   8.485196e+01   1.629722e+02
  -7.662277e+01   1.615830e+02
  -1.419081e+02  -7.632626e+00
  -8.673593e+01  -4.166428e+01
  -2.913032e+01  -1.553974e+02
   5.083969e+01  -5.342734e+01
   2.675632e+01  -2.204863e+01
  -7.798841e+00   6.768353e+01
  -5.185822e+01   3.747261e+01
   2.690363e+01   3.157317e+01
   6.515478e+01  -1.434888e-01
   3.704503e+01   2.598793e+01
  -5.188792e+01   2.587904e+01
  -1.235026e+02  -1.096187e+01
  -1.401613e+02  -6.550050e+01
   4.159708e+00  -7.360093e+01
   9.323193e+01  -7.581250e+01
   1.340693e+02  -4.194507e+01
   2.844736e+01   4.430073e+01
  -4.118335e+01   4.958681e+01
  -5.119484e+01  -6.089606e+00
  -4.837526e+01  -5.435303e+01
   3.934877e+01  -3.403828e+01
   1.118454e+02   1.770390e+01
   7.572057e+01   4.494201e+01
   1.237326e+01   3.499280e+00
   4.141773e+01   5.300868e+00
   4.975749e+01  -2.795037e+01
   4.616152e+01   5.184134e+01
   2.966728e+00   2.055047e+02
  -1.089227e+02   1.346221e+02
  -1.682696e+02   2.784878e+01
  -1.100484e+02  -7.749486e+01
   1.429787e+01  -1.342397e+02
   5.584511e+01  -3.990910e+01
   4.027276e+01   1.532464e+01
  -1.439091e+01   2.716699e+01
  -1.320165e+02  -5.365030e+00
  -1.905017e+01  -6.224730e+01
   5.441304e+01  -1.161723e+02
   1.473378e+02  -1.427899e+01
   1.167586e+02   4.866710e+01
   3.898578e+01   6.384080e+01
  -6.975470e+01  -7.005400e+00
  -3.031282e+01   2.069906e+01
   7.914748e+00  -4.652541e+01
   5.348446e+01   3.948100e+01
   7.010502e+01   9.186094e+01
  -7.168919e+01   9.083633e+01
  -1.156436e+02   6.541072e+01
  -1.469515e+02  -1.034042e+02
  -4.485912e+01  -1.814086e+02
   4.988163e+01  -1.486920e+02
   6.201152e+01   1.803717e+01
   5.426165e+01   1.129573e+02
  -6.972885e+00   6.662767e+01
  -4.984964e+01  -9.705534e-01
  -1.097569e+01  -5.157014e+01
  -3.893649e+00   9.376546e+00
  -1.784514e-01   1.431180e+01
  -3.740344e+01   5.884086e+00
  -8.254280e+01  -9.036708e+01
  -1.579924e+01  -5.750632e+01
   6.182777e+01  -3.680882e+01
   9.344770e+01   2.505897e+01
   9.248978e+01   5.825264e+01
   8.113648e+00   1.801285e+01
  -7.237617e+01   3.838271e+01
  -4.278112e+01  -4.217037e+01
   6.623274e+00   1.431478e+01
   6.858355e+00  -3.024045e+01
   3.971652e+00  -7.646900e+00
   3.212351e+01   4.794097e+01
  -1.177669e+01  -8.585983e+00
   6.051198e+01  -1.719642e+01
   7.139438e+01   2.798204e+01
   3.388524e+01   8.295642e+01
  -7.972800e+01   5.331580e+01
  -1.920312e+02   3.664701e+01
  -1.335980e+02  -5.006487e+01
  -1.141871e+01  -1.090181e+02
   2.315865e+01  -1.271241e+02
   8.277404e+01  -6.844836e+01
   6.295842e+01  -1.086813e+01
   2.320538e+01   2.451650e+01
  -1.027332e+01   2.923385e+01
  -2.237322e+01   1.855235e+01
  -2.915885e+01   3.246542e+01
  -2.393885e+01   7.330865e+01
  -3.807026e+01   4.354604e+01
  -4.396340e+01   3.511925e+01
  -8.239780e+01  -7.347308e+01
  -1.186122e+01  -1.227821e+02
   6.158385e+01  -2.712171e+01
   1.057973e+02   7.293396e+01
   5.255074e+01   1.029493e+02
  -4.579625e+01   6.979602e+01
  -6.436421e+01   9.993904e+00
  -5.345878e+01  -6.206839e+01
   1.568883e+01  -7.782527e+01
   5.149637e+00  -1.506529e+01
  -3.964063e+01   1.596953e+00
  -1.760192e+01   2.059611e+01
  -3.758458e+00   4.799686e+00
   3.725237e+01  -6.285317e+01
   1.290215e+02  -5.073194e+01
   6.949901e+01  -1.164926e+01
  -7.969493e-01   1.262467e+02
  -4.324816e+01   8.847915e+01
  -7.086529e+01  -4.897455e+00
  -6.017200e+00  -6.722862e+01
  -1.309142e+01  -1.895851e+01
   4.489883e+01   2.644964e+01
   2.388063e+01   7.279639e+01
  -1.690086e+01   2.792095e+01
  -3.879764e+01  -7.417939e+00
  -5.375653e+01  -1.646528e+01
  -3.610255e+01  -4.190042e+01
   2.742683e+01  -1.191686e+01
  -3.748464e+01   6.600662e+01
  -4.975227e+00  -1.450938e+01
  -3.162616e+01  -6.560119e+01
  -1.702463e+01  -1.513992e+01
   4.187364e+01   3.056276e+01
   1.518804e+01   6.127965e+01
  -1.741369e+01   3.580775e+01
  -5.286010e+01  -5.137409e+01
   2.665723e+01  -6.262102e+01
   9.783835e+01   1.031735e+01
   8.132058e+01   2.556889e+01
   6.254963e+01   8.499111e+00
  -1.697774e+01   5.903459e+01
  -2.339119e+01   5.196252e+01
  -2.030112e+01   1.151875e+01
  -1.812091e+01  -2.218325e+01
   1.312713e+01  -1.665326e+01
   2.633555e+00   2.427171e+01
  -3.013738e+01   3.405477e+01
