
 $NMID
 id='ANONYMOUS ', fmtdat='(2E16.6)'
 volume=1.0
 tramp=1.0
 $END
  -3.596818e+03   2.826115e+02
  -1.941134e+03  -1.757231e+03
   9.055925e+01  -1.832867e+03
   1.545836e+03  -1.314341e+03
   8.721573e+02  -1.538326e+02
   9.588493e+00   2.373706e+02
  -3.943290e+02  -6.896146e+01
  -8.870765e+01  -5.816601e+02
   4.607498e+02  -5.541954e+02
   6.255997e+02  -4.628425e+01
   4.308088e+02   5.278920e+02
  -2.649443e+01   6.714857e+02
  -3.545250e+02   1.687166e+02
  -3.110518e+02  -3.899375e+02
   6.227485e+01  -4.949045e+02
   3.743210e+02  -7.407324e+01
   2.810419e+02   4.942632e+02
  -1.682645e+02   6.753595e+02
  -4.873414e+02   2.574650e+02
  -4.390895e+02  -1.837945e+02
  -1.100623e+02  -3.456099e+02
   1.219315e+02  -3.131216e+02
   1.134201e+02  -9.160277e+01
  -1.539852e+02  -3.221931e+01
  -3.196250e+02  -1.723604e+02
   7.523538e+00  -3.109492e+02
   4.096689e+02  -2.263747e+02
   5.592759e+02   9.231320e+01
   2.556800e+02   3.665838e+02
  -3.076582e+02   2.532918e+02
  -4.699200e+02  -1.345859e+02
  -1.826737e+02  -3.654510e+02
   2.417887e+02  -3.653823e+02
   4.556545e+02  -2.060901e+02
   3.251930e+02   1.319132e+02
   1.980595e+01   3.645393e+02
  -7.779989e+01   1.932564e+02
  -5.728618e+01  -1.288201e+02
   1.904405e+02  -1.904052e+02
   2.280359e+02   8.661236e+01
   6.236328e+01   5.840313e+02
  -2.665650e+02   5.363671e+02
  -2.988298e+02   4.363283e+01
  -1.435501e+02  -3.358536e+02
   1.712828e+02  -1.788408e+02
   1.895753e+02   2.763680e+02
  -1.457604e+02   4.168551e+02
  -4.110395e+02   1.057646e+02
  -5.038691e+02  -2.925040e+02
  -1.441917e+02  -4.305540e+02
   3.062553e+02  -2.761535e+02
   4.461914e+02   6.811977e+01
   2.970541e+02   2.849291e+02
  -9.241395e+01   2.400802e+02
  -3.207612e+02   7.199761e+01
  -1.987622e+02  -1.681105e+01
   2.892984e+01  -5.823893e+01
   8.567552e+01   1.701938e+01
  -9.817477e+01   5.574219e+01
  -2.265336e+02  -3.216284e+01
  -1.152147e+02  -1.954299e+02
   1.007085e+02  -2.358457e+02
   3.409386e+02  -1.861081e+02
   1.877745e+02   5.304773e+01
  -4.620654e+00   3.314223e+02
  -2.673558e+02   3.535336e+02
  -3.360799e+02   1.811717e+02
  -2.398515e+02  -1.501886e+02
  -1.560231e+02  -3.596213e+02
  -1.578426e+01  -3.113708e+02
  -2.869084e+01  -1.058267e+02
   3.945493e-01  -8.913910e+01
   1.236561e+02  -8.004986e+01
   1.938766e+02  -3.803636e+01
   2.359528e+02   6.356686e+01
   6.265645e+01   1.804289e+02
  -7.461240e+01   2.337353e+02
  -1.549580e+02  -3.849010e+01
  -1.501237e+02  -2.291347e+02
  -2.903363e+01  -2.347009e+02
   2.085534e+02  -9.359011e+01
   3.422522e+02   1.507411e+02
   1.926578e+02   2.862143e+02
  -3.791276e+01   2.419985e+02
  -1.957806e+02   1.136527e+02
  -1.708940e+02   9.270614e+01
  -1.468106e+02   2.157629e+01
  -2.375913e+02   2.154221e+01
  -3.289859e+02  -5.707372e+01
  -3.030256e+02  -2.920910e+02
   5.802240e+00  -4.340404e+02
   3.614722e+02  -4.902646e+02
   4.733290e+02  -1.910999e+02
   2.615507e+02   1.171255e+02
   2.936778e+01   2.620203e+02
  -8.183435e+01   2.108576e+02
  -4.239922e+01   1.919174e+01
   7.166846e+01  -4.625988e+01
   1.363713e+02   1.903755e+01
   2.311581e+01   1.452464e+02
  -1.173720e+02   1.301359e+02
  -1.096398e+02  -4.799356e+01
   4.363324e+01  -9.760865e+01
   1.664255e+02   3.463933e+01
   1.710982e+02   2.160611e+02
  -6.021306e+01   2.965591e+02
  -2.574849e+02   1.742700e+02
  -3.558470e+02  -6.662176e+01
  -2.650569e+02  -2.851786e+02
  -3.444291e+01  -2.647771e+02
   1.123215e+02  -1.638063e+02
   1.745686e+02   3.550043e+00
  -8.221369e+00   4.749938e+01
  -3.109753e+01  -9.682728e+01
  -6.343745e+01  -1.183581e+02
   1.150047e+02  -7.329202e+01
   1.871341e+02   4.283343e+01
   5.211739e+01   8.338035e+01
  -1.265215e+02  -6.259580e+00
  -4.298142e+00  -8.813697e+01
   1.423066e+02  -9.133290e+01
   2.611779e+02   4.117579e+01
   2.633764e+02   1.466412e+02
   4.112497e+01   2.329416e+02
  -1.599874e+02   2.270101e+02
  -2.335788e+02   9.651716e+01
  -1.326752e+02   7.950893e-01
   1.733974e+01  -7.141704e+01
   4.702208e+01  -3.922718e+01
  -7.599795e+01   8.121363e+01
  -1.301780e+02   8.022170e+00
  -1.668197e+02  -1.263863e+02
  -7.550955e+01  -2.232602e+02
   7.589343e+01  -1.074815e+02
   1.061469e+02  -2.417093e+01
   7.626465e+01   4.982052e+01
  -3.915247e+01   1.836294e+01
  -3.222211e+01  -1.121724e+02
   8.581152e+01  -1.508688e+02
   1.871573e+02   3.833093e+01
   1.644158e+02   1.324851e+02
   4.172678e+01   2.314929e+02
  -1.448445e+02   1.624508e+02
  -1.741922e+02   2.027760e+01
  -7.498237e+01  -8.855991e+01
   8.591806e+01  -1.228026e+02
   1.132518e+02  -3.870410e+01
   2.577682e+01   4.397944e+01
  -1.123286e+01   4.530494e+01
  -2.132843e+01   2.808461e+01
   4.013616e+01  -3.541536e-01
   1.022474e+02   1.219019e+02
   6.720937e+00   1.808043e+02
  -1.391538e+02   1.710687e+02
  -2.348687e+02   6.849293e+00
  -1.858125e+02  -1.355398e+02
  -2.212882e+01  -2.532782e+02
   9.676638e+01  -1.170697e+02
   8.702284e+01   1.791238e+00
   4.444282e+01   5.727067e+01
   2.431059e+01   5.239978e+01
   5.466505e+01   1.185274e+01
   7.778355e+01  -1.849269e+01
   6.443791e+01   1.487291e+01
  -4.084019e+01   1.215708e+02
  -9.463280e+01   7.889717e+01
  -4.214852e+01  -2.855742e+01
   2.285024e+01  -1.630530e+02
   1.545385e+02  -1.246398e+02
   1.880313e+02   1.600125e+01
   7.140845e+01   1.998612e+02
  -1.178566e+02   1.576986e+02
  -2.481110e+02   8.611344e+01
  -2.030630e+02  -1.450638e+02
  -7.994631e+01  -2.054809e+02
   6.126614e+01  -1.282192e+02
   7.344825e+01  -5.451806e+01
   6.858320e+01  -5.987487e+01
   4.849550e+01  -8.405894e+01
   7.662110e+01  -8.720503e+01
   1.076812e+02   4.021346e+00
   2.163488e+02   1.573645e+02
   3.640441e+01   2.217673e+02
  -1.107093e+02   1.430120e+02
  -1.812003e+02  -8.170806e+00
  -6.565920e+01  -1.345277e+02
  -4.216569e+00  -1.613017e+02
   6.799435e+01  -1.252188e+02
   4.838168e+00   2.789491e+01
  -2.566268e+01   7.321380e+01
  -6.060565e+00   8.899461e+01
   2.294550e+01   4.017139e+01
   4.120920e+01  -2.396163e+00
   5.695333e+01   6.249989e+01
  -6.495513e+01   4.146478e+01
  -1.623690e+02  -3.531887e+00
  -1.670639e+02  -6.947790e+01
   4.445285e+01  -1.276015e+02
   1.378016e+02  -8.238371e+01
   1.489965e+02  -2.364331e+00
   5.620041e+01   1.308003e+01
  -7.781336e+01   1.553974e+01
  -7.627649e+01   4.797956e+01
  -5.324984e+01  -6.736727e+01
   4.673671e+01  -4.500457e+01
   6.219521e+01  -8.166005e+00
   8.853498e+00   2.776592e+01
   6.031121e+01   1.133631e+01
   6.828338e+01  -1.196741e+01
   6.606562e+01   1.317896e+01
   7.489133e+01   7.734327e+01
  -4.062812e+01   1.470536e+02
  -1.373588e+02   1.738426e+02
  -1.978815e+02   3.557154e+00
  -1.438985e+02  -1.257074e+02
   3.256608e+01  -1.548962e+02
   7.688869e+01  -9.526707e+01
   7.652150e+01   3.202354e+01
  -2.624465e+01  -1.293876e+01
  -1.011450e+02  -1.311019e+01
  -7.077419e+01  -8.724053e+01
   1.001134e+02  -1.113650e+02
   1.602916e+02  -4.971514e+01
   1.206771e+02   5.554188e+01
   2.766478e+01   9.979652e+01
  -3.877321e+01   4.763996e+01
  -3.825290e+01   1.813270e+00
   8.211226e+01  -2.073011e+01
   1.159767e+02   3.724437e+00
   3.758906e+01   9.140992e+01
  -4.190721e+01   1.773961e+02
  -1.390160e+02   9.602121e+01
  -8.086400e+01  -1.468414e+02
  -3.649446e+01  -1.791408e+02
   1.110777e+02  -1.474619e+02
   1.022074e+02  -8.724755e+00
   5.474631e+01   1.426111e+02
  -1.284436e+01   5.577073e+01
  -8.798212e+01   2.604494e+00
  -2.670606e+01  -1.295882e+01
  -1.519321e+01  -7.820477e+00
   1.756677e+01   1.612073e+00
  -3.997383e+01   3.189486e+01
  -6.360845e+01  -9.157249e+01
  -4.920051e+01  -7.714269e+01
   3.205792e+01  -4.050390e+01
   1.374293e+02   1.429583e+01
   1.018276e+02   5.399750e+01
   9.256932e+00   5.271939e+01
  -8.622638e+01   1.182213e+00
  -8.652207e+01   1.843560e+01
  -3.493922e+01  -2.820581e+01
   5.448791e+01  -4.587749e+01
   8.256949e+00  -1.006103e+01
   8.022202e+00  -9.700370e+00
  -4.906955e+00  -3.302913e-01
   8.022073e+01  -1.125120e+01
   8.550218e+01  -2.046282e+00
   9.311398e-01   6.345000e+01
  -7.366518e+01   8.981205e+01
  -1.562381e+02   6.424317e+01
  -1.642627e+02  -5.681537e+01
  -6.471646e+01  -1.568343e+02
   4.887756e+01  -1.413898e+02
   1.075499e+02  -1.160228e+02
   8.126777e+01   1.087960e+01
   6.219165e+01   2.304192e+01
  -3.336113e+01  -2.215685e+01
   2.358860e+01  -1.064970e+01
   7.646199e+01   6.203074e+01
   1.123664e+01   6.870761e+01
  -5.024338e+01   5.520244e+01
  -4.645969e+01   1.016676e+00
  -9.243944e+01  -8.915038e+01
  -2.173206e+00  -6.373563e+01
   9.286556e+01  -2.623480e+01
   1.020848e+02   5.067666e+01
   2.559484e+01   1.156836e+02
  -5.342029e+01   6.739089e+01
  -7.391440e+01  -1.451334e+01
  -3.990399e+01  -4.770711e+01
   2.752128e+01  -7.275687e+01
   1.509136e+01  -1.364146e+01
  -2.603450e+01  -2.708679e+00
  -6.306331e+01   5.645169e+00
   3.505966e+00  -3.124737e+01
   7.745169e+01  -5.877798e+01
   7.324287e+01  -5.705075e+01
   7.542403e+01   2.262182e+01
   5.185166e+01   4.464068e+01
  -6.945135e+01   9.871595e+01
  -5.170329e+01   1.299183e+01
   4.375125e-01  -7.342656e+01
   8.120001e+01  -7.870623e+01
   4.735554e+01   1.917009e+01
   2.876374e+01   5.070790e+01
  -1.611410e+01   3.057813e+01
  -4.809750e+01  -3.405857e+01
  -2.840509e+01  -5.316531e+01
  -2.635187e+01   2.266318e+00
  -3.223368e+01   1.570513e+01
  -1.554690e+00   1.962813e+01
  -1.839197e+01   2.258078e+01
  -4.011183e+01  -7.523583e+01
   2.783906e+01   2.506355e+01
   4.272473e+01   6.702578e+01
   3.135523e+01   9.329364e+01
  -3.013709e+01   3.798958e+01
  -6.901407e+01  -2.294740e+01
  -1.587211e+01  -7.989135e+01
   3.620562e+01  -5.848239e+01
   9.421889e+01   1.834695e+01
   4.408866e+01   2.891066e+01
  -4.073457e+01   2.744220e+01
  -4.745420e+01   1.904610e+01
   2.719462e+00   1.435775e+01
   2.198466e+01  -3.657098e+01
   5.026650e+01   1.288987e+01
  -2.493990e+01  -5.015384e-01
  -4.111331e+01   1.449242e+01
