
 $NMID
 id='ANONYMOUS ', fmtdat='(2E16.6)'
 volume=1.0
 tramp=1.0
 $END
  -2.078986e+03   2.404219e+02
  -1.528438e+03  -8.759717e+02
  -3.183740e+02  -1.356292e+03
   6.278883e+02  -8.519442e+02
   5.871961e+02  -3.390406e+02
   1.334870e+02   8.965185e+01
  -1.618379e+02   8.190576e+01
  -4.935991e+01  -2.922973e+02
   2.662528e+02  -4.133211e+02
   4.138516e+02  -1.587543e+02
   3.215718e+02   2.627409e+02
   8.825663e+01   3.840442e+02
  -1.810650e+02   1.731531e+02
  -1.187760e+02  -2.569473e+02
   4.596408e+01  -3.425613e+02
   2.589617e+02  -7.010957e+01
   2.429498e+02   2.875742e+02
   4.023288e+01   4.648051e+02
  -2.087538e+02   2.017025e+02
  -3.602330e+02  -3.561488e+01
  -1.472695e+02  -1.570805e+02
  -1.652548e+01  -1.887806e+02
  -2.373475e+01  -6.577445e+01
  -1.395272e+02  -1.086867e+02
  -1.984981e+02  -2.197018e+02
   7.480299e+01  -2.157806e+02
   2.995073e+02  -1.153823e+02
   3.211115e+02   1.156289e+02
   1.045082e+02   2.217713e+02
  -2.541891e+02   1.042303e+02
  -3.209390e+02  -1.014399e+02
  -8.359623e+01  -2.190861e+02
   2.106737e+02  -2.212660e+02
   3.105158e+02  -8.296556e+01
   2.190445e+02   8.549667e+01
   1.044502e+02   1.417829e+02
   4.782537e+01   1.368526e+02
   9.123889e+01  -4.448382e+01
   6.426942e+01  -4.754959e+01
   8.072500e+01   1.226345e+02
  -7.140778e+01   3.373565e+02
  -1.848404e+02   2.524204e+02
  -1.591987e+02  -1.777052e+01
  -7.899781e+01  -1.806679e+02
   4.934567e+01  -3.943117e+01
   8.034197e+01   2.119690e+02
  -8.558562e+01   2.795501e+02
  -2.733437e+02   6.986080e+01
  -3.326737e+02  -3.202881e+02
  -1.465657e+02  -3.138928e+02
   1.801188e+02  -2.250504e+02
   3.637023e+02  -2.699283e+00
   2.625474e+02   1.996520e+02
  -4.188465e+01   1.378840e+02
  -1.360582e+02   1.211467e+02
  -1.891479e+02   2.249430e+01
  -2.752827e+01  -2.284189e+01
   5.639173e+01   2.862843e+01
   1.095288e+01   2.571623e+01
  -1.397128e+02  -3.294145e+01
  -8.396053e+01  -9.424935e+01
   1.011255e+02  -2.001012e+02
   2.870516e+02  -7.941770e+01
   2.419265e+02   8.943003e+01
   4.118330e+00   2.774634e+02
  -2.141852e+02   2.978530e+02
  -2.935115e+02   1.302836e+02
  -2.118264e+02  -1.327693e+02
  -7.758967e+01  -2.550607e+02
  -1.394072e+01  -2.214342e+02
   2.913017e+01  -1.126322e+02
   1.388294e+01  -1.010665e+02
   7.452992e+01  -9.480606e+01
   1.972286e+02  -2.641209e+01
   1.841913e+02   5.850341e+01
   1.426778e+02   1.812345e+02
  -1.052601e+02   1.370126e+02
  -1.655535e+02  -7.605274e+01
  -3.707393e+01  -1.748601e+02
   5.597233e+01  -1.640941e+02
   1.696632e+02  -4.693235e+01
   2.599331e+02   1.395483e+02
   1.588172e+02   1.887550e+02
  -5.091974e+01   2.018465e+02
  -7.724499e+01   1.612510e+02
  -1.080344e+02   7.160329e+01
  -1.069647e+02   8.558625e+01
  -2.651359e+02   4.211764e+01
  -3.045318e+02  -6.631180e+01
  -2.697898e+02  -1.838529e+02
  -3.459562e+01  -3.039227e+02
   2.549044e+02  -2.875377e+02
   3.200880e+02  -1.015705e+02
   1.926770e+02   4.294126e+01
  -2.949728e+00   1.735960e+02
  -5.394687e+01   1.514360e+02
  -1.409208e+01   3.339295e+01
   7.437914e+01  -4.529045e+01
   7.847727e+01  -1.880922e+01
  -1.381830e+01   1.031075e+02
  -8.852736e+01   6.462730e+01
  -1.073426e+02  -7.492387e+00
   2.334590e+01  -1.137266e+02
   1.598647e+02  -3.882638e+00
   1.394449e+02   1.422918e+02
  -5.332393e+00   2.440536e+02
  -1.546301e+02   2.056390e+02
  -2.824696e+02  -5.519011e-01
  -1.951799e+02  -1.132375e+02
  -9.244618e+01  -1.662370e+02
   7.689632e+01  -1.176771e+02
   1.356177e+02  -9.660313e+01
   1.756154e+01  -4.453558e-01
  -8.317515e+01  -5.479925e+01
  -1.371930e+01  -9.722043e+01
   1.012212e+02  -2.108164e+01
   1.056015e+02  -3.763089e+01
   1.116038e+01   6.735235e+01
  -6.021581e+01   2.361597e+01
  -5.691973e+01  -7.206570e+01
   1.274566e+02  -4.589116e+01
   2.402585e+02  -4.017976e+00
   2.066248e+02   6.787542e+01
   2.109501e+01   1.416595e+02
  -1.413941e+02   1.785259e+02
  -1.935529e+02   4.821122e+01
  -9.081045e+01   2.631344e-01
   2.825429e+01  -1.712794e+01
   3.781749e+01   9.502649e+00
  -4.295879e+01   3.701791e+01
  -1.779327e+02   6.262122e+01
  -1.257970e+02  -6.398828e+01
  -9.955479e+01  -1.279225e+02
   6.614876e+01  -8.706730e+01
   7.605812e+01  -7.318909e+00
   1.892263e+01  -4.095143e+00
  -3.320407e+01  -5.095773e+01
  -2.097832e+01  -5.677280e+01
   5.683214e+01  -6.753316e+01
   1.539919e+02   2.491815e+01
   1.261694e+02   6.270102e+01
   3.414538e+01   1.194481e+02
  -7.755710e+01   1.412605e+02
  -1.663592e+02   2.227138e+01
  -5.820094e+01  -5.232643e+01
   1.842435e+01  -5.973484e+01
   1.834044e+01  -1.250502e+01
  -1.027937e+01   3.542508e+01
  -1.692826e+01   3.827628e+01
   1.232851e+01  -4.582344e+00
   5.690970e+01   2.150440e+01
   7.860835e+01   5.680823e+01
   3.123472e+01   1.339718e+02
  -1.411061e+02   1.388324e+02
  -1.613403e+02   5.573162e+01
  -1.303932e+02  -9.899968e+01
  -4.997087e+01  -1.245387e+02
   6.384466e+01  -1.170261e+02
   6.918873e+01  -3.857604e+01
   6.993254e+01   2.240189e+01
   6.499890e+01   5.411718e+01
   2.843969e+01   3.178083e+01
   8.957237e+01  -1.703672e+01
   2.650982e+01   5.727746e+01
  -4.064755e+01   6.571767e+01
  -6.854620e+01   4.181246e+01
  -1.423577e+02  -1.659151e+01
  -3.047796e+01  -8.765597e+01
   1.046964e+02  -1.035559e+02
   1.815599e+02  -8.835288e+00
   9.653274e+01   1.490671e+02
  -6.818186e+01   2.107652e+02
  -2.374791e+02   8.807165e+01
  -2.245261e+02  -3.985598e+01
  -6.288555e+01  -1.108760e+02
   2.717091e+01  -1.369444e+02
   6.590849e+01  -6.358778e+01
   7.152993e+01  -6.402758e+01
   5.642727e+01  -9.072316e+01
   6.172539e+01  -9.082776e+01
   8.514064e+01  -1.160486e+01
   7.887177e+01   8.861474e+01
   4.470293e+01   1.204561e+02
  -8.508749e+01   1.182221e+02
  -1.130254e+02  -5.157577e-01
  -9.898742e+01  -6.998922e+01
  -5.029234e+01  -7.913419e+01
   3.612235e+01  -8.973116e+01
   4.346160e+01   3.892096e+01
   1.912716e+01   4.395294e+01
  -6.749396e+00   4.665854e+01
   2.879967e+01  -2.099980e+01
   5.514636e+01  -2.579244e+00
  -3.370161e+00   2.767436e+01
  -8.472769e+01   2.141365e+01
  -9.856274e+01  -3.037412e+01
  -8.610259e+01  -5.477468e+01
   2.491959e+01  -4.543320e+01
   1.136840e+02  -5.618097e+01
   1.528958e+02  -3.936770e+01
   1.603698e+00   1.188313e+01
  -5.806579e+01   5.463855e+01
  -4.911294e+01   5.631065e-02
  -3.645509e+01  -8.171647e+01
   6.231575e+01  -2.733039e+01
   8.787622e+01  -2.089048e+01
   5.289410e+01   6.279259e+00
   3.637685e+01   2.222734e+01
   3.036979e+01  -5.421114e+01
   4.863314e+01  -4.398018e+00
   3.331583e+01   6.755041e+01
   3.575855e+01   9.537458e+01
  -5.983707e+01   1.232328e+02
  -1.568153e+02   2.915694e+01
  -1.337180e+02  -6.226996e+01
  -1.376289e+00  -9.283172e+01
   7.669064e+01  -5.162703e+01
   3.272055e+01  -4.890653e+00
  -1.680388e+01   3.459755e+01
  -1.287717e+02  -3.198350e+01
  -8.742461e+01  -3.930744e+01
   1.021090e+02  -4.733704e+01
   1.303075e+02  -5.916237e+01
   1.378133e+02   7.900840e+00
   2.291313e+01   3.066783e+01
  -4.796128e+01   6.154122e+01
  -3.794630e+01  -5.972689e+00
   4.038861e+01   1.219538e+01
   8.870265e+01  -2.870978e+01
   5.168553e+01   9.740217e+01
  -6.000655e+01   1.073389e+02
  -7.977853e+01   6.862938e+01
  -1.124483e+02  -6.758881e+01
  -1.163839e+01  -1.525629e+02
   7.084072e+01  -1.188385e+02
   3.761097e+01   7.909372e+00
   5.377840e+01   8.404615e+01
   1.581190e+01   5.614381e+01
  -5.410220e+01  -2.386813e+01
  -3.808941e+01  -4.199135e+01
   3.811737e-01   1.096392e+01
   1.288130e+01   3.150889e+01
  -5.921766e+01  -7.513779e+00
  -6.550028e+01  -7.407920e+01
  -1.923420e+01  -8.001406e+01
   2.736788e+01  -4.827737e+01
   1.073105e+02   1.062339e+00
   9.378202e+01   6.292455e+01
  -1.997875e+00   5.697692e+01
  -3.008663e+01   3.190401e+01
  -6.878812e+01  -1.435884e+01
  -4.772888e+01  -1.235187e+01
   1.064382e+01  -1.261634e+01
  -9.997250e+00   4.934708e+00
   3.246590e+00  -1.442732e+01
   4.088114e+01   3.973982e+01
   2.170818e+01  -1.406824e+01
   7.830651e+01  -1.174450e+01
   3.631556e+01   5.488026e+01
  -5.794486e+01   8.822508e+01
  -1.279165e+02   8.760989e+01
  -9.680859e+01  -5.919131e+01
  -5.238675e+01  -9.403046e+01
   7.578246e+01  -1.298998e+02
   8.368305e+01  -8.309632e+01
   3.888936e+01   2.288123e+01
   4.526419e+01   3.904127e+01
  -2.755088e+00  -1.349191e+01
  -1.620024e+01  -2.094241e+01
   6.286687e+01   4.377775e+01
   3.132019e+01   3.419759e+01
  -4.116313e+00   7.812379e+01
  -8.994078e+01  -2.306267e+01
  -9.905860e+01  -4.858931e+01
   1.599551e+01  -6.331821e+01
   7.517533e+01  -1.899360e+01
   4.385191e+01   5.055192e+01
  -1.041173e+01   9.007934e+01
  -6.037876e+01   5.994950e+01
  -5.247533e+01   3.268150e+01
  -1.454174e+01  -6.412920e+01
   6.066246e+01  -6.257564e+01
   4.168025e+01  -1.108796e+00
  -1.523073e+01   3.305413e+01
  -5.273022e+01   3.474971e+00
  -1.073411e+01   1.996396e+01
   1.335095e+01  -8.059927e+01
   8.985526e+01  -4.194970e+01
   1.315664e+01   4.573393e+01
   3.705239e+00   3.331625e+01
  -5.371666e+01   3.790155e+01
  -4.656841e+01   5.633679e+01
   1.320480e+01  -2.317182e+01
   1.156470e+01  -2.985858e+01
  -9.430206e+00   1.823644e-01
  -2.639559e+01   1.735153e+01
   2.237079e+01   3.654713e+01
  -5.659126e+01  -1.450256e+01
  -2.042888e+01  -2.310341e+01
  -6.247894e+00  -2.832759e+01
   1.110599e+01   2.669673e+01
  -1.833910e+01   8.223657e+00
   1.323555e+01  -3.464371e+01
  -2.463501e+01   6.769847e+00
   5.002707e+01  -5.105749e+01
   8.449840e+01   1.771706e+01
  -1.778288e+01   5.980152e+01
  -1.388636e+01   4.246283e+01
  -1.476389e+00   1.026396e+01
  -6.720920e-01  -2.797389e+01
   3.915923e+01  -3.690354e+01
   7.008092e+01   2.284557e+01
   2.097234e+01   4.360527e+01
  -4.934371e+01   5.097667e+01
  -8.428397e+01   4.336408e+00
  -5.705524e+01  -6.426277e+00
   1.407589e+01  -1.655863e+00
   2.329348e+00  -8.876958e+00
  -3.974636e+00  -1.429445e+01
  -5.462168e+01   3.201469e+01
