
 $NMID
 id='ANONYMOUS ', fmtdat='(2E16.6)'
 volume=1.0
 tramp=1.0
 $END
  -1.828091e+03  -1.050235e+02
  -1.034433e+03  -6.001293e+02
   3.536526e+01  -8.834544e+02
   3.516416e+02  -6.114871e+02
   5.395413e+02  -2.584958e+02
   1.030801e+02  -4.047029e+01
  -5.990623e+01  -8.313608e+01
  -5.476895e+01  -2.499925e+02
   2.958466e+02  -3.357454e+02
   3.034094e+02  -1.623518e+02
   2.642130e+02   2.207355e+02
   9.732098e+01   2.915452e+02
  -9.104083e+01   8.095463e+01
  -1.047624e+02  -1.898413e+02
   1.031776e+02  -2.995860e+02
   2.503634e+02  -6.636008e-02
   2.150146e+02   2.945533e+02
  -5.212330e+01   3.281061e+02
  -2.258141e+02   1.960427e+02
  -2.724153e+02  -8.277280e+01
  -5.051201e+01  -1.553739e+02
   4.207832e+01  -1.089891e+02
  -2.697942e+01  -4.035506e+01
  -8.235143e+01  -1.095991e+02
  -1.061458e+02  -1.959838e+02
   5.444937e+01  -1.839603e+02
   2.978586e+02  -1.383427e+01
   3.807855e+02   2.220259e+02
   5.446184e+01   1.539694e+02
  -2.084554e+02   1.108778e+02
  -2.479210e+02  -1.002015e+02
  -1.022649e+02  -2.020319e+02
   1.165679e+02  -1.991714e+02
   2.500096e+02  -1.033974e+02
   1.642915e+02   3.419236e+01
   9.905254e+00   1.421173e+02
   3.740279e+01   6.889181e+01
   8.698713e+01  -5.013964e+01
   8.536533e+01   5.701069e+00
   8.845303e+01   1.086753e+02
  -4.036710e+01   2.585242e+02
  -9.585073e+01   1.899823e+02
  -1.687712e+02  -7.262063e+00
  -9.026693e+01  -1.354676e+02
   5.655002e+01  -6.220450e+01
   8.649591e+01   1.674865e+02
  -6.563848e+01   2.246941e+02
  -2.007246e+02   3.019557e+01
  -2.669516e+02  -1.775779e+02
  -1.150574e+02  -2.158905e+02
   1.331048e+02  -1.763246e+02
   2.435173e+02   8.299722e+01
   1.380387e+02   9.494574e+01
  -5.798496e-02   1.259907e+02
  -1.544285e+02   6.155332e+01
  -7.734647e+01   3.120945e+01
   3.318747e+01   1.078954e+01
   6.406959e+01  -4.705317e+00
  -4.261985e+01  -2.164162e+01
  -1.121441e+02  -2.674185e+01
  -1.101295e+02  -6.700495e+01
   6.825175e+01  -1.413669e+02
   2.290001e+02  -9.362072e+01
   1.714727e+02   9.613589e+01
  -3.301912e+01   1.964148e+02
  -1.389933e+02   2.120539e+02
  -2.095491e+02   5.982865e+01
  -1.727849e+02  -6.204976e+01
  -9.777683e+01  -1.819904e+02
  -6.513358e+01  -1.480578e+02
  -5.334311e+00  -1.547063e+02
  -1.123327e+01  -1.112370e+02
   1.212797e+02  -6.948885e+01
   1.680442e+02  -1.255750e+01
   1.080932e+02   1.152986e+02
   8.945435e+00   1.630407e+02
  -4.309866e+01   9.427238e+01
  -1.056173e+02  -2.550111e+01
  -5.595919e+01  -1.486851e+02
   4.075385e+01  -1.716668e+02
   1.376465e+02  -4.750857e+01
   1.858579e+02   9.979676e+01
   5.487809e+01   1.563466e+02
  -4.193968e+01   1.705088e+02
  -7.081352e+01   6.599951e+01
  -6.451245e+01   4.083778e+01
  -6.711071e+01   7.525186e+01
  -1.885046e+02   4.211138e+01
  -2.463481e+02  -9.355701e+01
  -1.854134e+02  -1.859569e+02
  -1.799311e+01  -2.716818e+02
   2.199656e+02  -2.231710e+02
   2.967800e+02  -1.120689e+02
   1.956747e+02   6.591086e+01
   3.936848e+01   1.457163e+02
  -6.293018e+01   8.863638e+01
  -4.667293e+00   1.601620e+01
   8.378597e+01   2.233542e+00
   6.668829e+01   5.158712e+01
  -9.169714e+00   9.560346e+01
  -4.188218e+01   3.370590e+01
  -2.769660e+01  -5.027907e+01
   7.756512e+01  -6.403553e+01
   1.497683e+02  -1.288114e+01
   8.240826e+01   1.470315e+02
  -8.365071e+00   2.229300e+02
  -1.383509e+02   1.653877e+02
  -1.438719e+02   2.370622e+00
  -1.306221e+02  -1.790788e+02
  -3.025809e+01  -1.448252e+02
   9.635187e+01  -1.164393e+02
   7.983469e+01  -1.456491e+01
   1.569540e+01   1.314230e+01
  -3.103917e+01  -4.130526e+01
   2.221411e+01  -4.946232e+01
   6.755518e+01  -1.252904e+01
   7.026080e+01   1.258282e+01
   2.813566e+01  -1.907908e+01
  -2.376735e+01  -1.763752e+01
  -8.722198e+00  -4.075848e+01
   1.178395e+02  -4.966442e+01
   1.694843e+02   2.822002e+01
   1.345859e+02   9.788418e+01
   1.993612e+01   1.112998e+02
  -1.549071e+02   1.277721e+02
  -1.366437e+02   2.390723e+01
  -9.590178e+01   3.244366e+00
  -2.916254e+01  -6.644961e+01
  -8.178337e+00   1.411371e+01
  -1.787282e+01   2.058041e+01
  -1.653418e+02  -2.598109e+01
  -1.354215e+02  -6.612123e+01
  -8.517607e+00  -1.136509e+02
   7.181326e+01  -6.158081e+01
   8.414309e+01  -2.511953e+01
   1.209526e-01   3.807869e+00
  -2.039920e+01  -3.504685e+01
  -1.285823e+01  -7.412234e+01
   1.161205e+02  -5.953871e+01
   1.248464e+02   2.389290e+01
   6.705787e+01   6.953038e+01
  -1.298164e+01   7.580714e+01
  -1.071502e+02   9.202729e+01
  -1.438897e+02   1.177791e+01
  -5.554986e+01  -2.349578e+01
   5.435681e+01  -1.579786e+01
   4.191448e+01  -1.851410e+00
  -1.091718e+01   3.040785e+01
  -5.892112e+00  -1.346113e+01
   5.530459e+01  -3.340281e+01
   7.037129e+01   4.301708e+01
   4.860414e+01   5.509950e+01
  -9.618668e-01   6.945440e+01
  -8.366127e+01   9.358114e+01
  -1.256362e+02   2.692315e+01
  -9.691080e+01  -1.049544e+02
  -2.419948e+01  -1.313617e+02
   7.285894e+01  -1.314435e+02
   7.902054e+01  -3.433661e+01
   4.777494e+01  -1.791901e+01
   3.200967e+01  -4.970730e+00
   4.624137e+01  -1.047658e+01
   4.878641e+01   1.354429e-01
   2.364003e+01   4.152503e+01
  -3.809342e+01   6.829313e+01
  -9.122621e+01   6.021201e+00
  -5.446660e+01  -4.635960e+01
  -3.294845e+01  -8.511842e+01
   1.430913e+02  -6.196262e+01
   8.774412e+01   9.209598e+00
   4.969898e+01   1.487284e+02
  -8.381983e+01   1.351682e+02
  -1.571505e+02   5.303161e+01
  -1.316021e+02  -5.511645e+01
   1.043693e+01  -1.513322e+02
   2.804347e+01  -6.763851e+01
   2.440105e+01  -2.094982e+01
   4.566922e+01  -8.744171e+01
   1.346809e+01  -2.435713e+01
   6.727979e+01  -2.004772e+01
   1.116944e+02   2.994504e+00
   2.843280e+01   8.617278e+01
   3.241694e+01   1.405695e+02
  -8.311993e+01   1.213117e+02
  -1.170319e+02   5.679965e+01
  -5.930624e+01  -1.197434e+02
   2.430328e+01  -1.189887e+02
   3.808094e+01  -5.816339e+01
   3.613146e+00   1.312321e+01
   1.333176e+01   2.337946e+00
  -1.734231e+01   1.282135e+01
  -8.120994e+00  -1.935921e+01
   6.156174e+01   3.083248e+01
   2.885206e+01   3.440977e+01
  -5.237729e+01   4.399962e+01
  -8.737851e+01  -1.261119e+01
  -7.288911e+01  -6.821994e+01
   1.214726e+01  -3.744586e+01
   7.988404e+01  -4.779819e+01
   1.062695e+02  -3.095663e+01
   7.280719e+01   6.312400e+00
  -9.231407e+01   7.207802e+01
  -8.856258e+01  -3.344173e+01
  -1.802679e+01  -6.092081e+00
   1.488313e+00  -2.220723e+01
   6.993009e+01  -3.219424e+01
   4.531110e+01   4.081030e+01
   3.223283e+01   2.201791e+01
   4.555095e+01   3.833997e+01
   2.552098e+01   1.353544e+01
   2.380339e+01  -4.151726e+01
   4.240171e+01   1.035706e+02
  -7.868740e+01   1.422172e+02
  -9.375939e+01   3.871640e+01
  -6.521196e+01  -5.608421e+01
   1.925868e+01  -8.223649e+01
   6.209941e+01  -6.662160e+01
   3.504366e+01   6.160168e+00
  -3.559350e+01   6.417105e+01
  -6.670900e+01   4.645187e+01
  -6.688047e+01  -4.878264e+01
   3.640726e+01  -3.927337e+01
   8.698189e+01  -3.858710e+01
   8.389991e+01   1.276210e+01
  -8.951992e+00   1.207644e+01
  -3.732989e+01   7.434872e+00
  -3.946790e+01  -7.821598e+00
  -3.052992e+01  -2.400208e+01
   8.291850e+01   2.044479e+01
  -1.593779e+00   5.160203e+01
  -1.653922e+01   1.348637e+02
  -5.281823e+01   4.144743e+01
  -1.185484e+02  -3.804626e+01
   9.560625e-01  -8.129375e+01
   6.209663e+01  -9.043038e+01
   4.727677e+01   1.560504e+01
  -1.042069e+01   7.918529e+01
  -3.100686e+01   2.379414e+01
  -6.827290e+01  -1.514275e+01
  -2.392597e+01  -4.291985e-01
   3.015474e+01  -2.311787e+01
  -4.280878e+00   1.694687e+00
  -2.500212e+01  -3.484506e+01
  -2.470335e+01  -5.572871e+01
  -1.116872e+01  -6.769116e+01
   4.552356e+01  -9.544898e+01
   4.999243e+01  -6.328375e+00
   9.609590e+01   2.803021e+01
   3.255154e+01   3.217448e+01
  -3.651405e+01   2.613556e+01
  -2.391729e+01   1.537467e+01
  -2.951270e+01   2.962907e+01
  -2.229648e+01  -1.681769e+01
  -1.021381e+01  -1.015788e+01
  -2.380729e+01  -2.650403e+01
  -1.237322e+01  -3.090123e+01
   2.936243e+01   1.257741e+01
   7.735803e+01   2.091031e+01
   3.068940e+01   3.887685e+01
  -8.460532e+01   1.050384e+02
  -8.164268e+01   6.207459e+01
  -1.253111e+02  -2.548981e+01
  -4.494690e+01  -1.499701e+02
   1.606252e+01  -5.775747e+01
   4.713862e+01  -3.966721e+01
   7.125882e+01   2.133679e+01
   4.061879e+01   9.390224e-01
  -7.977398e+00   2.614020e+01
   3.518203e+01   1.386877e+01
   8.844084e+00   3.543882e+01
  -1.282615e+01   7.261987e+01
  -3.858954e+01   1.804695e+00
  -1.034023e+02  -6.745656e+01
  -5.046129e+01  -6.397811e+01
   1.327857e+01  -6.387688e+01
   3.864024e+01  -2.595675e+01
   1.009098e+02   2.478233e+01
   3.836050e+01   7.860515e+01
  -5.743738e+01  -5.642879e+00
  -3.749995e+01   2.680299e+00
  -3.824736e+01  -4.463529e+01
   4.042830e+01  -2.839871e+00
   1.589545e+01  -1.127039e+01
  -9.699710e+00  -2.729016e+01
  -4.657791e+01   3.146811e+00
  -6.730443e+00   2.490190e+00
   5.384562e+01  -6.192279e+01
   7.117196e+01  -5.372433e+01
   5.493859e+01   3.651238e+01
   2.357675e+01   3.299955e+01
  -4.633089e+01   7.921270e+01
  -3.522133e+01   2.071818e+01
  -6.721345e+01  -1.688429e+01
   3.191801e+01  -4.623900e+01
   3.822749e+01  -1.293497e+01
   4.938662e+01   2.420900e+01
   7.799335e+00   2.149670e+01
  -1.740973e+01   1.060205e+01
  -2.345359e+01  -4.060600e+01
   2.463879e+01   3.975519e+00
   1.701603e+01   1.757958e+01
  -1.698832e+01   6.657446e+01
  -8.161838e+00  -1.823171e+00
  -2.296569e+01  -2.266162e+01
  -1.891603e+00  -8.611229e+00
   5.866076e+01   2.534005e+01
   2.319443e+01   2.187542e+01
  -7.455027e+00   1.989859e+00
  -3.442042e+01  -1.178268e+01
  -2.863721e+01  -5.605471e+01
   5.142046e+01  -1.413180e+01
   7.392909e+01  -1.129526e+01
   7.569205e+01  -4.848369e+00
   1.489250e+01   3.721237e+01
  -4.756105e+01   3.492855e+01
  -1.747017e+01  -4.724430e+00
   1.919149e+01  -6.447542e+00
   4.791179e+01  -2.273282e+01
   4.235695e-02   2.783720e+00
  -4.932457e+01  -1.441473e+01
