
 $NMID
 id='ANONYMOUS ', fmtdat='(2E16.6)'
 volume=1.0
 tramp=1.0
 $END
   1.130731e+03  -4.016593e+02
   9.358163e+02   2.760382e+02
   7.276345e+01   6.925166e+02
  -3.974042e+02   4.610453e+02
  -2.652999e+02   1.511056e+02
   2.251298e+01  -9.528023e+00
   9.501105e+01   7.580894e+00
   2.742256e+01   8.364294e+01
  -6.206507e+01   1.642430e+02
  -2.473692e+02   8.448861e+01
  -1.215059e+02  -1.272157e+02
  -4.207003e+01  -1.759389e+02
  -1.087880e+01  -3.451998e+01
   6.612086e+01   9.830667e+01
  -1.172200e+02   1.522353e+02
  -1.290956e+02   4.866851e+00
  -5.234054e+01  -8.570331e+01
   1.521486e+01  -1.971565e+02
   1.090691e+02  -1.387482e+02
   1.292293e+02   2.436044e+01
   8.488833e+01   1.009039e+02
  -5.451069e+01   8.458322e+01
   1.367242e+01   5.053629e+01
   9.258047e+01   2.948352e+01
   9.691887e+01   1.417179e+02
  -5.848911e+01   8.764289e+01
  -1.983641e+02  -5.025630e+00
  -1.295415e+02  -8.976224e+01
  -4.359767e+01  -1.279015e+02
   1.616628e+02  -9.594614e+00
   1.913835e+02   7.039924e+01
   4.495696e+01   1.585852e+02
  -8.981695e+01   1.515279e+02
  -1.211581e+02   3.170937e+01
  -1.341337e+02  -2.355257e+01
   2.925238e+00  -3.196282e+01
  -2.438805e+01  -2.775012e+01
  -6.581505e+01   5.460732e+01
  -6.870855e+01   2.081958e+01
  -6.285393e+01  -9.450337e+01
  -2.099975e+01  -1.457687e+02
   7.759732e+01  -5.527579e+01
   5.612269e+01  -3.852807e+01
  -6.848177e+00   3.831278e+01
  -7.410117e+01  -1.093146e+01
  -8.817769e+01  -1.236003e+02
   2.447364e+01  -1.364093e+02
   1.742523e+02  -7.765885e+00
   9.701110e+01   1.874059e+02
   3.032987e+01   2.002731e+02
  -8.656798e+01   8.027111e+01
  -2.028115e+02  -4.250337e+01
  -8.367814e+01  -1.003329e+02
  -4.994361e+01  -3.262984e+01
   4.195185e+01  -5.504475e+01
   6.877966e+01  -4.649699e+00
  -5.313309e+00   5.123686e+00
   3.012228e+00  -1.891888e+01
   5.539744e+01  -3.212923e+01
   7.714223e+01   2.623088e+01
   3.635647e+01   2.663493e+01
  -2.969496e+01   7.262326e+01
  -1.226254e+02   5.033613e+01
  -5.408969e+01  -1.019705e+01
  -2.889460e+00  -1.328154e+02
   1.199521e+02  -1.731732e+02
   1.518558e+02   1.752721e+01
   7.861754e+01   1.135054e+02
   7.065979e+00   1.555678e+02
  -1.951384e+01   1.503697e+02
  -1.021549e+01   6.911457e+01
   3.212446e+01   7.187911e+01
  -7.143141e+01   8.124206e+01
  -8.263194e+01  -1.256359e+00
  -1.096638e+02  -5.709880e+01
  -2.525781e+01  -9.471340e+01
   3.795455e+01  -2.773589e+01
   5.497157e+01   1.703273e+01
  -4.365278e+00   7.099434e+01
  -5.388852e+01   6.432453e+01
  -8.814961e+01  -8.567789e+00
  -8.707345e+01  -9.246184e+01
  -5.844848e+01  -7.113417e+01
   6.281240e+01  -7.593010e+01
   4.555247e+01  -3.041433e+01
   8.112877e+01  -5.395777e+01
   6.843576e+01  -3.909589e+01
   1.175116e+02  -2.103795e+01
   1.972085e+02   3.185759e+01
   3.642170e+01   6.641576e+01
   4.314425e+01   1.596685e+02
  -7.059825e+01   7.561458e+01
  -1.433367e+02   6.324522e+01
  -8.974914e+01  -6.254641e+01
  -7.379127e+00  -8.846271e+01
   5.604500e+01  -1.135080e+02
   1.921974e+01  -1.127299e+01
  -5.080007e+01  -1.271043e+01
  -4.663373e+01  -1.002678e+01
  -1.557079e+01  -6.328778e+01
   6.284916e+01   1.130505e+01
   3.465909e+01   1.797530e+00
  -1.120269e+01   2.856335e+01
  -3.895294e+01  -3.071325e+00
  -2.890859e+01  -7.060165e+01
  -2.055353e+01  -9.040857e+01
   7.600441e+01  -1.724110e+01
   1.135766e+02   7.588448e+01
   5.845797e+01   1.396418e+02
   4.785503e-01   3.848644e+01
  -4.419391e+01   7.822679e+01
  -5.070909e+01  -3.232375e+01
   2.375195e+00  -1.283660e+01
   1.782533e+01   3.379014e+01
   7.127815e+00   7.112683e+01
  -2.580946e+01   4.031374e+01
  -7.099665e+01  -2.480917e+01
  -1.479154e+01  -1.017603e+01
   2.972101e+01   3.525533e+01
  -7.793078e+00   8.012820e+00
  -2.830202e+01   3.277637e+01
  -6.554998e+01  -3.080201e+01
  -6.516171e+01  -4.087681e+01
   3.329847e+01  -1.057524e+02
   7.865482e+01  -4.771430e+01
   8.101319e+01  -3.855779e+01
   5.612806e+01   4.982966e+00
  -3.269321e+01   3.922926e+01
  -5.151934e+01   2.955509e+01
   4.721069e+01  -2.915655e+01
   8.778305e+01  -9.408054e+00
   5.249143e+01   6.328698e+01
   2.259634e+01   5.428267e+01
  -4.216436e+01   3.965903e+01
  -5.428540e+01  -2.206282e+01
  -1.002876e+01  -1.327108e+01
   3.341066e+01   1.952318e+01
   2.488936e+01   2.999609e+01
  -4.336521e+01   4.159854e+01
  -8.381493e+01  -2.493841e+01
  -6.933777e+01  -7.154643e+01
  -1.651325e+01  -7.591012e+01
   4.549839e+01  -4.492184e+01
   7.020215e+01   3.744294e+01
   1.757204e+01   1.952412e-01
  -2.476708e+01  -7.562043e+00
  -6.432017e+01   1.964090e+01
   2.189908e+01  -7.996682e+00
   2.883540e+01   8.282457e-01
   3.528211e+01   3.096028e+01
  -4.953898e+01   2.873412e+01
  -3.162895e+01  -4.583606e+01
   3.026468e+00  -5.909520e+01
   8.855655e+01  -8.309695e+01
   8.173053e+01  -1.705183e+01
   6.847459e+01   4.767189e+01
  -4.260762e+00   7.601494e+01
  -2.570653e+01   9.385530e+01
  -6.130937e+01  -1.119500e+01
  -7.138900e+01  -1.841968e+01
  -3.785423e+01   1.757237e+00
  -1.307798e+01   1.129629e+01
  -1.185546e+00   9.286295e+00
  -9.233796e+00  -3.610009e+01
   2.119806e+01  -2.418854e+01
   5.971314e+01  -2.545354e+01
  -3.197982e+00  -1.169452e+00
   9.176871e+00   5.108483e+01
  -6.261290e+01   4.556873e+01
  -6.530328e+01  -4.342233e+01
  -2.972562e+01  -5.805419e+01
   5.534216e+01  -5.589389e+01
   1.148808e+02  -2.723382e+01
   6.154141e+01   3.422286e+01
   4.879714e+00   7.472326e+01
  -3.902196e+01   4.191073e+01
  -4.605919e+01   3.573634e+00
  -2.294384e+01   4.593113e+01
  -2.972990e+01   6.187666e+01
  -4.896145e+01  -1.601562e+01
  -2.081871e+01  -1.225324e+01
  -9.429224e+01  -5.493447e+01
   1.484067e+00  -5.158938e+01
  -2.528419e+01  -3.076577e-01
   5.314538e+01  -3.158071e+01
   8.435539e+01   1.472680e+01
  -2.390386e+01   6.730149e+01
  -2.008019e+01   3.294418e+01
  -2.301931e+01   3.797599e-01
  -1.644049e+01  -8.536945e+00
   2.966140e+01  -5.419969e+01
  -3.607097e+01  -3.201527e+01
  -9.402626e+00  -9.756824e+00
  -2.994163e+01   4.210134e+01
   2.581272e+01  -4.129397e+01
   6.343073e+01  -2.650445e+00
   1.744662e+01   5.811176e+01
   1.225389e+01  -8.754912e-01
  -3.347193e+01   2.775251e+01
  -3.437008e+01   2.291367e+00
   7.009422e+00  -1.061847e+01
   9.279776e+00  -3.776551e+00
   3.195990e+01   2.380212e+01
   1.256156e+01   2.668090e+01
  -2.565383e+01   1.297409e+01
  -1.479659e+01   7.468232e+00
  -6.910059e+00  -2.791409e+01
  -9.065409e+00  -1.947361e+01
  -1.958381e+01   1.902549e-01
  -1.773450e+01  -4.157996e+00
   1.909876e+01  -3.501121e+01
   6.550427e+00  -4.814392e+01
   7.112795e+01  -7.934957e+01
   9.487668e+01   1.211529e+01
   4.529606e+01   2.910605e+00
   1.431647e+01   6.771302e+01
  -5.320171e+01  -1.446055e+01
   2.669297e-02  -4.969735e+00
   1.805951e+01  -1.570766e+01
   5.599463e+01  -3.842190e+01
   5.460000e+01   3.976834e+01
  -2.604675e+01  -3.683916e+01
  -4.937288e+01  -2.391061e+01
  -3.934774e+01  -3.414387e+01
   9.635242e+00  -2.950711e+01
   4.996239e+01  -4.302388e+01
  -3.320916e+01  -1.109284e+01
  -1.984297e+01  -9.573270e+00
  -4.192122e+01   1.905647e+01
   5.558270e-01  -2.431689e+01
   5.351648e+00  -5.388205e+01
   7.382389e+01  -1.258202e+01
   8.363870e+01   5.078489e+01
   7.731058e+00   8.586963e+01
  -2.948347e+01   4.832713e+01
  -7.225887e+01  -1.971553e+01
  -5.465188e+01  -3.761457e+01
   6.848060e+00  -5.243344e+01
  -2.133983e+01   1.653791e+01
   4.332206e+01   9.209684e+00
  -5.302287e+00  -9.482080e+00
  -7.872072e+00   6.838443e+00
   3.438326e+01   1.927614e+01
   9.105569e+00   3.266110e+01
   1.712597e+01   3.052106e+01
  -2.856764e+01   4.837127e+01
  -3.625702e+01  -3.436603e+01
  -5.960166e+01  -5.194776e+01
  -5.434297e+00  -9.726328e+00
   4.372077e+01  -4.627759e+01
   2.275847e+01  -4.565130e+01
   7.881740e+00   2.344587e+01
  -5.637518e+00   2.707927e+01
  -4.427010e+01   1.694159e+01
  -4.073211e+01   1.051364e+01
   3.518665e+00  -4.085385e+00
   1.009830e+00  -2.272036e+01
  -2.021328e+01   6.431784e+00
  -1.121584e+01  -3.509016e+01
   5.465609e+01  -6.774188e+01
   8.940491e+01  -2.599142e+01
   3.423966e+01   2.928553e+01
   5.107331e+01   7.826944e+01
  -2.155680e+00   5.139298e+01
  -8.107350e+01   2.681657e+01
  -2.027124e+01   1.023326e+00
  -4.118812e+00  -1.914904e+01
  -1.181479e+01  -2.453828e+01
  -5.159442e-02   3.693176e+00
  -2.229272e+01   5.159710e-01
  -1.072266e+01  -1.857686e+01
   3.575935e+01  -4.843823e+01
   4.950802e+01  -1.840317e+01
  -3.431259e+00   3.280721e+01
   3.775465e+01   1.198483e+01
  -2.487832e+01   3.043737e+00
  -1.523050e+01   3.063038e+01
   2.469476e+01  -2.105618e+01
   3.547417e+00  -2.560709e+01
   2.163534e+01   1.354409e+00
   1.604529e+01   1.045256e+01
  -1.206147e+01   4.337734e+01
  -3.028214e+00  -3.108289e+01
  -2.782093e+01   2.062008e+01
   3.379764e+01  -1.364591e+01
   4.641929e+01   9.748038e-02
  -1.002941e+01   5.863096e-01
  -5.142354e+01   1.080129e+01
  -5.732360e+01  -3.800283e+01
  -4.204520e+00  -2.031380e+01
   4.042938e+01  -1.193600e+01
   1.793130e+00   2.215104e+00
   1.037783e+01  -1.935726e+01
  -3.251098e+01   1.225870e+01
  -6.733851e+00  -2.282692e+01
  -8.985676e+00   5.409746e+00
   9.829785e+00  -3.701873e+01
   2.779158e+01  -4.046572e+00
   3.391471e+01  -1.484143e+01
  -3.522807e+01   2.945291e+01
   1.830346e+01   1.846640e+01
  -2.514136e+01  -4.707454e+01
   7.350732e+00  -1.328898e+00
   5.591877e+00   5.423865e+01
   7.503863e+00   1.154057e+01
  -9.865311e+00  -3.172106e+01
  -4.498253e+01  -3.041098e+00
   1.542134e+00  -6.701952e+00
   3.041290e+01  -2.198755e+00
   3.422926e+01   2.418977e+01
  -4.806744e+01   4.509488e+01
  -5.440113e+01   2.643649e+01
  -3.191583e+01  -3.122563e+01
   4.172393e+01  -1.288230e+01
   6.927576e+01   2.638135e+00
   1.328631e+01  -1.521081e+01
  -1.237099e+01   2.264061e+00
  -3.781262e+01  -3.851462e+01
  -3.207757e+01   2.930774e+00
   2.931498e+01  -2.615742e+01
