
 $NMID
 id='ANONYMOUS ', fmtdat='(2E16.6)'
 volume=1.0
 tramp=1.0
 $END
   8.424447e+02  -2.924493e+02
   7.334798e+02   2.012430e+02
   1.394080e+01   5.873890e+02
  -3.991117e+02   3.722144e+02
  -3.634147e+02   4.534792e+01
   8.486225e+00  -7.016789e+01
   4.023785e+01   4.681559e+01
   2.574204e+01  -3.855261e+01
  -3.743462e+01   9.442413e+01
  -8.963305e+01   7.423989e+01
  -1.223585e+02  -3.877342e+01
  -7.603129e+01  -1.434554e+02
   4.322705e+01  -9.230556e+01
   1.020414e+02  -2.635825e+01
   7.667626e+01   7.892685e+01
  -4.565315e+01   5.551761e+00
  -8.912451e+01  -9.536674e+01
  -3.489830e+01  -1.232383e+02
   1.828348e+01  -1.040584e+02
   1.076352e+02   2.654276e+01
   5.601717e+01   1.006972e+02
  -2.354655e+01   7.957393e+01
  -4.663302e+00   5.944270e+01
   1.035023e-01   3.709000e+01
   1.040243e+01   5.307372e+01
   1.000692e+01   5.353946e+01
  -3.459532e+01   4.301515e+01
  -8.413917e+01  -7.985385e+00
  -8.465643e+01  -8.239742e+01
   9.963102e+01  -2.598767e+00
   2.861503e+01  -3.728182e+01
   5.967196e+01   3.633986e+01
  -3.867795e+01   1.042237e+02
  -1.080175e+02   6.459110e+01
  -1.289842e+02   3.574945e+00
  -8.117680e+01  -3.135242e+01
   6.185395e+00  -7.777572e+01
   2.855810e+01   2.099041e+00
  -1.281446e+01   5.595722e+01
  -1.694393e+00  -7.161573e+00
  -2.518419e+01  -8.450892e+01
  -3.099463e+00  -1.360645e+02
   3.539359e+01   1.885166e+01
   5.991144e+01   4.144430e+01
  -3.234777e+01   9.907623e+01
   3.194639e+01  -8.410379e+01
   6.303017e+01  -7.142177e+01
   6.054242e+01   3.394688e+01
   1.054215e+02   8.620581e+01
   1.655793e+01   6.957870e+01
  -4.176136e+01   2.340929e+01
  -8.439834e+01  -3.319617e+00
  -7.133614e+01  -3.265043e+01
  -4.784277e+01  -3.895566e+01
   3.418400e+01  -4.515202e+01
   2.395334e+01  -2.011753e+01
   3.061499e+01  -8.166565e+00
  -1.833294e+01   3.333375e+01
   2.813610e+01   2.192098e+01
   4.276746e+01   6.203154e+00
   4.976052e+01   5.007531e+01
  -1.212118e+01   2.698998e+01
  -5.279674e+01   1.102771e+01
  -1.284074e+01  -3.020926e+01
   2.554899e+01  -9.610397e+01
   4.054806e+01  -7.821841e+01
   5.379671e+01  -3.102615e+01
   4.105307e+01   1.667741e+01
   5.566521e+01   6.932590e+01
   6.104370e+01   9.039642e+01
  -3.335340e+01   2.986677e+01
   1.444286e+01   1.085656e+01
  -6.777578e+01   3.939599e+01
  -5.326485e+01   1.117333e+01
  -1.752773e+01  -2.063885e+01
  -2.252514e+01  -3.812269e+01
  -1.387491e+01  -5.267391e+01
   6.130625e+01   1.714931e+01
   2.694416e+01   9.718121e+00
  -3.722669e+00   5.203660e+01
  -3.681903e+01   4.104792e+01
  -6.537094e+00  -6.386112e+01
  -4.736014e+01  -7.637411e+01
  -2.645202e+01  -3.163404e+01
   2.801266e+01  -5.401716e+01
   2.247446e+01   1.028928e+01
   3.961839e+01   2.098972e+01
   2.100519e+01  -1.445916e+01
   9.564881e+01   2.864289e+01
   8.544239e+01   2.008754e+01
   4.605276e+00   1.135390e+02
  -1.830734e+02   8.358652e+01
  -1.482395e+02   6.722636e+01
  -4.672307e+01  -4.349786e+01
  -2.198147e+01  -1.603010e+01
  -3.358846e+01  -2.917878e+01
   2.477299e+01   3.697096e+01
  -1.143816e+01   6.737023e+00
   1.357622e+01   5.939334e+00
   9.915626e+00  -1.522802e+01
   4.551235e+01  -9.251069e+01
   2.111146e+01   4.158002e+01
  -5.665535e+00   1.849839e+00
  -1.712344e+01  -3.431536e+01
   4.535263e+00  -6.406379e+01
   2.913995e+01  -6.205800e+01
   4.841428e+01  -5.211495e+01
   7.310346e+01   4.189498e+01
   5.932690e+01   3.467785e+01
   5.432132e+00   1.009001e+02
  -4.511766e+00   7.481456e+01
   6.755295e+00  -1.796388e+01
   2.926849e+01  -4.016847e+01
  -2.490848e+00   3.103141e+01
   1.093689e+01  -8.219098e+00
   2.020221e+01   2.485345e+00
  -4.332252e+01   5.954836e+00
  -8.600475e+00  -3.757404e+01
   2.052984e+01   1.214967e+01
   2.913069e+01   3.517100e+01
  -6.188641e+01   3.490121e+01
  -7.194014e+01   2.882020e+01
  -3.364672e+01   1.824949e+00
  -1.900111e+00  -7.156383e+01
   5.793648e+01  -1.012426e+02
   1.408027e+01  -3.130643e+01
  -5.849465e+00   1.308513e+01
   3.242782e+01   5.723476e+00
   8.376088e+00  -1.494082e+01
   5.700078e+01  -1.434619e+01
  -1.052775e+01  -4.273586e+01
   2.700160e+01   1.619255e+01
   3.113236e+00   4.074767e+01
  -8.037651e+00   3.382754e+01
  -2.362803e+01  -2.724250e+00
  -4.840249e+00   5.202358e+01
   3.901653e+00   3.035629e+01
  -1.504949e+01   3.370355e+01
  -1.552537e+01   1.987648e+01
  -4.718296e+00   5.381306e+00
  -3.469260e+01   1.392951e+01
  -2.932782e+00  -3.379955e+01
   1.373239e+01  -4.551091e+01
   3.143983e+01   7.187390e-01
   7.215899e+00   3.941062e+00
  -1.150387e+01   6.545512e+01
   5.077842e+00   8.950697e+00
  -5.034615e+00  -1.209117e+00
  -9.470516e+00   4.605100e+00
   1.958007e+01  -2.605772e+01
   1.122658e+01   3.059281e+01
  -4.811705e+00  -5.718002e+01
   1.883886e+01  -3.818844e+01
   5.355650e+01  -4.170753e+01
   5.160125e+01  -4.802166e+01
   4.288042e+01   3.746578e+01
   4.642414e+00   2.407427e+01
   2.801564e+00   1.431752e+01
   5.435698e+00   1.087757e+01
  -5.503869e+01   1.082031e+01
   5.067667e+00   1.605418e+01
  -1.170985e+01   2.603063e+01
  -1.872316e+00  -6.790227e+00
   6.197890e-01   3.615765e+00
   3.129987e+01  -3.829220e+01
   7.423970e+00  -3.716423e+01
   3.458150e+01  -2.700270e-01
   2.853361e+01   4.441212e+01
  -4.126496e+01   5.962084e+01
   9.931872e+00   6.285226e+00
  -2.201468e+01  -2.023386e+01
   1.723488e+01  -4.123876e+01
   3.782837e+01   5.364122e+00
   9.536832e+01   2.246060e+00
   4.010647e+01  -1.835784e+00
  -2.164730e+01   3.290467e+01
  -2.456338e+01   4.621779e+01
  -4.742323e+01   1.655788e+01
  -5.315738e+01   6.748383e-01
  -2.561827e+01   6.765551e+00
  -3.051665e+01   4.482046e+00
  -3.966200e+01   2.249087e+01
  -2.001016e+01  -5.969028e+01
  -1.009925e+01   9.096790e+00
  -8.399374e+00  -9.594607e+00
   2.050131e+01   6.605945e+00
  -5.499845e-01   5.503412e+01
   5.141608e-01   3.534352e+01
   1.806024e+01   3.079954e+00
  -1.544738e+01  -1.527207e+01
  -1.523651e+01   2.618278e+01
  -2.190632e+01   4.644824e+01
  -3.314773e+00   7.270613e+00
  -2.954401e+01  -3.659865e+01
   1.130162e+01  -2.378702e+01
   6.908731e+01  -8.706705e+00
  -2.890408e+00   1.351473e+01
   2.049432e+00   3.142775e+01
  -3.508236e+01   1.047095e+01
  -6.168924e+01  -1.905206e+01
  -2.390965e+01  -5.815714e-01
   1.182521e+01  -3.686313e+00
   3.650291e+01  -2.198546e+01
  -5.475766e-01  -2.895419e+01
   2.193188e+01   5.297846e+01
  -9.476270e+00  -1.462874e+01
   4.307990e-01  -4.502430e+01
  -1.257918e+01   8.207183e+00
   1.235483e+01  -1.353843e+01
  -4.428911e+01  -1.563041e+01
  -2.681278e+01  -2.227433e+01
   5.804675e+01  -5.375153e+01
   2.828039e+01  -8.052143e+01
   3.767344e+01  -2.013187e+01
   6.065812e+01  -2.834128e+01
   1.093863e+01   6.478092e+01
  -2.597057e+01  -7.142313e+00
   1.732079e+01   5.696982e+00
   3.328679e+01  -2.176661e+01
   1.964036e+01  -1.693158e+01
  -1.877723e+01   7.087077e+01
  -8.407745e+00  -2.205889e+01
  -2.308667e+01  -8.013683e+00
  -4.736013e+01  -1.550443e+01
  -3.830615e+01   7.435329e+00
   6.238031e+00  -4.903631e+01
  -2.479532e+00  -2.156798e+01
   1.833186e+01  -8.110382e+00
  -2.875327e+01   2.297840e+01
  -2.539403e+00  -3.400985e+01
   1.691439e+01  -5.001753e+01
   1.869563e+01  -4.971628e+01
   1.676082e+01  -2.125330e+00
   2.347835e+00   2.228212e+01
  -1.873126e+01   2.252966e+01
  -5.000970e+00   5.718208e+00
  -3.672470e+00  -4.738871e+01
   8.587664e-01  -1.537233e+00
   1.529522e+01  -3.145367e+01
  -1.307723e+01  -2.136290e+00
   1.898151e+00   4.564460e+01
  -2.113896e+01   4.800801e+00
  -5.441104e-01  -4.756914e+01
  -1.567168e+01  -1.201633e+00
   4.327078e-01   1.848498e+01
  -2.963005e+01   2.772346e+01
  -9.561882e+00  -2.742808e+01
  -2.224969e+01  -2.561859e+01
  -2.614706e+00  -3.571829e+01
   2.117522e+00   5.876067e+00
   3.087123e+01  -1.293175e+01
   2.290047e+01   1.644856e+00
  -3.021262e+01   1.659019e+01
   2.184699e+01  -1.186947e+01
  -1.003101e+01   3.427368e+00
   1.076159e+01   5.487140e+01
   1.614539e+01  -3.931085e+00
  -5.754263e-01   4.158883e+00
  -6.085374e+01  -4.227429e+01
   3.897459e+01  -1.171736e+01
   3.170939e+01  -3.646203e+01
   8.120879e+01  -1.239001e+01
   7.276429e+00   3.790991e+01
  -1.675419e+00   4.883586e+01
   8.224837e+00  -8.350447e+00
  -3.802427e+01   1.693133e+01
  -1.384396e+01   9.247826e+00
   3.731406e+01  -3.739607e+01
   1.807419e+01   3.514769e+01
   9.863291e+00   3.651560e+01
   3.954743e+01  -5.158454e+01
   1.631710e+01  -2.440593e+01
   2.052316e+00  -1.838575e+01
  -5.332881e+00   1.979203e+01
   1.169779e+01   2.422760e+01
  -2.117856e+01   5.906480e+00
  -2.062039e+01  -1.626563e+01
  -2.197151e+01  -4.432396e+01
   3.867777e+01  -1.637660e+01
   1.944811e+01   3.531068e+01
  -3.237410e+01  -5.556871e-01
  -6.460218e+00  -6.259426e+00
   2.728238e+01   1.146015e+00
   2.040281e+01  -7.993917e+00
   1.871053e+01  -1.151161e+01
  -3.870611e+01   1.891233e+01
  -2.851837e+01   4.333429e+00
  -1.055002e+01  -2.481619e+01
  -4.940703e+01  -1.320177e+01
   3.053256e+01   1.793021e+01
   4.702352e+01  -1.059160e+01
   1.314612e+01  -2.353590e+01
   5.183315e+00   2.471752e+01
  -3.427489e+01   1.971461e+01
  -2.742481e+01   8.931593e+00
  -1.455090e+01  -3.879994e+01
  -3.004268e+00  -2.059299e+01
  -1.315279e+01  -3.189524e+01
  -1.127790e+01  -1.880012e+01
   4.045326e-01   3.304202e+01
   8.000517e+00  -2.131009e+01
  -2.959947e+01   2.174148e+01
   1.793392e+01  -6.187698e+00
   2.910988e+01   4.656725e+01
  -1.786592e+01   2.131785e+01
  -3.609853e+01   1.105549e+01
  -2.462835e+01  -1.075928e-01
   2.978531e+01  -4.769922e+01
   2.347836e+00   7.370999e+00
   1.701325e+01   1.237813e+01
   1.034422e+01  -1.585839e+00
  -4.701376e+01   3.430494e+01
  -4.443122e+01   2.509999e+00
   8.799785e+00  -3.417703e+01
  -1.855641e+01   2.435691e+01
  -1.006145e+01   1.226547e+01
  -1.681020e+00   1.042069e+01
  -1.571969e+01  -4.737782e-01
   2.576797e+01  -6.215188e+01
   3.384795e+01   2.656817e+01
