
 $NMID
 id='ANONYMOUS ', fmtdat='(2E16.6)'
 volume=1.0
 tramp=1.0
 $END
  -6.912408e+02   2.783699e+01
  -6.539732e+02  -5.847943e+02
   6.426045e+01  -5.759940e+02
   5.529243e+02  -4.111564e+02
   1.325400e+02   1.616753e+02
  -2.336254e+01   1.912094e+02
  -1.417365e+02  -1.828488e+01
  -4.356935e+01  -1.035851e+02
   1.622420e+02  -2.073568e+02
   1.376395e+02  -2.478470e+00
   1.237243e+02   1.015355e+02
   4.373236e+01   1.581917e+02
  -8.740401e+01   1.191198e+02
  -9.213831e+01  -7.122133e+01
  -2.603029e+01  -1.688956e+02
   7.837492e+01  -2.461918e+01
   6.795312e+01   5.491824e+01
  -1.841051e+01   1.020285e+02
  -6.798660e+01   3.542594e+01
  -9.787827e+01  -1.590196e+01
  -4.108002e+01  -5.353171e+01
   1.124980e+01  -7.836618e+01
   4.967018e+01  -2.012230e+01
   1.688765e+01   8.866857e+01
  -8.919193e+01   3.831034e+01
  -8.254986e+01   8.916203e+00
  -3.104433e+01  -3.349411e+01
   1.031805e+02  -7.989627e+01
   1.366501e+02   9.290623e+01
   4.382250e+01   6.221329e+01
  -9.655777e+01   2.583060e+01
  -6.182538e+01  -6.479084e+00
  -1.708545e+01  -8.081422e+01
   8.357709e+01  -7.488504e+01
   1.011261e+02  -4.334558e+01
   5.001955e+01   9.474658e+01
   1.949147e+01   4.358335e+01
  -2.532334e+01  -4.652149e+01
  -2.988327e+01  -3.783112e+01
   1.343249e+01  -2.502929e+01
   1.168899e+02   1.742851e+02
  -2.905024e+01   1.460082e+02
  -1.036991e+02   2.685189e+01
  -1.794352e+01  -5.745364e+01
   2.752510e+01  -6.227176e+01
   1.265306e+02   1.181665e+01
   2.074710e+01   7.944906e+01
  -2.962723e+01   3.811742e+01
  -1.283622e+02  -6.822260e+01
  -5.204562e+00  -6.658835e+01
   1.374414e+01  -5.519299e+01
   7.080423e+01  -5.889015e+01
   8.233332e+01   5.643404e+01
  -2.326579e+01   3.250866e+01
  -3.342525e+01   5.540746e+01
  -8.756872e+01  -6.890732e+00
  -1.565464e+01  -6.983427e+01
   2.446473e+01   2.715340e+00
  -6.545167e+01   5.722232e+01
  -2.543989e+01   2.886778e+01
  -4.598733e+01  -4.998942e+01
   2.098164e+01   4.089218e+00
  -1.084851e+01  -4.711310e+01
  -2.313523e+00  -4.266355e+01
   9.045115e+00  -1.795566e+01
  -4.683910e+01   3.529885e+01
  -6.801234e+00   4.129083e+01
  -4.367578e+01   3.788146e+01
  -5.007449e+01  -5.907678e+01
  -1.106777e+01  -8.432242e+01
  -7.444918e+00  -2.328316e+01
   2.372400e+01   3.480081e+01
  -1.852053e+01   1.504508e+01
   1.408985e+01  -2.044100e+01
   6.418421e+01  -1.843355e+01
   6.407489e+01  -2.025447e+01
   3.989988e+01  -1.394191e+01
  -3.139151e+01   3.173913e+01
  -1.923149e+01   3.245133e+01
   9.848623e+00  -2.654356e+01
   6.320914e+00  -2.328386e+01
   4.821585e+01   4.028441e+00
   7.093322e+01   1.564540e+01
   1.292725e+01   7.925697e+01
  -5.883337e+01   6.431989e+00
  -3.802425e+01   9.668317e+00
   3.633607e+00  -4.108676e+01
  -1.937536e+01   5.522268e+00
  -6.100475e+01  -4.158142e+00
  -7.528638e+01  -3.180483e+01
  -6.931499e+01  -6.167625e+01
   1.313646e+02  -6.444479e+01
   3.810779e+01  -5.525326e+01
   5.397268e+01  -3.720422e+01
  -2.361587e+00   1.055647e+02
   9.539294e+00   9.391855e+01
  -2.622955e+00   1.640858e+01
   4.784369e+01  -8.314379e-01
   5.342885e+01  -1.008436e+01
   1.349033e+01   5.463497e+01
  -1.897451e+01   3.459375e+01
  -1.467599e+01   3.195014e+01
  -2.125647e+01   2.183260e+01
   3.900573e+01   1.916354e+00
   1.265687e+01   3.499905e+01
   5.810558e+01   7.292441e+01
  -3.790033e+01   5.849695e+01
  -7.776252e+01  -1.635871e+00
  -7.127864e+01  -1.452369e+01
  -3.300110e+01  -5.929225e+01
  -6.548061e+00  -4.788212e+01
   1.319892e+01  -5.885368e+00
  -1.996910e+00   5.771508e+00
  -1.272987e+00   3.217107e+01
   1.738124e+01  -1.489649e+01
   2.257837e+01  -3.118852e+01
   2.946204e+01   1.268506e+01
   3.773776e+01   6.110490e+00
  -1.735478e+01   1.618609e+01
  -2.888700e+01   1.294283e+01
   5.429043e+01   9.557950e+00
   4.476225e-01  -5.176599e+01
   3.689458e+01   7.553064e+00
   4.984528e+01   6.382564e-01
  -3.593613e+01   3.945864e+01
  -4.262300e+01   6.231407e+01
  -4.350826e+01  -4.233043e+00
  -1.477622e+01  -1.809758e+01
   1.443391e+01  -2.690015e+01
   1.377651e+01   1.627019e+01
  -1.774125e+01   1.491001e+01
  -5.189972e+01   2.383579e+01
  -2.873166e+01  -6.323641e+01
  -1.118324e+01  -4.602080e+01
  -1.441426e+00  -1.004861e+01
   3.656696e+01  -1.327795e+01
   1.114109e+01  -5.924526e+00
   7.083262e+00   6.942339e-01
  -1.414561e+00   1.205740e+01
   1.761777e+01   3.003693e+01
   1.807274e+01   1.975105e+01
   2.699303e+01   1.528226e+01
   4.981373e+00   2.804536e+01
  -3.626814e+01   3.617856e+01
  -4.785071e+00   1.879168e+01
   3.273986e+01   1.360313e+01
   2.532210e+01   3.433367e+00
   1.761257e+01  -7.795667e-01
  -2.550256e+00   9.055727e+00
  -4.767374e+01   2.206923e+01
  -1.675098e+01   2.418904e+01
   4.108678e+01   3.127199e+01
  -9.749183e+00   7.620279e+00
   3.114514e+01   5.218853e+01
  -4.958630e+01  -3.584928e+01
  -2.040827e+01  -2.812255e+01
  -2.808666e+01   7.655697e+00
  -5.581150e+01  -3.023669e+01
  -3.602961e+01  -1.545765e+01
   2.860804e+01  -9.635123e+00
   3.328924e+01  -1.700307e+01
   2.442856e+01   2.329116e+01
   4.565040e+00   3.298378e+01
   1.947749e+00  -2.311971e+01
   2.202387e+01   1.686034e+01
  -4.108837e+01   7.864039e+00
  -1.806932e+00  -9.645317e-01
   2.365996e+00   3.869227e+00
   1.236058e+01  -1.350038e+00
   3.321758e+01  -1.527472e+01
   5.763913e+01  -2.417700e+01
  -2.600834e+01   3.733626e+01
  -2.769087e+01   5.548756e+01
  -4.369902e+01   2.878839e+01
  -4.894167e+01  -8.991327e+00
   1.169028e+01  -3.690971e+00
   5.739504e+00  -5.473418e+01
   3.644429e+01  -6.869502e+01
  -2.540183e+01  -1.036029e+01
  -1.671136e+01  -1.496406e-01
  -1.940474e+00   1.876156e+01
   1.591912e+01   4.140949e+01
   4.752437e+00  -1.497521e+00
  -8.958783e+00   3.378195e+01
  -1.783180e+01  -1.407987e+00
  -5.489304e+00  -3.529002e+00
  -2.000066e+01  -3.917413e+01
   9.980209e+00  -2.010020e+01
  -1.274137e+01   8.964307e+00
  -1.646918e+00   1.357004e+01
   5.958574e+00  -2.201342e+01
   3.065064e+00   5.102034e+00
  -8.479445e-01   2.111735e+01
   2.912324e+01  -6.020763e+00
   3.349429e+00   1.187133e+01
  -3.284753e+01   5.539142e+01
  -4.470744e+00   3.287346e+01
  -1.346873e+01   1.769348e+01
  -6.814073e+00   2.798994e+01
   2.207406e+01  -3.542558e+01
   1.083874e+01  -3.058646e+01
  -1.911185e+01   4.347834e+01
  -2.821577e+01   4.498220e+01
  -1.371892e+00   4.332195e+00
   7.165067e+00  -3.561652e+01
  -1.270646e+01  -2.499694e+01
   3.786208e+00   1.172469e+01
  -3.830523e+00  -2.124457e+01
  -2.441764e+01  -3.354405e+00
   1.727984e+01   1.161806e+01
   8.735231e+00   2.570153e+01
  -2.732777e+01   2.573009e+01
  -1.587363e+01   2.659607e+01
   6.135524e+00   3.084574e+01
  -4.480331e+01   2.534835e+01
  -4.222923e+01  -4.661430e+01
   5.506659e+01  -3.777311e+01
   9.670891e-01   1.343509e-01
  -5.544776e+01  -1.723570e+01
  -2.028717e+01  -1.501563e+01
   5.306716e+01  -3.494672e+00
  -1.001169e+01  -2.748767e+01
  -1.493216e+00   2.414780e+01
   4.071975e+01   5.165046e+01
   2.092753e+01   1.758081e+01
  -3.731798e+01   1.650383e+00
   5.760967e+01  -9.593498e+00
  -1.194483e+01  -1.572325e+01
   1.253865e+01  -7.217148e+00
  -5.350159e-01  -7.135685e+00
   3.065120e-01  -4.667297e+01
  -1.231165e+01   5.577419e+00
   8.343684e+00  -5.049206e+01
  -3.031027e+01  -3.313296e+01
   7.946426e+00  -2.105333e+01
   4.598770e+01   1.149248e+01
   3.890742e+01   5.948484e+01
  -2.329828e+00   2.436753e+01
   2.342074e+01   3.082362e+01
  -4.276709e+01   1.033769e+00
  -4.207198e+00  -2.200736e+00
  -1.882264e+01  -2.136056e+00
  -3.245447e+01   6.424548e-02
  -4.113891e+01  -4.307241e+01
   1.114288e+01   2.011119e+01
   2.674007e+00  -6.094967e+00
   2.030640e+01  -2.612898e+01
   2.140516e+01  -3.142669e+01
   4.464583e+01   6.771068e+01
   1.382344e+00   3.697880e+01
  -3.483533e+01   6.543941e+00
  -1.283653e+01  -3.888722e+01
   1.042015e+01   1.805213e+01
   1.572592e+01  -7.628751e+00
   6.869012e+00  -1.835397e+01
  -5.412189e+01   5.267758e+00
  -2.253004e+01   1.793432e+01
   1.839664e+01  -9.874381e+00
   3.222625e+01   3.770953e+00
  -1.188887e+01  -1.163173e+01
  -1.109143e+01   4.119891e+01
  -2.288392e+01   1.966887e+01
  -3.256223e+01  -5.837667e+00
   2.278909e+00  -2.873176e+01
  -2.911406e+01  -1.411309e+01
   3.964709e+01   3.404924e+01
  -3.173161e+01   3.316866e+01
   8.548731e+00   4.976268e+01
   1.726097e+00  -4.448347e+01
  -8.655285e+01   6.641428e-01
   3.643777e+01   2.254276e+01
  -2.903978e+01  -2.231720e+01
   1.654803e+01  -1.271982e+01
  -1.749366e+01  -3.497330e+01
   4.082815e+01   4.420169e+01
   2.879273e+01  -8.371863e-01
   1.179242e+01   1.922691e+01
  -1.221722e+01   1.664810e+01
  -3.155997e+00   6.693128e+01
  -2.401642e+01   2.048935e+01
   2.847295e+01   1.478574e+01
   3.834435e+01  -3.350299e+01
   1.650958e+01   2.263214e-01
  -1.714995e+01  -1.833078e+00
   5.865734e+00   2.314432e+01
  -5.073422e+00  -3.209908e+00
  -2.478267e+01  -2.716408e+01
  -1.223821e+01  -4.082792e+00
   1.113884e+01   2.117502e+01
   1.439207e+00   8.731196e+00
   2.162391e+00   4.834642e+01
  -1.548149e+01  -3.119278e+01
  -2.414208e+01   8.190985e+00
  -3.154545e+00  -2.697487e+01
   9.713249e+00  -6.706064e+00
  -7.399371e+00   3.654485e+01
  -8.041751e+00   2.714687e+01
  -4.069100e+01  -1.907645e+01
  -1.181838e+01  -2.550299e-01
  -3.231518e+01  -1.936688e+01
  -7.794512e+00  -1.027582e+01
   4.471732e+01   1.156056e+01
   1.386087e+01  -2.072408e+00
   3.205570e+00   1.970116e+01
  -6.347402e+00  -4.528108e+01
   2.104173e+01   1.800999e+01
   3.366947e+01  -3.667024e+01
   1.683832e+01  -9.331316e+00
  -2.806859e+01   1.971671e+01
  -1.987728e+01  -4.462662e+01
   6.937688e+00  -1.538930e+01
   4.844737e+00  -1.526382e+01
   2.236115e+01   1.006325e+01
  -2.085478e+01   8.133645e+00
   1.561177e+01   5.070849e+01
   1.199486e+01   1.316997e+01
  -1.324402e+00  -2.128481e+01
  -3.994404e-02  -8.393025e+00
  -3.844878e+01   7.375975e+00
  -3.783328e+00  -1.002135e+01
