
 $NMID
 id='ANONYMOUS ', fmtdat='(2E16.6)'
 volume=1.0
 tramp=1.0
 $END
   2.996934e+03   4.429388e+02
   1.433933e+03   1.631870e+03
  -3.809830e+02   1.577921e+03
  -9.293078e+02   6.434237e+02
  -6.734490e+02   8.868522e+01
   5.576645e+00   8.917726e+00
   2.758004e+02   6.937637e+01
   1.658769e+01   5.553042e+02
  -3.122518e+02   4.347162e+02
  -5.152629e+02   1.033388e+02
  -2.288854e+02  -4.224272e+02
   1.287076e+02  -4.742941e+02
   2.390357e+02  -7.512058e+01
   1.930233e+02   3.605844e+02
  -7.504265e+01   4.470408e+02
  -2.974091e+02   7.639081e+01
  -2.188881e+02  -3.913114e+02
   1.448101e+02  -4.794482e+02
   3.711477e+02  -1.987177e+02
   3.253005e+02   1.482484e+02
   9.699594e+01   3.204399e+02
  -1.610864e+02   1.534767e+02
  -6.609996e+01   9.843806e+00
   1.584234e+02   7.676847e+01
   2.825712e+02   2.481905e+02
   5.756406e+00   3.366719e+02
  -4.090978e+02   8.765262e+01
  -5.587910e+02  -2.358453e+02
  -1.317413e+02  -3.205858e+02
   2.929670e+02  -1.173422e+02
   4.170403e+02   1.551839e+02
   1.085589e+02   2.978721e+02
  -3.200699e+02   2.247025e+02
  -3.980736e+02   9.437707e+01
  -2.964402e+02  -1.527426e+02
  -2.586779e+01  -2.842429e+02
   8.938829e+01  -1.542406e+02
  -4.644309e+01   1.193817e+02
  -1.967428e+02   1.935204e+02
  -1.641130e+02  -1.937371e+02
   4.015984e+01  -5.000920e+02
   2.924519e+02  -3.281271e+02
   3.010058e+02   5.029422e+01
   5.720927e+01   2.835488e+02
  -1.789609e+02   6.868968e+01
  -1.576632e+02  -2.567342e+02
   1.321655e+02  -3.089226e+02
   3.601139e+02  -5.820017e+01
   3.681962e+02   2.809416e+02
   1.834927e+02   4.226132e+02
  -2.513810e+02   2.388476e+02
  -4.443350e+02  -5.762990e+01
  -2.328271e+02  -2.439012e+02
   1.059849e+02  -1.978031e+02
   2.294064e+02  -4.415027e+01
   1.780368e+02   1.309715e-01
   3.264723e+01   6.692959e+00
  -5.817755e+01  -1.279843e+02
   1.026093e+02  -5.099959e+01
   2.140254e+02   5.729370e+01
   8.484170e+01   1.549605e+02
  -1.298834e+02   1.723719e+02
  -2.613244e+02   1.390816e+02
  -2.569860e+02  -7.016381e+01
   5.293642e-01  -2.897131e+02
   2.641405e+02  -3.886813e+02
   3.142265e+02  -1.089167e+02
   1.699369e+02   2.124865e+02
  -2.812888e+01   3.082788e+02
  -2.993949e+01   2.599587e+02
  -6.516332e-01   1.116981e+02
   8.831857e+00   9.904095e+01
  -1.052828e+02   1.680212e+02
  -1.968190e+02   4.476065e+01
  -1.981694e+02  -1.250427e+02
  -6.876932e+01  -2.357250e+02
   1.118044e+02  -1.822320e+02
   1.559375e+02   8.237831e+01
   6.683523e+01   2.130854e+02
  -3.650732e+01   2.152188e+02
  -2.354035e+02   5.317173e+01
  -2.612144e+02  -1.093963e+02
  -1.516686e+02  -2.668782e+02
   5.593553e+01  -1.423149e+02
   1.071822e+02  -1.062552e+02
   1.048946e+02  -5.957007e+01
   1.207037e+02  -7.789603e+01
   2.374758e+02  -4.254204e+01
   3.822557e+02   1.014492e+02
   2.469712e+02   2.412504e+02
  -2.185991e+01   3.466041e+02
  -3.613361e+02   2.943125e+02
  -4.122439e+02   1.392699e+02
  -2.153211e+02  -7.314700e+01
  -1.047539e+01  -1.863764e+02
   1.157906e+02  -1.210485e+02
   1.170617e+01  -3.197982e+01
  -1.113300e+02   2.445961e+01
  -1.110808e+02  -5.179228e+01
   3.691034e+00  -1.269590e+02
   6.275626e+01  -4.710837e+01
   9.235600e+01   1.835911e+01
  -3.224353e+01   1.254090e+02
  -1.246122e+02   3.284930e+01
  -1.150680e+02  -1.669004e+02
   6.273247e+00  -2.731396e+02
   1.976022e+02  -1.545182e+02
   2.685418e+02   3.739609e+01
   2.134450e+02   1.980072e+02
   5.026155e+01   2.787552e+02
  -1.021496e+02   7.838692e+01
  -1.059219e+02  -3.897503e+01
  -4.767410e+01   7.186148e+00
   6.127965e+01   4.296382e+01
  -7.569697e+00   1.338940e+02
  -1.554409e+02   9.206840e+01
  -1.029303e+02  -5.262931e+01
  -1.496344e+01  -7.465312e+01
   8.448760e+01   3.458761e+01
   5.484214e+01   6.789948e+01
  -1.437383e+02   7.675594e+01
  -2.438471e+02  -7.830337e+01
  -2.519582e+02  -1.713403e+02
  -3.874129e+00  -2.047496e+02
   1.857700e+02  -1.695437e+02
   2.554424e+02  -3.672471e+01
   8.039257e+01   4.606779e+01
  -6.255807e+01   4.524728e+01
  -7.519458e+01  -3.798954e+01
   5.759646e+01  -7.782064e+01
   1.540241e+02   1.472533e+01
   1.336902e+02   5.912301e+01
   3.055884e+01   1.494888e+02
  -5.055379e+01   1.265263e+02
  -1.347121e+02   2.829518e+01
  -3.945806e+01  -4.220287e+01
   4.839624e+01   8.704666e+00
   8.192147e+00   9.911086e+01
  -7.699321e+01   8.916824e+01
  -1.163902e+02  -2.934610e+01
  -1.535574e+02  -1.650273e+02
  -5.609179e+00  -1.492422e+02
   1.428143e+02  -1.134178e+02
   1.413564e+02  -3.742797e+01
   5.475904e+00   5.805478e+01
  -9.329282e+01   7.842858e+01
  -7.823745e+01   4.226246e+01
  -2.547893e+01  -2.477319e+01
   1.900905e+01  -3.254016e+01
   1.798064e+01  -1.462063e+00
  -3.272937e+01   3.549085e+01
  -8.363904e+01  -7.176078e+01
  -1.939255e+01  -1.689012e+02
   1.200840e+02  -1.606327e+02
   1.938336e+02  -1.357996e-01
   1.257340e+02   1.612105e+02
   2.145022e+01   1.501906e+02
  -1.154999e+02   1.309392e+02
  -1.133123e+02   3.394244e+01
  -5.002170e+01  -1.018582e+01
  -1.694607e+01  -2.694399e+01
  -5.008528e+01  -1.793784e+01
  -7.427152e+01   2.579347e+01
  -6.066744e+01  -4.567776e+01
   5.845268e+01  -9.813478e+01
   5.381434e+01  -6.297576e+01
   9.577653e+01   4.105153e+01
  -1.945992e+01   9.029717e+01
  -1.428150e+02   6.835361e+01
  -1.638489e+02  -7.913831e+01
  -6.772718e+01  -1.508686e+02
   1.475592e+02  -1.369230e+02
   2.329875e+02  -5.055175e+01
   1.834437e+02   9.577879e+01
   4.415724e+01   1.269305e+02
  -5.994843e+01   9.967043e+01
  -7.404558e+01   4.698237e+01
  -4.158612e+01   4.580503e+01
  -3.387241e+01   1.284373e+02
  -8.206474e+01   6.959605e+01
  -1.259185e+02  -3.916466e+01
  -1.341553e+02  -1.560507e+02
  -3.347902e+01  -2.339447e+02
   1.300155e+02  -1.332817e+02
   1.708569e+02   2.558084e+01
   6.649499e+01   8.971451e+01
   1.930405e+01   1.550568e+02
  -4.158448e+01   7.595720e+01
  -9.897757e+00  -4.755419e+01
  -1.492836e+01  -5.101051e+01
   5.372137e+00  -3.097310e+01
  -1.231912e+01   4.471682e+01
  -5.904050e+01   9.221115e+00
  -3.278022e+01  -3.220057e+01
   6.531987e+01  -8.544343e+01
   1.570415e+02   2.325241e+01
   9.025377e+01   8.352234e+01
  -3.263106e+01   9.095059e+01
  -1.209108e+02   3.492645e+01
  -1.174370e+02  -2.762315e+01
  -3.859379e+01  -3.065669e+01
   5.692448e+01  -3.574702e+01
   9.493119e+01   1.944379e+01
   2.588282e+01   7.388669e+01
  -7.597445e+01   3.964122e+01
  -3.601072e+01   6.741403e+00
  -3.573293e+01  -3.171950e+01
  -1.496312e+01  -2.548514e+01
  -3.585602e+01   1.718602e+01
  -3.427585e+01   4.616523e+01
  -2.809035e+01  -3.809834e+01
   2.671796e+00  -1.557489e+02
   1.041525e+02  -1.527687e+02
   1.620198e+02   2.146528e+01
   9.868913e+01   1.185957e+02
  -1.291678e+00   8.058142e+01
  -1.103457e+02   4.863976e+01
  -6.079707e+01  -3.110923e+01
   8.136705e+01  -2.082194e+01
   9.855837e+01   4.995067e+01
   6.046489e+01   1.050950e+02
  -6.319142e+01   1.126783e+02
  -1.754848e+02   4.364656e+01
  -1.302561e+02  -2.589738e+00
  -1.236305e+01  -9.025412e+01
   6.717774e+01  -3.363976e+01
   3.715389e+01  -2.414257e+01
  -5.027412e+01   2.951731e+01
  -4.618435e+01  -3.447985e+01
  -1.900151e+01  -8.293060e+01
   1.070354e+02  -1.053681e+02
   1.278364e+02  -4.658952e+01
   9.753339e+01   7.846371e+01
   1.523456e+00   1.613954e+02
  -7.768125e+01   7.823036e+01
  -4.853692e+01  -2.157199e+01
  -8.579820e+00  -8.027347e+01
   4.723472e+00  -8.560584e+01
   1.001544e+02  -1.201404e+01
   3.239732e+01   1.299014e+01
   1.936928e+01  -8.039780e+00
   1.891433e+01  -3.261128e+01
   6.358393e+01   1.811662e+01
   8.086566e+01   9.319799e+01
   4.265074e+01   9.642594e+01
  -6.375808e+01  -2.998911e+00
  -1.306888e+02  -1.149891e+01
  -9.966145e+01  -7.516968e+01
  -2.455102e+00  -8.860564e+01
   5.449474e+01  -2.836347e+01
   6.103322e+01   8.986445e+00
   2.079020e+01  -1.501820e+00
  -4.001233e+01   4.971549e+01
  -3.738559e+01   7.540031e+00
   3.523060e+00   2.268055e+01
   4.489481e+00  -3.860209e+00
  -3.021941e+01   2.583278e+01
  -9.086939e+01   6.026875e+00
   1.722752e+00  -3.452034e+01
   1.187256e+02  -1.049152e+02
   1.345098e+02  -6.156543e+01
   1.231164e+02   6.925145e+01
   7.629195e+01   1.242096e+02
  -5.852843e+01   9.600018e+01
  -8.572962e+01   6.508874e+01
  -5.602834e+01  -6.143207e+01
  -1.814442e+01  -3.094306e+01
  -1.977346e+01  -1.768367e+01
  -1.702038e+01  -4.251074e+01
  -7.047176e+01  -4.243056e+01
  -4.527281e+01  -9.128730e+01
  -9.053760e+00  -6.603540e+01
   8.319199e+01  -2.954390e+01
   5.197835e+01   6.209194e+01
   6.298737e+00   1.117402e+02
  -2.842143e+01   4.241130e+01
  -8.597949e+01  -4.738406e+01
  -4.075703e+01  -6.381069e+01
   7.337817e+01  -6.594960e+01
   7.479844e+01   6.990375e-01
   7.974729e+00   7.805747e+01
  -8.951645e+00   7.562649e+01
  -3.650354e+01   8.765974e+00
  -1.527956e+01  -2.776424e+01
   3.462348e+01  -2.631845e+00
   1.573279e+01   8.983642e+01
  -8.697239e+01   4.715977e+01
  -7.731468e+01   2.964505e+01
  -6.362661e+01  -2.234831e+01
  -2.501796e+00  -7.703595e+01
   6.057945e+01  -8.629765e+01
   6.969771e+01  -3.845710e+01
   3.787773e+00   7.895729e+01
  -4.365891e+01   3.902750e+01
  -4.928632e+01  -2.916293e+01
  -2.502986e+01  -1.093714e+02
   3.295728e+01  -4.534905e+01
   3.291222e+01   2.224132e+00
   6.127619e+01   3.729507e+01
   2.466243e+01   2.464665e+01
  -3.460734e+01   1.221453e+01
  -3.838895e+01   7.881415e+00
   2.531572e+01   3.589171e+01
   8.381489e+01   5.029197e+01
  -6.867808e+00   6.739535e+00
  -4.269827e+01  -3.419596e+01
  -1.387179e+01  -4.988172e+01
   5.688293e+01  -5.163937e+01
   3.653233e+01   3.917751e+01
   3.022421e+01   8.382367e+01
  -5.294668e+01  -2.453081e+00
  -8.198955e+01  -6.359162e+00
  -1.900680e+01  -2.548228e+01
   6.548997e+01  -5.826413e+01
   3.159680e+01  -7.074899e+00
   6.034417e+01   2.202409e+00
  -6.178821e+01   1.508527e+01
  -3.656935e+01  -1.043160e+01
   4.626310e+01  -2.263567e+01
   4.663538e+01  -2.610134e+01
