
 $NMID
 id='ANONYMOUS ', fmtdat='(2E16.6)'
 volume=1.0
 tramp=1.0
 $END
   2.518546e+03  -3.213383e+02
   1.978686e+03   7.723375e+02
   4.061543e+02   1.578092e+03
  -8.237383e+02   1.095787e+03
  -7.200133e+02   3.987904e+02
  -2.584206e+02  -1.688416e+02
   2.392101e+02  -2.093434e+01
   6.661380e+01   4.214447e+02
  -3.141288e+02   4.790234e+02
  -4.884702e+02   9.177197e+01
  -3.366087e+02  -3.921987e+02
  -3.615588e+01  -4.331487e+02
   2.310443e+02  -1.759509e+02
   1.681007e+02   2.900729e+02
  -7.641317e+01   4.509117e+02
  -2.574917e+02   1.120064e+02
  -2.969600e+02  -3.342586e+02
   5.773686e+01  -4.699368e+02
   3.534979e+02  -2.992828e+02
   3.426090e+02   3.459280e+01
   1.019636e+02   2.144179e+02
  -5.222566e+01   2.466577e+02
  -1.823132e+01   5.747914e+01
   1.810932e+02   1.158188e+02
   2.228615e+02   2.043639e+02
  -2.520778e+01   3.118350e+02
  -3.837609e+02   1.399704e+02
  -4.294256e+02  -2.092887e+02
  -1.671150e+02  -2.696756e+02
   1.920027e+02  -1.156303e+02
   3.375470e+02   1.015627e+02
   1.470825e+02   2.679978e+02
  -2.514256e+02   2.804232e+02
  -3.216130e+02   1.114601e+02
  -2.570293e+02  -9.643185e+01
  -8.759048e+01  -1.553676e+02
  -3.199392e+01  -1.646338e+02
  -6.301932e+01   5.913644e+01
  -1.044096e+02   1.103385e+02
  -1.368058e+02  -9.656438e+01
   3.194317e+00  -3.644685e+02
   1.388206e+02  -2.963338e+02
   2.244832e+02   6.352947e+00
   1.264055e+02   2.248920e+02
  -1.367313e+02   1.323096e+02
  -1.220875e+02  -2.305655e+02
   7.805465e+01  -3.183484e+02
   3.525001e+02  -4.100611e+01
   3.675155e+02   2.552536e+02
   1.046974e+02   3.665292e+02
  -2.454416e+02   2.078947e+02
  -4.771167e+02  -8.946410e+01
  -2.643108e+02  -1.979610e+02
   7.653093e+01  -1.718366e+02
   2.622544e+02  -4.588309e+01
   2.054242e+02  -3.740102e+01
   2.998812e+01  -5.216576e+00
  -4.758039e+01  -2.881638e+01
   8.237056e+01  -1.850087e+00
   1.570497e+02   6.988802e+01
   7.827275e+01   1.289593e+02
  -1.339460e+02   1.956980e+02
  -2.953311e+02   1.490379e+02
  -1.733897e+02  -3.159445e+01
   1.841066e+01  -2.593134e+02
   2.269379e+02  -3.044574e+02
   3.179703e+02  -1.616487e+02
   1.880364e+02   1.071148e+02
   6.803552e+01   2.820822e+02
   4.709878e-01   2.710224e+02
  -2.702647e+01   1.647408e+02
  -3.128792e+01   1.504414e+02
  -1.425659e+02   9.087634e+01
  -2.298501e+02   3.496637e+01
  -2.273782e+02  -1.250568e+02
  -4.680917e+01  -1.798839e+02
   4.330477e+01  -1.273867e+02
   1.435365e+02   4.368922e+01
   8.844862e+01   2.193965e+02
  -3.057364e+01   1.705423e+02
  -1.875895e+02   8.097277e+01
  -2.394148e+02  -1.199433e+02
  -1.692965e+02  -2.773197e+02
   3.811890e+01  -2.297706e+02
   1.161450e+02  -1.758876e+02
   1.304361e+02  -1.129915e+02
   1.066012e+02  -5.634213e+01
   2.353817e+02  -7.286957e+01
   3.842509e+02   8.077413e+01
   2.578085e+02   2.406281e+02
  -1.169449e+01   4.051579e+02
  -3.072205e+02   3.502004e+02
  -3.757029e+02   1.460800e+02
  -2.540881e+02  -5.978372e+01
  -2.073809e+01  -2.342246e+02
   7.084152e+01  -1.493306e+02
  -7.099581e+00  -1.840846e+01
  -1.076190e+02   4.070030e+00
  -1.035780e+02  -3.720422e+01
  -2.357838e+01  -1.055673e+02
   5.772882e+01  -8.283992e+01
   1.041400e+02   5.857175e+01
  -5.487098e+01   1.144690e+02
  -1.996098e+02   2.275888e+00
  -1.427334e+02  -2.283899e+02
  -3.126562e+00  -3.188338e+02
   1.805631e+02  -1.847402e+02
   3.051458e+02   3.769640e+00
   2.597946e+02   1.790206e+02
   9.030268e+01   2.517517e+02
  -8.365717e+01   1.019621e+02
  -1.120667e+02   2.820676e+01
  -8.933481e+00  -8.297338e+00
   2.606150e+01   6.009601e+01
   2.613313e+01   1.105109e+02
  -1.116040e+02   8.293447e+01
  -1.302738e+02  -4.524775e+01
  -8.204563e+00  -2.469678e+01
   8.305016e+01  -1.707820e+01
   5.479586e+01   8.773610e+01
  -1.354158e+02   8.144287e+01
  -2.406029e+02  -3.755027e+01
  -2.182506e+02  -1.413449e+02
   1.132971e+01  -2.359362e+02
   1.717421e+02  -1.865945e+02
   1.606627e+02  -1.088574e+02
   1.480595e+02   2.238235e+01
  -2.230100e+01   5.929901e+01
  -5.472848e+01  -1.200000e+01
   3.441585e+01  -8.672633e+01
   1.660091e+02  -4.189846e+01
   1.705093e+02   1.043049e+02
   4.502682e+01   1.608053e+02
  -6.997635e+01   1.481672e+02
  -9.873707e+01   4.481509e+01
  -2.578864e+01  -3.035868e+01
   3.066115e+01   2.620098e+01
   3.663747e+01   1.237586e+02
  -8.881802e+01   1.164997e+02
  -1.798071e+02   3.357495e+01
  -1.639184e+02  -1.213098e+02
   1.152635e+01  -1.718662e+02
   8.783329e+01  -1.194972e+02
   1.383737e+02  -3.451236e+01
   4.993909e+01   4.851407e+01
  -2.302121e+01   8.752992e+01
  -5.813039e+01   5.159473e+01
   3.090942e+00   1.646096e+00
   8.714237e+01   2.117415e+01
  -8.664338e+00   3.182693e+01
  -6.110710e+01   1.637872e+01
  -1.018040e+02  -7.512752e+01
  -3.616875e+01  -1.266423e+02
   1.194073e+02  -1.469829e+02
   1.688746e+02  -2.789387e+01
   2.109509e+02   1.075300e+02
   7.273850e+01   1.972356e+02
  -7.309613e+01   1.490672e+02
  -1.325045e+02   5.690753e+01
  -7.436013e+01  -3.110313e+01
  -4.794229e+01  -2.917503e+01
  -3.877737e+01  -1.687691e+01
  -9.847922e+01   1.639296e+01
  -6.270699e+01  -2.827111e+01
   2.860384e+01  -7.952828e+01
   1.101867e+02  -9.066038e+01
   1.410292e+02   1.577271e+01
   8.073624e+00   1.012344e+02
  -1.569682e+02   7.956274e+01
  -1.429985e+02  -3.851466e+01
  -1.069336e+02  -1.815986e+02
   1.542951e+02  -1.921607e+02
   2.200698e+02  -8.942135e+01
   2.116486e+02   2.841600e+01
   6.302233e+01   1.576998e+02
  -3.072490e+01   9.921881e+01
  -7.358558e+01   4.123500e+01
  -8.844328e+01   8.849342e+01
  -6.176983e+01   6.473668e+01
  -8.182610e+01   2.811755e+01
  -1.204505e+02  -2.654009e-01
  -6.281070e+01  -1.332223e+02
  -6.240904e+00  -1.893116e+02
   2.035965e+01  -1.533433e+02
   9.954606e+01  -4.364172e+00
   9.789948e+01   1.035931e+02
   2.774276e+01   1.388601e+02
  -6.068368e+01   7.058177e+01
  -6.100344e+01  -4.930678e+00
   3.212869e+00  -7.517515e+01
   3.217151e+01  -5.862842e+01
  -3.920601e+01  -4.705299e+01
  -3.697932e+01  -8.973717e+00
  -7.986934e+01  -4.931767e+01
   6.328023e+01  -4.112850e+01
   1.297452e+02   3.604110e+00
   1.344400e+02   1.525546e+01
  -1.444615e+01   8.013434e+01
  -8.839847e+01   5.679506e+01
  -1.303035e+02   3.403717e+01
  -2.558815e+01  -5.079313e+01
   2.489694e+01  -2.148732e+01
   3.230854e+01   2.658685e+00
   3.779390e+01   6.820260e+01
  -9.728386e+00   4.352160e+01
  -6.561888e+01   2.901900e+01
  -6.761896e+01  -5.873159e+01
  -6.713685e+01  -8.804971e+01
  -7.328069e+01  -2.672433e+01
  -2.313757e+01   9.224747e+00
  -8.893653e+00  -7.675233e+01
   1.285614e+01  -1.370114e+02
   9.580806e+01  -1.133619e+02
   1.569537e+02  -3.898101e+01
   1.419479e+02   9.252029e+01
   1.586970e+01   1.304504e+02
  -1.058513e+02   4.794449e+01
  -9.371348e+01   4.419298e+01
   1.069370e+01  -1.519831e+01
   1.290368e+02  -1.221206e+01
   6.997507e+01   9.354750e+01
  -1.014372e+02   6.196004e+01
  -1.674037e+02   3.976842e+01
  -9.011102e+01  -4.573809e+01
  -1.833635e+01  -9.110919e+01
   7.333335e+01  -3.570380e+01
   2.288642e+01  -2.303264e+01
  -4.130765e+01  -5.912876e+00
  -6.390422e+01  -7.916459e+00
  -6.332547e+01  -8.633416e+01
   6.913232e+01  -1.023073e+02
   1.602252e+02  -1.300366e+02
   1.263499e+02   5.721683e+01
   1.818431e+01   1.590125e+02
  -5.937306e+01   1.294215e+02
  -9.460216e+01  -3.371548e+01
  -6.976735e+01  -8.813520e+01
   5.040198e+01  -7.832570e+01
   4.400061e+01   1.105076e+01
   3.100214e+01   3.560132e+01
  -8.844124e+00   2.841433e+01
  -2.100385e+01  -1.817339e+01
   2.493670e+01  -5.229111e+00
   5.986548e+01   6.384611e+01
  -3.560487e+00   1.258561e+02
  -1.498628e+01  -1.215854e+00
  -8.650859e+01  -3.285157e+01
  -1.188222e+02  -1.209703e+02
  -8.435357e+00  -5.248202e+01
   7.313275e+01  -2.076494e+01
   4.303259e+01  -1.556044e+01
   4.827610e+01  -1.996361e+01
  -4.145773e+01   3.308985e+01
  -3.807323e+01   4.957548e+01
   1.454146e+01  -2.813465e+01
  -1.858818e+00  -8.550157e+00
  -6.208690e+01  -1.814300e+01
  -7.563752e+01  -3.834069e+01
  -1.374456e+01  -1.076134e+02
   4.444582e+01  -1.067189e+02
   1.457112e+02  -4.924702e+01
   1.472526e+02   2.628042e+01
   3.354100e+00   1.063759e+02
  -5.786228e+01   1.288769e+02
  -8.333801e+01   5.864898e+01
  -7.510616e+01  -3.020373e+00
  -1.076585e+01  -1.671369e+01
   3.356139e+01  -6.867003e+00
   8.632130e-01   1.771439e+01
   5.723133e+00  -8.040913e+01
  -2.018374e+00  -9.452066e+01
   2.466418e+00  -1.028625e+02
   4.996141e+01   2.126373e+01
   5.099111e+01   7.967620e+01
   6.877420e+00   1.054945e+02
  -6.064302e+01   1.155270e+01
  -1.062558e+02  -4.995993e+01
   2.852460e+01  -1.186759e+02
   4.815829e+01  -7.321492e+01
   1.298383e+02   1.409731e+01
   7.481482e+01   4.776368e+01
  -1.094901e+01   1.541438e+01
  -6.309260e+00   3.867097e+01
   2.876389e+01   1.634938e+01
   6.077567e+01  -1.274715e+01
   5.843632e+01  -1.640310e+01
  -8.641582e+01   8.165538e+01
  -7.976091e+01   3.060302e+01
  -5.927890e+01  -1.393972e+01
   2.123507e+01  -4.815858e+01
   1.521559e+01  -8.039102e+01
   6.296444e+01  -1.356748e+01
  -1.297736e+01   5.035138e+01
  -3.777496e+01   2.787456e+01
   1.138232e+01  -2.297290e+01
  -3.402917e+01  -8.081799e+01
  -3.717591e+01  -2.478036e+01
   6.561474e+01   1.503297e+01
   5.080205e+01   1.626706e+01
   1.119634e+01   1.410962e+01
  -1.158418e+01  -3.419173e+01
   5.848490e+00  -6.403597e+01
   2.446051e+01   5.002140e+01
  -1.341472e+00   5.240508e+01
  -1.780333e+01  -1.957223e+01
  -7.183238e+01  -2.207638e+01
  -2.429764e+01  -4.779290e+01
   8.439947e+00  -1.113215e+01
   9.425425e+01  -2.617215e+00
   2.294198e+01   2.200949e+01
  -4.684657e+01   4.280785e+01
  -5.790933e+01   1.494341e+01
  -7.248114e+01  -2.550875e+01
   3.815310e+01  -8.854843e+01
   7.664332e+01  -3.969008e+01
   3.779504e+00  -2.720417e+01
  -5.503023e+01  -7.049950e+00
   3.469645e+01   3.363636e+01
   3.678982e+01  -1.094606e+01
   5.055823e+01   6.644813e+00
