
 $NMID
 id='ANONYMOUS ', fmtdat='(2E16.6)'
 volume=1.0
 tramp=1.0
 $END
  -2.757951e+03  -4.158942e+02
  -1.910003e+03  -1.667726e+03
   1.065137e+02  -1.877720e+03
   1.147608e+03  -1.046714e+03
   8.831947e+02  -8.947298e+01
   1.226623e+02   2.597296e+02
  -2.832466e+02  -1.699621e+02
   6.745731e+00  -4.037995e+02
   3.376453e+02  -4.467149e+02
   5.798853e+02  -6.490358e+01
   3.093280e+02   4.408827e+02
  -8.836084e+01   5.187767e+02
  -2.743775e+02   1.138422e+02
  -1.719664e+02  -3.886677e+02
   8.998043e+01  -4.100892e+02
   3.428639e+02  -1.172735e+01
   2.199715e+02   4.605283e+02
  -1.680468e+02   5.281085e+02
  -4.069523e+02   2.000301e+02
  -3.319128e+02  -1.757089e+02
  -7.268935e+01  -2.877521e+02
   1.226073e+02  -1.832621e+02
   1.207649e+01  -4.101905e+01
  -1.634822e+02  -8.943416e+01
  -2.444345e+02  -2.644718e+02
   3.292040e+01  -2.677321e+02
   4.761767e+02  -6.148205e+01
   4.903132e+02   1.858229e+02
   1.073422e+02   3.154364e+02
  -3.241357e+02   1.114253e+02
  -4.459702e+02  -2.219545e+02
  -1.285918e+02  -3.539918e+02
   2.817001e+02  -2.713689e+02
   3.644035e+02  -7.951979e+01
   2.451935e+02   1.821407e+02
   6.879616e+01   2.688853e+02
  -3.130422e+01   1.438802e+02
   7.397027e+01  -9.243774e+01
   1.587442e+02  -1.217294e+02
   1.711825e+02   1.528825e+02
   5.022404e+00   4.793050e+02
  -2.460596e+02   3.883733e+02
  -3.019763e+02  -1.261141e+01
  -3.152754e+01  -2.621108e+02
   1.566458e+02  -1.179924e+02
   1.462832e+02   2.847223e+02
  -1.839099e+02   3.234387e+02
  -4.240658e+02   3.272304e+01
  -4.261801e+02  -3.135061e+02
  -1.611287e+02  -4.225870e+02
   2.736437e+02  -2.291847e+02
   4.518099e+02   4.007956e+01
   2.807531e+02   2.580187e+02
  -5.987325e+01   1.419799e+02
  -2.451758e+02   4.686747e+01
  -1.621065e+02  -4.731302e+01
  -1.762649e+01   1.731649e+01
   1.527030e+01   6.108664e+01
  -8.493122e+01   4.965726e+01
  -1.763441e+02  -4.683522e+01
  -1.088804e+02  -1.728904e+02
   1.138325e+02  -2.088060e+02
   3.600029e+02  -8.833762e+01
   2.688010e+02   9.323710e+01
  -9.653842e+00   3.180421e+02
  -2.573023e+02   3.069918e+02
  -3.216040e+02   8.978586e+01
  -1.662093e+02  -1.211236e+02
  -5.235929e+01  -3.247722e+02
   1.757576e+00  -2.776016e+02
   4.407228e+00  -1.559871e+02
   4.352381e+01  -1.240983e+02
   1.528812e+02  -1.406551e+02
   1.898544e+02  -2.287026e+00
   1.820860e+02   1.381276e+02
   3.697619e+01   2.308888e+02
  -1.090794e+02   1.404574e+02
  -1.955338e+02  -3.669560e+00
  -5.036476e+01  -2.568382e+02
   4.007646e+01  -2.027064e+02
   2.308802e+02  -4.551979e+01
   2.724719e+02   1.511463e+02
   1.242707e+02   3.295819e+02
  -6.230978e+01   2.920456e+02
  -1.644307e+02   9.431722e+01
  -1.250417e+02   8.511999e+01
  -1.091072e+02   7.384126e+01
  -2.633078e+02   3.252368e+00
  -4.023764e+02  -6.926482e+01
  -2.955868e+02  -2.633430e+02
   8.823181e+00  -3.793600e+02
   4.071818e+02  -4.196708e+02
   3.969984e+02  -1.618793e+02
   2.197891e+02   1.305589e+02
  -4.169234e+01   2.489986e+02
  -5.918338e+01   2.038712e+02
   1.982352e+00   7.107242e+00
   9.838297e+01  -4.689224e+01
   1.079258e+02  -8.936129e+00
  -1.864113e+01   1.129708e+02
  -1.216564e+02   4.121328e+01
  -9.444035e+01  -5.009569e+01
   2.463910e+01  -7.987859e+01
   1.529329e+02   4.052589e+01
   1.236032e+02   1.837469e+02
  -2.114418e+01   2.975275e+02
  -2.255341e+02   1.726668e+02
  -3.266529e+02  -3.798883e+01
  -1.509305e+02  -2.363128e+02
  -4.060895e+01  -2.488980e+02
   1.271699e+02  -1.208910e+02
   1.367944e+02   8.771662e+00
   4.581032e+01  -1.132372e+01
  -1.251360e+01  -6.365759e+01
   3.209279e+01  -1.000259e+02
   1.691601e+02  -2.665933e+01
   1.639916e+02  -1.522854e+01
   1.190702e+01   5.519005e+01
  -6.284076e+01  -3.466534e+01
  -3.549436e+01  -1.278960e+02
   1.162631e+02  -5.657869e+01
   2.662660e+02   7.911885e+01
   1.871656e+02   1.915606e+02
   2.045098e+00   2.630249e+02
  -1.757199e+02   2.168598e+02
  -2.566337e+02   5.495901e+01
  -1.234213e+02  -6.446232e+01
   5.080782e+01  -6.132453e+01
   2.518804e+01   1.890017e+01
  -8.288481e+01   9.165030e+01
  -1.495810e+02  -1.298323e+01
  -1.683929e+02  -4.792449e+01
  -5.050288e+01  -1.637333e+02
   9.909948e+01  -1.026563e+02
   1.112565e+02   1.739383e+01
   6.462375e+01  -1.454270e+01
  -2.945500e+01  -2.775255e+01
  -2.486324e+01  -8.574597e+01
   9.144130e+01  -1.266879e+02
   2.166861e+02   1.691111e+01
   1.367550e+02   1.387458e+02
  -7.377669e+00   1.886772e+02
  -1.799424e+02   1.610658e+02
  -1.589263e+02   1.735921e+00
  -4.322957e+01  -1.189007e+02
   1.038229e+02  -1.225774e+02
   4.378415e+01  -6.130622e+01
  -1.782332e+01   1.464663e+01
  -3.434551e+01  -2.579077e-01
   1.989176e+00   1.467111e+01
   1.219704e+02  -2.970416e+00
   1.064961e+02   7.951533e+01
  -2.776182e+00   1.716705e+02
  -1.154045e+02   1.595302e+02
  -1.864650e+02   6.053318e+00
  -1.432639e+02  -1.462354e+02
  -2.279781e+01  -2.306843e+02
   1.114263e+02  -1.139380e+02
   1.179041e+02  -4.657149e+01
   6.103987e+01   3.273837e+01
   6.353613e+01  -1.300556e+01
   6.573183e+01   5.807256e+00
   5.295993e+01   1.746190e+01
   5.402703e+01   3.892277e+01
  -2.348755e+01   1.323718e+02
  -7.226203e+01   5.086669e+01
  -8.091724e+01  -8.453994e+00
  -1.429073e+01  -1.173195e+02
   1.784996e+02  -7.001019e+01
   2.114684e+02   8.520053e+01
   7.021871e+01   2.217701e+02
  -1.391954e+02   1.450393e+02
  -2.315985e+02   4.102501e+01
  -2.188719e+02  -9.479295e+01
  -8.521754e+01  -8.160621e+01
   1.874063e+01  -9.491415e+01
   1.176821e+02  -1.101586e+02
   2.238273e+01  -4.094339e+01
   3.808184e+01  -6.162031e+01
   6.092935e+01  -5.675711e+01
   1.294967e+02   2.808465e+01
   3.316473e+01   9.856287e+01
   3.054725e+01   1.936814e+02
  -1.172524e+02   1.620484e+02
  -1.341913e+02   1.485876e+00
  -9.061783e+01  -1.219681e+02
   1.913399e+01  -1.599360e+02
   8.057086e+01  -8.238560e+01
   5.035073e+01   2.762841e+01
  -1.552060e-01   8.022434e+01
  -2.505140e+01   2.872794e+01
  -1.602002e+00   2.812929e+01
   8.578408e+01  -2.761094e+01
   8.624751e+01   4.973820e+01
  -7.945768e+01   3.516258e+01
  -1.727277e+02   6.707699e+01
  -1.310200e+02  -1.252656e+02
  -2.063612e+01  -8.886638e+01
   1.405851e+02  -6.043432e+01
   1.724917e+02  -4.156689e+00
   3.437786e+01   7.471785e+01
  -1.925289e+01   2.930247e+01
  -7.130355e+01  -9.567701e+00
   1.252780e+00  -9.084361e+01
   6.425436e+01  -4.105828e+01
   7.220592e+01   4.251914e+00
   4.714302e+01   5.132184e+01
   3.550634e+01   5.019039e+01
   4.374373e+01  -4.426303e+00
   8.902397e+01  -4.602048e+00
   5.290872e+01   5.855961e+01
  -3.768371e+01   1.600523e+02
  -7.045142e+01   1.398732e+02
  -1.768177e+02   5.754334e+00
  -8.252693e+01  -1.025794e+02
  -8.776544e+00  -1.322864e+02
   7.705048e+01  -8.684445e+01
   5.113173e+01   3.252186e+01
  -4.792038e+01   1.639350e+01
  -1.162659e+02  -2.355660e+01
  -8.080203e+01  -7.648126e+01
   8.075333e+01  -8.574924e+01
   1.550823e+02  -1.622535e+01
   1.631055e+02   1.845794e+01
   3.204368e+00   5.655958e+01
  -7.970618e+01  -4.062293e+00
  -2.907809e+01  -5.803228e+00
   1.538788e+01  -3.778836e+01
   4.509290e+01   5.146727e+01
   7.396907e+01   1.081111e+02
  -8.228845e+01   1.050079e+02
  -7.082424e+01   3.554686e+00
  -8.133135e+01  -1.081429e+02
  -1.336132e+01  -1.586023e+02
   4.696456e+01  -1.345800e+02
   1.041089e+02   4.344930e+01
   5.097266e+01   8.528504e+01
  -1.501790e+01   8.859009e+01
  -6.320364e+01   3.096125e+01
  -3.587868e+01  -8.002585e+01
   1.915420e+01   5.469317e+00
   3.334424e+00   3.432766e+01
  -4.677638e+01   4.933711e+00
  -4.362358e+01  -6.763997e+01
  -5.352661e+01  -1.200338e+02
   5.462148e+01  -2.233560e+01
   1.359705e+02   1.616143e+01
   8.914124e+01   7.689153e+01
   1.380189e+00   6.212519e+01
  -8.806897e+01   1.829892e+01
  -8.068941e+01  -7.717648e+00
  -1.494478e+01  -1.693022e+01
   3.745966e+01   1.233664e+01
  -4.154789e+00  -1.124974e+01
  -5.614343e+01   3.374660e-01
   2.281553e+01   1.437263e+01
   3.033478e+01  -4.175900e+01
   9.126819e+01   8.838189e+00
  -1.400118e+01   7.171554e+01
  -7.677451e+01   6.316600e+01
  -1.415109e+02   4.992119e+01
  -1.335630e+02  -7.470286e+01
  -1.850279e+01  -1.502753e+02
   6.087332e+01  -1.522743e+02
   1.025383e+02  -1.033413e+02
   9.502139e+01  -4.283554e+00
   4.986825e+01   3.625863e+01
  -8.504855e+00  -1.145000e+01
   3.543205e+01  -2.743193e+00
  -9.747684e+00   3.001950e+01
   1.569091e+01   5.576411e+01
  -5.554186e+00   4.852354e+01
  -1.149907e+02   3.530950e+01
  -3.034773e+01  -8.988056e+01
  -1.480359e+01  -1.089558e+02
   4.518609e+01  -2.397692e+01
   8.653817e+01   9.715288e+01
  -1.025825e+01   8.930486e+01
  -8.322477e+01   6.028740e+01
  -6.226605e+01   1.532229e+01
  -3.307641e+01  -8.352583e+01
   5.599820e+01  -6.398400e+01
   5.483052e+01  -3.268381e+01
  -1.761780e+01   2.810841e+01
  -2.956238e+01  -9.801718e+00
   5.338447e-01  -1.268981e+01
   9.721840e+01  -4.101390e+01
   6.450577e+01  -8.216726e+01
   8.071177e+01  -2.934812e+01
  -1.141446e+01   5.265334e+01
  -4.652659e+01   1.276973e+02
  -2.968914e+01   4.779568e+01
  -3.789950e-01  -2.768162e+01
  -1.350223e+01  -2.593138e+01
   2.007622e+01   2.289827e+00
   2.787538e+01   7.396055e+01
  -3.604873e+01   2.379059e+01
  -5.190446e+01   2.462705e+01
  -2.601557e-02  -3.761139e+01
  -6.016201e+01   2.630077e+01
   3.330083e+00  -4.205878e+00
   4.186513e+00   4.780836e+01
   2.953067e+01  -5.049295e+01
   4.753714e+00  -8.819021e+01
   1.684074e+01  -2.821520e+01
   5.445946e+01   4.227652e+01
   2.016312e+01   9.809152e+01
  -2.026806e+01   3.872211e+01
  -4.198301e+01   1.459912e+01
   1.742198e+01  -5.629131e+01
   6.419997e+01  -4.611281e+01
   8.657015e+01  -1.482200e+01
   5.802986e+01   4.115018e+01
  -2.459570e-01   4.621836e+01
  -8.498786e+01   8.935276e+00
  -3.820733e+01   1.503563e+01
   6.438538e+01   7.312402e+00
   3.853474e+01  -3.140237e+01
  -2.399554e+01   7.265765e+00
  -5.390941e+01   1.845973e+01
