
 $NMID
 id='ANONYMOUS ', fmtdat='(2E16.6)'
 volume=1.0
 tramp=1.0
 $END
  -2.751077e+03  -1.849553e+02
  -1.496701e+03  -1.055086e+03
  -1.406763e+02  -1.508283e+03
   8.029242e+02  -1.070236e+03
   6.707428e+02  -2.345822e+02
   9.158737e+01   8.988639e+01
  -1.189733e+02  -6.278826e+01
  -2.792158e+01  -4.257667e+02
   3.485027e+02  -4.694692e+02
   5.133591e+02  -1.234035e+02
   4.417856e+02   3.703901e+02
   6.733432e+01   5.189430e+02
  -2.492442e+02   1.821806e+02
  -1.635817e+02  -2.515090e+02
   2.820140e+01  -4.220602e+02
   2.669892e+02  -1.006862e+02
   2.717328e+02   3.159553e+02
  -2.026356e+01   5.220024e+02
  -3.867944e+02   2.872491e+02
  -3.820598e+02  -9.728752e+01
  -1.477482e+02  -2.811355e+02
   5.412483e+01  -1.825709e+02
   5.859783e+01  -3.899741e+01
  -1.744989e+02  -8.823265e+01
  -2.369992e+02  -2.616235e+02
  -4.375653e-01  -3.241889e+02
   3.923052e+02  -1.530920e+02
   4.765745e+02   4.858243e+01
   2.488745e+02   2.742787e+02
  -2.904729e+02   1.261499e+02
  -3.746334e+02  -8.293114e+01
  -1.673158e+02  -2.706079e+02
   2.590064e+02  -2.957324e+02
   3.743032e+02  -9.010736e+01
   2.570634e+02   1.622166e+02
   7.059136e+01   2.778202e+02
  -3.828653e+01   5.851176e+01
   4.051243e+01  -1.013916e+02
   1.498024e+02  -1.247552e+02
   1.516048e+02   1.599048e+02
  -5.709615e+01   3.979646e+02
  -2.155276e+02   2.333629e+02
  -2.224176e+02  -6.331238e+01
  -4.592355e+01  -2.745569e+02
   9.477573e+01  -1.120534e+02
   6.434490e+01   2.158491e+02
  -1.471635e+02   3.281398e+02
  -3.558792e+02   9.866576e+01
  -3.453367e+02  -2.942538e+02
  -1.258433e+02  -3.786004e+02
   2.284847e+02  -1.969140e+02
   3.976771e+02   1.700698e+01
   3.070894e+02   1.613643e+02
  -1.185478e+01   2.167901e+02
  -2.371257e+02   8.788299e+01
  -1.717628e+02  -3.370715e+01
   2.565809e+01   2.135946e+01
   1.642636e+01   3.272574e+01
  -1.014819e+02   7.439181e+01
  -1.866831e+02   1.653656e+00
  -1.091214e+02  -1.641141e+02
   1.221928e+02  -1.900078e+02
   3.044891e+02  -1.073393e+02
   2.324077e+02   6.408019e+01
  -2.919763e+01   2.690611e+02
  -2.515768e+02   3.350986e+02
  -3.536238e+02   1.993658e+02
  -2.113791e+02  -1.697488e+02
   2.681200e+01  -2.921399e+02
  -7.699572e-01  -1.855268e+02
  -3.240249e-02  -1.473987e+02
   2.653184e+01  -1.227041e+02
   1.432889e+02  -1.309282e+02
   2.241762e+02  -4.057346e+01
   1.899616e+02   9.318410e+01
   9.677735e+01   2.086045e+02
  -6.194711e+01   1.763535e+02
  -1.731228e+02  -2.469684e+01
  -1.347149e+02  -1.778389e+02
   4.759251e+00  -2.065532e+02
   2.153769e+02  -8.747302e+01
   2.497892e+02   1.377582e+02
   1.331812e+02   3.098397e+02
  -4.671051e+01   2.242588e+02
  -9.780136e+01   1.348911e+02
  -1.161212e+02   9.010929e+01
  -8.335398e+01   6.284094e+01
  -2.030112e+02   1.065592e+02
  -3.368321e+02  -6.002087e+01
  -3.015330e+02  -1.947439e+02
   2.268328e+01  -3.844867e+02
   3.271763e+02  -3.040320e+02
   4.225112e+02  -1.570151e+02
   2.459941e+02   1.340912e+02
   1.424675e+01   1.941912e+02
  -7.626604e+01   1.473840e+02
  -2.288240e+01   3.604125e+01
   8.688258e+01   1.282259e+01
   8.279799e+01   1.047420e+02
  -3.516756e+01   1.502644e+02
  -1.198666e+02   6.888211e+01
  -8.490227e+01  -8.737286e+01
   4.016984e+01  -1.026098e+02
   1.488967e+02  -1.202580e+01
   1.023522e+02   1.873756e+02
  -3.731640e+01   2.640446e+02
  -2.159223e+02   2.340705e+02
  -2.748493e+02   4.191355e+00
  -2.827402e+02  -1.689440e+02
  -3.928386e+01  -3.061546e+02
   8.043514e+01  -1.139833e+02
   1.390160e+02  -2.720904e+01
   2.345293e+01   2.437775e+01
  -3.996292e+01  -6.356440e+01
   1.435988e+01  -8.208341e+01
   1.211211e+02  -3.408176e+01
   1.172568e+02   8.997126e+00
  -1.064801e+01   8.672961e+01
  -2.400073e+01  -2.147608e+01
  -2.816055e+01  -6.192204e+01
   1.100209e+02  -8.897917e+01
   2.664808e+02  -6.971956e+00
   2.213468e+02   1.132475e+02
   6.411099e+01   2.545234e+02
  -2.019298e+02   1.972189e+02
  -2.082122e+02   7.225920e+01
  -1.267715e+02  -4.972184e+01
   4.629417e+01  -9.369891e+01
   5.122850e+01  -1.549112e+01
  -1.356797e+01   9.199127e+01
  -1.955079e+02   3.378961e+01
  -1.633580e+02  -4.272022e+01
  -3.517731e+01  -1.558175e+02
   1.064648e+02  -1.136588e+02
   7.292839e+01  -1.652272e+00
   5.421899e+01   2.436999e+01
   6.735397e-01  -8.635102e+00
  -3.559971e+01  -7.053635e+01
   8.793356e+01  -1.256023e+02
   2.048416e+02  -1.131711e+01
   1.200654e+02   1.124177e+02
   1.027556e+01   1.602089e+02
  -1.314573e+02   1.478879e+02
  -1.091421e+02  -5.684016e+01
  -3.207456e+01  -8.808128e+01
   6.957778e+01  -5.632492e+01
   9.468930e+01  -3.047462e+00
  -7.068696e+01   3.814216e+01
  -3.395200e+01   2.450326e+01
   4.166516e+01  -5.753604e+01
   5.733725e+01  -2.304411e+01
   9.891640e+01   9.994399e+01
   1.520054e+01   1.853522e+02
  -1.119357e+02   1.408268e+02
  -2.176794e+02  -3.912668e+00
  -1.238234e+02  -1.622918e+02
  -9.353284e+01  -1.931276e+02
   1.080461e+02  -1.040503e+02
   1.060394e+02  -1.046432e+01
   5.077483e+01   1.349316e+01
   7.007851e+01   2.751812e+01
   5.976243e+01   2.020965e+01
   7.578771e+01   1.647718e+01
   3.752700e+01   4.625194e+01
  -1.664644e+01   1.016518e+02
  -8.079905e+01   7.515525e+01
  -8.822863e+01  -5.312399e+01
   1.972838e+01  -9.888194e+01
   9.800109e+01  -6.761382e+01
   1.625565e+02   4.180895e+01
   3.668873e+01   1.859882e+02
  -1.291839e+02   1.846863e+02
  -2.286174e+02   7.760682e+01
  -2.117362e+02  -5.986079e+01
  -6.622830e+01  -1.289215e+02
   1.636791e+01  -1.447912e+02
   4.796706e+01  -6.716817e+01
   8.546303e+01  -2.783753e+01
   2.513629e+01  -7.237017e+01
   9.741533e+01  -8.763837e+01
   1.010609e+02   3.260702e+01
   1.195729e+02   1.274712e+02
  -2.976015e+00   2.282023e+02
  -7.658559e+01   1.287869e+02
  -1.685355e+02   2.091094e+01
  -9.819159e+01  -8.670371e+01
  -1.483149e+01  -1.384297e+02
   6.478483e+01  -8.846297e+01
   8.910344e+01   1.641226e+01
  -1.084772e+01   4.140344e+01
  -2.501397e+01   2.194385e+01
   8.336466e+00   2.223452e+01
   1.066787e+02  -2.976597e+00
   6.331157e+01   2.172163e+01
  -5.213825e+01   4.773118e+01
  -1.650891e+02   1.303638e+01
  -5.861846e+01  -1.205082e+01
   1.901881e+01  -7.618228e+01
   1.164341e+02  -8.419363e+01
   8.110849e+01  -5.957552e+00
   4.845449e+01   4.128023e+01
  -6.082587e+01   6.237780e+01
  -7.007355e+01   1.583648e-01
  -6.286206e+01  -6.855862e+01
   4.399262e+01  -5.937032e+01
   8.691462e+01   7.184998e+00
   7.918730e+01   2.698900e+01
   4.693490e+01   8.742873e+01
   6.703387e+01  -1.854574e+01
   7.032445e+01  -1.243626e+01
   5.242099e+01   3.663687e+01
   6.239209e+00   1.432547e+02
  -8.739432e+01   1.411843e+02
  -1.367133e+02   6.311677e+00
  -1.489678e+02  -8.750017e+01
   1.642540e+01  -9.785217e+01
   9.117342e+01  -8.635976e+01
   2.858940e+01   2.966819e+01
  -6.146951e+01   2.287334e+01
  -1.399449e+02  -5.522148e+01
  -9.389841e+01  -8.499183e+01
   6.910115e+01  -1.191354e+02
   1.191170e+02  -1.543215e+01
   5.674182e+01   6.852472e+01
   3.539702e+01   6.874847e+01
  -6.832929e+01   4.191662e+01
  -3.826858e+01  -2.428711e+01
   4.166165e+01  -2.664252e+01
   7.342234e+01   5.353199e+01
   5.242965e+01   1.057779e+02
  -6.047244e+01   1.217059e+02
  -1.053471e+02   9.227619e+01
  -1.499741e+02  -3.886231e+01
   1.332677e+01  -1.210355e+02
   5.769528e+01  -9.243229e+01
   1.204066e+02   2.720066e+01
   9.152658e+01   1.485957e+02
  -5.878572e+00   1.177174e+02
  -4.775941e+01   5.310976e+00
  -3.748585e+01  -4.829922e+01
   7.858455e+00   3.778855e+01
   1.453605e+01   1.481461e+01
  -8.392047e+00  -2.137916e+01
  -8.459870e+01  -9.810224e+01
  -5.114194e+01  -1.083451e+02
   2.185250e+01  -2.390190e+01
   1.120913e+02   2.765698e+01
   1.348750e+02   3.471074e+01
  -1.093253e+01   8.213232e+01
  -7.792709e+01   9.419735e+00
  -5.978380e+01  -7.445029e+00
  -5.711544e+00   2.185996e+01
   4.598885e+00  -1.636657e+01
   1.453492e+00   1.809192e+01
  -4.662053e+00  -5.560557e+01
  -2.260547e+01   8.766519e+00
   3.559179e+01  -1.097242e+01
   7.223989e+01   1.430765e+01
   1.542446e+01   2.425275e+01
  -4.265743e+01   6.681832e+01
  -1.622182e+02   7.123189e+01
  -1.582283e+02  -4.840843e+01
  -4.634759e+01  -1.194799e+02
   1.274075e+01  -1.446774e+02
   6.756969e+01  -8.329106e+01
   8.184497e+01   7.355603e+01
   2.419847e+01   5.284924e+01
   6.384204e+00   2.632071e+01
   3.850345e+01   1.191489e+01
   6.315270e+01   3.470665e+01
   5.248430e+01   3.460616e+01
  -2.522462e-01   6.555444e+01
  -2.243820e+01   1.781729e+00
  -5.329756e+01  -8.507365e+01
  -3.226663e+01  -7.166678e+01
   6.073462e+01  -2.608021e+01
   1.117759e+02   1.874914e+01
   4.223621e+01   5.354579e+01
  -2.820192e+01   6.559649e+01
  -5.231339e+01   2.197720e+01
  -1.590752e+01  -9.446655e+01
   4.650081e+01  -7.776157e+01
   6.093152e+01  -1.881362e+01
  -3.261727e+01  -2.134931e+01
  -4.146868e+01   1.900259e+00
   2.912171e+01  -6.314774e+00
   7.562846e+01  -3.228564e+01
   7.880385e+01  -8.588406e+01
   9.498478e+01   2.885751e+01
  -2.632842e+01   7.740164e+01
  -8.893066e+01   5.633030e+01
  -4.431599e+01   2.289228e+01
  -1.510092e+01  -6.892153e+01
   4.551122e+00  -2.739364e+01
   2.086876e+01   7.238050e+00
   2.331610e+01   2.155262e+01
  -9.000656e-01   7.704918e+01
  -3.661058e+01   1.658129e+01
  -1.343852e+01  -2.942589e+01
   7.824031e+00   2.508311e+01
  -5.900955e+00   1.694833e+00
  -5.496592e+01  -5.590380e+00
  -1.086444e+01  -2.350750e+01
  -1.500539e+01  -7.873925e+01
   2.339457e+01  -2.019842e+01
   5.578571e+01   3.675125e+01
   8.000548e+00   9.841026e+01
  -5.006180e+01   3.620539e+01
  -7.141039e+01   1.222501e+00
  -4.319746e+01  -3.705731e+01
   2.394793e+01  -1.839925e+01
   5.037886e+01   5.154067e-01
   5.029909e+01   9.758433e+00
  -6.826370e+01   4.863592e+01
  -4.573616e+01  -3.862245e+01
  -2.324567e+01   1.501000e+01
   2.469830e+01  -1.702183e+01
   3.907599e+01   5.781283e+01
  -3.301641e+01   1.827274e+01
  -8.015362e+01   5.118248e+01
