
 $NMID
 id='ANONYMOUS ', fmtdat='(2E16.6)'
 volume=1.0
 tramp=1.0
 $END
   2.215101e+03   1.302010e+02
   1.483715e+03   1.120050e+03
   1.555167e+02   1.203895e+03
  -7.644071e+02   8.869442e+02
  -7.117697e+02   2.222712e+02
  -3.116825e+01  -3.085451e+01
   2.136979e+02  -4.499809e+01
   4.635123e+01   2.861421e+02
  -2.725602e+02   4.602092e+02
  -4.994054e+02   1.521109e+02
  -4.025875e+02  -2.795776e+02
  -7.693397e+01  -4.617633e+02
   1.827287e+02  -1.865016e+02
   1.791376e+02   2.387108e+02
  -8.143905e+01   3.797757e+02
  -2.568277e+02   7.918142e+01
  -2.018153e+02  -2.972749e+02
   4.086231e+01  -4.443084e+02
   2.970518e+02  -2.370767e+02
   3.216161e+02   1.049970e+02
   1.440997e+02   2.340428e+02
  -7.497008e+01   1.593697e+02
  -6.246460e+01   8.741294e+01
   1.825980e+02   1.556893e+02
   1.826869e+02   2.610130e+02
   9.168002e-01   2.385011e+02
  -3.331406e+02   8.797489e+01
  -4.476616e+02  -1.362273e+02
  -2.086910e+02  -2.220142e+02
   1.828846e+02  -1.255156e+02
   3.448998e+02   9.833124e+01
   7.718436e+01   2.503319e+02
  -1.452242e+02   2.187104e+02
  -3.177655e+02   1.500937e+02
  -1.894477e+02  -1.331247e+02
  -9.800521e+01  -1.706261e+02
  -5.491386e+01  -1.429058e+02
  -1.165459e+02   3.796835e+01
  -8.618468e+01   5.931179e+01
  -7.493054e+01  -1.415616e+02
   4.786380e+01  -2.942600e+02
   2.147929e+02  -2.538970e+02
   2.192877e+02  -3.520060e+01
   5.265295e+01   1.531818e+02
  -7.275678e+01   5.457901e+01
  -1.428997e+02  -1.785082e+02
   5.333094e+01  -2.130583e+02
   2.682558e+02  -1.265887e+02
   2.991491e+02   2.286088e+02
   1.480501e+02   3.274663e+02
  -2.111598e+02   1.977164e+02
  -3.927299e+02   6.423524e+01
  -2.914477e+02  -1.431240e+02
   2.571671e+01  -1.573394e+02
   2.053769e+02  -6.363881e+01
   1.349149e+02   2.849239e+01
  -4.039757e+01   1.103040e+01
  -2.114942e+01  -2.803188e+00
   5.856696e+01  -3.093818e+01
   1.473258e+02  -9.367511e+00
   1.016221e+02   1.386623e+02
  -9.209546e+01   2.160611e+02
  -2.080724e+02   1.245387e+02
  -2.735819e+02  -4.902309e+01
  -6.034364e+01  -2.967818e+02
   2.009694e+02  -2.667903e+02
   2.436003e+02  -1.064845e+02
   2.283869e+02   1.190543e+02
   6.299325e+01   1.976213e+02
  -2.594390e+01   2.232015e+02
  -1.668987e+01   1.397407e+02
   2.774686e+01   4.536453e+01
  -1.315746e+02   8.965187e+01
  -1.795075e+02   1.399058e+01
  -1.973820e+02  -9.161628e+01
  -1.173132e+02  -2.032207e+02
   1.035179e+02  -1.876204e+02
   1.387341e+02   2.189923e+01
   8.010190e+01   1.757376e+02
  -1.774685e+01   1.720651e+02
  -1.773612e+02   2.518468e+01
  -1.952403e+02  -1.462431e+02
  -1.337575e+02  -2.053834e+02
   4.893525e+01  -1.724703e+02
   8.572714e+01  -8.174214e+01
   8.661637e+01  -4.172751e+01
   1.049083e+02  -6.122504e+01
   2.417996e+02  -4.719735e+01
   3.301255e+02   6.960288e+01
   2.407983e+02   2.266149e+02
  -3.364827e+01   3.572876e+02
  -3.273471e+02   2.740537e+02
  -3.350301e+02   9.999711e+01
  -1.888465e+02  -6.121953e+01
  -3.138604e+01  -1.848496e+02
   1.002169e+01  -8.691225e+01
   3.470431e-01  -2.012555e+01
  -9.247035e+01   1.641374e+01
  -6.504128e+01  -3.794318e+01
   7.360165e+00  -8.344120e+01
   6.863225e+01  -4.527878e+01
   5.571146e+01   2.549731e+01
  -1.657851e+01   6.666827e+01
  -1.222452e+02   2.660301e+00
  -1.299775e+02  -1.639807e+02
   4.413397e+00  -2.382735e+02
   1.727141e+02  -1.933052e+02
   3.105774e+02   4.344753e+01
   2.306024e+02   1.699273e+02
   4.168845e+01   2.040015e+02
  -9.025080e+01   1.238862e+02
  -1.713270e+02  -2.650837e+01
  -4.997495e+01   1.073086e+01
   7.536792e+01   2.483118e+01
  -2.248028e+01   8.227759e+01
  -1.209500e+02   3.153324e+01
  -1.272486e+02  -1.465036e+01
  -1.027713e+01  -2.305939e+01
   6.387184e+01   1.562793e+01
   2.471152e+01   3.498218e+01
  -9.710450e+01   5.980616e+01
  -2.225909e+02  -1.326272e+01
  -2.108307e+02  -8.914010e+01
  -2.861997e+01  -1.888078e+02
   1.495987e+02  -1.599081e+02
   1.731275e+02  -6.602250e+01
   5.720871e+01   3.181451e+01
  -1.875557e+01   7.650034e+01
  -6.011997e+01  -2.020539e+01
   7.909600e+01  -7.518903e+01
   1.373650e+02  -2.281749e+01
   1.386686e+02   2.825227e+01
   4.618610e+01   1.392915e+02
  -5.871472e+01   8.213451e+01
  -7.759728e+01   6.411182e+01
  -5.204491e+01  -1.513605e+00
   5.189503e+01   3.304546e+01
   6.790427e+01   9.784413e+01
  -7.614602e+01   1.225659e+02
  -1.875247e+02   1.225563e+01
  -1.438349e+02  -1.059876e+02
   1.711377e+01  -8.879576e+01
   7.809508e+01  -1.154378e+02
   1.223745e+02  -2.180015e+00
   8.154191e+01   1.536430e+01
  -2.626111e+01   6.176399e+01
  -7.772525e+01   2.899551e+01
   2.699811e+01  -4.813899e+01
   1.575298e+01  -3.822619e+01
   2.825837e+01   1.899570e+01
  -8.302050e+01   1.889497e+01
  -9.520838e+01  -4.773114e-01
  -7.685256e+00  -1.262744e+02
   1.252529e+02  -1.494958e+02
   1.818592e+02   6.465971e+00
   1.301888e+02   1.822259e+02
   3.858846e+01   1.594828e+02
  -6.520571e+01   1.244242e+02
  -6.983478e+01  -1.845390e-01
  -7.375786e+01  -3.180749e+01
  -6.262774e+00  -4.796363e+01
  -2.402113e+01   1.199581e+01
  -6.593519e+01   2.566133e+01
  -3.093210e+01  -2.325536e+01
   4.033834e+01  -8.389068e+01
   9.881751e+01  -6.396097e+01
   1.083854e+02   6.907292e+01
  -4.160255e+01   1.358689e+02
  -1.105511e+02   8.585459e+01
  -1.733303e+02  -3.618185e+01
  -4.215097e+01  -2.012871e+02
   7.777157e+01  -1.394847e+02
   1.873979e+02  -6.792223e+01
   1.460729e+02   5.888305e+01
   9.668819e+01   8.847738e+01
  -3.155335e+01   9.347462e+01
  -6.976960e+01   6.346982e+01
  -6.866805e+01   4.362231e+01
  -7.651317e+00   6.834882e+01
  -5.867018e+01   7.265406e+01
  -8.916048e+01   1.306487e+01
  -1.021802e+02  -1.298029e+02
  -4.200878e+01  -1.422407e+02
   4.648751e+01  -1.250914e+02
   8.107937e+01   3.354804e+01
   9.480998e+01   9.399475e+01
   6.650656e+00   9.541193e+01
  -7.061030e+01   5.754920e+01
  -5.373379e+01  -6.224148e+01
   4.670970e+01  -7.939985e+01
   4.577683e+01  -4.257674e-01
   1.251069e+01  -1.098094e+01
  -5.097890e+01  -3.427280e+01
  -3.689404e+01  -5.578336e+01
  -5.093570e+00  -4.979099e+01
   1.309805e+02   4.961852e+01
   1.086459e+02   6.787003e+01
  -2.026016e+01   5.754420e+01
  -1.255408e+02   5.264023e+01
  -1.288699e+02  -2.162870e+01
  -3.488161e+01  -2.382630e+01
   4.882820e+01  -5.619291e+01
   5.940052e+01   2.149395e+01
   6.848398e+00   2.593813e+01
  -2.531861e+01   6.900601e+01
  -7.205793e+01  -2.775711e+01
  -4.234290e+01  -1.363681e+01
  -3.896406e+01  -8.922755e+00
  -5.837599e+01   6.043623e-01
  -4.523889e+01   1.927937e+00
  -3.353004e+01  -5.666122e+01
  -8.517072e+00  -1.239087e+02
   1.170648e+02  -1.523913e+02
   1.198532e+02  -7.105049e+01
   8.528242e+01   1.025128e+02
  -1.755206e+01   1.172558e+02
  -3.173457e+01   4.892794e+01
  -3.314702e+01  -2.409246e+01
   6.455556e+01  -2.364803e+01
   7.874868e+01   1.345916e+01
   2.384893e+01   5.976921e+01
  -9.140362e+01   4.586836e+01
  -1.369024e+02  -3.313287e+01
  -1.235068e+02  -5.710254e+01
  -2.003694e+01  -5.500117e+01
   5.635174e+01  -3.544792e+01
   6.386649e+01   1.372405e+01
  -4.402870e+01   3.915062e+01
  -5.630078e+01  -9.265286e+00
  -4.233732e+01  -7.999892e+01
   7.800801e+01  -1.176103e+02
   6.939806e+01  -3.546572e+01
   9.758787e+01   4.629661e+01
   1.465181e+01   1.434290e+02
  -7.961912e+01   1.364547e+02
  -6.628533e+01  -3.330624e+01
  -2.689207e+01  -8.083733e+01
   1.305860e+01  -6.069423e+01
   4.207998e+01   1.376148e+01
  -1.126597e+01   3.716425e+01
   2.154209e+01  -6.279797e+00
   2.075728e+01  -3.177689e+01
   2.202972e+01   6.338916e+00
   1.503287e+01   2.414603e+01
   1.153210e+01   3.996127e+01
  -3.930678e+01   3.081100e+01
  -7.992412e+01  -2.925874e+01
  -8.105824e+01  -6.165600e+01
  -7.239236e+00  -4.661314e+01
   5.416494e+01  -3.254134e+00
   5.053674e+01   4.170035e+01
   1.073086e+01   2.214139e+00
  -4.164356e+01   4.077113e+01
   8.752227e+00  -1.666456e+01
   3.656299e+00   7.768588e+00
  -3.256645e+01  -1.965604e+01
  -1.298105e+01  -3.657328e-01
  -1.043190e+02  -3.264552e+01
  -6.406435e+01  -3.207409e+01
   4.855033e+01  -1.424106e+02
   1.389799e+02  -5.976167e+01
   1.117004e+02  -7.416577e+00
   4.634208e+00   9.409795e+01
  -5.508005e+01   1.349514e+02
  -1.378809e+02   7.703036e+01
  -5.121319e+01  -1.428210e+01
  -3.092369e+00  -1.933766e+01
   7.470598e+00  -2.889489e+01
  -2.021682e+00   4.728118e+00
  -6.485530e+01  -3.719709e+01
  -4.064383e+01  -4.334431e+01
   3.586997e+01  -4.319649e+01
   4.593943e+01   6.296609e+00
   4.510272e+01   4.080855e+01
   3.382915e+00   6.750491e+01
  -4.881995e+01   3.011890e+01
  -1.097783e+02  -4.969095e+01
  -1.997207e+01  -2.362351e+01
   3.058293e+01  -4.389080e+01
   5.515709e+01  -7.125543e+00
   1.188967e+01   5.779615e+01
  -1.905963e+01   6.341719e+01
  -4.025263e+01   3.338662e+01
   3.469411e+01  -1.334721e+01
   2.537389e+01  -6.176041e+00
   2.189553e+01   3.865722e+01
  -1.199741e+01   7.741712e+01
  -6.861782e+01   5.944458e+01
  -4.573974e+01   1.299048e+01
   1.119603e+01  -4.727074e+01
   1.517425e+01  -1.368451e+02
   1.063720e+01   2.714406e+01
  -1.444464e+01   4.765030e+01
  -8.559380e+00   6.807647e+01
   3.083741e+01   1.734772e+01
  -3.323329e+01  -3.298464e+01
   9.326884e+00  -4.411991e+01
   3.080143e+01  -1.900824e+01
  -5.784567e+00   3.246335e+01
   2.290094e+00   3.092936e+01
  -6.127868e-02  -1.717388e+01
  -3.544284e+00   6.137739e+00
  -1.917286e+01   9.298397e+00
   3.796025e+01   4.439529e+01
  -2.271029e+01   1.377396e+01
  -8.062976e+01  -1.397142e+01
  -4.238143e+01  -5.110197e+01
   1.970427e+01  -5.714740e+01
   4.222988e+01   3.967194e+01
   2.744608e+01   4.771409e+01
  -4.882607e+01   4.625543e+01
  -7.097829e+01  -2.985066e+01
  -7.336307e+01  -5.596554e+01
   5.608236e+01  -3.416310e+01
   6.259116e+01  -6.206177e+01
   5.216704e+01   8.897437e+00
   5.468251e+00   2.872289e+01
   1.728205e+01   4.249627e+01
   9.732661e+00  -3.043485e+01
   1.394663e+00  -3.157970e+01
