
 $NMID
 id='ANONYMOUS ', fmtdat='(2E16.6)'
 volume=1.0
 tramp=1.0
 $END
  -1.660778e+03   1.388205e+01
  -1.496444e+03  -6.653659e+02
  -3.655827e+02  -1.169191e+03
   4.244576e+02  -1.125109e+03
   6.067002e+02  -4.366215e+02
   1.621739e+02   1.211328e+02
  -9.257826e+01   1.083162e+02
  -2.028218e+02  -2.288037e+02
   9.255458e+01  -3.368061e+02
   2.952781e+02  -1.642494e+02
   3.577911e+02   2.100379e+02
   1.396944e+02   3.714266e+02
  -1.062189e+02   2.034168e+02
  -1.755394e+02  -1.785248e+02
  -2.098511e+01  -3.775488e+02
   2.014080e+02  -1.133416e+02
   2.808639e+02   2.476505e+02
   4.565429e+01   4.580155e+02
  -2.496324e+02   2.420605e+02
  -3.410528e+02  -6.705829e+01
  -1.161198e+02  -2.231724e+02
   3.770703e+01  -1.745862e+02
   1.066439e+01  -1.002005e+02
  -1.167089e+02  -9.598677e+01
  -1.357073e+02  -1.854222e+02
  -1.308674e+01  -2.189673e+02
   2.698685e+02  -1.443319e+02
   3.437260e+02   3.887994e+01
   1.181485e+02   1.239801e+02
  -1.555009e+02   8.374941e+01
  -1.938598e+02  -2.270407e+01
  -1.059055e+02  -2.002100e+02
   1.174602e+02  -1.381510e+02
   2.540022e+02  -5.656253e+01
   1.978906e+02   7.252947e+01
   1.242936e+02   1.706741e+02
   1.527777e+01   1.455509e+02
   8.048191e+01  -3.398965e+01
   6.286360e+01  -4.564548e+01
   6.585899e+01   2.461709e+01
   6.968782e+00   2.909137e+02
  -1.377024e+02   2.321140e+02
  -1.505687e+02   4.318507e+01
  -1.340185e+02  -1.316543e+02
   3.892408e+01  -7.905579e+01
   1.086404e+02   8.511568e+01
  -4.984118e+01   2.483726e+02
  -2.383330e+02   1.185990e+02
  -3.131097e+02  -2.007205e+02
  -1.019638e+02  -2.781659e+02
   1.415165e+02  -2.024553e+02
   3.134598e+02   1.833472e+00
   2.279244e+02   1.405535e+02
   4.279286e+01   1.215596e+02
  -1.411199e+02   7.191162e+01
  -1.177528e+02   1.508556e+01
  -3.651509e+01  -1.428720e+01
   6.639389e+00  -2.994720e+01
  -7.782734e+01  -2.861451e+01
  -1.212747e+02   3.930549e+01
  -1.048110e+02  -1.142756e+02
   9.793203e+01  -1.976672e+02
   2.780957e+02  -1.415274e+02
   2.090375e+02   3.502238e+01
  -2.578301e+01   2.366472e+02
  -1.547131e+02   2.737481e+02
  -2.394282e+02   9.125881e+01
  -1.342900e+02  -7.259103e+01
  -1.323762e+01  -1.731268e+02
  -1.273602e+00  -1.583770e+02
  -2.602213e+01  -1.390530e+02
   1.807814e-01  -8.270728e+01
   1.595287e+02  -9.143562e+01
   1.739658e+02  -4.517880e+00
   1.409018e+02   8.287954e+01
   2.593751e+01   1.783803e+02
  -8.162785e+01   1.305302e+02
  -1.089678e+02  -8.633134e+00
  -8.523775e+01  -1.659220e+02
   5.295293e+01  -1.698622e+02
   1.546765e+02  -5.109878e+01
   1.958072e+02   1.099063e+02
   1.083307e+02   2.054322e+02
  -2.319230e+01   1.807292e+02
  -2.486818e+01   1.113706e+02
  -1.041089e+02   7.284012e+01
  -8.332009e+01   8.336246e+01
  -1.931268e+02   3.368966e+01
  -2.831453e+02  -7.753767e+01
  -2.378133e+02  -1.888426e+02
  -7.151394e+00  -3.091973e+02
   2.370126e+02  -2.685480e+02
   2.952279e+02  -9.354414e+01
   2.045920e+02   8.603936e+01
   1.068732e+01   1.535119e+02
  -4.557186e+01   6.976634e+01
   1.788354e+01   3.616891e+01
   6.905875e+01  -3.118618e+01
   7.579182e+01   1.864559e+01
   4.120938e+01   4.777706e+01
  -3.231573e+01   5.373105e+01
  -9.363642e+01  -4.386592e+01
   3.667116e+01  -7.826777e+01
   1.695701e+02  -4.733421e+01
   1.428386e+02   1.518406e+02
   1.220796e+01   2.115720e+02
  -1.384498e+02   1.398767e+02
  -1.780968e+02  -6.773523e+01
  -1.955795e+02  -2.362622e+02
  -6.267196e+01  -1.857568e+02
   7.327656e+01  -1.197724e+02
   9.127808e+01   3.520785e+00
   4.597955e+01   1.025432e+01
  -5.983633e+01  -4.961590e+01
   3.102880e+01  -7.613815e+01
   1.113003e+02  -3.069139e+01
   6.683016e+01  -2.863593e+01
  -1.559279e+01   4.289923e+01
  -5.866205e+01  -3.787007e+01
  -5.705110e+01  -3.563445e+01
   7.483388e+01  -3.981019e+01
   2.107961e+02   5.663781e+01
   2.147904e+02   1.603616e+02
   1.803501e+01   1.598755e+02
  -1.319402e+02   1.881930e+02
  -1.122564e+02   8.674077e+01
  -1.466216e+02  -4.968233e+01
   1.047790e+01  -1.417244e+01
   6.258644e+01  -1.874792e+01
  -3.717758e+01   4.097820e+01
  -1.094988e+02   2.249995e+01
  -1.281273e+02  -1.201702e+01
   1.324477e+01  -1.247133e+02
   5.926511e+01  -1.033702e+02
   1.092780e+02  -3.808110e+01
   5.563212e+01   3.928157e+01
  -2.719664e+01  -2.005702e+01
   1.277956e+01  -1.008622e+02
   7.456132e+01  -5.592405e+01
   1.442820e+02   1.324086e+00
   1.015829e+02   1.146236e+02
   9.155728e+00   1.778809e+02
  -9.361591e+01   1.222831e+02
  -1.270271e+02   4.803751e+00
  -6.648807e+01  -2.153307e+01
   2.421210e+01  -9.135951e+01
   3.163316e+01  -1.791150e+01
   1.957896e+01   8.476360e+00
  -3.064347e+01   1.189715e+01
   1.407797e+00   3.149297e+00
   7.066718e+01  -4.556342e+01
   6.717968e+01   6.478667e+01
  -2.099431e+01   1.088827e+02
  -8.560536e+01   7.944984e+01
  -1.537469e+02  -5.361637e+01
  -1.154256e+02  -1.047824e+02
  -2.461254e+01  -1.060056e+02
   6.062809e+01  -7.031575e+01
   6.986085e+01  -1.218639e+01
   5.457880e+01   1.169483e+00
  -2.716964e+01   3.592872e+01
   5.435076e+01  -3.759817e+01
   7.726605e+01   3.917700e+00
   7.026095e+01   6.710926e+01
   2.881617e+01   6.691051e+01
  -1.187452e+02   6.156829e+01
  -7.796408e+01  -4.395446e+01
   3.174193e+01  -8.232316e+01
   8.893408e+01  -5.614842e+01
   1.302348e+02   5.003123e+01
   2.194158e+01   1.577887e+02
  -7.475079e+01   1.488937e+02
  -1.285928e+02   3.868602e+01
  -2.010528e+02  -5.256198e+01
  -5.524695e+00  -1.176732e+02
   2.015833e+01  -1.250378e+02
   5.777728e+01  -6.544630e+01
   3.827856e+01  -8.517138e+01
   1.023411e+02  -7.116224e+01
   4.863971e+01  -7.601960e+01
   1.143483e+02   2.028403e+01
   4.894741e+01   1.200782e+02
   7.608369e+00   8.235413e+01
  -5.186219e+01   1.099747e+02
  -6.134076e+01   1.108250e+01
  -4.943223e+01  -9.710012e+01
  -5.633264e+00  -1.122725e+02
   2.234988e+01  -8.275627e+01
   4.659491e+01   1.052098e+01
   2.934108e+01   5.354044e+01
  -2.564487e+01   7.006164e+01
  -1.874263e+01  -1.090315e+01
   5.736029e+01  -7.323434e+00
   5.064752e+01   2.329895e+01
  -5.291153e+01   2.136784e+01
  -1.268648e+02   4.674378e+01
  -1.204314e+02  -4.833378e+01
  -2.403456e+01  -8.823401e+01
   6.048665e+01  -4.858125e+01
   1.190215e+02  -1.511948e+01
   4.116344e+01   3.918070e+01
  -4.276906e+01   4.184622e+01
  -5.964349e+01  -3.653516e+01
  -4.180484e+01  -3.859845e+01
   7.093845e+00  -1.466871e+01
   4.222158e+01   7.782151e-01
   4.429270e+01  -3.896028e+00
   2.026705e+01   5.161975e+01
   3.374754e+01   4.783954e+01
   2.478377e+01  -2.833510e+01
  -1.955422e+01   3.096598e+01
  -1.921266e+01   6.080010e+01
  -9.636636e+01   5.972326e+01
  -1.268474e+02   6.162732e+01
  -1.049834e+02  -4.204576e+01
  -1.441607e+01  -5.487420e+01
   8.568912e+01  -3.342641e+01
   6.079930e+01  -1.134206e+01
  -5.084858e+01   5.261985e+01
  -1.494792e+02   1.231561e+01
  -6.341356e+01  -8.873788e+01
   3.737243e+01  -7.081109e+01
   1.137276e+02  -4.020540e+00
   1.076657e+02   1.044585e+01
   1.132030e+01   4.889231e+01
  -3.291042e+01   6.983742e+01
   2.410521e+00  -1.095480e+01
   1.007681e+01   1.847851e+01
   5.911525e+01   1.704751e+01
   5.073670e+00   5.977061e+01
  -3.985196e+01   1.034019e+02
  -1.053550e+02   5.461538e+01
  -9.588857e+01  -5.673380e+01
  -5.679611e+00  -1.242540e+02
   7.220834e+01  -1.093177e+02
   1.055914e+02  -3.934960e+01
   5.582918e+01   7.112766e+01
  -4.470542e+01   1.025067e+02
  -4.760091e+01   1.770962e+00
  -1.176616e+01   9.606530e+00
  -2.568378e+01   3.205100e+00
  -3.640546e+01  -3.538290e+00
  -6.013073e+01  -1.935835e+01
  -1.254609e+01  -4.980293e+01
   1.553038e+00  -9.435476e+01
   7.088660e+01  -5.312594e+01
   8.677332e+01  -2.237706e+00
   1.041634e+02   1.833705e+01
   1.176445e+01   7.192001e+01
  -6.790792e+01   4.317512e+01
  -3.493127e+01   1.276240e+01
  -5.106763e+01   8.798569e+00
  -3.939682e+00  -3.104963e+01
  -9.871085e+00  -3.906111e+00
  -1.174867e+00  -2.873757e+00
  -3.127381e+01  -2.763591e+00
   2.088709e+01   3.063931e+01
   7.353942e+01  -1.272016e+01
   7.255560e+00   4.255086e+01
  -7.191768e+01   1.204155e+02
  -1.196006e+02   6.335188e+01
  -8.163970e+01  -5.856485e+01
  -1.550989e+01  -1.386195e+02
   7.716105e+01  -7.768357e+01
   7.692266e+01  -2.148694e+01
   3.025222e+01  -1.462804e+01
  -3.411320e-01   1.224686e+01
  -3.152589e+01  -1.058856e+01
   4.050690e+01   1.934084e+01
   2.640704e+01   1.372755e+01
   1.963481e+01   4.310755e+01
  -2.021579e+01   7.997268e+01
  -6.626396e+01  -3.214549e-02
  -3.579044e+01  -1.526023e+01
  -4.475148e+01  -6.769305e+01
   5.793862e+01  -2.322602e+01
   5.896709e+01   4.640995e+01
   2.169420e+01   5.040352e+01
  -2.337672e+01   5.470501e+01
  -3.699293e+01   7.673674e+00
  -1.525396e+01  -1.797043e+01
   2.339602e+01  -1.882761e+01
   4.012449e+01   1.675056e+00
  -3.252265e+01   1.390146e+01
  -8.079979e+01   1.621706e+01
  -4.276435e+01  -1.471829e+01
   5.514992e+01  -4.394914e+01
   7.442267e+01  -6.780318e+00
   4.368741e+01   2.720770e+01
  -3.768252e+01   3.555921e+01
  -1.330507e+01   5.057848e+01
   3.702162e+00   1.548586e+01
   6.715804e+00  -1.321603e+01
  -4.193283e+00  -4.646437e+01
   2.564457e+01   2.876929e+01
   1.693299e+01   3.875407e+01
  -3.705488e+01   2.143448e+01
  -3.720235e+00  -1.019619e+01
  -1.239626e+01  -4.565033e+01
   9.622398e+00  -1.161752e+01
   1.903549e+01   3.232165e+00
  -1.873780e+01   1.237410e+01
   1.926823e+01  -1.062971e+01
  -2.790785e+01  -5.566687e+01
   7.426212e+00  -5.476727e+01
   1.314877e+01  -2.386581e+01
   2.524138e+00   3.915899e+01
  -2.484287e+01   3.211629e+01
  -1.543670e+01   4.802929e+00
  -6.106119e+00  -5.985835e+01
   4.360228e+01  -3.657967e+01
   8.772567e+01  -4.247091e+00
   3.892074e+01   2.896135e+01
  -2.936935e+01   3.879143e+01
  -8.274526e+01   1.978513e+01
  -5.834400e+01   7.490781e+00
   5.469973e+01   1.158155e+01
  -2.247338e+01  -3.663360e+01
  -1.396524e+01  -3.986924e-01
   3.103217e+00   3.771426e+01
