
 $NMID
 id='ANONYMOUS ', fmtdat='(2E16.6)'
 volume=1.0
 tramp=1.0
 $END
  -2.532275e+03   4.604177e+02
  -1.986280e+03  -7.631337e+02
  -3.778163e+02  -1.633451e+03
   7.785891e+02  -1.330404e+03
   7.457126e+02  -4.052883e+02
   2.573445e+02   1.801838e+02
  -1.493005e+02   2.467337e+01
  -9.417233e+01  -2.809029e+02
   2.582323e+02  -4.801797e+02
   4.644011e+02  -1.543398e+02
   4.374714e+02   2.946831e+02
   8.824562e+01   4.056820e+02
  -1.741867e+02   1.629489e+02
  -2.161394e+02  -2.375561e+02
   9.193327e+01  -4.204750e+02
   3.529532e+02  -1.318290e+02
   2.822209e+02   2.964681e+02
  -8.438009e+01   4.483891e+02
  -3.545504e+02   3.329323e+02
  -3.906188e+02  -8.937200e+01
  -1.402180e+02  -2.664246e+02
   5.493808e+01  -2.255254e+02
   5.274129e+01  -9.096023e+01
  -1.737258e+02  -1.675822e+02
  -1.736032e+02  -2.658079e+02
   2.144624e+01  -3.144096e+02
   3.865722e+02  -7.423423e+01
   4.547161e+02   1.451846e+02
   1.695233e+02   2.708183e+02
  -1.889074e+02   1.010691e+02
  -3.437999e+02  -1.042769e+02
  -1.563860e+02  -2.516385e+02
   2.086658e+02  -2.637276e+02
   3.279547e+02  -1.216344e+02
   2.496565e+02   5.567583e+01
   9.188364e+01   1.649580e+02
   4.265503e+01   8.976259e+01
   5.166005e+01  -3.684579e+01
   1.090189e+02  -3.482371e+01
   8.336653e+01   7.412394e+01
  -3.516548e+01   3.034426e+02
  -1.757192e+02   2.262729e+02
  -1.814506e+02  -2.874393e+01
  -6.703569e+01  -2.451834e+02
   8.823846e+01  -8.452868e+01
   1.041910e+02   1.911750e+02
  -8.782429e+01   2.645339e+02
  -3.169950e+02   5.175747e+01
  -4.235177e+02  -3.357377e+02
  -1.344097e+02  -3.913375e+02
   2.542239e+02  -2.133481e+02
   4.361956e+02   1.881822e+01
   3.236813e+02   1.854439e+02
  -2.663033e+01   1.725867e+02
  -2.112887e+02   9.837627e+01
  -2.066647e+02   1.796520e+01
  -6.725268e+01  -5.082895e+01
   2.188627e+01   3.333049e+01
  -8.626555e+01   5.261286e+01
  -1.797236e+02  -3.578766e+01
  -7.525840e+01  -1.624646e+02
   1.123211e+02  -2.452650e+02
   2.993402e+02  -1.373262e+02
   2.547943e+02   7.688824e+01
  -4.224690e+00   3.320498e+02
  -2.240731e+02   3.325092e+02
  -3.216737e+02   1.290950e+02
  -1.967507e+02  -1.051929e+02
  -5.822516e+01  -2.910546e+02
   2.173138e+01  -1.872065e+02
   4.220898e+01  -1.637508e+02
   5.240480e+01  -1.722921e+02
   1.845593e+02  -1.447032e+02
   1.664352e+02  -2.463030e+01
   2.222185e+02   1.365060e+02
   1.021505e+02   2.459232e+02
  -8.846431e+01   1.654862e+02
  -1.342440e+02  -5.139087e+01
  -8.990403e+01  -2.259961e+02
  -2.995726e+01  -2.363662e+02
   2.200939e+02  -6.120593e+01
   2.822589e+02   1.550213e+02
   1.626900e+02   2.457429e+02
  -6.201169e+01   2.031612e+02
  -1.306190e+02   1.803533e+02
  -1.112201e+02   7.549922e+01
  -1.387168e+02   5.618916e+01
  -2.324892e+02   5.301874e+01
  -3.564822e+02  -6.464540e+01
  -2.572138e+02  -2.430200e+02
  -2.120981e+01  -3.861753e+02
   3.067899e+02  -3.263564e+02
   3.881883e+02  -1.713508e+02
   2.421316e+02   4.022880e+01
   1.467077e+01   1.957257e+02
  -7.108339e+01   1.431626e+02
   1.320728e+01   2.209712e+01
   7.275203e+01  -8.472409e+01
   1.147691e+02   4.845498e+01
   4.310157e+01   1.030747e+02
  -9.052949e+01   9.543286e+01
  -5.705057e+01  -4.865362e+01
   9.689777e+00  -1.105933e+02
   1.114497e+02   3.519337e+01
   1.538375e+02   1.944923e+02
   1.777537e+01   2.929770e+02
  -2.295061e+02   2.053111e+02
  -3.071009e+02  -5.098584e+01
  -2.379755e+02  -2.227512e+02
  -8.761710e+01  -2.045122e+02
   9.947426e+01  -9.370263e+01
   1.149937e+02   2.017266e+01
   1.830812e+01  -9.365698e+00
  -3.071589e+01  -4.932413e+01
   1.242359e+01  -1.131852e+02
   1.219636e+02  -1.078351e+02
   1.450025e+02   1.114054e+01
   4.677049e+01   1.821567e+01
  -4.101150e+01   5.733807e+00
  -4.499683e+01  -5.487753e+01
   1.739252e+02  -9.139194e+01
   2.691008e+02   4.751700e+01
   2.762365e+02   1.447058e+02
   9.711916e+01   2.182043e+02
  -1.288454e+02   2.121669e+02
  -2.047712e+02   8.445786e+01
  -1.226344e+02  -2.784061e+01
   2.925205e+01  -8.223870e+01
  -1.200287e+01   2.924692e+01
  -1.769282e+01   1.029544e+02
  -1.482526e+02   2.346797e+01
  -1.587841e+02  -7.443924e+01
  -3.775144e+01  -1.251166e+02
   8.474293e+01  -1.412045e+02
   1.002374e+02   1.028500e+01
   3.331923e+01   1.909099e+01
  -7.785488e+01  -5.364272e+01
   1.293830e+01  -1.155652e+02
   9.379308e+01  -8.835138e+01
   1.731303e+02  -5.645778e+00
   1.709126e+02   7.441783e+01
   3.508577e+00   1.651009e+02
  -6.917210e+01   1.103051e+02
  -1.572706e+02   6.324126e+01
  -5.632387e+00  -8.769599e+01
   2.799436e+01  -9.112835e+01
   2.965179e+01  -6.407562e+01
  -2.582749e+00   2.392131e+01
  -3.861433e+01   1.787572e+01
   3.593730e+01  -3.613999e+01
   1.493166e+02  -3.592261e+01
   9.545396e+01   9.381807e+01
   2.660602e+01   1.711404e+02
  -1.381600e+02   1.266776e+02
  -1.882023e+02   2.052400e+01
  -1.888111e+02  -1.145157e+02
   5.184613e+00  -2.172809e+02
   3.969609e+01  -1.248498e+02
   8.902811e+01  -4.377384e+01
   7.882592e+01   5.538487e+01
   4.257589e+01   2.721061e+01
   3.038010e+01  -4.002799e+01
   7.619644e+01  -2.472317e+01
   6.319811e+01   7.012176e+01
  -1.267762e+01   1.399531e+02
  -8.543015e+01   6.269984e+01
  -1.031864e+02  -3.786005e+01
   1.299368e+01  -1.353697e+02
   1.596920e+02  -7.553809e+01
   1.786863e+02   1.087248e+02
   6.698541e+01   2.250789e+02
  -1.031490e+02   2.375474e+02
  -2.319706e+02   7.875569e+01
  -2.357810e+02  -8.265667e+01
  -7.542089e+01  -1.690972e+02
   3.303381e+01  -1.077241e+02
   5.549989e+01  -1.188603e+02
   6.701573e+01  -7.052043e+01
   4.212858e+01  -7.602977e+01
   7.161999e+01  -8.908132e+01
   9.257775e+01  -1.044067e+01
   8.324354e+01   9.273306e+01
   4.206903e+01   1.689429e+02
  -8.337166e+01   1.419030e+02
  -1.308452e+02   4.108194e+01
  -1.021125e+02  -1.015561e+02
  -2.573920e+01  -1.276483e+02
   7.968794e+01  -9.977507e+01
   5.453930e+01   3.597497e+01
   1.911679e+01   2.930854e+01
  -2.061921e+01   6.834738e+01
   3.955723e+01   2.095115e+00
   6.844968e+01   9.997858e+00
   4.683809e+01   4.506002e+01
  -9.163345e+01   5.390057e+01
  -1.321484e+02  -3.898826e+01
  -1.662172e+02  -4.458877e+01
   3.388112e+00  -8.414175e+01
   1.245972e+02  -8.871048e+00
   1.042383e+02  -5.465853e+01
   4.487008e+01   3.791417e+01
  -2.992517e+01   3.911574e+01
  -9.027431e+01  -1.115544e+01
  -1.813897e+01  -6.539992e+01
   3.124944e+01  -3.740119e+01
   5.014480e+01   8.457336e+00
   7.373155e+01   5.988236e+01
   5.506255e+01   5.853361e+01
   5.207303e+01   5.907754e+00
   6.572027e+01  -5.353607e+01
   3.211257e+01   6.243774e+01
  -3.073681e+01   1.570101e+02
  -1.113424e+02   1.251565e+02
  -2.051856e+02  -4.123150e+00
  -1.344157e+02  -1.206088e+02
  -7.883798e+00  -1.529227e+02
   7.716463e+01  -6.459224e+01
   6.985476e+01  -3.161648e+01
  -6.743420e+01  -1.281732e+01
  -1.217048e+02  -2.141131e+01
  -3.597196e+01  -1.229698e+02
   6.718661e+01  -9.979663e+01
   1.801331e+02  -3.757316e+00
   1.502587e+02   3.277545e+01
   1.617122e+01   8.627430e+01
  -4.587693e+01   4.482620e+01
  -1.121836e+01   1.116452e+01
   4.847854e+01  -1.112231e+01
   1.362341e+02   1.096406e-01
   3.731267e+01   1.119434e+02
  -6.509438e+01   9.406191e+01
  -1.618556e+02   1.092357e+02
  -1.060792e+02  -4.755647e+01
  -3.521649e+01  -1.315157e+02
   1.980228e+01  -1.286670e+02
   1.091842e+02  -1.397291e+01
   9.287783e+01   8.635104e+01
   6.288196e+00   9.695414e+01
  -4.179188e+01  -2.614119e+01
  -3.733684e+01  -4.464649e+01
   1.226781e+01  -4.963691e+01
   2.395237e+01  -2.104470e+01
  -2.302765e+01   1.351727e+01
  -7.217075e+01  -2.466986e+01
  -2.107038e+01  -9.547754e+01
   7.657362e+01  -4.592581e+01
   9.945962e+01   3.775338e+00
   1.095631e+02   6.045577e+01
   3.641278e+01   5.325649e+01
  -4.783057e+01   4.013963e+01
  -7.317790e+01  -2.882707e+01
  -3.251510e+01   5.819564e+00
   6.901504e+01  -7.573954e+01
   1.492818e+01  -3.000348e+01
   4.207427e+00  -1.025766e+01
  -3.589879e+01   4.919834e+00
   2.255195e+01   2.469373e+01
   6.148902e+01  -1.622326e+00
   4.652182e+01   8.826906e+01
  -7.252749e+01   1.255631e+02
  -1.171490e+02   9.029986e+01
  -1.349379e+02  -2.629387e+01
  -2.277943e+01  -1.853913e+02
   8.216632e+01  -1.334304e+02
   8.830128e+01  -4.383765e+01
   5.826818e+01   8.829206e+00
   4.356725e+01   5.371673e+01
   1.761284e+01   3.081415e+01
   1.260851e+01   3.956942e+01
   1.227610e+01   5.189086e+01
   3.777070e+01   7.887158e+01
  -1.782526e+01   6.273891e+01
  -9.764972e+01  -1.387934e+00
  -9.330644e+01  -7.010725e+01
  -3.263372e+01  -1.156508e+02
   8.222295e+01  -3.860230e+01
   1.099786e+02   3.232335e+01
   8.484134e+01   2.692032e+01
  -5.948502e+01   6.748895e+01
  -7.494435e+01   3.230288e+01
  -2.376674e+01  -6.324804e+00
   1.469162e+01  -7.436312e+01
   3.222107e+01   1.480751e+00
  -5.485866e+01   4.307688e+01
  -3.100460e+01  -1.157570e+01
  -2.075717e+01  -6.399194e+01
   5.010927e+01  -6.126556e+01
   5.536358e+01  -3.525885e+01
   8.674367e+01   3.100592e+01
  -9.138997e-01   8.755724e+01
  -3.974631e+01   5.793130e+01
  -2.119069e+01   3.812572e+01
  -2.695447e+01  -3.328043e+01
   1.254763e-01  -6.131235e+01
   3.459267e+01   1.291752e+01
   1.523087e+01   4.431955e+01
  -3.348350e+00   9.114399e+01
  -5.351806e+01   1.708531e+01
  -5.768379e+01  -3.537076e+01
  -5.613571e+01   2.174255e+01
   2.892601e+01   3.139651e+01
   4.513440e+01   2.024798e+01
   2.033310e+01   1.705139e+01
  -2.403626e+01  -2.220263e+01
   2.848706e+01  -3.120015e+01
   5.589601e+01   3.696941e+00
  -4.075129e+00   7.330268e+01
  -3.956864e+01   3.457924e+01
  -3.166655e+01   9.538657e+00
  -3.873452e+01  -4.282812e+00
   7.826354e+01   7.927442e+00
   4.830281e+01  -2.249978e+01
   8.533805e+01   3.373825e+01
  -3.154165e+01   2.904874e+01
  -8.190637e+01   2.660488e+01
   2.419724e+00  -2.670319e+01
   1.036127e+01  -1.570246e+00
   7.943850e+01  -8.132108e+00
  -5.465969e+00  -1.366333e+01
  -6.078499e+01  -1.195545e+01
