
 $NMID
 id='ANONYMOUS ', fmtdat='(2E16.6)'
 volume=1.0
 tramp=1.0
 $END
  -5.018379e+02   1.285350e+02
  -8.894375e+02  -3.160535e+02
  -2.384835e+02  -5.334215e+02
   1.840482e+02  -5.581972e+02
   2.020752e+02  -2.327906e+02
   1.351489e+02  -5.011012e+01
  -2.219022e+01  -9.647896e+01
   5.511274e+01  -8.060652e+01
   1.930850e+02  -1.754265e+02
   1.741827e+02   1.463778e+01
   6.843302e+01   1.772183e+02
   2.270529e+01   2.089906e+02
  -7.597102e+01   9.210793e+01
  -7.207869e+01  -8.220849e+01
   8.640397e+01  -1.531745e+02
   5.484275e+01   2.739695e+01
   1.693194e+01   1.146251e+02
  -6.927358e+01   2.010799e+02
  -1.444045e+02   9.322280e+01
  -1.322428e+02  -4.261271e+01
  -4.999645e+00  -1.579902e+02
   5.080419e+01  -1.026926e+02
  -2.269114e+01  -2.779759e+01
  -7.148366e+01  -6.521145e+01
  -6.503440e+01  -1.115103e+02
   4.904409e+01  -9.459292e+01
   2.551669e+02   2.814208e+01
   1.229340e+02   8.519334e+01
  -2.101281e+00   4.951842e+01
  -7.751274e+01   5.574092e+01
  -9.136938e+01  -1.028445e+02
  -6.150704e+01  -8.842295e+01
   6.299317e+01  -4.809592e+01
   1.526714e+02  -6.681799e+01
   5.947437e+01   3.609469e+01
   7.455845e+01   5.522543e+01
   3.454514e+01   3.426820e+01
   2.509331e+01  -7.006823e+00
   4.850314e+01  -2.101514e+01
  -2.714725e+00   7.004391e+01
  -6.417234e+01   1.253153e+02
  -6.938381e+01   1.068291e+02
  -8.264603e+01  -5.104944e+01
   4.059431e+00  -5.441319e+01
   9.279276e+00   1.295516e+01
   4.402526e+01   1.006322e+02
  -3.971396e+01   3.772938e+01
  -1.018102e+02  -7.608727e+01
  -1.501088e+02  -1.368649e+02
  -8.202140e+01  -1.148578e+02
   1.156629e+02  -3.540534e+01
   1.754665e+02   3.903020e+01
   1.004353e+02   2.590125e+01
   5.462801e+01   5.319081e+01
  -7.975888e+01   4.261565e+01
  -7.259348e+01   5.115506e+00
  -2.092563e+01   1.026066e+01
   2.248052e+01  -1.336642e+01
  -1.079567e+01  -2.230348e+01
  -5.508109e+01  -8.982643e+00
  -5.510011e+01  -6.029603e+01
   5.753981e+01  -9.467248e+01
   1.399514e+02  -5.264529e+01
   9.285896e+01   6.482861e+01
   1.230448e+01   9.884664e+01
  -1.105869e+02   1.143868e+02
  -1.472845e+02   1.726353e+01
  -4.375419e+01  -4.299771e+01
  -6.263192e+01  -9.353729e+01
   3.206915e+00  -1.074371e+02
  -1.051884e+01  -6.985007e+01
   2.223787e+01  -6.025207e+01
   3.733101e+01  -4.089637e+01
   8.208004e+01   6.393898e+00
   7.775324e+01   9.723081e+01
   4.017869e+01   9.622503e+01
  -8.804848e+01   3.616147e+01
  -7.157536e+01  -5.434351e+01
   5.388093e+00  -9.249094e+01
   5.978541e+01  -4.265077e+01
   1.084448e+02   4.437908e+01
   8.152230e+01   8.181660e+01
   1.306221e+01   1.411739e+02
  -1.731962e+01   4.017405e+01
  -3.234330e+01   6.709688e+01
  -7.026713e+01   5.986087e+01
  -7.414864e+01   2.222998e+01
  -1.068287e+02   8.525597e+00
  -1.741196e+02  -5.631573e+01
  -9.996693e+01  -1.756328e+02
   4.398503e+01  -1.869028e+02
   1.818128e+02  -1.656878e+02
   1.381023e+02  -4.736248e+01
   3.670771e+01   3.231062e+01
  -1.704264e-01   1.131294e+02
   3.573707e+01   5.371827e+01
   1.748451e+01   2.997005e+01
   3.964708e+01   2.134307e+01
   3.094205e+01   1.374912e+01
  -1.823477e+01   2.167955e+01
  -5.470484e+01  -2.309972e+01
   1.839318e+01  -7.691899e+01
   7.490224e+00  -2.403364e+01
   6.486500e+01   1.839568e+01
   5.549579e+01   9.044176e+01
  -6.813106e+01   1.519521e+02
  -7.120447e+01   7.675882e+01
  -1.159950e+02  -6.916393e+00
  -5.523311e+01  -6.498420e+01
  -9.100334e+00  -9.266922e+01
   4.405345e+01  -4.445384e+01
   1.937584e+01   1.600366e+01
  -1.670569e+01  -2.312508e+01
  -2.535356e+01  -1.136484e+01
  -2.669910e+01  -2.483376e+01
   5.241368e+01  -1.603642e+01
   5.609774e+01   1.647973e+01
  -1.086564e+01   1.443211e+01
  -4.408388e+01   3.054094e+00
  -2.457778e+00  -1.721385e+00
   6.143133e+01  -2.989322e+01
   9.450698e+01   9.554149e+00
   9.660958e+01   1.121670e+02
   8.834938e-02   1.066096e+02
  -9.153511e+01   1.098564e+02
  -7.653467e+01   5.138741e+01
  -3.044197e+01  -4.575456e+01
   1.430925e+01  -4.236221e+01
  -1.314601e+00  -1.055683e+01
  -5.812088e+01   3.905044e+01
  -3.224423e+01  -3.951892e+00
  -3.970471e+01  -2.974021e+01
   1.732608e+00  -6.156748e+01
   6.350812e+01  -2.762805e+01
   2.677188e+01  -1.121272e+01
  -1.638261e+01   2.187973e+01
  -3.180826e+01  -2.027319e+01
  -3.146240e+01  -2.498248e+01
   2.224305e+01  -4.082774e+01
   5.729230e+01   2.151907e+01
   5.722324e+01   5.486333e+01
   1.015054e+01   7.354454e+01
  -6.765176e+01   4.542912e+01
  -5.843334e+01  -3.146544e+01
  -1.131927e+01  -1.381584e+01
   3.755130e+01  -6.753083e+01
   2.417558e+01  -8.262831e+00
  -2.491984e+01  -9.033716e+00
  -4.403319e+01  -1.349825e+01
   1.940245e+01   9.099314e+00
   2.182231e+01   5.246275e+00
   8.661983e+00   3.842290e+01
  -2.682718e+01   7.694516e+01
  -6.578255e+01   6.248025e+01
  -8.224085e+01  -2.695086e+01
  -4.147563e+01  -7.109391e+01
  -2.593666e+01  -7.625757e+01
   3.223818e+01  -5.499518e+01
   5.730151e+01  -7.959641e+00
   3.207843e+00   2.192376e+01
   3.896798e+01  -7.172001e+00
   2.881812e+01  -1.575635e+01
   4.819433e+01   2.500214e+01
   8.485489e+00   3.402042e+01
  -4.703256e+01   3.083031e+01
  -6.790609e+01  -2.740759e+00
  -3.192634e+01  -2.592403e+01
   4.302340e+00  -3.163135e+01
   3.674553e+01  -1.020363e+01
   6.853629e+01   4.075562e+01
  -3.220564e+00   1.424456e+01
  -2.054794e+00   3.635339e+01
  -1.249060e+02  -8.256962e+00
  -7.476977e+01  -5.047717e+01
   1.266975e+01  -5.452984e+01
  -8.135441e+00  -1.376682e+01
   4.164061e+01  -2.056984e+01
   2.393545e+01  -5.083018e+01
  -4.628758e+01  -4.813621e+01
   2.527177e+01  -9.472818e+00
   5.984649e+01  -1.882062e+01
   3.127713e+01   5.929135e+01
   2.955072e+01   9.424112e+01
  -6.631617e+01   2.916917e+01
  -1.774728e+01  -1.793605e+01
  -6.386861e+01  -8.216136e+00
   6.036858e+00  -2.623703e+01
   5.235585e+00   1.139980e+01
  -1.451930e+00   1.164885e+01
   1.663526e+01   9.141462e+00
  -1.798335e+01  -4.444118e+00
   1.135439e+01  -2.324318e+01
   4.079338e+01  -1.087695e+00
  -1.255674e+01   3.115736e+01
  -2.069167e+01   5.209399e+01
  -1.147735e+02  -1.363097e+01
  -1.639256e+01  -7.384736e+01
   2.072845e+01   7.599525e+00
   3.048668e+01  -7.489114e+01
   1.231459e+02   4.674564e+00
   1.048331e+01   5.788802e+01
   2.326086e+01   4.826295e+01
   1.056229e+00  -6.083329e+00
   1.019023e+01  -1.792174e+01
   1.112263e+01  -4.986666e+01
   2.191680e+01   6.636342e+01
  -7.156965e+00   1.582042e+01
   1.419106e+01   2.309428e+01
  -2.008200e+01  -1.977406e+01
   2.950521e+01   3.426525e+01
  -2.402428e+01   1.976979e+01
   5.967364e+01   3.634270e+01
  -7.649342e+01   8.826562e+01
  -7.417326e+01  -2.923861e+01
  -2.037597e+01  -1.225008e+01
  -2.409349e+01  -7.824428e+01
   5.247123e+01  -2.208717e+01
   2.836497e+01  -1.441987e+01
  -5.826227e+01  -1.999833e+01
  -6.316171e+00  -1.574970e+01
   1.411671e+01  -6.749982e+01
   4.319045e+01  -6.634552e+01
   8.345012e+01  -1.362234e+01
   6.143452e+01   9.103736e+00
  -3.120917e+00   5.217106e+01
  -2.013881e+01  -2.975373e+00
  -9.442044e+00   1.079522e+01
   4.322829e+01   1.650825e+01
   3.424226e+01   9.872221e+00
   4.540299e+01   7.600305e+01
  -2.946764e+01   1.006873e+01
  -7.690297e+01   3.056958e+01
  -6.223759e+01  -3.722479e+01
   2.126770e+01  -4.112377e+01
  -6.029228e+00  -6.940645e+01
  -5.026503e+00   1.400148e+01
  -9.171167e+00   6.066504e+01
   2.219423e+01   3.733208e+01
  -2.548002e+01  -3.415620e+00
  -1.328000e+00  -1.455541e+01
  -9.037622e+00  -2.533723e+01
  -1.878859e+01   2.291797e+01
  -3.644890e+01  -7.602516e+00
  -4.604447e+00  -6.146596e+00
  -2.769219e+01  -6.879893e+00
   1.190820e+01  -1.039405e+01
   3.191028e+01   4.308473e+01
   3.563672e+01   4.423516e+01
  -1.290507e+00  -3.033862e+01
   1.858587e+01   2.111807e+01
  -2.011317e+01  -2.578842e+01
  -1.119122e+01  -2.927872e+01
   1.440353e+01  -4.785427e+01
  -1.267538e+01  -1.072138e+01
  -1.339653e+01   8.705309e+00
  -3.154778e+01   3.680910e+01
   1.631430e+01   2.205104e+01
  -2.597362e+01  -1.381735e+01
   1.731716e+01   4.167359e+00
  -5.398275e+01   7.184269e+01
  -7.479797e+01   3.770826e+01
  -7.642498e+01  -5.287406e+01
  -5.530126e+00  -4.132485e+01
   2.923826e+01  -3.073361e+01
   3.109623e+01   1.023569e+01
   3.115539e+01   1.802161e+01
   4.740045e+00   1.446133e+01
   1.256925e+01   6.846133e-01
  -6.318928e+00  -3.652955e-01
   2.567512e+00   1.810145e+01
  -8.327922e+00   4.759327e+01
  -1.297471e+01  -8.370260e+00
  -1.076211e+01  -2.535438e+01
  -8.005644e+00  -2.666800e+01
   7.537314e-01  -1.597789e+01
  -2.638151e+01  -3.829306e+00
   2.435901e+01   1.092151e+01
   1.115661e+01  -2.333228e+01
  -8.482112e+00   1.712843e+01
  -5.683016e+01   3.811847e+01
  -2.088447e+01  -1.608275e+01
   2.190592e+01   4.776789e+01
   1.459615e+01   5.577101e+00
  -2.756251e+01  -9.190298e+00
  -2.755130e+01   1.297656e+01
  -2.443157e+01  -1.502574e+01
   1.343780e+01  -3.786090e+01
   7.039736e+01  -1.975388e+01
   2.531807e+00   3.717642e+01
  -1.759225e+01   1.963152e+00
  -3.904057e+01  -6.965236e+00
  -1.745375e+01   8.649316e+00
  -3.454971e+01  -9.726076e+00
   2.050216e+00  -4.291313e+01
   3.838123e+01  -1.876164e+01
  -8.005325e-01   8.558219e+00
   5.775553e+00   1.185271e+01
   9.939223e-01  -4.030265e+01
  -1.384543e+01   4.515109e+01
  -7.364043e+00   2.953944e+01
  -1.337381e+01   1.370921e+01
  -9.410642e+00  -2.201413e+00
   3.657342e+01  -4.849194e+01
  -3.785852e+00   2.537357e+01
   2.787416e+01  -3.717057e-01
   4.687852e+01   3.485038e+01
  -3.755246e+00   2.280648e+01
   2.378046e+01   3.809057e+00
  -3.024279e+01  -2.059259e+01
   4.892704e+00   4.041549e-01
   2.172044e+01   2.906611e+01
   1.014522e+01  -6.743717e+00
  -8.917087e-01   1.469653e+01
  -8.722927e+01   1.390214e+01
  -3.077872e+01   4.562682e+01
   1.532864e+01   1.312534e+01
   4.000998e+00  -3.652194e+01
   1.339064e+01  -4.353439e+01
  -2.398344e+01   1.845496e+01
  -3.011088e+01   7.077115e+00
