
 $NMID
 id='ANONYMOUS ', fmtdat='(2E16.6)'
 volume=1.0
 tramp=1.0
 $END
  -6.488429e+01  -1.788920e+02
   2.784392e+02   8.836007e+01
   1.331972e+02   1.950349e+02
   1.263833e+02   1.472463e+02
  -8.907411e+01   1.290596e+02
  -6.155857e+01   1.348272e+02
   4.151897e+01  -3.494814e+01
   5.204097e+01  -9.939457e+01
  -3.382144e+01   8.703456e+00
  -8.404585e+01   1.376497e+02
  -6.443038e+00   1.654231e+01
  -2.826600e+01  -1.874022e+01
  -7.497248e+01   2.656493e+01
  -9.194616e+00   5.416692e+00
  -3.094228e+01  -5.427278e+01
   1.848430e+01  -2.784845e+01
  -1.495303e+00  -2.510975e+01
  -7.189510e+00   9.153669e+00
  -4.003765e+00  -6.995892e-01
   2.169552e+01   2.275620e+01
   2.502283e+01   1.795082e+00
   2.958614e+00   5.279453e+00
   2.960117e+01   2.020730e+01
  -3.192648e+01   4.622860e+01
   2.413698e+01  -8.337853e+00
   2.314895e+01  -8.023397e+00
  -7.138917e+00  -1.334844e+01
   6.744777e+01   3.601674e+01
  -8.951394e+00  -5.509059e+01
   3.399664e+01   5.535543e+01
   2.667793e+01   2.378012e+01
   1.161027e+01   1.348293e+01
  -2.042583e+00  -3.437370e+01
  -4.322548e+00   3.248994e+01
   7.630427e+00   1.261109e+01
   1.431240e+01   9.782929e+00
  -9.276170e+01  -2.578821e+01
  -1.065182e+01  -1.958749e+01
   5.172036e+00   1.539249e-01
  -4.171214e+00  -1.695791e+01
   6.845811e+01   1.745748e+00
  -4.423522e+01  -2.531814e+01
  -5.487746e+01   5.305662e+01
   5.532058e+01  -2.368041e+00
  -1.875670e+01  -9.334637e-01
   3.851061e+01  -2.410069e+01
  -1.893141e+01  -2.484788e+01
   2.733310e+01   2.036726e+01
   1.564131e+01   3.580940e+01
   2.276550e+01   4.574037e+01
  -5.470407e+01   3.045689e+00
  -7.807463e+01  -7.067716e+01
  -2.408455e+01   1.458729e+01
   3.387960e+01   3.277022e+01
   5.234229e+01   2.006546e+01
   1.377795e+01  -3.099359e+01
  -1.593467e+01   4.683265e+01
   6.546104e+00   3.927419e+01
   3.990286e+01  -6.232679e+00
  -2.116832e+01   1.604656e+01
   3.592189e+01  -2.837773e+01
   5.767582e+00   9.003294e+00
  -1.630638e+01   1.656753e+01
  -1.246347e+01   1.286822e+01
  -1.790596e+01  -5.893526e+00
  -2.498113e+01  -2.548701e+01
   1.410875e+01  -4.293374e+01
  -5.050021e+00  -7.807593e+00
  -1.315257e+01   1.363276e+01
  -3.152931e+01   3.579689e+00
  -5.573370e+01  -8.003521e+00
  -7.785198e+01   7.717874e+00
  -4.245212e+01  -2.264159e+01
  -1.999372e+00   4.357292e+00
  -2.299850e+01   2.498078e+01
   2.158022e+01   1.622031e+00
  -6.603553e+00   3.708117e+00
  -3.365699e+01  -7.102388e+00
   2.118715e+01   2.026333e+01
  -7.249091e+00   2.363385e+01
   1.765166e+01  -1.643896e+01
  -1.236902e+01  -1.882561e+01
   1.897428e+01  -9.805381e+00
   1.689114e+01  -5.322725e+01
   1.026756e+01   1.149917e+01
  -7.689059e+00  -9.578364e+00
   6.366576e+00   6.746491e+00
   5.007057e+01   2.228912e+01
   1.834223e+01   1.366037e+01
  -9.103502e+00   1.314942e+01
  -4.455227e+01   2.317314e+01
   8.278037e+00  -8.043995e-01
  -3.536089e+01  -1.347494e+01
   7.402190e+00  -7.112919e+00
   1.037822e+00   1.769303e+01
  -3.239403e+01  -1.589273e+01
  -1.743289e+01   3.888688e+01
  -1.783803e+01  -1.874972e+01
  -5.824756e+00   3.853266e+01
   1.039080e+01   3.698095e+01
   3.964766e+01  -1.714833e+01
  -1.597114e+01  -2.398438e+00
   1.875777e+01  -4.643067e+01
   2.965439e+01  -3.130383e+01
  -2.782229e+01   1.187746e+01
  -1.241632e+01  -4.046935e+01
   8.241459e+00  -3.945227e+00
   1.109146e+01   3.677654e+01
   1.576593e+01   1.639923e+01
  -2.716915e+00   1.350762e+01
  -2.287944e+01   4.272599e+01
   1.213495e+00   3.919691e+00
   5.964069e+00   1.132966e+01
   8.366052e+00  -5.588413e+00
   4.209319e+00   5.111710e+00
  -8.676140e+00  -2.922461e+01
  -6.508372e+00  -2.172778e+01
  -2.486958e+01   2.614318e+01
   2.153218e+01   1.094633e+01
   6.924165e+00  -1.336152e+01
  -3.141361e+01  -1.253305e+01
  -8.911137e-01  -6.972521e-01
  -7.602095e+00  -5.417746e+01
  -3.775070e+01   3.844306e+00
   1.287925e+01  -2.059317e+01
  -3.000358e+01  -6.995673e+01
   3.470443e+01   4.087270e+01
   2.743029e+01   1.403570e+01
   2.400934e+01   8.891745e+00
  -1.215587e+01  -2.859883e+01
   1.254716e+01   1.721032e+01
  -1.539988e+01  -5.442562e-01
   9.141735e+00   2.085885e+01
  -2.255206e+01  -1.818198e+01
  -1.181094e+01   2.046810e+01
   1.938282e+01  -1.842131e+01
  -1.518734e+01  -6.321451e+00
   9.491723e+00  -2.317894e+01
   1.749126e+00  -1.627732e+01
   3.882685e+01   2.210051e+00
  -1.965212e+01  -1.625569e+01
  -1.790964e+01   1.891380e+01
   2.731576e+01  -1.389250e+01
  -5.599057e+01   8.636445e+00
  -6.960011e+00   1.673290e+01
  -4.854399e+01  -5.526931e+01
  -1.379284e+01  -3.006943e+01
   1.308382e+01   1.265596e+01
   3.003197e+01   1.366954e+01
   4.053011e+01  -2.673491e+01
   2.738611e+01  -5.943561e+00
   1.250954e+01   3.356495e+01
  -1.813967e+01   4.999279e+00
   3.125927e+01  -5.302755e+01
   6.936102e+01  -3.356670e+01
   3.370115e+01   8.027299e+00
  -3.013171e+00   1.288674e+01
  -2.422856e+01  -1.665136e+01
   9.330330e-01  -4.503538e+00
  -5.856410e+00   4.233614e+01
   5.652257e+00  -3.576574e+00
  -4.757801e+00  -1.650520e+01
  -1.381836e+01   2.893216e+01
  -3.324127e+00   8.450109e+00
   5.042231e-01  -1.058494e+01
   2.946125e+01   2.291439e+01
   1.964372e+01  -4.399855e+01
  -1.085243e+01  -1.656087e+01
  -2.060097e+01  -2.511623e+01
  -3.098586e+01  -2.397709e+01
   6.034320e+00   2.003541e+01
   4.902304e+01   3.949602e+01
   3.406602e+01   2.546000e+01
  -4.928128e+00   3.643685e+01
  -5.312058e+00   3.175205e+01
  -6.433939e+00  -9.944634e+00
   4.709506e+00   1.674496e+01
  -1.590270e+01   8.979717e+00
  -2.814584e-01  -1.437402e+00
   2.046219e+01   5.862067e+00
   4.036672e+01   3.308699e+00
  -2.694310e+01   1.556085e+01
  -2.424281e+01   1.825812e+01
   9.251952e+00   6.740085e+00
  -5.194905e+01  -1.870171e+01
  -1.493381e+01  -3.308274e+01
  -2.188219e+00  -2.463094e+01
  -2.393838e+00  -1.968114e+01
  -2.437629e+01  -8.548107e-02
   3.137654e+01  -3.531085e+01
   1.595906e+01  -1.661107e+01
  -2.894450e+01  -3.486013e+01
   3.946791e+00  -8.559407e+00
   8.030166e+00   7.868652e+00
  -1.990267e+01   2.007803e+01
  -1.200202e+00   2.690949e+00
  -9.999138e+00   8.848531e+00
  -3.605772e+01   3.060238e+01
   3.243786e+01  -9.904697e+00
   1.699800e+01   1.040810e+01
  -4.089621e+01  -7.656262e-01
   2.611927e+01  -1.127841e+01
   3.062619e+01   4.001242e+01
  -1.624272e+01   5.109317e+01
  -6.260041e+00   2.887847e+01
  -4.501378e+00   3.478784e+01
  -1.751915e+01  -1.718960e+01
  -1.333776e+01   7.207461e+00
  -3.000743e+01  -8.974420e+00
   1.896460e+01  -3.258519e+01
   3.131975e+01  -4.939300e+00
   4.388196e+01  -4.282121e+01
   6.771763e+01  -1.791839e+01
   2.693218e+01   3.267172e+01
  -9.720663e-01   6.376337e+00
  -6.047118e-01   2.531253e+00
   2.487975e+00  -1.070951e+01
   1.164812e+01   1.063569e+01
   1.906803e+01   4.466260e+00
   3.448277e+01   9.103614e+00
   2.413388e+00  -6.828604e+00
  -9.115191e+00   2.718872e+01
  -3.231266e+01   4.095313e+01
   1.165965e+01  -3.403792e+01
  -1.735568e+01   3.888932e+00
  -9.981767e+00   5.143144e+00
   3.060875e-01  -1.624144e+01
  -4.265906e+00  -3.592476e+01
  -3.036616e+01   8.014008e+00
  -1.907987e+00  -2.998199e+01
   2.787189e+01   1.575435e+01
   3.416418e+00   7.808758e+00
   3.866720e+01   8.696212e+00
  -2.020479e+01   1.005134e+00
   1.234248e+01  -5.041028e+00
  -3.888519e+01  -2.921182e+01
  -1.007572e+01  -1.850012e+01
   1.634989e+01   2.078039e+01
   3.014982e+01  -5.685120e+00
  -2.433844e-01   1.977938e+01
  -2.342227e+01   6.692608e-01
  -2.627944e+01   2.888653e+01
   2.428409e+01   1.689643e+01
   4.940174e+00  -3.237642e+01
   1.329257e+01   2.355049e+01
  -8.503881e+00   1.392617e+01
   1.574927e+01  -5.002459e+00
  -1.572542e+01  -3.553365e+01
  -1.455290e+01   2.937727e+01
  -4.828384e+01  -2.459163e+01
   4.600623e+00  -2.089158e+01
   3.431733e+01  -2.972379e+01
  -2.322828e+01   4.102076e+00
   2.311083e+01   3.395154e+00
   3.938677e+01   4.259105e+00
  -1.436382e+01  -1.660095e+01
   2.585802e+01  -2.774659e+01
  -2.548187e+01   4.128409e+01
  -7.895659e-01   5.351613e+00
   8.616835e+00   1.621419e+01
   2.059185e+01  -8.755584e+00
  -1.778268e+01   4.901942e+01
   7.783395e+00  -2.274298e+01
  -3.869948e+00  -5.377609e+00
  -4.822104e+01   5.226245e+00
  -7.523430e+00   9.386414e+00
   1.418843e+00  -1.389093e+01
   1.366367e+01  -1.672950e+00
  -2.130663e+01  -1.741565e+01
  -7.081866e-01   1.957776e+01
  -5.160158e+00   6.343137e+00
  -2.798307e+01   1.595679e+01
  -3.662162e+00   1.816964e+01
  -3.643484e+01  -2.991563e+01
  -1.752939e+01  -1.610788e+01
   2.086344e+01   3.385461e+01
  -4.859280e+00   1.314093e+01
   1.149666e+01   3.172497e+01
  -5.500778e+00   2.200708e+01
   1.213270e+01   1.058229e+01
   3.586819e+00   7.422420e-01
  -2.156524e+01  -7.557775e+00
  -3.181491e+01   3.093220e+01
  -1.390179e+01   7.371237e+01
  -4.358855e+01   1.918300e+01
  -8.040573e+00  -1.928399e+01
   2.827345e+01  -5.012958e+00
  -4.455387e+01   4.138907e+01
   1.695887e+01  -6.192953e+00
  -2.176327e+01   1.538424e+01
   1.143757e+01   2.652051e+00
   6.664372e+00  -5.462000e+00
  -6.315123e+00  -2.944172e+01
   1.254342e+01   2.570819e+01
  -9.381322e+00   7.910846e+00
   3.304911e+01   1.216383e+01
  -4.601824e+00  -3.887530e+01
  -2.064509e+01  -1.421265e+01
  -1.577441e+01   1.139074e+01
  -7.310893e+00   6.015213e-01
   1.536471e+01   4.043153e+01
  -4.481735e+00   1.173547e+01
  -7.496710e+00   5.900884e+00
  -3.851865e+01  -6.258712e+00
  -2.953585e+01  -2.391912e+01
  -2.281552e+01  -3.062942e+01
   2.937665e+01   5.589371e+01
  -5.035651e+01   2.580328e+00
  -3.058447e-01   2.136474e+01
  -2.609216e+00   2.286890e+00
  -1.584480e+01   9.956949e+00
  -2.133233e+01   2.807819e+01
   1.878050e+01   2.536319e+01
  -2.227814e+01  -1.755533e+01
   3.398785e+01  -2.553983e+01
  -2.432182e+01   4.607659e+01
  -1.116471e+01  -1.033597e+01
   2.574424e+01  -1.558249e+01
  -1.252069e+01  -5.077314e+01
   2.704560e+01   4.124318e+00
