
 $NMID
 id='ANONYMOUS ', fmtdat='(2E16.6)'
 volume=1.0
 tramp=1.0
 $END
  -2.248984e+03   1.779606e+01
  -1.197843e+03  -1.165187e+03
   8.861732e+01  -1.499356e+03
   8.821432e+02  -7.071821e+02
   5.579312e+02  -7.476152e+01
  -4.048549e+01   2.143827e+02
  -3.156823e+02  -1.526926e+02
   4.672658e+01  -4.479270e+02
   4.024650e+02  -3.676871e+02
   4.098414e+02  -2.147304e+01
   2.448579e+02   3.835293e+02
  -1.673512e+01   4.109710e+02
  -2.112128e+02   9.618741e+01
  -1.693873e+02  -2.880165e+02
   5.799917e+01  -3.561520e+02
   3.370999e+02  -1.897389e+01
   1.645220e+02   4.025473e+02
  -8.902336e+01   3.998911e+02
  -2.817216e+02   1.552567e+02
  -3.347487e+02  -1.376780e+02
  -1.114654e+02  -2.797217e+02
   7.032784e+01  -1.581660e+02
   3.824852e+01  -7.389063e+01
  -7.687089e+01  -3.493203e+01
  -1.636666e+02  -1.472439e+02
  -1.296786e+01  -2.248446e+02
   3.071038e+02  -1.344037e+02
   4.604787e+02   1.386379e+02
   1.849681e+02   2.111113e+02
  -2.362987e+02   1.448468e+02
  -4.035879e+02  -8.503816e+01
  -1.372020e+02  -2.693579e+02
   2.099550e+02  -2.486846e+02
   3.437674e+02  -9.895403e+01
   2.261691e+02   1.298204e+02
   6.778199e+01   2.637074e+02
  -2.100501e+01   1.370760e+02
   1.297872e+01  -1.815965e+01
   1.188739e+02  -1.069293e+02
   1.451755e+02   7.141458e+01
  -5.519196e+01   3.856133e+02
  -1.982476e+02   2.951100e+02
  -2.354870e+02  -4.211231e+01
  -4.956109e+01  -2.070392e+02
   1.490808e+02  -8.788381e+01
   1.243442e+02   2.012279e+02
  -7.309128e+01   2.539235e+02
  -3.510394e+02   6.484849e+01
  -4.126504e+02  -2.638787e+02
  -6.688374e+01  -3.170534e+02
   2.327363e+02  -1.697181e+02
   3.594555e+02   3.161404e+01
   2.631851e+02   1.782321e+02
  -1.178448e+01   1.831659e+02
  -1.587867e+02   4.870869e+01
  -1.467754e+02  -3.344914e+01
  -6.791143e+00  -4.335533e+01
  -6.322070e+00   1.418874e+01
  -1.242703e+02   8.877490e+01
  -1.908700e+02  -4.799664e+01
  -8.181893e+01  -1.705591e+02
   1.403525e+02  -1.496343e+02
   2.341326e+02  -6.669038e+01
   1.538858e+02   5.509833e+01
  -3.863030e+01   1.751860e+02
  -2.205846e+02   2.193900e+02
  -2.833801e+02   1.404079e+02
  -1.644569e+02  -1.133265e+02
  -3.710046e+00  -2.984616e+02
   1.173439e+02  -2.403605e+02
   5.042531e+01  -1.005156e+02
   2.800313e+01  -8.857145e+01
   3.621724e+01  -6.637850e+01
   2.066200e+02  -4.334724e+01
   1.612238e+02   6.104456e+01
   8.956877e+01   1.734337e+02
  -8.587628e+01   1.577001e+02
  -1.441840e+02  -6.474604e+01
  -1.233619e+02  -1.320329e+02
   2.054669e+01  -1.918125e+02
   1.581607e+02  -6.711304e+01
   1.853558e+02   6.892349e+01
   1.401043e+02   2.211463e+02
  -2.775297e+01   1.735966e+02
  -1.135944e+02   8.993421e+01
  -8.312434e+01   5.545974e+01
  -9.528226e+01   1.609881e+01
  -2.330128e+02   2.312823e+01
  -2.940910e+02  -1.022668e+02
  -2.849691e+02  -2.058316e+02
  -7.093572e+00  -2.949383e+02
   2.077339e+02  -2.242927e+02
   3.479917e+02  -1.231031e+02
   2.324353e+02   8.906718e+01
   2.456202e+01   2.045030e+02
  -1.051583e+02   1.684913e+02
   1.545876e+01   6.390253e+01
   7.855002e+01  -5.651069e+01
   1.357304e+02   4.133077e+01
   1.595063e+01   1.238255e+02
  -9.527319e+01   1.080131e+02
  -7.363324e+01  -1.477058e+01
   1.521395e+01  -1.026991e+02
   1.088497e+02   8.125769e+00
   9.452260e+01   2.149459e+02
  -3.248873e+01   2.674760e+02
  -1.434630e+02   1.639995e+02
  -2.617878e+02  -7.175083e+00
  -2.151399e+02  -1.500936e+02
  -5.145078e+01  -1.816731e+02
   6.908795e+01  -1.250486e+02
   1.129151e+02  -2.425023e+01
   2.392711e+01   1.537037e+01
  -1.808251e+01  -3.514041e+01
   2.535810e+01  -1.043271e+02
   7.082015e+01  -3.020056e+00
   1.304683e+02  -9.412184e+00
   3.880147e+01   2.439119e+00
  -3.432315e+01  -3.607290e+01
  -1.318424e+01  -5.593011e+01
   1.020653e+02  -6.924724e+01
   1.798861e+02   1.627674e+01
   1.608781e+02   1.518739e+02
   1.179223e+01   1.634434e+02
  -1.554148e+02   1.620175e+02
  -1.958642e+02   5.610462e+01
  -1.185919e+02  -4.003505e+01
   2.864886e+01  -4.665437e+01
   5.777700e+01   3.175930e+01
   1.574294e+00   4.593092e+01
  -1.588400e+02   1.970772e+01
  -1.588593e+02  -6.365867e+01
  -4.767314e+01  -1.543735e+02
   6.760946e+00  -1.363938e+02
   1.061789e+02   1.515346e+01
   2.966467e+01   3.034788e+01
  -4.349175e+01  -3.754946e+01
  -1.822202e+01  -9.503185e+01
   9.309339e+01  -1.059184e+01
   1.488368e+02  -4.680697e+01
   1.577848e+02   1.025921e+02
  -1.905752e+01   1.441558e+02
  -1.291544e+02   9.962170e+01
  -1.332928e+02  -1.330535e+00
  -2.831605e+01  -6.449648e+01
   1.723239e+01  -9.883917e+01
   5.015733e+01  -4.101360e+01
   2.091155e+01   4.786668e+01
  -3.036606e+01  -2.986305e+01
  -3.906753e+00  -1.268677e+01
   7.544500e+01   2.467480e+01
   4.205891e+01   5.943117e+01
   7.341991e-01   9.402758e+01
  -8.637058e+01   7.778711e+01
  -1.763482e+02   4.921281e+01
  -1.444647e+02  -1.204701e+02
  -5.493531e+01  -1.459152e+02
   7.756028e+01  -1.331998e+02
   5.495827e+01  -3.486018e+01
   8.055052e+01   3.996267e+01
   1.953504e+01   3.177232e+01
   1.552789e+01  -2.208329e+01
   3.982615e+01   8.628080e+00
   3.460441e+01   1.984636e+01
  -3.902305e+01   2.065690e+01
  -7.799317e+01   3.637455e+01
  -5.051235e+01  -2.147277e+01
   3.110488e+01  -9.606951e+01
   7.609288e+01  -6.497793e+01
   1.474916e+02   4.580913e+01
   3.073831e+01   1.453610e+02
  -7.156082e+01   1.319243e+02
  -2.291260e+02   4.017342e+01
  -1.872917e+02  -8.842718e+01
  -2.870360e+01  -8.360974e+01
   3.074447e+01  -1.349505e+02
   6.774415e+01  -7.998306e+01
   5.693325e+01  -1.001941e+02
   3.959484e+01  -5.983522e+01
   7.441299e+01  -5.832423e+01
   9.238572e+01   3.685837e+01
   8.551708e+01   1.464251e+02
   3.944091e+01   1.797837e+02
  -1.095178e+02   1.299492e+02
  -1.559968e+02  -1.212694e+01
  -3.244931e+01  -1.046207e+02
  -1.126133e+01  -1.331527e+02
   7.855572e+01  -5.049013e+01
   2.313171e+01  -3.714388e+01
   6.640847e+00   2.963653e+01
  -5.375370e+01  -2.039821e+01
   3.730039e+01  -1.441709e+00
   7.586923e+01   9.326746e+00
   6.128778e+00   3.367268e+01
  -5.474944e+01   4.113034e+01
  -9.600559e+01   3.457739e+01
  -9.502468e+01  -5.543336e+01
   3.195556e+01  -1.172033e+02
   1.469987e+02  -7.118219e+01
   1.076131e+02   1.519272e+01
   2.178976e+01   4.333327e+01
  -1.889658e+01   8.709832e+00
  -7.693159e+01   1.974736e+01
   2.166844e+01  -4.579583e+01
   2.552238e+01  -5.199866e+01
   6.001302e+01  -5.038596e+01
   5.795519e+01   1.650180e+01
   4.545433e+01   6.632385e+01
   3.593776e+01   3.350768e+01
   3.202989e+01   5.422388e+00
   5.572406e+01   3.526969e+01
  -5.906959e+01   1.227757e+02
  -7.331867e+01   1.094852e+02
  -1.138777e+02   2.038451e+01
  -1.031106e+02  -8.359129e+01
   3.874565e+01  -8.949283e+01
   6.148771e+01  -2.794903e+01
   5.528840e+01   1.380828e+01
  -3.091868e+01  -4.502431e+01
  -9.668278e+01  -5.031806e+01
  -1.881881e+01  -2.395875e+01
   9.391277e+01  -8.244973e+01
   1.016471e+02  -1.054608e+01
   1.103935e+02   3.525346e+01
   1.594677e+01   6.195742e+01
  -8.519561e+01   2.996141e+01
   2.683015e+00   4.805387e+00
   1.932282e+01   3.827038e+01
  -1.021565e+01   3.275945e+01
   4.108464e+01   6.500373e+01
  -2.567498e+01   7.340939e+01
  -6.773183e+01   4.561831e+01
  -6.561571e+01  -2.333425e+01
   4.092806e+00  -1.259960e+02
   4.318017e+01  -5.975328e+01
   2.883868e+01  -1.273885e+01
   3.692837e+01   1.418506e+02
  -3.555519e+01   4.129431e+01
  -7.044889e+00   3.948490e+01
  -3.919208e+01  -2.892840e+01
  -1.227793e+01   2.541894e+00
  -1.979904e+00   1.061601e+01
  -5.095336e+01  -7.184105e+00
  -3.418734e+01  -5.819108e+01
   1.985446e+01  -4.617059e+01
   3.262608e+01  -3.920747e+01
   6.535868e+01   7.240531e+01
   7.079051e+01   2.362792e+01
   3.742264e+01   9.357931e+01
  -6.750056e+01   3.181683e+01
  -1.094352e+02   2.437084e+01
  -3.262484e+01   8.095869e+00
   1.923489e+01   2.476996e+01
  -2.132523e+01  -1.970206e+01
  -6.322752e+01   2.434901e+01
   2.301043e+01  -2.103397e+01
   7.195759e+01   5.590401e+01
   6.303237e+01  -2.805869e+00
   1.514755e+01   8.851508e+01
  -1.044757e+02   6.248248e+01
  -1.305065e+02   3.836737e+01
  -9.524435e+01  -7.038134e+01
  -2.689746e+01  -4.787200e+01
   6.999482e+01  -7.410755e+01
   7.101159e+01  -5.959339e+01
   7.593628e+01  -2.176065e+01
  -8.365912e+00   9.836647e+00
   2.213548e+00   1.595710e+01
   1.649281e+01   3.303530e+01
   1.068676e+01   4.486836e+01
  -5.447626e-01   7.666825e+01
  -1.176922e+01   3.083269e+01
  -8.825332e+01  -2.242797e+01
  -6.865272e+01  -9.081161e+01
  -1.621648e+01  -8.718979e+01
   8.689338e+01  -2.419072e+01
   6.308993e+01   4.036998e+01
  -1.008335e+01   4.790590e+01
  -4.284056e+01   2.665002e+01
  -5.807689e+01   4.051160e+00
  -1.728369e+01  -6.061275e+01
   6.130103e+01  -3.950303e+01
   2.842120e+01   1.361922e+01
  -3.367732e-01  -4.873683e-01
  -4.752029e+01  -2.323362e+01
  -3.911920e+01  -3.269418e+00
   4.720040e+01  -6.764607e+01
   1.006364e+02   8.751302e+00
   1.474409e+01   1.661420e+01
   3.107175e+00   6.200156e+01
  -6.490228e+01   4.625405e+01
  -5.520835e+01   2.940593e+00
  -8.894072e+00  -1.427111e+01
  -1.236431e+00  -2.723690e+01
   5.439673e+01  -1.329941e+01
   5.110515e+01   3.857767e+00
  -3.435559e+01  -7.185220e+00
  -6.227086e+01  -2.623165e+01
  -2.858984e+01  -2.212520e+01
  -4.542521e+00  -1.487269e+01
   2.368877e+00  -1.267965e+01
   1.468942e+01  -4.585125e+00
  -2.897698e+00  -1.225805e+01
   5.316819e+00  -1.679304e+01
   3.017691e+01  -2.554138e+01
  -8.668566e+00   1.435628e+01
   2.045675e+01  -1.808626e+01
   7.881170e+00   1.101507e+00
  -4.963816e+01  -4.466585e+01
  -1.634890e+01  -5.048646e+01
  -4.484974e+01  -4.185867e+01
   4.072574e+01  -1.117339e+01
   5.315762e+01   2.338443e+01
   6.428911e+00   3.952428e+01
  -3.969443e+01   4.718474e+00
   9.210987e+00   1.189443e+01
   1.845260e+01   1.081220e+01
  -2.001716e+01  -4.298588e+00
  -2.425287e+01  -2.322723e+01
  -6.288535e+01  -2.116622e+01
