
 $NMID
 id='ANONYMOUS ', fmtdat='(2E16.6)'
 volume=1.0
 tramp=1.0
 $END
   2.688802e+03  -4.141053e+02
   2.150218e+03   1.204248e+03
   2.132577e+02   1.934499e+03
  -9.703829e+02   1.237604e+03
  -8.429713e+02   1.997628e+02
  -3.866889e+01  -2.267418e+02
   3.124294e+02   1.108085e+02
   1.818489e+00   4.918462e+02
  -3.321171e+02   6.130900e+02
  -5.831555e+02   1.763851e+02
  -4.580303e+02  -4.048396e+02
  -2.949156e+01  -5.325847e+02
   2.740390e+02  -1.125488e+02
   2.788624e+02   3.475419e+02
  -1.268187e+02   5.096167e+02
  -3.764797e+02   1.381466e+02
  -3.372087e+02  -4.109308e+02
   7.794910e+01  -5.705194e+02
   4.244437e+02  -2.507945e+02
   4.893236e+02   1.276778e+02
   1.283202e+02   3.110543e+02
  -5.399689e+01   1.999401e+02
  -7.016130e+01   1.249694e+02
   1.633804e+02   1.248626e+02
   2.668567e+02   2.926253e+02
   1.086010e+01   3.549689e+02
  -4.306472e+02   2.135699e+02
  -5.707746e+02  -1.538165e+02
  -1.805205e+02  -2.880167e+02
   2.971269e+02  -1.611797e+02
   4.823380e+02   1.626260e+02
   2.023106e+02   3.879755e+02
  -2.826613e+02   2.507902e+02
  -4.128747e+02   1.252548e+02
  -3.323526e+02  -1.127100e+02
  -9.247809e+01  -2.822401e+02
   9.249311e+00  -1.305790e+02
  -3.212579e+01   5.961784e+01
  -1.425033e+02   1.508289e+02
  -2.026744e+02  -1.102034e+02
  -3.889797e+01  -4.069320e+02
   2.111227e+02  -3.977112e+02
   2.866405e+02   7.745674e+00
   9.206046e+01   2.797444e+02
  -1.122348e+02   9.914855e+01
  -1.725788e+02  -2.551146e+02
   9.355831e+01  -3.662896e+02
   3.574873e+02  -2.665705e+01
   4.043879e+02   3.470219e+02
   1.651228e+02   4.307739e+02
  -1.980590e+02   2.744911e+02
  -4.483465e+02  -6.415277e+01
  -2.989289e+02  -1.643211e+02
   2.787895e+01  -1.679815e+02
   2.233928e+02  -1.138908e+02
   2.014394e+02   4.908286e+01
   1.825450e+01   1.593930e+01
  -8.104248e+01  -7.266885e+01
   9.826369e+01  -4.612826e+01
   2.024768e+02   2.347103e+01
   1.527811e+02   2.274231e+02
  -7.811961e+01   2.142352e+02
  -3.095214e+02   1.628338e+02
  -2.357708e+02  -3.460190e+01
   1.766460e+01  -3.013251e+02
   2.650664e+02  -3.244909e+02
   3.298450e+02  -1.254365e+02
   1.993044e+02   1.319815e+02
   1.224621e+02   3.585808e+02
  -4.569322e+01   2.531429e+02
  -2.412461e+01   1.354178e+02
  -3.816494e+01   5.595396e+01
  -1.385238e+02   1.025437e+02
  -2.472295e+02   6.869660e+01
  -2.323005e+02  -1.083967e+02
  -1.068847e+02  -2.360636e+02
   9.227830e+01  -1.238333e+02
   1.900407e+02   1.019937e+01
   1.435783e+02   2.197292e+02
  -7.234801e+01   2.343360e+02
  -2.271728e+02   7.557262e+01
  -2.825718e+02  -1.024684e+02
  -1.869976e+02  -2.577656e+02
   6.210127e+01  -2.183323e+02
   1.792694e+02  -1.016059e+02
   1.748885e+02  -2.778001e+01
   1.502325e+02  -7.359704e+01
   2.550318e+02  -6.127416e+01
   3.430290e+02   2.989381e+01
   2.972900e+02   2.726016e+02
   7.798535e+00   3.881157e+02
  -4.342032e+02   3.842280e+02
  -4.541103e+02   1.938996e+02
  -2.524367e+02  -8.385661e+01
  -4.779660e+01  -2.039487e+02
   7.633931e+01  -1.454923e+02
   3.767291e+01  -5.068805e+01
  -1.424977e+02   6.076892e+01
  -9.927618e+01  -3.268752e+01
  -4.742403e+01  -1.334453e+02
   1.336228e+02  -1.585451e+02
   1.037084e+02   3.916306e+01
  -3.962055e+01   1.010878e+02
  -1.364235e+02   2.740101e+01
  -1.576895e+02  -1.669214e+02
   2.727392e+00  -3.223572e+02
   2.051368e+02  -2.334568e+02
   3.575528e+02   4.797384e+01
   2.419449e+02   2.624913e+02
   4.344254e+01   2.335242e+02
  -1.450910e+02   1.423052e+02
  -1.191601e+02   1.904536e+01
  -4.497353e+01  -1.463833e+01
   4.498256e+01   4.978628e+01
  -3.823116e+00   1.607138e+02
  -1.226732e+02   7.977554e+01
  -1.463204e+02  -2.137486e+01
  -4.135790e+01  -7.337098e+01
   6.235989e+01  -7.704031e+00
   8.346694e+01   8.285398e+01
  -1.151663e+02   1.047801e+02
  -2.622573e+02  -2.866606e+01
  -2.429549e+02  -1.672594e+02
  -6.928237e+01  -2.599573e+02
   1.898392e+02  -2.351399e+02
   2.114430e+02  -1.269914e+02
   1.313385e+02   9.351858e+01
  -6.779759e+01   8.211801e+01
  -5.319110e+01  -7.339672e+00
   4.872294e+01  -8.200272e+01
   1.362703e+02   1.551265e+00
   1.442825e+02   1.594054e+02
   8.952708e+01   2.257273e+02
  -9.884072e+01   8.628207e+01
  -1.076097e+02  -4.994227e+00
  -3.295391e+01  -7.232937e+01
   6.870910e+01   1.909910e+01
  -3.137663e+01   1.198949e+02
  -8.012100e+01   9.401629e+01
  -1.943642e+02  -1.169957e+01
  -1.874165e+02  -1.202559e+02
  -2.838131e+01  -1.942928e+02
   1.321124e+02  -1.507481e+02
   1.733989e+02  -1.034116e+01
   4.989025e+01   5.772313e+01
  -5.848654e+01   8.364818e+01
  -8.272103e+01   3.455056e+01
   6.625617e+01  -4.168077e+01
   3.542448e+01  -2.068186e+01
  -2.406280e+01   2.534761e+01
  -6.709822e+01   4.788197e+01
  -1.301128e+02  -5.344943e+01
   1.462128e+01  -1.866397e+02
   1.298290e+02  -1.448176e+02
   2.271714e+02  -8.442621e+00
   1.329011e+02   1.654801e+02
   3.443025e+01   2.221713e+02
  -1.205641e+02   1.156883e+02
  -6.111607e+01   7.363594e+01
  -1.072440e+02  -2.945516e+01
  -3.261412e+01  -3.944466e+01
  -4.868641e+01   1.023194e+01
  -1.019229e+02   5.595598e+01
  -5.812467e+01  -7.212232e+01
   5.420979e+01  -1.596073e+02
   1.417513e+02  -8.596375e+01
   1.118396e+02   4.107639e+01
   2.243184e+01   1.641197e+02
  -1.569027e+02   9.569367e+01
  -1.937600e+02  -1.007626e+01
  -4.804745e+01  -2.078867e+02
   1.524738e+02  -1.829891e+02
   2.019532e+02  -3.835440e+01
   2.528004e+02   6.645638e+01
   9.010931e+01   1.242506e+02
   1.175042e+01   9.439268e+01
  -9.068865e+01   6.197244e+01
  -8.040066e+01   9.553193e+01
  -6.648071e+01   1.028923e+02
  -5.049603e+01   1.009020e+02
  -1.487915e+02   3.394241e+00
  -1.084502e+02  -9.334644e+01
  -1.636439e+01  -1.880566e+02
   8.835108e+01  -1.691557e+02
   1.224110e+02   3.914391e-03
   1.398842e+02   7.251918e+01
   5.244795e+01   1.259130e+02
  -5.553602e+01   8.976185e+01
  -3.641179e+01  -5.720776e+00
   1.118994e+01  -3.092810e+01
   2.310925e+01  -2.272340e+01
  -6.235976e+01  -2.547597e+01
  -2.806520e+01  -2.240368e+01
  -3.057335e+01  -5.780612e+00
   6.825151e+01  -5.358531e+01
   1.467571e+02  -3.175903e+00
   1.585461e+02   6.939165e+01
  -2.708343e+00   3.505786e+01
  -1.267888e+02   6.773184e+01
  -6.722851e+01   3.923571e+01
  -1.327801e+01  -4.107221e+01
   1.335735e+01   2.632421e+01
   6.336636e+01  -9.420733e-01
   2.696069e+01   7.307516e+01
  -3.369338e+01   5.148934e+01
  -5.080643e+01  -3.637725e+00
  -7.215866e+01  -4.154913e+01
  -2.391394e+01   5.514522e-01
  -7.695277e+01  -8.029205e+00
  -6.127836e+01   1.400770e+01
  -8.384349e+00  -1.003239e+02
   4.165332e+01  -1.512336e+02
   1.088939e+02  -1.486178e+02
   1.640414e+02  -5.283477e+01
   1.242656e+02   6.961848e+01
   6.343431e+00   1.292822e+02
  -8.654614e+01   6.247304e+01
  -7.072232e+01   3.584376e+01
   3.950790e+01   1.238071e+01
   7.324226e+01   3.863317e+01
   5.172880e+01   1.127791e+02
  -6.812436e+01   8.542179e+01
  -1.398165e+02   5.452716e+01
  -1.708021e+02  -3.761336e+01
  -1.338793e+01  -8.994543e+01
   5.716987e+01  -6.818701e+01
   5.398118e+01  -5.699259e+00
  -4.311674e+01   8.993991e+00
  -6.417940e+01  -1.200325e+01
  -8.720392e+01  -1.171750e+02
   1.079271e+02  -1.261314e+02
   1.385016e+02   3.492091e+00
   9.103189e+01   9.300265e+01
   1.852402e+01   1.933903e+02
  -1.012448e+01   1.161573e+02
  -1.096355e+02   2.775826e+01
  -4.529741e+01  -1.192727e+02
   3.355018e+01  -8.595743e+01
   8.658596e+01  -1.286230e+01
   5.445688e+01   3.925115e+01
  -1.399474e+01   2.041055e+01
  -1.250427e+01  -3.079443e+01
   4.355970e+01  -2.477537e+01
   4.082417e+01   1.036242e+02
   2.150262e+01   1.224375e+02
  -1.134577e+01   4.913479e+01
  -1.051007e+02  -2.902504e+01
  -1.917368e+02  -4.402633e+01
   8.877044e+00  -7.057293e+01
   6.680343e+01  -4.330160e+01
   7.278224e+01  -2.866646e+01
  -1.492586e+01  -1.449096e+01
  -2.190915e+01   5.943382e+01
  -2.666256e+01   1.697016e+01
   2.836585e+01  -2.890842e+00
   2.012094e+01  -8.641129e+00
  -7.516479e+01  -1.741789e+01
  -7.261555e+01  -3.025573e+01
  -6.136252e+01  -5.913970e+01
   9.848315e+01  -1.080854e+02
   1.639916e+02  -8.450032e+01
   1.340384e+02   2.403079e+01
   3.479682e+01   1.215441e+02
  -2.952074e+01   1.717255e+02
  -1.481636e+02   6.787918e+01
  -9.770184e+01   1.021993e+01
  -1.649525e+01  -3.611769e+01
  -2.487892e+01  -1.146635e+01
  -4.853192e+01   3.453355e+01
  -5.700329e+01  -7.466603e+01
  -3.752276e+01  -1.027988e+02
   1.149790e+01  -5.483970e+01
   8.288411e+01   1.484235e+01
   6.996724e+01   6.997397e+01
   5.383393e+01   1.025124e+02
  -6.735782e+01   5.988076e+01
  -1.122872e+02  -5.105325e+01
  -3.884965e+01  -5.608733e+01
   4.795905e+01  -6.464628e+01
   1.425257e+02  -8.231791e+00
   5.932905e+01   6.793908e+01
  -4.453149e+01   3.640065e+01
  -1.502647e+01  -1.381170e+01
   3.646288e+01  -2.028705e+01
   8.994697e+00  -1.381784e+01
  -4.506580e+00  -4.374070e+00
  -4.536867e+01   6.394939e+01
  -1.280413e+02   5.162837e+01
  -8.793993e+01  -1.061459e+00
   7.981006e+00  -5.918746e+01
   5.795256e+01  -7.934448e+01
   5.674019e+01  -4.932028e+01
   5.401862e+01   1.529681e+01
  -8.735090e+00   1.764826e+01
  -3.921959e+01  -9.445422e+00
  -4.952108e+01  -6.852427e+01
   8.471284e+00  -6.867188e+01
   1.372534e+01  -6.922569e+00
   1.557136e+01  -8.910818e+00
   2.959763e+01   5.464212e+01
  -2.696134e+01  -5.734664e+01
   2.610783e+01  -1.585723e+01
   8.589213e+00   3.111770e+01
  -4.378842e+00   5.433199e+01
  -4.856197e+01  -2.147009e+01
  -4.497958e+01  -4.882427e+01
   1.388811e+01  -5.976819e+01
   1.074308e+01  -2.632681e+01
   9.691781e+01   4.120261e+01
   5.306287e+01   6.588440e+01
  -6.568673e+01   5.379612e+01
  -1.189218e+02  -4.930561e+00
  -7.499616e+01  -2.768464e+01
   2.647712e+01  -6.100929e-01
   9.584792e+01  -5.700167e+01
   8.476547e+00  -8.306048e+00
  -3.097836e+01  -6.374889e+00
   2.105323e+01   6.208654e+00
   5.575147e+00  -1.940715e+01
   1.025581e+02  -4.107472e+01
