
 $NMID
 id='ANONYMOUS ', fmtdat='(2E16.6)'
 volume=1.0
 tramp=1.0
 $END
  -1.984409e+03   6.324852e+01
  -1.560613e+03  -8.804607e+02
  -5.971303e+01  -1.429113e+03
   8.443744e+02  -9.945040e+02
   8.181218e+02  -2.529174e+02
   2.466434e+02   2.710398e+01
  -1.850698e+02   7.042031e+01
  -5.362249e+01  -2.773177e+02
   2.170480e+02  -3.495013e+02
   3.780784e+02  -1.096811e+02
   2.911946e+02   2.746914e+02
   7.086279e+01   4.164853e+02
  -1.581615e+02   1.524688e+02
  -1.809634e+02  -2.170172e+02
  -1.422140e+01  -3.986489e+02
   2.493335e+02  -8.750567e+01
   2.874429e+02   2.903158e+02
  -5.496183e+00   4.688474e+02
  -2.847331e+02   2.596403e+02
  -3.075962e+02  -4.154159e+01
  -1.441675e+02  -2.353453e+02
   6.924797e+01  -1.602198e+02
  -1.524078e+01  -5.858519e+01
  -1.506195e+02  -1.005507e+02
  -1.396975e+02  -2.731256e+02
   2.724461e+01  -1.963061e+02
   3.038225e+02  -1.500279e+01
   3.650150e+02   1.767704e+02
   1.616909e+02   1.780698e+02
  -1.801554e+02   1.163117e+02
  -2.611187e+02  -5.587108e+01
  -1.194643e+02  -2.113043e+02
   1.243365e+02  -1.698931e+02
   3.010363e+02  -1.202636e+02
   2.219244e+02   9.912791e+01
   9.631600e+01   1.620117e+02
  -2.288919e+01   1.428337e+02
   9.574926e+01  -8.554676e-01
   2.412421e+02  -6.420001e+01
   1.112093e+02   1.267642e+02
  -1.128006e+01   2.792144e+02
  -1.449672e+02   2.970701e+02
  -1.847372e+02   1.020484e+01
  -1.189131e+02  -1.354915e+02
   2.882129e+01  -5.289352e+01
   8.818178e+01   2.000463e+02
  -4.805891e+01   1.697602e+02
  -2.217676e+02   3.317822e+01
  -3.304205e+02  -1.569004e+02
  -1.084736e+02  -2.788909e+02
   1.808967e+02  -1.586707e+02
   3.764581e+02   2.179575e+01
   2.583814e+02   1.728854e+02
  -2.142304e+01   1.830110e+02
  -1.483616e+02   1.099594e+02
  -1.303118e+02  -3.121258e+01
  -1.416490e+01   4.176528e+00
   3.239184e+01  -1.407414e+00
  -2.109225e+01   1.809161e+00
  -9.627831e+01   1.779923e+00
  -1.293167e+02  -5.321964e+01
   8.049840e+01  -1.414636e+02
   2.332819e+02  -1.559679e+02
   2.182772e+02   4.392069e+01
   1.998809e-02   2.448097e+02
  -2.279466e+02   2.561659e+02
  -2.510442e+02   1.063228e+02
  -1.397089e+02  -1.295481e+02
  -6.838960e+00  -2.505836e+02
  -2.427914e+01  -1.971049e+02
   2.682320e+00  -1.390109e+02
   5.168493e+01  -6.953717e+01
   1.484747e+02  -9.802767e+01
   2.275325e+02  -3.845374e+01
   1.349340e+02   8.076203e+01
   5.761055e+01   1.555064e+02
  -6.990103e+01   9.952164e+01
  -1.230049e+02  -3.643218e+01
  -5.050789e+01  -1.781293e+02
   5.910106e+01  -1.330802e+02
   1.579124e+02  -5.677142e+01
   2.138589e+02   9.669033e+01
   1.106312e+02   2.036569e+02
  -1.778392e+01   2.061932e+02
  -1.248257e+02   1.462561e+02
  -4.943519e+01   7.078251e+01
  -9.993398e+01   5.912323e+01
  -1.511663e+02   5.628750e+01
  -2.850015e+02  -8.505043e+01
  -2.474696e+02  -1.810161e+02
  -1.813973e+00  -3.385997e+02
   2.270762e+02  -2.383646e+02
   3.563852e+02  -1.450387e+02
   1.987537e+02   1.054350e+02
  -2.614613e+01   1.595145e+02
  -1.523947e+02   8.407647e+01
   3.752885e+00   2.760944e+01
   5.551578e+01  -1.803467e+01
   8.473426e+01   5.201014e+01
   3.439608e+01   8.630819e+01
  -4.381360e+01   9.380629e+01
  -8.967062e+01  -7.246846e+00
   2.699364e+01  -5.871846e+01
   1.154824e+02   1.112130e+01
   8.623692e+01   1.318527e+02
  -7.163865e+00   3.106584e+02
  -1.863212e+02   1.258786e+02
  -2.479623e+02  -2.414794e+01
  -2.194613e+02  -2.304537e+02
  -4.848200e+01  -2.149345e+02
   9.383675e+01  -4.214051e+01
   9.595345e+01  -1.627824e+01
  -8.519295e+00   3.571097e+01
  -7.090678e+00  -6.243556e+01
  -3.249803e+01  -7.102903e+01
   1.005564e+02  -3.474386e+01
   6.703635e+01   2.756966e+01
   1.792797e+01   1.000141e+02
  -8.662556e+01  -3.150777e+00
  -4.189111e+01  -6.772168e+01
   1.514514e+02  -5.949641e+01
   2.170943e+02   8.875999e+00
   1.968150e+02   9.771337e+01
   1.619951e+01   1.979308e+02
  -1.494651e+02   1.878319e+02
  -1.162837e+02   8.049343e+01
  -7.813632e+01   4.879809e+00
   2.809258e+01  -2.535914e+01
   3.742961e+01   3.834651e+00
  -4.939259e+00   6.747709e+01
  -1.058229e+02   2.655872e+01
  -1.457811e+02  -5.056079e+01
  -5.381898e+01  -1.380709e+02
   7.978427e+01  -5.133287e+01
   5.408130e+01  -5.095002e+01
   7.044928e-01   3.384912e+01
  -4.749060e+01  -1.747036e+01
  -1.406299e+01  -7.149913e+01
   4.877353e+01  -1.056989e+02
   1.467591e+02  -3.260060e+01
   1.350869e+02   8.791752e+01
   3.198135e+01   1.636843e+02
  -6.123350e+01   1.049889e+02
  -1.275003e+02   1.379319e+01
  -2.745502e+01  -8.872530e+01
   2.908495e+01  -6.258894e+01
   4.728092e+01   1.620826e+01
   1.633216e+01   5.356828e+01
  -7.351862e+01   3.202017e+01
   2.718508e+01  -1.151467e+01
   3.926745e+01  -5.239733e+01
   6.609388e+01   7.558796e+01
  -1.327715e+00   1.329277e+02
  -9.429573e+01   7.417935e+01
  -1.560028e+02   2.478668e+01
  -1.233772e+02  -6.489777e+01
  -5.508717e+01  -2.034603e+02
   6.608549e+01  -8.022392e+01
   1.010925e+02   8.341356e+00
  -7.736552e-01   3.704124e+01
   5.962006e+01   2.405210e+01
   4.327827e+01  -7.405336e+00
   4.204186e+01  -7.776278e+00
   5.079104e+01   4.061882e+01
  -3.245077e+01   8.305413e+01
  -6.294502e+01   7.106705e+01
  -8.860505e+01   1.985605e+00
   3.151969e+01  -7.117798e+01
   9.040589e+01  -3.494295e+01
   1.711138e+02   1.801856e+01
   1.606797e+01   1.531599e+02
  -6.697914e+01   1.733319e+02
  -1.651849e+02   4.467402e+01
  -1.631685e+02  -5.219069e+01
  -5.650524e+01  -1.005044e+02
   4.037193e+01  -1.049539e+02
   9.394975e+01  -8.786629e+01
   1.374506e+01  -4.456631e+01
   4.248116e+01  -9.565824e+01
   7.029534e+01   2.054696e+00
   9.411844e+01   5.336528e+00
   8.005900e+01   1.311277e+02
   2.305915e+01   1.751618e+02
  -8.224455e+01   1.001798e+02
  -1.365942e+02  -1.293978e+01
  -8.388021e+01  -1.403240e+02
   2.844531e+01  -1.216511e+02
   5.724748e+01  -5.089734e+01
   3.462739e+01   3.240134e+01
   1.367922e+01   5.453823e+01
  -2.274745e+01   1.552358e+01
  -4.834685e+00   4.366504e+01
   4.657144e+01   4.451907e+01
   2.111774e+01  -1.895105e+01
  -5.225799e+01   1.847552e+01
  -1.661318e+02  -3.505321e+01
  -1.252761e+02  -5.908023e+01
   4.722707e+01  -2.694739e+01
   7.723168e+01  -1.847132e+01
   1.207477e+02  -2.329836e+01
  -2.279980e+01   4.997156e+01
  -6.223355e+01   2.008851e+01
  -9.319405e+01  -8.581263e+00
  -5.660118e+01  -5.110586e+01
   3.748809e+01  -7.102391e+01
   6.697665e+01   9.671668e+00
   7.686370e+01   2.543900e+01
   4.632973e+01   3.726409e+01
   2.676378e+01   1.996430e+01
   6.943386e+01   7.270753e+00
   2.067639e+01   6.269490e+01
  -2.125351e+01   9.636254e+01
  -8.578362e+01   7.798760e+01
  -8.643500e+01   1.179677e+01
  -7.404378e+01  -7.176433e+01
   1.007149e+01  -8.231438e+01
   4.801010e+01  -4.474305e+01
   1.124028e+01   1.583240e+01
  -3.823856e+01   6.113245e+00
  -1.173925e+02  -4.467775e+01
  -3.898016e+01  -6.721947e+01
   9.593267e+01  -8.175957e+01
   8.814006e+01  -4.957740e+01
   8.632568e+01   7.563816e+01
   1.645385e+01   5.397779e+01
  -3.049247e+01   3.518317e+01
  -6.040001e+01   2.523158e+01
   2.250327e+01   3.971244e+00
   9.309438e+01  -1.631622e+01
   5.694632e+01   5.886959e+01
  -8.464224e+01   1.191286e+02
  -1.008284e+02   2.502620e+01
  -1.069111e+02  -7.203827e+01
  -9.252298e+00  -1.180331e+02
   2.022950e+01  -7.534262e+01
   4.028661e+01  -2.728006e+01
   3.285469e+01   3.687912e+01
  -2.940688e+01   3.813007e+01
  -6.381032e+01   2.242254e+01
  -2.496633e+01  -1.717752e+01
  -1.153172e+01  -2.573424e+01
  -1.649662e+01  -1.956201e+01
  -4.171268e+01   2.307737e+00
  -5.859835e+01  -5.262599e+01
  -4.898126e+01  -7.151582e+01
  -8.890990e+00  -6.900863e+01
   9.690082e+01   7.490945e+01
   1.302884e+02   4.322331e+01
   6.455485e+01   3.979350e+01
  -1.334954e+01   2.362736e+01
  -3.088068e+01   1.948856e+00
  -2.557413e+01   1.174715e+01
  -1.815250e+01  -1.627088e+01
   2.926255e+01  -2.429542e+01
  -4.573509e+01  -2.136921e+01
  -1.738856e+01   1.079553e+01
   2.307875e+01   2.049036e+01
   7.388935e+01   6.022534e+00
   5.006800e+00   7.100128e+01
  -6.583498e+01   9.361163e+01
  -1.415137e+02   4.777483e+01
  -8.831570e+01  -1.230852e+01
  -4.370298e+01  -1.168711e+02
   4.842730e+01  -1.425735e+02
   1.054455e+02  -4.275896e+01
   4.568107e+01  -2.836083e+01
   5.319271e+01   1.796763e+01
   3.319615e+01   3.603003e+01
   4.038088e+01  -8.171147e+00
   2.598975e+01   2.753878e+01
   3.900085e+01   7.356150e+01
  -1.095815e+01   9.004000e+01
  -3.066041e+01  -1.390866e+01
  -6.159952e+01  -6.218614e+01
  -4.032995e+01  -7.447200e+01
   6.935174e+01  -8.486476e+00
   1.156144e+02   7.181924e+00
   4.417410e+01   6.923300e+01
  -1.008797e+02   6.435982e+01
  -6.728413e+01  -2.717245e-01
  -4.796422e+01  -3.215471e+01
  -1.975466e+01  -2.185896e+01
   4.085757e+01  -6.385164e+01
  -4.809827e+01   2.768702e+01
  -7.065739e+01  -1.963271e+01
  -5.743435e+00  -3.647121e+01
   9.573752e+01  -2.497179e+01
   7.880424e+01  -3.598896e+01
   2.736113e+01   1.695982e+01
  -3.211968e+01   2.533917e+01
  -1.645132e+01   4.380559e+01
   5.320150e+00   1.902529e+01
   3.571116e+01  -1.334748e+01
   9.666469e+00  -3.399288e+01
   2.075157e+01  -2.794196e+01
   4.530899e+01   4.826752e+01
   1.327979e+00   5.127221e+01
  -9.070622e-01  -3.831778e+01
  -3.342531e+01  -1.840414e+01
   1.187679e+01  -2.047839e+01
  -3.557461e-01   3.416905e+01
  -1.145141e-01   3.445953e+01
   2.426307e+00  -1.587975e+01
  -4.676880e+01  -9.413089e+01
   1.873077e+01  -1.497486e+01
   1.859226e+00   6.938645e+00
   1.533292e+01   3.564852e+01
  -4.989501e+01   1.045868e+01
  -2.542667e+01  -4.496712e+01
   2.711505e+01  -1.144544e+01
   4.881388e+01  -1.360369e+01
   6.935913e+01  -6.825059e+00
   6.977308e+01   3.850959e+01
  -2.811873e+01   3.046330e+01
  -7.830244e+01   2.752544e+01
  -2.508432e+01   1.239688e+01
   3.729754e+01  -1.414360e+01
   3.432985e+01  -3.966253e+00
  -5.832252e+01   4.574266e+01
  -6.984943e+01   1.416769e+01
