
 $NMID
 id='ANONYMOUS ', fmtdat='(2E16.6)'
 volume=1.0
 tramp=1.0
 $END
   3.045183e+03  -1.960001e+02
   2.167639e+03   1.522916e+03
  -2.258591e+01   1.781338e+03
  -1.208509e+03   1.156957e+03
  -8.508986e+02   4.266297e+01
   2.020527e+02  -1.136246e+02
   4.728898e+02   1.402976e+02
   4.065881e+01   6.223075e+02
  -5.274807e+02   5.800302e+02
  -7.345757e+02   8.169783e+01
  -4.285803e+02  -5.500065e+02
  -1.955119e+01  -6.847787e+02
   3.097606e+02  -1.898485e+02
   3.051217e+02   4.417691e+02
  -8.380281e+01   4.935159e+02
  -4.259964e+02   7.826047e+01
  -2.730298e+02  -4.168272e+02
   2.746367e+01  -5.499062e+02
   3.999249e+02  -2.836555e+02
   4.337194e+02   1.331390e+02
   1.236686e+02   3.536791e+02
  -1.114969e+02   2.130288e+02
  -8.575006e+01   6.273700e+01
   1.259534e+02   3.680734e+01
   2.536521e+02   2.415079e+02
   5.272132e+01   3.655511e+02
  -4.467526e+02   2.537795e+02
  -6.123279e+02  -8.927560e+01
  -2.857504e+02  -3.279333e+02
   3.079091e+02  -2.885988e+02
   5.934741e+02   4.770079e+01
   1.977618e+02   3.918082e+02
  -2.394103e+02   4.080971e+02
  -4.213843e+02   1.817325e+02
  -3.181893e+02  -1.092567e+02
  -4.472086e+01  -2.929219e+02
   9.785381e+01  -2.118243e+02
   2.200854e+01   1.451410e+02
  -1.699062e+02   1.922150e+02
  -2.808016e+02  -1.009008e+02
  -9.442557e+01  -4.879589e+02
   1.851239e+02  -4.004935e+02
   3.527547e+02   1.874316e+01
   2.000653e+02   3.611087e+02
  -1.616448e+02   1.001372e+02
  -1.956417e+02  -2.303592e+02
   8.967171e+01  -3.793616e+02
   4.022681e+02  -9.740214e+01
   5.377888e+02   3.357354e+02
   2.229114e+02   4.757749e+02
  -2.868712e+02   2.978602e+02
  -4.908766e+02   1.161205e+01
  -3.232392e+02  -2.133824e+02
   3.994746e+01  -2.105345e+02
   2.396912e+02  -7.052734e+01
   2.234956e+02   6.906231e-01
  -1.632413e+01   1.895550e+01
  -4.597767e+01  -8.053604e+01
   1.299250e+02  -8.923138e+01
   2.214995e+02   5.422461e+01
   1.157628e+02   1.794671e+02
  -1.723767e+02   2.012661e+02
  -3.100932e+02   1.042622e+02
  -2.556080e+02  -6.607608e+01
  -4.058811e+01  -2.570103e+02
   3.097075e+02  -3.358925e+02
   3.156261e+02  -1.829771e+02
   2.459319e+02   1.107258e+02
   7.482899e+01   3.556465e+02
  -4.749315e+01   3.141150e+02
  -2.460157e+01   1.256028e+02
  -1.889514e+01   7.286554e+01
  -9.942924e+01   1.067515e+02
  -2.351418e+02   8.078085e+01
  -2.170277e+02  -3.254743e+01
  -8.872053e+01  -2.132630e+02
   4.257093e+01  -1.619240e+02
   2.106546e+02   1.844688e+01
   1.661196e+02   2.441284e+02
  -2.699728e+01   2.073748e+02
  -2.096580e+02   5.084189e+01
  -2.936271e+02  -1.057217e+02
  -1.252996e+02  -2.917009e+02
   8.910171e-02  -2.131081e+02
   1.350020e+02  -1.664333e+02
   1.464265e+02  -7.435702e+01
   1.206652e+02   9.901729e+00
   2.661463e+02  -5.795266e+01
   3.823282e+02   1.124618e+02
   3.505032e+02   2.869423e+02
  -2.955138e+01   4.432172e+02
  -3.534847e+02   4.123696e+02
  -3.843604e+02   1.967273e+02
  -2.894467e+02  -1.000125e+02
  -1.646186e+01  -2.155612e+02
   1.092208e+02  -1.646745e+02
   2.284250e+00  -2.160954e+01
  -1.255063e+02   2.794025e+01
  -5.651561e+01  -4.025310e+01
  -3.733354e+01  -1.141267e+02
   1.288525e+02  -1.246709e+02
   1.189227e+02   1.929376e+01
  -2.299377e+01   1.318253e+02
  -1.677560e+02   4.086638e+00
  -1.725160e+02  -1.881701e+02
   8.506737e+00  -2.944738e+02
   1.973870e+02  -2.119272e+02
   2.995217e+02   1.569399e+01
   2.939828e+02   2.040523e+02
   3.069566e+01   2.515217e+02
  -9.398768e+01   1.479010e+02
  -1.905470e+02  -4.395264e+00
  -4.445694e+01   9.079241e+00
   4.090481e+01   6.353854e+01
  -7.977849e+00   1.138472e+02
  -1.332368e+02   7.398950e+01
  -1.783443e+02  -5.936750e+01
  -3.786868e+01  -8.156183e+01
   7.821289e+01  -1.155398e+01
   7.010606e+01   9.028057e+01
  -1.086398e+02   1.073067e+02
  -2.569931e+02  -3.421762e+01
  -2.430029e+02  -1.425290e+02
  -4.876602e+01  -2.433052e+02
   1.971973e+02  -1.777404e+02
   2.178380e+02  -1.124879e+02
   1.645152e+02   2.937328e+01
  -7.254285e+01   6.498421e+01
  -5.784448e+01  -6.413080e-01
   3.365313e+01  -8.659044e+01
   1.878690e+02  -5.843270e+01
   2.156183e+02   5.927836e+01
   8.563329e+01   1.826021e+02
  -1.068105e+02   1.166636e+02
  -9.551552e+01   3.636978e+01
  -6.654795e+01  -6.578475e+01
   3.591191e+01  -2.777385e+01
   1.671543e+01   8.783534e+01
  -9.028548e+01   1.131600e+02
  -2.187823e+02   2.026075e+01
  -1.481958e+02  -5.046353e+01
  -2.741953e+01  -2.057584e+02
   1.451435e+02  -1.791981e+02
   1.483538e+02  -4.391583e+01
   5.387954e+01   1.139911e+02
  -8.995286e+01   8.425556e+01
  -3.286199e+01   2.821594e+01
  -1.114970e+00  -1.983854e+01
   3.129496e+01  -2.354650e+01
  -1.042240e+00   4.978355e+01
  -8.342497e+01   1.579907e+00
  -1.591533e+02  -1.112966e+02
  -9.689847e+01  -1.561789e+02
   1.435740e+02  -1.117229e+02
   2.414458e+02  -2.218229e+01
   1.462235e+02   1.449084e+02
   3.716116e+01   2.171504e+02
  -4.568805e+01   1.436074e+02
  -9.361969e+01   4.214257e+01
  -3.655248e+01  -2.500182e+01
  -3.026974e+01  -2.516674e+01
  -4.845810e+01   5.222415e+01
  -6.979890e+01   1.909426e+01
  -6.779720e+01  -3.649135e+01
   5.429433e+01  -8.696182e+01
   1.327638e+02  -7.981793e+01
   1.018852e+02   3.509728e+01
   2.405622e+01   1.005249e+02
  -1.879248e+02   5.453537e+01
  -1.971644e+02  -8.278138e+01
  -2.952430e+01  -2.071697e+02
   1.188458e+02  -2.001235e+02
   2.251147e+02  -5.607647e+01
   2.304807e+02   7.475120e+01
   7.921777e+01   1.703682e+02
  -1.840617e+01   1.720598e+02
  -9.393288e+01   1.273956e+02
  -9.383344e+01   5.684721e+01
  -1.111685e+02   7.940937e+01
  -8.419561e+01   5.833827e+01
  -1.063071e+02  -2.690549e+01
  -8.935179e+01  -1.447665e+02
   7.059583e+00  -1.164411e+02
   4.971562e+01  -2.271335e+02
   1.721371e+02  -7.107407e+01
   1.002049e+02   1.107250e+02
   2.765475e+01   1.969248e+02
  -3.497111e+01   9.822168e+01
  -4.541438e+01  -2.189974e+01
   3.610902e+01  -7.139629e+01
   2.278938e+01  -5.918783e+01
  -7.074715e+01  -6.658527e-01
  -4.421931e+01   3.448923e+01
  -4.808923e+01  -4.461639e+01
   7.598420e+01  -4.823587e+01
   1.558031e+02  -2.573418e+01
   1.518375e+02   2.554871e+01
  -2.036682e+00   9.169070e+01
  -1.248536e+02   1.117609e+02
  -1.134611e+02   4.131350e+01
  -4.380243e+01  -6.867679e+01
   1.037925e+02  -5.841621e+01
   9.515236e+01   7.747632e+00
  -1.173394e+01   6.651114e+01
  -2.098717e+01   5.484641e+01
  -7.713245e+01   5.640205e+01
  -4.646491e+01  -2.705336e+01
  -3.027092e+01  -6.316114e+01
  -1.823044e+01  -1.330987e+01
  -7.181381e+01  -1.198651e+01
   4.737274e+00  -6.365753e+01
  -1.243333e+00  -1.197132e+02
   1.052848e+02  -1.430135e+02
   1.459130e+02  -3.781112e+01
   1.349564e+02   1.040403e+02
   1.325972e+01   1.406500e+02
  -8.974945e+01   4.446510e+01
  -9.127282e+01  -4.585447e+01
   8.119536e+00  -1.375193e+01
   1.320449e+02  -8.490008e+00
   7.671250e+01   1.101953e+02
  -8.115292e+01   1.062145e+02
  -1.719466e+02   5.629662e+01
  -1.474075e+02  -2.604040e+01
  -2.812245e+01  -1.326176e+02
   5.402776e+01  -9.270741e+01
   7.964811e+01  -2.791895e+01
  -3.688373e+01  -1.553229e+01
  -5.619053e+01   7.920990e+00
  -5.547139e+01  -8.737400e+01
   1.007752e+02  -1.562678e+02
   1.560717e+02  -8.404262e+01
   1.403468e+02   8.974951e+01
   2.451889e+01   1.909829e+02
  -7.412754e+01   1.572374e+02
  -1.548422e+02  -2.131264e+01
  -1.055309e+02  -1.202670e+02
  -2.911278e+01  -8.177231e+01
   6.192696e+01  -6.354753e+00
   7.939131e-01   1.574696e+01
  -1.971286e+01  -2.612883e+00
  -1.741911e+01  -2.880753e+01
  -3.402913e-01   1.193648e+01
   5.410628e+01   5.086499e+01
   5.946214e+01   9.303595e+01
  -2.861185e+00   4.360731e+01
  -9.379632e+01  -4.389797e+01
  -1.362032e+02  -6.205059e+01
  -4.819721e+01  -1.975381e+01
   8.461596e+01  -4.936100e+01
   9.169170e+01  -2.866144e+01
   9.934917e+00   6.831442e+00
  -6.645078e+01   8.680829e+00
  -3.824115e+01  -1.549438e+01
   7.237077e+01  -2.063634e+01
  -1.127227e+01   3.318570e+01
  -9.750549e+01  -1.756562e+01
  -9.215199e+01  -5.654457e+01
  -1.186879e+01  -8.524310e+01
   1.083122e+02  -1.630673e+02
   1.451166e+02  -7.592320e+01
   1.450099e+02   3.648691e+01
   2.646649e+01   1.545036e+02
  -7.129532e+01   1.400494e+02
  -8.782072e+01   5.400778e+01
  -8.399534e+01  -1.787514e+01
  -5.708162e+01  -5.543764e+01
  -1.643349e+01  -7.601044e+00
  -3.107145e+01  -2.179359e+01
  -7.154351e+01  -8.121742e+01
  -5.690520e+01  -4.958568e+01
  -9.253642e+00  -6.325286e+01
   2.784379e+01   5.542111e+01
   5.531793e+01   1.217191e+02
   1.573535e+01   1.204030e+02
  -5.241111e+01   4.655934e+01
  -1.294093e+02  -4.157674e+01
  -5.882908e+01  -1.144880e+02
   5.866523e+01  -5.374117e+01
   9.039525e+01   1.568961e+01
   2.947081e+01   7.961708e+01
  -5.288008e+01   2.946306e+01
   1.722994e+00   2.543206e+01
   6.586317e+01   6.264661e+00
   9.329658e+01  -5.278677e+01
   5.889540e+01   6.458008e+01
  -5.266039e+01   7.928206e+01
  -9.776170e+01   3.886174e+01
  -3.190432e+01   1.210612e+01
   6.462785e+01  -1.067340e+02
   3.782971e+01  -1.480080e+02
   2.783623e+01  -3.607158e+01
  -1.132908e+01   5.451367e+01
  -1.911166e-01   4.553146e+01
  -2.465823e+01  -1.607300e+01
  -1.026800e+01  -1.926793e+01
  -2.964667e+00   1.545531e+01
   5.625352e+01   7.105703e+00
   6.719465e+01   2.749393e+01
   7.863092e+00   2.201078e+01
   1.187670e+01  -1.712404e+01
   2.194627e+01   2.249581e+01
   1.261730e+01   4.359935e+01
   1.446461e+01   3.513750e+01
  -4.018439e+01  -1.083912e+01
  -4.636310e+01  -3.207015e+01
  -3.624451e+00  -1.026975e+02
  -1.016426e+01  -5.166894e+01
   6.313909e+01   6.067486e+01
   4.117693e+01   8.893717e+01
  -4.818102e+01   4.746676e+01
  -8.883590e+01  -5.493897e+01
  -7.176041e+01  -7.023645e+01
   1.779252e+01   5.392553e+00
   7.099417e+01  -2.082712e-01
   3.334812e+01  -3.565797e+00
  -4.045416e+00  -4.741700e+01
  -1.290119e+01   9.123513e+00
   9.163258e+00  -6.195453e+01
   7.608275e+01  -2.205177e+01
