
 $NMID
 id='ANONYMOUS ', fmtdat='(2E16.6)'
 volume=1.0
 tramp=1.0
 $END
  -2.275340e+03   3.139960e+02
  -1.917179e+03  -1.205464e+03
  -1.499606e+02  -1.361352e+03
   9.050213e+02  -1.095438e+03
   8.331768e+02  -3.291042e+02
   2.031303e+02   1.426683e+02
  -2.043867e+02   1.821863e+01
  -9.829188e+01  -3.339625e+02
   2.954079e+02  -4.049853e+02
   4.688674e+02  -1.314695e+02
   3.413313e+02   2.935449e+02
   1.543719e+02   4.327990e+02
  -8.142456e+01   1.674310e+02
  -2.021634e+02  -2.353613e+02
   2.744757e+01  -4.058322e+02
   3.026833e+02  -6.277388e+01
   2.323328e+02   4.291322e+02
  -4.518812e+01   5.583322e+02
  -4.160356e+02   1.919226e+02
  -3.711246e+02  -1.348326e+02
  -1.157135e+02  -2.969360e+02
   1.240102e+02  -2.067786e+02
   7.164159e+01  -8.869892e+01
  -1.544565e+02  -1.228214e+02
  -1.941322e+02  -2.665531e+02
   6.363709e+01  -2.642664e+02
   4.180106e+02  -5.421067e+01
   3.768572e+02   2.319026e+02
   1.387716e+02   2.285785e+02
  -2.259827e+02   8.344453e+01
  -3.526965e+02  -1.495800e+02
  -8.486346e+01  -2.709126e+02
   1.876084e+02  -2.344346e+02
   3.203517e+02  -7.929302e+01
   2.344258e+02   1.021123e+02
   1.044418e+02   2.582391e+02
   5.081313e+01   1.719680e+02
   3.827899e+01  -9.153458e+00
   1.388185e+02  -2.888736e+01
   1.342397e+02   1.320179e+02
  -1.139310e+01   3.300155e+02
  -1.573800e+02   3.211007e+02
  -2.278877e+02  -7.599349e+00
  -9.406305e+01  -1.782284e+02
   5.395337e+01  -8.202442e+01
   1.039637e+02   1.892617e+02
  -8.192729e+01   3.014974e+02
  -3.364939e+02   1.105849e+01
  -3.139966e+02  -3.690574e+02
  -1.044461e+02  -3.303847e+02
   2.181148e+02  -2.081154e+02
   3.683303e+02   8.161835e+01
   2.153182e+02   1.391506e+02
  -1.988161e+01   1.341363e+02
  -2.104189e+02   6.123489e+01
  -1.932679e+02   2.903332e-01
   1.052521e+01   1.124894e+01
   5.031986e+01   4.419418e+00
  -4.310410e+01   1.014942e+02
  -1.264448e+02  -4.681150e+01
  -1.121818e+02  -7.175674e+01
   1.177478e+02  -1.657533e+02
   2.814294e+02  -6.419258e+01
   1.916883e+02   6.581436e+01
  -3.467631e+01   2.729084e+02
  -2.538171e+02   3.088795e+02
  -3.041317e+02   1.165763e+02
  -1.687918e+02  -1.236417e+02
  -9.272061e+00  -2.590972e+02
   6.219254e+01  -2.275930e+02
   1.646119e+01  -1.375181e+02
   2.157334e+01  -4.667919e+01
   1.364578e+02  -9.220198e+01
   2.251804e+02  -5.213180e+01
   1.416751e+02   9.483232e+01
   3.450196e+01   1.824518e+02
  -8.907828e+01   1.207117e+02
  -1.292669e+02  -8.716836e+01
  -8.840474e+01  -1.399455e+02
   1.229025e+02  -2.071483e+02
   1.728252e+02  -5.210836e+01
   1.947651e+02   1.744288e+02
   1.029046e+02   2.332351e+02
  -9.497107e+01   2.748043e+02
  -1.224217e+02   8.844374e+01
  -1.509266e+02   6.027612e+01
  -1.727645e+02   2.695500e+01
  -2.047665e+02   1.476288e+00
  -2.737934e+02  -8.514529e+01
  -2.293832e+02  -2.499461e+02
   6.964534e+01  -3.471990e+02
   3.358518e+02  -2.848715e+02
   4.121867e+02  -5.518009e+01
   2.208478e+02   9.023946e+01
  -2.692760e+01   1.989204e+02
  -8.618781e+01   1.475984e+02
   1.107679e+01   4.846117e+01
   7.437076e+01  -5.465622e+01
   8.141760e+01   4.030665e+01
  -5.073307e-01   1.024320e+02
  -5.769972e+01   5.056662e+01
  -7.161248e+01  -1.761185e+01
   3.589870e+01  -9.619948e+01
   1.318923e+02  -1.586233e+01
   1.026698e+02   1.579886e+02
  -4.166816e+01   2.632246e+02
  -1.883359e+02   1.442844e+02
  -2.759049e+02  -7.161464e+01
  -1.820277e+02  -2.153013e+02
  -1.745067e+01  -2.276465e+02
   1.542572e+02  -7.873700e+01
   8.334762e+01   3.752586e+01
   6.553667e+01   5.148998e+01
  -5.833525e+00  -4.279684e+01
  -7.165501e-02  -7.736253e+01
   1.151568e+02  -1.663033e+01
   1.048050e+02   1.929638e+01
   2.671876e+01   1.711986e+01
  -1.821755e+01  -1.046316e+01
   1.024869e+01  -7.504308e+01
   1.205572e+02   2.457971e+01
   2.123240e+02   5.269205e+01
   1.653121e+02   1.743966e+02
   1.070823e+01   2.200929e+02
  -1.725379e+02   1.363832e+02
  -2.075327e+02   4.093238e+01
  -8.716686e+01  -2.863270e+01
   3.132074e+01  -8.766649e+01
   4.365287e+01  -2.524430e+01
  -4.342457e-01   1.101991e+02
  -1.733798e+02   1.043503e+01
  -1.437973e+02  -7.852397e+01
  -6.966690e+01  -1.219274e+02
   7.004729e+01  -7.326237e+01
   1.304306e+02  -1.648572e+01
   1.727726e+01   1.298035e+01
  -2.303275e+01  -3.721366e+01
  -3.383432e+01  -1.245091e+02
   8.124112e+01  -6.391813e+01
   2.050659e+02  -2.280380e+01
   1.447626e+02   1.131167e+02
  -2.127868e+01   1.857336e+02
  -1.472659e+02   1.119826e+02
  -1.702359e+02  -1.059070e+01
  -7.466380e+01  -1.024720e+02
   5.177475e+01  -1.129270e+02
   9.847846e+01   1.106727e+01
  -1.468267e+01   1.203885e+01
  -2.549082e+01   2.015966e+01
  -4.917751e+00   2.710760e+00
   9.155356e+01  -2.463129e+01
   9.559347e+01   7.126477e+01
  -4.847177e+00   1.574381e+02
  -1.136817e+02   1.064562e+02
  -1.891583e+02  -3.045111e+01
  -9.570044e+01  -1.411506e+02
   4.013756e+00  -1.787268e+02
   8.310806e+01  -1.039126e+02
   7.595259e+01  -2.686428e+01
   1.027919e+02  -5.659708e+00
   2.769811e+01   2.414632e+01
   7.907590e+01  -2.115093e+01
   6.409703e+01  -7.735454e+00
   4.929263e+01   4.123386e+01
  -3.180354e+01   8.591825e+01
  -7.929164e+01   1.215802e+02
  -8.615968e+01  -3.433574e+01
   3.096039e+01  -9.924737e+01
   1.478966e+02  -9.408179e+00
   1.535519e+02   8.092245e+01
   3.559074e+01   1.908766e+02
  -1.462794e+02   1.749235e+02
  -2.267192e+02   3.005607e+01
  -1.914946e+02  -8.470616e+01
  -2.738566e+00  -1.054653e+02
   4.084624e+01  -1.269762e+02
   8.700525e+01  -4.707143e+01
   6.504148e+01  -3.120237e+01
   4.473174e+01  -9.660300e+01
   5.629374e+01   1.186067e+01
   7.487092e+01   2.095254e+01
   9.325847e+01   1.228718e+02
   9.965634e+00   1.398673e+02
  -8.162401e+01   1.170823e+02
  -1.136074e+02   5.859664e+00
  -6.750570e+01  -2.856714e+01
  -4.260649e+00  -1.128632e+02
   4.879212e+01  -8.120392e+01
   3.686206e+01   4.462931e+01
  -2.590264e+01   3.023674e+01
  -2.696977e+01   5.672089e+01
   3.120297e+01   1.420228e+01
   8.121656e+01  -1.384341e+01
   4.294010e+01  -5.156224e+00
  -1.095729e+02  -1.367776e+01
  -1.232077e+02  -1.766502e+01
  -1.091136e+02  -7.061879e+01
   2.357128e+01  -8.800160e+01
   7.563289e+01  -8.015060e+01
   1.052541e+02   3.093135e+01
   9.896723e+00   4.816220e+01
  -7.310275e+01   5.464854e+01
  -5.301413e+01  -5.207991e+00
  -1.427698e+01  -7.675731e+01
   3.454534e+01  -5.243445e+01
   5.532181e+01  -1.346120e+00
   5.462390e+01   2.526019e+01
   3.392103e+01  -3.848312e+00
   1.814860e+01  -5.070958e+00
   5.559300e+01   1.675366e+01
   7.750421e+01   7.910050e+01
  -3.988024e+01   1.129427e+02
  -9.862479e+01   1.183298e+02
  -1.355190e+02  -1.921422e+00
  -1.046405e+02  -1.178888e+02
  -1.213094e+01  -1.224737e+02
   4.204059e+01  -8.396122e+01
   5.906510e+01  -2.598393e+01
  -6.330899e+01   1.722873e+01
  -1.131698e+02   1.023389e+01
  -4.556333e+01  -8.221580e+01
   6.864819e+01  -7.005095e+01
   1.422174e+02   1.369030e+01
   1.627604e+02   4.183007e+01
   2.695091e+01   6.055013e+01
  -5.002665e+01   2.489082e+01
  -3.443947e+01  -3.020746e+01
   5.745706e+00  -2.756717e+01
   1.254948e+02   2.705564e+01
   3.528302e+01   1.123926e+02
  -5.904149e+01   1.522451e+02
  -9.414736e+01   7.395633e+01
  -8.429510e+01  -8.507808e+01
   2.139326e+01  -1.718946e+02
   6.679413e+01  -1.111863e+02
   8.247944e+01   1.032069e+01
   8.265130e+01   1.117268e+02
  -4.794394e+01   8.494391e+01
  -5.389119e+01   2.202959e+01
  -2.244355e+01  -4.099438e+01
  -6.493170e+00   5.258497e+00
  -2.920227e+01   3.275915e+01
  -4.341768e+01  -2.622012e+01
  -8.745926e+01  -6.477700e+01
   2.303108e+00  -8.535178e+01
   9.192553e+01  -1.980787e+01
   9.528561e+01   3.861784e+01
   1.242193e+02   3.224819e+01
   3.355484e+01   4.788226e+01
  -8.113754e+01   9.227920e+01
  -7.633551e+01   1.164023e+01
  -6.284516e-01  -1.027686e+01
   3.843931e+01  -1.838301e+01
  -8.315300e+00  -2.423984e+01
   2.332818e+01   4.931141e+01
   2.711017e+01  -4.006701e+01
   6.705577e+01  -9.064843e+00
   7.804456e+01   4.998558e+01
   1.777101e+01   2.769974e+01
  -6.801525e+01   8.491024e+01
  -1.260212e+02   9.052621e+01
  -1.089580e+02  -4.108698e+01
  -3.373485e+01  -1.407252e+02
   5.420494e+01  -1.413359e+02
   6.935634e+01  -1.458203e+01
   5.862178e+01   1.261370e+01
   1.886785e+01  -1.170536e+01
   5.977107e+00  -6.374410e-01
   1.014845e+01  -3.986650e+00
   6.190593e+01   6.088088e+01
   5.501104e+01   5.666347e+01
  -1.013693e+01   9.892085e+01
  -1.091991e+02   6.141804e+00
  -7.364232e+01  -9.163798e+01
  -4.858331e+00  -9.809388e+01
   6.729228e+01  -2.820180e+01
   7.914739e+01   7.467062e+01
   4.802074e+01   1.114599e+02
  -2.858557e+01   6.108843e+01
  -4.680473e+01   2.074655e+01
  -3.885052e+01  -4.695145e+01
   1.787345e+01  -4.139851e+01
   3.546778e+01  -2.182157e+01
  -4.548418e+01  -1.256454e+01
  -7.138311e+01  -2.821171e+01
   6.629495e+00  -5.050467e+01
   9.159627e+01  -5.885783e+01
   1.026860e+02  -4.345759e+01
   4.733808e+01   3.866128e+01
  -1.646860e+01   4.998856e+01
  -5.657989e+01   4.990093e+01
  -1.584989e+01  -3.559827e+01
   4.234269e+01  -5.199744e+01
   2.644551e+01  -3.616049e+01
   2.939824e+01   2.033689e+01
   1.427938e+01   7.569716e+01
   2.750785e+01   1.889157e+01
  -5.347392e+01  -2.627514e+01
  -3.720848e+01  -3.238588e+01
  -3.714484e+01   1.010805e+01
   1.449271e+01   1.072204e+01
   6.090589e+00   2.805089e+01
   6.843687e+00  -3.006778e+01
   2.176380e+01  -3.210026e+01
   5.403115e+01   1.333414e+00
   3.491549e+01   4.782540e+01
   2.438042e+01   3.466145e+01
  -2.703547e+01  -3.533974e+00
  -4.415750e+01  -3.032593e+01
  -3.056117e+01  -6.988234e+01
   1.002120e+02  -1.621893e+01
   8.167427e+01   4.413520e+01
   1.844706e+01   1.007715e+01
  -2.324823e+01  -2.502309e+01
  -2.350564e+01  -1.524903e+01
  -1.393651e+01   1.646639e+01
   6.083651e+01   2.579659e+01
   3.906405e+01  -4.686367e+00
  -2.029293e+01  -2.221657e+01
  -7.429696e+01   6.321074e-01
