
 $NMID
 id='ANONYMOUS ', fmtdat='(2E16.6)'
 volume=1.0
 tramp=1.0
 $END
  -1.108397e+03  -7.803812e+01
  -8.847627e+02  -3.081151e+02
  -3.267997e+02  -7.847628e+02
   2.825118e+02  -6.456750e+02
   4.518819e+02  -4.286838e+02
   9.398406e+01   1.203543e+00
  -1.313294e+01   1.548962e+02
  -6.847824e+01  -7.815438e+01
   2.679046e+01  -2.112990e+02
   2.001521e+02  -6.450297e+01
   1.799077e+02   1.091334e+02
   2.768702e+01   3.123622e+02
  -4.435219e+01   1.192621e+02
  -1.462138e+02  -5.711464e+01
  -3.668561e+01  -2.053039e+02
   1.228868e+02  -1.125498e+02
   1.630870e+02   6.610884e+01
   2.479275e+01   2.623875e+02
  -1.437410e+02   1.068831e+02
  -1.705608e+02  -3.655066e+00
  -9.819610e+01  -1.240543e+02
   3.100326e+00  -8.752881e+01
  -3.818239e+01  -3.764572e+01
  -3.148140e+01  -1.097127e+02
  -5.922016e+01  -1.473471e+02
   5.326794e+01  -1.088040e+02
   1.668488e+02  -5.094760e+01
   2.031871e+02   9.914732e+01
   5.596649e+01   5.884765e+01
  -1.046561e+02   1.935972e+01
  -9.496548e+01  -2.922534e+01
  -6.733090e+01  -7.967363e+01
   7.785785e+01  -4.056162e+01
   1.305252e+02  -6.131015e+01
   7.500739e+01   2.454276e+01
   4.949288e+01   7.495447e+01
   3.751355e+01   7.887621e+01
   1.133775e+02   5.532829e+00
   5.564265e+01   5.141978e+01
  -4.807262e+01   1.247294e+02
  -5.957854e+01   1.236521e+02
  -1.384005e+01   1.240505e+02
  -2.361738e+01   3.456886e+01
   5.302956e+00  -3.182313e+01
   2.475183e+01  -5.410752e+01
   3.176670e+01   7.208514e+01
  -5.811919e+01   2.222925e+02
  -1.421047e+02   1.129096e+02
  -2.516099e+02  -1.628315e+02
  -5.762439e+01  -1.771115e+02
   7.908063e+01  -7.678155e+01
   1.728906e+02  -1.452159e+01
   1.584409e+02   4.114122e+01
  -5.713679e+00   1.692390e+01
  -9.219870e+01   6.845809e+01
  -8.661149e+01   3.786056e+01
  -3.984319e+01  -5.494551e+00
   3.279125e+01  -1.051484e+00
  -4.149404e+01   1.122688e+01
  -1.109356e+02  -3.905016e+01
  -6.363673e+00  -2.566397e+01
   9.992096e+01  -4.342386e+01
   9.883054e+01  -9.042349e+01
   9.614642e+01  -6.574105e+00
  -2.366096e+00   1.277209e+02
  -1.502135e+02   1.445983e+02
  -1.605502e+02   5.064593e+01
  -4.293975e+01  -5.389795e+01
   8.045255e+00  -1.321908e+02
  -7.649154e+00  -1.492933e+02
  -3.618054e+01  -1.274377e+02
   1.655757e+01  -9.091596e+01
   1.217338e+02  -7.239827e+01
   7.802934e+01  -1.257606e+01
   6.579591e+01   6.375487e+01
   3.173858e+01   9.377779e+01
  -3.752944e+01   6.653224e+01
  -5.884540e+01  -4.368286e+00
  -9.220466e+00  -1.064649e+02
   3.732426e+01  -7.090710e+01
   7.973037e+01   3.050531e+01
   9.093026e+01   3.334591e-01
   2.826378e+01   1.831220e+02
   2.819347e+01   9.684288e+01
  -8.910771e+01   1.163835e+02
  -7.553470e+01   7.167571e+01
  -6.119634e+01   1.043620e+01
  -1.254412e+02   4.095187e+01
  -1.533015e+02  -1.769632e+01
  -1.288980e+02  -1.509633e+02
  -2.251019e+01  -1.717223e+02
   9.567735e+01  -1.553507e+02
   1.299361e+02  -1.144113e+02
   1.219191e+02   2.358728e+01
   3.773411e+01   7.657366e+01
  -2.258056e+01   4.226452e+01
   2.296854e+01   3.851911e+01
   5.189027e+01   1.328962e+01
   4.133237e+00   1.806110e+01
   7.605144e+00   1.320367e+01
  -6.023377e+01   3.033947e+01
  -2.370588e+01  -7.459917e+00
  -4.812218e+01  -5.761100e+01
   3.311002e+01   6.708468e+00
   5.339165e+01   4.279122e+01
   2.356370e-01   1.327987e+02
  -1.012152e+02   8.091568e+01
  -1.392242e+02  -6.124576e+01
  -1.406037e+02  -1.478242e+02
   7.207663e+00  -1.107805e+02
   3.576577e+01  -7.871179e+01
   4.512863e+01  -1.371243e+01
   2.027785e+01  -2.291548e+01
  -3.807718e+00  -1.492739e+01
   3.104188e+00  -4.010440e+01
   3.423207e+01  -1.142406e+01
   4.182396e+01   2.368231e+01
   1.633322e+01  -2.566067e+01
   9.661028e+00   9.707936e+00
   5.271218e+00  -3.072754e+01
   1.036743e+02  -1.727835e+01
   1.378989e+02   3.055289e+01
   9.904634e+01   8.244357e+01
  -1.194337e+01   1.007004e+02
  -1.158111e+02   4.340620e+01
  -3.512710e+01   4.153433e+01
   2.911807e-01  -7.557077e+00
   7.472448e+00   3.976132e+01
   1.287945e+01   2.572166e-01
  -4.847777e+01   5.818096e+01
  -6.318573e+01   6.649547e+00
  -8.395841e+01  -8.076731e+01
  -4.167701e+01  -7.232826e+01
   4.972894e+01  -3.657177e+01
   3.259931e+01  -2.390947e+01
   6.770801e+00   2.936777e+00
   1.717949e+00  -1.863161e+01
   1.436571e+01  -7.093911e+01
   8.538970e+01  -4.781346e+01
   4.231889e+01  -1.494018e+01
   8.577259e+01   3.944989e+01
  -4.096723e+00   9.787318e+01
  -4.808564e+01   8.509460e+01
  -5.769031e+01  -3.201575e+01
   1.428886e+01  -8.551507e+01
  -1.208454e+01  -4.563601e+01
   1.542733e+01   4.336225e+01
  -1.734800e+01   3.350713e+01
  -1.152894e+01  -1.760765e+00
   8.326887e+00  -5.121638e+00
   6.629880e+01  -9.155249e+00
   3.049263e+01   3.420031e+01
   1.047629e+01   8.329949e+01
  -8.333353e+01   1.038603e+02
  -1.163772e+02   1.028188e+01
  -7.681973e+01  -4.078673e+01
  -4.396305e+01  -1.026960e+02
   8.608152e+01  -5.513781e+01
   6.284852e+01  -2.115921e+01
   2.304299e+01   2.334623e+01
   1.849472e+01   3.620258e+01
   7.924973e+00  -3.355623e+01
   4.611006e+01   2.869343e+01
  -1.055455e+01   1.233474e+01
  -7.682109e+01   6.803354e+01
  -6.892409e+01   1.589874e+01
  -6.409710e+01  -2.537585e+01
   4.069267e+01  -5.392365e+01
   9.955985e+01  -1.041783e+00
   8.305872e+01  -9.232237e+00
   7.377318e+01   8.337228e+01
  -7.260106e+01   7.684061e+01
  -1.306528e+02   3.374647e+01
  -9.007082e+01  -3.604709e+01
  -3.230391e+01  -8.365728e+01
   2.091290e+01  -8.624807e+01
   2.727282e+01  -3.960054e+01
   2.962430e+01   3.001817e+00
   5.517856e+01  -5.210164e+01
   7.249878e+01  -5.739851e+01
   6.144943e+01   2.984589e+01
   4.077269e+01   6.445217e+01
   3.582398e+01   1.128832e+02
  -5.279885e+01   8.040794e+01
  -2.052723e+01  -4.564817e+00
  -3.145665e+01  -5.919390e+01
   3.092464e+01  -5.500356e+01
   4.618530e+01  -4.004847e+01
   1.344082e+01   4.179592e+01
  -3.109941e+01   1.832270e+01
  -6.443304e+00  -1.328625e+01
   4.018003e+01  -8.449511e+00
   8.464123e+01   2.031896e+01
   5.458076e+01  -3.229578e+00
  -5.181550e+01  -1.744465e+01
  -7.814990e+01  -6.142377e+00
  -5.146996e+01  -4.139220e+01
   4.981222e+01  -9.492570e+00
   7.923546e+01  -2.338874e+01
   7.452818e+01  -1.728282e+00
   5.310472e+01   2.147531e+01
  -1.774943e+01   4.397596e+01
  -5.234345e+01   1.018567e+01
  -3.658566e+01  -6.973733e+01
   5.665336e+01  -5.330379e+01
   2.351589e+01   7.775787e+00
  -8.800458e-01   1.930044e+01
   3.795253e+01  -7.120635e+00
   2.981876e+01   1.184783e+01
   7.324457e+01  -2.267267e+01
   2.504985e+01  -1.814699e+01
  -5.008494e+00   3.168065e+01
  -1.378648e+01   3.072175e+01
  -9.951754e+01   2.759181e+00
  -4.330041e+01  -1.915475e+01
   2.211294e+00  -6.506921e+01
   1.640427e+01  -2.211077e+01
   2.805731e+01   1.287178e+01
  -9.877274e+00   1.994313e+01
  -7.190981e+01  -3.652603e+00
  -3.129455e+01  -4.519337e+01
   3.529780e+01  -2.473979e+01
   2.567276e+01   2.721596e+01
   8.531564e+01   3.227568e+01
   1.350904e+00   5.226091e+01
  -3.715965e+01  -2.570767e+01
  -5.111955e+01  -4.314464e+01
  -1.087061e+01   1.676951e+01
   7.525974e+01  -1.737408e+01
   3.243994e+01   6.304199e+01
  -1.572305e+01   6.948086e+01
  -7.004570e+01   2.698858e+01
  -4.920677e+01  -5.719112e+01
   1.515624e+01  -8.646921e+01
   7.057272e+01  -7.113686e+01
   5.165986e+01   1.188992e+01
   3.157254e+01   3.321738e+01
   1.111908e+01   3.591227e+01
  -3.164909e+01   1.915080e+00
  -1.327852e+01  -2.479427e+01
  -1.876100e+01   1.236402e+01
   2.704238e+01  -2.450751e+01
  -9.111804e+01   9.804205e+00
  -5.031914e+01  -4.293452e+01
   1.017850e+01  -1.988708e+01
   4.721341e+01  -9.872217e+00
   1.036039e+02   4.431940e+01
   3.592106e+01   3.191384e+01
   1.270433e+01   5.447289e+00
  -7.511241e+00   4.687217e+01
  -1.562952e+00  -1.507458e-01
  -3.535180e+00  -4.209632e+00
  -6.594857e+00  -1.355241e+01
  -5.815664e-01  -6.740356e+00
  -3.603773e+01   7.869735e+00
  -5.248231e+01   1.092811e+01
   2.557475e+01  -1.016987e+01
   4.171472e+01   9.086198e+00
   1.249608e+01   5.359714e+01
  -2.720053e+01   4.966942e+01
  -1.032727e+02   2.694793e+00
  -9.712052e+01  -4.491244e+01
  -2.485356e+01  -9.116713e+01
   4.673245e+01  -8.878492e+01
   5.304515e+01  -3.092586e+01
   1.283749e+01  -6.922845e-01
  -2.681562e+01  -7.708482e-01
   2.053672e+01   1.277758e+01
   5.570843e+01   5.495476e+01
   3.532519e+01   4.332145e+01
   2.619469e+00   3.924492e+01
  -2.734145e+01   2.294039e+01
  -1.783775e+01  -3.968612e+01
  -1.366653e+01  -1.616185e+01
  -3.412660e+01  -4.909734e+01
  -5.153065e+00   1.767987e+01
   2.212053e+01   1.066518e+01
   4.210207e+01   2.937542e+01
  -1.524837e+01   4.608425e+00
  -5.681747e+01  -2.215396e+01
  -2.918617e+01  -1.891422e+01
   4.364581e+01  -3.703964e+01
   5.620588e+00  -1.826973e+01
   1.626118e+01   4.974342e+00
  -3.713362e+01   1.847074e+01
   1.660578e+01  -1.369548e+01
   3.545911e+01  -4.781722e+01
   5.234117e+01  -4.164373e+01
   1.365043e+01  -6.669176e+00
  -2.550371e+00   2.676705e+01
   8.001767e+00   8.758812e+01
  -2.270742e+01   1.240120e+01
   1.222977e+01  -5.655100e+01
  -8.025202e+00  -4.794188e+01
   1.106245e+01  -1.311224e+01
   2.343236e+01   4.530996e+00
   1.882168e+01  -2.595742e+01
   7.741769e+00   4.798326e+00
  -2.298742e+01  -5.085403e+01
  -1.835414e+01  -1.712816e+01
  -1.540265e+01   1.377187e+01
  -7.774035e+00  -1.711772e+00
  -3.255570e+01  -2.148986e+01
   2.001849e+01  -3.097634e+01
   4.556186e+01   2.876056e+01
   3.762844e+01  -1.008937e+01
   4.889672e+00   2.903171e+01
  -4.037733e+01  -2.352020e+01
  -7.512211e+01  -2.060021e+01
  -2.943616e+01  -4.879273e+01
   4.605399e+01  -1.977590e+01
   3.616525e+01   2.879444e+01
   8.671115e+00   4.943172e+01
  -1.838636e+01   1.715883e+01
   4.966417e+00   1.854439e+01
  -1.486273e+01   1.184250e+01
   2.759716e+01  -1.960191e+01
   1.113490e+01   1.747185e+01
  -2.909542e+01  -5.256798e+00
  -3.286656e+01   2.501553e+01
