
 $NMID
 id='ANONYMOUS ', fmtdat='(2E16.6)'
 volume=1.0
 tramp=1.0
 $END
   1.438732e+02  -1.005606e+02
   1.534454e+02   2.935552e+02
  -1.105443e+02   2.915264e+02
  -1.408870e+02   1.321896e+02
  -9.935817e+01   9.747516e+01
  -7.493663e+01   6.179337e+01
   5.582345e+01   1.243269e+02
   4.529253e+01   1.958296e+01
  -6.863348e+01   1.289655e+02
  -4.078246e+01  -8.058609e+01
  -3.838843e+00   2.750459e+01
   7.013310e+00   1.893302e+01
  -2.151930e+01   5.403971e+00
   2.649629e+00  -1.492875e+01
  -6.521256e+00  -3.815456e+01
  -4.037053e+01  -2.717248e+01
  -7.773437e+01  -3.422352e+01
   1.252007e+01  -3.380515e+01
   6.514243e+00  -1.427258e+01
   5.765325e+00   7.670323e+00
   2.676303e+01  -3.315554e-01
  -1.899005e+01   3.574171e+01
   1.059575e+00   2.153924e+01
  -2.768291e+00  -3.308832e+00
   4.061663e+01   5.580801e+01
  -1.490819e+01   6.395403e+01
  -1.032838e+02  -4.471091e-01
  -2.250716e+01  -7.657370e+01
  -9.412541e+00  -7.359124e+01
  -9.027370e-01  -1.147780e+01
   1.954439e+01   6.845199e+00
   2.580372e+01   2.198360e+01
  -7.451438e+01   4.293683e+01
  -9.372108e+01  -2.561639e+00
  -4.870751e+01   2.958792e+01
  -4.608172e+01   3.018314e+01
  -4.131142e+01  -1.031853e+01
  -3.414584e+00   6.672230e+01
  -2.878952e+01   5.009105e+01
  -4.935162e+01  -5.532238e+00
  -3.023885e+01  -5.896996e+01
  -1.401057e+01  -4.882349e+01
  -9.188974e+00  -3.182387e+01
   1.485064e+01   3.828541e+01
   2.748252e+01  -1.568389e+00
  -1.240694e+01  -4.619355e+01
   2.207042e+01   3.175433e+01
  -1.712248e+01  -1.400842e+01
   5.010334e+01   9.847389e+00
   9.839845e-02   1.982245e+01
  -2.388607e+00  -1.370025e+01
  -8.842431e+01  -2.289088e+01
   9.027733e-01  -4.356414e+01
   1.295816e+01   4.506215e+01
   1.571192e+01  -3.424069e+01
   4.268674e+01  -2.079973e+01
  -1.704453e+01  -3.345058e+01
   1.433370e+01  -1.040507e+01
   1.826724e+01   5.152757e+01
  -5.133422e+00   3.634435e+01
   6.705422e+00  -3.410679e+01
  -2.044068e+01   4.947590e+01
  -1.179743e+01   3.429104e+01
  -9.358809e+00   3.585726e+01
   1.752803e+01  -4.934110e+01
   3.206225e-02  -9.813112e+01
   2.730047e+01  -2.854534e+01
   2.878906e+01  -4.742886e+00
   4.542829e+00   1.421160e+01
   2.881439e+01   1.740843e+01
   4.359618e+01   6.820095e+01
   3.461638e+01   1.688488e+01
   4.860287e+01   3.818596e+01
  -2.560390e+01   7.975826e+00
  -2.859868e+00  -7.073167e+01
  -2.484742e+01  -6.421644e+01
   1.085885e+01   1.282189e+01
   6.734555e+00   2.119322e+00
   4.168460e+01   4.871555e+01
  -2.167430e+01   2.721319e+01
  -1.032072e+01   5.640535e+00
  -5.300090e+01  -3.037861e+01
  -6.131831e+00   8.260629e+00
   1.112698e+01  -1.131830e+01
  -1.685111e+01   2.478688e+00
   2.240909e+01  -1.969022e+01
   2.127636e+00   5.492893e+00
   3.961715e+01   5.504106e+01
   4.620289e+01  -2.126525e+00
   5.542180e+01   4.703798e+01
  -2.645311e+01   4.342805e+00
  -3.552729e+01  -6.475876e+00
  -4.992967e+01  -1.107820e+01
  -3.007198e+01  -1.392287e+01
  -1.133722e+01  -1.628753e+01
  -3.286611e+01  -2.563176e+01
  -2.846243e-01   1.525357e+01
  -3.616605e+01  -9.940016e+00
   4.550924e+01   2.565190e+01
   1.817755e+01  -2.627665e+01
   3.341172e+01   3.085120e+01
   2.425054e+01   3.105261e+00
  -4.044449e+01   1.331675e+01
  -1.976671e+01   3.913986e+01
  -1.634833e+01   1.955364e+01
  -4.686370e+01  -2.212930e+01
  -3.169990e+00  -6.829522e+01
   3.739504e+01  -1.803137e+00
   4.852018e+01  -2.558795e-01
  -1.306432e+01   3.290135e+01
   7.499662e+00   2.633180e+00
  -5.371103e-01  -2.088360e+01
  -1.059666e+01   1.414646e+01
   1.643780e+01   4.897729e+00
  -3.502111e+01   2.006583e+01
   1.473365e+01  -3.679400e+00
  -3.510062e+01   1.872867e+01
  -5.286380e+00  -2.679060e+01
   5.615010e+01  -2.378006e+01
  -3.600195e+01  -6.880865e+00
  -7.332501e-01   1.757995e+01
  -2.164627e+01   3.917507e+01
  -4.259352e+01  -4.127588e+01
   1.118981e+01  -1.663504e+01
   1.937205e+00  -1.396318e+01
   7.390126e+00  -1.435091e+01
   3.527839e+01   1.329723e+01
  -2.774193e+01  -2.671586e-01
   1.962228e+01   4.041583e+01
  -2.147571e+00  -1.031902e+01
   3.286521e+01  -3.377474e+01
   4.098963e+01   4.904665e+01
   2.474158e+01  -9.202027e+00
  -3.688267e+01   7.812319e+00
  -2.615112e+01   5.508052e+00
  -6.527424e+00  -1.692761e+01
  -1.936958e+01   6.082922e-01
  -2.651448e+01   7.976790e+00
   8.405100e+00   4.069510e+00
   3.019766e+01  -1.586022e+01
  -3.254319e+01  -3.354288e+01
  -9.190900e+00  -2.895500e+01
   6.128139e+00   2.327224e+00
   5.767889e+01  -7.965698e+00
  -8.923795e+00  -9.248862e+00
  -3.198813e+01   3.938770e+01
   2.324856e+01   5.551865e+00
  -2.574432e+01   2.237390e+01
  -1.273457e+00  -4.964823e+01
   1.860817e+00  -1.008169e+01
   1.518622e+00  -8.673081e+00
   3.614300e+01  -2.962263e+01
   3.018516e+01  -1.009428e+01
   6.996356e-01  -1.647926e+01
   1.526723e+01  -2.902164e+00
   3.523801e+01   3.990547e+01
  -3.856937e+00   3.358864e+01
  -7.403380e+00  -1.186491e+01
  -5.963188e+01   1.041838e+01
   7.411961e+00   1.568652e+01
  -1.465127e+00   1.817801e+01
  -3.341551e+01  -5.338336e+01
  -6.041283e+00   3.865718e+01
   2.480672e+01  -1.685388e+01
   1.300619e+01  -1.531311e+01
  -1.257078e+01   2.122798e+01
   1.652642e+01  -3.601078e+01
  -5.141746e+00   6.680544e+00
   3.251923e+01   1.443315e+01
  -6.188693e+00  -5.256345e+00
  -3.712819e+00   6.970305e+00
   3.900238e+00  -1.329216e+01
   1.924122e+01   1.590759e+01
   1.809002e+01  -1.629584e+01
   4.183339e+01   6.704834e+00
  -3.271623e+01  -5.638403e+00
  -2.955733e+01   2.305146e+01
  -1.989231e+01   1.103833e+01
   3.827560e+00   2.245077e+01
  -1.653949e+00   2.685561e+01
  -4.871454e+00  -7.278477e+00
  -3.965335e+01  -1.839613e+01
  -3.557445e+01  -2.802507e+01
   4.657839e+01  -2.637872e+01
  -1.301498e+00   2.962734e+01
  -1.631998e+01  -1.607788e+01
  -1.811943e+01  -7.504855e+00
   7.363231e-01   3.597601e+01
  -2.346024e+01  -4.085446e+01
  -1.687324e+01  -7.141888e+00
  -1.561286e+01  -7.284436e+00
   1.916390e+01  -3.004453e+01
   7.210051e+00   1.889884e+01
   1.384723e+01   2.340822e+01
  -5.307474e+00   1.938525e+00
   4.753371e+01  -2.307107e+01
  -4.251695e+00  -2.646070e+01
   3.770734e+00  -2.968170e+00
  -4.989476e+01   2.607568e+01
  -2.527774e+01  -2.526322e+01
  -1.751740e+01   2.461843e+01
   6.003086e+00  -2.521640e+00
  -1.121002e+01  -2.205641e+01
  -1.648013e+01   5.589680e+00
  -1.569441e+01  -1.130711e+00
  -3.722660e+01  -2.481653e+01
  -3.864973e+01  -3.310371e+01
  -3.299064e+01  -6.717592e+00
   2.014163e+01  -1.307004e+01
  -1.724119e+01   8.588306e+00
   3.133021e+01  -4.876973e+00
   5.650048e+00  -4.122410e+01
   1.009273e+01  -1.078927e+01
   1.681856e+01   5.082104e+00
   2.677900e+01   1.415721e+01
  -1.824729e+01  -4.740974e+00
  -3.332119e+00  -1.406029e+01
  -1.150796e+01   7.824863e+00
  -1.443964e+01  -6.179167e+00
   5.479283e+01  -5.421463e+00
   3.620122e+01   4.827817e+01
  -2.883398e+01   3.318947e+01
  -3.398569e+01   1.566666e+01
  -3.367548e+00  -7.082941e+01
  -5.765750e+00  -4.539951e+01
   1.036688e+00  -1.210910e+00
  -3.749908e+01   2.086412e+01
   1.874539e+01   4.144492e+01
  -9.561442e+00  -1.130005e+01
   9.113239e+00   4.225520e+00
   2.311209e+01  -1.395468e+01
  -2.436086e+00  -6.585189e+00
   2.522635e+01   5.567231e+00
   1.481242e+01  -1.552427e+01
   2.430325e+01  -2.232741e+01
   9.918308e+00  -1.540603e+01
   2.582152e+01  -8.704876e+01
   1.048976e+01  -2.903701e+01
   5.824202e+00   7.095698e-01
  -1.459531e+01  -5.064627e+01
  -4.159106e+00   1.370064e+01
  -5.486526e+00  -1.124808e+00
  -9.778891e+00   2.214623e+01
   4.827364e+00   1.862399e+01
  -5.353793e+00   4.069373e+01
   1.230303e+01   4.865145e+01
   8.773612e+00   2.565790e+01
  -3.045873e+01  -1.188783e+01
  -3.222704e+01  -1.777472e+01
  -3.475143e+01  -7.648086e+00
  -1.313143e+01  -2.239576e+00
   2.080966e+01  -1.992541e+01
   1.444081e+01   1.493511e+01
  -4.629393e+00   5.265365e+00
  -9.691402e-01  -3.418345e+01
  -1.346128e+01   2.063486e+01
   8.718552e-02   1.805447e+01
   5.292948e+00  -8.723424e+00
  -1.075628e+01   4.795553e+01
  -3.103331e+01   1.512711e+01
   1.875035e+01  -1.340360e+01
   4.986309e+00  -3.241895e+01
   3.936265e+01  -3.125782e+00
  -1.307083e+01   1.231281e+01
  -2.922261e+00   1.729585e+01
   7.282532e+00   2.013875e+01
  -1.555913e+01  -5.678327e+00
  -4.010987e+01  -2.857560e+00
   1.852775e+00  -1.062716e+01
   5.615997e-01  -1.194490e+01
  -2.912592e+01   9.476054e+00
   4.584626e+01  -2.676766e+01
  -3.276557e+01  -5.453496e+01
  -1.355238e+01  -2.347694e+01
  -6.388650e+00   3.672471e+01
   8.575905e+00   3.172586e+01
  -2.599466e+01  -1.984119e+01
  -2.223785e+01  -3.107805e+01
  -1.027267e+01  -3.579757e+01
   1.155113e+01   2.367861e+01
   3.023772e+00   1.628972e+01
   4.655433e+01   4.284853e+00
   1.697470e+01  -1.279098e+01
   5.706592e+01   4.999366e+00
  -2.023159e+01  -3.109504e+00
   1.473629e+01  -4.323382e+01
   3.637626e+01   1.107934e+01
  -3.034855e+00   5.722408e+01
  -3.100311e+01   1.945277e+01
  -7.595941e-01  -1.429046e+00
   2.603055e+01  -5.939121e+00
  -5.075827e+00   1.364213e+01
   6.765665e+00  -1.033826e+01
   1.492352e+01   2.465083e+01
  -5.361583e+01  -3.241320e+01
  -1.514795e-01  -2.544824e+01
  -2.568617e+01   7.995615e+00
  -3.774809e-01  -6.012441e+00
   1.862455e+01  -2.415470e+01
   1.658849e+01   6.681056e+00
  -2.825964e+01   1.360419e+01
   2.570525e+01   1.544635e+01
  -3.295114e+01   1.666024e+01
   4.003932e+00   1.238459e+01
   1.002139e+01   1.952643e+01
   1.737700e+01   9.950953e+00
  -4.016840e+00  -1.313197e+01
  -1.080592e+01  -3.217924e+01
  -1.753055e+01  -3.259963e+00
   1.095867e+01   2.420310e+00
  -4.859618e+01   2.443867e+00
   1.446525e+01   1.131462e+01
  -8.189433e+00   6.356366e+01
   3.177059e+01  -1.544559e+01
   8.145461e+00  -2.364921e+01
   9.765796e+00  -3.187553e+01
  -1.527716e+01  -3.296882e+00
  -2.768620e+01   3.374390e+01
  -4.182357e+01  -1.230482e+01
   2.969342e+01  -1.937417e+01
