
 $NMID
 id='ANONYMOUS ', fmtdat='(2E16.6)'
 volume=1.0
 tramp=1.0
 $END
  -4.175136e+03   7.839446e+01
  -2.297403e+03  -2.572481e+03
   6.519376e+02  -2.580889e+03
   1.786750e+03  -5.087770e+02
   7.932862e+02   7.056204e+02
  -6.824477e+02   6.010396e+02
  -9.001144e+02  -3.869989e+02
   1.090944e+02  -1.150154e+03
   7.578962e+02  -7.878524e+02
   9.515085e+02   1.066518e+02
   4.422992e+02   8.969620e+02
  -2.840711e+02   9.294755e+02
  -6.298757e+02   1.252378e+02
  -3.840534e+02  -6.702227e+02
   3.360388e+02  -7.452438e+02
   6.020077e+02   6.086558e+01
   2.650160e+02   7.390923e+02
  -3.284463e+02   6.208456e+02
  -5.939649e+02   5.768773e+01
  -3.534411e+02  -3.705067e+02
   4.185575e+01  -4.595701e+02
   2.760473e+02  -2.438034e+02
   2.228997e+02   3.572256e+00
  -8.196967e+01   1.171555e+02
  -4.632993e+02  -1.235275e+02
  -1.843945e+02  -4.816299e+02
   4.711099e+02  -4.081883e+02
   8.689301e+02   1.213710e+02
   3.931359e+02   5.330442e+02
  -4.207033e+02   4.215708e+02
  -7.282983e+02  -7.488928e+01
  -3.050133e+02  -5.486170e+02
   2.670931e+02  -5.101138e+02
   5.938472e+02  -1.999127e+02
   3.946374e+02   2.682089e+02
   3.828191e+01   5.023325e+02
  -2.491179e+02   2.165180e+02
  -1.699941e+02  -2.209108e+02
   2.378825e+02  -4.447846e+02
   4.616378e+02   2.624612e+01
   1.551926e+02   6.403846e+02
  -3.127126e+02   6.797215e+02
  -6.085298e+02   1.409177e+01
  -2.292944e+02  -5.577388e+02
   2.833628e+02  -2.897054e+02
   4.022661e+02   2.769568e+02
  -5.724919e+01   5.961016e+02
  -5.381542e+02   1.773953e+02
  -5.280653e+02  -4.142847e+02
  -1.076921e+02  -6.114821e+02
   4.362965e+02  -3.304460e+02
   6.666278e+02   9.683794e+01
   3.395405e+02   3.712989e+02
  -2.003577e+02   3.783436e+02
  -4.278521e+02  -1.057684e+00
  -2.128177e+02  -2.012212e+02
   1.266141e+02  -1.252497e+02
   1.077482e+02   1.824712e+02
  -1.816786e+02   2.491232e+02
  -3.332947e+02  -6.398353e+01
  -1.001112e+02  -2.984512e+02
   2.347227e+02  -2.955794e+02
   3.605084e+02  -7.142844e+01
   1.467582e+02   8.646785e+01
  -3.909712e+01   1.900546e+02
  -2.196338e+02   2.844886e+02
  -3.579987e+02   1.805327e+02
  -2.458803e+02  -1.251547e+02
   1.489730e+01  -3.986711e+02
   1.398263e+02  -2.964152e+02
   1.037718e+02  -8.544708e+01
  -5.644300e+00  -1.666537e+01
  -9.046176e-01  -1.024411e+02
   2.198135e+02  -1.096454e+02
   2.251286e+02   5.931715e+01
   1.671907e+02   2.292908e+02
  -5.532566e+01   2.616998e+02
  -2.167909e+02   2.331854e+01
  -1.364090e+02  -2.097704e+02
   1.356251e+01  -2.968143e+02
   2.596882e+02  -8.062808e+01
   3.333059e+02   2.284060e+02
   1.530402e+02   3.111238e+02
  -1.215992e+02   3.147982e+02
  -2.143230e+02   8.277334e+01
  -1.476010e+02  -1.804003e+01
  -9.226462e+01  -3.802356e+00
  -2.219722e+02   7.334676e+01
  -3.988256e+02  -3.549964e+01
  -2.356993e+02  -2.619962e+02
  -5.497489e+01  -4.586562e+02
   3.364229e+02  -4.060231e+02
   4.801761e+02  -1.537932e+02
   3.276139e+02   1.078675e+02
   5.205276e+01   2.816117e+02
  -1.174829e+02   2.476773e+02
  -9.420666e+01   4.053293e+01
   6.530315e+01  -1.269214e+02
   1.646281e+02  -5.658853e+01
   6.487196e+01   1.937528e+02
  -1.451464e+02   1.853423e+02
  -2.007339e+02  -4.026966e+01
   4.442177e+00  -1.947279e+02
   1.672619e+02  -2.679428e+01
   1.952424e+02   2.374556e+02
   1.545879e+01   3.208509e+02
  -2.343514e+02   2.059899e+02
  -2.975206e+02  -1.080520e+02
  -2.671743e+02  -2.335341e+02
  -6.035700e+01  -2.397723e+02
   1.159557e+02  -1.305876e+02
   1.349569e+02  -1.252057e+01
   7.233600e+01   4.803952e+01
  -7.829077e+01  -5.774022e+01
  -2.452180e+01  -1.498655e+02
   1.562929e+02  -1.104552e+02
   1.463360e+02  -8.845439e+00
   6.873628e+01   5.614842e+01
  -5.203519e+01   1.793554e+01
  -6.567144e+01  -7.686831e+01
   9.947262e+01  -1.346309e+02
   2.645487e+02  -3.060994e+01
   2.317753e+02   1.601420e+02
   6.879248e+01   2.414139e+02
  -1.897541e+02   2.570407e+02
  -3.115943e+02   1.368733e+02
  -1.405394e+02  -7.302780e+01
  -1.764164e+00  -1.022933e+02
   3.945117e+01  -1.721526e+01
   2.709296e+00   1.115837e+02
  -1.815189e+02   4.515194e+01
  -2.194874e+02  -9.712933e+01
  -6.738234e+01  -2.135150e+02
   8.941534e+01  -1.738428e+02
   1.543100e+02  -4.851169e+01
   7.275709e+01   6.300802e+01
  -3.486087e+01  -2.402425e+01
  -4.834183e+01  -3.974435e+01
   9.386072e+01  -1.489334e+02
   2.366527e+02  -1.894588e+01
   2.037471e+02   1.338855e+02
   2.214648e+01   1.979434e+02
  -1.656539e+02   1.610479e+02
  -1.956330e+02  -5.222064e+01
  -3.176948e+01  -1.354979e+02
   5.157703e+01  -9.514647e+01
   7.441919e+01  -1.700065e+00
  -3.883224e+01   5.898057e+01
   1.263736e+01  -3.791948e+00
  -2.702709e+00   1.796453e+01
   6.943737e+01   9.451292e+00
   7.339902e+01   2.811896e+01
   2.674434e+01   1.952547e+02
  -1.401329e+02   1.918603e+02
  -2.133263e+02   5.120354e+01
  -2.041774e+02  -1.473607e+02
  -6.317813e+01  -2.640189e+02
   1.037447e+02  -1.778893e+02
   1.120898e+02   6.013641e+00
   7.442573e+01   7.152901e+01
   1.878052e+01   2.840385e+01
   7.778780e+01  -7.093578e+00
   5.949617e+01   3.217065e+01
   8.221397e+00   3.811634e+01
  -5.144324e+01   9.833593e+01
  -7.218564e+01   3.113392e+01
  -1.169495e+02  -1.384623e+01
  -1.032898e+01  -1.095164e+02
   1.310206e+02  -8.106132e+01
   2.265737e+02   8.851941e+00
   7.690904e+01   2.258344e+02
  -9.280892e+01   2.252889e+02
  -2.584619e+02   4.099007e+01
  -2.576234e+02  -3.018902e+01
  -1.277953e+02  -2.019179e+02
  -1.008210e+01  -1.107422e+02
   7.798680e+01  -1.134979e+02
   7.482481e+01  -8.545581e+01
   5.619138e+01  -6.606774e+01
   9.809787e+01  -7.550804e+01
   1.234004e+02   3.026261e+01
   1.033935e+02   1.326726e+02
   4.754446e+01   2.241826e+02
  -1.051588e+02   1.715286e+02
  -1.698685e+02   3.445327e+01
  -1.305881e+02  -8.976646e+01
  -1.682217e-01  -1.799869e+02
   5.604575e+01  -8.547304e+01
   7.163170e+01   2.297951e+01
   3.447138e+01   8.206655e+00
  -2.141059e+01  -3.188230e+00
   7.410203e+01   3.363819e+01
   2.739304e+01  -7.700283e+00
   2.824608e+01   1.132539e+01
  -7.688420e+01  -8.788659e+00
  -1.887561e+02   2.109689e+01
  -1.243634e+02  -6.040243e+01
  -3.472128e+01  -7.713853e+01
   1.194996e+02  -7.182965e+01
   1.572457e+02   3.187836e+00
   5.861880e+01   7.010702e+01
  -1.589858e+01   3.248211e+01
  -7.380475e+01   1.856912e+01
  -2.271251e+01  -9.826001e+01
   5.450355e+01  -5.846236e+01
   3.957924e+01  -4.110072e+00
   4.444456e+00   5.866939e+01
   4.051340e+01   2.296082e+01
   4.367549e+01   4.795691e+00
   5.716979e+01  -3.627028e+00
   3.624589e+01   3.015485e+01
  -1.742376e+01   1.964882e+02
  -1.004131e+02   1.345588e+02
  -1.407003e+02   5.256562e+00
  -1.120848e+02  -1.189999e+02
   1.018276e+01  -1.273101e+02
   9.829209e+01  -4.787091e+00
   4.219353e+01   3.346618e+01
  -2.140381e+01   3.031577e+01
  -1.410511e+02  -3.812641e+01
  -6.459167e+01  -1.292506e+02
   9.011577e+01  -1.087516e+02
   1.876592e+02  -5.565662e+01
   1.443723e+02   7.691661e+00
   4.875527e+01   6.934372e+01
  -8.220657e+01   9.384974e+01
  -6.605778e+01   1.128354e+01
   5.594738e+01  -3.124851e+01
   7.632190e+01   2.066160e+01
   1.831711e+01   9.836452e+01
  -8.466434e+01   1.672647e+02
  -1.701490e+02   9.614487e+01
  -9.724718e+01  -3.835360e+01
  -1.251556e+01  -1.782908e+02
   6.218914e+01  -8.109038e+01
   9.620187e+01  -2.819165e+01
   6.834033e+01   1.159879e+02
  -2.508784e+01   3.836556e+01
  -3.509147e+01   2.461289e+01
  -5.661813e+01  -4.798488e+01
  -6.163077e+01  -3.334194e+00
   7.956803e+00   5.674305e+01
   3.708971e+00  -2.443987e+01
  -2.539218e+01  -1.360165e+02
  -3.038154e+01  -1.019644e+02
   4.528944e+01  -7.437408e+01
   1.503910e+02   3.137381e+01
   1.395310e+02   8.498200e+01
   3.437763e+01   7.109094e+01
  -1.096122e+02   4.713423e+01
  -9.688221e+01  -1.954160e+01
  -1.821999e+01   1.762901e+00
   6.382303e+01   3.646553e-01
   2.791981e+01   4.852341e-01
  -2.574576e+00   2.994980e+01
   2.117514e+01  -4.399519e+01
   7.067971e+01  -1.227807e+01
   8.899571e+01   2.978416e+01
   2.334944e+01   3.708587e+01
  -7.275014e+01   7.190237e+01
  -1.590619e+02   7.211053e+01
  -1.286566e+02  -6.145997e+01
  -2.320453e+01  -9.483547e+01
   5.947869e+01  -1.382458e+02
   7.044816e+01  -5.405274e+01
   1.841741e+01  -3.692575e+00
   3.014654e+01   9.148362e+00
  -4.742458e+00  -2.204919e+01
  -4.901108e+01  -2.516061e+01
   3.589021e+01   2.603893e+01
   3.025237e+01   2.934236e+01
  -2.181460e+01   7.400995e+01
  -7.898009e+01  -4.193581e+01
  -4.480559e+01  -1.082425e+02
  -9.364796e+00  -1.151590e+02
   1.185400e+02  -3.749057e+01
   9.649604e+01   4.477166e+01
   5.875868e+01   6.051493e+01
  -9.135004e+01   4.187327e+01
  -8.895006e+01  -3.155645e+01
  -2.722914e+01  -5.308833e+01
   2.422428e+01  -4.669636e+01
   2.542615e+01  -5.257813e+00
  -5.025535e+01   1.251631e+01
  -9.553198e+01  -4.325013e+01
   3.083070e+01  -3.686476e+01
   9.350454e+01  -5.651307e+01
   1.197012e+02  -6.760182e+01
   3.697545e+01  -3.903013e+00
  -5.256206e+01   5.426489e+01
  -2.567365e+01   9.470087e+01
  -8.827084e+01   5.643569e-01
   2.214667e+01  -2.278026e+01
  -3.399295e+01  -3.170737e+01
  -6.116785e+00  -1.776867e+01
  -1.540475e+01   6.593458e+01
  -3.943411e+01   4.800769e+01
  -1.806571e+01  -3.617745e+01
  -4.018787e+01   5.727978e-03
  -1.696839e+01   4.336010e-01
  -1.100284e+01   1.079654e+01
   9.382922e+00   3.304265e+01
   1.812109e+01  -2.119436e+01
   3.965668e+00  -5.438899e+00
   4.985380e+01  -3.812115e+00
   3.282357e+01   4.447557e+01
   4.183891e+01   5.895178e+01
  -2.589241e+01   2.655948e+01
  -4.384564e+01  -2.739336e+01
  -2.187688e+01  -4.195846e+00
  -8.000521e+00  -5.406658e+01
   7.709035e+01   1.722530e+01
  -9.531497e-01   1.936396e+01
   1.096769e+01   4.306480e+01
  -3.896570e+01   9.927457e+00
  -4.954590e+01  -8.821302e+00
  -9.619244e+00   4.896515e+01
   1.884044e+01   2.546052e+01
  -7.332431e+00   9.745582e+00
  -7.236498e+01  -1.357609e+01
