
 $NMID
 id='ANONYMOUS ', fmtdat='(2E16.6)'
 volume=1.0
 tramp=1.0
 $END
   3.806086e+03   3.845546e+02
   2.177107e+03   2.210245e+03
  -3.700088e+02   2.322182e+03
  -1.479356e+03   1.014744e+03
  -8.423315e+02  -3.201167e+02
   4.030319e+02  -4.180088e+02
   6.379422e+02   3.612949e+02
   5.014779e+01   8.774480e+02
  -6.848194e+02   6.593123e+02
  -8.578598e+02  -3.453541e+01
  -4.622379e+02  -6.655648e+02
   1.462431e+02  -8.147726e+02
   4.898535e+02  -1.514231e+02
   3.152701e+02   6.016238e+02
  -2.047758e+02   7.058219e+02
  -5.703759e+02   4.497031e+01
  -3.491202e+02  -5.709802e+02
   2.136688e+02  -5.884598e+02
   5.476187e+02  -1.447388e+02
   4.225054e+02   3.070525e+02
   3.180449e+01   4.196524e+02
  -2.099686e+02   2.346156e+02
  -1.755641e+02   8.381823e+00
   1.302607e+02  -5.935784e+01
   4.119356e+02   1.855597e+02
   1.152036e+02   4.604907e+02
  -4.308886e+02   3.527397e+02
  -7.068178e+02  -1.432003e+02
  -3.999003e+02  -4.566709e+02
   3.180735e+02  -3.816679e+02
   6.480750e+02   3.159701e+01
   2.844993e+02   4.023329e+02
  -2.421706e+02   4.532586e+02
  -4.615480e+02   2.077253e+02
  -3.403861e+02  -2.263883e+02
  -7.139063e+01  -4.212614e+02
   1.285332e+02  -2.015970e+02
   1.564280e+02   1.622411e+02
  -1.455715e+02   3.275763e+02
  -3.967552e+02  -8.050175e+01
  -1.632519e+02  -5.258315e+02
   2.574656e+02  -6.045829e+02
   5.255560e+02  -2.608134e+01
   2.386578e+02   4.478432e+02
  -2.560086e+02   2.562149e+02
  -3.070686e+02  -3.210578e+02
   1.048161e+02  -5.165964e+02
   4.838971e+02  -1.273793e+02
   5.300052e+02   3.904018e+02
   2.098807e+02   5.871543e+02
  -3.371422e+02   3.650351e+02
  -5.950331e+02  -4.245075e+01
  -3.939682e+02  -3.720975e+02
   6.254009e+01  -3.433368e+02
   3.540176e+02  -5.492553e+01
   1.691972e+02   1.229049e+02
  -7.401861e+01   5.609919e+01
  -1.148985e+02  -1.201988e+02
   1.871892e+02  -1.606613e+02
   3.079177e+02  -4.124529e+00
   1.240518e+02   3.271159e+02
  -1.758491e+02   2.836229e+02
  -2.986438e+02   1.501364e+02
  -2.220033e+02  -6.531593e+01
   1.595504e+01  -2.083176e+02
   2.482590e+02  -3.741196e+02
   3.676293e+02  -1.490472e+02
   2.619100e+02   1.658028e+02
   3.489953e+01   4.182640e+02
  -5.395724e+01   3.718453e+02
  -1.198300e+02   4.736139e+01
   2.665598e+00   6.216606e+00
  -4.339566e+01   6.055024e+01
  -1.783582e+02   1.216380e+02
  -2.611562e+02  -5.606819e+01
  -1.446997e+02  -2.697559e+02
   4.875551e+01  -2.678633e+02
   1.754823e+02  -2.957721e+00
   1.763495e+02   2.199374e+02
  -2.131026e+01   2.495067e+02
  -2.369973e+02   1.098711e+02
  -3.288428e+02  -1.638785e+02
  -1.360609e+02  -2.769960e+02
   7.120803e+01  -2.765909e+02
   1.757886e+02  -1.092667e+02
   1.518262e+02  -6.581511e+00
   5.481386e+01  -6.934401e+01
   2.181192e+02  -8.573532e+01
   3.884402e+02   4.579893e+01
   3.442281e+02   2.802660e+02
  -3.049091e+00   4.124648e+02
  -3.889032e+02   4.391038e+02
  -4.468057e+02   1.646627e+02
  -3.536968e+02  -1.092832e+02
  -2.293392e+01  -2.817733e+02
   1.102420e+02  -2.263732e+02
   6.137261e+01  -2.408690e+01
  -1.153163e+02   6.063351e+01
  -1.678293e+02  -1.335656e+01
  -3.007472e+01  -1.781169e+02
   1.437257e+02  -1.596837e+02
   1.743485e+02   4.930266e+01
  -3.329197e+01   1.401930e+02
  -1.371474e+02   5.650889e+01
  -1.452009e+02  -2.238586e+02
   2.504025e+01  -3.548932e+02
   3.174788e+02  -1.892041e+02
   3.762724e+02   8.230651e+01
   2.824972e+02   2.723506e+02
   3.207251e+01   2.731986e+02
  -1.668860e+02   1.426078e+02
  -1.713971e+02   1.214619e+01
  -2.830716e+01  -4.020732e+01
   6.872708e+01   4.694680e+01
   2.360679e+01   1.220487e+02
  -1.539987e+02   8.564737e+01
  -2.106015e+02  -2.233458e+01
  -5.528117e+01  -6.212912e+01
   6.521549e+01  -1.901352e+01
   8.384699e+01   7.904382e+01
  -8.176671e+01   7.377922e+01
  -3.002843e+02   2.211829e+01
  -2.761098e+02  -1.332545e+02
  -8.421313e+01  -2.689067e+02
   1.251955e+02  -2.538436e+02
   2.454664e+02  -1.248656e+02
   1.437864e+02   4.525913e+01
  -1.604406e+01   1.078000e+02
  -4.710311e+01   5.680462e+01
   3.250514e+00  -1.000604e+02
   1.679803e+02  -9.862359e+01
   2.123129e+02   7.771607e+01
   7.843348e+01   2.162427e+02
  -6.313651e+01   1.669687e+02
  -1.333144e+02   8.935731e+01
  -6.159123e+01  -6.624531e+01
   2.325985e+01  -2.220312e+01
   4.159752e+01   6.452911e+01
  -1.106051e+02   1.634621e+02
  -2.053659e+02  -9.447784e+00
  -2.026823e+02  -7.996596e+01
   4.138930e+00  -1.973111e+02
   1.593606e+02  -1.170795e+02
   1.803736e+02  -1.274834e+01
   7.431879e+01   1.008804e+02
  -9.197232e+01   6.395372e+01
  -1.158822e+02   4.217899e+01
  -1.079412e+01  -1.204615e+01
   2.119662e+01  -9.042831e+00
  -2.021814e+01   2.971971e+00
  -7.221088e+01  -1.662263e+01
  -8.565909e+01  -6.785880e+01
  -1.049569e+01  -1.321018e+02
   1.342743e+02  -1.347146e+02
   2.297753e+02  -3.796043e+01
   1.562601e+02   1.693370e+02
   4.245908e+01   2.129209e+02
  -7.294798e+01   1.598015e+02
  -1.166856e+02   1.335055e+01
  -4.506548e+01  -3.317617e+01
  -6.399326e+01  -1.621813e+01
  -4.870609e+01  -2.478345e+01
  -4.970047e+01   3.491730e+01
  -5.279043e+01  -2.051088e+01
   1.248300e+01  -6.993520e+01
   8.918533e+01  -2.584098e+01
   7.830718e+01   3.450198e+01
  -8.106018e+00   1.361865e+02
  -1.010613e+02   6.661520e+01
  -1.887459e+02  -4.111062e+01
  -3.798898e+01  -2.098521e+02
   8.542619e+01  -2.317752e+02
   2.766569e+02  -3.857038e+01
   2.383918e+02   5.123990e+01
   8.753965e+01   1.649680e+02
   1.180620e+01   1.482421e+02
  -1.075600e+02   6.395973e+01
  -5.839170e+01   6.361908e+01
  -5.714695e+01   7.583291e+01
  -1.160229e+02   7.049206e+01
  -1.226227e+02  -5.881365e+01
  -1.054690e+02  -1.803021e+02
  -5.136135e+01  -2.068167e+02
   7.201793e+01  -1.784118e+02
   1.602556e+02  -1.393625e+01
   1.190134e+02   1.233950e+02
   2.738227e+01   1.724899e+02
  -5.371051e+01   6.184938e+01
  -6.000199e+01  -1.897187e+01
   3.364446e+01  -1.916740e+01
   6.653636e+01  -4.288639e+01
  -1.426416e+01   2.847750e+01
  -9.651729e+01   2.867778e+00
  -5.050065e+01  -5.370907e+01
   2.129623e+01  -7.780375e+01
   1.176188e+02  -1.938719e+00
   1.611579e+02   3.534200e+01
   6.206364e+00   7.984165e+01
  -1.157182e+02   8.391362e+01
  -1.012404e+02  -3.210579e+01
  -2.539834e+01  -5.989296e+01
   7.327594e+01  -6.078465e+01
   5.604123e+01  -1.524623e+01
  -3.766972e+01   4.125306e+01
  -7.685576e+01   4.905804e+01
  -6.646785e+01  -2.160354e+01
  -4.527475e+01  -2.757695e+01
  -5.897124e+01   7.860867e-01
  -2.105796e+01  -3.069529e+01
  -7.101612e+01  -3.587456e+00
  -4.715605e+01  -6.373605e+01
   9.977111e+00  -1.328734e+02
   9.347038e+01  -1.604922e+02
   1.919539e+02  -6.757142e+00
   1.136679e+02   8.131371e+01
  -8.993406e+00   1.394079e+02
  -8.669868e+01   6.251409e+01
  -4.262437e+01  -3.021926e+00
  -9.956652e-01  -2.723033e+01
   1.267810e+02   7.539786e+01
   4.150067e+01   1.130439e+02
  -7.027757e+01   5.412754e+01
  -2.143842e+02   6.916026e+01
  -1.671790e+02  -3.982128e+01
   7.184256e+00  -6.303621e+01
   1.018556e+02  -7.291875e+01
   6.483171e+01   3.010293e+01
  -6.723216e+01   1.893845e+01
  -9.311548e+01  -4.584739e+00
  -3.159544e+01  -9.239005e+01
   5.525508e+01  -1.606163e+02
   1.695185e+02  -6.302285e+01
   1.272795e+02   9.800816e+01
  -1.632974e+01   1.377060e+02
  -1.178311e+02   1.863372e+02
  -1.175065e+02  -6.234370e+00
  -6.264381e+01  -1.180380e+02
   7.246040e+00  -1.106695e+02
   5.509896e+01  -7.489091e-01
   4.095514e+01   3.338708e+01
  -2.515353e+01   1.231664e+01
  -6.066631e+01  -8.034917e+00
   2.556786e+01   1.013646e+01
   2.576133e+01   8.972608e+01
   4.644132e+01   1.013427e+02
  -4.377928e+01   4.330826e+01
  -1.616437e+02  -5.017134e+01
  -1.414369e+02  -5.985897e+01
  -6.679895e+00  -4.925173e+01
   9.546331e+01  -2.454857e+01
   1.017252e+02  -5.684066e+00
  -4.412087e+00  -4.866724e+00
  -9.506946e+00   3.143864e+01
  -5.345092e+01   1.374356e+00
   3.136425e+01  -2.196131e+01
  -4.194187e+00  -1.283005e+01
  -7.610523e+01   2.897736e+01
  -9.945917e+01  -3.995674e+01
  -8.601226e+01  -8.327909e+01
   1.250786e+02  -1.593122e+02
   2.065209e+02  -6.675031e+01
   1.673682e+02   5.484190e+01
   9.548334e+00   1.564367e+02
  -8.359953e+01   1.296629e+02
  -1.600168e+02   4.557106e+01
  -1.744317e+01  -1.290069e+01
  -6.001019e+00  -3.296816e+01
  -2.798993e+01  -6.896577e+00
   1.178711e+01  -2.308869e+01
  -7.973847e+01  -5.218780e+01
  -6.295614e+01  -1.276268e+02
   1.916555e+01  -7.496533e+01
   7.130472e+01   1.508658e+01
   5.360170e+01   9.596077e+01
   2.638669e+01   1.167863e+02
  -7.604501e+01  -3.471111e+00
  -1.163262e+02  -2.318196e+01
  -4.032196e+01  -1.003332e+02
   5.821644e+01  -8.914134e+01
   8.592050e+01   1.058362e+00
   6.474038e+01   7.452782e+01
  -3.485034e+01   4.270354e+01
  -7.718806e+01   6.148587e+01
   2.266838e+01  -1.192591e+01
   6.831309e+01   4.519484e+00
   4.162267e+01   3.108487e+01
  -8.458120e+01   6.376030e+01
  -1.315005e+02   3.652938e+01
  -5.447772e+01  -1.795535e+01
   3.411330e+01  -6.777848e+01
   3.029893e+01  -1.114068e+02
   1.734613e+01   1.226235e+01
   4.372771e+00   7.257761e+01
   2.514899e+01   1.821313e+01
  -3.675351e+01  -7.914100e+00
   2.146219e+01  -2.542787e+01
  -1.497675e+01  -2.568136e+01
   4.631781e+01   7.838340e+00
   5.301062e+01   7.499300e+00
   1.361560e+01  -1.759391e+01
  -2.942856e+01  -5.423093e+01
  -6.381693e+01  -5.448497e+00
   4.034464e+00   5.195752e+01
  -1.310228e+00   2.330074e+01
  -5.286417e+01   4.464438e+01
  -5.515207e+01  -9.559489e+01
  -7.871527e+00  -5.521245e+01
   1.349098e+01  -1.573785e+01
   1.017064e+02   4.119634e+01
   3.229346e+01   6.063647e+01
  -8.883420e+01   3.904860e+01
  -6.947889e+01  -1.967847e+01
  -4.001988e+01  -8.912906e+01
   3.626557e+01  -2.833449e+01
   4.520084e+01  -1.124472e+00
   3.316609e+01  -1.688081e+01
  -1.755600e+01  -1.213987e+01
  -2.992305e+01  -2.570565e+00
  -2.162777e+01  -2.543935e+01
   7.510306e+01  -6.297050e+01
