
 $NMID
 id='ANONYMOUS ', fmtdat='(2E16.6)'
 volume=1.0
 tramp=1.0
 $END
  -2.295570e+03  -5.929378e+01
  -1.483124e+03  -9.138605e+02
   4.242657e+00  -1.335784e+03
   8.594632e+02  -7.049030e+02
   5.959976e+02  -1.666842e+02
   1.588392e+02   6.037187e+01
  -2.210283e+02  -9.690990e+01
  -2.367155e+01  -2.557575e+02
   2.901978e+02  -3.711841e+02
   4.469977e+02  -1.412321e+02
   3.183685e+02   3.199288e+02
   3.936824e+01   4.330667e+02
  -1.143326e+02   1.216148e+02
  -6.484476e+01  -1.768845e+02
   1.166442e+02  -3.139198e+02
   2.097265e+02  -5.878766e+01
   2.020797e+02   3.409206e+02
  -7.711382e+01   4.016105e+02
  -2.857825e+02   1.849756e+02
  -2.551256e+02  -3.363947e+01
  -7.345695e+01  -2.827295e+02
   7.056224e+01  -1.882774e+02
  -1.240734e+01  -8.052396e+01
  -1.206254e+02  -9.133988e+01
  -1.774354e+02  -2.607902e+02
   7.865260e+01  -1.754388e+02
   2.856687e+02  -7.849459e+01
   3.472104e+02   1.846854e+02
   1.212168e+02   1.593053e+02
  -1.702128e+02   7.682548e+01
  -3.094403e+02  -1.862503e+02
  -1.183834e+02  -2.557675e+02
   2.075838e+02  -2.218711e+02
   3.302622e+02  -8.158151e+01
   2.227233e+02   1.389016e+02
   1.088477e+02   1.932085e+02
   2.890801e+01   1.328141e+02
   2.086924e+01  -9.059773e+00
   1.107489e+02  -1.060405e+02
   1.061205e+02   1.438985e+02
  -1.225619e+01   3.994533e+02
  -1.929571e+02   3.286265e+02
  -1.424871e+02  -3.345847e+01
  -8.010718e+01  -2.171359e+02
   8.185983e+01  -6.600336e+01
   1.190223e+02   1.811334e+02
  -1.106959e+02   2.194255e+02
  -3.076196e+02   1.078088e+01
  -2.896328e+02  -3.366415e+02
  -1.527024e+02  -3.375839e+02
   1.633144e+02  -1.422551e+02
   3.266167e+02   3.729771e+01
   2.172865e+02   1.204074e+02
  -3.704721e+01   1.306200e+02
  -1.944635e+02   6.288333e+01
  -1.364986e+02  -1.561708e+01
   7.772866e+00  -3.708824e+01
   1.326384e+01   2.831872e+01
  -3.105016e+01   1.863784e+01
  -8.651244e+01  -3.212745e+01
  -6.909678e+01  -1.207633e+02
   7.163486e+01  -1.235682e+02
   2.347534e+02  -1.041336e+02
   2.047381e+02   6.772982e+01
  -6.492262e+00   2.392226e+02
  -2.174472e+02   2.810891e+02
  -2.924393e+02   1.006818e+02
  -1.628488e+02  -1.530550e+02
  -2.482961e+01  -3.281932e+02
   4.396849e+01  -2.457280e+02
   4.023339e+01  -1.522883e+02
   5.209542e+01  -9.384696e+01
   1.202330e+02  -2.581510e+01
   1.647442e+02  -1.428660e+01
   1.496757e+02   5.156219e+01
   6.430512e+01   1.418708e+02
  -5.563056e+01   1.404600e+02
  -6.822917e+01  -1.796661e+01
  -9.359162e+01  -1.420861e+02
   8.122896e+01  -1.687072e+02
   2.020943e+02  -6.629979e+01
   1.951964e+02   1.678167e+02
   1.503143e+02   2.348212e+02
  -2.922888e+01   1.815908e+02
  -1.293493e+02   8.945063e+01
  -1.261765e+02   3.085990e+01
  -1.401169e+02   5.914258e+01
  -1.559207e+02   5.513172e+01
  -2.068497e+02  -5.448399e+01
  -2.275462e+02  -2.015099e+02
   2.292099e+01  -2.987928e+02
   2.302591e+02  -2.070680e+02
   3.698052e+02  -1.559045e+02
   1.831796e+02   4.822121e+01
  -3.871563e+00   1.621360e+02
  -3.921298e+01   1.038199e+02
  -2.755052e+01  -9.989116e+00
   1.194865e+02  -1.631303e+01
   1.087067e+02   4.311082e+01
   1.945570e+01   8.861723e+01
  -7.460217e+01   8.415136e+01
  -3.788269e+01  -6.114158e+01
  -7.557746e+00  -7.302571e+01
   1.304467e+02   8.098104e+00
   1.587642e+02   1.819971e+02
  -2.870380e+01   2.611089e+02
  -1.621726e+02   1.833574e+02
  -2.594986e+02  -3.438057e+01
  -1.892682e+02  -1.749846e+02
  -5.064639e+01  -2.128789e+02
   7.589289e+01  -6.090827e+01
   1.029742e+02  -2.701989e+01
  -4.064225e+00   3.132622e+00
  -2.777579e+01  -6.554916e+01
   2.919040e+01  -5.009632e+01
   5.789756e+01  -1.006199e+01
   7.525299e+01  -1.189718e+01
   2.668091e+01   3.552298e+01
  -6.543668e+01  -2.629386e+01
   5.448140e+00  -2.163090e+01
   9.361794e+01  -6.108685e+01
   1.788438e+02   4.407730e+01
   1.518043e+02   1.412502e+02
  -1.756387e+01   1.840915e+02
  -1.676777e+02   1.561805e+02
  -1.792073e+02   2.309404e+01
  -6.871219e+01  -6.348836e+01
   2.407311e+01  -7.543045e+01
   2.748189e+01   1.227492e+01
  -3.378628e+01   8.847455e+01
  -1.315755e+02   1.707978e+01
  -1.313829e+02  -6.284339e+01
  -6.650351e+01  -1.067420e+02
   4.591803e+01  -8.306060e+01
   1.251282e+02  -8.162489e-02
   4.114114e+01   1.655770e+01
  -2.588600e+01   5.885357e+00
  -2.654121e+01  -1.091994e+02
   3.753519e+01  -3.243200e+01
   1.312763e+02   1.188934e+01
   1.346812e+02   9.302243e+01
   1.982982e+01   9.538808e+01
  -1.035219e+02   7.249643e+01
  -7.852000e+01  -7.670710e-02
  -5.370146e+01  -2.782238e+01
   6.906130e+01  -5.590870e+01
   2.755075e+01  -3.149322e+01
   2.724437e+01   1.298057e+01
  -2.581584e-01   1.055064e+01
  -1.373618e+01  -1.319854e+01
   1.684714e+01   3.558187e+01
   1.038169e+02   5.582402e+01
   7.529095e+00   1.160117e+02
  -1.027974e+02   1.133826e+02
  -1.604121e+02  -5.170049e+00
  -1.065129e+02  -8.986559e+01
  -2.809326e+01  -2.021923e+02
   5.172944e+01  -1.194198e+02
   4.451160e+01  -4.672497e+01
   5.951873e+01   8.538130e+00
   5.707135e+01   3.883188e+01
   3.500659e+01  -1.513140e+01
   7.383918e+01  -3.288177e+00
   1.751278e+01   3.541521e+01
  -3.395843e+01   8.491972e+01
  -8.219380e+01   4.318369e+01
  -2.683040e+01  -3.547901e+01
   2.806413e+01  -8.421394e+01
   9.421122e+01  -4.246625e+01
   1.598791e+02   7.190114e+01
   5.968884e+01   1.848976e+02
  -7.429589e+01   1.461886e+02
  -1.829524e+02   9.209192e+01
  -1.875919e+02  -1.860302e+01
  -3.435321e+01  -1.102507e+02
   2.533383e+01  -9.312314e+01
   5.365980e+01  -5.493744e+01
   4.777499e+01  -3.042391e+01
   2.784890e+01  -7.584418e+01
   6.758648e+01  -5.462806e+01
   6.474865e+01   5.018611e+01
   7.914046e+01   1.772851e+02
   5.831509e+01   1.187903e+02
  -9.561119e+01   1.132888e+02
  -1.222773e+02  -1.019953e+01
  -7.565881e+01  -7.365236e+01
   3.254901e+01  -8.951423e+01
   7.927044e+01  -2.985969e+01
   1.091063e+02   5.263472e+00
   5.547727e+01   5.678178e+01
  -2.884585e+01   4.218556e+01
   3.818274e+01   2.331858e+01
  -4.276697e+00   3.031120e+01
   3.120062e+01  -1.444789e+01
  -5.064212e+01   5.776282e+01
  -1.137799e+02   2.019547e+00
  -4.698284e+01  -6.166695e+01
  -1.357248e+01  -7.318538e+01
   5.972917e+01  -3.551456e+01
   8.572520e+01   4.709616e+00
   4.168951e+01   4.946771e+01
  -5.435624e+01   1.636412e+01
  -4.522349e+01  -1.909565e+01
  -2.900336e+01  -6.688401e+01
   5.418805e+01  -6.519171e+01
   7.506599e+01  -6.289817e+00
   4.469779e+01   3.893517e+00
   4.128653e+01  -7.107548e+00
   2.060202e+01   5.388266e+00
   4.975684e+01   3.729476e+01
   1.595612e+01   5.761647e+01
  -3.889864e+01   6.742990e+01
  -1.015471e+02   1.169840e+02
  -1.054506e+02  -1.077741e+00
  -5.766370e+01  -4.365928e+01
   1.360758e+01  -7.769227e+01
   4.967722e+01  -4.672495e+01
   9.113499e+01  -1.237330e+01
  -3.703594e+01  -2.729376e+01
  -8.765657e+01  -2.837204e+01
  -4.409584e+01  -6.336047e+01
   5.139710e+01  -1.019258e+02
   1.412206e+02  -2.203007e+01
   4.951567e+01   2.848067e+01
   2.677978e+01   6.743120e+01
  -2.342672e+01   1.554769e+01
  -6.268509e+01   2.497506e+00
   1.683157e+00  -7.828722e+00
   5.101039e+01   2.935250e+00
   3.922390e+00   9.286205e+01
  -8.768972e+01   7.490580e+01
  -9.136197e+01   2.722311e+01
  -8.656724e+01  -6.815971e+01
   5.059389e+01  -1.467589e+02
   2.854932e+01  -1.045149e+02
   6.174127e+01   1.361180e+01
   8.198862e+00   1.124543e+02
  -1.868963e+00   6.026046e+01
  -4.108892e+01   4.439624e+01
  -2.535984e+01  -4.268304e+01
   2.727314e+01   7.204081e-01
   3.028610e+01   9.242420e+00
  -3.076933e+01   2.787691e+00
  -3.021713e+01  -5.176878e+01
  -2.304912e+01  -8.710687e+01
   2.208846e+01  -4.079094e+01
   1.055348e+02   2.117239e+01
   8.707694e+01   6.371885e+01
   4.160959e+01   7.693284e+01
  -7.558699e+01   1.678581e+01
  -3.662439e+01   5.486086e+01
   1.083196e+01  -2.232826e+01
   2.442610e+01  -4.169311e+01
   7.983186e+00  -1.816754e+01
  -1.094407e+01  -2.751972e+01
   1.300009e+01  -2.958934e+01
   1.305335e+01   1.916445e+01
   2.417702e+01  -5.667540e+00
   3.085982e+01   6.760903e+01
  -8.424922e+01   1.026962e+02
  -1.350092e+02   2.112898e+01
  -1.013618e+02  -8.352346e+01
  -2.025792e+01  -1.134474e+02
   5.910345e+01  -1.441232e+02
   1.017563e+02  -1.007143e+01
   2.840394e+01   1.237979e+01
  -2.564871e+01   1.019970e+01
   2.650243e+01   5.948991e+01
  -1.256266e+01  -8.383451e+00
  -1.006216e+01   4.796730e+01
  -1.698607e+01   1.381415e+01
  -2.111004e+01   7.129966e+01
  -5.171697e+01  -2.598203e+01
  -8.646573e+01  -3.812878e+01
   7.675939e+00  -9.025958e+01
   2.184365e+01  -4.304709e+01
   7.076642e+01   7.861374e+01
  -5.126395e+00   1.156596e+02
  -8.195194e+00   3.871964e+01
  -7.259989e+01  -3.930912e+01
  -1.188187e+01  -5.355462e+01
   3.060806e+01  -2.031497e+01
   4.310525e+01  -3.812889e+01
  -8.820805e+00   2.023913e+01
  -4.286906e+01   5.624083e+01
  -3.940152e+01  -2.613204e+01
   5.103321e+01  -3.074933e+01
   9.208787e+01  -5.022026e+01
   8.446963e+01  -4.716937e+01
  -4.140641e+01   5.849901e+01
  -7.600504e+01   3.394587e+01
  -3.800972e+01  -2.075405e+00
   2.183744e+01  -8.946873e+00
  -2.401489e+00  -3.031829e+01
   4.848878e+01   1.926600e+00
   1.127957e+01   3.560663e+01
  -3.244477e+01   3.101751e+00
  -1.216004e+01   1.453342e+01
  -7.272948e+01   2.403461e+00
  -6.161319e+01  -4.609842e+01
  -2.627394e+01   1.890679e+01
   3.934276e+01   2.708863e+00
   8.581208e-01  -3.665201e+01
   5.313048e+01  -1.866035e+01
   3.861934e+01  -5.435736e+01
   7.856363e-01   2.259184e+01
  -1.263020e+01   5.889594e+01
  -1.430107e+01  -4.186622e+00
  -3.168269e+01  -2.498085e+01
  -4.005625e+01  -7.678771e+01
   3.098325e+01  -4.509981e+00
   7.189478e+01   2.476246e+01
   5.405866e+01   2.801376e+01
  -3.589988e+01   1.701690e+01
  -2.329590e+01   4.474507e+01
  -1.111571e+01   4.483091e+01
  -3.729743e+00  -1.773156e+00
   2.127377e+01  -1.009545e+01
  -1.785728e+01  -2.157324e+01
  -8.823812e+01  -2.909272e+00
