
 $NMID
 id='ANONYMOUS ', fmtdat='(2E16.6)'
 volume=1.0
 tramp=1.0
 $END
   4.153805e+03   5.083957e+02
   2.014352e+03   2.511519e+03
  -6.534880e+02   2.309149e+03
  -1.764978e+03   6.294974e+02
  -6.484125e+02  -7.447526e+02
   7.446510e+02  -4.946281e+02
   8.613979e+02   5.007925e+02
  -5.592125e+01   9.837513e+02
  -7.488147e+02   7.456577e+02
  -8.876593e+02  -1.277845e+02
  -3.196507e+02  -8.560673e+02
   2.911706e+02  -7.984537e+02
   6.288500e+02   1.232406e+01
   2.830370e+02   7.186650e+02
  -3.765157e+02   6.538015e+02
  -5.905930e+02  -6.096393e+01
  -2.074244e+02  -6.540233e+02
   4.026262e+02  -5.993445e+02
   5.415165e+02  -2.956699e+01
   3.257268e+02   3.812531e+02
  -1.323080e+01   4.484489e+02
  -2.338678e+02   1.989485e+02
  -1.932892e+02  -2.197511e+01
   1.550057e+02  -8.224149e+01
   4.260767e+02   7.375639e+01
   1.186368e+02   4.106856e+02
  -4.465343e+02   4.330506e+02
  -8.238722e+02  -2.365561e+02
  -3.349526e+02  -5.484014e+02
   4.075809e+02  -4.327089e+02
   6.972042e+02   5.365001e+01
   2.823602e+02   5.031307e+02
  -2.571684e+02   5.077961e+02
  -5.697839e+02   8.603865e+01
  -3.374711e+02  -3.108758e+02
   1.110431e+01  -4.694641e+02
   2.274464e+02  -1.882300e+02
   1.779013e+02   2.350763e+02
  -2.414808e+02   4.330607e+02
  -4.480531e+02  -6.539915e+01
  -1.473129e+02  -6.211149e+02
   3.853779e+02  -6.506508e+02
   5.859962e+02   3.568272e+01
   1.967407e+02   5.037749e+02
  -3.750234e+02   2.921266e+02
  -3.758043e+02  -3.062518e+02
   9.552163e+01  -5.121701e+02
   4.990688e+02  -1.964676e+02
   4.867952e+02   4.071508e+02
   1.236143e+02   5.316504e+02
  -4.014296e+02   2.270209e+02
  -5.846373e+02  -1.068540e+02
  -3.374713e+02  -3.986791e+02
   1.759586e+02  -2.965420e+02
   3.435245e+02  -1.620945e+01
   1.778802e+02   1.858775e+02
  -1.825755e+02   1.016234e+02
  -1.474703e+02  -1.408399e+02
   2.044122e+02  -1.918324e+02
   3.113248e+02   1.013556e+02
   1.417710e+02   2.943898e+02
  -2.337101e+02   2.396635e+02
  -2.991655e+02   8.468751e+01
  -1.821985e+02  -6.946923e+01
   9.682333e+01  -1.819157e+02
   2.240173e+02  -2.296106e+02
   2.993824e+02  -1.352886e+02
   2.553132e+02   1.211012e+02
   2.494276e+01   3.623851e+02
  -1.017913e+02   2.869083e+02
  -1.204537e+02   1.011090e+02
   3.809451e+01   2.090015e+01
  -5.424659e+01   8.141502e+01
  -1.421299e+02   1.452607e+02
  -2.575934e+02  -5.523552e+01
  -1.679795e+02  -2.181929e+02
   7.835660e+01  -2.409459e+02
   2.319768e+02  -2.816923e+00
   1.861946e+02   2.033672e+02
  -2.830939e+01   2.428772e+02
  -2.442725e+02   8.453453e+01
  -2.804134e+02  -1.514033e+02
  -1.217954e+02  -3.230355e+02
   1.198952e+02  -2.601594e+02
   1.923182e+02  -5.014434e+01
   1.478114e+02   2.477698e+01
   7.976486e+01  -1.025679e+01
   1.796690e+02  -5.828046e+01
   2.715554e+02   9.317575e+01
   2.342529e+02   2.413095e+02
  -3.109684e+01   3.695824e+02
  -2.649056e+02   3.725178e+02
  -4.245270e+02   1.263930e+02
  -2.958898e+02  -9.411312e+01
  -3.957232e+01  -2.582607e+02
   1.353577e+02  -2.100554e+02
   8.958021e+01  -3.795751e+01
  -8.061275e+01   9.045558e+01
  -1.543255e+02   1.227787e+01
  -2.236487e+01  -1.908852e+02
   1.675156e+02  -1.504708e+02
   1.852933e+02   5.106574e+01
  -1.183697e+01   1.634722e+02
  -1.716794e+02   7.687815e+01
  -1.823529e+02  -2.560745e+02
   3.836965e+01  -3.336980e+02
   2.334852e+02  -2.024314e+02
   3.095268e+02   5.165690e+01
   2.495304e+02   2.136284e+02
   5.889074e+01   2.441801e+02
  -1.187976e+02   1.416651e+02
  -1.394429e+02   3.864917e-01
  -4.742314e+01  -5.817469e+01
   5.604388e+01   4.351609e+01
   2.263776e+01   1.391652e+02
  -1.451225e+02   8.345423e+01
  -1.559502e+02  -4.837721e+01
  -7.670541e+01  -3.870826e+01
   6.285982e+01  -2.888260e+01
   6.872618e+01   5.094243e+01
  -1.254887e+02   8.805228e+01
  -2.338359e+02   6.221523e+01
  -2.308281e+02  -9.168530e+01
  -4.755797e+01  -2.081258e+02
   1.760606e+02  -2.211955e+02
   2.795665e+02  -7.369404e+01
   1.471897e+02  -4.927462e+00
   1.995868e+00   9.085296e+01
  -4.895743e+01   6.370071e+00
   5.965114e+01  -1.017793e+02
   1.747437e+02  -8.288359e+01
   2.055010e+02   9.363765e+01
   6.644890e+01   1.951160e+02
  -1.445415e+02   1.045046e+02
  -1.215899e+02   5.188540e+00
  -1.735866e+01  -6.328471e+01
   4.380753e+01   5.478830e+00
   3.742873e+01   9.972502e+01
  -6.825802e+01   1.149340e+02
  -1.844099e+02   1.356571e+01
  -1.493294e+02  -1.139770e+02
  -3.433196e+01  -2.022288e+02
   1.525592e+02  -1.600572e+02
   1.743884e+02  -5.139056e+01
   4.493372e+01   1.139779e+02
  -3.548641e+01   1.707085e+02
  -7.650365e+01   4.546088e+01
  -2.319602e+01  -2.366176e+01
   5.140668e+01  -4.091489e+01
  -1.179519e+01   2.990680e+01
  -5.570719e+01   4.974803e+00
  -1.020853e+02  -6.964847e+01
  -2.740248e+01  -1.093541e+02
   1.287923e+02  -1.715372e+02
   1.796326e+02  -2.834141e+01
   2.142885e+02   1.301942e+02
   8.769736e+01   1.978163e+02
  -1.103851e+02   1.761404e+02
  -1.671397e+02   3.325069e+01
  -9.838782e+01  -8.714719e+01
  -4.685135e+01  -4.599390e+01
  -5.392181e+01   2.683393e-01
  -6.990218e+01   5.409868e+01
   2.938234e+00  -7.355479e+01
   6.468521e+01  -5.435844e+01
   8.707287e+01   7.459194e+00
   7.672148e+01   6.477467e+01
  -4.285923e+01   9.410269e+01
  -1.238754e+02   8.753476e+01
  -1.185040e+02  -4.516508e+01
  -8.103354e+01  -1.741042e+02
   9.769388e+01  -1.847827e+02
   2.368437e+02  -1.167690e+02
   2.138541e+02   9.011284e+01
   1.031962e+02   1.766383e+02
  -1.441979e+01   1.162900e+02
  -1.060176e+02   9.520993e+01
  -1.095588e+02   3.849221e+01
  -5.386730e+01   7.790662e+01
  -5.945731e+01   5.107546e+01
  -7.377142e+01  -1.380944e+01
  -1.306329e+02  -1.320314e+02
   3.949223e+00  -1.409463e+02
   1.014583e+02  -1.361965e+02
   1.840537e+02  -1.081536e+01
   8.270787e+01   1.080425e+02
  -2.098744e+00   1.363129e+02
  -5.595884e+01   9.020824e+01
  -6.932880e+01  -1.538993e+01
   1.893953e+01  -1.887350e+01
   1.369267e+01  -4.254419e+01
  -3.807662e+01  -3.880432e+01
  -5.952492e+01  -4.689912e+01
  -2.202122e+00  -7.217111e+01
   7.289349e+01  -1.665863e+01
   1.333456e+02  -9.763902e+00
   7.877947e+01   5.547197e+01
  -1.113600e+01   8.138179e+01
  -1.066851e+02   7.331062e+01
  -9.439863e+01   3.506509e+00
  -3.917474e+01  -8.481708e+01
   6.334125e+01  -3.104803e+01
   8.179562e+01   6.091448e+01
   2.603158e+00   6.299427e+01
  -6.066290e+01   1.011351e+01
  -6.726573e+01  -2.725389e+01
  -2.144123e+01  -9.922665e+01
  -6.380328e+01  -6.056793e+01
  -3.674829e+01   5.195692e+01
  -4.581388e+01  -2.081438e+01
  -3.788497e+01  -7.996302e+01
   4.573885e+01  -9.184300e+01
   1.103573e+02  -9.567002e+01
   1.234928e+02  -1.134070e+01
   1.008981e+02   4.893175e+01
  -2.084464e+01   1.420727e+02
  -1.077609e+02   2.879850e+00
  -2.509018e+01   2.540144e+00
   4.042564e+01  -6.236818e+01
   1.152955e+02   4.485138e+01
   3.411431e+01   9.552078e+01
  -4.312557e+01   9.640503e+01
  -1.479597e+02   4.555650e+01
  -1.314988e+02  -5.592146e+01
  -2.971359e+01  -5.060083e+01
   2.871495e+01  -6.493989e+01
   4.817635e+01  -1.255517e+01
  -3.519748e+01   3.631683e+01
  -3.207110e+01  -2.374039e+01
  -8.724983e+00  -1.028800e+02
   9.523356e+01  -1.320429e+02
   1.521087e+02  -5.073532e+01
   7.254530e+01   9.815999e+01
  -1.468202e+00   1.442573e+02
  -1.218824e+02   9.355909e+01
  -8.063231e+01  -8.848450e+00
  -3.446968e+01  -1.008520e+02
   4.005248e+01  -1.013922e+02
   6.688044e+01   3.246995e+01
   4.937237e+01   6.388429e+01
   1.636955e+01   1.897224e+01
   9.807426e+00   5.773683e+00
   1.093222e+01   2.637791e+01
   6.950112e+01   1.342469e+02
   3.360408e+01   1.008047e+02
  -3.587638e+01   1.853552e+01
  -1.456590e+02  -5.226526e+01
  -8.855094e+01  -3.659837e+01
  -2.453677e+01  -2.410562e+00
   6.234435e+01  -1.047115e+01
   6.976627e+01   2.266775e+01
  -1.742199e+01  -1.171480e+01
  -3.685355e+01  -2.665204e+01
  -2.271077e+01   8.432167e+00
   2.961562e+01   2.621276e+01
  -1.778749e+01   1.185093e+01
  -8.270445e+01  -1.632216e+01
  -7.057667e+01  -2.405573e+01
   1.374306e+01  -7.549811e+01
   1.044288e+02  -9.239084e+01
   1.645730e+02  -3.130753e+01
   1.102802e+02   7.176850e+01
   1.495776e+01   9.931638e+01
  -3.057884e+01   9.745837e+01
  -8.753070e+01   2.665977e+00
  -9.903771e+01  -1.259161e+01
  -1.866507e+01  -3.660564e+00
  -1.710137e+01  -1.452634e+01
  -6.953163e+00   2.748814e+00
  -3.507786e+01  -5.607096e+01
   3.896403e+01  -8.086428e+01
   3.350571e+01  -5.017139e+01
   8.025784e+01  -7.460514e-01
   3.773779e+01   1.046920e+02
  -6.348250e+00   1.237297e+02
  -1.236953e+02  -3.780475e+01
  -6.458519e+01  -6.359249e+01
  -1.825182e+01  -6.935674e+01
   6.055273e+01  -1.452227e+01
   5.150003e+01   1.967638e+00
   1.939484e+01   6.511545e+01
   4.050050e+00   6.199610e+01
  -2.489949e+01   2.520833e+01
   4.164710e+01   3.256640e+01
   5.240528e+01  -2.444056e+01
  -1.233133e+01   5.981695e+01
  -1.109177e+02   6.163327e+01
  -9.993451e+01   2.584099e+01
  -1.900069e+01  -1.932068e-01
   2.911727e+01  -3.765835e+01
   2.432489e+01  -5.284846e+01
   7.212485e+01   3.357600e+01
   7.874100e+00   4.709593e+01
  -1.154389e+01   5.732488e+01
  -5.024693e+01  -2.617322e+00
  -2.947014e+01  -3.881496e+01
   2.964637e+00  -1.926069e+01
   2.295619e+00   1.587455e+01
  -3.181331e+01   1.906349e+01
   2.547756e+01  -4.272458e+00
   1.340305e+01  -6.302418e+00
  -2.691476e+01  -1.932693e+00
  -4.450232e+00   2.898870e+01
  -4.200962e+00   3.958468e+01
  -5.704901e+01   3.047448e+01
  -6.274677e+01  -3.703291e+01
  -3.531531e+00  -1.350992e+02
   1.616993e+01  -1.731269e+01
   8.705477e+01   4.270077e+01
   5.945987e+00   1.310870e+00
  -8.208120e+01   4.627170e+01
  -8.524849e+01   1.641609e+01
  -7.546205e+01  -2.346782e+01
   3.457606e+01  -5.200192e+00
   1.928787e+01  -1.231950e+01
   3.428726e+01   3.241327e+00
  -2.882464e+01  -5.754277e+01
  -5.419796e+00  -4.220236e+01
   8.008803e+00   1.511132e+01
   6.980176e+01   1.761520e+01
