
 $NMID
 id='ANONYMOUS ', fmtdat='(2E16.6)'
 volume=1.0
 tramp=1.0
 $END
   3.072048e+03   1.313424e+01
   1.747665e+03   1.371556e+03
  -9.792200e+01   1.741592e+03
  -9.878780e+02   9.706017e+02
  -6.808335e+02   1.802315e+02
   1.647186e+01  -1.185885e+02
   3.436138e+02   1.394370e+02
  -2.724475e+01   4.032577e+02
  -4.005414e+02   4.686250e+02
  -5.785320e+02   7.187456e+01
  -3.530949e+02  -3.663325e+02
   4.213713e+00  -5.411320e+02
   2.130790e+02  -1.055871e+02
   1.443799e+02   3.391992e+02
  -1.181564e+02   4.134283e+02
  -3.159007e+02   1.828202e+01
  -1.994065e+02  -4.003800e+02
   1.187875e+02  -4.824878e+02
   3.910437e+02  -2.117274e+02
   3.494653e+02   1.204352e+02
   1.023561e+02   2.988180e+02
  -9.810132e+01   1.952499e+02
  -2.164148e+01   6.791690e+01
   1.606953e+02   8.567921e+01
   2.235601e+02   2.813558e+02
  -4.193914e+01   3.392518e+02
  -4.103683e+02   1.178018e+02
  -5.328258e+02  -2.236968e+02
  -2.024532e+02  -3.161344e+02
   2.853718e+02  -1.539016e+02
   4.451796e+02   1.635520e+02
   1.451772e+02   3.498991e+02
  -2.279802e+02   3.022178e+02
  -4.124724e+02   1.321159e+02
  -2.981617e+02  -1.613571e+02
  -8.621992e+01  -2.916058e+02
   3.901579e+01  -2.049884e+02
  -2.277912e+00   9.597165e+01
  -1.374118e+02   1.638276e+02
  -1.899755e+02  -9.740663e+01
  -3.786159e+01  -4.595813e+02
   2.164752e+02  -3.207694e+02
   2.748808e+02   1.953406e+01
   8.360581e+01   2.972942e+02
  -1.527757e+02   1.040986e+02
  -1.503914e+02  -2.939906e+02
   1.082088e+02  -2.861664e+02
   3.556586e+02  -1.227222e+01
   3.451686e+02   3.591571e+02
   8.688391e+01   4.852147e+02
  -2.533715e+02   1.793212e+02
  -4.637835e+02  -1.154112e+02
  -2.770926e+02  -2.177350e+02
   6.939135e+01  -1.680720e+02
   2.357899e+02  -2.092955e+01
   1.899479e+02   5.019365e+01
   4.638657e+01   2.800835e+01
  -4.805376e+01  -6.077935e+01
   9.408607e+01  -2.485548e+01
   1.045570e+02   4.124290e+01
   7.145642e+01   1.420389e+02
  -1.444678e+02   1.502966e+02
  -3.083940e+02   1.132698e+02
  -2.320166e+02  -1.051537e+02
   4.623302e+01  -2.682221e+02
   2.586679e+02  -3.367564e+02
   3.017875e+02  -1.365644e+02
   2.515330e+02   1.501170e+02
   5.296727e+01   3.155242e+02
  -1.078846e+02   2.467874e+02
  -3.678889e+01   1.422194e+02
  -1.653237e+01   1.238945e+02
  -6.666589e+01   3.193187e+01
  -2.343615e+02   9.809228e+01
  -2.334106e+02  -9.478165e+01
  -8.894624e+01  -2.134910e+02
   1.313631e+02  -1.717031e+02
   1.550788e+02   2.633050e+01
   6.915374e+01   1.796527e+02
  -8.019578e+01   2.124599e+02
  -2.500240e+02   3.407905e+01
  -3.046790e+02  -1.546858e+02
  -1.501431e+02  -2.710870e+02
   7.693709e+01  -2.330081e+02
   1.160710e+02  -9.153457e+01
   1.416682e+02  -4.700505e+01
   1.087878e+02  -5.671737e+01
   2.414400e+02   2.442019e+01
   3.380797e+02   1.212142e+02
   2.761136e+02   2.561975e+02
  -3.379667e+01   3.712818e+02
  -2.583569e+02   2.793335e+02
  -3.851450e+02   8.557698e+01
  -2.299342e+02  -5.355776e+01
  -1.454699e+00  -1.645275e+02
   1.409936e+02  -8.394220e+01
  -8.667061e+00  -4.216430e+01
  -1.104879e+02   4.628341e+01
  -1.076800e+02  -4.618689e+01
   1.618456e+01  -1.536315e+02
   7.289336e+01  -5.425884e+01
   3.993782e+01   4.016214e+01
  -3.145784e+01   8.445469e+01
  -1.365718e+02  -3.203772e+01
  -1.089228e+02  -1.891861e+02
   3.636032e+01  -2.629963e+02
   2.363522e+02  -1.567323e+02
   3.062078e+02   7.949624e+01
   2.452048e+02   2.431095e+02
  -3.999652e+01   2.095213e+02
  -9.785328e+01   9.877999e+01
  -9.637661e+01   2.175073e+01
  -4.043319e+00   1.878800e+00
   5.639080e+01   7.434291e+01
  -7.651423e+00   9.022894e+01
  -1.324406e+02   5.276043e+01
  -1.508370e+02  -3.867496e+01
  -1.313217e+01  -6.390976e+01
   6.789737e+01   3.275455e+01
   9.108886e+01   5.327459e+01
  -1.325036e+02   6.972488e+01
  -2.007805e+02  -1.517880e+01
  -1.878279e+02  -1.194412e+02
  -7.035372e-01  -2.234570e+02
   1.890213e+02  -1.564763e+02
   2.179552e+02  -2.505896e+01
   8.324530e+01   2.233463e+01
  -8.061116e+01   8.407124e+01
  -4.152850e+01  -6.754067e+00
   8.829146e+01  -6.548185e+01
   1.806210e+02  -1.678140e+01
   1.408472e+02   8.112338e+01
   5.043604e+01   1.964004e+02
  -1.011103e+02   1.426109e+02
  -1.374043e+02   1.119412e+01
  -4.765669e+01  -3.593931e+01
   3.438487e+01   5.585249e+01
   2.689593e+01   1.110243e+02
  -1.378619e+02   1.173988e+02
  -1.915538e+02   4.898811e+00
  -1.672914e+02  -8.928484e+01
  -9.502364e-01  -1.226964e+02
   8.109539e+01  -1.159212e+02
   6.854995e+01   3.468441e+00
   4.114966e+01   7.158845e+01
  -6.125443e+01   4.365441e+01
  -1.234520e+01   9.483544e+00
   1.882409e+01  -1.410552e+01
   1.092795e+01  -7.162358e+01
  -1.349514e+01   1.191676e+01
  -8.410026e+01   5.884983e-01
  -8.987887e+01  -4.045343e+01
  -1.569524e+01  -1.141521e+02
   1.438785e+02  -1.226780e+02
   1.913762e+02   2.909448e+01
   1.425971e+02   1.181664e+02
   1.185461e+01   2.226020e+02
  -1.306044e+02   1.491590e+02
  -5.881536e+01   8.439162e+00
  -4.482859e+01  -5.006790e+01
  -4.384757e+01  -2.661123e+01
  -2.699846e+01  -7.787694e+00
  -1.043823e+02  -3.358083e+00
  -7.907151e+01  -6.497531e+01
   2.783584e+01  -8.761484e+01
   1.268433e+02  -4.140124e+01
   7.622527e+01   5.892660e+01
  -2.252664e+01   1.122722e+02
  -1.501971e+02   5.857205e+01
  -1.845601e+02  -5.329344e+01
  -8.522396e+01  -1.852352e+02
   8.442244e+01  -1.811794e+02
   2.258417e+02  -7.436025e+01
   1.636424e+02   6.012034e+01
   4.433427e+01   1.657641e+02
  -3.301710e+01   8.824885e+01
  -3.518316e+01   3.327849e+01
  -4.880756e+01   5.259783e+01
  -4.865633e+01   9.225144e+01
  -8.271216e+01   7.319665e+01
  -9.761559e+01   2.319411e+00
  -9.003858e+01  -1.427514e+02
   8.319441e+00  -1.950307e+02
   1.021598e+02  -7.610407e+01
   1.291631e+02  -2.388390e+01
   7.587679e+01   8.963107e+01
  -1.687524e+01   1.411333e+02
  -6.310873e+01   9.322508e+01
  -5.026699e+01   2.632128e+01
  -1.484628e+01   1.927532e+00
   1.533096e+01  -6.952962e+01
  -4.989812e+01   3.945365e+00
  -8.095100e+01   6.259611e+00
  -4.931597e+01  -3.741481e+01
   6.803764e+01  -3.502320e+01
   1.737825e+02   1.991959e+01
   1.211313e+02   6.451752e+01
   1.499439e+01   4.697483e+01
  -9.801885e+01   1.086053e+02
  -1.404921e+02   5.619736e+00
  -5.845538e+01  -6.283551e+01
   2.229787e+01  -3.802278e+01
   8.208799e+01   3.801896e+01
   9.273314e+00   9.866849e+01
  -4.792026e+01   6.919552e+01
  -3.897774e+01   1.072350e+01
   1.281198e+01  -5.015211e+01
  -2.558570e+01   5.826462e+00
  -5.125547e+01  -1.221864e+01
  -9.861068e+01  -2.968891e+01
  -4.653243e+01  -3.248600e+01
   4.909744e+01  -9.481413e+01
   1.329931e+02  -1.192430e+02
   1.527366e+02  -4.968464e+01
   1.305250e+02   7.212701e+01
   1.328384e+01   1.155758e+02
  -8.383973e+01   5.938271e+01
  -3.129281e+01  -3.288064e+01
   3.408329e+01  -2.831765e+01
   1.154684e+02   4.227700e+01
   6.524847e+01   9.183576e+01
  -9.418261e+01   1.129116e+02
  -1.449004e+02   3.197009e+01
  -1.592625e+02  -1.175118e+01
  -1.825878e+01  -1.006522e+02
   6.041171e+01  -1.038573e+02
   2.411886e+01  -9.571615e+00
   1.470973e+01   2.612629e+01
  -5.489272e+01  -2.653129e+01
  -5.605841e+01  -1.378252e+02
   5.873581e+01  -1.738720e+02
   1.109156e+02  -7.792294e+01
   1.137156e+02   6.046886e+01
   2.685483e+01   1.701127e+02
  -7.041791e+01   9.595671e+01
  -8.877449e+01  -1.321474e+01
   1.362045e+01  -7.053879e+01
   1.438524e-01  -6.817871e+01
   7.128537e+01   2.356964e+01
   2.017410e+01   1.759273e+01
   7.240152e+00   3.716010e+01
   1.452784e+01  -2.379684e+01
   3.059824e+01  -2.228455e+00
   5.236622e+01   1.007702e+02
   7.601429e+00   1.110887e+02
  -1.236979e+02   3.571949e+01
  -1.240283e+02  -9.828675e+01
  -1.644404e+02  -6.398299e+01
  -5.549809e+01  -4.421448e+01
   7.641869e+01   6.780385e+00
   8.059852e+01  -3.932302e+01
   8.880862e+00  -6.889988e+00
  -2.030359e+01   1.315608e+01
  -5.203147e+00  -2.378709e+01
   3.597336e+01   7.469221e-01
  -4.063536e+01  -2.247353e+01
  -4.180304e+01  -1.102940e+01
  -9.094259e+01  -6.884680e+01
  -1.277331e+00  -6.192261e+01
   8.587815e+01  -1.214964e+02
   1.492768e+02  -6.034501e+01
   7.363406e+01   5.408290e+01
  -3.071099e+01   1.470063e+02
  -6.482710e+01   1.511333e+02
  -1.115989e+02   5.059324e+01
  -6.185037e+01  -2.306971e+01
   9.683671e+00  -2.734547e+01
   3.825943e+01   2.021456e+01
   5.738497e+00  -3.205599e+00
   3.116882e+01  -1.774506e+01
  -1.737387e+01  -9.303933e+01
   7.105402e+00  -3.994625e+01
   2.503303e+01  -2.261824e+01
   7.892752e+01   1.046478e+02
   2.372115e+01   9.925026e+01
  -5.690607e+01   2.778475e+01
  -5.075808e+01  -7.833967e+01
  -3.617767e+01  -8.077933e+01
   6.361400e+01  -2.805058e+01
   8.339975e+01  -1.223823e+01
   3.410671e+01   3.884007e+01
  -4.453354e+01   4.761454e+01
  -5.403813e+01   2.441177e+01
   2.102887e+01   3.028644e+01
   4.633261e+01  -4.547154e+00
   2.405020e+01  -1.501526e+01
  -9.655177e+01   4.233872e+01
  -1.145527e+02   4.054589e+01
  -4.433280e+01  -1.533936e+01
  -1.322943e+01  -5.396645e+01
   8.404869e+01  -5.312686e+01
   4.732574e+01  -1.299212e+01
   1.007996e+00   7.733402e+01
  -4.275305e+01   4.299525e+01
  -5.280523e+01  -3.633005e+01
  -2.237564e+01  -2.390786e+01
  -3.842043e+01  -2.629806e+01
   5.373002e+01  -3.195091e+01
   4.983026e+01   2.112823e+01
   3.796735e+01   3.263876e+01
   2.002787e+01  -1.613096e+00
  -6.479773e+01   1.133368e+00
   1.838955e+01   5.423067e+01
   7.845081e+00   2.552386e+01
  -3.943863e+01   2.557182e+01
  -1.908790e+01  -4.098114e+01
  -1.520971e+00  -7.699466e+01
   5.761925e+01  -2.457643e+01
   5.756610e+01   1.907345e+01
  -1.079053e+00   7.964123e+01
  -5.718528e+01   2.629389e+01
  -1.062906e+02   1.358976e+01
  -8.512603e+01  -4.591841e+01
   4.300671e+01  -2.346193e+01
   5.522391e+01  -2.997501e+01
   4.852496e+00  -6.375101e+01
  -1.077401e+01   6.205704e+00
  -6.508555e+01  -1.159228e+01
  -1.211736e+01  -2.113565e+01
   8.425478e+01  -5.862269e+01
