
 $NMID
 id='ANONYMOUS ', fmtdat='(2E16.6)'
 volume=1.0
 tramp=1.0
 $END
   2.581165e+03   5.009488e+01
   1.756175e+03   1.381125e+03
   1.219247e+02   1.715590e+03
  -1.010871e+03   1.134017e+03
  -8.915698e+02   3.906004e+02
  -1.465128e+02  -9.586211e+01
   2.829014e+02   2.031534e+01
   1.066203e+02   4.456296e+02
  -3.100687e+02   4.928459e+02
  -5.438429e+02   1.087381e+02
  -4.127818e+02  -4.071378e+02
  -2.190154e+01  -5.652618e+02
   2.410135e+02  -1.790972e+02
   1.827339e+02   3.338695e+02
  -1.579871e+02   4.225488e+02
  -3.743306e+02   8.030074e+01
  -2.967976e+02  -4.356595e+02
   4.353778e+01  -6.059971e+02
   4.111952e+02  -2.771731e+02
   4.296418e+02   1.232191e+02
   1.869568e+02   3.389880e+02
  -1.318549e+02   2.207877e+02
  -5.703043e+01   5.285081e+01
   1.197335e+02   5.988384e+01
   1.961388e+02   3.177130e+02
  -7.807940e+01   3.175732e+02
  -3.988779e+02   9.680915e+01
  -4.894360e+02  -1.688583e+02
  -1.284465e+02  -2.699564e+02
   3.165057e+02  -8.360621e+01
   4.430732e+02   1.513484e+02
   1.145879e+02   3.736563e+02
  -2.602754e+02   2.795309e+02
  -4.177247e+02   8.097333e+01
  -2.659092e+02  -1.188355e+02
  -3.044686e+01  -2.370647e+02
   2.002216e+00  -1.357095e+02
  -6.888932e+01   4.932776e+01
  -2.029543e+02   7.689405e+01
  -1.507174e+02  -9.729168e+01
   5.235700e+01  -3.487054e+02
   3.450788e+02  -2.523616e+02
   2.841142e+02  -2.829384e+01
   1.065845e+02   2.754434e+02
  -1.128951e+02   1.222183e+02
  -1.387879e+02  -2.488276e+02
   1.387971e+02  -4.016188e+02
   3.904368e+02  -2.546845e+00
   4.673035e+02   3.428419e+02
   1.063872e+02   4.814349e+02
  -2.794006e+02   2.342665e+02
  -4.648258e+02  -8.037480e+01
  -2.655429e+02  -1.936193e+02
   4.196164e+01  -1.758690e+02
   2.057768e+02  -6.318898e+01
   1.715060e+02  -5.113025e+00
   4.249616e+01  -7.884034e+00
  -5.616172e+01  -4.073476e+01
   9.920426e+01  -4.646709e+01
   2.633738e+02   3.204874e+01
   1.218635e+02   2.179703e+02
  -1.226440e+02   2.282228e+02
  -3.131611e+02   1.479554e+02
  -2.806753e+02  -1.036194e+02
   6.420212e+01  -2.704534e+02
   3.284788e+02  -3.190511e+02
   3.908839e+02  -7.832892e+01
   1.509177e+02   1.449955e+02
  -2.416518e+01   2.923522e+02
  -3.871657e+01   3.125098e+02
   2.750344e+01   1.047730e+02
   5.970014e-01   1.229595e+02
  -1.719758e+02   9.539319e+01
  -2.466243e+02   2.426240e+01
  -2.300256e+02  -1.652101e+02
  -6.305022e+01  -2.497418e+02
   1.520325e+02  -1.902180e+02
   2.071026e+02   6.134317e+01
   1.127147e+02   2.394496e+02
  -1.138856e+02   2.249681e+02
  -2.336596e+02   1.404382e+01
  -2.596100e+02  -1.176320e+02
  -1.389911e+02  -2.776877e+02
   5.163202e+01  -1.899605e+02
   1.186448e+02  -1.044521e+02
   1.201391e+02  -6.054180e+01
   1.787901e+02  -1.200237e+02
   2.803692e+02  -4.556391e+01
   4.006256e+02   7.571842e+01
   3.427557e+02   2.715080e+02
  -3.394808e+01   4.169061e+02
  -3.310158e+02   3.505154e+02
  -4.362999e+02   1.835784e+02
  -2.300392e+02  -8.871961e+01
   6.699013e+00  -2.518933e+02
   7.025236e+01  -1.717671e+02
   3.786699e+01  -5.038940e+01
  -1.191424e+02   8.666090e+01
  -1.353252e+02  -1.463022e+01
  -1.754392e+01  -1.345914e+02
   1.152567e+02  -1.300431e+02
   1.087484e+02   4.535516e+01
  -1.881680e+01   1.398000e+02
  -1.318668e+02  -1.756628e+01
  -1.000037e+02  -1.892237e+02
   8.733492e+00  -3.098682e+02
   2.162950e+02  -1.516033e+02
   3.135150e+02   1.013690e+02
   2.344106e+02   2.481296e+02
   3.785306e+01   2.911898e+02
  -1.518658e+02   1.084577e+02
  -8.600338e+01  -5.979276e+01
  -2.619891e+01  -1.944541e+01
   3.580402e+01   5.096504e+01
  -4.547069e+01   1.042022e+02
  -9.443798e+01   1.161451e+02
  -1.483113e+02  -7.821303e+00
  -1.738917e+01  -7.150989e+01
   5.716302e+01  -2.498057e+01
   1.147912e+01   1.039678e+02
  -1.498563e+02   7.176084e+01
  -2.657371e+02  -3.300909e+01
  -2.452265e+02  -1.820210e+02
  -4.619173e+01  -2.330806e+02
   2.583711e+02  -1.853289e+02
   2.393561e+02  -9.701583e+01
   1.081425e+02   5.828066e+01
  -6.862358e+01   6.709106e+01
  -8.471783e+01  -2.110796e+01
   5.697169e+01  -5.047213e+01
   1.987156e+02   1.817426e+00
   1.451118e+02   8.416010e+01
   4.147752e+01   1.833009e+02
  -6.158035e+01   1.206688e+02
  -1.334492e+02   3.532136e+01
  -2.434831e+01  -3.132222e+01
   5.886055e+01   3.851839e+01
   7.200067e+00   1.069018e+02
  -1.071221e+02   1.015960e+02
  -1.823543e+02  -1.618794e+01
  -1.541000e+02  -1.352239e+02
   1.961585e+01  -2.202823e+02
   1.405140e+02  -1.367349e+02
   1.706183e+02   6.039080e+00
   4.667050e+01   1.106452e+02
  -3.791020e+01   3.997806e+01
  -6.721849e+01   2.435355e+01
  -3.334613e+01  -3.555591e+01
   4.744504e+01  -2.531614e+01
  -5.340376e-01   9.079434e+01
  -1.205729e+02  -1.272371e+01
  -8.599719e+01  -1.444754e+02
   1.281321e+01  -1.513856e+02
   1.022122e+02  -1.747954e+02
   1.923919e+02   2.101579e+01
   1.169221e+02   1.504150e+02
   3.381638e+01   2.036394e+02
  -1.022092e+02   1.754971e+02
  -1.009193e+02   2.595674e+01
  -5.768950e+01  -2.580171e+01
  -2.541300e+01  -1.467024e+01
  -6.674860e+01   3.023711e+01
  -6.278383e+01  -7.308681e+00
  -4.389723e+01  -5.173335e+01
   3.014954e+01  -1.173454e+02
   1.604488e+02  -6.101440e+01
   8.572772e+01   1.331595e+01
  -2.249528e+01   1.549732e+02
  -1.288313e+02   3.370656e+01
  -2.141365e+02  -6.077805e+01
  -8.482531e+01  -1.515695e+02
   1.395336e+02  -1.521958e+02
   2.509024e+02  -6.245974e+01
   2.087003e+02   6.878699e+01
   7.005835e+01   1.359927e+02
  -3.237186e+01   1.074722e+02
  -8.444063e+01   5.624669e+01
  -8.034675e+01   7.880516e+01
  -7.840641e+01   1.007537e+02
  -8.830392e+01   8.833995e+01
  -1.107224e+02  -3.256095e+01
  -8.527938e+01  -1.486774e+02
   2.950435e+00  -2.276106e+02
   6.958135e+01  -1.598126e+02
   1.579341e+02   4.263226e+01
   1.696077e+02   9.883338e+01
   4.821051e+01   1.512827e+02
  -8.241628e+01   8.268600e+01
  -7.106262e+01  -6.615603e+01
  -1.437017e+01  -4.457754e+01
   4.896116e+00  -3.917305e+01
   1.837989e+01  -1.436167e+01
  -6.572105e+01  -3.746133e+01
  -3.595916e+01  -2.092914e+01
   9.931559e+01   7.865551e+00
   1.768902e+02   1.233808e+01
   1.625184e+02   7.119968e+01
  -6.181983e+01   1.378394e+02
  -1.299751e+02   7.404086e+01
  -1.494777e+02  -1.260188e+01
  -6.274218e+01  -6.781463e+01
   5.981922e+01  -7.689711e+01
   7.684214e+01   9.251017e+00
   1.624025e+01   6.596867e+01
  -3.697161e+01   9.115898e+01
  -9.909935e+01   1.078787e+01
  -3.151939e+01  -6.951110e+01
   2.444649e+01  -7.583905e+01
  -4.567801e+01   1.526747e+01
  -8.964468e+01   3.526271e+01
  -4.741322e+01  -4.352594e+01
   3.059291e+01  -1.302670e+02
   1.096787e+02  -1.199337e+02
   1.876294e+02  -2.068602e+01
   1.456839e+02   7.102231e+01
   2.184498e+01   1.391911e+02
  -7.899422e+01   7.207700e+01
  -4.357822e+01  -3.026670e+01
   9.118901e+01  -5.208504e+01
   1.386924e+02   4.087445e+00
   7.044494e+01   1.380999e+02
  -7.543197e+01   1.047890e+02
  -2.010865e+02   3.114934e+01
  -1.615154e+02  -5.381671e+01
  -2.524919e+01  -8.505779e+01
   6.689447e+01  -3.646723e+01
   1.027944e+02   3.876661e+00
  -2.714679e+01   2.662187e+01
  -9.200296e+01  -1.997742e+01
  -6.185962e+01  -9.074573e+01
   5.966698e+01  -1.303288e+02
   1.500111e+02  -2.346629e+01
   1.047415e+02   1.124000e+02
   1.689072e+01   1.501636e+02
  -3.289484e+01   1.377858e+02
  -7.319428e+01  -1.677127e+01
  -3.249398e+01  -1.246377e+02
  -4.338365e+01  -7.488001e+01
   7.707566e+01   4.746843e+00
   3.974754e+01   4.047640e+01
   9.000321e+00  -9.549694e-01
   8.199836e+00  -4.006398e+01
   2.176927e+01   1.923528e+01
   5.935395e+01   6.028195e+01
   1.548243e+01   8.020271e+01
  -8.439309e+01  -2.303719e+01
  -1.564687e+02  -2.830467e+01
  -1.177348e+02  -4.424036e+01
  -1.404561e+00  -4.568804e+01
   5.015151e+01  -6.210294e+01
   9.537331e+01  -4.403640e+01
   4.034149e+01   5.018612e+01
  -3.165514e+01   3.521157e+01
  -2.969405e+01   4.401002e+01
  -2.257097e+01  -4.942592e+00
  -1.523578e+01  -1.923622e+01
  -5.264656e+00   1.957747e+01
  -1.018299e+02   8.855189e+00
  -3.154745e+01  -4.825205e+01
   1.028581e+02  -9.395997e+01
   1.564526e+02  -6.113490e+01
   1.307410e+02   2.441182e+01
   9.304628e+01   1.696876e+02
  -8.301163e+01   1.358337e+02
  -8.665732e+01   6.007118e+01
  -5.941997e+01  -4.626765e+01
  -3.732874e+01  -3.582978e+01
   2.040229e+01  -3.259156e+01
  -3.346764e+01  -1.705702e+01
  -2.360239e+01  -5.278357e+01
  -1.257970e+01  -1.021336e+02
  -7.326757e+00  -5.907810e+01
   1.092132e+02   1.725423e+01
   1.248281e+02   9.823376e+01
   4.803587e+01   6.649169e+01
  -1.039733e+02   5.178042e+01
  -8.674835e+01  -6.102828e+01
  -7.139305e+01  -1.032650e+02
   4.724311e+01  -8.443755e+01
   9.765571e+01   3.329935e+01
   6.198485e+01   5.858853e+01
  -3.578675e+01   5.857774e+01
  -6.475960e+01   3.344485e+01
   3.235604e+01  -4.905376e+01
   6.868516e+01  -2.434226e+01
  -9.113255e+00   1.214672e+01
  -4.994862e+01   4.737797e+01
  -7.433322e+01   6.080986e+00
  -4.966634e+01  -3.230968e+01
   3.923129e-01  -1.082525e+02
   8.992491e+01  -1.022505e+02
   4.156318e+01  -3.641556e+01
   1.758999e+01   2.909322e+01
  -3.839555e+01  -3.265376e+01
  -2.373161e+01   2.746456e+01
  -1.517115e+01  -4.462720e+01
   1.490007e+01  -4.316938e+01
   1.008412e+01   6.303384e+00
   5.282472e+01   2.412850e+01
  -1.690852e+01  -5.444791e+00
   1.211770e+01  -6.508668e+00
   1.577196e+01  -1.189527e+01
  -1.743524e+01   1.814279e+01
   1.942163e+01   6.415019e+01
  -3.752211e+01   4.253919e+01
   3.292073e+01  -2.267137e+01
  -2.066971e+01  -6.962240e+01
   4.440221e+01  -4.988381e+01
   3.266497e+01   2.395544e+01
   4.496682e+01   7.327792e+01
  -4.833769e+01   4.275940e+01
  -1.159542e+02  -4.432481e+01
  -8.545697e+01  -5.046052e+01
   4.659594e+01  -2.434213e+01
   3.993378e+01  -4.374066e+01
  -1.135533e+01  -1.708406e+01
   4.262491e+00  -1.859674e+01
  -8.694869e+00  -1.565068e+01
  -2.364937e+01  -2.891706e+01
   4.021958e+01  -2.013525e+01
