
 $NMID
 id='ANONYMOUS ', fmtdat='(2E16.6)'
 volume=1.0
 tramp=1.0
 $END
   1.813290e+03   1.785150e+02
   8.414268e+02   8.783689e+02
  -2.427561e+02   9.093946e+02
  -8.245138e+02   2.501155e+02
  -3.677537e+02  -3.014153e+02
   2.009865e+02  -2.358750e+02
   3.685155e+02   1.219741e+02
   7.352863e+00   3.657279e+02
  -3.253798e+02   2.322260e+02
  -3.581128e+02  -1.126952e+01
  -1.219590e+02  -2.989973e+02
   8.869511e+01  -3.172783e+02
   1.903735e+02  -3.268828e+01
   1.233879e+02   2.141545e+02
  -7.606142e+01   2.794096e+02
  -2.043001e+02   1.551136e+01
  -1.100690e+02  -2.554712e+02
   1.434374e+02  -2.055414e+02
   2.648569e+02   1.715506e+01
   1.775170e+02   1.711445e+02
   2.477568e+01   1.936589e+02
  -8.643542e+01   9.664109e+01
  -4.551830e+01  -2.489459e+01
   7.973918e+01   2.805641e+01
   1.382200e+02   6.996176e+01
   9.249708e+01   8.899971e+01
  -9.602553e+01   1.303265e+02
  -2.900864e+02  -8.734492e+00
  -1.382653e+02  -1.654489e+02
   1.291044e+02  -1.562521e+02
   2.126783e+02  -6.728729e+00
   1.388748e+02   1.843968e+02
  -8.250565e+01   1.282372e+02
  -1.560948e+02   5.229196e+01
  -1.237535e+02  -1.026146e+02
  -1.278606e+01  -2.149767e+02
   9.713460e+01  -1.313671e+02
   6.450117e+01   1.015426e+02
  -8.010574e+01   1.737647e+02
  -1.395185e+02   1.693846e+01
  -9.034543e+01  -3.161065e+02
   1.754144e+02  -2.420289e+02
   1.815880e+02   6.605907e+01
   7.523638e+01   1.731377e+02
  -5.268848e+01   8.959649e+01
  -1.457944e+02  -1.266672e+02
  -7.251807e-01  -1.678024e+02
   2.001532e+02  -1.259126e+01
   2.451218e+02   1.233771e+02
   1.231903e+02   2.243506e+02
  -1.556820e+02   1.228983e+02
  -2.010024e+02  -8.173098e+01
  -1.411587e+02  -1.428558e+02
   6.428530e+01  -1.224234e+02
   1.721436e+02   2.485005e+01
   5.602519e+01   8.640565e+01
  -5.204038e+01   1.430703e+01
  -5.297435e+01  -8.258164e+01
   3.347786e+01  -5.493973e+01
   1.594825e+02   2.877979e+01
   4.734735e+01   8.790397e+01
  -8.681951e+01   8.844261e+01
  -1.382695e+02   3.058707e+01
  -7.710339e+01  -2.928227e+01
   5.617190e+01  -1.438873e+02
   1.361066e+02  -1.253622e+02
   1.857429e+02  -2.959526e+01
   1.185089e+02   4.577653e+01
   6.582926e+01   1.443150e+02
  -1.588652e+01   1.719728e+02
  -5.511576e+00   4.547084e+01
  -1.864472e+01   2.127932e+01
   3.077367e+00   2.920695e+01
  -5.617079e+01   5.746556e+01
  -7.743454e+01  -1.176157e+01
  -4.425056e+01  -8.127352e+01
   2.782368e+01  -4.821285e+01
   5.594893e+01   2.735613e+01
   7.423870e+01   9.194660e+01
  -3.706281e+01   1.024460e+02
  -1.434669e+02   1.851567e+01
  -1.642523e+02  -6.834559e+01
  -1.201011e+02  -9.096781e+01
   2.507610e+01  -1.227547e+02
   1.122668e+02  -4.060298e+01
   8.535514e+01   2.928350e+00
   2.985789e+01  -2.247493e+01
   5.186952e+01  -5.403489e+00
   1.204454e+02   5.637912e+01
   1.093665e+02   1.103912e+02
  -2.166463e+01   1.773817e+02
  -1.629593e+02   1.171015e+02
  -1.301242e+02   1.053452e+02
  -1.165424e+02   2.007390e+01
   6.459957e-01  -3.258204e+01
   6.970809e+01  -1.360050e+02
   4.324708e+01  -3.376740e+01
  -2.973138e+00   3.405105e+01
  -5.416121e+01   1.560613e+01
  -1.505376e+01  -8.124246e+01
   4.450768e+01  -4.393750e+01
   4.857833e+01  -3.029400e+00
  -8.790564e+00   8.587259e+01
  -8.069084e+01   2.158326e+01
  -9.121687e+01  -5.725924e+01
   2.581952e+01  -1.517929e+02
   9.951091e+01  -8.546186e+01
   1.357625e+02   4.019692e+00
   8.374107e+01   1.064928e+02
   1.156348e+01   8.326949e+01
  -4.765977e+01   4.846220e+01
  -9.137332e+01  -1.058259e+01
  -2.443115e+01  -1.909160e+00
   3.859678e+01   4.616740e+01
   8.800798e+00   9.618818e+01
  -5.330127e+01   2.891681e+01
  -6.592952e+01  -1.793022e+01
   2.108413e+01  -3.678437e-01
   6.759519e+00  -2.481467e+01
   2.314073e+01   4.179920e+01
  -6.605958e+01   3.337972e+00
  -6.594567e+01   9.623895e+00
  -9.214407e+01  -8.214087e+01
  -4.232902e+00  -9.828768e+01
   5.943570e+01  -1.223339e+02
   8.272396e+01  -6.572682e+00
   3.169510e+01  -2.275142e+01
   1.584632e+01   7.812944e+00
  -2.014384e+01   1.743238e+01
  -1.099334e+00  -8.401881e+00
   9.231037e+01  -1.399869e+01
   6.922573e+01   4.200100e+01
   3.172290e+01   7.161198e+01
  -2.505795e+01   4.550422e+01
  -5.833168e+01  -2.454887e+01
  -2.943041e+01  -4.944445e+01
   2.145614e+01   1.370431e+01
  -4.260373e+01   3.440461e+01
  -5.304683e+01   4.420471e+01
  -1.109861e+02   1.686422e+01
  -1.069178e+02  -3.532804e+01
  -1.691549e+01  -4.905764e+01
   4.266645e+01  -5.632314e+01
   4.035558e+01  -4.701953e+00
  -1.388230e+01   3.545933e+01
  -4.356846e+01   2.706434e+01
  -3.496072e+01  -4.248019e+01
  -3.496137e+01  -5.436563e+01
  -2.773491e+01  -2.832751e-01
  -2.126527e+00  -4.036210e+01
  -1.340996e+01  -4.570324e+01
   1.317525e+01  -4.535484e+01
   2.903265e+01  -6.829422e+01
   3.119736e+01  -4.689095e+01
   6.911761e+01  -3.849814e-01
   1.085079e+02   7.549041e+01
   1.710819e+01   1.173018e+02
  -2.573997e+01   5.003954e+01
  -1.934050e+01  -3.955191e+01
  -1.741033e+01  -3.444545e+01
  -2.165299e+01  -7.559982e+00
  -5.135660e+01   1.046268e+01
   2.073655e+01   8.700464e-01
   2.065890e+00   1.087732e+01
   2.495977e+01  -1.590992e+01
   2.860350e+01  -8.203889e-01
   4.246471e+01   2.342082e+01
  -2.040956e+01   2.604087e+01
  -7.884161e+01  -4.024056e+00
  -1.255649e+02  -2.811010e+01
  -3.114092e+01  -1.022456e+02
   5.766991e+01  -6.337782e+01
   1.187257e+02  -6.228105e+01
   9.132787e+01   4.774407e+01
   3.896454e+01   6.061332e+01
   1.650854e+01   2.392961e+01
  -2.323384e+01  -1.503119e+00
  -4.842102e+01   6.879294e+00
   6.643116e+00   4.022284e+01
   6.438560e+00   1.368956e+01
  -6.028705e+01   1.938325e+01
  -6.409498e+01  -3.666062e+01
   2.632631e+01  -6.368422e+01
   3.909558e+01  -7.036592e+01
   7.826034e+01  -2.304337e+01
   6.273537e+01   5.339779e+01
  -1.388251e+01   4.681116e+01
  -8.219806e+01  -2.422433e+01
  -4.598963e+01  -2.062337e+01
   1.809176e+01  -1.760586e+01
   2.096096e+01   9.773012e-01
  -9.261426e+00   1.514920e+00
  -3.038249e+01   4.864664e+00
   8.209745e+00  -1.935599e+01
   3.781606e+01  -3.772246e+01
   5.836551e+01  -7.794690e+00
   8.588430e+01  -2.280540e+01
  -1.964525e+01   7.564822e+01
  -6.272268e+01   4.480826e+01
  -7.710665e+01   1.751614e+01
   4.635592e+00   1.910310e+00
   3.397823e+00  -1.119598e+01
   2.308668e+01   1.241913e+01
   9.819125e+00   8.544413e-02
  -2.095496e+01   7.959296e+00
  -1.543208e+00   1.924407e+01
  -4.216287e+00  -3.126601e+01
  -4.125061e+01  -1.455570e+01
  -5.212673e+01  -2.134286e+01
  -1.292525e+01  -1.905785e+00
   4.770877e+00  -9.274023e+00
   1.587591e+01  -1.150197e+01
   9.239301e+01  -1.317357e+01
   1.157036e+02  -1.152618e+01
   9.199549e+00   3.159671e+01
  -1.411983e+00   2.757206e+01
  -1.391470e+01   4.279830e+01
  -6.782116e+01   9.226422e+00
   2.229542e+01   7.914586e+00
   7.982535e+01  -1.273949e+01
   3.265091e+01   3.643041e+01
  -2.890931e+01   1.843565e+01
  -7.774184e+01   5.708620e+01
  -5.630556e+00  -1.745716e+01
  -2.116025e+01  -3.033273e+01
  -9.695706e+00  -6.672084e+01
   4.534954e+01  -6.441514e+01
  -2.445254e+00  -5.967467e+00
  -2.329829e+01  -3.944425e+01
  -1.413012e+01  -2.659882e+01
   7.869299e+01  -4.022064e+01
   2.839901e+01  -4.037144e+01
   6.299323e+01   5.955301e+01
  -6.289310e+00   1.922470e+01
  -5.539598e+01   3.918040e+01
  -4.812930e+01   1.851449e+01
  -7.209102e+00  -5.277248e+01
  -4.283033e+00  -3.773707e+01
  -2.360534e+00  -2.013308e+01
   1.539776e+01  -6.336196e+00
  -1.429417e+01   1.992801e+01
   3.520570e+01  -4.765950e+01
   4.055641e+01   3.931952e+01
  -1.728718e+01  -1.550977e+01
   3.642217e+00   4.680080e+01
   4.556186e+00  -7.753064e+00
  -5.021574e+01  -4.854049e+01
  -1.880453e+01  -3.266929e+01
   2.273611e+01  -1.065606e+01
   5.429104e+01  -2.680732e+01
   3.095594e+01  -9.454266e+00
   8.264910e+00  -1.631273e+01
   3.802996e+01  -1.182607e+01
  -4.481667e+01  -1.784156e+01
   5.001410e+00   1.217874e+01
  -3.580172e-01   1.597371e+01
  -1.282150e+01  -6.573969e+00
  -6.295534e+01  -1.953732e+01
   7.751220e+00   1.293630e+01
   5.798744e+01  -3.611750e+01
   7.177865e+01   3.757204e+00
   2.358409e+01  -1.575870e+01
   8.277414e+00   4.482885e+01
  -4.208452e+01   1.985581e+01
  -4.868866e+01   2.422355e+01
   1.560421e+01  -2.302045e+01
   2.382454e+01   7.718506e+00
   3.985182e+00   1.486564e+01
  -3.235572e+01   3.876656e+01
  -2.955004e+01  -5.064823e+01
   1.387755e+01  -3.882146e+01
   4.474944e+01  -1.490890e+01
   3.325676e+01   1.892688e+01
   2.634740e+01   6.769926e+01
  -2.096435e+01   5.457181e+01
  -5.794787e+01  -3.809730e+01
  -4.565141e+00  -2.894817e+01
   1.989204e+01  -5.042840e+01
   5.849496e+01   1.995143e+01
   1.973835e+01  -9.968662e+00
  -6.491270e+00   7.661270e+00
   8.346863e+00   2.692145e+01
  -3.811159e+01  -2.206877e+01
  -1.318886e+01  -1.104466e+01
   3.363094e+01  -5.560697e+01
  -2.347805e+01  -2.531858e+01
  -5.566131e+00   9.252622e+00
  -6.074471e+01  -9.358849e+00
  -2.358865e+00   1.713838e+00
  -3.150483e+00  -1.799077e+01
   4.555708e+00  -4.781152e+00
   6.871056e+00   1.009487e+01
   2.518146e+00   2.918815e+01
  -1.043006e+01   2.157259e+01
  -1.260696e+01   1.695175e+01
  -1.632254e+01   2.954390e+01
   2.685582e+01   1.737543e+01
   8.337893e+00  -1.749653e+01
   2.638640e+01   1.823089e+01
  -1.116311e+01   2.181573e+01
  -6.873348e-01   3.593941e+01
   2.984621e+00   1.880040e+01
  -3.793198e+01   5.075116e+01
   1.243893e+01   1.051409e+01
  -3.423756e+01  -1.687066e+01
  -9.474438e+00  -2.155204e+01
  -1.607346e+01  -5.059709e+01
   1.349797e+01  -1.211992e+01
   3.102301e+01   2.656304e+01
  -1.357993e+01   5.466015e+01
   2.632852e+01   4.728354e+00
  -2.913247e+01  -1.951780e+01
  -9.467868e+00   5.933482e+00
   1.529917e+01   3.094029e+01
   7.074051e+00   4.277552e+00
   2.620151e+01  -3.767250e+01
   1.931566e+01  -1.798622e+01
  -1.949520e+01  -3.456929e+01
   7.821680e+00  -5.108164e+00
   1.703572e+01   1.412443e+01
