
 $NMID
 id='ANONYMOUS ', fmtdat='(2E16.6)'
 volume=1.0
 tramp=1.0
 $END
  -3.256273e+03  -3.715592e+01
  -1.640345e+03  -1.895974e+03
   3.384798e+02  -1.826813e+03
   1.606804e+03  -4.885069e+02
   6.661724e+02   5.912816e+02
  -5.562128e+02   4.904983e+02
  -6.789436e+02  -2.423110e+02
  -3.458147e+00  -8.225600e+02
   6.682176e+02  -6.078026e+02
   7.724823e+02   8.938171e+01
   3.328107e+02   6.611158e+02
  -2.066873e+02   6.830266e+02
  -4.828750e+02   6.286247e+01
  -3.050000e+02  -5.325557e+02
   2.054290e+02  -5.256564e+02
   4.391626e+02  -1.859726e+01
   1.796928e+02   5.035650e+02
  -3.016609e+02   4.400791e+02
  -4.629830e+02   4.998235e+01
  -2.874573e+02  -2.409760e+02
   1.068401e+01  -3.428023e+02
   2.030424e+02  -1.754189e+02
   1.413208e+02   1.874343e+01
  -6.699132e+01   9.513882e+01
  -3.030095e+02  -1.097084e+02
  -1.570934e+02  -3.433960e+02
   3.389730e+02  -3.452371e+02
   6.212329e+02   6.907637e+01
   3.313807e+02   4.138405e+02
  -2.835744e+02   4.078093e+02
  -5.731931e+02  -3.114114e+01
  -2.791331e+02  -3.764188e+02
   2.007147e+02  -3.748950e+02
   4.680124e+02  -9.197387e+01
   3.086371e+02   1.686610e+02
   4.017118e+01   3.610688e+02
  -2.223727e+02   2.647474e+02
  -1.673316e+02  -1.645772e+02
   1.062916e+02  -3.882439e+02
   3.708270e+02   4.881453e+00
   1.955409e+02   4.703625e+02
  -2.405884e+02   4.869018e+02
  -4.576279e+02   1.229217e+01
  -2.165038e+02  -4.592205e+02
   2.330578e+02  -2.428555e+02
   2.623480e+02   1.604023e+02
  -2.512844e+01   3.998179e+02
  -4.068453e+02   8.814291e+01
  -4.346908e+02  -3.078903e+02
  -8.080765e+01  -4.545235e+02
   3.455264e+02  -2.288185e+02
   4.310615e+02   8.656980e+01
   2.885893e+02   2.586422e+02
  -1.345285e+02   3.322519e+02
  -2.944170e+02   3.755469e+00
  -1.463313e+02  -9.837765e+01
   1.042211e+02  -3.989827e+01
   9.660375e+01   9.565451e+01
  -1.369547e+02   1.045054e+02
  -2.391357e+02  -2.890506e+01
  -9.903917e+01  -1.925358e+02
   1.956525e+02  -1.922422e+02
   2.586427e+02  -3.767318e+01
   1.615462e+02   8.303036e+01
  -1.032200e+01   2.219762e+02
  -2.330420e+02   2.625059e+02
  -2.739258e+02   7.595341e+01
  -2.639933e+02  -1.620177e+02
  -6.938146e+01  -3.643102e+02
   9.567180e+01  -2.481485e+02
   8.297858e+01  -7.409417e+01
   7.308479e+00   2.570028e+01
   7.820710e+01   2.367419e+00
   1.376264e+02  -9.900632e+01
   1.966482e+02  -9.844421e-01
   1.218080e+02   1.600061e+02
  -3.717655e+01   1.934501e+02
  -1.642810e+02   4.053581e+01
  -9.509324e+01  -2.149049e+02
   3.612729e+01  -2.420580e+02
   2.092507e+02  -6.657582e+01
   2.504548e+02   1.494487e+02
   1.426239e+02   2.170765e+02
  -8.669096e+01   2.130652e+02
  -1.674947e+02   4.972394e+01
  -1.492240e+02  -1.712030e+01
  -1.137029e+02  -1.474937e+01
  -1.247004e+02   3.478417e+01
  -2.742628e+02  -2.726947e+01
  -1.819911e+02  -2.223199e+02
   2.129595e+01  -3.838582e+02
   3.056891e+02  -3.240316e+02
   3.256632e+02  -1.081681e+02
   2.011928e+02   6.388358e+01
   3.603429e+01   2.103452e+02
  -1.165203e+02   1.736091e+02
  -3.346529e+01   1.440222e+01
   9.149026e+01  -6.322909e+01
   1.477692e+02  -2.430685e+01
   4.759403e+01   1.793577e+02
  -1.033252e+02   9.349001e+01
  -1.685686e+02  -2.318580e+01
   4.112809e+01  -1.324812e+02
   1.337431e+02  -4.365068e+01
   7.706339e+01   1.663602e+02
  -5.171886e+01   2.334316e+02
  -1.683199e+02   8.763967e+01
  -2.577888e+02  -8.730906e+01
  -1.939695e+02  -1.538152e+02
  -7.686303e+01  -1.933793e+02
   9.407398e+01  -6.482699e+01
   8.067140e+01   6.303225e+00
   6.033860e+01   4.592307e+01
  -7.424863e+01   1.932288e+01
  -3.428905e+01  -1.025590e+02
   5.007533e+01  -7.746349e+01
   1.015417e+02   4.577799e+01
   1.888161e+01   6.575347e+01
  -8.305241e+01   2.220480e+01
  -2.763339e+01  -2.084537e+01
   1.025625e+02  -8.547824e+01
   1.467351e+02   3.002853e+01
   1.470401e+02   9.890590e+01
   4.375031e+01   1.646524e+02
  -7.493688e+01   1.489866e+02
  -2.418321e+02   8.579670e+01
  -1.486426e+02  -1.106132e+01
  -7.042615e+00  -7.333338e+01
   7.931650e+01   2.702350e+00
  -1.101977e+01   4.393650e+01
  -1.555911e+02   6.529968e+01
  -1.270317e+02  -6.922105e+01
  -5.699381e+01  -1.283965e+02
   4.903643e+01  -1.614761e+02
   1.397067e+02  -4.413839e+01
   9.064773e+01   4.537036e+01
  -5.883269e+00  -2.089722e+01
  -3.473877e+01  -6.560193e+01
   8.742684e+01  -7.585617e+01
   1.890100e+02  -3.300821e+01
   1.367502e+02   9.239759e+01
   3.407847e+01   1.694535e+02
  -1.658785e+02   1.116209e+02
  -1.686493e+02  -1.740978e+00
  -4.328505e+01  -8.124413e+01
   6.130752e+01  -6.231709e+01
   7.570154e+01  -2.337005e+01
   7.256490e+00   2.482625e+01
  -1.364965e+01   4.777584e+01
  -1.961251e+00   1.236546e+00
   2.546088e+01   4.133034e+01
   5.752255e+01   6.000934e+01
   3.747002e+01   9.835283e+01
  -8.764808e+01   9.893363e+01
  -1.562975e+02  -2.662123e+01
  -1.602796e+02  -1.079260e+02
  -3.965331e+01  -1.855203e+02
   1.320305e+02  -1.497297e+02
   1.209882e+02  -4.731582e+00
   2.998283e+01   2.092847e+01
   3.195927e+00   3.501685e+01
   1.122491e+01   3.497460e+01
   4.878084e+01  -7.058667e+00
   2.431794e+01   3.968120e+01
  -2.595621e+00   7.483993e+01
  -9.507340e+01   4.010869e+01
  -8.114290e+01  -3.889835e+01
   2.694977e+01  -7.345721e+01
   9.845349e+01  -2.497595e+01
   1.253698e+02   4.905859e+01
   1.288501e+01   1.138884e+02
  -2.652151e+01   1.827603e+02
  -1.709188e+02   5.462638e+01
  -1.621658e+02  -5.977884e+01
  -9.892187e+01  -1.313024e+02
  -2.210368e+01  -1.140408e+02
   6.205651e+01  -6.862741e+01
   5.130093e+01  -6.117052e+01
   6.190479e+01  -1.206881e+02
   9.136996e+01  -5.519615e+01
   1.014969e+02   5.638883e+01
   9.427350e+01   1.108539e+02
   3.181822e+01   1.690437e+02
  -9.161475e+01   1.111193e+02
  -8.327147e+01  -8.627340e+00
  -5.649097e+01  -6.930461e+01
  -3.305206e+01  -1.401423e+02
   7.613459e+01  -8.367326e+01
   3.420944e+01  -1.123658e+01
   2.696741e+01   2.663488e+01
   2.561575e+00   2.930699e+01
   2.272803e+00   1.459896e+01
   6.578561e+00  -4.717871e+01
   4.275034e+01   4.359295e+01
  -2.857398e+01  -8.365102e+00
  -1.502481e+02  -1.906007e+01
  -6.338534e+01  -2.461163e+01
   1.573796e+00  -5.804546e+01
   8.576205e+01  -2.377581e+01
   8.102635e+01  -1.119774e+01
   1.656739e+01   5.345838e+01
   1.813864e+01   6.992487e+00
  -6.690561e+01   6.391940e+00
  -2.582330e+01  -5.348760e+01
   3.566751e+01  -6.259430e+01
   8.087911e+01  -2.339907e-01
   3.699779e+01   2.432945e+01
   3.070689e+01   7.530462e+01
   1.398272e+01   7.928647e+00
   4.510610e+01   1.339058e+01
  -1.315056e+01   4.303809e+01
  -3.119342e+01   7.858202e+01
  -8.001450e+01   9.810346e+01
  -1.062620e+02  -7.109642e-01
  -1.132054e+02  -6.198083e+01
   2.028255e+01  -9.937414e+01
   9.647598e+01  -5.420821e+01
   6.396913e+01  -2.062722e+01
   1.213692e+01   2.656900e+00
  -9.185899e+01   1.290826e+00
  -4.607323e+01  -5.715500e+01
   1.180178e+02  -9.086570e+01
   1.469169e+02  -4.955699e+01
   6.057041e+01  -2.308726e+01
   3.026845e+00   4.712860e+01
  -2.933822e+01   3.575793e+01
  -6.610549e+01   2.818589e+01
   9.906805e+00  -1.635029e+00
   9.779541e+01   2.747966e+01
   2.320611e+01   8.171760e+01
  -8.285443e+01   1.112337e+02
  -8.910651e+01   5.713998e+01
  -7.519308e+01  -5.003746e+01
   6.587104e-01  -1.021414e+02
   6.237942e+01  -8.027350e+01
   5.852690e+01  -6.466545e+01
   5.375065e+01   9.426924e+01
   8.047366e+00   5.264117e+01
  -4.768786e+01   2.026561e+01
  -2.448938e+01  -1.110756e+01
  -2.997064e+01   1.536920e+01
   1.888062e+00   5.431193e+01
  -1.303838e+01   2.514180e+01
  -1.384507e+01  -6.972912e+01
  -4.219680e+01  -6.864483e+01
   2.495168e+01  -7.095253e+00
   7.908916e+01   2.594276e+01
   5.389959e+01  -1.924245e+01
   2.597082e+01   1.059338e+01
  -6.828661e+01   6.064024e+01
  -4.167974e+01  -6.705824e-02
   1.720119e+01   2.387972e+01
   5.623827e+01  -2.080942e+01
   1.901574e+00  -3.878392e+01
  -1.517436e+01   3.703571e+01
   2.698128e+01   1.245978e+01
   2.119400e+01  -4.214847e+01
   7.185430e+01   3.187838e+01
   1.449548e+01   5.434642e+01
  -6.844724e+01   9.602479e+01
  -7.805590e+01  -3.499506e+01
  -7.302928e+01  -6.992896e+01
  -4.514802e+00  -1.053853e+02
   4.319758e+01  -5.930447e+01
   7.814582e+01  -1.207839e+01
   4.669112e+01   2.069836e+00
   2.714134e+01   1.346594e+01
   2.214681e+01  -2.425234e+01
   1.135674e+01   1.530494e+01
   3.447308e+01   1.127608e+01
   2.046236e+01   2.903390e+01
  -4.611788e+01   3.996983e+01
  -2.888596e+01  -2.999072e+00
  -4.005277e+01  -8.463801e+01
   8.742179e+00  -1.238930e+02
   1.957170e+01   1.712007e+00
   7.079609e+01   6.831385e+01
   4.001556e+01   1.031086e+02
  -6.090897e+01   1.252978e+01
  -1.042285e+02  -6.588007e+00
  -9.538580e+00  -4.959812e+01
   7.083015e+00  -3.435910e+01
   4.271457e+01  -2.759429e+01
  -3.910616e+01  -1.121087e+01
  -3.183150e+01   1.524741e+01
   7.509630e+00   2.798928e+01
   6.229369e+01  -3.684605e+01
   6.919607e+01  -3.733999e+01
   5.609666e+01   1.034621e+01
  -1.351367e+01   6.105647e+01
  -4.764205e-01   6.026327e+01
   5.992545e+00  -1.652109e+01
  -3.274864e+01  -3.307267e+01
  -9.589901e-01  -3.122284e+01
   2.587191e+01  -2.725776e+01
   1.368794e+01   2.258436e+01
   2.283414e+01   2.881220e+01
   7.698725e-02  -2.199181e+00
  -2.580835e+01  -2.028174e+01
  -2.502730e+00  -3.191589e+01
   3.542985e+00  -1.079410e+01
   2.514759e+01  -2.192285e+00
   7.438522e+00  -4.081861e+01
   1.868038e+01   2.047771e+01
   3.999910e+01   1.019379e+01
   4.727039e+01   2.121374e+01
  -2.710100e+01   4.199415e+01
  -3.832978e+01   1.232974e+01
  -8.279637e+01  -4.665575e+01
   2.607948e+00  -5.951741e+00
   4.490965e+01  -3.181952e+01
   3.400369e+01  -1.454606e+01
   3.698945e+01   1.457221e+01
  -2.315931e+01   3.929471e+01
  -3.273941e+01   2.530289e+01
  -3.397277e+01   4.736501e+01
   2.580965e+01   7.458088e+01
  -5.897760e+00   1.425342e+01
  -1.439054e+01   6.749434e+01
  -8.066756e+01  -5.166839e-01
