
 $NMID
 id='ANONYMOUS ', fmtdat='(2E16.6)'
 volume=1.0
 tramp=1.0
 $END
   3.076668e+03  -1.957088e+02
   2.340221e+03   2.016000e+03
  -3.129596e+02   2.452836e+03
  -1.837859e+03   1.135803e+03
  -1.034082e+03  -1.855287e+02
   2.769556e+02  -3.687554e+02
   5.787379e+02   2.249718e+02
   4.582493e+01   7.480363e+02
  -5.513485e+02   5.859113e+02
  -7.210929e+02   1.075058e+01
  -4.399638e+02  -5.735175e+02
   9.120474e+01  -6.993907e+02
   4.007542e+02  -1.115841e+02
   3.127267e+02   5.192503e+02
  -1.088609e+02   6.033869e+02
  -4.269534e+02   3.281109e+01
  -2.580827e+02  -5.821528e+02
   1.850655e+02  -6.095197e+02
   5.037723e+02  -1.461196e+02
   3.394535e+02   2.499183e+02
   5.022382e+01   3.949313e+02
  -2.145161e+02   2.627662e+02
  -1.713008e+02   4.984126e+01
   1.014594e+02   3.990547e+01
   2.478122e+02   1.771428e+02
   7.150522e+01   3.715591e+02
  -4.543295e+02   2.773839e+02
  -6.669681e+02  -1.001920e+02
  -3.440901e+02  -4.029829e+02
   2.891975e+02  -3.002215e+02
   5.675936e+02   6.517793e+01
   2.684483e+02   3.933529e+02
  -1.907137e+02   4.103692e+02
  -4.896170e+02   1.809118e+02
  -3.540130e+02  -1.466777e+02
  -1.003641e+02  -2.863556e+02
   1.055525e+02  -1.556585e+02
   4.550682e+01   1.574764e+02
  -1.116492e+02   2.431405e+02
  -2.790453e+02  -5.338644e+01
  -1.888589e+02  -4.440822e+02
   2.216970e+02  -5.507165e+02
   4.371811e+02  -5.953241e+00
   1.537868e+02   4.214976e+02
  -2.179067e+02   2.405796e+02
  -2.619524e+02  -2.838754e+02
   6.958048e+01  -4.194713e+02
   4.203061e+02  -8.592333e+01
   4.584330e+02   2.828934e+02
   1.404692e+02   5.068237e+02
  -3.216557e+02   2.526404e+02
  -5.327396e+02  -6.003476e+01
  -3.122846e+02  -3.386101e+02
   1.277455e+02  -2.733350e+02
   3.651575e+02  -1.412899e+02
   2.470864e+02   1.332562e+02
  -3.785507e+01   7.483724e+01
  -1.242950e+02  -4.065165e+01
   1.339135e+02  -1.139088e+02
   2.295560e+02   7.153636e+01
   1.570618e+02   1.954518e+02
  -1.091375e+02   2.714333e+02
  -2.843684e+02   9.603351e+01
  -2.019685e+02  -5.843799e+01
   6.569096e+00  -2.728677e+02
   1.474309e+02  -3.279639e+02
   2.604579e+02  -1.998516e+02
   2.154017e+02   9.046410e+01
   9.280229e+01   3.591304e+02
  -1.112230e+02   3.162435e+02
  -3.951352e+01   1.363448e+02
  -1.962140e+01   2.337952e+01
  -7.355709e+01   7.268758e+01
  -1.774980e+02   7.257568e+01
  -2.426434e+02  -9.657783e+01
  -1.305909e+02  -2.509870e+02
   8.117301e+01  -2.249325e+02
   2.484745e+02   1.591475e+01
   1.626149e+02   2.437584e+02
  -1.358427e+00   2.520410e+02
  -2.301979e+02   1.340778e+02
  -3.029459e+02  -1.400642e+02
  -2.241611e+02  -3.054902e+02
   4.538804e+01  -2.102863e+02
   1.534085e+02  -9.519587e+01
   1.146563e+02  -5.020212e+01
   1.263214e+02  -5.604481e+01
   2.237650e+02  -1.927443e+01
   3.211643e+02   4.705310e+01
   2.893397e+02   2.372409e+02
   2.403363e+01   4.163302e+02
  -3.147567e+02   4.253069e+02
  -4.793575e+02   2.130480e+02
  -3.076033e+02  -7.064778e+01
  -5.952242e+01  -2.199158e+02
   6.764769e+01  -2.240297e+02
   1.787646e+01  -5.298717e+01
  -1.175459e+02   6.927231e+01
  -1.123835e+02  -3.593024e+01
   3.349583e+01  -1.446155e+02
   1.391061e+02  -1.129820e+02
   1.404329e+02   2.014483e+01
  -9.051142e+00   9.154086e+01
  -1.548875e+02  -2.302223e+01
  -1.193414e+02  -1.741543e+02
   1.566896e+00  -3.311358e+02
   2.341565e+02  -2.055330e+02
   3.036442e+02   4.251147e+01
   2.353529e+02   2.137769e+02
   8.389877e+01   2.115824e+02
  -1.020201e+02   1.344196e+02
  -1.472326e+02  -5.273092e+00
  -2.156974e+01  -9.312455e+00
   4.255904e+01   6.513308e+01
   2.030537e+01   1.114565e+02
  -1.161206e+02   7.158548e+01
  -1.278003e+02  -1.939754e+01
  -6.139415e+01  -4.400506e+01
   8.157193e+01  -3.602046e+01
   7.713134e+01   7.802553e+01
  -1.169429e+02   5.643758e+01
  -2.544751e+02  -2.073400e+00
  -2.698374e+02  -1.562449e+02
  -8.570007e+01  -2.451649e+02
   1.850750e+02  -2.207945e+02
   2.661353e+02  -7.994580e+01
   1.546655e+02   4.929080e+01
  -5.224114e+01   9.952623e+01
  -4.890775e+01   4.222125e+00
   1.397057e+01  -3.502833e+01
   1.736516e+02  -5.163242e+01
   1.901926e+02   8.324980e+01
   8.247398e+01   1.598328e+02
  -9.035780e+01   1.401088e+02
  -9.231230e+01   3.258332e+01
  -2.823998e+01  -2.945321e+01
   2.707417e+01   4.311364e+01
   2.956026e+01   8.466429e+01
  -1.099301e+02   1.029945e+02
  -1.314065e+02  -7.239992e+00
  -1.542043e+02  -1.124587e+02
  -5.841776e+01  -1.543800e+02
   1.253167e+02  -1.467066e+02
   1.915812e+02   5.064227e+00
   6.303906e+01   6.364671e+01
  -6.282603e+01   8.771392e+01
  -3.618873e+01   1.824753e+01
  -1.087441e+01   2.212606e+01
   1.575576e+01  -4.169668e+01
   1.148518e+01  -1.196678e+01
  -6.977115e+01  -2.315099e+01
  -7.405033e+01  -5.538491e+01
  -2.574990e+01  -1.251725e+02
   1.366733e+02  -1.042029e+02
   2.197243e+02   5.018245e+00
   1.762576e+02   1.227783e+02
   4.394163e+01   1.922483e+02
  -5.521030e+01   1.524635e+02
  -1.102708e+02  -1.521365e+01
  -5.253695e+01  -3.855240e+01
  -5.192396e+01   1.674031e+01
  -3.810958e+01   1.211623e+01
  -9.494239e+01   3.243664e+01
  -6.223896e+01  -7.053632e+01
   6.799588e+01  -8.233728e+01
   9.571139e+01  -3.317213e+01
   9.544794e+01   4.006155e+01
  -1.675225e+01   1.061258e+02
  -1.236376e+02   1.211337e+02
  -1.767392e+02  -3.359838e+00
  -6.374300e+01  -1.486749e+02
   6.838917e+01  -2.038298e+02
   2.341174e+02  -8.823470e+01
   2.339128e+02   5.976869e+01
   7.087243e+01   1.914382e+02
  -1.760247e+01   8.609441e+01
  -1.234232e+02   4.664564e+01
  -6.287637e+01   7.055728e+01
  -2.757524e+01   9.544776e+01
  -6.313185e+01   1.191247e+02
  -1.152182e+02  -3.418121e+01
  -1.250012e+02  -1.716308e+02
  -2.522764e+01  -1.853289e+02
   1.457365e+02  -1.699223e+02
   1.431499e+02   2.565927e+01
   1.539970e+02   9.339901e+01
  -1.756544e+01   1.469777e+02
  -6.700046e+01   1.099623e+02
  -5.600862e+01  -1.661148e+01
   2.564034e+01  -2.852451e+01
   5.037543e+01  -3.058066e+01
  -5.556980e+01  -4.490275e+01
  -6.937448e+01  -7.991125e+00
  -4.592140e+01  -6.747713e+01
   8.843786e+01  -4.870908e+01
   1.850103e+02  -1.155191e+00
   1.365358e+02   3.866313e+01
   3.224420e+01   6.134400e+01
  -9.338808e+01   6.133500e+01
  -1.320525e+02  -1.457074e+00
  -6.293441e+01  -5.473809e+01
   5.311883e+01  -4.528610e+01
   8.112672e+01  -4.639067e+00
  -2.361873e+00   8.204929e+01
  -6.070261e+01   5.978463e+01
  -6.212358e+01   1.361866e+01
  -4.454851e+01  -5.579206e+01
  -4.782150e+01  -3.659377e+01
  -2.984779e+01   2.949431e+01
  -6.265744e+01  -2.562948e+01
  -3.180479e+01  -6.296188e+01
   2.839920e+01  -1.488945e+02
   1.214880e+02  -1.408794e+02
   1.166600e+02  -3.689900e+01
   1.047115e+02   1.076714e+02
   3.298315e+01   8.632855e+01
  -7.697492e+01   6.612412e+01
  -6.510985e+01  -6.162946e+00
   6.446899e+01   2.343791e+01
   1.391062e+02   1.001421e+01
   6.421654e+01   9.259278e+01
  -6.251418e+01   7.255771e+01
  -1.862396e+02   5.994853e+01
  -1.697003e+02  -7.693844e+01
  -5.817560e+00  -7.508934e+01
   6.068527e+01  -6.403525e+01
   4.576795e+01  -3.710922e+01
  -3.471278e+01   2.971397e+01
  -7.948470e+01  -3.764992e+01
  -4.881735e+01  -9.454427e+01
   5.059191e+01  -1.280146e+02
   1.601552e+02  -4.485154e+01
   8.041373e+01   5.073223e+01
   1.686524e+01   1.553560e+02
  -7.185065e+01   1.020602e+02
  -5.779518e+01  -2.091472e+01
  -5.244413e+01  -9.942539e+01
   2.990444e+01  -1.061025e+02
   1.955503e+01   1.793097e+01
   4.123727e+01   9.075304e+00
   1.338664e+01  -2.377494e+01
  -8.082607e+00  -1.898996e+01
  -5.741688e+00   1.499178e+01
   5.824881e+01   8.223774e+01
   4.001473e+01   6.521960e+01
  -1.887107e+01  -1.050265e+00
  -1.309589e+02  -3.366674e+01
  -1.305256e+02  -2.709642e+01
  -1.700331e+01  -9.298667e+00
   1.240905e+02  -3.940824e+00
   9.555634e+01   1.783650e+01
  -1.776995e+01  -7.424407e+00
  -5.469743e+01   7.521247e+00
  -7.889750e+00  -2.400118e+01
   1.072863e+01   3.153910e+01
  -1.466195e+01  -7.139824e+00
  -7.163987e+01   1.389497e+01
  -8.129116e+01   5.748725e+00
  -1.756895e+01  -6.531376e+01
   7.440801e+01  -8.454241e+01
   1.766667e+02  -9.441281e+01
   1.241788e+02   5.785437e+01
   6.553030e-01   1.536649e+02
  -9.993652e+01   1.450867e+02
  -1.358715e+02   7.469190e+01
  -6.653535e+00  -2.059342e+01
   2.803958e+01  -3.234989e+01
   3.720476e+00   1.760094e+01
   7.541618e+00   4.033521e+01
  -5.077074e+01  -6.888060e+01
  -1.936495e+01  -8.495526e+01
   3.206267e+01  -7.097886e+01
   8.788379e+01  -3.466031e-01
   8.328893e+01   1.093324e+02
  -3.452413e+00   1.679360e+02
  -8.198902e+01  -5.921116e+00
  -7.411058e+01  -6.521621e+01
  -4.751626e+01  -1.251936e+02
   9.219886e+01  -7.658994e+01
   6.914388e+01   4.694564e-01
   2.860848e+01   3.659340e+01
   1.685841e+01   5.049970e+01
  -4.052077e+01   4.782997e+01
   2.506061e+01  -6.364215e+00
   7.681462e+01  -3.135224e+01
   9.309211e+00   4.679963e+01
  -6.900588e+01   7.020797e+01
  -8.967542e+01   2.018771e+01
  -5.766728e+01   8.485148e+00
   1.736677e+01  -9.104410e+01
   3.905199e+01  -8.033623e+01
   4.714290e+00   3.248820e+01
  -2.478423e+01   2.203598e+01
  -2.915099e+01   3.156146e+01
  -4.841760e+01  -4.692628e+01
  -2.480102e+01  -5.168171e+01
  -1.018022e+01  -2.713740e+01
   2.303846e+01   1.378038e+01
  -2.593056e+01   1.681903e+00
   6.611938e+00  -2.189052e+01
  -3.983368e+01  -1.685804e+01
   1.543894e+01   1.703875e+01
   2.779109e+01   6.043370e+01
   5.562477e+00   4.807543e+01
  -5.696316e+01   2.233938e+01
  -3.848651e+01  -8.172351e+01
   1.958269e+01  -7.075200e+01
   5.914507e+01  -1.169248e+00
   8.429454e+01  -1.052250e+01
   1.527572e+01   1.581596e+01
  -6.113516e+01   4.102044e+01
  -6.833485e+01   3.100953e+00
  -1.875632e+01  -3.495092e+01
   4.099393e+01  -5.359958e+01
   6.977372e+01  -4.797817e+01
   2.663394e+01   4.130766e+00
  -2.868253e+01   3.840128e+01
  -7.102617e+01  -3.517090e+00
   8.833441e+00  -4.897990e+01
   6.440578e+01  -1.122722e+01
