
 $NMID
 id='ANONYMOUS ', fmtdat='(2E16.6)'
 volume=1.0
 tramp=1.0
 $END
   2.528422e+03  -5.547592e+01
   1.451776e+03   1.386886e+03
   6.916431e+01   1.354886e+03
  -7.257269e+02   1.139324e+03
  -7.049148e+02   3.934456e+02
  -2.205134e+02   2.414607e+01
   1.610040e+02   4.977934e+01
   4.330381e+01   3.201880e+02
  -2.657469e+02   3.859551e+02
  -4.528809e+02   1.896606e+02
  -3.309500e+02  -2.515936e+02
  -5.758013e+01  -4.676734e+02
   1.214444e+02  -1.425745e+02
   1.462800e+02   2.463758e+02
  -7.162550e+01   3.564247e+02
  -2.441249e+02   8.909009e+01
  -1.935970e+02  -3.305680e+02
  -8.891521e+00  -4.911617e+02
   3.839744e+02  -2.788969e+02
   3.324284e+02   5.615669e+01
   1.517217e+02   2.983275e+02
  -5.358685e+01   2.014603e+02
  -1.868183e+01   9.330259e+01
   1.561518e+02   1.746431e+02
   1.713235e+02   3.117634e+02
  -5.058049e+01   2.820317e+02
  -3.806016e+02  -5.092700e+00
  -4.510328e+02  -1.842175e+02
  -1.314377e+02  -2.216397e+02
   2.480994e+02  -8.839374e+01
   3.093480e+02   1.146637e+02
   5.665619e+01   2.827535e+02
  -2.434315e+02   2.423589e+02
  -3.581303e+02   1.931926e+02
  -2.198009e+02  -8.196350e+01
  -1.011402e+02  -1.971950e+02
  -1.101309e+01  -1.155505e+02
  -8.350930e+01  -1.290814e+01
  -1.733898e+02   8.497244e+01
  -9.094674e+01  -1.480686e+02
   1.361263e+01  -3.699795e+02
   1.883185e+02  -2.336760e+02
   1.769320e+02   2.986593e+01
   8.037621e+01   1.940509e+02
  -1.187776e+02   7.988669e+01
  -6.612849e+01  -2.613225e+02
   8.894606e+01  -2.973087e+02
   2.773445e+02   3.362908e+01
   3.554684e+02   3.001638e+02
   1.694421e+02   3.144277e+02
  -1.816708e+02   1.551897e+02
  -3.201601e+02  -1.390440e+01
  -2.946712e+02  -1.546978e+02
  -1.421837e+01  -1.193225e+02
   1.904501e+02  -8.273815e+01
   1.316443e+02  -4.497490e+00
   4.485577e+01   1.170704e+01
  -5.407328e+01  -8.336671e-01
   4.829411e+01  -4.692928e+01
   1.424079e+02   5.857819e+01
   8.746960e+01   8.401171e+01
  -9.033995e+01   1.810597e+02
  -2.855658e+02   1.695500e+02
  -1.951861e+02  -7.186120e+01
  -4.095770e+01  -2.555648e+02
   2.350497e+02  -2.709971e+02
   3.066233e+02  -1.265052e+02
   1.874470e+02   1.122957e+02
   5.595130e+01   2.803423e+02
  -2.530744e+01   2.388302e+02
  -2.874544e+00   1.239463e+02
  -1.748564e+01   8.389286e+01
  -1.468464e+02   6.325817e+01
  -2.659280e+02   5.401547e+00
  -1.847437e+02  -6.868099e+01
  -1.614188e+01  -2.186674e+02
   1.107088e+02  -1.499719e+02
   1.375639e+02   6.832620e+01
   5.218208e+01   2.314758e+02
  -2.387676e+01   2.170759e+02
  -1.832327e+02   7.040513e+01
  -2.539512e+02  -1.386201e+02
  -7.922196e+01  -2.422245e+02
   3.378322e+01  -2.002527e+02
   1.421522e+02  -1.377156e+02
   1.199381e+02  -7.138075e+01
   1.418610e+02  -4.958251e+01
   2.717624e+02   1.113451e+00
   3.606533e+02   8.864557e+01
   2.253664e+02   2.832073e+02
  -4.045166e+01   3.311946e+02
  -3.232696e+02   2.846715e+02
  -3.982996e+02   1.241911e+02
  -1.970024e+02  -2.854346e+01
   1.454711e+01  -2.074742e+02
   4.112488e+01  -1.468151e+02
   4.579970e+00  -4.576264e+01
  -8.137815e+01   3.690004e+00
  -6.024235e+01  -4.745217e+01
   5.382584e+01  -7.822164e+01
   8.194829e+01  -6.003476e+01
   8.592094e+01   6.127035e+01
  -2.577551e+01   1.014665e+02
  -1.092353e+02  -1.658838e+01
  -1.058026e+02  -2.470507e+02
  -1.878761e+01  -2.730366e+02
   2.033251e+02  -1.355610e+02
   3.480181e+02   1.526332e+01
   2.809983e+02   2.229074e+02
   2.428613e+01   2.151499e+02
  -1.103205e+02   1.403116e+02
  -1.402259e+02  -2.171502e+01
  -3.591587e+00   1.239236e+01
   2.945134e+00   6.870892e+01
  -9.035642e+00   9.784078e+01
  -1.068319e+02   5.625111e+01
  -8.492575e+01  -1.162416e+01
  -4.899034e+01   6.999675e+00
   4.891816e+01   1.987952e+01
   2.445328e+01   8.649237e+01
  -1.395185e+02   6.311151e+01
  -2.346811e+02  -1.871033e+01
  -1.870197e+02  -1.877475e+02
   4.763129e+00  -2.282840e+02
   1.430754e+02  -1.647211e+02
   1.761995e+02  -5.233386e+01
   1.020872e+02   1.251799e+01
  -8.337859e+01   6.394595e+01
  -2.058276e+01  -6.473283e+00
   6.792543e+01  -4.914005e+01
   1.243222e+02   1.062507e+01
   1.286291e+02   1.410776e+02
   1.237569e+01   1.300046e+02
  -6.196847e+01   9.773235e+01
  -7.351599e+01   1.630120e+01
  -2.202652e+01  -4.079013e+00
   3.462081e+01   3.307700e+01
  -1.619671e+01   1.346239e+02
  -1.164398e+02   9.826057e+01
  -1.904907e+02  -4.007177e+01
  -1.308898e+02  -1.229514e+02
  -5.752069e-01  -1.974967e+02
   1.262992e+02  -1.398195e+02
   1.545369e+02   3.074006e+01
   6.020696e+01   6.713860e+01
  -1.548712e+01   6.561080e+01
  -2.272032e+01  -3.891865e+01
  -1.192336e-01  -2.613442e+01
   1.212768e+01  -9.186164e+00
   8.123914e+00   5.472091e+01
  -3.470759e+01  -1.727275e+01
  -7.252527e+01  -6.923774e+01
   6.049579e+01  -1.152416e+02
   1.348085e+02  -1.248847e+02
   2.008300e+02  -8.763550e+00
   1.361677e+02   1.329921e+02
  -1.379418e+01   1.652488e+02
  -6.468895e+01   1.486821e+02
  -9.872042e+01   5.047501e+01
  -6.939372e+01  -3.003027e+01
  -6.087016e+01  -3.496284e+01
  -5.411586e+01  -1.131827e+01
  -7.694020e+01  -2.045360e+01
  -3.954946e+01  -6.889786e+01
   4.941602e+01  -7.735529e+01
   9.617840e+01  -4.682626e+01
   1.179862e+02   2.759428e+01
  -4.476509e+01   1.271090e+02
  -1.490036e+02   7.990242e+01
  -1.838922e+02  -1.092187e+02
  -5.651413e+01  -1.699953e+02
   1.063526e+02  -1.828481e+02
   2.341179e+02   1.297062e+01
   1.524214e+02   1.022793e+02
  -2.994132e+00   1.087564e+02
  -3.168961e+01   8.339089e+01
  -1.585434e+01   5.873977e+01
  -4.739231e+01   8.113010e+01
  -2.630347e+01   8.632861e+01
  -9.219181e+01   5.464089e+01
  -9.482883e+01  -3.440457e+00
  -6.939345e+01  -1.344790e+02
   4.375854e+01  -2.069772e+02
   9.446041e+01  -1.076941e+02
   1.378765e+02  -1.522167e+00
   1.126970e+02   1.142257e+02
  -4.942690e+01   1.287526e+02
  -8.566866e+01   4.601015e+00
  -2.192981e+01  -2.445832e+00
   9.532545e+00  -1.732891e+01
  -2.348144e+00  -4.132308e+01
  -2.828589e+01  -3.514633e+01
  -6.351483e+01  -5.297716e+00
  -4.128806e+01   2.257441e+00
   9.542689e+01  -2.196892e+01
   1.090038e+02   1.026249e+01
   6.323425e+01   5.157595e+01
  -3.457155e+01   6.421030e+01
  -9.939474e+01   3.798283e+01
  -1.304905e+02   1.190895e+01
  -4.797150e+01  -7.877826e+01
   6.820971e+01  -3.769024e+01
   8.614143e+01   2.931827e+01
   1.274152e+01   6.576030e+01
  -8.097300e+01   4.806033e+01
  -6.853870e+01   1.343924e+01
  -6.066491e+01  -5.220503e+01
  -3.381679e+01  -2.876851e+01
  -2.823509e+01   7.561264e+00
  -7.795009e+01  -3.542738e+00
  -6.084495e+01  -6.672820e+01
   4.510547e+01  -1.574261e+02
   7.842377e+01  -9.738194e+01
   1.707282e+02  -2.925004e+00
   7.857451e+01   7.529548e+01
  -4.422669e+00   8.250845e+01
  -7.303810e+01   2.439012e+01
  -6.517983e+01   1.173785e+01
   4.376278e+01   1.255429e+01
   6.434758e+01  -1.251076e+01
   5.167153e+01   1.034807e+02
  -6.305235e+01   6.253330e+01
  -8.639959e+01   6.964466e+01
  -1.112963e+02  -3.897710e+01
   4.069867e+01  -4.250660e+01
   4.564449e+01  -4.241486e+01
   5.414094e+01  -5.008155e+01
  -6.232213e+01   6.093621e-01
  -9.766028e+01  -1.457474e+01
  -4.543168e+01  -1.241723e+02
   3.552993e+01  -1.660967e+02
   1.441046e+02  -1.956178e+01
   6.383869e+01   7.721237e+01
   1.925563e+01   1.684575e+02
  -8.339658e+01   1.188001e+02
  -9.095854e+01  -1.466987e+00
  -4.684906e+01  -9.804312e+01
  -1.270693e+01  -7.319271e+01
   3.272207e+01   2.099389e+01
   6.534277e+01  -8.240328e+00
   4.912230e+01  -3.350177e+00
  -3.792074e+01  -8.523327e+00
   3.698891e+01   5.034829e+01
   3.130503e+01   1.001442e+02
   4.009078e+01   9.862580e+01
  -1.575418e+01   2.291936e+01
  -1.147133e+02  -3.358238e+01
  -9.109479e+01  -3.066712e+01
  -1.233472e+01  -1.892724e+01
   7.852734e+01  -2.282391e+01
   6.700815e+01   2.349343e+01
   1.174561e+01   8.145018e+00
  -6.675004e+01   5.154357e+01
   1.881862e+01   1.515065e-01
  -1.411839e+01  -3.996637e+00
  -3.230165e+01  -6.518760e+00
  -6.425571e+01  -4.539129e-01
  -8.986688e+01  -2.957992e+01
  -5.054925e+00  -5.234048e+01
   5.143846e+01  -7.267590e+01
   1.690840e+02  -1.013912e+02
   1.211213e+02   6.595949e+01
   7.188300e+01   1.533306e+02
  -5.162726e+01   1.702039e+02
  -5.862298e+01   3.375283e+01
  -1.142185e+02   1.916950e+01
  -5.250930e+01  -2.976295e+01
   2.402208e+01   1.334651e+01
  -3.453808e+01  -4.004021e-01
  -2.982632e+01  -4.446963e+01
  -8.540864e+00  -1.478996e+02
   5.528137e+01  -5.058825e+01
   8.018209e+01  -4.209005e+00
   1.093753e+02   9.461027e+01
   4.571992e+01   8.051444e+01
  -1.994578e+01   4.312732e+01
  -1.092924e+02  -8.147377e+01
  -6.959241e+01  -5.518964e+01
   4.748835e+01  -5.446178e+01
   1.372641e+02   2.392309e+01
   3.970012e+01   2.853190e+01
  -1.618325e+01   3.776547e+01
   5.876734e+00   9.227566e+00
   1.951270e+00  -1.859412e+01
   1.373199e+01  -5.174508e+00
   3.220303e+01  -3.650502e+00
  -8.569505e+01   7.020801e+01
  -1.201870e+02   2.137308e+01
  -6.631265e+01  -2.981406e+01
  -6.657590e+00  -9.507314e+01
   7.460812e+01  -5.243800e+01
   3.570994e+01  -1.013082e+01
  -3.299158e+00   2.117564e+01
   5.331984e+00  -4.509232e-01
  -4.039714e+01   7.682477e+00
  -2.545029e+01  -6.812690e+01
  -4.017447e+01  -5.236452e+01
   9.755155e+00  -1.981149e+01
   3.524264e+01   4.232676e+01
   3.912907e+01  -3.152411e+01
  -5.448151e+01  -1.159449e+01
  -9.957950e+00  -2.906295e+01
   2.530575e+01   3.959465e+01
   2.563394e+01   4.039167e+01
  -1.988384e+01   1.598758e+00
  -5.678067e+01  -1.813857e+01
  -2.488749e+01  -4.296819e+01
   3.603807e+01  -2.407215e+01
   2.986054e+01   1.262981e+01
  -1.976484e+01   4.119607e+01
   2.303080e+01   2.860870e+01
  -7.364469e+01   2.050573e+01
  -9.055211e+01  -2.443960e+01
  -3.576673e-01  -4.553767e+01
   5.307304e+01  -3.431324e+01
   4.016666e+01   5.802234e+00
  -1.600851e+01  -1.741461e+01
  -1.431479e+01   2.430453e+01
   5.477007e+01  -4.151049e+01
   5.208467e+00   4.251005e-01
