
 $NMID
 id='ANONYMOUS ', fmtdat='(2E16.6)'
 volume=1.0
 tramp=1.0
 $END
  -2.864280e+03   2.390725e+02
  -1.744057e+03  -1.368157e+03
  -1.252560e+02  -1.808121e+03
   1.083849e+03  -1.236556e+03
   9.639955e+02  -3.404978e+02
   1.247531e+02   1.489526e+02
  -2.649178e+02  -2.812788e+01
  -9.929243e+01  -4.950927e+02
   3.165185e+02  -5.217563e+02
   5.021670e+02  -2.048572e+02
   3.952263e+02   4.391112e+02
   8.329919e+01   5.672950e+02
  -2.177811e+02   2.320130e+02
  -2.572231e+02  -3.931976e+02
   1.334539e+02  -5.167664e+02
   3.801965e+02  -3.723957e+01
   2.568104e+02   4.783193e+02
  -1.061460e+02   6.312168e+02
  -4.961167e+02   3.525770e+02
  -4.519743e+02  -1.061746e+02
  -1.598119e+02  -3.064024e+02
   4.527568e+01  -2.443602e+02
   2.087768e+01  -1.221890e+02
  -1.522713e+02  -6.776706e+01
  -2.042575e+02  -3.279068e+02
   2.523484e+01  -2.855598e+02
   4.449703e+02  -8.547193e+01
   5.349172e+02   1.844701e+02
   2.124273e+02   2.944718e+02
  -3.044432e+02   1.005566e+02
  -4.577860e+02  -1.592274e+02
  -1.356140e+02  -3.544373e+02
   2.685011e+02  -3.441764e+02
   3.475560e+02  -3.861726e+01
   2.583104e+02   1.512508e+02
   6.651006e+01   2.667868e+02
  -4.270023e-01   1.451552e+02
   3.170952e+01  -5.502800e+01
   1.360952e+02  -9.425661e+01
   1.063790e+02   1.376385e+02
  -2.263919e+01   4.195830e+02
  -2.598565e+02   3.460097e+02
  -2.537644e+02  -1.165246e+01
  -1.451255e+02  -2.763709e+02
   1.142779e+02  -1.979134e+02
   9.823902e+01   2.309707e+02
  -1.065625e+02   2.372328e+02
  -3.536397e+02  -2.866128e+01
  -4.502736e+02  -3.435251e+02
  -9.284982e+01  -4.741032e+02
   2.778009e+02  -1.914083e+02
   4.886051e+02   2.445546e+01
   3.072347e+02   2.626777e+02
  -6.100871e+01   1.982224e+02
  -2.405494e+02   1.151387e+02
  -1.758419e+02  -6.085918e+00
  -1.723037e+01  -1.151293e+01
   4.311357e+01   2.055672e+01
  -8.622949e+01   6.257276e+01
  -2.104060e+02  -3.149106e+01
  -9.507480e+01  -1.940543e+02
   1.400300e+02  -2.416180e+02
   2.866385e+02  -9.275251e+01
   2.174413e+02   1.404397e+02
  -5.066835e+01   3.256133e+02
  -3.082592e+02   3.021209e+02
  -3.960961e+02   5.677618e+01
  -1.842284e+02  -2.163095e+02
  -1.357303e+01  -2.622745e+02
   5.195020e+01  -2.942346e+02
  -1.745769e+01  -1.588228e+02
   4.370081e+01  -1.412890e+02
   1.352363e+02  -1.035457e+02
   1.986056e+02  -7.904029e+01
   2.491942e+02   1.315197e+02
   1.020215e+02   2.140145e+02
  -8.436962e+01   1.477381e+02
  -2.168683e+02  -3.631282e+01
  -1.402899e+02  -2.199465e+02
   6.281792e+01  -2.027544e+02
   2.143375e+02  -2.286424e+01
   2.586685e+02   1.600767e+02
   1.211254e+02   2.956065e+02
  -9.658906e+01   2.256306e+02
  -1.772527e+02   1.565549e+02
  -1.106143e+02   8.594335e+01
  -1.529477e+02   8.774219e+01
  -2.238171e+02   2.264351e+01
  -3.636575e+02  -9.416860e+01
  -2.576317e+02  -2.776793e+02
   2.948177e+01  -4.193713e+02
   3.278327e+02  -3.442870e+02
   4.505035e+02  -1.220224e+02
   2.867043e+02   9.221225e+01
   1.154426e+01   2.529166e+02
  -1.200513e+02   1.718436e+02
  -1.479649e+01   3.830784e+01
   7.720141e+01  -4.056792e+01
   1.398640e+02   4.155178e+01
  -3.194275e+01   1.337763e+02
  -1.077006e+02   5.256406e+01
  -1.139932e+02  -5.717116e+01
   4.894100e+01  -1.196797e+02
   1.918441e+02   4.535478e+01
   1.297778e+02   2.117860e+02
  -3.697027e+01   3.233084e+02
  -2.560763e+02   1.874871e+02
  -2.983052e+02  -8.177723e+01
  -2.092186e+02  -2.821168e+02
  -4.705324e+01  -2.611927e+02
   1.372802e+02  -9.926586e+01
   8.758534e+01   3.235404e+01
   5.355178e+00  -1.013112e+01
  -1.027856e+01  -6.971734e+01
   2.658804e+01  -9.697727e+01
   1.219176e+02  -6.171341e+01
   9.019730e+01   6.842432e+01
   5.916869e+00   6.964513e+01
  -8.964830e+01  -6.354529e+01
  -2.788515e+01  -6.481961e+01
   1.533689e+02  -9.792975e+01
   2.394579e+02   8.317655e+01
   2.257025e+02   2.126105e+02
  -1.441403e+01   2.587897e+02
  -1.867686e+02   2.206850e+02
  -2.434238e+02   9.428439e+01
  -9.175175e+01  -8.009317e+01
   4.669232e+01  -1.824495e+01
   3.844326e+01  -5.700445e+01
  -8.815721e+01   9.643486e+01
  -1.886396e+02  -2.732722e+00
  -9.300199e+01  -9.517432e+01
  -9.729154e+01  -1.813010e+02
   7.486115e+01  -6.405424e+01
   1.290071e+02  -1.279088e+01
   2.605016e+01   1.912512e+01
  -3.037181e+01  -7.158849e+01
  -1.343863e+01  -8.891475e+01
   9.937208e+01  -1.224085e+02
   1.847563e+02   2.316749e+01
   1.521218e+02   1.494000e+02
  -5.474722e+01   2.027778e+02
  -1.262915e+02   1.297053e+02
  -1.458595e+02   1.870081e+00
  -8.603788e+00  -6.636539e+01
   4.608441e+01  -8.830139e+01
   4.023100e+01  -9.380496e+00
   1.332265e+01   4.256016e+01
  -2.516457e+01  -3.974211e+01
   1.232580e+01  -5.121128e+01
   9.412980e+01   2.010611e+01
   7.600938e+01   7.076580e+01
  -8.464640e+00   1.808944e+02
  -1.614796e+02   8.768463e+01
  -2.140982e+02   5.136698e+00
  -1.577833e+02  -1.887010e+02
   8.418411e+00  -2.268353e+02
   8.495091e+01  -1.419750e+02
   1.297053e+02  -1.372619e+01
   9.852374e+01   1.896455e+00
   4.115830e+01   1.657037e+01
   1.184353e+01  -2.597004e+01
   8.026884e+01   8.425933e+00
   5.687646e+01   7.918783e+01
  -5.141602e+01   9.293091e+01
  -1.051358e+02   4.121388e+01
  -9.320632e+01  -5.526739e+01
   8.780888e-01  -1.395275e+02
   1.765797e+02  -4.377366e+01
   1.356052e+02   5.093368e+01
   6.969130e+01   1.771352e+02
  -1.487552e+02   1.664973e+02
  -2.656472e+02   6.373678e+01
  -1.947890e+02  -1.238436e+02
  -9.807843e+01  -1.934525e+02
   5.168966e+01  -1.180680e+02
   9.356080e+01  -4.968779e+01
   6.051838e+01  -7.563343e+01
   3.367858e+01  -9.472911e+01
   9.236955e+01  -5.314420e+01
   1.399803e+02   5.000120e+01
   1.176044e+02   1.475438e+02
   3.517623e+00   2.188960e+02
  -9.559908e+01   1.238165e+02
  -1.442422e+02   4.209842e+01
  -1.384621e+02  -1.253353e+02
  -1.214531e+01  -1.703261e+02
   1.168560e+02  -6.163081e+01
   8.755624e+01   4.451921e+01
  -9.701153e+00   6.353534e+01
  -1.333867e+01   3.950161e+01
   2.983159e+01   3.577123e+01
   4.439023e+01   4.838150e+01
   4.870042e+01  -1.268925e+01
  -7.630661e+01   1.456797e+01
  -1.458596e+02   8.804087e+00
  -1.756977e+02  -8.455113e+01
  -1.681840e+01  -1.149739e+02
   1.508257e+02  -8.701875e+01
   1.448545e+02   1.293016e+01
   2.338182e+01   1.143491e+01
  -2.305345e+01   3.902999e+01
  -3.048349e+01  -1.875280e+01
  -1.751330e+01  -7.707637e+01
   5.219062e+01  -1.048071e+02
   8.037977e+01  -2.834644e+01
   8.118584e+01   8.419030e+01
   2.800690e+01   3.203396e+01
   5.044685e+01  -1.189779e+00
   6.794878e+01   6.749427e+00
   6.410451e+01   6.189078e+01
  -5.989928e+01   1.224066e+02
  -1.307962e+02   1.383491e+02
  -1.861306e+02  -3.506606e+01
  -1.259786e+02  -1.205927e+02
   5.901873e+00  -1.263589e+02
   6.923086e+01  -6.120565e+01
   4.675021e+01   4.244504e+01
  -5.726793e+01   1.868091e+01
  -1.098317e+02  -5.526594e+01
  -3.509859e+01  -1.360471e+02
   7.145514e+01  -7.942985e+01
   1.517940e+02  -2.837637e+01
   1.668292e+02   4.818237e+01
   5.916088e+01   8.066290e+01
  -5.150678e+01   2.291294e+01
  -4.201793e+01   9.195311e+00
   3.232996e+01  -3.448849e+01
   9.233725e+01   2.691851e+01
   7.427380e+01   1.442681e+02
  -8.393331e+01   1.166386e+02
  -9.957817e+01   3.370992e+01
  -1.163444e+02  -7.528447e+01
  -2.533723e+01  -1.815046e+02
   6.879182e+01  -1.041421e+02
   5.486451e+01   2.855351e+01
   4.751376e+01   7.599331e+01
  -1.919697e+01   7.358840e+01
  -4.604304e+01  -2.608374e+01
  -2.818828e+01  -4.008550e+01
  -7.331750e+00   4.551013e+00
   1.471966e+00   2.426019e+01
  -5.799041e+01   1.179676e+01
  -3.707762e+01  -1.036384e+02
   6.691918e-01  -1.197041e+02
   5.372220e+01  -6.265507e+01
   1.218059e+02   4.958243e+01
   1.229064e+02   5.164802e+01
   8.482537e+00   5.678229e+01
  -5.592273e+01   3.857133e+01
  -7.271054e+01   9.521103e+00
   6.730508e+00   9.542956e+00
   1.052919e+01   5.442864e+00
   8.432859e+00  -2.642628e+01
  -3.028743e+01   4.611002e+01
  -1.460236e+01  -3.501205e+00
   7.282154e+01   1.931149e+01
   5.981389e+01   1.254109e-01
   4.926723e+01   8.345592e+01
  -7.423101e+01   1.162518e+02
  -1.825126e+02   7.536421e+01
  -1.214792e+02  -4.087933e+01
  -3.227318e+01  -1.700778e+02
   9.267570e+01  -1.531375e+02
   1.225071e+02  -8.178423e+01
   9.640193e+01   3.073459e+01
   3.999665e+01   7.792792e+00
   3.894417e+01   3.083203e+01
  -1.655899e+01   2.902333e+01
  -2.395648e+01   7.728776e+01
  -1.593934e+01   6.293204e+01
  -7.363161e+00   6.286292e+01
  -1.074350e+02  -2.012128e+01
  -8.244634e+01  -9.085614e+01
  -2.787507e+01  -7.828555e+01
   3.934992e+01  -4.683579e+01
   1.199343e+02   4.815078e+01
   2.818441e+01   9.998259e+01
  -1.057867e+02   6.988492e+01
  -1.019035e+02  -6.095116e+01
  -5.952516e+01  -9.048763e+01
   1.698417e+01  -8.709982e+01
   5.800260e+01  -7.818971e+00
  -2.565655e+01   2.675269e+01
  -2.615659e+01   3.153838e+01
   4.214338e+00   8.597145e+00
   4.311646e+01  -5.735452e+01
   1.082080e+02  -3.278106e+01
   8.244517e+01   2.645229e+01
  -1.348483e+01   7.723460e+01
  -3.845149e+01   1.111944e+02
  -5.464686e+01   2.199261e+00
  -1.338858e+01  -2.984699e+01
   3.625916e+01  -1.186938e+01
   5.649922e+01   1.332566e+01
   7.682696e+00   7.031264e+01
  -6.732255e+00   1.337699e+01
  -2.487444e+01  -4.217461e+00
  -3.315783e+01  -2.259225e+01
   2.763637e+00  -1.466714e+01
   1.144380e+01   1.420831e+01
   3.648234e+01  -8.749185e+00
   3.333248e+01  -8.240536e+00
  -1.120597e+01  -4.997262e+01
   1.190301e+01  -1.882116e+01
  -1.007816e+01   7.834293e+00
   1.540433e+01   7.945539e+00
  -6.303680e+01   3.809040e+01
  -5.991810e+01  -4.265989e+01
  -4.031309e-01  -5.542980e+01
   2.014710e+01  -2.139237e+01
   6.649741e+01   6.722807e+01
   5.541846e+01   5.136366e+01
   9.657141e-01   5.679597e+01
  -5.139793e+01   2.681060e+01
   1.809668e+01   5.184680e+01
  -7.637561e+00   1.518733e+01
   4.800956e+01   3.731513e+01
  -1.493600e+01   3.899694e+01
  -1.006824e+02   6.137516e-02
