
 $NMID
 id='ANONYMOUS ', fmtdat='(2E16.6)'
 volume=1.0
 tramp=1.0
 $END
   1.400710e+03  -5.634193e+02
   8.647147e+02   1.389483e+02
   2.151702e+02   6.250148e+02
  -3.739661e+02   5.895858e+02
  -3.561161e+02   4.746170e+01
  -1.104986e+02  -9.559509e+01
   9.005890e+01   7.997570e+01
   5.608138e+01   1.871809e+02
  -1.596072e+02   2.379350e+02
  -2.294593e+02   1.028602e+02
  -1.979709e+02  -1.608329e+02
   2.859103e+00  -2.005012e+02
   4.883578e+01  -9.827580e+01
   7.531487e+01   1.544428e+02
   1.414664e+01   2.220007e+02
  -1.603587e+02   4.292872e+01
  -1.548768e+02  -2.220870e+02
   2.886999e+01  -2.581510e+02
   1.998429e+02  -1.213202e+02
   2.453310e+02   3.906201e+01
   6.989195e+01   1.331012e+02
  -5.541172e+01   1.106114e+02
  -3.155851e+01   4.858658e+01
   9.379391e+01   5.651390e+01
   1.155791e+02   1.370236e+02
  -1.470280e+01   1.518418e+02
  -1.903859e+02   3.575160e+01
  -2.556235e+02  -9.143534e+01
  -2.487496e+01  -1.519290e+02
   1.652829e+02  -5.544671e+01
   1.986138e+02   2.751451e+01
   9.060252e+01   1.472376e+02
  -1.337364e+02   1.526813e+02
  -1.591637e+02   7.258268e+01
  -1.473923e+02  -6.647633e+00
  -3.692066e+01  -1.173682e+02
  -5.697127e+01  -9.484678e+01
  -2.342135e+01   1.815986e+00
  -1.021968e+02   6.017504e+01
  -4.820232e+01  -5.914877e+01
  -7.445561e+01  -2.629284e+02
   5.815174e+01  -2.294842e+02
   8.635277e+01   3.320885e+01
   6.921761e+01   8.452986e+01
  -5.772747e+01   3.462076e+01
  -6.251936e+01  -1.263429e+02
   1.283394e+01  -1.775107e+02
   1.160603e+02  -3.530690e+01
   1.937784e+02   1.261692e+02
   5.081158e+01   1.863782e+02
  -7.779655e+01   1.055458e+02
  -2.217166e+02  -2.555217e+00
  -9.607061e+01  -8.912140e+01
   7.588952e+00  -9.017666e+01
   1.048920e+02  -1.240309e+01
   8.496217e+01   4.276111e-01
  -8.878190e+00  -2.009870e+01
  -3.185092e+01  -3.553449e+01
  -9.966806e+00  -3.761243e+01
   1.043361e+02  -3.643963e+01
   4.505056e+01   4.951368e+01
  -3.535524e+01   7.335163e+01
  -1.480852e+02   8.077919e+01
  -1.738554e+02  -1.575759e+01
  -1.953141e+01  -1.691844e+02
   1.243973e+02  -1.545206e+02
   1.331135e+02  -4.308035e+01
   9.145177e+01   3.918452e+01
   9.287066e+01   9.055283e+01
   1.959481e+01   1.895931e+02
  -1.865689e+01   4.374322e+01
  -1.306043e+01   4.980946e+01
  -6.600438e+01  -6.747288e+00
  -1.222469e+02  -2.075325e+00
  -9.028477e+01  -4.477486e+01
  -1.596852e+01  -9.896123e+01
   3.061210e+01  -5.086652e+01
   1.327985e+02   3.058782e+01
   3.107777e+01   1.291961e+02
   2.428496e+01   1.390318e+02
  -7.246815e+01   3.969586e+01
  -9.989643e+01  -6.128214e+01
  -2.488928e+01  -1.285338e+02
   1.289222e+01  -1.226966e+02
   6.038868e+01  -1.069936e+02
   5.375470e+01  -4.681655e+01
   6.249268e+01  -3.544994e+01
   1.218626e+02  -3.178036e+01
   2.015977e+02   2.028778e+01
   1.740776e+02   1.156333e+02
  -3.326115e+01   1.781752e+02
  -1.341930e+02   1.854230e+02
  -1.910124e+02   8.014573e+01
  -1.263053e+02  -1.966772e+01
  -1.769433e+01  -9.324382e+01
   2.541665e+01  -4.020316e+01
  -1.267160e+01   1.895625e+01
   1.204764e+01   1.881180e+00
  -5.872622e+01  -1.158188e+01
   1.401147e+01  -4.812532e+01
  -2.128810e+01  -8.462269e+00
   2.258392e+01  -1.155222e+01
  -4.087280e+01   6.178533e+01
  -7.389064e+01   3.783889e+01
  -5.726265e+01  -1.292609e+02
   4.394443e+00  -1.322863e+02
   1.192980e+02  -9.001094e+01
   1.964082e+02   5.011230e+01
   1.421125e+02   1.002998e+02
   2.549160e+01   1.912567e+02
  -1.038142e+02   4.226214e+01
  -5.568076e+01  -1.990198e-01
   8.028694e+00   1.370563e+01
  -5.550048e+01   2.738922e+01
  -8.313242e+00   9.702959e+00
  -1.536226e+01   3.836276e+01
  -3.900728e+01  -3.023723e+01
   1.800354e+01  -5.912062e+00
   2.958728e+01   5.188019e+01
  -1.963205e+00   3.288249e+01
  -8.504945e+01   2.128928e+01
  -1.282029e+02   5.794024e+01
  -1.876535e+02  -4.961830e+01
   2.687234e+01  -8.716277e+01
   9.530847e+01  -1.081305e+02
   7.423408e+01  -1.867924e+01
   7.340087e+01   2.314280e+01
  -2.842003e+01   1.342182e+01
  -3.058818e+01   2.652760e+01
   3.343422e+01  -1.559729e+01
   1.232467e+02  -4.441928e+01
   9.144984e+01   4.975549e+01
   1.034540e+01   9.048571e+01
  -1.398891e+01   5.095227e+01
  -3.609661e+01  -1.312035e+01
   1.432811e+01  -1.075277e+01
  -1.836597e+00  -2.758349e+01
   3.599520e+01   5.019901e+01
  -5.973722e+01   4.769062e+01
  -1.174201e+02  -1.523430e+01
  -1.002551e+02  -9.913113e+01
   8.886335e+00  -1.098650e+02
   7.998652e+01  -5.097495e+01
   8.752732e+01  -1.147470e+01
  -1.681068e+01   1.778191e+01
  -2.471388e+01   3.072091e+01
  -3.745318e+01   3.739121e+01
   9.742758e+00  -2.797678e+01
   4.293597e+01  -5.217058e+00
  -4.692073e+01   5.047037e+01
  -2.271108e+01   2.089501e+01
  -4.474283e+01  -1.400915e+01
  -4.316735e+00  -9.746799e+01
  -1.780891e+00  -6.135599e+01
   6.702525e+01   5.771660e+00
   7.102931e+01   7.168142e+01
   2.276584e+00   8.994125e+01
  -4.727979e+01   1.048421e+02
  -4.317337e+01   1.131606e+01
  -2.439923e+01  -2.710102e+01
  -2.775179e+01  -2.385015e+01
  -5.257951e+01   3.513175e+01
  -2.724708e+01   7.941172e+00
  -1.153602e+01  -4.444329e+01
   2.742902e+01  -7.352215e+01
   7.331369e+01   1.148324e+01
   4.769113e+01   4.058824e+01
  -6.158408e+00   7.531659e+01
  -1.336866e+02   5.053966e-01
  -1.289158e+02   4.243181e+01
  -6.536609e+01  -8.666406e+01
   3.144881e+01  -1.091443e+02
   1.037248e+02  -5.328938e+01
   1.077832e+02   2.724014e+01
   3.675476e+01   5.151423e+01
  -2.725965e+01   6.584698e+01
  -8.268338e+01   1.217022e+01
  -7.561969e+01   1.451063e+01
  -4.347703e+01   1.313161e+01
  -5.729531e+01   4.959802e+01
  -7.336351e+01   1.456645e+01
  -7.226492e+01  -9.625950e+01
  -8.617283e+00  -1.169395e+02
   3.175353e+01  -8.030765e+01
   1.070357e+02  -8.155297e+00
  -2.495161e+01   5.688671e+01
   5.323206e+00   5.442734e+01
  -2.803069e+01   9.601819e+00
  -1.554671e+01  -1.488669e+01
   1.014555e+01  -3.546435e+01
  -1.066351e+01  -3.255769e+01
  -8.209422e+00  -9.369943e+00
  -3.206415e+01   1.218239e+01
  -1.369024e+01  -1.786642e-02
   1.507635e+01  -1.820847e+01
   8.532901e+01   1.123621e+01
   6.610255e+01   3.411317e+01
   2.334753e+00   3.002514e+01
  -8.838424e+01  -5.219444e+00
  -5.786286e+01  -4.866742e+00
  -2.071792e+01  -1.941483e+01
   3.705635e+01   1.170148e+01
   3.252603e+01   2.442455e+01
   4.816661e+01   3.992684e+01
  -1.407825e+01  -3.316289e+00
  -1.773922e+01   6.209116e+00
  -7.827794e-01   3.051690e-01
  -3.018602e+01   3.378794e+00
  -4.774260e+01  -2.302062e+01
  -3.397357e+01  -9.586831e+00
  -3.932926e+01  -4.474746e+01
   3.529382e+00  -4.536758e+01
   5.810220e+01  -9.709128e+01
   7.653646e+01   2.495862e+01
   6.090394e+01   4.209454e+01
  -3.178119e+01   6.896367e+01
  -9.648324e+01   4.765819e+01
  -1.490087e+01   4.724443e+01
  -4.827759e+00  -1.821779e+01
   7.061380e+01  -2.023147e+01
   6.110460e+01   5.074663e+01
  -4.886295e+01   9.187172e+01
  -1.121564e+02  -3.380574e+01
  -9.254166e+01  -2.290542e+01
  -2.546918e+01  -1.904366e+01
  -1.607481e+01  -3.441207e+01
   2.199000e+01   1.665479e+01
   1.280095e+01   2.213405e+01
  -4.686112e+01  -2.383610e+01
  -1.643304e+01  -3.817156e+01
   3.979959e+01  -8.281784e+01
   5.528982e+01   4.080864e+00
   7.933420e+01   2.836205e+01
   2.616462e+01   1.057544e+02
  -7.680881e+01   8.192369e+01
  -6.342677e+01   1.194468e+01
  -2.822619e+01  -4.978134e+01
  -2.394905e+01  -3.007747e+01
   1.459343e+01  -1.392968e+01
   2.507880e+01   2.760250e+01
  -3.647166e+01   6.039887e+00
  -8.049789e+00  -8.606325e+00
   4.324197e+01   7.766936e+00
   4.411289e+01   5.057576e+01
  -3.439187e+00   9.854807e+01
  -7.522945e+01   4.089053e+00
  -5.529329e+01   2.058132e+01
  -5.988015e+01  -7.894282e+01
   2.575710e+01  -4.909137e+01
   4.199279e+01  -6.569905e+00
   7.186391e+01  -3.360238e+01
   1.113136e+01   1.746288e+01
  -2.079916e+01  -7.920381e+00
   2.484712e+01  -9.155830e+00
   1.764524e+00  -2.687120e+01
  -5.209541e+01  -2.176374e+01
  -2.596733e+01   1.634878e+01
  -7.520209e+01  -2.546151e+01
   2.668596e+00  -4.470594e+01
   7.262379e+01  -9.568184e+01
   7.568003e+01  -6.560812e+01
   6.985980e+01   4.266769e+01
   5.060127e+01   1.096479e+02
  -8.408512e+00   9.842493e+01
  -1.468328e+01   9.478559e+00
  -3.787487e+01   7.841597e+00
  -9.321620e+00  -1.304512e+01
   1.862259e+01  -7.151608e-01
  -3.869048e+00   4.832281e-01
  -1.365340e+01  -9.977167e+00
   5.324991e+00  -3.286756e+01
   4.920838e+00  -4.665580e+01
   5.076541e+01  -1.636424e+01
   5.422571e+01   6.133193e+01
  -2.138215e+01   5.093970e+01
  -5.726141e+01   2.143926e+01
  -5.059182e+01  -3.303340e+00
   1.331486e+01  -7.949475e+01
   2.983677e+01  -2.967532e+00
   3.926341e+01   1.622464e+01
   1.408698e+00   6.666618e+01
  -2.562785e+00   7.665856e+00
  -2.525263e+01   2.788306e+01
   3.106872e+01  -3.099352e+00
   3.881219e+01  -4.169546e+01
   2.095952e+00   1.082337e+01
  -2.062089e+01   3.359221e+01
  -1.110825e+01   2.872712e+01
  -5.894437e+00   5.665737e-02
  -6.984854e+00  -2.307718e+01
   2.494977e+01  -4.381600e+01
  -2.020091e+00   5.382806e+00
   4.595690e+01  -4.180556e-01
  -4.108549e+00  -4.601650e+01
  -1.128552e+01  -6.995422e+00
  -1.043629e+01  -3.129208e+01
   1.629427e+01   9.010984e+00
   2.151961e+01  -1.327414e+00
   5.016944e+01   1.571682e+01
  -1.017253e+01  -1.234687e+01
  -2.940165e+01   5.692841e+00
   3.578133e+01  -2.304462e+01
   1.227277e+01   1.575533e+01
  -1.807242e+01   3.997349e+01
  -3.724566e+01   2.185108e+01
   4.380520e-01  -1.370928e+01
  -4.672805e+01  -2.073698e+01
   1.928148e+01  -1.558805e+01
   7.149654e+01  -2.720907e+00
   6.455269e+01   1.054998e+01
   3.052966e+00   2.459876e+01
  -3.567068e+01   1.812294e+01
  -2.362258e+01  -2.074618e+01
  -1.863547e+00  -4.351105e+01
   4.628241e+01  -8.274137e+01
   4.693093e+00  -2.939340e-01
  -1.630955e+01  -2.239664e+01
  -3.665541e+01  -5.480219e+00
  -1.125425e+01   8.370995e+00
   6.676767e+01  -6.470805e+00
