
 $NMID
 id='ANONYMOUS ', fmtdat='(2E16.6)'
 volume=1.0
 tramp=1.0
 $END
   1.987316e+03   4.647243e+01
   1.420170e+03   1.220203e+03
  -7.796960e+01   1.536584e+03
  -7.667206e+02   3.115538e+02
  -4.998892e+02  -1.346032e+02
   2.351775e+02  -2.675573e+02
   4.525274e+02   1.210325e+02
  -5.418253e+01   3.495674e+02
  -3.387851e+02   2.745226e+02
  -2.660287e+02  -8.237341e+01
  -1.231065e+02  -3.899747e+02
   1.016212e+02  -3.379203e+02
   2.614188e+02  -3.935344e+01
   1.250494e+02   2.589786e+02
  -2.937727e+01   2.914838e+02
  -1.943479e+02   4.568947e+01
  -6.690193e+01  -2.219446e+02
   2.064407e+02  -1.808301e+02
   1.749390e+02  -1.352709e+01
   1.286485e+02   1.664914e+02
   2.883885e+00   1.437830e+02
  -7.239164e+01   4.005526e+01
  -8.023032e+01   3.425351e+01
  -1.047822e+00  -2.370040e+00
   1.051819e+02   5.040423e+01
   5.959199e+01   2.026194e+02
  -1.859427e+02   1.016250e+02
  -3.150330e+02  -3.290231e+01
  -1.388843e+02  -2.020673e+02
   1.804640e+02  -1.437118e+02
   2.277239e+02   2.935995e+01
   1.425597e+02   1.802445e+02
  -1.178879e+02   1.819618e+02
  -2.225915e+02   2.975855e+01
  -1.236412e+02  -7.162313e+01
  -6.274689e+00  -1.842955e+02
   2.687115e+01  -1.423299e+02
   4.290318e+01   6.915679e+01
  -3.931788e+01   1.514738e+02
  -1.887354e+02   2.128995e+01
   3.020003e+00  -2.313505e+02
   1.396977e+02  -2.429771e+02
   2.378516e+02  -2.683858e+01
   9.478987e+01   1.472656e+02
  -8.719889e+01   1.122923e+02
  -1.255433e+02  -1.500741e+02
   6.517908e+01  -2.349994e+02
   2.156348e+02   1.818134e+00
   1.911272e+02   1.605999e+02
   2.079745e+01   1.848746e+02
  -1.411762e+02   1.000872e+02
  -2.693985e+02  -6.204531e+01
  -1.526168e+02  -1.635010e+02
   5.492300e+01  -7.714552e+01
   1.727374e+02  -5.906321e+00
   7.683140e+01   6.536280e+01
  -4.749189e+01   1.033679e+01
  -4.082568e+01  -2.905957e+01
   7.421940e+01  -3.055144e+01
   1.346909e+02   9.323903e+01
   6.781740e+00   1.168095e+02
  -9.354570e+01   7.824359e+01
  -1.102214e+02  -2.237436e+00
  -4.828698e+01  -2.533676e+01
   1.153573e+01  -4.611611e+01
   1.245987e+02  -3.209820e+01
   1.315717e+02  -6.502274e+01
   5.538206e+01   6.346848e+01
   3.381258e+01   1.611855e+02
   1.140656e+01   1.992877e+02
  -5.885479e+01   1.369052e+02
  -6.929464e+01   3.663017e+01
  -7.579618e+01  -1.449451e+01
  -1.211136e+02   2.507151e+01
  -8.436855e+01  -1.024782e+01
  -7.275604e+01  -1.076530e+02
   4.437051e+01  -4.436084e+01
   6.511262e+01  -3.283300e+01
   6.520843e+01   7.756682e+01
   1.626290e+01   4.651586e+01
  -7.332816e+01   5.087922e+01
  -1.058756e+02  -8.589890e+01
  -5.878745e+01  -1.428361e+02
   1.252492e+01  -9.206760e+01
   6.430361e+01  -3.942289e+01
   1.051401e+02  -3.516500e+01
   4.888749e+01   2.605274e+01
   1.302485e+02   2.574461e+01
   1.515333e+02   5.613346e+01
   1.357419e+02   1.127596e+02
  -1.339693e+01   1.505826e+02
  -1.664905e+02   1.602690e+02
  -1.638422e+02   8.166881e+01
  -1.082453e+02   1.321338e+01
   2.880447e+00  -1.055711e+02
   2.331278e+01  -7.295158e+01
  -1.123420e+01  -3.262725e+01
  -6.879912e+01   1.615223e+01
  -7.676662e+01   3.860984e+01
  -4.321719e+01  -5.673155e+01
   7.794945e+01  -4.421594e+01
   6.677545e+01   1.236029e+01
  -9.334335e+00   6.884012e+01
  -3.920129e+01   2.090397e+01
  -5.678191e+01  -1.024304e+02
  -4.908266e+00  -1.542928e+02
   9.981297e+01  -5.337917e+01
   9.929767e+01   9.379044e+01
   8.739408e+01   1.025937e+02
   1.966022e+01   9.638322e+01
   4.794730e+00   2.726973e+01
  -3.862913e+01  -9.428072e+00
  -2.644784e+01   2.141358e+01
   4.487366e+01   1.105452e+01
  -1.431844e+01   5.416133e+01
  -1.526631e+01   4.767578e+01
  -5.052983e+01   2.040352e+01
  -2.533831e+01  -7.925613e+00
   2.936778e+01  -3.002966e+01
  -3.215280e+01   2.965908e+01
  -4.334907e+01   2.456686e+01
  -1.021265e+02  -1.823178e+01
  -7.782096e+01  -7.480196e+01
  -2.690901e+01  -1.212673e+02
   1.132681e+02  -9.303090e+01
   9.966876e+01  -4.717795e+01
   4.100968e+01  -6.365984e+00
  -4.452335e+01   5.034770e+01
  -3.049237e-01   4.175739e+01
  -1.468123e+01  -2.047127e+01
   4.729071e+01  -3.772404e+01
   1.091195e+02  -1.230876e+01
   6.331560e+00   1.090684e+02
   1.214258e+01   9.821197e+01
  -6.259931e+01   3.280720e+01
  -3.000139e+01   7.505005e+00
  -4.996585e+01   9.723390e-01
   4.714482e+00   1.562428e+01
  -2.482311e+01   3.588373e+00
  -7.249841e+01   1.305644e+01
  -7.705495e+01  -5.890506e+01
  -2.191838e+01  -7.897991e+01
   7.464231e+01  -9.656045e+01
   5.634206e+01  -4.348889e+00
   7.071039e+01   5.853333e+01
  -5.623129e+01  -2.611235e+00
  -4.574284e+01  -3.218454e+01
  -1.559268e+01   4.919622e+01
   9.001676e+00   1.864690e+01
   5.352304e+01   6.554836e+00
   2.107340e+01   4.700108e+00
  -3.153276e+01  -2.422581e+01
   2.662015e+01  -3.234398e+01
  -3.226625e+00  -3.412873e+01
   1.159270e+02   3.562126e+01
   4.470578e+01   1.277451e+01
  -8.335758e+00   5.659021e+01
  -2.871426e+00   3.859934e+01
  -3.384284e+01   4.432354e+00
  -9.705238e+00   1.962742e+00
  -1.389565e+01  -2.391448e+01
   9.053814e-01  -3.086355e+01
  -2.185252e+01  -4.173988e+01
   1.670817e+01  -2.642721e+01
   5.051429e+01  -1.491675e+01
   3.260929e+01  -4.360725e+00
   2.454987e+01   1.556720e+01
   1.888905e+01   3.157508e+01
  -7.123586e+01   4.220748e+01
  -6.247391e+01  -3.057626e+00
  -8.444309e+00  -6.683661e+01
   3.404015e+01  -1.248756e+02
   8.895412e+01  -1.420078e+01
   1.429192e+02   4.472139e+01
   8.175970e+01   1.158389e+02
  -7.724822e+00   6.444518e+01
  -2.960567e+01   3.334249e+01
  -2.368564e+01   3.208013e+01
  -4.704807e+01   5.469833e+01
  -5.418537e+01   3.964295e+01
  -4.489195e+00   3.159306e+00
  -8.810572e+00  -5.420446e+01
  -5.584406e+01  -1.139138e+02
  -1.421892e+01  -6.868029e+01
   4.373856e+01   2.399680e-02
   2.627027e+01   7.042677e+01
  -2.802742e+01   2.377411e+01
  -5.323247e+00   4.986770e+01
   2.074488e+01  -1.719740e+01
   4.802851e+01  -3.387248e+01
  -1.549555e+01  -1.127448e+00
   1.431876e+01  -8.500659e-01
  -1.267091e+01  -5.668596e+00
  -3.449951e+01  -6.369450e+00
   5.860386e+00  -1.928006e+01
   8.058761e+01  -1.584677e+01
   6.903168e+01  -2.709209e-01
  -2.695311e+01   5.987828e+01
  -4.320087e+01  -6.253445e+00
  -3.404030e+01   9.601315e+00
  -1.869099e+01  -2.494386e+01
   5.311080e+01   2.816147e+00
   1.805537e+01  -8.370736e+00
   2.566934e+01   2.351734e+01
  -1.923596e+01   3.000213e+01
  -4.887562e+01  -3.718241e+01
  -6.117427e+01  -1.489754e+01
  -3.806533e+01   2.701186e+00
  -3.719852e+01  -5.988363e+00
  -4.263920e+01   4.680567e+01
  -3.689379e+01   1.876327e+01
   5.122596e+01   1.449815e+01
   2.130726e+01  -3.992377e+00
   7.134188e+01   6.957152e+00
   5.190416e+01   3.003174e+01
  -3.612919e+01   4.460127e+01
  -7.026405e+01   2.841363e+01
  -2.137971e+01   1.848340e+01
  -1.109433e+00  -2.591290e+01
   4.197230e+01   3.245042e+01
  -2.092246e+00   2.616011e+01
  -5.350816e+01   2.441532e+01
  -9.314934e+01   4.930582e+01
  -2.531443e+01  -2.140863e+01
  -2.881278e+01  -7.237335e+01
   3.234971e+01  -4.198006e+01
   3.925854e+01   4.020688e+01
  -5.461319e+00   2.510516e+01
  -1.071318e+01   2.043897e+01
  -2.942756e+01  -3.106984e+01
   4.312482e+01  -5.564877e+01
   6.825848e+01  -9.983750e+00
   5.397876e+01   3.129346e+01
   8.782171e-01   5.163779e+01
  -4.606617e+01   3.142799e+01
  -1.405524e+01   2.493038e+01
  -1.052750e+01  -5.656739e+01
  -1.139442e+01  -5.885857e+00
   2.466213e+01  -1.511255e+00
   4.027733e+01   2.880346e+01
   7.231979e+00   9.854908e+00
   2.351502e+01  -3.762425e+01
   1.249428e+01  -1.207038e+01
   2.006308e+01   2.680981e+01
   4.009675e+01   8.028246e+01
   9.278003e-01   3.355934e+01
  -5.467169e+01   1.140197e+01
  -1.244748e+01   1.979091e+01
  -1.357628e+01  -5.841501e+00
   2.882271e+01  -1.579266e+01
   1.630547e+01   1.628211e+01
   7.012827e+00   2.049539e+00
  -1.724499e+01   4.310652e+01
  -3.183044e+01  -1.311717e+01
   2.539191e+00  -2.536096e+01
  -3.859761e+01  -2.325722e+01
  -1.432116e+01  -1.702247e+01
  -2.861556e+01   2.218534e+01
  -6.340454e-01  -5.043625e+01
   4.127185e+01  -5.660411e+01
   8.246305e+01  -2.730430e+01
   7.634955e+01   6.604113e+01
   1.254320e+01   4.644138e+01
  -3.221800e+01   4.056489e+01
  -1.598807e+01   5.932718e+01
  -7.257461e+01   8.937886e+00
  -5.417602e+00  -2.036051e+01
  -1.602292e+01   2.332946e+01
  -4.240582e+01  -4.005982e+01
  -1.048453e+01   7.977000e+00
   7.183092e+00  -3.307004e+01
  -1.272365e+01  -3.095734e+01
   8.029095e+00  -1.083598e+01
  -1.436329e+01   7.418719e+01
  -1.492397e+01   2.210537e+01
  -3.195612e+01  -3.239414e+01
   1.696035e+01  -6.978188e+01
   7.431932e+00  -4.173243e+01
   1.109714e+01   2.562537e+01
   8.257731e+01   3.269660e+01
   5.222188e+00   3.509186e+01
  -1.302649e+01   3.557954e+01
   1.373689e+01   3.506974e+01
   4.557487e+01  -3.596893e+01
   8.593439e+00   1.312279e+01
   2.982327e+00  -2.301490e+01
  -3.488047e+01   4.126441e+01
  -5.396125e+01   3.639318e+00
  -4.609443e+01   1.260324e+01
  -2.402435e+01  -5.379834e+01
   1.110594e+01  -1.359365e+01
   2.503700e+01   1.108676e+01
   2.701541e+01   2.467392e+01
  -1.904036e+01   5.208357e+01
  -8.972082e+00   2.172505e+01
  -3.588522e+00  -4.984116e+01
   2.411637e+01   3.913026e+01
   1.845830e+01  -3.364777e+01
   3.532308e+01   2.767006e+01
   1.968571e+00  -8.636995e-01
  -1.204747e+01   2.587952e+01
   5.436942e+01  -1.924022e+01
  -4.230774e+01   1.917977e+01
  -4.482760e+01  -1.177908e+01
  -1.667766e+01  -1.771577e+01
  -4.706364e+01  -7.051617e+01
  -2.916768e+00  -4.914927e+01
   4.988689e+01  -5.080697e+00
   2.213040e+01  -4.896803e+00
  -1.970205e+01   1.351181e-01
  -3.756265e+01   6.637960e+00
  -3.685699e+01   1.468118e+01
  -1.724559e+01  -1.067332e+01
   1.468323e+01   5.872674e-01
  -1.813391e+01  -6.808341e+00
   2.597232e+01  -1.131570e+01
   3.178632e+01   6.947701e+00
  -2.986002e+01  -1.536410e+01
   4.437964e+01  -1.414171e+01
   4.412558e+01   2.322684e+00
