
 $NMID
 id='ANONYMOUS ', fmtdat='(2E16.6)'
 volume=1.0
 tramp=1.0
 $END
  -3.239216e+03  -5.206843e+02
  -2.139480e+03  -2.094039e+03
   6.474291e+02  -2.220148e+03
   1.615126e+03  -7.395871e+02
   7.914301e+02   4.901900e+02
  -4.030257e+02   5.177931e+02
  -6.999122e+02  -3.384791e+02
  -8.938760e+01  -8.616731e+02
   7.185138e+02  -5.960424e+02
   7.852125e+02   6.125600e+01
   3.062645e+02   7.263302e+02
  -2.629812e+02   7.181294e+02
  -5.468193e+02   1.334164e+02
  -3.034603e+02  -5.826702e+02
   2.292790e+02  -5.379026e+02
   5.280214e+02  -3.295436e+01
   2.277670e+02   5.286042e+02
  -2.284760e+02   5.622987e+02
  -5.089300e+02   1.164919e+02
  -3.333447e+02  -2.691271e+02
  -2.837772e+01  -3.559089e+02
   1.862259e+02  -2.497117e+02
   1.849668e+02   1.850175e+00
  -1.621445e+02   8.255586e+01
  -3.066092e+02  -8.999788e+01
  -1.482743e+02  -3.699005e+02
   3.586520e+02  -3.099724e+02
   6.964129e+02   9.590452e+01
   3.380583e+02   4.522967e+02
  -3.466765e+02   4.500353e+02
  -6.378386e+02   4.553474e+00
  -3.187826e+02  -4.093602e+02
   2.122316e+02  -4.046429e+02
   4.700622e+02  -1.559774e+02
   3.598963e+02   1.564839e+02
   2.367738e+01   4.083820e+02
  -2.231300e+02   2.544413e+02
  -1.507684e+02  -1.898873e+02
   1.780741e+02  -3.861767e+02
   4.326973e+02   2.554464e+01
   2.557850e+02   5.300728e+02
  -2.489720e+02   5.208701e+02
  -5.452829e+02   2.877415e+01
  -2.292029e+02  -4.764284e+02
   2.625649e+02  -2.478272e+02
   3.002097e+02   2.381328e+02
  -8.631564e+01   4.298455e+02
  -4.984936e+02   8.273910e+01
  -5.048020e+02  -3.411070e+02
  -1.302346e+02  -5.178723e+02
   3.692085e+02  -3.056143e+02
   5.640712e+02   7.050617e+01
   2.727998e+02   3.578834e+02
  -9.823029e+01   3.062294e+02
  -3.985888e+02   1.248165e+01
  -2.015216e+02  -1.333835e+02
   1.482949e+02  -1.065700e+02
   1.503040e+02   1.321912e+02
  -1.722515e+02   1.738724e+02
  -2.809715e+02  -6.665141e+01
  -1.009172e+02  -2.379088e+02
   1.708024e+02  -1.769890e+02
   2.916235e+02  -1.531829e+01
   1.915490e+02   1.068991e+02
   9.019535e+00   2.410809e+02
  -2.592115e+02   2.711554e+02
  -3.034228e+02   1.533174e+02
  -2.598167e+02  -1.745931e+02
  -6.246511e+01  -3.312347e+02
   1.852058e+01  -4.115202e+02
   8.597896e+01  -8.152915e+01
   3.866199e+00  -1.475533e+01
   9.594808e+01  -6.819493e+01
   1.520672e+02  -1.438776e+02
   2.726922e+02   4.151525e+01
   1.719800e+02   1.975277e+02
  -3.920264e+01   2.402950e+02
  -1.742054e+02   1.963457e+01
  -1.561605e+02  -1.686853e+02
   2.189581e+01  -2.765507e+02
   2.295596e+02  -1.081980e+02
   2.987884e+02   1.599628e+02
   1.387057e+02   2.641700e+02
  -6.877198e+01   2.580838e+02
  -1.714949e+02   1.199311e+02
  -1.597881e+02   7.335124e+00
  -5.711656e+01  -1.627845e+01
  -1.953776e+02   1.137392e+02
  -3.529494e+02  -1.032341e+02
  -2.729757e+02  -2.137088e+02
  -1.821751e+01  -3.708726e+02
   3.415072e+02  -3.788922e+02
   4.598959e+02  -1.787810e+02
   3.041486e+02   1.258499e+02
   6.033532e+01   2.446841e+02
  -1.165741e+02   1.902247e+02
  -1.057023e+02   2.537881e+01
   7.431991e+01  -1.223729e+02
   1.635104e+02  -2.985206e-01
   3.195517e+01   1.578065e+02
  -8.641873e+01   1.373316e+02
  -1.332914e+02  -6.053383e+01
  -1.650974e+00  -1.790197e+02
   1.202813e+02   3.480933e+01
   1.293364e+02   1.601446e+02
  -3.507789e+01   2.255489e+02
  -1.525912e+02   1.773510e+02
  -2.633136e+02  -2.635893e+01
  -2.182480e+02  -1.975085e+02
  -8.132599e+01  -2.197869e+02
   1.012923e+02  -1.184012e+02
   1.491761e+02   9.169118e+00
   2.285289e+01   3.320115e+01
  -6.006889e+01  -1.770562e+01
  -4.550910e+01  -1.375575e+02
   6.166926e+01  -7.763613e+01
   1.511666e+02   1.539317e+01
   2.840558e+01   6.405465e+01
  -9.584348e+01   4.536647e+01
  -3.994281e+01  -9.096774e+01
   1.005584e+02  -6.271656e+01
   2.072750e+02  -6.896992e+00
   2.465475e+02   1.118669e+02
   6.860411e+01   1.884389e+02
  -1.776083e+02   2.640008e+02
  -2.685671e+02   1.111041e+02
  -1.788450e+02  -5.677395e+01
   5.483698e+01  -8.956628e+01
   1.138188e+02  -2.358928e+01
  -7.896915e+00   1.045650e+02
  -1.389648e+02   7.821806e+01
  -2.003975e+02  -6.994303e+01
  -4.877975e+01  -1.936405e+02
   4.676832e+01  -1.244615e+02
   1.197552e+02  -2.012291e+01
   7.886698e+01   2.932414e+01
  -3.898794e+01   3.547245e+00
  -5.637684e+01  -2.935033e+01
   8.256427e+01  -1.425992e+02
   1.710335e+02  -2.680679e+01
   1.931761e+02   1.136184e+02
   9.195993e+00   2.074362e+02
  -1.275034e+02   1.775232e+02
  -1.818128e+02   5.471327e+00
  -2.346338e+01  -1.587340e+02
   7.336784e+01  -1.216446e+02
   8.437474e+01  -2.697069e+00
   3.562403e+01   4.848844e+01
  -4.841925e+01   2.736166e+01
   2.358765e+01   5.055379e+00
   1.771303e+01  -6.110138e+00
   3.296141e+01   7.786405e+01
   9.771387e+00   1.456273e+02
  -1.149245e+02   1.216746e+02
  -1.953457e+02   2.147617e+01
  -1.553713e+02  -1.481026e+02
  -3.168494e+01  -1.898300e+02
   7.099014e+01  -1.751560e+02
   1.243495e+02  -4.958893e+01
   9.206932e+00   2.463305e+01
   1.120478e+01   1.107283e+01
   3.075280e+01  -4.051797e+01
   6.685996e+01   3.363740e+01
   1.828628e+01   4.542677e+01
  -4.363041e+01   8.871442e+01
  -8.760002e+01   1.129571e+01
  -4.918337e+01  -4.570762e+01
  -3.368448e+01  -6.860193e+01
   6.524662e+01  -5.354207e+01
   1.715290e+02   6.813249e+01
   9.215574e+01   1.749785e+02
  -7.651882e+01   1.853856e+02
  -2.372934e+02   1.055197e+02
  -1.792702e+02  -5.819707e+01
  -8.843737e+01  -1.725902e+02
   5.138085e+01  -1.496200e+02
   1.102982e+02  -8.762732e+01
   8.450894e+01  -3.553636e+01
   7.264912e+00  -5.643828e+01
   9.380210e+01  -7.837810e+01
   1.027545e+02  -1.963261e+01
   8.185853e+01   1.078502e+02
   1.062862e+00   1.654648e+02
  -8.477600e+01   1.563829e+02
  -1.571881e+02   7.352821e+01
  -1.309947e+02  -7.954939e+01
  -2.542893e+01  -1.247644e+02
   3.508984e+01  -9.530255e+01
   6.456988e+01   1.843243e+01
   1.879108e+01   5.393627e+01
  -3.370329e+01   3.964332e+01
   5.376142e+01   2.966175e+01
   3.018250e+01   8.896814e+00
   3.208891e+01   2.987564e+01
  -3.157836e+01   3.289682e+01
  -1.740455e+02   5.470023e+01
  -1.420823e+02  -6.661459e+01
  -3.946149e+01  -9.890622e+01
   7.094045e+01  -7.313471e+01
   1.163676e+02   1.683580e+01
   4.773474e+01   1.664823e+01
  -1.982590e+01   3.642804e+01
  -5.357808e+01  -3.461042e+01
  -4.406470e+01  -4.966530e+01
   6.548442e+01  -4.111696e+01
   7.559372e+01   1.652214e+01
   1.356502e+01   4.216187e+01
   4.092613e+01   5.251548e+01
   4.241891e+01  -3.095679e+00
   6.313921e+01   9.194653e+00
   1.584335e+01   7.109209e+01
   9.634318e+00   1.228492e+02
  -1.176550e+02   1.179616e+02
  -1.496431e+02   3.165754e+01
  -1.082285e+02  -6.571238e+01
  -4.512524e+00  -9.687679e+01
   4.785187e+01  -1.462976e+00
   5.267053e+01  -5.108232e+00
  -5.170432e+01   5.451859e+01
  -1.259821e+02  -3.364126e+01
  -3.115123e+01  -8.825869e+01
   8.640324e+01  -6.932555e+01
   1.612838e+02  -3.802803e+01
   1.854501e+02   5.913489e+01
   1.471319e+01   8.344481e+01
  -2.813382e+01   9.255378e+01
  -5.611358e+01   2.673119e+01
   2.794618e+01  -1.539649e+01
   7.482554e+01   1.752810e+01
   1.788342e+01   4.695036e+01
  -7.451647e+01   1.137014e+02
  -1.792975e+02   6.573148e+01
  -9.625103e+01  -9.521059e+01
  -2.856938e-01  -1.945102e+02
   8.714597e+01  -9.207332e+01
   1.125326e+02  -9.436662e+00
   4.985015e+01   1.234090e+02
  -3.711318e+01   6.035044e+01
  -3.402033e+01  -4.381043e-01
  -4.808121e+01  -3.071087e+01
  -1.032044e+01   6.888753e+00
  -2.541105e+00   5.265215e+01
   2.303084e+01  -1.572874e+01
  -1.279875e+01  -5.373108e+01
  -3.551762e+01  -7.893735e+01
   8.116855e+01  -3.509629e+01
   1.401286e+02   2.900135e+01
   1.020081e+02   5.825754e+01
   2.384321e-01   5.808547e+01
  -6.040225e+01   1.697852e+01
  -7.205730e+01   2.034905e+01
   7.207708e+00   1.933367e+01
   2.582712e+01  -1.373380e+01
   1.838309e+01  -1.897613e+01
  -3.715655e+01   8.848341e+00
  -1.068843e+01  -1.868681e+01
   3.356267e+01   2.890516e+01
   7.622126e+01   1.868464e+01
  -6.462591e+00   5.869136e+01
  -8.927316e+01   9.200892e+01
  -2.003244e+02   3.144756e+01
  -1.254108e+02  -8.655079e+01
  -6.814205e+00  -1.603502e+02
   3.162649e+01  -1.133165e+02
   1.182861e+02  -1.015185e+02
   7.916117e+01   1.956012e+01
  -8.184615e-01   3.830000e+01
   1.793660e+00   3.426753e+01
   1.996456e+01  -5.849482e+00
   3.360975e+01   6.041603e+01
   3.518801e+01   8.590736e+01
  -3.491647e+01   6.653451e+01
  -7.083650e+01  -2.668337e+01
  -3.351627e+01  -1.140058e+02
   9.502507e-01  -7.915896e+01
   7.583622e+01  -3.250995e+01
   7.559430e+01   1.049321e+02
   9.863110e-01   1.135741e+02
  -7.290933e+01   2.724771e+01
  -8.134886e+01  -2.125637e+01
  -2.484232e+01  -3.400258e+01
   6.390106e+01  -4.808575e+01
   2.150644e+01  -4.443354e+01
  -3.213260e+01   7.301048e-01
  -7.382869e+01  -2.094823e+01
   3.133704e+00  -4.978931e+01
   8.901672e+01  -7.869771e+01
   9.197131e+01  -5.231345e+01
   6.635824e+01  -2.311890e+01
  -2.894174e+01   6.923429e+01
  -6.350644e-01   5.892250e+01
  -2.318816e+01   7.833753e+00
   1.212066e+01  -3.613335e+01
  -2.440726e+01  -4.097049e+01
   5.233881e+01   2.758122e+01
   1.700466e+01   2.238973e+01
  -2.211948e+01   3.685880e+01
  -2.131751e+01  -3.417739e+00
   1.952405e+01  -3.554762e+01
  -5.032590e+01   5.490352e-01
   2.288902e+01   1.698463e+01
   1.371881e+00   1.671025e+01
   3.096193e+01  -1.054446e+01
   6.100864e+01   9.995805e+00
   1.100935e+01   1.941195e+01
   2.447933e+01   5.483075e+01
   3.192338e+01   7.075441e+01
  -5.859943e+01   1.001502e+01
  -2.524531e+01  -1.697497e+01
   1.536841e+01  -5.362771e+01
   7.637627e+01  -4.384370e+01
   5.711580e+01   3.213999e+00
   7.072292e+01   1.393105e+01
  -2.775304e+01   6.816436e+01
  -3.383730e+01   4.079099e+01
   2.592075e+00   5.425228e+00
  -2.846482e+01   2.550278e+01
   4.041412e+01  -1.107114e+01
  -2.904232e+01   1.188925e+01
  -6.955308e+01  -1.536300e+01
