
 $NMID
 id='ANONYMOUS ', fmtdat='(2E16.6)'
 volume=1.0
 tramp=1.0
 $END
   2.898911e+03  -4.365056e+01
   1.887308e+03   2.002215e+03
  -1.370896e+02   1.945669e+03
  -1.437471e+03   9.607404e+02
  -8.293622e+02   1.512114e+02
  -4.161264e+01  -2.274091e+02
   3.610982e+02   1.804390e+02
   1.780908e+02   5.246264e+02
  -4.506647e+02   5.931044e+02
  -6.085937e+02   1.093381e+02
  -3.930128e+02  -5.350296e+02
   6.245868e+00  -5.547814e+02
   3.734895e+02  -1.106978e+02
   2.017662e+02   4.806722e+02
  -1.243513e+02   4.457935e+02
  -3.523186e+02   6.580615e+01
  -2.136351e+02  -4.483637e+02
   1.308497e+02  -5.364262e+02
   4.563742e+02  -1.581329e+02
   3.662931e+02   2.540025e+02
   1.013529e+02   3.232208e+02
  -1.809046e+02   1.745282e+02
  -1.148753e+02   6.164375e+01
   1.758625e+02   1.045418e+02
   2.243227e+02   2.427696e+02
   5.721939e+01   3.024494e+02
  -4.539644e+02   1.262002e+02
  -6.021429e+02  -1.896865e+02
  -1.781586e+02  -3.345379e+02
   2.998447e+02  -1.635258e+02
   4.540923e+02   6.184217e+01
   1.599809e+02   3.421208e+02
  -2.277608e+02   2.889341e+02
  -3.789920e+02   1.668289e+02
  -2.651321e+02  -1.286009e+02
  -1.123105e+02  -2.829732e+02
  -1.057282e+01  -1.389194e+02
  -4.671168e+01   4.765195e+01
  -1.522767e+02   1.624093e+02
  -1.920372e+02  -6.391181e+01
  -5.836862e+01  -4.821104e+02
   2.323403e+02  -3.852046e+02
   3.293385e+02  -5.950364e+00
   1.031268e+02   2.703440e+02
  -2.014243e+02   1.130817e+02
  -1.552006e+02  -2.087511e+02
   1.263276e+02  -3.719046e+02
   4.295283e+02  -5.022439e+01
   4.535666e+02   3.226505e+02
   1.222267e+02   3.766331e+02
  -2.552685e+02   2.278376e+02
  -4.603010e+02  -1.046218e+02
  -3.118856e+02  -1.988541e+02
   5.283089e+01  -2.282738e+02
   2.942556e+02  -1.544615e+01
   1.866428e+02   6.000358e+01
  -2.524998e+01   3.727488e+01
  -5.585864e+01  -5.063596e+01
   6.087746e+01  -2.026114e+01
   2.311626e+02   6.657996e+01
   1.074072e+02   1.747934e+02
  -1.659987e+02   1.786487e+02
  -3.333454e+02   1.174490e+02
  -1.862124e+02  -1.103078e+02
  -1.081265e+01  -2.932748e+02
   2.182041e+02  -3.299788e+02
   3.065322e+02  -1.516287e+02
   2.021667e+02   1.289364e+02
  -1.755866e+01   3.270809e+02
  -2.762867e+01   2.678226e+02
  -6.027373e+00   1.608499e+02
  -4.216398e+01   6.785380e+01
  -1.738851e+02   1.003134e+02
  -2.643737e+02   8.575322e+00
  -2.796275e+02  -9.088782e+01
  -1.297771e+02  -2.175264e+02
   9.662715e+01  -1.545773e+02
   1.655859e+02   4.679982e+01
   9.725346e+01   1.854263e+02
  -8.254146e+01   2.321441e+02
  -2.045005e+02   6.392535e+01
  -3.025388e+02  -1.357928e+02
  -1.089667e+02  -2.980424e+02
   4.199412e+01  -2.399818e+02
   1.888848e+02  -1.565344e+02
   1.354506e+02  -4.286524e+01
   1.027046e+02  -4.677260e+01
   2.434667e+02  -6.606563e+01
   3.930701e+02   9.773902e+01
   3.478868e+02   2.790355e+02
  -4.091387e+01   3.792927e+02
  -4.020348e+02   3.665390e+02
  -4.547148e+02   1.496733e+02
  -2.917414e+02  -5.795680e+01
  -1.268068e+01  -2.569089e+02
   8.356097e+01  -1.739675e+02
   2.009038e+01  -5.733897e+01
  -6.607408e+01   2.744102e+01
  -1.092577e+02  -4.660159e+01
  -4.994648e+00  -1.148429e+02
   1.093969e+02  -6.073116e+01
   1.099123e+02   7.293123e+01
  -4.493051e+01   1.750474e+02
  -1.622220e+02  -7.983534e+00
  -1.468794e+02  -2.489891e+02
  -9.261725e+00  -2.858465e+02
   1.899015e+02  -1.613648e+02
   3.165258e+02   3.969277e+01
   2.300558e+02   1.766971e+02
   2.919400e+01   2.531196e+02
  -9.048819e+01   1.284275e+02
  -1.598031e+02  -2.533392e+01
  -3.394010e+01  -1.592622e+01
   3.262891e+01   5.610463e+01
  -1.147014e+01   9.948041e+01
  -1.161703e+02   7.351342e+01
  -7.878675e+01  -2.729209e+01
  -4.033673e+01  -2.985368e+01
   5.718972e+01  -1.567256e+01
  -9.392141e+00   9.864052e+01
  -1.351373e+02   2.634826e+01
  -2.492877e+02  -3.053630e+01
  -2.212617e+02  -1.756771e+02
  -2.205018e+01  -2.845476e+02
   2.005574e+02  -2.093115e+02
   2.437477e+02  -5.387515e+01
   1.564602e+02   7.005662e+00
  -4.541120e+01   1.801688e+01
  -3.169054e+01  -7.863679e+00
   7.294118e+01  -7.304649e+01
   1.602565e+02  -1.126404e+00
   1.191212e+02   8.468003e+01
   2.278077e+01   1.880164e+02
  -3.482337e+01   1.154812e+02
  -9.178853e+01   2.372549e+01
  -1.628720e+01  -6.256809e+01
   3.362059e+01  -1.793026e+01
  -8.802078e+00   2.683599e+01
  -1.136984e+02   1.031259e+02
  -1.831672e+02   2.745080e+01
  -1.567225e+02  -1.274455e+02
  -1.609806e+01  -2.233884e+02
   1.524228e+02  -1.278777e+02
   1.209920e+02  -2.117074e+01
   7.288995e+01   1.108408e+02
  -1.212353e+02   7.119492e+01
  -6.486202e+01   2.798383e+01
  -1.579138e+01  -4.213192e+01
   3.479305e+01   1.473291e+01
   7.216383e+00  -3.793591e+00
  -5.135212e+01  -8.945223e+00
  -1.067108e+02  -1.042923e+02
   1.743820e+01  -1.589159e+02
   1.643225e+02  -1.569412e+02
   2.031164e+02   1.895117e+01
   1.281464e+02   2.125806e+02
   1.711383e+01   1.808735e+02
  -1.189588e+02   1.489406e+02
  -1.124573e+02   7.550739e+00
  -5.762379e+01  -3.447926e+01
  -3.900054e+01   8.950085e+00
  -7.233989e+01  -9.556977e+00
  -8.328612e+01  -4.506978e+00
  -3.508874e+01  -5.467937e+01
   9.269941e+01  -6.566047e+01
   6.913157e+01  -5.600194e+01
   5.901558e+01   3.496824e+01
   1.179057e+01   1.223079e+02
  -1.474123e+02   6.396151e+01
  -1.768618e+02  -9.253593e+01
  -8.408309e+01  -1.970845e+02
   6.465942e+01  -1.627299e+02
   2.457200e+02  -7.334859e+01
   2.219471e+02   8.626781e+01
   7.689262e+01   1.743907e+02
  -3.278106e+01   9.727251e+01
  -8.316931e+01   7.198192e+01
  -6.162331e+01   2.676492e+01
  -2.675644e+01   8.187543e+01
  -1.048254e+02   3.196273e+01
  -8.921554e+01  -3.792358e+01
  -1.119951e+02  -1.069909e+02
   2.547389e+01  -1.794736e+02
   6.591409e+01  -1.600777e+02
   1.538862e+02  -2.150030e+01
   1.394833e+02   1.423781e+02
   1.882559e+01   1.377153e+02
  -8.359412e+01   4.364779e+01
  -8.534590e+01  -2.920761e+01
   4.076412e+00  -6.047665e+01
   4.735750e+01  -4.764889e+01
  -1.594908e+00  -1.411397e+01
  -8.756960e+01  -1.156638e+01
  -2.731310e+00  -2.368765e+01
   3.189932e+01  -3.652675e+01
   1.824481e+02   2.072400e+01
   1.155649e+02   3.503210e+01
  -1.788498e+01   7.742295e+01
  -1.317160e+02   1.176087e+02
  -1.643606e+02   5.277534e+00
  -4.531203e+01  -7.989822e+01
   6.970138e+01  -5.697013e+01
   1.025080e+02   7.768126e+01
  -5.916753e+00   5.548786e+01
  -3.511223e+01   5.391445e+01
  -8.507093e+01   7.635740e+00
  -8.704330e+01  -1.296383e+01
  -2.766761e+01  -4.639833e+01
  -3.480323e+01   1.403514e+01
  -5.098128e+01  -1.046998e+01
  -1.410259e+01  -5.862932e+01
   4.490124e+01  -1.445664e+02
   1.297115e+02  -1.627482e+02
   1.341294e+02   5.580317e+00
   9.985304e+01   8.403028e+01
  -5.140145e+01   1.435163e+02
  -8.409658e+01   5.989390e+01
  -5.757632e+01  -2.665827e+01
   6.084065e+01  -5.524263e+01
   1.230904e+02   2.727852e+01
   9.258101e+01   5.317031e+01
  -8.879487e+01   7.675917e+01
  -1.611428e+02   5.536835e+01
  -1.686143e+02  -3.768405e+01
  -2.762777e+01  -6.358664e+01
   4.032210e+01  -5.767816e+01
   5.606946e+01   2.193001e+01
  -5.242327e+01   4.314164e+01
  -8.542746e+01  -5.439675e+01
  -4.546248e+01  -1.140436e+02
   1.877104e+01  -1.438401e+02
   1.575152e+02  -9.969711e+01
   1.257618e+02   8.269472e+01
   3.441942e+01   1.873081e+02
  -7.424100e+01   1.282976e+02
  -9.786938e+01  -2.312929e+01
  -5.728279e+01  -1.042013e+02
   2.758845e+01  -7.591106e+01
   8.925563e+01  -5.084137e+01
   3.566169e+01   3.471249e+01
   3.623209e+01  -1.450294e-02
  -2.437812e+01   2.524511e+01
   2.197940e+01   3.791103e+01
   6.671606e+01   4.296767e+01
   7.192931e+01   8.872087e+01
  -1.344500e+01   5.586299e+01
  -1.183545e+02  -2.045642e+01
  -1.318648e+02  -1.208616e+01
  -5.777563e+00  -5.029157e+01
   3.948906e+01  -1.357478e+01
   7.751640e+01  -2.846263e+01
   5.190222e+01   1.678895e+01
  -6.541269e-02   2.698403e+01
  -1.904402e+01   6.294292e+01
   3.264789e+01  -1.107872e+01
   4.978659e+01  -3.747884e+01
  -7.658741e+01   6.382518e-01
  -6.119703e+01  -1.368170e+01
   1.134691e+01  -5.397799e+01
   1.400523e+02  -1.020163e+02
   1.522457e+02  -5.969744e+01
   1.303232e+02   4.651132e+01
  -2.287274e+01   1.566234e+02
  -8.480808e+01   1.442327e+02
  -9.317332e+01   4.155348e+01
  -7.032519e+01   1.726940e+01
  -3.069182e+01  -3.269483e+01
   8.087121e+00  -8.613113e+00
   2.445121e+00  -4.836721e+01
  -4.276195e+00  -2.198807e+01
   3.701588e+01  -1.007167e+02
   3.026609e+01  -5.380245e+01
   5.410355e+01   2.671425e+01
   4.511153e+01   8.435497e+01
   2.025636e+01   1.162700e+02
  -6.915856e+01   5.141206e+01
  -1.441824e+02  -6.894354e+01
  -3.552778e+01  -1.243573e+02
   9.441042e+01  -5.406656e+01
   3.449342e+01   4.011912e+00
   8.536525e-01   3.296533e+01
  -5.198924e+01   5.414777e+01
  -2.691547e+01   3.000744e+01
   6.763410e+01   4.514635e+00
   5.770061e+01  -2.132257e+01
  -2.256645e+01   9.951184e+00
  -9.386837e+01   4.536551e+01
  -6.729273e+01   5.088025e+01
  -6.162426e+01   7.081703e+00
   3.081068e+01  -8.776849e+01
   7.209578e+01  -9.358168e+01
   6.968551e+01   4.000590e+01
   1.917132e+01   9.197593e+01
  -1.368445e+01   4.520503e+01
  -3.696724e+01  -3.350232e+00
  -3.373960e+01  -4.628075e+01
  -1.219438e+01  -6.490719e+01
   3.664203e+01   4.830386e-01
   4.362649e+01   8.109913e+01
   2.831548e+01   1.635128e+01
  -2.074197e+01   1.733842e+01
  -1.259779e+01  -7.159643e-01
  -4.387947e+01   3.279890e+01
   4.521021e+00   1.269505e+01
  -1.493779e+01  -7.101907e-01
   3.367635e+00  -3.824139e+01
  -3.591917e+01  -6.989201e+01
   3.371797e+01   8.652753e-01
   7.848619e+01   4.143894e+01
   8.620088e+00   8.414384e+01
  -6.121092e+01   4.152986e+01
  -8.084789e+01   5.791054e+00
  -5.842870e+01  -4.460494e+01
   3.804774e+01  -5.938600e+01
   8.665570e+01  -3.928797e+01
   2.546107e+01  -1.301917e+01
  -9.093031e+00  -3.134403e+01
  -2.914145e+01   2.043805e+01
   1.520047e+01   1.617759e+01
   9.317400e+01  -5.426305e+01
