
 $NMID
 id='ANONYMOUS ', fmtdat='(2E16.6)'
 volume=1.0
 tramp=1.0
 $END
  -3.007449e+03   2.482276e+02
  -1.729867e+03  -1.485948e+03
   1.055994e+02  -1.591394e+03
   9.707683e+02  -9.936897e+02
   7.639721e+02  -3.485533e+02
   2.096688e+02   9.416344e+01
  -1.681529e+02  -5.416031e+01
  -6.638930e+01  -4.101357e+02
   3.211297e+02  -4.018974e+02
   5.320953e+02  -9.150729e+01
   2.789123e+02   3.825219e+02
   1.104496e+02   4.831153e+02
  -1.365725e+02   1.182944e+02
  -1.778742e+02  -3.158345e+02
   1.061146e+02  -3.530290e+02
   3.011519e+02  -3.526798e+01
   2.325791e+02   4.142529e+02
  -1.166915e+02   4.813491e+02
  -3.458992e+02   2.565473e+02
  -3.211218e+02  -1.155462e+02
  -1.695554e+02  -2.956172e+02
   7.332236e+01  -1.804637e+02
  -9.280768e+00  -9.001213e+01
  -1.462032e+02  -1.470230e+02
  -1.801869e+02  -2.761312e+02
   6.848245e+01  -2.865165e+02
   4.038373e+02  -2.896427e+01
   4.753818e+02   2.220901e+02
   1.800081e+02   2.561530e+02
  -2.433465e+02   8.662399e+01
  -3.873407e+02  -1.538427e+02
  -9.344117e+01  -2.974574e+02
   2.178660e+02  -2.661711e+02
   3.607036e+02  -1.227254e+02
   2.452851e+02   8.852216e+01
   1.123180e+02   2.085467e+02
   5.896158e+01   1.249764e+02
   1.065746e+02  -1.989152e+01
   1.167243e+02  -4.470908e+01
   1.178184e+02   1.829059e+02
  -7.252853e+01   4.381533e+02
  -2.423638e+02   3.089435e+02
  -2.207037e+02  -9.631679e+01
  -5.493712e+01  -1.536428e+02
   1.030459e+02  -4.550399e+01
   7.439137e+01   2.275062e+02
  -1.590645e+02   3.001272e+02
  -3.276484e+02   1.288411e+01
  -4.516399e+02  -3.391383e+02
  -1.244779e+02  -3.519505e+02
   2.233486e+02  -2.307919e+02
   3.554644e+02   5.767956e+01
   2.264727e+02   1.847663e+02
  -4.041146e+01   1.391775e+02
  -1.305395e+02   2.595900e+01
  -1.561507e+02  -4.218300e+01
  -4.797825e+01  -3.801251e+01
   3.093158e+01   7.979917e+01
  -2.438809e+01   5.797375e+01
  -1.368450e+02  -7.336957e+01
  -1.431847e+02  -1.132892e+02
   1.398460e+02  -2.140527e+02
   3.146482e+02  -1.116692e+02
   2.252164e+02   1.156829e+02
   9.262818e+00   2.621240e+02
  -2.807691e+02   3.328815e+02
  -3.109791e+02   1.822294e+02
  -1.981119e+02  -1.480889e+02
  -1.993573e+01  -2.742976e+02
  -1.587264e+00  -2.207258e+02
  -3.758624e+01  -1.551400e+02
  -1.452634e+01  -1.478476e+02
   8.564420e+01  -1.245066e+02
   2.264531e+02  -5.344920e+01
   2.446325e+02   1.793037e+02
   5.544807e+01   2.608082e+02
  -9.264287e+01   1.398028e+02
  -1.780658e+02  -4.923293e+01
  -5.482268e+01  -2.393539e+02
   5.229725e+01  -1.874258e+02
   2.431537e+02   1.029370e+00
   2.800233e+02   1.449392e+02
   1.426540e+02   2.750457e+02
   1.294385e+01   2.112397e+02
  -1.589801e+02   1.626917e+02
  -8.274525e+01   6.927608e+01
  -1.385878e+02   1.251355e+02
  -2.376294e+02   4.862796e+01
  -4.115773e+02  -1.044926e+02
  -3.025670e+02  -2.841959e+02
  -2.222912e+01  -3.405107e+02
   3.560803e+02  -3.220016e+02
   4.252684e+02  -1.127583e+02
   2.045331e+02   6.733351e+01
  -2.143612e+01   2.053971e+02
  -1.104393e+02   1.077741e+02
   3.250097e+01   6.431486e+01
   8.806111e+01  -3.239096e+01
   9.907929e+01   5.061029e+01
  -1.204970e+00   7.054910e+01
  -7.661695e+01   5.018962e+01
  -8.203385e+01  -9.906808e+01
   3.929339e+01  -1.366303e+02
   1.330182e+02   7.368794e+01
   1.321118e+02   2.311271e+02
  -2.345760e+01   2.781169e+02
  -1.981183e+02   1.576880e+02
  -3.012881e+02  -2.622867e+01
  -2.059958e+02  -2.675132e+02
  -3.977810e+01  -2.361426e+02
   1.079738e+02  -1.232365e+02
   1.184042e+02   1.811539e+01
   2.823211e+01  -1.922108e+01
  -2.813013e+01  -1.155216e+02
  -4.760294e+01  -8.774156e+01
   7.140431e+01  -4.680556e+01
   9.289643e+01   4.488134e+01
   1.052393e+01   5.262313e+01
  -8.199846e+01  -6.546826e+00
   4.081191e+00  -9.454812e+01
   1.265014e+02  -7.236561e+01
   2.633995e+02   4.090168e+01
   2.181241e+02   1.813615e+02
  -2.978115e+00   2.648987e+02
  -1.888217e+02   1.948066e+02
  -1.895993e+02   3.663027e+01
  -9.541705e+01  -2.374404e+01
   5.477203e+01  -7.697794e+01
   4.542727e+01   3.419853e+01
  -3.893740e+01   6.472980e+01
  -1.776402e+02   2.417956e+01
  -1.988953e+02  -1.349085e+02
  -2.591740e+01  -1.290555e+02
   7.908386e+01  -1.298269e+02
   1.172755e+02   3.922915e+01
   1.845376e+01   7.177560e+01
  -5.949173e+01  -6.015349e+01
  -1.969628e+01  -1.452032e+02
   9.726186e+01  -1.118709e+02
   2.015798e+02   2.927875e-02
   1.242499e+02   1.207396e+02
  -3.230579e+01   1.569927e+02
  -1.636081e+02   8.955791e+01
  -1.494841e+02   1.511193e+01
  -4.580176e+01  -1.072431e+02
   2.131826e+01  -9.331908e+01
   4.839633e+01  -1.649990e+01
  -1.504126e+01   5.396917e+01
  -5.576035e+01  -5.578442e+00
   9.017380e+00  -3.575677e+01
   8.514751e+01   1.592871e+01
   1.049304e+02   1.096232e+02
   3.311216e+00   1.460942e+02
  -1.437020e+02   1.347599e+02
  -2.337298e+02  -3.330161e+00
  -2.003750e+02  -1.511531e+02
  -3.016876e+01  -2.126928e+02
   4.498699e+01  -1.324699e+02
   1.096309e+02  -1.791598e+01
   6.099287e+01   2.963998e+01
   5.339477e+01   2.310922e+01
   2.313023e+01   4.017146e+01
   3.261798e+01   3.935843e+01
   2.647406e+01   4.563895e+01
   2.296662e+00   7.165370e+01
  -9.948013e+01   1.142411e+02
  -7.559671e+01  -8.794426e+00
   4.475240e+01  -9.317585e+01
   9.395684e+01  -1.303416e+02
   2.090121e+02   4.045021e+01
   7.665218e+01   1.754242e+02
  -1.264170e+02   1.674235e+02
  -2.542208e+02   6.095217e+01
  -1.606403e+02  -1.064466e+02
  -7.277867e+01  -1.662714e+02
   1.472676e+01  -1.830771e+02
   9.930456e+01  -7.297200e+01
   8.089370e+01  -2.378194e+01
   7.343649e+01  -7.747226e+01
   6.888378e+01  -5.044397e+01
   1.294172e+02   2.120847e+01
   9.599214e+01   1.036814e+02
   8.730649e+00   1.921551e+02
  -1.315283e+02   1.224666e+02
  -1.577165e+02   2.170474e+01
  -1.014815e+02  -6.928648e+01
   4.352285e-01  -1.389987e+02
   7.579478e+01  -7.559091e+00
   4.289613e+01  -1.193522e+01
   6.983582e+00  -1.157256e+01
  -9.046652e+00   6.392021e+01
   3.059327e+01   9.676276e+00
   7.811587e+01   4.467503e+01
   5.922111e+00   8.740896e+00
  -6.760805e+01   2.867568e+01
  -1.677042e+02  -1.518742e+01
  -9.800990e+01  -9.034811e+01
   1.155827e+01  -4.584908e+01
   7.992514e+01  -5.917220e+01
   1.540651e+02   2.449714e+01
   5.434992e+01   7.275304e+01
  -6.142820e+01   7.207590e+01
  -6.664273e+01  -1.909070e+01
  -2.961242e+01  -7.930056e+01
   4.529135e+01  -5.135041e+01
   9.686881e+01   1.883773e+01
   7.203671e+01   4.143014e+01
   5.661898e+01   5.570486e+01
   4.730186e+01   2.730463e+01
   5.898095e+01   5.784983e+01
   1.847808e+01   1.134994e+02
  -1.274422e+01   1.008737e+02
  -1.309802e+02   6.543900e+01
  -1.351321e+02   1.330379e+01
  -9.774264e+01  -1.095067e+02
   1.418668e+01  -8.839969e+01
   7.085322e+01  -4.438937e+01
   4.596155e+01   2.881717e+01
  -3.018304e+01   1.369139e+01
  -8.532594e+01  -1.605513e+01
  -6.008127e+01  -8.719028e+01
   5.803957e+01  -8.579456e+01
   1.243577e+02  -2.880704e+01
   6.697539e+01   8.397647e+01
   3.538514e+01   5.697390e+01
  -4.724181e+00   2.749191e+01
  -3.745149e+01  -6.378085e+00
   5.373582e+01  -5.240066e+01
   7.512651e+01   2.333297e+01
   2.491018e+01   1.006926e+02
  -1.441406e+01   1.452512e+02
  -1.236867e+02   7.809289e+01
  -1.329787e+02  -2.953336e+01
  -5.592018e+00  -1.634308e+02
   9.120475e+01  -1.294752e+02
   6.695867e+01   2.375671e+01
   8.980604e+01   8.146040e+01
  -5.849768e+01   9.030192e+01
  -1.718018e+01   1.367401e+01
  -5.355225e+01  -3.371883e+01
  -1.101671e+01  -1.848162e+01
  -1.305626e+01   3.737936e+00
  -6.376877e+01  -4.970787e+01
  -3.160842e+01  -8.850979e+01
  -2.631698e+01  -1.204269e+02
   3.982265e+01  -6.652223e+01
   1.277312e+02  -5.908785e+00
   1.433112e+02   5.766457e+01
   4.384767e+01   8.240463e+01
  -6.820707e+01   9.300837e+00
  -5.404121e+01   9.841427e+00
  -2.117012e+01  -2.746798e+00
   7.207712e+01  -4.133501e+01
   6.103723e+01   7.789017e+00
  -1.663586e+01   7.825169e+00
  -9.044584e+00   3.748817e+01
   7.754592e+01   1.216559e+01
   8.865864e+01   6.026498e+01
  -5.782280e+00   6.539126e+01
  -1.305171e+02   1.159050e+02
  -2.117903e+02   4.253980e+01
  -1.080090e+02  -3.431986e+01
  -3.102065e+01  -1.226673e+02
   8.071028e+01  -1.464722e+02
   9.463076e+01  -4.726253e+01
   7.633981e+01   9.521895e-01
  -1.188443e+00   1.311958e+01
  -3.403978e+01   2.116318e+01
  -7.546328e+00  -1.869557e+01
   3.835498e+01   4.003823e+01
   5.680448e+01   9.176680e+01
  -1.595044e+01   6.746097e+01
  -7.988405e+01  -2.147198e+01
  -7.856788e+01  -7.482910e+01
  -8.213427e+00  -1.109201e+02
   4.206770e+01  -3.662724e+01
   8.910424e+01   4.362904e+01
   3.425283e+01   9.668807e+01
  -6.384318e+01   4.594876e+01
  -1.293023e+02  -1.081833e+01
   5.098243e-01  -7.308770e+01
   1.137535e+01  -5.549656e+01
   6.478127e+01  -5.278175e+01
  -1.181824e+01   7.697567e+00
  -4.111294e+01   1.728534e+01
   5.581643e+00  -9.493494e+00
   2.521700e+01  -8.986808e+01
   1.004601e+02  -5.517593e+01
   4.923650e+01   1.400391e+01
   7.091817e+00   6.786366e+01
  -2.471802e+01   6.850843e+01
  -4.121380e+01  -1.903321e+01
  -1.527643e+01  -6.457923e+01
  -1.190614e+01  -9.256611e+01
   3.236869e+01  -2.292320e+00
   4.131174e+01   7.374337e+01
  -1.809091e+00   2.973822e+01
  -9.436863e+01  -3.138739e+01
  -4.723876e+01  -9.888646e+00
  -5.035242e+01  -3.313836e+00
   4.043361e+01  -1.497808e+01
  -3.976148e+01   5.249819e+01
  -2.603244e+01  -3.836540e+01
  -1.885260e+01  -7.602201e+01
   7.617915e+01   1.173341e+01
   5.708987e+01  -2.404778e+01
   2.774095e+01   6.885373e+01
  -5.115108e+01   4.125774e+01
  -3.378578e+01  -7.096448e+01
  -9.756488e-02  -3.464743e+01
   9.398550e+01  -6.388014e+01
   6.534222e+01   3.298723e+01
   3.073271e+01   6.708958e+01
  -2.195823e+01   6.365389e+01
  -4.385551e+01   4.786377e+01
  -1.783791e+01   1.722918e+01
   3.253392e+01  -4.709978e+00
   1.870450e+01  -1.596167e+01
  -1.399288e+01   1.868229e+01
  -7.785726e+01   4.937101e-02
