
 $NMID
 id='ANONYMOUS ', fmtdat='(2E16.6)'
 volume=1.0
 tramp=1.0
 $END
  -2.120603e+03  -6.778586e+01
  -1.608921e+03  -1.231633e+03
   9.046433e+01  -1.516303e+03
   8.204696e+02  -9.406832e+02
   7.867577e+02  -2.526239e+02
   2.716003e+02   6.749878e+01
  -1.411569e+02  -1.577596e+01
  -4.342031e+01  -3.162756e+02
   3.858356e+02  -3.928466e+02
   4.135508e+02  -7.650346e+01
   2.804320e+02   2.827692e+02
   4.672166e+01   4.937356e+02
  -1.484895e+02   1.284407e+02
  -1.176181e+02  -2.681769e+02
   5.775550e+01  -4.062078e+02
   2.712058e+02  -1.406266e+02
   2.284097e+02   3.190312e+02
  -5.126828e+01   4.986640e+02
  -3.312633e+02   2.899703e+02
  -3.277353e+02  -6.998697e+01
  -1.548387e+02  -2.129761e+02
   4.893567e+01  -1.756575e+02
   5.516592e+01  -1.077489e+02
  -1.443700e+02  -1.075651e+02
  -1.702001e+02  -2.612399e+02
   8.966185e+01  -2.612604e+02
   3.755698e+02  -4.172202e+01
   3.591534e+02   9.758885e+01
   1.534313e+02   1.555837e+02
  -2.201500e+02   4.863122e+01
  -2.638123e+02  -1.188171e+02
  -9.995163e+01  -2.451209e+02
   2.380729e+02  -1.958765e+02
   2.902508e+02  -6.439055e+01
   1.970539e+02   6.818807e+01
   8.365209e+01   1.983651e+02
   3.980788e+01   6.893607e+01
   1.130854e+02  -3.598887e+00
   9.487856e+01  -4.730658e+01
   1.034929e+02   9.750351e+01
  -5.953851e+01   3.032186e+02
  -1.644678e+02   2.629621e+02
  -2.005612e+02  -1.359078e+01
  -4.893206e+01  -2.217113e+02
   7.487309e+01  -2.464483e+01
   3.678087e+01   1.829404e+02
  -1.072048e+02   2.158466e+02
  -3.035457e+02   3.416906e+01
  -3.997767e+02  -2.752803e+02
  -1.048909e+02  -3.262758e+02
   2.367235e+02  -1.825922e+02
   3.635910e+02   1.153520e+02
   2.946658e+02   9.453387e+01
   6.447000e+00   1.615492e+02
  -2.302623e+02   6.278762e+01
  -2.053508e+02  -2.401339e+00
  -8.752521e+01  -1.046348e+01
   1.532275e+01   4.973677e+01
  -7.345044e+01   2.410777e+01
  -1.191701e+02  -4.944868e+01
  -9.007705e+01  -1.190141e+02
   1.580477e+02  -1.630732e+02
   3.020303e+02  -7.883487e+01
   1.875191e+02   6.346830e+01
  -2.889981e+01   2.742102e+02
  -2.081112e+02   2.653054e+02
  -2.535133e+02   6.706685e+01
  -1.529992e+02  -1.016641e+02
  -6.299285e+01  -2.697877e+02
  -1.822022e+01  -1.765389e+02
   2.976823e+01  -2.145670e+02
   1.798327e+01  -1.264672e+02
   1.315876e+02  -8.787319e+01
   1.988676e+02  -1.502638e-01
   1.897656e+02   1.298231e+02
   4.567506e+01   2.325971e+02
  -9.563837e+01   1.195755e+02
  -1.768366e+02  -3.418725e+01
  -1.068068e+02  -2.058919e+02
   5.187361e+01  -2.227395e+02
   2.017038e+02  -5.666338e+01
   2.541027e+02   1.499917e+02
   1.446777e+02   1.959378e+02
  -7.167789e+00   2.307949e+02
  -1.234491e+02   1.443261e+02
  -1.010776e+02   7.899461e+01
  -1.785372e+02   8.900597e+01
  -2.759214e+02   3.798640e+01
  -3.119189e+02  -1.170288e+02
  -2.454060e+02  -2.238248e+02
   7.386844e+01  -3.541183e+02
   3.238379e+02  -2.578886e+02
   3.474606e+02  -1.591321e+02
   2.148591e+02   8.749321e+01
   3.462194e+01   1.712096e+02
  -5.470376e+01   2.039650e+02
   3.152539e+01   4.177744e+01
   1.033436e+02  -2.598210e+01
   5.449451e+01   4.932464e+01
  -5.388772e+00   9.163424e+01
  -5.550108e+01   8.558275e+01
  -5.150094e+01  -4.237212e+01
   8.505827e+01  -1.047489e+02
   1.627025e+02   1.154657e+01
   1.024583e+02   2.196811e+02
  -4.184708e+01   2.515240e+02
  -1.863326e+02   1.903407e+02
  -2.504442e+02  -7.036487e+01
  -2.229723e+02  -2.365634e+02
  -3.137382e+01  -2.242779e+02
   1.225957e+02  -1.010325e+02
   8.469897e+01   5.244045e+01
  -2.039773e+01  -4.111192e+00
   1.382462e+01  -5.795873e+01
  -1.700088e+01  -9.842302e+01
   9.679116e+01  -7.883938e+01
   7.743311e+01  -7.975895e+00
   2.478875e+01   3.284173e+01
  -2.873720e+01  -7.451431e+01
  -9.758702e+00  -1.284816e+02
   1.231472e+02  -7.994285e+01
   2.004243e+02   5.198834e+01
   1.879812e+02   1.836323e+02
   4.294473e+01   2.011391e+02
  -1.697620e+02   1.214117e+02
  -2.385006e+02   8.097884e+01
  -1.085156e+02  -3.833809e+01
   4.311529e+01  -6.471818e+01
   5.863449e+01  -8.295445e+00
  -7.278283e+01   5.295250e+01
  -1.788136e+02  -5.218525e+01
  -1.321328e+02  -7.677540e+01
  -8.090854e+01  -1.122321e+02
   2.075884e+01  -7.194704e+01
   8.419126e+01  -2.104325e+01
   4.901961e+01   5.907444e+01
  -7.481927e+01  -7.877935e+00
  -2.234887e+01  -7.308356e+01
   7.517787e+01  -9.020732e+01
   1.774203e+02  -3.673436e+00
   1.341939e+02   1.120281e+02
   1.944546e+01   1.522539e+02
  -1.247099e+02   9.811509e+01
  -1.468953e+02   1.067968e+01
  -1.301099e+01  -6.116633e+01
   7.265937e+01  -4.986434e+01
   9.010931e+01  -4.915676e+01
  -1.886206e+00   4.115266e-01
  -5.429927e+01  -2.230650e+01
  -5.621290e+00  -2.722180e+01
   1.104658e+02  -1.729523e+01
   7.582674e+01   9.428459e+01
   5.256535e+01   1.396080e+02
  -1.033972e+02   1.000562e+02
  -2.072521e+02   3.394929e+01
  -1.685413e+02  -1.343779e+02
  -2.783412e+01  -1.943191e+02
   9.662261e+01  -1.124960e+02
   1.069547e+02  -2.935010e+01
   4.415855e+01   4.999016e+01
   9.957702e+00  -7.732251e+00
   3.460811e+01  -2.894982e+01
   4.018133e+01   1.511668e+01
   4.138628e+01   2.727937e+01
  -5.207905e+01   7.786927e+01
  -1.159834e+02   1.961559e+01
  -8.889503e+01  -5.484342e+01
   2.685748e+01  -9.925741e+01
   1.543252e+02  -8.066458e+01
   1.496820e+02   4.781025e+01
   5.826863e+01   1.947499e+02
  -1.309514e+02   2.094019e+02
  -2.280078e+02   3.655780e+01
  -1.740648e+02  -5.946365e+01
  -5.245809e+01  -1.144353e+02
   3.896945e+01  -9.066830e+01
   7.804606e+01  -9.646563e+00
   8.883476e+01  -4.537985e+01
   1.318079e+01  -6.502372e+01
   6.946901e+01  -9.314382e+01
   1.033844e+02   3.541959e+01
   1.128894e+02   9.061982e+01
  -3.217234e+01   1.994250e+02
  -7.288987e+01   9.825314e+01
  -1.668751e+02  -1.078322e+01
  -1.114925e+02  -1.403824e+02
  -1.554623e+01  -1.325119e+02
   9.315420e+01  -4.647432e+01
   4.866576e+01   1.369939e+01
  -5.846544e+00   5.192809e+01
   1.473521e+01   5.050043e+01
  -2.662875e+01   3.678618e+01
   6.973625e+01   2.893555e+00
   5.317042e+01   3.470522e+01
  -9.164870e+01   3.978339e+01
  -1.488209e+02  -5.790034e+00
  -8.151222e+01  -7.588100e+01
  -1.240642e+00  -1.111129e+02
   1.074090e+02  -9.841557e+01
   9.996617e+01  -3.080756e+01
   2.266062e+01   2.831405e+01
  -2.030757e+01   2.125525e+01
  -4.397485e+01  -2.180503e+01
  -1.933185e+01  -5.589383e+01
   8.165649e+01  -7.043516e+01
   9.672125e+01  -3.111013e+01
   1.120892e+02   3.909523e+01
   2.486282e+01   5.922623e+01
   7.927116e+01  -1.471527e+01
   4.220077e+00  -3.085074e+01
   3.149665e+01   5.887685e+01
  -2.799716e+01   1.238795e+02
  -1.415839e+02   1.097633e+02
  -1.472877e+02   4.917157e+01
  -1.201810e+02  -9.068966e+01
   1.623871e-01  -1.555783e+02
   9.171311e+01  -6.323767e+01
   8.941030e+01  -2.540397e+01
  -6.111105e+01  -1.378311e+00
  -9.804421e+01  -2.300179e+01
  -7.208241e+01  -8.332096e+01
   6.166836e+01  -6.781142e+01
   1.526504e+02  -7.886025e+00
   9.936667e+01   2.030534e+01
   7.451044e+01   4.516106e+01
  -6.352278e+01   2.439794e+01
  -2.097805e+01  -1.943356e+00
   4.386905e+01  -4.738545e+00
   8.949116e+01   2.043125e+01
   9.267474e+01   9.800080e+01
  -6.574049e+01   1.724866e+02
  -1.434895e+02   9.495649e+00
  -8.006306e+01  -6.010572e+01
  -6.423982e+00  -1.497185e+02
   3.925119e+01  -9.409062e+01
   2.696124e+01   4.876343e+01
   2.041832e+01   1.228122e+02
  -1.301558e+01   5.513252e+01
  -2.680006e+01   2.152905e+01
  -2.082053e+01  -3.350110e+01
  -9.223460e+00  -1.363719e+01
  -1.014414e+01   7.028234e+01
  -1.383216e+01  -4.986102e+01
  -5.688041e+01  -1.134908e+02
   1.363679e+01  -5.833952e+01
   6.592900e+01  -4.553969e+01
   9.401069e+01   1.855334e+00
   7.845689e+01   4.658239e+01
   1.142113e+01   5.935763e+01
  -5.545051e+01   6.187740e+01
  -6.507567e+01   1.742890e+01
  -3.485715e+01  -5.176979e-01
   4.582362e+01  -4.018792e+01
   3.354164e+01  -4.311215e+01
  -3.962840e+01   2.165167e+01
  -3.816008e+01  -1.570634e+01
   4.596185e+01   2.068567e+00
   8.261646e+01   5.857300e-02
   4.609940e+01   7.784577e+01
  -5.019755e+01   9.164548e+01
  -1.258354e+02   2.689404e+01
  -1.230447e+02  -2.266994e+01
  -8.636318e+00  -1.090842e+02
   1.976549e+01  -1.519542e+02
   9.544887e+01  -1.328008e+01
   4.645306e+01   3.304977e+01
   3.347086e+01   7.885100e+00
   2.889040e+01  -2.496211e+00
  -1.600208e+01  -3.675207e+01
   5.199505e+01   3.915051e+01
  -1.505001e+01   6.936014e+01
  -3.778141e+01   5.655027e+01
  -3.529691e+01  -1.962186e+01
  -7.338264e+01  -9.174785e+01
   1.054078e+01  -1.087917e+02
   8.666555e+01  -3.186044e-01
   7.982256e+01   4.028936e+01
   2.537986e+01   1.265590e+02
  -4.069201e+01   8.882169e+01
  -1.070528e+02  -4.458073e+01
  -1.259128e+01  -4.758256e+01
   4.919751e+00  -8.467943e+01
   4.932744e+01   4.108118e+01
  -2.653976e+01   7.078944e-01
  -6.088110e+01   5.562129e+01
  -1.083104e+00  -3.243920e+01
   5.280017e+01  -4.897198e+01
   1.138570e+02  -5.133046e+01
   7.408916e+01   7.647854e+00
  -1.178835e+01   6.655028e+01
  -4.471850e+01   5.007273e+01
  -2.783800e+01   1.076000e+01
  -5.954549e-02  -2.536882e+01
   1.801638e+01  -8.484415e+01
   3.859848e+01   1.068902e+01
   4.363619e+01   8.656202e+01
   1.444603e+00   3.124224e+01
  -3.263769e+01   6.483869e+01
  -6.131608e+01  -2.186625e+01
   2.260950e+00   1.401980e+01
   1.128326e+01  -2.011785e+01
  -2.658228e+00  -7.188094e+00
   5.441141e+00  -1.985885e+01
  -4.317729e+00  -4.140285e+01
  -9.210765e+00  -2.438291e+01
  -5.777249e+00   4.380350e+01
  -6.516259e-01   4.563493e+01
  -7.473211e+01   5.345986e+01
  -3.638924e+01  -2.568083e+01
   6.109145e+00  -4.219407e+01
   3.475286e+00  -1.291467e+01
   5.234173e+01  -3.762726e+00
   3.589433e+01   6.358917e+01
  -2.468924e+01   1.857598e+01
  -6.861535e+01   2.502381e+00
   1.151434e+01   1.176583e+01
  -2.110616e+01   1.250948e+00
   6.951301e+00   1.254680e+01
   8.950674e+00   3.394122e+01
  -9.609347e+01   3.931538e+01
