
 $NMID
 id='ANONYMOUS ', fmtdat='(2E16.6)'
 volume=1.0
 tramp=1.0
 $END
   2.223507e+03  -3.639549e+02
   1.646607e+03   5.930554e+02
   2.599847e+02   1.427599e+03
  -6.936370e+02   1.143948e+03
  -7.490904e+02   4.341936e+02
  -1.743636e+02  -7.500040e+01
   1.802077e+02  -3.422403e+00
   6.084048e+01   3.206182e+02
  -2.165215e+02   3.092053e+02
  -4.136199e+02   1.830607e+02
  -3.315358e+02  -2.478492e+02
  -7.318213e+01  -3.907634e+02
   1.387507e+02  -1.516193e+02
   1.675636e+02   2.339714e+02
  -1.383831e+01   3.977207e+02
  -2.512498e+02   8.639533e+01
  -2.652970e+02  -3.143593e+02
   4.272015e+01  -3.990554e+02
   3.704513e+02  -2.192757e+02
   3.163572e+02   1.440363e+02
   8.697658e+01   2.385607e+02
  -6.074905e+01   2.162268e+02
  -2.920035e+01   1.184358e+02
   1.417486e+02   1.074112e+02
   1.253078e+02   2.123327e+02
  -3.955292e+01   2.435948e+02
  -4.147047e+02   6.012555e+01
  -3.963194e+02  -1.212462e+02
  -1.498046e+02  -1.982419e+02
   1.629047e+02  -8.963336e+01
   2.906047e+02   7.516361e+01
   1.664192e+02   2.287555e+02
  -2.330105e+02   2.241770e+02
  -3.278474e+02   8.593055e+01
  -1.954738e+02  -7.851876e+01
  -6.206231e+01  -1.588721e+02
  -9.218072e+01  -1.076297e+02
  -1.072186e+02  -8.302316e+00
  -5.215118e+01   4.012279e+01
  -1.131828e+02  -1.145169e+02
  -5.690284e+01  -2.814512e+02
   1.400753e+02  -2.735555e+02
   1.834436e+02  -7.824453e+00
   2.961933e+01   2.385247e+02
  -7.747162e+01   5.887127e+01
  -8.813219e+01  -2.033326e+02
   7.903052e+01  -2.499210e+02
   3.023817e+02  -6.861471e+01
   2.814768e+02   2.393632e+02
   1.201238e+02   3.039349e+02
  -1.527551e+02   1.671147e+02
  -3.567050e+02  -3.672258e+01
  -2.664448e+02  -1.261229e+02
   1.357739e+01  -1.406247e+02
   1.486258e+02  -3.540032e+01
   1.699234e+02  -4.333805e+01
   2.573089e+01   1.636770e+00
   1.415179e+01  -2.513117e+01
   1.703940e+00  -4.026799e+01
   1.151415e+02   1.215906e+01
   9.142352e+01   1.114269e+02
  -1.373067e+02   1.992282e+02
  -2.736446e+02   1.114894e+02
  -2.069937e+02  -1.139385e+02
   3.109608e+01  -2.475163e+02
   2.042157e+02  -2.882449e+02
   2.540824e+02  -8.978954e+01
   1.658755e+02   9.639714e+01
   5.914114e+01   2.708503e+02
   5.225377e+01   2.140776e+02
  -4.491966e+01   1.549978e+02
  -5.662083e+01   1.590840e+02
  -1.406043e+02   9.870525e+01
  -2.226097e+02   1.753473e+01
  -1.611729e+02  -9.536528e+01
  -1.189033e+02  -1.371887e+02
   1.062259e+02  -1.086499e+02
   1.043308e+02   2.468995e+01
   8.663919e+01   1.517114e+02
  -6.793033e+01   1.521470e+02
  -1.921584e+02   4.072251e+01
  -2.498888e+02  -1.250367e+02
  -1.355013e+02  -1.822344e+02
   1.644817e+01  -1.556326e+02
   6.710601e+01  -1.429427e+02
   8.853548e+01  -7.168125e+01
   1.148803e+02  -9.857630e+01
   2.193395e+02  -9.326320e+01
   3.382396e+02   1.465233e+01
   1.920353e+02   2.239025e+02
   7.637115e+00   2.964014e+02
  -2.809486e+02   3.051690e+02
  -3.512380e+02   1.223851e+02
  -1.742299e+02  -7.890966e+01
  -7.773416e+01  -1.885740e+02
   2.173422e+01  -1.090737e+02
  -4.034767e+01  -5.608762e+01
  -9.761620e+01  -6.206720e+01
  -4.433965e+01  -3.750484e+00
   3.539397e+00  -6.718345e+01
   8.309255e+01   2.478475e+00
   7.463624e+01   3.418380e+01
  -4.401139e+01   1.058950e+02
  -1.198102e+02   7.173624e+00
  -1.121130e+02  -1.342304e+02
  -5.557975e+00  -2.105221e+02
   1.844760e+02  -1.412681e+02
   2.460492e+02   9.004555e+01
   1.805770e+02   1.699956e+02
   1.809523e+01   2.038850e+02
  -9.456534e+01   1.105587e+02
  -9.637190e+01   3.294994e+01
   5.937380e+00   3.117701e+01
  -7.650074e+00   5.751629e+01
  -3.155135e+01   9.319211e+01
  -1.020368e+02   4.289900e+01
  -7.743486e+01  -4.066396e+01
  -1.783300e+01  -6.327511e+01
   9.497172e+01   2.649920e+01
   2.700071e+01   9.843241e+01
  -8.399077e+01   7.359615e+01
  -2.246586e+02  -9.187659e+00
  -2.223257e+02  -1.362276e+02
   1.703602e+01  -2.058129e+02
   1.494303e+02  -1.569838e+02
   1.546562e+02  -9.723075e+01
   1.116033e+02   4.667648e+01
  -5.652107e+01   3.101902e+01
  -4.336208e+01  -4.007299e+00
   8.403206e+01  -3.673200e+01
   1.196265e+02  -8.868911e+00
   1.243177e+02   9.847209e+01
   3.112208e+00   9.201348e+01
  -8.835193e+01   9.097276e+01
  -9.629625e+01   1.637474e-01
   1.444451e+01   1.592083e+01
   2.083807e+00  -1.041579e+01
   2.146765e+01   1.346747e+02
  -1.026897e+02   6.516596e+01
  -1.363601e+02  -8.430196e+00
  -1.028705e+02  -9.366384e+01
   4.158931e+00  -1.497347e+02
   1.268117e+02  -1.117898e+02
   1.442426e+02   1.583957e+01
   3.601858e+01   4.618676e+01
  -5.021767e+01   4.192972e+01
  -8.018909e+01   4.672639e+01
   3.382614e+01  -6.982323e+01
   2.509374e+01   7.158492e+00
  -2.603607e+01   3.741162e+01
  -8.524127e+01   9.561551e+00
  -6.238634e+01  -7.027032e+01
   7.738714e+00  -1.503854e+02
   9.455312e+01  -1.120695e+02
   1.708398e+02  -1.357391e+01
   1.577503e+02   1.099724e+02
   5.896299e+00   1.337080e+02
  -4.953944e+01   1.354285e+02
  -1.042683e+02  -2.238583e+01
  -2.103380e+01  -2.069809e+01
   1.257842e+01   1.343169e+01
  -1.999696e+01   3.820755e+01
  -4.638242e+01  -1.722226e+01
  -2.978093e+01  -4.095794e+01
   4.566420e+01  -7.709433e+01
   8.080739e+01  -4.781877e+01
   8.459521e+01   5.836922e+01
  -5.661306e+01   9.867909e+01
  -8.434318e+01   9.419336e+01
  -1.688534e+02  -9.307945e+00
  -5.944502e+01  -1.545455e+02
   6.415696e+01  -1.795003e+02
   2.096380e+02  -7.556748e+01
   2.099915e+02   8.431683e+01
   6.663338e+01   1.238172e+02
  -1.107539e+01   6.866148e+01
  -9.196296e+01   4.326777e+01
  -8.993696e+01   8.699754e-01
  -3.545451e+00   5.772663e+01
  -4.544258e+01   7.317181e+01
  -8.248634e+01   1.848610e+01
  -7.614301e+01  -1.180846e+02
   1.179528e+00  -1.325592e+02
   7.332135e+01  -1.256876e+02
   1.392629e+02   4.278252e+01
   7.252670e+01   1.064985e+02
   1.799336e+00   1.481509e+02
  -6.623995e+01   5.223201e+01
  -6.734833e+01  -2.808376e+01
  -1.567345e+01  -8.147610e+01
   3.142187e+01  -7.619681e+01
   1.586905e+01  -1.512057e+00
  -6.499569e+01   8.899552e+00
  -2.926335e+01   6.024060e+00
   4.735096e+01  -1.840925e+01
   1.388242e+02  -6.025486e+00
   5.650440e+01   3.696862e+01
  -3.912169e+01   6.049608e+01
  -1.105033e+02   2.550068e+01
  -1.304047e+02   3.543267e+01
   3.727992e+01  -1.717773e+01
   8.079862e+01  -3.808077e+01
  -1.056698e+01   2.278400e+01
   4.328451e+01   5.752447e+01
  -9.651139e+00   9.759087e+01
  -1.286235e+01   2.992771e+01
  -5.081979e+01  -4.265513e+01
  -2.957124e+01  -2.313079e+01
  -3.437348e+01   2.834978e+00
  -4.900222e+01   4.404497e+00
  -4.751511e+01  -5.163796e+01
   5.420507e+01  -1.119484e+02
   7.735259e+01  -9.920154e+01
   1.673143e+02  -9.045707e+01
   1.815908e+02   4.963622e+01
   1.304427e+01   7.313904e+01
  -6.617145e+01   7.359917e+01
  -5.581623e+01   8.280498e+00
   5.094805e+01   1.049559e+00
   1.095237e+02  -6.707033e+00
   4.878867e+01   9.406794e+01
  -7.925298e+01   1.089708e+02
  -1.054003e+02   2.070186e+01
  -1.294812e+02  -4.423949e+00
  -2.153294e+01  -8.785951e+01
   8.810939e+01  -7.954889e+01
   6.592773e+01   2.062651e+01
  -2.010410e+01   3.261676e+01
  -5.697768e+01  -4.109310e+01
  -4.249538e+01  -7.985189e+01
   3.667987e+01  -8.404221e+01
   7.836915e+01  -6.109331e+01
   1.081067e+02  -6.741730e+00
  -1.517991e+01   1.205893e+02
  -3.773200e+01   1.207485e+02
  -5.855883e+01  -8.390427e+00
  -2.957954e+01  -7.787011e+01
  -4.097029e+00  -7.546711e+01
   4.364801e+01  -3.510616e+01
   3.800183e+01   8.677316e+00
   1.358258e+01   5.376621e+00
  -1.968275e+01   1.548484e+01
   3.258263e-01   6.229539e+01
   3.156505e+01   1.051746e+02
   1.243749e+01   8.596733e+01
  -1.559292e+01   1.730031e+01
  -1.122355e+02  -2.482148e+01
  -1.151043e+02  -2.740570e+01
   9.923279e-01  -3.519621e+01
   7.817833e+01  -6.462704e+01
   1.020025e+02   1.853702e+01
   9.818010e+00   2.341004e+01
  -2.399884e+01   1.935840e+01
  -6.007802e-01   4.242893e+01
  -6.397869e+00   1.368003e+01
  -3.719984e+00   1.442988e+01
  -5.097380e+01  -7.778859e+00
  -1.231780e+02  -2.118867e+01
  -4.159281e+01  -7.133576e+01
   8.720495e+01  -1.179980e+02
   1.095419e+02  -3.527381e+01
   1.194395e+02  -1.281761e+01
   2.499903e+01   1.068542e+02
  -1.529651e+01   1.177969e+02
  -7.952343e+01   6.214939e+01
  -6.581063e+01   7.373363e+00
  -3.141375e+01  -1.825792e+01
   3.701306e+01   1.377897e+01
  -1.419975e+01   4.606246e+00
  -3.371818e+01  -5.591331e+01
  -1.676969e+00  -5.179581e+01
   2.050857e+01  -6.788815e+01
   1.821785e+01   5.527645e+00
   7.828465e+01   6.917663e+01
   1.969684e+00   9.539910e+01
  -4.880627e+01   4.905653e+01
  -6.233175e+01  -6.054028e+01
  -1.975111e+01  -4.803836e+01
   6.368105e+01  -8.364842e+01
   7.079343e+01   3.951626e+01
   3.758670e+01   1.791993e+01
  -7.540820e+00   4.933962e+01
  -6.041242e+01  -8.197323e+00
   8.212093e+00  -3.432535e+01
   4.758032e+01  -6.527468e+00
  -4.528798e+01  -2.645011e+01
  -5.132881e+01   7.942661e+01
  -7.695489e+01   2.372308e+01
  -7.436574e+01  -1.090841e+01
   4.583293e+00  -9.589093e+01
   5.071203e+01  -6.213651e+01
   7.421941e-01  -4.295758e+00
   4.457570e+01   8.711815e+01
   1.078046e+01   3.608672e+01
  -3.271886e-02  -1.592866e-01
  -6.369358e+00  -3.943260e+01
  -2.141096e+00  -6.114056e+00
   1.832304e+01   3.471361e+01
   5.678237e+01   7.161577e+00
   3.573914e+01  -1.461666e+01
   1.925096e+01   5.877024e+00
  -5.643141e+00   1.210527e+01
  -1.070553e+00   3.755647e+01
   1.049711e+01   8.802601e-01
  -5.953352e+01   2.793982e+01
   1.406695e-02  -4.049022e+01
  -2.455120e+01   6.627021e-01
   3.823463e+01  -5.510130e+01
   1.025757e+02   3.659590e+00
   5.010863e+01   3.827739e+01
  -7.657337e+01   3.327598e+01
  -7.713009e+01  -7.927860e+00
  -7.494970e+01  -5.285707e+01
   1.264931e+01  -4.989925e+01
   6.225694e+01  -2.068154e+01
   7.668216e+01  -1.138379e+01
  -1.421839e+01   3.261464e+01
  -1.231777e+01   1.796431e+01
   4.779894e+00  -1.325326e+01
   6.883911e+01  -1.913829e+01
