
 $NMID
 id='ANONYMOUS ', fmtdat='(2E16.6)'
 volume=1.0
 tramp=1.0
 $END
  -1.224671e+03  -2.065777e+02
  -4.819755e+02  -4.766380e+02
   1.652114e+02  -8.618857e+02
   5.754041e+02  -4.464878e+02
   3.316327e+02   4.768852e-01
  -7.328272e+01   6.334042e+01
  -1.981231e+02  -5.782095e+01
   5.848812e+01  -2.317415e+02
   2.494383e+02  -2.393233e+02
   1.766097e+02   1.300888e+01
   1.161631e+02   1.704242e+02
  -5.003230e+01   2.191880e+02
  -1.053121e+02   3.255011e+01
  -9.257649e+01  -1.772292e+02
   9.310991e+01  -1.357682e+02
   1.251845e+02   9.538344e+00
   2.269073e+01   1.235836e+02
  -4.061878e+01   1.543626e+02
  -1.343403e+02   1.032161e+02
  -8.085657e+01  -1.030161e+02
  -2.174944e+01  -1.239314e+02
  -1.400619e+01  -1.025127e+02
   2.201995e+01  -6.822113e+01
  -3.274377e+01  -3.835877e+01
  -6.019189e+01  -8.026716e+01
   2.647727e+01  -9.608392e+01
   1.638108e+02   1.617278e+01
   1.646351e+02   5.951668e+01
   4.196704e+01   1.495918e+02
  -1.018227e+02   7.220404e+01
  -1.350252e+02   1.422900e+01
  -4.182521e+01  -8.155192e+01
   8.022546e+01  -1.520961e+02
   1.466668e+02  -1.147974e+02
   1.371197e+02   6.111161e+01
   2.200437e+01   1.199081e+02
  -1.908174e+01   8.728141e+01
  -6.007058e+01  -1.273258e+01
   9.442067e+01  -7.149548e+01
   8.021922e+01   5.466084e+01
   1.673248e+01   2.068292e+02
  -8.315006e+01   1.767484e+02
  -1.461741e+02   2.850079e+01
  -1.187457e+02  -1.449100e+02
   3.635888e+01  -1.144191e+01
  -2.542088e+00   9.382632e+01
  -5.709933e+01   1.435466e+02
  -1.438918e+02  -1.104983e+01
  -7.344143e+01  -8.871333e+01
  -5.966261e+01  -2.003986e+02
   1.174387e+02  -6.428594e+01
   2.033437e+02   2.884959e+01
   1.171410e+02   3.891898e+01
  -2.031419e+01   7.058116e+01
  -1.329618e+02   3.240045e+01
  -6.576231e+01   2.041591e+01
   1.142924e+01   1.807185e+01
  -1.421987e+01  -9.540336e+00
  -4.012701e+01   6.793662e+01
  -6.916744e+01   1.802288e+00
  -2.588326e+01  -5.890611e+01
   2.557420e+01  -5.251281e+01
   1.175311e+02  -1.564028e+01
   5.534825e+01   5.913350e+01
  -2.427590e+01   9.034919e+01
  -1.040504e+02   1.014299e+02
  -1.160018e+02   4.754997e+01
  -6.671191e+01  -6.903688e+01
   3.919736e+01  -1.329738e+02
   3.602513e+01  -1.718609e+02
  -1.184494e+01  -4.337706e+01
   3.478715e+01  -6.799491e+00
   1.104288e+02  -2.407268e+01
   7.395450e+01  -1.617766e+01
   2.518108e+01   2.338040e+01
   4.006734e+01   7.029362e+01
   1.975986e+01   5.980619e+01
  -5.999401e+01   9.599071e-01
  -5.246072e+01  -9.726942e+01
   3.057963e+01  -8.179316e+01
   1.037385e+02   1.521556e+01
   6.854475e+01   9.753558e+01
   2.210093e+01   1.084279e+02
  -6.138252e+01   6.546266e+01
  -6.093053e+01   3.145161e+01
  -6.660662e+01   4.553848e+01
  -3.375250e+01   2.758345e+00
  -5.302837e+01  -1.736227e+01
  -1.491451e+02  -3.685376e+01
  -2.274069e+01  -1.079339e+02
   2.491743e+01  -1.288223e+02
   8.776789e+01  -8.717141e+01
   1.339953e+02  -5.230645e+01
   1.239555e+02   1.412464e+01
   2.796524e+01   8.773866e+01
  -1.890575e+01   4.909346e+01
  -3.929814e+00   3.465890e+01
   1.203792e+01   7.175720e+00
   6.818369e+01  -9.669966e+00
   9.658018e+00   5.749865e+01
  -3.800270e+01   2.746504e+01
  -2.635173e+01  -2.953938e+01
   3.052514e+01  -2.327243e+01
   2.464291e+01   1.654900e+01
   3.294400e+01   3.496107e+01
  -2.339679e+01   7.127495e+01
  -8.120042e+01   1.249088e+01
  -8.964830e+01  -5.879823e+01
   7.340071e+00  -8.901212e+01
  -1.653412e+01  -7.331259e+01
   4.021553e+01  -3.583098e+01
   5.541122e+01  -9.185444e+00
   2.153883e+01  -3.812899e+01
  -2.832993e+01  -2.265348e+01
   2.186118e+01   2.152810e+01
   9.972818e+00   1.476582e+01
   4.651384e+01   6.030710e+01
   1.905737e+01  -2.247396e-02
  -1.490635e+01   2.107380e+01
   1.797292e+00  -4.307835e+01
   7.779972e+01   4.202100e+00
   6.435321e+01   3.991524e+01
   6.831280e+01   2.473154e+01
  -7.471901e-01   8.267678e+01
  -9.274910e+01   6.412208e+01
  -7.384325e+01   6.193658e+01
  -4.280443e+01  -1.325493e+01
  -7.333512e+00   5.793444e+00
   9.102951e+00   7.215812e+00
  -3.086555e+00   2.361646e+01
  -3.352514e+01   2.350916e+01
  -6.618749e+01   4.688310e+00
  -2.933820e+01  -6.294429e+01
   3.221927e+01  -6.022567e+01
   3.664522e+01  -2.234253e+01
   9.076862e+00   3.155191e+01
   9.908196e+00  -3.172264e+00
  -2.711919e+01  -1.034319e+01
   1.505204e+01  -1.782652e+01
   3.499035e+01   9.293435e+00
   4.778020e+01   2.852922e+01
  -1.482007e+01   3.393051e+01
  -6.731471e+01   3.539009e+01
  -7.410901e+01  -2.241077e+01
  -1.993414e+01  -1.326079e+01
   2.933807e+01  -2.087947e+01
  -1.514330e+00  -5.998166e+01
   6.963045e+00  -1.745914e+01
   2.178390e+00   7.474892e+00
  -8.395511e+00   2.989048e+01
   1.616292e+01  -1.724646e+01
   2.721487e+01   7.356034e+01
  -4.010652e-03   9.064705e+01
  -7.852799e+01   2.665974e+01
  -4.706737e+01  -3.156235e+01
  -3.602782e+01  -4.001252e+01
  -3.839557e+01  -1.550476e+01
   2.826270e+01  -1.417530e+01
   1.623601e+01   1.056527e+01
  -7.478890e+00  -2.196056e+01
   4.734039e+01   4.617867e+01
  -8.396968e-01  -1.774147e+01
   2.278535e+01   3.404286e+01
   1.639468e+01   2.008664e+01
  -2.582051e+01   6.178907e+01
  -4.311169e+01  -2.964268e+01
   1.563046e+01  -5.624322e+01
  -1.805866e+01  -7.211263e+01
   7.454829e+01   1.617663e+01
   2.787906e+01   3.758662e+01
  -2.561601e+01   1.201296e+02
  -5.328271e+01   6.213902e+01
  -8.722911e+01  -1.487519e+01
  -8.256722e+01  -3.389259e+01
  -1.646908e+01  -1.164042e+01
  -4.284568e+00  -2.805865e+01
  -2.320587e+01  -5.501775e+01
   1.509345e+01  -5.055722e+00
  -4.469096e+00  -4.394569e+01
   3.820070e+01  -4.889212e+01
   3.121573e+01   2.381392e+00
   4.007431e+01   4.286377e+01
  -5.978839e+01   5.308677e+01
  -3.201298e+01   1.725835e+01
  -8.335890e+00  -3.757585e+01
   8.538058e+00  -3.766564e+01
  -1.137049e+01  -3.958213e+01
   1.314389e+01  -1.376071e+01
  -1.093957e+01   7.137995e+00
   6.062146e+00   9.146020e+00
  -1.794859e+01   1.220376e+00
   3.746462e+01  -1.471411e+01
   1.860016e+01   9.285739e+00
  -5.718289e+00  -2.527975e+00
  -5.889746e+00   2.113467e+00
  -9.046549e+01  -3.186544e+01
  -2.760609e+01  -8.552257e+00
  -1.964331e+01   2.917050e+01
   2.906689e+01  -1.451072e+01
   3.219248e+01   2.033809e+00
   1.210764e+01   1.161415e+01
  -1.282489e+01  -1.621859e+01
  -4.460843e+01  -1.085671e+01
  -2.779948e+01  -3.601646e+01
   3.177076e+01  -5.167777e+01
   2.027322e+01   1.125938e+01
   8.806088e+00  -9.155509e+00
   1.991845e+01   3.637521e+01
   5.758475e+01  -5.438853e+00
   2.940794e+01   2.428691e-01
   1.840488e+01   7.998340e+01
  -3.605082e+01   3.973949e+00
  -6.205527e+01   4.492211e+01
  -5.501906e+01  -1.601956e+01
  -2.568330e+01  -5.202704e+01
   1.311365e+01  -5.692996e+01
   1.430564e+01   6.091124e+00
  -5.271185e+00  -1.843400e+01
   2.379045e+01  -6.399416e+00
  -4.478327e+01  -7.056247e+00
  -2.463108e+01  -5.540951e+01
   2.420638e+01  -2.471790e+01
   8.834156e+01  -1.730125e+01
   5.030102e+01  -2.493689e+01
   6.902831e+00   2.713057e+00
   2.672265e-01   9.428963e+00
  -2.487767e+01   4.871677e+01
  -2.634565e+01   4.628844e+01
   2.804902e+01  -2.781813e+01
   5.725142e+01   3.197365e+01
  -2.146910e+00   3.066530e+01
  -6.379843e+01   4.321962e+01
  -3.471739e+01  -4.086361e+01
  -4.201378e+01  -4.496362e+01
   4.169000e+01  -8.760031e+01
   2.332590e+01  -6.322103e+00
   3.530001e+01   4.110475e+01
   1.119357e+01   2.592122e+01
   3.486518e+00  -1.501181e+00
   6.932409e+00  -1.071730e+01
  -9.763285e+00  -1.813048e+01
   1.993049e+01  -6.889638e+00
  -5.697947e+00   1.028492e+01
   5.206770e+01  -9.586441e+01
  -2.528325e+01  -2.656992e+00
   2.057715e+01  -2.508548e+01
   3.533475e+01   2.015255e+01
   3.092032e+01   1.327088e-01
   6.098759e+00  -4.165135e+01
  -1.490115e+01   1.646499e+01
   3.394499e+00  -1.074300e+01
   4.996713e-01   2.414662e+01
  -5.167511e+00   2.891477e+01
   4.612018e+00  -1.634787e+01
  -1.770189e+01  -6.610628e+00
   2.425164e+01   4.863179e+00
   2.859222e+01   3.073616e+01
   2.063054e-01   1.431622e+00
  -2.137868e+01   5.157131e+01
  -2.298647e+01   4.664684e+01
  -7.494336e+01   3.242482e+01
  -2.589343e+01  -4.258247e+01
  -2.104780e+01  -2.617441e+01
  -3.535331e+00  -4.831509e+01
   7.025210e+01  -3.550525e+01
   1.004654e+01  -1.163359e+01
   8.666935e+00  -3.978990e+01
   2.586002e+01   1.051688e+01
   6.635030e+00   1.470034e+00
   2.277080e+01   6.058099e+01
  -2.224957e+01   4.194236e+01
  -1.886735e+01   4.302637e+01
   1.304485e+01   1.393367e+01
  -5.019630e+00  -3.395010e+01
  -1.572285e+01  -2.044099e+01
   2.362922e+01   2.217030e+01
   3.842790e+01   1.935560e+01
  -2.031337e+01   1.134408e+01
  -4.898383e+01  -3.555131e+01
  -3.882846e+01  -3.187210e+01
   6.961499e+00  -2.441340e+01
  -4.697702e+01   2.529364e+01
   3.793866e+01   1.123709e+01
  -2.749952e+01  -8.089080e+00
  -5.060617e+01   3.071505e-01
   1.868378e+01   7.156892e+00
   1.936388e+01  -4.033139e+01
   4.221450e+01  -2.943758e+01
   2.082306e+01  -9.583681e+00
  -2.564069e+01   6.532043e+01
  -5.517045e+00   3.650607e+01
  -5.173897e+01   9.791072e+00
  -5.471895e+01   2.005915e+01
  -1.930345e+00  -3.700783e+01
   4.530069e+01   3.515107e+01
   1.539927e+01   1.242835e+01
   4.763563e+00  -9.538457e+00
  -5.487093e+01   4.240835e+01
  -2.047451e+01  -2.342052e+01
  -6.881482e+00  -3.316844e+01
  -4.960781e+01  -1.738007e+01
  -5.614424e+00   3.970095e+01
   3.200237e+01   2.253590e+00
   4.378535e+01   2.397412e+00
  -8.885875e+00  -1.352012e+01
   1.894295e+01   5.007727e+01
   2.100133e+01   2.700589e+01
  -1.976924e+01  -1.717174e+01
  -2.155910e+00   1.482923e+01
  -1.682473e+01   1.724199e+01
   1.831535e+01  -4.110928e+01
   2.459925e+01  -1.598607e+01
  -7.767900e+00   5.197301e+00
  -1.548870e+01  -2.217461e+01
  -1.789834e+01   3.307114e+01
  -9.968383e+00  -1.778038e+01
   3.530782e+01   6.791315e+00
   3.726032e+01  -1.531029e+01
  -2.015731e+01  -3.569334e+00
  -4.669786e+01   6.123260e+00
