
 $NMID
 id='ANONYMOUS ', fmtdat='(2E16.6)'
 volume=1.0
 tramp=1.0
 $END
   3.004841e+03   1.709032e+02
   1.853677e+03   2.201726e+03
  -6.357840e+02   2.005177e+03
  -1.659962e+03   8.083504e+02
  -7.781941e+02  -5.089436e+02
   4.222009e+02  -5.172476e+02
   6.864077e+02   3.604949e+02
   1.020717e+02   8.215422e+02
  -6.289717e+02   6.663656e+02
  -7.074696e+02  -1.064302e+02
  -3.483981e+02  -6.516097e+02
   1.848726e+02  -7.018313e+02
   5.052787e+02  -1.080337e+02
   3.104993e+02   4.648024e+02
  -2.112782e+02   5.658756e+02
  -5.186630e+02   9.858733e+00
  -3.022902e+02  -4.864321e+02
   2.339768e+02  -4.938464e+02
   4.438552e+02  -1.288583e+02
   3.479001e+02   2.359134e+02
   2.745864e+01   3.013569e+02
  -2.353457e+02   2.342051e+02
  -1.580533e+02   1.299281e+01
   1.210382e+02  -8.712566e+01
   3.167251e+02   6.136707e+01
   8.441502e+01   3.258794e+02
  -3.639667e+02   3.124195e+02
  -5.983455e+02  -8.763535e+01
  -3.363933e+02  -4.488253e+02
   2.965385e+02  -3.918143e+02
   6.198062e+02  -2.029177e+00
   2.889103e+02   3.575346e+02
  -2.324699e+02   3.926688e+02
  -4.224320e+02   1.697223e+02
  -3.404848e+02  -2.106458e+02
  -1.222357e+01  -3.283902e+02
   1.882909e+02  -1.986216e+02
   1.848880e+02   2.116796e+02
  -1.015732e+02   2.869512e+02
  -3.566040e+02  -1.147566e+01
  -1.702387e+02  -5.538971e+02
   2.761580e+02  -4.845317e+02
   4.711373e+02   2.725421e+00
   2.280670e+02   5.077920e+02
  -1.933583e+02   2.444347e+02
  -2.464090e+02  -1.799863e+02
   8.585501e+00  -4.818608e+02
   4.084838e+02  -1.058333e+02
   4.898992e+02   3.213900e+02
   1.212683e+02   4.636842e+02
  -3.026044e+02   2.297352e+02
  -5.459536e+02  -8.106639e+01
  -2.393786e+02  -2.965901e+02
   1.003642e+02  -2.765970e+02
   3.293176e+02  -8.734422e+01
   2.133256e+02   1.293083e+02
  -9.790197e+01   9.864322e+01
  -1.158950e+02  -1.352929e+02
   1.436146e+02  -1.354160e+02
   2.866026e+02   8.811822e+00
   1.523291e+02   2.112788e+02
  -1.384886e+02   2.261460e+02
  -2.676156e+02   1.186308e+02
  -1.687532e+02  -5.874252e+01
   3.185163e+01  -2.113917e+02
   2.007131e+02  -2.762905e+02
   2.693462e+02  -1.196125e+02
   2.080226e+02   1.533184e+02
   4.502948e+01   3.642152e+02
  -6.512764e+01   3.360759e+02
  -1.177059e+02   1.046409e+02
  -2.750668e+01  -1.979292e+01
  -5.805059e+01   2.888349e+01
  -1.736004e+02   1.278154e+02
  -2.014235e+02  -2.440953e+01
  -1.582045e+02  -2.097776e+02
   7.114056e+01  -1.747857e+02
   1.720320e+02   8.559091e+00
   1.428770e+02   2.159316e+02
  -3.732011e+01   2.580210e+02
  -2.457280e+02   1.252605e+02
  -2.409544e+02  -1.366136e+02
  -1.238194e+02  -2.635822e+02
   6.303015e+01  -2.409770e+02
   1.338563e+02  -1.466259e+02
   7.364831e+01  -6.955600e+01
   3.699045e+01  -2.188935e+01
   1.335502e+02  -7.230550e+01
   3.037018e+02   3.994836e+01
   2.758803e+02   1.454974e+02
  -5.886056e+00   3.276494e+02
  -2.208496e+02   3.490294e+02
  -4.278471e+02   1.608622e+02
  -2.589845e+02  -2.387625e+01
  -4.038963e+01  -2.411237e+02
   1.159097e+02  -1.753475e+02
   5.991708e+01   4.680502e+01
  -6.532745e+01   7.118793e+01
  -1.645638e+02  -3.488188e+01
  -6.462422e+01  -1.703138e+02
   8.838738e+01  -1.545961e+02
   1.240962e+02   3.097319e+01
   9.992725e+00   1.649265e+02
  -1.342127e+02   4.915757e+01
  -1.019935e+02  -1.713070e+02
   1.345864e+01  -2.593002e+02
   1.530806e+02  -1.580346e+02
   2.719094e+02   2.399631e+01
   2.328765e+02   1.511842e+02
   7.873050e+01   2.095436e+02
  -1.429841e+02   1.124391e+02
  -1.244867e+02   8.207124e+00
  -2.636490e+01  -1.971790e+01
   9.040571e+01   6.196910e+01
   1.273010e+01   9.063548e+01
  -6.165644e+01   7.269328e+01
  -1.750731e+02  -1.150291e+01
  -3.205008e+01  -1.055484e+02
   6.976043e+01  -3.381248e+01
   7.774980e+01   4.551687e+01
  -7.780575e+01   8.909316e+01
  -1.918471e+02   1.439740e+00
  -2.379284e+02  -9.430661e+01
  -5.936783e+01  -1.746586e+02
   1.241504e+02  -1.874848e+02
   2.011205e+02  -8.126912e+01
   1.597461e+02   4.359135e+01
  -3.311801e+01   6.003290e+01
  -8.759410e+01   1.276708e+01
  -1.169019e+01  -7.706405e+01
   1.333413e+02  -3.738532e+01
   1.678131e+02   7.721126e+01
   4.465507e+01   1.427664e+02
  -1.087861e+02   1.271725e+02
  -1.376662e+02   3.466576e+01
  -5.152549e+01  -7.206854e+01
   7.173102e+01  -1.922953e+01
   5.655692e+01   4.102909e+01
  -4.153914e+01   1.308524e+02
  -1.187998e+02  -2.422751e+01
  -9.737542e+01  -8.605314e+01
  -4.960621e+00  -1.468863e+02
   1.258230e+02  -1.167087e+02
   1.643330e+02  -5.005658e+00
   4.764664e+01   1.227880e+02
  -7.541905e+00   1.223849e+02
  -8.449434e+01   1.527935e+01
  -7.130289e+00   1.718315e+01
   1.929385e+01   8.972203e+00
   2.633380e+01  -1.076259e+01
  -3.919041e+01  -1.358265e+01
  -8.562133e+01  -5.284172e+01
  -1.378463e+00  -1.352268e+02
   1.186373e+02  -1.193335e+02
   2.030916e+02  -2.526318e+01
   1.360612e+02   1.313431e+02
   2.482022e+01   1.307359e+02
  -8.910449e+01   1.456449e+02
  -1.093806e+02   6.635100e+00
  -5.803806e+01  -3.952739e+01
  -2.356522e+01  -3.672990e+01
  -1.160316e+01   2.612377e+01
  -6.808826e+01   3.522951e+01
  -1.875441e+01  -6.895408e+01
   7.190122e+01  -6.986287e+01
   9.007605e+01  -6.532265e+01
   8.397575e+01   3.004785e+01
  -1.223640e+01   1.453894e+02
  -1.370284e+02   8.586305e+01
  -1.546165e+02  -4.903070e+01
  -1.138736e+02  -1.772544e+02
   5.909979e+01  -2.070892e+02
   2.002290e+02  -1.039437e+02
   1.967298e+02  -1.093490e-01
   7.820738e+01   1.249775e+02
  -2.867744e+01   1.145023e+02
  -5.462398e+01   8.879647e+01
  -7.096944e+01   1.039987e+02
  -5.679774e+01   6.822129e+01
  -6.313021e+01   7.359150e+01
  -5.404371e+01  -7.948885e+00
  -1.315684e+02  -1.021200e+02
  -9.351423e+00  -1.455871e+02
   6.112543e+01  -1.712526e+02
   1.034595e+02  -3.539055e+01
   1.390702e+02   7.918991e+01
   5.164442e+01   1.198185e+02
  -4.254648e+01   7.794018e+01
  -4.258040e+01  -1.029569e+01
   1.906450e+01  -3.711806e+01
   3.357741e+01  -7.838409e+01
  -3.042304e+01  -3.723608e+01
  -3.103903e+01  -3.166445e+01
  -1.029709e+01  -6.809305e+01
   1.613277e+01  -2.415570e+01
   7.682066e+01  -8.444408e+00
   1.083893e+02   2.088828e+01
   4.183560e+01   5.781481e+01
  -7.746763e+01   6.097670e+01
  -1.389370e+02   3.819374e+01
  -4.583323e+01  -3.498835e+01
   2.717632e+01  -4.233217e+01
   4.846716e+01   2.260893e-01
  -4.395490e+00   5.200922e+01
  -5.863561e+01   3.061834e+01
  -7.645099e+01  -4.018309e-01
  -5.011619e+01  -7.861094e+01
  -2.823978e+01  -6.886487e+01
  -5.709403e+01  -2.769548e+01
  -1.952181e+01   3.226060e+00
  -2.556827e+01  -6.725404e+01
   3.673677e+01  -1.406213e+02
   7.317396e+01  -1.047040e+02
   1.157820e+02   8.862816e+00
   8.982291e+01   8.916065e+01
   2.987706e+00   8.078583e+01
  -5.692013e+01   2.244852e+01
  -4.135243e+01  -3.011227e+01
   1.681790e+01  -3.414971e+01
   1.733638e+02   1.526684e+01
   4.909749e+01   1.217904e+02
   1.168333e+01   7.868944e+01
  -1.171485e+02   1.596590e+01
  -1.381004e+02  -3.746930e+01
  -1.719602e+01  -5.345219e+01
   2.463465e+01  -9.225347e+01
   2.684901e+01  -2.635497e+01
  -2.004463e+01   2.298225e+01
  -8.794662e+01  -5.561657e+01
  -3.138297e+01  -8.517182e+01
   5.147930e+01  -1.113958e+02
   1.671726e+02  -4.841704e+01
   1.365076e+02   6.617014e+01
   3.427915e+01   1.270640e+02
  -6.038211e+01   8.940152e+01
  -8.015724e+01  -3.041998e+01
  -2.480185e+01  -1.279656e+02
  -5.815521e+00  -5.089048e+01
   1.303220e+01   5.254885e+00
   2.736392e+01   5.667426e+01
   1.488566e+01   4.344122e+01
   3.520996e+01  -4.416669e+01
   5.219505e+00   2.682630e+01
   2.768878e+01   9.990779e+01
   5.682550e+01   9.304365e+01
  -1.890576e+01   3.353565e+01
  -9.572510e+01   3.519626e+01
  -1.003051e+02  -6.819676e+01
  -1.464490e+01  -5.560136e+01
   1.150002e+02  -8.312756e+00
   3.824372e+01  -1.497186e+01
  -1.575752e+01   7.344443e+00
  -3.887420e+01  -1.207818e+01
  -2.418868e+00   1.407455e+01
   6.770504e+00  -2.358357e+01
  -3.028266e+01   4.555681e+01
  -4.455793e+01   5.132056e+01
  -9.645423e+01   9.842912e+00
   3.830649e+00  -9.309510e+01
   9.508250e+01  -1.232272e+02
   1.823043e+02  -4.759329e+01
   1.472850e+02   5.952191e+01
   1.824799e+01   1.426244e+02
  -9.068569e+01   1.522070e+02
  -1.593137e+02   1.036186e+02
  -4.313380e+01  -4.876277e+01
  -6.023702e+00  -1.387359e+01
   1.076612e+01   1.089016e+01
  -3.820915e+01  -1.884548e+01
  -8.801722e+01  -8.134428e+01
  -3.100941e+01  -1.099866e+02
   4.233259e+01  -7.749567e+01
   5.533087e+01   5.302506e+00
   7.552261e+01   8.528701e+01
   1.383129e+01   8.230288e+01
  -5.968280e+01   1.094769e+01
  -1.066901e+02  -8.207959e+01
  -3.108480e+01  -2.514103e+01
   4.663903e+01  -3.279785e+01
   9.619987e+01  -7.731884e+00
   2.254147e+01   1.617031e+01
  -5.412194e+01   3.364014e+01
  -1.194094e+01   2.988185e+01
   8.029540e+00   1.556929e+01
   5.883561e+01   1.184008e+01
   4.359734e+01   1.306350e+01
  -6.148970e+01   6.817716e+01
  -1.190640e+02   4.601161e+01
  -5.437965e+01  -2.868777e+01
   4.908033e+01  -5.234427e+01
   6.116345e+01  -7.134773e+01
   4.539828e+01   1.213468e+01
  -1.987251e+01   2.146518e+01
  -1.536272e+01   3.939562e+01
  -1.782336e+01  -4.345523e+01
   3.972365e+00  -4.577101e+01
   4.458985e+01  -1.810623e+01
   6.416976e+01  -2.875369e+01
  -2.259274e+01   5.983610e+00
   1.012318e+01   1.265644e+01
  -4.259608e+00  -4.221996e+01
  -4.108870e+01  -4.891236e+01
  -4.464698e+01   6.465683e+00
   1.484082e+01   1.981065e+00
  -5.126397e+00  -9.992463e+00
  -4.157154e+01  -3.101993e+01
   2.216712e+01  -1.151442e+02
   3.643705e+01  -2.242734e+01
   5.667785e+01  -2.933134e+00
   3.272073e+01   3.642524e+01
  -9.327302e+01   7.570028e+01
  -1.127444e+02   1.686377e-01
  -5.710692e+01  -3.573637e+01
   1.914288e+01  -5.988498e+01
   6.340367e+01  -2.569474e+01
   2.133646e+01  -3.704631e+01
  -1.127364e+01   3.469693e+01
  -6.285379e+01   2.041901e+01
   5.827402e+01  -6.045076e+01
   5.732653e+01  -2.121603e+01
