
 $NMID
 id='ANONYMOUS ', fmtdat='(2E16.6)'
 volume=1.0
 tramp=1.0
 $END
   3.046653e+03  -8.192125e+01
   1.822378e+03   1.535063e+03
   5.440305e+00   2.126449e+03
  -1.292283e+03   1.010305e+03
  -9.609683e+02  -1.219128e+02
   2.192582e+02  -2.934137e+02
   4.989303e+02   1.612907e+02
   2.126983e+01   6.779763e+02
  -4.790307e+02   6.810932e+02
  -6.094704e+02  -7.105501e+00
  -3.721415e+02  -6.205796e+02
  -6.527601e+00  -5.996059e+02
   2.907519e+02  -1.485515e+02
   2.840065e+02   4.720767e+02
  -7.683604e+01   5.714956e+02
  -4.240101e+02   9.171741e+01
  -2.889497e+02  -5.137596e+02
   1.551806e+02  -6.022973e+02
   4.163441e+02  -1.786503e+02
   3.758140e+02   2.348324e+02
   6.515078e+01   3.528941e+02
  -1.615547e+02   2.445688e+02
  -2.197314e+01   3.678350e+01
   1.480592e+02   1.572193e+01
   2.475066e+02   1.366935e+02
   5.416710e+01   2.834103e+02
  -3.560105e+02   2.153673e+02
  -5.600047e+02  -1.302473e+02
  -2.832396e+02  -3.393246e+02
   3.254215e+02  -2.547803e+02
   4.864172e+02   1.039305e+02
   2.122218e+02   3.660736e+02
  -2.081168e+02   3.421336e+02
  -4.210882e+02   1.134774e+02
  -2.831079e+02  -1.796841e+02
  -6.590771e+01  -3.223512e+02
   1.389102e+02  -1.809367e+02
   6.260227e+01   9.325907e+01
  -1.207933e+02   2.044820e+02
  -2.591238e+02  -1.702146e+01
  -1.432162e+02  -3.859487e+02
   2.277967e+02  -5.032873e+02
   3.720253e+02  -5.879526e+01
   1.218482e+02   3.914510e+02
  -2.307709e+02   1.802603e+02
  -2.295285e+02  -2.868398e+02
   4.998240e+01  -4.283437e+02
   4.703463e+02  -1.390308e+02
   4.650046e+02   3.461166e+02
   1.800605e+02   4.969110e+02
  -2.630013e+02   2.124975e+02
  -5.156486e+02  -7.929250e+01
  -3.395175e+02  -2.635991e+02
   5.147729e+01  -2.845638e+02
   2.910115e+02  -8.572720e+01
   2.281726e+02   9.430403e+01
  -3.356383e+01   4.412148e+01
  -9.129778e+01  -7.352914e+01
   9.464945e+01  -1.141623e+02
   2.352866e+02   1.070927e+02
   1.463108e+02   1.864785e+02
  -1.426109e+02   2.899204e+02
  -3.038030e+02   1.022643e+02
  -2.451398e+02  -9.844191e+01
   2.028189e+01  -2.332781e+02
   2.399459e+02  -2.668445e+02
   3.071023e+02  -1.437539e+02
   1.608048e+02   1.343770e+02
   3.949936e+01   3.384281e+02
  -4.008117e+01   3.225082e+02
  -7.618254e+01   1.386152e+02
  -2.435624e+01   1.211068e+02
  -1.474712e+02   9.273391e+01
  -2.026399e+02   7.907849e+01
  -2.311071e+02  -1.103631e+02
  -1.002677e+02  -2.393136e+02
   1.014371e+02  -2.080170e+02
   1.957922e+02  -2.646978e+01
   1.071629e+02   2.180257e+02
  -2.432970e+01   2.300601e+02
  -2.375437e+02   9.413763e+01
  -2.741468e+02  -8.635176e+01
  -1.941849e+02  -2.885174e+02
   4.950125e+01  -2.496997e+02
   1.949804e+02  -1.455256e+02
   1.316148e+02  -2.212001e+01
   1.157641e+02  -6.851835e+01
   2.329530e+02  -2.817606e+01
   3.274694e+02   6.624402e+01
   2.646050e+02   3.275646e+02
  -3.089346e+01   3.954885e+02
  -3.157670e+02   3.714060e+02
  -4.553021e+02   1.184114e+02
  -2.448985e+02  -1.308951e+02
  -6.461867e+00  -2.051320e+02
   1.140491e+02  -2.247770e+02
   2.904860e+01  -2.208601e+01
  -6.439953e+01   4.410848e+01
  -1.513856e+02  -4.953651e+01
   7.354211e+00  -1.485866e+02
   1.202244e+02  -1.350654e+02
   1.033825e+02   5.455587e+01
  -2.944729e+00   1.269915e+02
  -1.068643e+02   4.828056e+01
  -1.847509e+02  -2.227151e+02
   1.692352e+01  -3.721200e+02
   2.130376e+02  -1.978361e+02
   3.086621e+02   4.910354e+01
   2.448702e+02   2.003581e+02
   5.931341e+01   2.176328e+02
  -1.356902e+02   1.205380e+02
  -1.820565e+02  -2.677000e+01
  -2.073682e+01  -4.558888e+01
   7.129636e+01   5.923015e+01
   1.847095e+01   1.210519e+02
  -1.134335e+02   4.872869e+01
  -1.155650e+02  -1.533528e+01
  -6.439473e+01  -1.520719e+01
   7.537008e+01   3.141076e+01
   3.740306e+01   6.096346e+01
  -1.183442e+02   4.822375e+01
  -2.765901e+02  -2.951756e+00
  -2.373529e+02  -1.506865e+02
  -5.588298e+01  -2.341687e+02
   1.884150e+02  -2.404426e+02
   2.609527e+02  -6.637753e+01
   1.326539e+02   5.160701e+01
   1.176378e+01   5.612233e+01
  -1.039332e+02  -1.789708e+01
   1.867419e+01  -6.261985e+01
   1.939984e+02  -2.515778e+01
   1.787524e+02   7.649179e+01
   7.982315e+01   1.489343e+02
  -7.381913e+01   1.547405e+02
  -1.069874e+02   3.885694e+01
  -4.463061e+01  -3.480140e+01
   7.166486e+01   2.945866e+01
   1.205995e+01   7.351189e+01
  -8.755747e+01   9.476681e+01
  -2.031275e+02   3.271068e+01
  -1.861284e+02  -1.044130e+02
  -3.751580e+01  -1.981885e+02
   1.339470e+02  -1.367737e+02
   1.718101e+02  -2.150900e+01
   4.792962e+01   1.252696e+02
  -8.135352e+01   4.985001e+01
  -9.657815e+01   3.673176e+01
   1.406679e+00  -3.816837e+01
   1.247771e+01  -4.777724e+01
  -7.767903e+00   5.231029e+01
  -8.014389e+01  -4.561364e+01
  -9.044157e+01  -1.014931e+02
  -1.862930e+01  -1.797591e+02
   7.926907e+01  -1.264174e+02
   2.386765e+02  -1.073087e+01
   1.757095e+02   1.216899e+02
   2.882944e+01   2.173854e+02
  -1.355481e+02   1.261331e+02
  -1.238114e+02   3.964951e+01
  -5.282788e+01  -4.225208e+01
  -1.392397e+01   1.320387e+01
  -4.996897e+01   2.326254e+01
  -9.364658e+01   2.921753e+01
  -1.088328e+02  -3.453121e+01
   9.894964e+01  -1.096393e+02
   9.535275e+01  -7.354047e+01
   9.964167e+01   5.255865e+01
  -2.084322e+01   1.259432e+02
  -1.245055e+02   6.512255e+01
  -1.394351e+02  -6.465050e+01
  -9.176403e+01  -1.873062e+02
   7.332322e+01  -2.063053e+02
   2.448409e+02  -5.641874e+01
   2.216783e+02   5.852764e+01
   9.647989e+01   1.638392e+02
  -5.772834e+01   1.395497e+02
  -8.881468e+01   3.841235e+01
  -5.926267e+01   6.160496e+01
  -3.616855e+01   7.739357e+01
  -3.574338e+01   1.270190e+02
  -8.995048e+01   6.470610e+00
  -9.182080e+01  -1.444908e+02
  -5.591708e+01  -2.083550e+02
   9.192670e+01  -1.413734e+02
   1.410340e+02  -1.349462e+01
   1.415453e+02   9.079722e+01
   1.202939e+01   1.409808e+02
  -2.828432e+01   9.384995e+01
  -3.227058e+01  -3.160612e+01
  -9.580698e+00  -6.801816e+01
   4.430390e+01  -2.924503e+01
  -2.172192e+01  -3.436964e+01
  -7.896216e+01  -2.881587e+01
  -8.557339e+01  -5.283444e+01
   7.595593e+01   1.859535e+01
   1.320877e+02  -1.926938e+01
   1.358315e+02   3.629878e+01
   6.008453e+01   7.945784e+01
  -8.600460e+01   4.826215e+01
  -1.071486e+02   3.378650e+01
  -5.208902e+01   4.389221e+00
   2.596732e+01  -4.656818e+01
   5.722542e+01   2.738269e+01
   3.171693e+01   3.606252e+01
  -1.091078e+02   8.316053e+01
  -4.469921e+01  -1.986442e+00
  -4.127171e+01  -7.439699e+01
  -4.094517e+01  -2.587041e+01
  -6.887829e+01   3.441346e+01
  -5.501356e+01   8.246396e+00
  -9.239025e+01  -3.296713e+01
   5.298869e+01  -1.227252e+02
   1.249211e+02  -1.688897e+02
   1.363182e+02  -1.051116e+01
   1.112407e+02   6.503967e+01
  -6.700542e+00   1.150296e+02
  -5.472501e+01   6.069687e+01
  -3.503976e+01  -3.620022e+01
   2.618199e+01  -1.546529e+01
   1.339449e+02   2.305206e+01
   6.052170e+01   9.118072e+01
  -6.517216e+01   8.417966e+01
  -1.828716e+02   3.374893e+01
  -1.361552e+02  -6.590700e+01
  -3.873956e+01  -8.476498e+01
   6.251147e+01  -7.386186e+01
   5.132448e+01   2.541868e+01
  -3.778624e+00   4.391208e+01
  -1.020991e+02  -2.379920e+01
  -3.329243e+01  -1.279195e+02
   7.296004e+01  -1.609648e+02
   1.001537e+02  -2.210935e+01
   1.030193e+02   7.490822e+01
   1.842851e+01   1.236703e+02
  -7.292874e+01   1.353852e+02
  -9.798321e+01  -2.588799e+01
  -5.490106e+01  -7.951481e+01
  -1.259895e+01  -8.710313e+01
   2.382128e+01  -3.696390e+01
   3.024197e+01   1.617108e+01
  -1.492498e+00  -7.063401e+00
   8.887725e+00  -3.086568e+01
   3.873394e+01  -1.267329e+01
   4.302985e+01   5.019407e+01
   7.636696e+00   5.676503e+01
  -5.921716e+01   4.276386e+01
  -1.312169e+02  -5.554414e+01
  -1.006335e+02  -5.112759e+01
  -3.776926e+01  -8.385214e+01
   7.486845e+01  -5.859478e+01
   6.991468e+01  -1.936491e+01
   3.061502e+01   3.027780e+01
  -3.871515e+01  -2.691025e+01
  -1.950979e+01   2.918614e+01
   4.580060e+01   7.879028e+00
  -1.779368e+01   3.328744e+00
  -5.310175e+01  -1.078279e+01
  -5.731686e+01  -3.918215e+01
   1.314496e+01  -6.448254e+01
   9.549186e+01  -1.486683e+02
   1.892606e+02  -6.137477e+01
   1.194288e+02   5.133209e+01
   2.538975e+01   2.024086e+02
  -4.286731e+01   1.436714e+02
  -1.140216e+02   1.182295e+02
  -8.995677e+01  -5.877745e-02
  -1.652186e+01  -7.163937e+01
   1.252882e+01   2.631327e+00
   4.181578e+00   3.924950e+00
  -2.619447e+01  -2.710113e+01
  -6.513824e+00  -8.970366e+01
   2.482864e+01  -1.142894e+02
   4.291520e+01  -9.926981e+00
   8.413160e+01   2.491487e+01
   4.992491e+01   6.498765e+01
  -4.558506e+01   1.276143e+01
  -1.020610e+02  -4.903737e+01
  -5.052669e+01  -1.176363e+02
   3.427646e+01  -3.267569e+01
   9.685849e+01   4.146743e+01
   5.324754e+01   4.243335e+01
  -5.656303e+01   7.100648e+01
  -2.136100e+01   3.327401e+01
   5.535170e+01  -2.551065e+01
   5.347663e+01  -1.915718e+01
   8.035184e+00   2.731398e+01
  -1.137192e+02   4.455162e+01
  -1.188962e+02   3.927050e+01
  -8.365816e+01   2.646774e+01
  -1.393571e+00  -1.026277e+02
   3.467277e+01  -5.912937e+01
   4.536505e+01  -1.676730e+00
   5.001007e+01   3.154607e+01
  -4.878723e+01   3.696026e+01
  -4.761209e+00  -6.494195e+00
  -4.052284e+01  -2.876007e+01
   2.169503e+01  -1.487826e+01
   4.334401e+01   8.859111e+00
   5.647883e+01   6.785616e+01
   5.581470e+01   1.289295e+01
  -3.644063e+01   2.089373e+01
  -1.693118e+01  -3.733794e+01
   1.138527e+01   4.595559e+01
   1.736811e+01   4.233508e+01
  -6.027693e+01   6.285914e+00
  -5.667819e+01   6.918152e+00
   6.812854e-02  -4.076787e+01
   2.475708e+01  -1.145789e+01
   6.048541e+01   5.297142e+00
   1.932370e+01   4.912523e+01
  -6.280142e+01   4.583301e+01
  -7.929830e+01   2.511575e+01
  -3.490317e+01  -3.803863e+01
   1.266325e+01  -6.180303e+01
   2.557020e+01  -4.825574e+01
  -2.702861e+00   1.913596e+01
  -1.592407e+01  -5.154938e-01
  -5.441871e+01   1.766940e+01
  -4.964637e+00  -3.514095e+01
   5.673857e+01  -5.291956e+00
