
 $NMID
 id='ANONYMOUS ', fmtdat='(2E16.6)'
 volume=1.0
 tramp=1.0
 $END
   2.893919e+03  -3.203949e+01
   1.868450e+03   1.242305e+03
   1.776210e+01   1.624394e+03
  -9.153994e+02   1.005944e+03
  -8.424495e+02   3.846369e+02
  -2.034245e+02  -9.287139e+01
   1.091954e+02  -1.550187e+01
   5.773418e+01   4.064667e+02
  -2.923327e+02   5.000539e+02
  -4.107079e+02   1.173860e+02
  -4.124984e+02  -2.984585e+02
  -1.446764e+02  -5.370165e+02
   1.440736e+02  -1.457842e+02
   1.681974e+02   2.545779e+02
  -5.984151e+01   4.370571e+02
  -2.794158e+02   1.002050e+02
  -2.772343e+02  -4.052670e+02
   1.354723e+02  -5.489178e+02
   3.182117e+02  -2.732212e+02
   3.724138e+02   1.059169e+02
   8.989519e+01   2.476302e+02
  -7.248741e+01   2.198153e+02
  -1.277955e+01   8.034627e+01
   1.812215e+02   1.254678e+02
   2.289092e+02   2.398819e+02
  -7.040582e+01   2.038932e+02
  -3.778186e+02   7.082542e+01
  -4.277593e+02  -1.912089e+02
  -1.913780e+02  -2.050868e+02
   2.712419e+02  -8.889980e+01
   3.790372e+02   8.386900e+01
   1.303812e+02   2.818227e+02
  -1.691790e+02   2.668057e+02
  -3.666417e+02   9.911557e+01
  -2.416819e+02  -1.085515e+02
  -1.618951e+02  -2.842959e+02
  -4.350168e+01  -1.853822e+02
  -8.369765e+01   1.033911e+01
  -1.163704e+02   9.836108e+01
  -1.175089e+02  -9.727847e+01
   4.168452e+01  -4.260165e+02
   1.957396e+02  -3.322654e+02
   2.560654e+02  -2.129791e+01
   5.944127e+01   2.747589e+02
  -1.078891e+02   4.874616e+01
  -1.128579e+02  -1.798685e+02
   9.867178e+01  -2.783290e+02
   3.283479e+02  -6.205952e+01
   4.002300e+02   3.193535e+02
   1.817747e+02   3.877688e+02
  -2.354019e+02   2.007014e+02
  -4.168310e+02  -6.327351e+01
  -2.655660e+02  -2.343321e+02
   3.804382e+01  -1.269640e+02
   1.818095e+02  -4.589381e+01
   1.467338e+02  -6.543877e+01
   1.668113e+01   1.234192e+01
  -4.891586e+01  -3.012557e+01
   4.921130e+01  -5.514079e+01
   1.798756e+02   6.224406e+01
   1.073725e+02   1.636483e+02
  -1.915120e+02   1.694472e+02
  -2.694845e+02   1.765437e+02
  -2.316233e+02  -6.406948e+01
   5.361368e+01  -3.306305e+02
   2.062735e+02  -2.952395e+02
   3.167122e+02  -1.448801e+02
   2.082302e+02   1.357632e+02
   8.577993e+01   2.683010e+02
   2.328077e+01   2.188996e+02
   8.942873e+01   1.870288e+02
  -3.227821e+00   1.376131e+02
  -1.434105e+02   1.134368e+02
  -2.182136e+02   4.961621e+00
  -2.008448e+02  -1.229468e+02
  -3.645410e+01  -2.417443e+02
   1.113927e+02  -1.300393e+02
   1.330249e+02   7.609076e+01
   1.152321e+02   2.005189e+02
  -4.791395e+01   1.866704e+02
  -2.004891e+02   3.635639e+01
  -2.919779e+02  -9.657817e+01
  -1.652193e+02  -2.467722e+02
  -1.842791e+01  -2.740916e+02
   8.407751e+01  -1.335690e+02
   1.013484e+02  -7.673164e+01
   1.316312e+02  -1.022418e+02
   2.339575e+02  -6.155609e+00
   3.789499e+02   8.825857e+01
   2.773042e+02   3.011760e+02
  -2.098051e+01   4.031079e+02
  -3.179459e+02   3.199145e+02
  -3.994548e+02   1.451561e+02
  -2.378784e+02  -1.312713e+02
   3.638024e+01  -1.909621e+02
   5.116853e+01  -1.739266e+02
  -7.787224e+00  -4.503099e+01
  -6.631272e+01   2.116074e+01
  -3.917190e+01  -3.480233e+01
   2.451533e+01  -8.814236e+01
   7.359803e+01  -2.947546e+01
   1.130026e+02   4.328366e+01
  -3.288332e+01   1.081326e+02
  -1.216192e+02  -5.569992e+01
  -1.406043e+02  -2.277327e+02
   2.042096e+01  -3.012604e+02
   1.856871e+02  -1.860688e+02
   3.263249e+02   2.047902e+01
   2.296618e+02   2.682700e+02
   2.234628e+01   2.336708e+02
  -6.174585e+01   1.437444e+02
  -1.634356e+02   2.331261e+01
   2.087315e+01  -6.858324e+00
   4.222624e+01   7.385174e+01
   4.410823e+01   8.142609e+01
  -4.675419e+01   5.525181e+01
  -1.484814e+02  -2.873657e+01
  -5.657534e+00   9.822021e+00
   5.341980e+01   7.016965e+00
   1.120291e+01   3.398780e+01
  -1.338459e+02   9.908178e+01
  -2.911130e+02  -1.773378e+01
  -2.020079e+02  -1.619165e+02
   2.887141e+01  -2.770660e+02
   1.677519e+02  -1.538953e+02
   2.418860e+02  -8.160325e+01
   9.024321e+01   3.090852e+01
  -5.005494e+01   4.023919e+01
  -1.778727e+01  -3.594109e+01
   9.476636e+01  -7.863421e+01
   1.540377e+02   1.362296e+01
   1.378952e+02   4.964514e+01
   5.039698e+01   1.626057e+02
  -6.339293e+01   1.338915e+02
  -9.738871e+01  -2.069828e+01
  -5.317801e+00  -3.170848e+01
   6.202188e+01  -6.318058e+00
   4.052970e+01   1.096248e+02
  -7.774872e+01   1.401196e+02
  -1.792642e+02  -4.436336e+01
  -1.415449e+02  -1.044026e+02
  -2.570077e+01  -1.638293e+02
   1.267005e+02  -1.327352e+02
   1.372509e+02   3.051788e+00
   9.318107e+00   1.067955e+02
  -1.096720e+02   8.787493e+01
  -5.492703e+01   4.635560e+01
  -1.735296e+01   1.221414e+01
   4.093729e+01  -1.135815e+01
  -2.014951e+01   3.973937e+01
  -7.632400e+01  -1.426281e+01
  -8.938471e+01  -7.624127e+01
  -1.342790e+01  -1.615481e+02
   1.735472e+02  -9.591571e+01
   1.871231e+02  -3.584256e+01
   1.754762e+02   1.347649e+02
   8.316796e+00   2.021555e+02
  -1.079321e+02   1.295473e+02
  -9.751056e+01   4.300326e+01
  -6.574141e+01  -4.481362e+01
  -6.687690e+01  -3.942688e+00
  -6.235711e+01   3.569424e+01
  -7.953436e+01   3.165234e+01
  -5.451550e+01  -4.986873e+01
   4.267723e+01  -1.175790e+02
   8.850908e+01  -7.864900e+01
   1.204906e+02   4.292146e+01
  -3.243805e+01   1.070121e+02
  -1.276247e+02   8.972696e+01
  -1.978185e+02  -7.461622e+01
  -8.954476e+01  -1.968443e+02
   5.563706e+01  -1.625921e+02
   2.365378e+02  -9.245392e+01
   1.946215e+02   7.572640e+01
   1.158651e+02   1.510496e+02
  -3.496268e+01   6.677794e+01
  -7.409132e+01   8.861276e+01
  -4.852590e+01   5.715052e+01
  -7.482535e+01   1.263794e+02
  -8.349465e+01   9.054712e+01
  -1.465313e+02  -8.665884e+01
  -1.193942e+02  -1.137423e+02
   2.171245e+01  -1.727559e+02
   1.002006e+02  -1.378421e+02
   1.412801e+02  -3.230869e+01
   8.444948e+01   1.270422e+02
   9.070735e+00   1.424427e+02
  -5.310850e+01   5.566035e+01
  -8.038293e+01  -4.217071e+00
  -4.578015e+01  -3.314470e+01
   5.235200e+01  -5.975592e+01
  -7.232619e+01  -1.477013e+00
  -1.232899e+02   1.399506e+01
  -5.852656e+01  -3.928373e+01
   8.246962e+01  -1.844720e+01
   1.546636e+02  -2.029350e+01
   9.973805e+01   9.518603e+01
  -1.814121e+01   1.553080e+02
  -1.472057e+02   8.860747e+01
  -9.726685e+01  -5.303447e+01
  -6.956153e+01  -3.451892e+01
   5.081340e+01  -1.988641e+01
   7.998682e+01   3.645172e+01
   1.965537e+00   8.998041e+01
   9.645671e-01   4.371236e+01
  -8.667250e+01  -1.237299e+01
  -1.893461e+01  -6.663731e+01
  -7.372058e+00  -3.250211e+01
  -1.917541e+01  -8.031892e+00
  -4.905510e+01  -1.723399e+01
  -7.612796e+01  -6.578173e+01
  -2.598292e+01  -1.558598e+02
   1.246201e+02  -1.252680e+02
   1.707724e+02  -2.757522e+01
   1.100622e+02   7.550376e+01
  -3.610396e+00   1.071694e+02
  -4.582038e+01   6.921860e+01
  -5.048744e+01  -7.480771e+00
   1.231366e+01  -5.977912e+01
   1.255205e+02   1.115768e+01
   1.162326e+02   7.616602e+01
  -8.464149e+01   1.052603e+02
  -1.401590e+02   3.854441e+01
  -8.573609e+01  -4.828624e+01
  -4.912539e+01  -7.212319e+01
   5.354069e+01  -8.061508e+01
   8.816616e+01  -2.694524e+01
  -4.763227e+01   6.882694e+01
  -7.410402e+01  -2.350554e+01
  -4.072394e+01  -1.220716e+02
   4.860801e+01  -1.238846e+02
   9.840836e+01  -7.558984e+01
   1.635751e+02   4.375997e+01
   1.497090e+01   1.507153e+02
  -3.409817e+01   1.129662e+02
  -8.495204e+01   3.681204e+00
  -3.091377e+01  -1.054483e+02
   4.164534e+01  -1.554475e+02
   5.506268e+01   1.652939e+01
   3.777820e+01   6.329255e+01
   2.120146e+00  -3.153845e+01
   3.221220e+01   6.964171e+00
   7.103967e+01   3.669095e+01
   6.747152e+01   9.241508e+01
  -6.808230e+00   1.049488e+02
  -8.606440e+01   2.398182e+01
  -1.008127e+02  -2.957011e+01
  -1.441976e+02  -8.469645e+01
  -2.796617e+01  -7.261118e+01
   7.285907e+01  -5.291566e+01
   9.119125e+01  -3.592765e+01
   1.958641e+01   3.182470e+01
  -1.078867e+02   1.829391e+01
  -1.813750e+01  -3.744747e+01
   5.536723e+01   1.422836e+01
   3.499209e+00   3.398182e+01
  -7.984097e+01   1.368703e+01
  -8.132130e+01  -8.401795e+00
   2.035514e-01  -9.489576e+01
   8.556498e+01  -1.343433e+02
   1.700352e+02  -3.892767e+01
   1.349756e+02   6.248952e+01
   5.621814e+01   1.429291e+02
  -9.862289e+01   8.624226e+01
  -1.146035e+02   2.778415e+01
  -5.417409e+01  -1.942108e+01
   1.649930e+01  -1.806280e+01
   1.745844e+01   3.087432e+01
   5.082461e+00   3.480934e+00
   4.344569e+00  -6.429083e+01
  -7.183258e+00  -9.832307e+01
   2.737937e+01  -6.168094e+01
   8.923277e+01   3.413382e+01
   1.003585e+02   5.396287e+01
  -2.683714e-01   8.162106e+01
  -6.267063e+01   1.292008e+01
  -9.155746e+01  -5.965096e+01
  -4.876645e+01  -1.297095e+02
   1.910651e+01  -3.374472e+01
   7.329707e+01  -2.922538e+00
   1.368512e+01   4.058804e+01
  -2.836921e+01   4.035933e+01
  -5.510462e+01  -2.871642e+00
   3.674435e+01   1.022859e+01
   3.611056e+01  -2.383891e+01
  -3.067245e+01   2.561557e+01
  -5.509638e+01   8.391391e+01
  -1.154296e+02   4.678304e+01
  -6.367480e+01  -4.664618e+01
   2.302856e+01  -7.240074e+01
   6.083660e+01  -9.083475e+01
   4.131752e+01  -2.190120e+01
  -7.706194e+00   4.210075e+01
  -2.558889e+01   4.864575e+01
  -2.179331e+01  -2.600732e+01
  -1.678109e+01  -2.313117e+01
   1.604101e+01  -6.721923e+01
   4.141296e+01  -2.784923e+00
   8.327096e+00   4.454834e+01
   3.176255e+01   1.430995e+00
  -1.271980e+01  -2.397622e+01
   6.885417e+00  -4.690920e+01
   1.865592e+01   6.105804e+01
   9.228632e+00   2.389787e+01
  -4.185837e+01   3.243498e+01
  -6.009870e+01  -5.724713e+01
  -2.331329e+01  -3.139189e+01
  -6.955653e+00  -4.060724e+01
   7.292839e+01   2.309446e+00
  -5.864205e+00   9.515438e+01
  -7.603000e+01   2.227738e+01
  -9.057181e+01  -2.911358e+00
  -4.212320e+01  -2.703901e+01
   2.691773e+01  -1.268005e+00
   7.147339e+01  -3.907052e+01
   1.975677e+01   3.019921e+01
  -3.347406e+01  -3.854481e-01
  -1.932083e+01   4.126556e+01
   3.163087e+01   2.139314e+01
   9.478037e+01   2.758481e+01
