
 $NMID
 id='ANONYMOUS ', fmtdat='(2E16.6)'
 volume=1.0
 tramp=1.0
 $END
   2.459719e+03   1.872765e+02
   1.840429e+03   1.272122e+03
  -1.970072e+02   1.598298e+03
  -9.668320e+02   8.534055e+02
  -7.448582e+02   2.019558e+02
  -8.822428e+01  -1.331537e+02
   2.203697e+02   1.401389e+02
  -3.004580e-01   3.326298e+02
  -3.592842e+02   4.040006e+02
  -5.303911e+02   4.341140e+01
  -3.281276e+02  -3.008883e+02
  -2.994855e+01  -5.380478e+02
   2.314494e+02  -1.340013e+02
   1.840444e+02   3.354649e+02
  -7.046433e+01   4.144946e+02
  -2.830298e+02   4.630798e+01
  -2.638460e+02  -3.852321e+02
   7.187776e+01  -5.094470e+02
   3.790177e+02  -2.884259e+02
   3.864987e+02   1.098223e+02
   1.411948e+02   2.175061e+02
  -8.216009e+01   2.017238e+02
   6.112471e+00   7.313128e+01
   1.652464e+02   1.879442e+02
   1.874221e+02   3.094984e+02
  -3.491779e+01   3.046269e+02
  -3.554765e+02   1.316461e+02
  -4.638387e+02  -9.494234e+01
  -1.701084e+02  -1.945176e+02
   2.436692e+02  -1.217496e+02
   3.469691e+02   1.159571e+02
   1.183995e+02   2.402734e+02
  -1.964424e+02   2.496779e+02
  -3.575165e+02   9.654823e+01
  -2.149312e+02  -1.017829e+02
  -6.288115e+01  -2.397200e+02
   1.524128e+01  -1.261802e+02
  -4.844424e+01   4.076488e+01
  -1.234154e+02   1.038937e+02
  -1.613605e+02  -7.285650e+01
  -2.720207e+01  -2.883338e+02
   1.769490e+02  -3.298098e+02
   2.790038e+02  -4.636130e+01
   7.751931e+01   2.674487e+02
  -1.605037e+02   7.431549e+01
  -7.229396e+01  -2.183685e+02
   1.105282e+02  -3.064915e+02
   3.640165e+02  -4.510128e+01
   4.177818e+02   3.037820e+02
   1.216668e+02   3.554610e+02
  -2.206498e+02   2.388731e+02
  -3.671146e+02  -8.081944e+01
  -2.671372e+02  -1.530168e+02
  -8.714352e+00  -1.528010e+02
   1.971473e+02  -1.184890e+02
   1.651972e+02   1.494133e+01
  -5.556592e+00   2.656202e+01
  -5.066635e+01  -3.834344e+01
   6.826464e+01  -1.722779e+01
   1.422943e+02   1.346887e+01
   1.003561e+02   1.536090e+02
  -1.092477e+02   1.880847e+02
  -2.780524e+02   1.507469e+02
  -2.587282e+02  -7.628181e+01
   2.454991e+01  -2.157642e+02
   2.694130e+02  -2.736563e+02
   2.819471e+02  -7.964422e+01
   1.589195e+02   1.473948e+02
   1.010342e+02   2.734939e+02
   4.282899e+01   2.427443e+02
   5.687212e+00   1.590900e+02
  -1.732775e+01   6.614984e+01
  -1.237067e+02   1.038132e+02
  -2.655535e+02   3.627919e+01
  -1.951462e+02  -1.178845e+02
  -8.742081e+01  -2.059529e+02
   4.965780e+01  -1.205910e+02
   1.394376e+02  -6.082440e+00
   1.193703e+02   1.792461e+02
  -6.170452e+01   1.944901e+02
  -2.127727e+02   1.556044e+01
  -2.484112e+02  -1.437010e+02
  -1.654321e+02  -2.522157e+02
   4.575959e+01  -2.337041e+02
   1.237638e+02  -1.084705e+02
   1.471964e+02  -1.135619e+02
   1.278902e+02  -8.962745e+01
   2.251945e+02  -1.878067e+01
   3.767601e+02   1.071181e+02
   2.638078e+02   2.459561e+02
  -2.341687e+01   3.476008e+02
  -3.451575e+02   2.812309e+02
  -3.581574e+02   1.261340e+02
  -2.315980e+02  -1.219531e+02
   4.478133e+01  -1.816059e+02
   9.814575e+01  -2.063388e+02
  -3.565433e+01  -6.471140e+01
  -4.791226e+01   3.768118e+01
  -7.063262e+01  -5.165827e+01
  -3.364276e-01  -1.281648e+02
   9.817658e+01  -7.232166e+01
   3.346635e+01   1.313961e+01
  -8.146710e+01   1.109817e+02
  -1.127105e+02   2.672651e+01
  -1.423240e+02  -1.808016e+02
   4.633977e+01  -2.607192e+02
   1.822784e+02  -2.217855e+02
   2.702065e+02   4.061423e+01
   1.938265e+02   2.818202e+02
   2.488928e+01   2.599264e+02
  -1.201477e+02   1.630277e+02
  -5.891609e+01   1.118827e+01
  -1.735610e+01  -1.060187e+01
   4.610681e+01   8.162670e+01
   4.189771e+00   8.799369e+01
  -1.116269e+02   6.451661e+01
  -8.151192e+01  -3.378252e+01
  -4.362283e+01  -4.954888e+01
   7.197193e+01   2.969803e+01
   9.257754e+00   1.315304e+02
  -1.060670e+02   5.045140e+01
  -2.348076e+02  -2.641603e+01
  -1.789791e+02  -1.472438e+02
   4.945528e-01  -1.825268e+02
   1.665613e+02  -1.917797e+02
   2.332968e+02  -1.004629e+02
   1.622586e+02   1.918420e+01
  -2.449651e+01   2.482087e+01
  -7.401745e+01   1.066076e+00
   3.254095e+01  -7.659190e+01
   1.593102e+02  -1.946664e+01
   1.641383e+02   9.252562e+01
   6.209177e+01   1.666660e+02
  -8.583170e+01   1.027827e+02
  -7.941341e+01   1.203390e+01
  -4.724731e+01  -5.935061e+01
  -8.589199e+00  -1.867432e+00
   4.381303e+01   1.271535e+02
  -1.166907e+02   8.172556e+01
  -1.739074e+02   3.783062e+01
  -1.324733e+02  -1.064430e+02
  -3.925743e+01  -1.878646e+02
   1.360062e+02  -1.235508e+02
   1.028328e+02  -1.689880e+01
   5.939952e+01   5.517077e+01
  -4.408647e+01   6.972003e+01
  -7.639590e+01   2.073707e+01
   2.573910e+01  -7.296609e+01
  -1.440020e+01   4.411913e+00
   1.908391e+01   3.823183e+00
  -9.230520e+01  -2.616694e+01
  -1.130369e+02  -7.718381e+01
   2.823779e+01  -1.793717e+02
   1.073366e+02  -1.006561e+02
   1.646970e+02  -1.237217e+01
   2.023576e+02   1.370116e+02
   6.078263e+01   1.982846e+02
  -9.073366e+01   1.420590e+02
  -1.345283e+02   4.588256e+01
  -7.461886e+01  -9.750190e+00
  -1.803008e+01  -2.464242e+01
  -7.057355e+01   3.670109e+00
  -8.090850e+01  -3.078873e+00
  -3.743912e+01  -2.202286e+01
   6.118137e+01  -6.723547e+01
   1.193468e+02  -5.696748e+01
   1.094464e+02   3.587330e+01
   3.805876e+01   9.922737e+01
  -1.401735e+02   7.889249e+01
  -1.526984e+02  -1.145561e+01
  -1.235017e+02  -1.865868e+02
   8.730801e+01  -1.958639e+02
   2.461243e+02  -3.721910e+01
   1.937119e+02   7.668840e+01
   7.395480e+01   1.476126e+02
  -3.566315e+01   1.030945e+02
  -6.843142e+01   4.004937e+01
  -8.192841e+01   1.455281e+01
  -3.996573e+01   1.132568e+02
  -6.268003e+01   5.951155e+01
  -1.324540e+02   2.808119e+01
  -8.890828e+01  -1.004132e+02
  -7.451933e+01  -2.021929e+02
   5.348108e+01  -1.421335e+02
   1.627199e+02  -3.762026e+00
   1.272994e+02   1.438232e+02
  -4.044200e+00   1.336353e+02
  -4.197140e+01   1.983378e+01
  -4.927010e+01  -6.667278e+00
  -7.003815e+00  -6.313661e+01
   2.904121e+01   5.317500e+00
   3.131012e+01  -6.505729e+00
  -6.782713e+01  -2.347861e+01
  -8.744453e+01   1.558406e+01
   2.133505e+01  -5.362330e+01
   1.552905e+02  -3.500538e+01
   8.725159e+01   4.473690e+01
  -8.105114e-01   8.982782e+01
  -9.316854e+01   5.379904e+01
  -1.391439e+02   1.877447e+01
  -1.532955e+01  -3.936619e+01
   5.897241e+01  -4.451729e+01
   4.676304e+01  -2.370951e+01
   1.720939e+01   7.238689e+01
  -5.073576e+01   2.523055e+01
  -8.793458e+01   4.584920e+00
  -2.453140e+01  -4.904389e+01
  -6.757237e+01  -4.831830e+01
  -4.435583e+01  -3.033361e+01
  -7.684756e+01   2.806436e+01
  -2.156101e+01  -6.917984e+01
   7.613287e+01  -1.492735e+02
   9.165382e+01  -1.199448e+02
   1.640881e+02  -5.912444e+01
   8.306827e+01   9.669278e+01
  -5.977953e+00   1.081322e+02
  -9.833185e+01   9.434852e+01
  -7.156912e+01  -6.171300e+00
   5.050153e+01   2.980976e+01
   1.122331e+02   8.542288e+00
   3.147573e+01   4.873734e+01
  -5.602044e+01   9.630310e+01
  -1.988728e+02   2.009782e+01
  -1.247677e+02   3.108120e+01
  -5.710066e+01  -7.859605e+01
   5.009031e+01  -6.848927e+01
   5.552503e+01   9.125526e+00
  -3.754430e+01   1.094056e+01
  -6.128944e+01   3.513865e+01
  -8.581435e+00  -8.276264e+01
   4.112276e+00  -1.489137e+02
   1.016246e+02  -6.237660e+01
   8.419533e+01   3.206002e+01
   5.315551e+01   1.375095e+02
  -3.945899e+01   1.060994e+02
  -6.988070e+01  -1.985698e+01
  -4.121487e+01  -1.171564e+02
  -4.349955e+01  -6.504077e+01
   3.123689e+01  -3.983163e+01
   2.800900e+01   3.956694e+01
   1.011758e+00  -2.549928e+01
   6.153838e+00  -5.370519e+00
   6.855070e+01   4.249168e+01
   8.993741e+01   1.006460e+02
   4.690628e+01   4.073086e+01
  -4.855242e+01   1.272713e+01
  -1.065041e+02  -3.017236e+01
  -1.532356e+02  -1.723187e+01
   5.968286e+00  -2.534546e+01
   7.746502e+01  -4.084022e+01
   1.124284e+02   3.005036e+00
   2.978883e+01   4.399822e+01
  -1.363759e+00  -6.030377e+00
  -4.392725e+01   1.402023e+01
   6.174496e+00   4.682638e+00
  -2.109223e+01  -2.224647e+01
  -5.535222e+01  -9.272444e+00
  -3.694362e+01   2.078523e+01
  -3.146395e+01  -5.860030e+01
   1.265701e+02  -1.014415e+02
   1.493930e+02  -4.509156e+01
   1.365801e+02   2.471126e+01
   5.435461e+01   1.101504e+02
  -4.164666e+01   1.595270e+02
  -9.776489e+01   2.041288e+01
  -8.506415e+01  -9.184669e+00
  -2.235922e+00  -3.615751e+01
  -3.143202e+01  -1.809515e+00
  -3.731071e+01  -1.294895e+01
  -2.644570e+01  -3.322515e+00
  -3.930231e+01  -9.884438e+01
   2.196876e+01  -7.897499e+01
   4.683701e+01  -4.524499e+00
   3.367132e+01   9.003966e+01
   3.274981e+01   7.707710e+01
  -5.419006e+01   8.697553e+01
  -8.376343e+01  -7.191335e+01
   9.006325e+00  -1.114702e+02
   6.061831e+01  -5.775274e+01
   8.581328e+01   4.138296e+01
   5.730343e+01   5.196202e+01
  -1.545876e+01   3.286385e+01
  -7.537660e+01  -1.097109e+00
   2.086407e+01  -4.825142e+00
   1.704049e+01  -1.596649e+01
   4.378762e+01  -6.754224e+00
  -6.489774e+01   7.533974e+01
  -1.266095e+02   2.679893e+01
  -6.240673e+01   3.519606e+01
   1.750879e+01  -3.925993e+01
   2.084903e+01  -8.183131e+01
   1.345503e+01  -1.312116e+01
   2.656099e+01   2.446436e+01
  -4.328075e+01   2.313312e+01
  -2.630772e+01  -4.404390e-01
  -4.050014e+00  -6.573211e+00
   6.050537e+00  -6.628150e+01
   5.464183e+00   5.848133e-01
   3.754130e+01   2.238582e+01
  -4.168663e+01   1.606411e+01
  -4.503038e+01  -1.242389e+01
  -5.884172e+01  -1.246823e+01
  -3.221447e+01  -3.780405e+00
   3.153591e+01   4.994828e+01
  -2.269543e+01   1.787507e+01
  -2.612195e+01   3.089744e+00
  -4.142861e+01  -2.800215e+01
   2.082324e+01  -2.844780e+01
   3.317014e+01   9.756993e+00
   3.886495e+01   8.942885e+01
  -3.484775e+01   2.385040e+01
  -7.222279e+01  -3.159764e+01
  -7.060466e+01  -5.784572e+01
   1.234832e+01  -1.221286e+01
   2.501915e+00  -4.990945e+01
   2.526308e+01  -3.565479e+00
  -4.067606e+00   1.971221e+00
  -4.800465e+01  -2.542802e+01
   1.636794e+01  -3.281875e+01
   1.019223e+02  -2.220437e+01
