
 $NMID
 id='ANONYMOUS ', fmtdat='(2E16.6)'
 volume=1.0
 tramp=1.0
 $END
   2.636655e+03   2.169741e+01
   1.981118e+03   1.215783e+03
   9.163180e+01   1.378035e+03
  -8.735483e+02   1.153327e+03
  -7.590768e+02   3.223576e+02
  -2.534941e+02  -1.698350e+02
   1.216661e+02  -2.640917e+01
   6.001468e+01   2.645201e+02
  -2.529682e+02   4.431499e+02
  -4.878522e+02   2.204882e+02
  -3.708424e+02  -3.186571e+02
  -8.186332e+01  -5.146044e+02
   2.058190e+02  -1.988860e+02
   1.919603e+02   2.801376e+02
  -7.142206e+01   4.319166e+02
  -3.083041e+02   1.039922e+02
  -2.366303e+02  -4.280639e+02
   6.251050e+01  -5.754666e+02
   3.653872e+02  -2.626674e+02
   3.223893e+02   6.397120e+01
   1.525560e+02   2.594997e+02
  -9.657198e+01   2.121259e+02
  -5.634493e+01   1.355661e+01
   1.853844e+02   1.981821e+02
   2.199400e+02   2.742176e+02
  -5.375571e+01   3.127209e+02
  -4.133930e+02   4.630955e+01
  -4.856925e+02  -2.266653e+02
  -1.348618e+02  -2.795920e+02
   2.905764e+02  -7.304953e+01
   3.744071e+02   1.378014e+02
   1.191182e+02   3.456965e+02
  -2.362670e+02   2.493551e+02
  -3.222875e+02   1.524518e+02
  -2.430820e+02  -8.570155e+01
  -9.604522e+01  -2.032979e+02
  -6.214654e+01  -1.269133e+02
  -3.855729e+01   2.186517e+01
  -2.006760e+02   6.581308e+01
  -1.344519e+02  -1.372122e+02
   3.289533e+01  -3.485959e+02
   1.922102e+02  -3.280603e+02
   2.499850e+02  -2.368651e+01
   1.041783e+02   2.564875e+02
  -8.643452e+01   9.539744e+01
  -9.668846e+01  -2.767384e+02
   1.279515e+02  -2.661125e+02
   3.613709e+02   2.682089e+01
   3.450667e+02   3.280559e+02
   1.310890e+02   3.342655e+02
  -2.442068e+02   1.802239e+02
  -3.814715e+02  -1.983895e+01
  -2.205413e+02  -1.711897e+02
  -1.353948e+01  -1.060212e+02
   2.014177e+02  -1.231177e+02
   1.528494e+02  -5.008217e+00
   8.044817e-01  -3.969704e+01
   2.118825e+00  -1.149293e+01
   1.267730e+02   2.526978e+01
   1.663596e+02  -2.769004e+00
   6.627215e+01   1.186950e+02
  -1.181906e+02   1.585995e+02
  -2.916939e+02   1.520791e+02
  -1.904102e+02  -8.128953e+01
   1.712550e+01  -2.592731e+02
   2.967653e+02  -2.911023e+02
   3.071051e+02  -1.047647e+02
   1.659912e+02   1.343449e+02
   1.025394e+02   2.825315e+02
  -5.016704e+01   2.680795e+02
  -1.839523e+01   1.744374e+02
  -3.025778e+01   1.009249e+02
  -1.356197e+02   1.006140e+02
  -2.449362e+02  -1.138442e+01
  -1.789412e+02  -1.054191e+02
  -4.186140e+01  -2.168516e+02
   1.103724e+02  -1.813598e+02
   1.929675e+02   6.672754e+01
   6.265749e+01   2.111620e+02
  -3.914801e+01   1.720877e+02
  -2.796155e+02   4.914024e+01
  -2.372948e+02  -1.180540e+02
  -1.436183e+02  -2.592866e+02
   2.499223e+01  -2.081302e+02
   1.303641e+02  -1.296794e+02
   9.741200e+01  -8.224410e+01
   1.404622e+02  -1.251400e+02
   3.076435e+02  -3.625296e+01
   3.830253e+02   5.524641e+01
   2.614323e+02   2.813235e+02
  -7.737400e+00   4.240545e+02
  -2.894243e+02   2.744179e+02
  -4.798676e+02   1.733162e+02
  -2.407712e+02  -8.462578e+01
  -1.920092e+01  -2.117061e+02
   1.054338e+02  -1.404183e+02
   2.751054e+01  -3.530560e+01
  -1.030134e+02   1.046213e+01
  -8.982653e+01  -8.315270e+01
   4.399882e+00  -1.251298e+02
   1.018006e+02  -7.134485e+01
   8.589922e+01   5.549843e+01
  -1.321312e+01   9.412687e+01
  -1.291191e+02  -2.590389e+00
  -9.143835e+01  -1.861143e+02
   1.321919e+01  -2.863303e+02
   2.179596e+02  -2.053987e+02
   2.929141e+02   4.064946e+01
   2.605168e+02   2.488900e+02
  -5.199538e+00   2.678623e+02
  -1.451258e+02   1.231390e+02
  -1.008984e+02   2.425538e+00
  -2.471121e+01  -3.735840e+01
   4.265432e+01   6.368955e+01
  -5.294775e+01   1.074986e+02
  -1.211944e+02   6.438182e+01
  -1.679964e+02  -5.044538e+01
  -1.017484e+01  -1.746281e+01
   7.920833e+01   4.118305e+01
   3.524647e+01   1.366497e+02
  -1.477694e+02   9.893248e+01
  -2.665318e+02  -4.000454e+01
  -2.284918e+02  -2.083179e+02
  -3.578292e+01  -2.096001e+02
   1.681939e+02  -1.707536e+02
   2.343224e+02  -4.668896e+01
   9.780890e+01   6.335733e+01
  -4.899457e+01   7.997480e+01
  -8.379740e+01   2.840972e+01
   5.772275e+01  -8.102842e+01
   1.407882e+02  -5.337531e-01
   1.657656e+02   9.341321e+01
   4.245843e+01   1.532078e+02
  -7.991524e+01   1.091737e+02
  -1.002641e+02  -2.670879e+00
  -1.331120e+01  -2.237779e+01
   2.115525e+01   3.570291e+01
   3.949448e+01   8.993642e+01
  -8.724826e+01   1.082731e+02
  -1.925516e+02  -2.692859e+00
  -1.725791e+02  -1.091107e+02
  -2.051710e+01  -1.613986e+02
   1.303424e+02  -1.224442e+02
   1.075780e+02   2.133520e+00
   4.241045e+01   7.578541e+01
  -4.859589e+01   5.942542e+01
  -4.553211e+01   6.713250e+01
  -2.629598e+01  -8.276956e+01
   1.831706e+01  -1.690240e+01
   2.341404e+01   1.929480e+01
  -7.387415e+01   4.367863e+01
  -7.065597e+01  -5.872235e+01
  -1.349614e+01  -1.220446e+02
   7.394887e+01  -1.293603e+02
   2.142951e+02  -2.247291e+01
   1.717287e+02   1.386013e+02
   1.566829e+01   1.871041e+02
  -7.664722e+01   1.442917e+02
  -9.963701e+01   3.549210e+01
  -6.112286e+01  -5.658894e+01
  -2.866047e+01  -2.510011e+01
  -6.449049e+01  -1.088286e+01
  -9.480723e+01   6.762536e+00
  -4.100633e+01  -2.855528e+01
   8.752228e+01  -7.131441e+01
   9.883016e+01  -6.436481e+01
   1.064814e+02   6.887320e+01
   1.592473e+01   1.177408e+02
  -1.556380e+02   9.752315e+01
  -1.648083e+02  -7.263429e+01
  -5.006651e+01  -2.043681e+02
   1.309510e+02  -2.402826e+02
   2.420629e+02  -1.625067e+01
   2.346037e+02   7.736576e+01
   6.552852e+01   1.368817e+02
  -4.847948e+01   1.123202e+02
  -6.713882e+01   7.009446e+01
  -8.371981e+01   6.344458e+01
  -6.295083e+01   9.787860e+01
  -1.146155e+02   5.811006e+01
  -1.362273e+02   7.586958e+00
  -1.478442e+02  -1.545383e+02
  -2.791646e+01  -2.342004e+02
   1.246343e+02  -1.501520e+02
   1.441736e+02  -9.448391e+00
   1.194005e+02   1.226307e+02
   2.223263e+01   1.025120e+02
  -2.935862e+01   5.519669e+01
  -2.718056e+01  -8.759096e+00
   2.936919e+01  -1.222046e+01
  -5.846652e+01  -4.320447e+01
  -2.118602e+01  -3.217589e-01
  -6.507578e+01  -1.233720e+01
  -3.187899e+01  -3.765761e+01
   5.551175e+01  -6.426096e+01
   1.821052e+02   5.264942e+00
   1.255979e+02   5.752242e+01
  -1.040919e+01   8.985995e+01
  -1.318745e+02   1.108913e+02
  -1.517405e+02   3.508734e+01
  -5.720648e+01  -5.174896e+01
   2.914378e+01  -8.257055e+01
   7.247609e+01   4.048309e+00
   1.547282e+01   2.993440e+01
  -3.385360e+01   7.220355e+01
   8.382124e+00   2.472962e+01
  -3.816161e+01  -6.941288e+01
  -4.757265e+01  -4.018897e+01
  -2.805663e+01  -1.725494e+01
  -8.216000e+01   4.797767e+01
  -5.728225e+01  -4.801847e+01
   3.980881e+00  -1.453999e+02
   9.715144e+01  -1.435139e+02
   1.265963e+02  -2.538381e+01
   1.391181e+02   5.573221e+01
  -6.584742e+00   1.192577e+02
  -6.661148e+01   8.781062e+01
  -5.904343e+01  -1.216420e+01
   5.143142e+01  -5.879230e+01
   7.501844e+01   3.607810e+01
   6.781348e+01   4.269464e+01
  -5.387617e+01   9.090000e+01
  -1.687225e+02   1.302922e+01
  -7.953845e+01  -4.013312e+01
  -2.275453e+01  -8.929863e+01
   3.090669e+01  -2.856101e+01
   4.320037e+01  -2.966589e+01
  -2.277098e+01   3.382195e+01
  -5.794667e+01  -8.258294e+00
  -4.365677e+01  -1.139665e+02
   3.309476e+01  -1.573526e+02
   1.422285e+02  -6.416522e+01
   8.601552e+01   6.812642e+01
   1.883684e+01   1.352563e+02
  -7.758845e+01   1.280687e+02
  -1.164466e+02  -5.130135e+01
  -1.123595e+01  -1.262886e+02
   3.627086e+01  -1.077938e+02
   5.925927e+01   2.113050e+00
   4.799800e+01   1.056055e+01
  -2.788168e+01   3.377258e+00
   2.400221e+00  -2.376941e+01
   3.110266e+01   1.470777e+01
   1.348063e+01   9.117656e+01
   3.616639e+01   1.270184e+02
  -3.104556e+01   5.921830e+01
  -1.145292e+02  -4.633688e+01
  -7.395898e+01  -9.146691e+01
   2.020598e+00  -6.366885e+01
   5.705408e+01  -4.529651e+01
   6.816982e+01  -1.608052e+01
   4.964277e+00  -3.193684e+01
  -7.107508e+00   3.500821e+01
  -3.832216e+01  -2.718114e+01
   1.331657e+01  -1.786701e+00
   9.436435e+00   1.247341e+00
  -8.683530e+01  -1.675685e+01
  -1.082527e+02   2.856617e+01
  -2.778566e+01  -4.152842e+01
   1.076693e+02  -1.027947e+02
   1.399897e+02  -6.226338e+01
   1.050201e+02   6.046832e+01
   5.002413e+01   1.084633e+02
  -2.709236e+01   1.499184e+02
  -8.607121e+01   3.863032e+01
  -4.876832e+01  -2.023688e+01
   2.783544e+01  -7.105900e+00
  -1.987312e+01  -3.899575e+01
   3.421705e+00   4.429680e+00
  -2.136204e+01  -4.543651e+01
  -2.831692e+01  -5.059165e+01
   3.461665e+00  -6.779838e+01
   6.219611e+01  -2.690043e+01
   9.738337e+01   6.907727e+01
   1.540328e+01   1.169366e+02
  -6.401600e+01   3.906152e+01
  -9.517978e+01  -4.189813e+01
  -1.271481e+01  -9.281833e+01
   6.429629e+01  -9.340328e+01
   7.253992e+01   1.658626e+01
   3.045050e+01   2.328409e+01
  -7.302032e+01   4.861816e+01
  -7.691429e+01   1.677575e+01
  -3.080837e+01  -4.066668e+01
   3.052672e+01  -2.476920e+01
  -4.217242e+00  -1.026555e+00
  -5.567611e+01   6.867023e+01
  -1.010226e+02   5.226920e+01
  -6.127447e+01  -5.249267e-01
   3.977366e+01  -7.062687e+01
   3.951017e+01  -5.790165e+01
   4.260913e+01  -7.407743e-01
   1.839110e+01   2.679550e+01
  -1.677129e+01   4.185561e+01
  -2.103016e+01   4.999007e+01
  -1.727116e+00  -6.928033e+01
  -8.354533e+00  -1.305351e+00
   3.857155e+01  -1.023481e+01
   4.224771e+01   2.502930e+01
   3.726455e+01   3.276200e+01
  -1.053849e+01  -2.893541e+00
   1.199966e+01   6.196722e+00
  -1.373926e+01   3.087036e+01
  -1.649623e+01   7.503535e+01
  -4.333216e+00   6.324867e+01
  -7.089285e+01  -1.380995e+01
  -4.085210e+01  -3.840071e+01
   8.469197e+01  -2.110723e+01
   3.694128e+01   3.020435e+01
   1.386401e+01   5.949365e+01
  -6.419829e+01   3.574442e+00
  -8.443262e+01   2.064566e-01
  -7.287011e+01  -4.025108e+01
   3.196537e+01  -7.607072e+01
   3.552355e+01  -4.270278e+01
  -5.302482e+00   7.132548e+00
  -5.735700e+01   3.449536e+01
  -8.705544e+01  -1.286957e+00
   5.438365e+01  -4.118937e+01
   8.736788e+01  -7.474744e-02
