
 $NMID
 id='ANONYMOUS ', fmtdat='(2E16.6)'
 volume=1.0
 tramp=1.0
 $END
  -1.873189e+03  -4.410321e+02
  -1.401471e+03  -8.819444e+02
  -1.594861e+02  -1.191491e+03
   9.522420e+02  -9.731802e+02
   5.308610e+02  -2.296208e+02
   2.174612e+01   8.235937e+01
  -1.746063e+02  -5.535397e+01
  -1.029667e+02  -3.061423e+02
   2.324047e+02  -3.967668e+02
   4.074122e+02  -7.131699e+01
   3.413158e+02   3.196111e+02
   8.865878e+01   3.789729e+02
  -2.053300e+02   1.425627e+02
  -1.851118e+02  -2.439335e+02
   5.560136e+01  -3.214436e+02
   2.824965e+02  -7.718559e+01
   1.772319e+02   3.198625e+02
  -7.163556e+01   4.207683e+02
  -3.333177e+02   1.915672e+02
  -3.459609e+02  -9.857186e+01
  -7.022202e+01  -2.581396e+02
   9.318863e+01  -1.486524e+02
   1.156714e+01  -1.876637e+01
  -1.615864e+02  -9.284617e+01
  -1.146043e+02  -1.717106e+02
   3.821562e+01  -1.924638e+02
   2.586577e+02  -1.067339e+02
   3.720436e+02   1.027738e+02
   1.924023e+02   1.799954e+02
  -1.646597e+02   1.180477e+02
  -3.098080e+02  -4.604365e+01
  -7.627084e+01  -2.221092e+02
   2.019781e+02  -2.268588e+02
   2.622786e+02  -7.304100e+01
   2.451289e+02   4.509629e+01
   4.631444e+01   2.173940e+02
  -1.952714e+01   1.480628e+02
   2.397875e+01  -8.375501e+01
   1.069021e+02  -9.882905e+01
   9.952536e+01   1.139597e+02
  -1.080639e+01   3.607615e+02
  -1.097762e+02   2.436096e+02
  -1.797293e+02  -6.491879e+00
  -8.318134e+01  -2.232434e+02
   3.705241e+01  -1.290257e+02
  -1.290594e+01   1.362673e+02
  -1.538875e+01   1.693311e+02
  -2.249030e+02   1.706538e+01
  -2.836883e+02  -2.226010e+02
  -1.261956e+02  -3.044132e+02
   1.875587e+02  -1.341205e+02
   2.952006e+02   3.783530e+01
   2.229436e+02   1.501892e+02
   3.236022e+01   1.395396e+02
  -1.609437e+02   9.546003e+01
  -1.041705e+02  -1.386873e+01
   4.810447e+00  -2.676379e+01
  -1.586396e+01   2.795460e+01
  -6.883505e+01   2.859062e+01
  -1.230932e+02  -1.845456e+01
  -1.056328e+02  -1.121754e+02
   1.136640e+02  -1.118369e+02
   2.096497e+02  -7.724911e+01
   1.899559e+02   1.004245e+02
  -7.779220e+01   2.368994e+02
  -2.257826e+02   2.594374e+02
  -2.068804e+02   9.710019e+01
  -1.723812e+02  -1.194573e+02
  -3.247150e+01  -1.967882e+02
  -1.455637e+00  -1.769537e+02
   5.259532e-01  -1.217288e+02
  -1.386251e+01  -8.085846e+01
   7.732570e+01  -7.851234e+01
   2.062665e+02  -4.903258e+01
   1.282040e+02   8.869060e+01
   5.875152e+01   1.619790e+02
  -8.388667e+01   9.454857e+01
  -7.671620e+01  -5.440935e+01
  -4.305569e+01  -1.607676e+02
   5.409406e+01  -1.724556e+02
   1.789428e+02  -2.317898e+00
   1.645568e+02   1.354996e+02
   6.075805e+01   2.351000e+02
  -5.911358e+01   1.462044e+02
  -1.410564e+02   1.070926e+02
  -1.369102e+02   8.161711e+01
  -9.877117e+01   3.603071e+01
  -2.261500e+02   1.967491e+01
  -3.083091e+02  -1.230952e+02
  -1.750398e+02  -2.329781e+02
   2.290949e+01  -2.689515e+02
   2.524079e+02  -2.228816e+02
   3.605861e+02  -1.338809e+02
   1.246693e+02   9.712073e+01
   2.174332e+01   1.603442e+02
  -6.845730e+01   9.372187e+01
  -1.662048e+01   6.735275e+00
   9.478786e+01  -1.934236e+01
   9.158518e+01   2.098007e+01
  -5.456574e+00   8.477113e+01
  -7.570280e+01   8.352269e+01
  -9.065670e+01  -1.178733e+01
   4.128757e+01  -9.532454e+01
   1.155265e+02  -3.043177e+00
   1.457794e+02   1.579141e+02
  -1.579293e+01   1.769439e+02
  -1.801791e+02   1.280039e+02
  -2.472977e+02  -8.520894e+01
  -1.352853e+02  -1.816730e+02
  -1.314141e+01  -1.911589e+02
   9.448424e+01  -5.129349e+01
   8.532647e+01   4.989529e+00
   3.842280e+00   1.647180e+01
  -3.356851e+01  -2.392699e+01
  -8.690169e+00  -4.818195e+01
   4.905156e+01  -3.580588e+01
   1.061203e+02  -2.099043e+01
  -2.745360e+00   7.933430e+00
  -1.378088e+01  -5.642278e+01
  -1.507512e+01  -6.896363e+01
   1.159391e+02  -4.867145e+01
   2.217481e+02   2.253191e+01
   1.752693e+02   1.485607e+02
   3.549142e+01   2.136954e+02
  -1.103787e+02   1.893098e+02
  -1.844768e+02   5.518222e+01
  -8.509423e+01  -2.415631e+01
   6.462793e+01  -5.600047e+01
   5.387625e+01   4.462235e+01
  -5.383620e+01   4.332826e+01
  -1.184147e+02   3.022049e+01
  -1.449260e+02  -9.074204e+01
  -3.019309e+01  -1.238487e+02
   1.020017e+02  -6.197173e+01
   1.315554e+02  -4.830335e+01
   2.165628e+01   1.423535e+01
  -2.089072e+01  -5.864164e+00
  -3.380061e+01  -7.682291e+01
   3.348073e+01  -4.774357e+01
   1.261326e+02  -2.356456e+01
   9.703725e+01   9.595381e+01
   1.182348e+01   1.033068e+02
  -1.296223e+02   9.004596e+01
  -9.038130e+01   5.350735e-01
   1.449834e+01  -6.963628e+01
   2.243965e+01  -6.951683e+01
   6.219543e+01  -1.510647e+01
  -2.927394e+01  -4.395701e+00
  -2.709624e+01   1.251926e+01
   2.146728e+00  -5.659167e+00
   4.387153e+01  -3.766096e+00
   6.016045e+01   6.190130e+01
  -4.217854e+01   1.281697e+02
  -8.663027e+01   1.074207e+02
  -1.705116e+02  -2.747772e+01
  -1.556716e+02  -1.473627e+02
   6.708829e-01  -1.257348e+02
   8.230826e+01  -1.273104e+02
   8.731802e+01  -5.276395e+01
   6.597097e+01   6.540611e+01
  -3.830377e+01   5.864327e+01
   5.650863e+00  -4.080943e+01
   7.778183e+01  -1.846412e+01
   5.566452e+01   4.160631e+01
  -4.273367e+01   1.016158e+02
  -8.600564e+01   2.618572e+01
  -8.476999e+01  -6.419638e+01
   5.273007e-01  -9.684396e+01
   1.469778e+02  -9.089271e+01
   1.519799e+02   8.705926e+01
   1.816576e+01   1.652462e+02
  -1.156524e+02   1.556831e+02
  -1.549344e+02   7.542068e+01
  -1.348620e+02  -7.199242e+01
  -4.675662e+01  -1.234543e+02
   3.910784e+01  -1.032928e+02
   7.561850e+01  -4.945254e+00
  -2.492266e+00  -5.292499e+00
   4.166396e+01  -7.837623e+01
   6.232810e+01  -6.161725e+01
   9.886695e+01  -2.710652e+01
   6.431835e+01   7.429573e+01
  -3.100751e+01   1.230212e+02
  -6.295606e+01   5.296563e+01
  -1.312926e+02   4.312332e+01
  -7.325306e+01  -7.588935e+01
  -4.237799e-01  -8.770473e+01
   4.913122e+01  -3.286633e+01
   5.928914e+01   2.749553e+01
   2.735599e+01   4.017304e+01
   8.379654e+00   3.410800e+01
   4.525000e+01  -1.299315e+01
   2.612409e+01   3.986479e+01
   5.313228e+01   6.058857e+01
  -2.805798e+01   1.929851e+01
  -1.331574e+02  -1.827268e+01
  -9.298130e+01  -1.220608e+01
   1.981483e+01  -4.539371e+01
   1.229737e+02  -6.069851e+01
   8.091260e+01   1.838000e+00
   2.930823e+01   1.733560e+01
  -1.609600e+01   4.096307e+01
  -5.875229e+01  -5.520098e+00
  -8.096164e+00  -2.446538e+01
   3.158621e+01  -3.238416e+01
   1.985728e+01   3.756713e+01
   3.237448e+01   4.358810e+01
   4.115551e+01   1.806450e+01
   2.829256e+01   2.674756e+01
   4.479707e+01   1.055920e+01
   5.075690e+01   5.818970e+01
   1.798610e+01   1.500771e+02
  -8.324791e+01   1.221656e+02
  -1.416166e+02  -2.442059e+01
  -7.507591e+01  -7.381312e+01
   1.093920e+00  -9.691025e+01
   9.522988e+01  -4.894366e+01
   3.927948e+01   7.400133e+00
  -1.564486e+01   5.044115e+01
  -9.678105e+01   4.015009e+00
  -5.974880e+01  -1.109548e+02
   1.558376e+01  -7.099228e+01
   1.055481e+02  -2.385076e+01
   8.605439e+01  -2.387362e+01
  -5.507570e+00   4.904549e+01
  -2.917529e+01   5.836799e+01
  -1.164103e+01  -4.968229e+01
   1.958100e+01   1.142428e+00
   5.435492e+01   4.857960e+01
   2.524658e+01   8.805840e+01
  -5.670315e+01   9.867887e+01
  -1.087746e+02   4.934857e+01
  -9.405743e+01  -5.110770e+01
   1.324835e+01  -1.040130e+02
   5.980293e+01  -8.073972e+01
   5.317231e+01  -1.085813e+01
   6.380605e+01   1.228493e+02
   1.100908e+01   7.849938e+01
  -3.032526e+01   3.604414e+01
  -3.866442e+01  -1.740126e+01
  -2.353602e+00  -3.747000e+00
  -3.855780e+01   1.392369e+01
  -2.743783e+01  -2.398104e+01
  -2.162778e+01  -6.066485e+01
  -1.584095e+01  -8.942046e+01
   6.618170e+00  -3.800447e+01
   7.527568e+01   6.897175e+01
   4.352347e+01   5.938413e+01
  -6.322088e+00   5.391588e+01
  -7.934331e+01   3.868649e+01
  -6.492088e+01  -1.260421e+00
  -1.071644e+01  -1.623325e+00
   2.983328e+01  -5.226667e+01
   7.292195e+00   1.483810e+01
  -4.448481e+01   1.374051e+01
   1.096130e+01   8.430321e+00
   3.953976e+01  -1.356625e+01
   6.745987e+01   4.584047e+01
   1.325077e+01   5.570590e+01
  -4.872492e+01   7.498871e+01
  -1.288003e+02   3.369332e+01
  -8.300572e+01  -2.991912e+01
  -6.874212e+01  -8.516829e+01
   5.682374e+01  -1.391851e+02
   9.393487e+01  -2.295716e+01
   8.342659e+01   1.905370e+01
   3.094044e+01  -5.757473e-01
   2.348377e+01   7.081364e+01
   4.768641e+01   2.877069e+01
   5.653780e+01   3.886332e+01
   2.923462e+00   4.617894e+00
  -2.751112e+01   1.681595e+01
  -4.057855e+01  -1.817544e+01
  -5.156038e+01  -5.879796e+01
   3.202553e+00  -8.297937e+01
   4.061783e+01   5.153428e+00
   7.201056e+01   5.669135e+01
   2.003070e+00   5.049921e+01
  -3.293940e+01   3.531775e+01
  -7.069154e+01  -1.221207e+01
  -3.051565e+01  -6.319062e+01
  -1.034643e+01  -5.441154e+01
   3.692963e+01  -2.542212e+01
  -1.026620e+01   6.885924e+00
  -1.080116e+02  -3.540874e+00
   5.212915e+00  -5.496982e+01
   3.823786e+01  -2.258827e+01
   6.285143e+01  -2.146643e+01
   9.023891e+01  -2.738777e+01
  -6.976982e+01   5.626770e+01
  -4.797251e+01   5.123013e+01
  -4.689335e+01   3.066908e+01
  -2.928240e+01  -7.243136e+01
   1.377934e+01  -3.525217e+01
   4.187422e+01   1.506316e+01
   2.129990e+01   5.196273e+01
  -1.294302e+01   8.701606e+01
  -2.589474e+01   4.415558e+01
  -1.421406e+01   7.917492e+00
  -1.970361e+00  -1.889940e+01
   9.033781e+00   3.202381e+01
   1.151956e+01   2.492345e+01
  -3.023993e+01   2.586268e+00
   2.833379e+01   1.275942e+01
  -3.687622e+00  -5.322330e+01
   3.660262e+01   2.937022e+01
   7.962112e+00   2.905580e+01
  -3.768841e+01   2.474252e+01
  -4.579632e+01  -1.350182e+01
  -2.732802e+01  -7.645317e+00
   4.323023e+01  -1.479368e+01
   6.759290e+01   3.641898e+01
   5.501841e+01   6.126329e+00
  -3.569016e+01   4.369073e+01
  -5.187518e+01   4.679645e+01
   1.054403e+01  -3.934350e+01
  -2.791560e+01   1.078096e+01
  -1.156892e+01   3.845298e+01
  -1.743162e+01   1.778338e+01
  -4.348408e+01  -2.294146e+01
