
 $NMID
 id='ANONYMOUS ', fmtdat='(2E16.6)'
 volume=1.0
 tramp=1.0
 $END
  -5.308433e+07   2.187949e+04
  -3.183500e+07  -3.287338e+07
   7.068280e+06  -3.586923e+07
   2.592415e+07  -1.373248e+07
   1.541816e+07   6.612963e+06
  -3.131123e+06   8.744945e+06
  -9.191597e+06  -1.164929e+06
  -2.584256e+06  -9.150376e+06
   5.794285e+06  -8.734142e+06
   9.037678e+06  -1.869283e+06
   6.594079e+06   5.811176e+06
   8.066699e+05   8.083963e+06
  -3.754112e+06   2.606861e+06
  -2.519148e+06  -5.081524e+06
   3.496170e+06  -6.138850e+06
   7.386079e+06   1.253322e+06
   4.186833e+06   9.583025e+06
  -3.540409e+06   1.109383e+07
  -9.506003e+06   5.576207e+06
  -1.020017e+07  -1.914338e+06
  -6.266341e+06  -7.067020e+06
  -6.481185e+05  -8.182325e+06
   2.782226e+06  -5.700987e+06
   1.767741e+06  -2.473624e+06
  -1.080256e+06  -1.955042e+06
  -3.119516e+05  -3.919602e+06
   5.039361e+06  -4.206144e+06
   9.100024e+06  -5.548992e+05
   6.670903e+06   3.850307e+06
   2.774002e+05   4.800723e+06
  -3.493220e+06   2.489377e+06
  -2.372667e+06   4.908195e+04
   5.051609e+05  -9.188939e+05
   2.122293e+06  -5.373627e+05
   2.114657e+06   1.299740e+06
   7.207480e+05   3.710383e+06
  -1.684111e+06   3.659200e+06
  -3.086487e+06  -9.604052e+04
  -1.638889e+06  -3.452862e+06
   7.622726e+05  -1.836786e+06
   3.820023e+05   2.314491e+06
  -2.283307e+06   2.182059e+06
  -2.300475e+06  -2.994162e+06
   2.287150e+06  -5.753384e+06
   6.548256e+06  -9.309453e+05
   4.820247e+06   6.530525e+06
  -1.802744e+06   8.024691e+06
  -6.990689e+06   2.288263e+06
  -6.546765e+06  -4.151008e+06
  -1.756814e+06  -5.644852e+06
   3.243038e+06  -2.556551e+06
   4.931497e+06   1.402511e+06
   2.281716e+06   3.252080e+06
  -2.265941e+06   2.060548e+06
  -4.253989e+06  -8.595268e+05
  -1.833463e+06  -2.551092e+06
   1.613837e+06  -1.291396e+06
   1.635814e+06   9.515017e+05
  -1.234231e+06   8.461672e+05
  -2.305584e+06  -1.652442e+06
   6.036917e+05  -3.217983e+06
   4.356002e+06  -1.769674e+06
   4.973610e+06   1.275762e+06
   2.177738e+06   3.733351e+06
  -1.673875e+06   4.969569e+06
  -4.687317e+06   4.602674e+06
  -5.831705e+06   1.686665e+06
  -4.345635e+06  -2.958012e+06
  -9.278349e+05  -5.814063e+06
   1.724219e+06  -4.487847e+06
   1.636007e+06  -1.139950e+06
   1.253948e+05   2.324013e+05
  -5.500928e+04  -9.555247e+05
   1.503341e+06  -1.735545e+06
   2.676952e+06  -2.689974e+05
   1.960072e+06   1.803653e+06
   6.385392e+04   2.039802e+06
  -1.463221e+06   2.306221e+05
  -1.616478e+06  -1.931612e+06
  -3.865912e+04  -2.774823e+06
   2.604319e+06  -1.594045e+06
   4.243260e+06   1.092274e+06
   3.069261e+06   3.539765e+06
  -2.067136e+04   4.000293e+06
  -2.147536e+06   2.574267e+06
  -2.105311e+06   1.074173e+06
  -1.720317e+06   6.475680e+05
  -2.767399e+06   4.717725e+05
  -4.108682e+06  -6.856633e+05
  -3.313761e+06  -2.584564e+06
  -1.587215e+05  -3.898808e+06
   2.995594e+06  -3.719679e+06
   3.931943e+06  -2.053479e+06
   2.529233e+06   3.694083e+05
   2.926885e+05   2.121922e+06
  -1.023004e+06   1.853203e+06
  -5.388994e+05  -2.721090e+04
   1.018118e+06  -1.254963e+06
   1.806174e+06  -3.932727e+05
   8.861423e+05   1.139956e+06
  -4.773201e+05   1.063876e+06
  -4.029438e+05  -3.598071e+05
   1.002037e+06  -6.509200e+05
   1.745301e+06   1.222828e+06
   6.066545e+05   3.287341e+06
  -1.491898e+06   3.204401e+06
  -2.944992e+06   1.044597e+06
  -3.114580e+06  -1.342739e+06
  -2.162428e+06  -2.574683e+06
  -4.537327e+05  -2.454313e+06
   1.158759e+06  -1.399662e+06
   1.493679e+06  -2.345085e+05
   4.678389e+05   3.937628e+04
  -3.453895e+05  -7.110353e+05
   3.881808e+05  -1.277520e+06
   1.813777e+06  -5.597419e+05
   1.936619e+06   8.364250e+05
   3.690727e+05   1.345641e+06
  -1.109520e+06   5.475245e+05
  -8.405860e+05  -4.233447e+05
   8.010757e+05  -4.861318e+05
   2.054957e+06   2.969990e+05
   1.647441e+06   1.265890e+06
  -2.245451e+05   1.855486e+06
  -2.172091e+06   1.578357e+06
  -2.627788e+06   2.781946e+05
  -1.164070e+06  -1.197791e+06
   8.688221e+05  -1.439230e+06
   1.490098e+06  -1.894861e+05
   2.015995e+05   1.032388e+06
  -1.438690e+06   7.125386e+05
  -1.635739e+06  -7.349368e+05
  -3.227532e+05  -1.565299e+06
   1.034741e+06  -9.231850e+05
   1.189413e+06   2.985052e+05
   2.284086e+05   7.416912e+05
  -7.620399e+05   5.347796e+04
  -7.103371e+05  -9.990780e+05
   5.348693e+05  -1.361950e+06
   1.905813e+06  -5.358461e+05
   1.946866e+06   9.818981e+05
   3.800702e+05   1.972136e+06
  -1.361629e+06   1.571491e+06
  -1.640359e+06   2.071585e+05
  -4.782816e+05  -8.234891e+05
   6.222755e+05  -7.648019e+05
   5.961286e+05  -8.015687e+04
  -1.110736e+05   3.309603e+05
  -4.526524e+05   1.940366e+05
  -1.006807e+05  -5.144504e+04
   4.293677e+05   8.872794e+04
   4.862774e+05   6.454041e+05
  -1.981315e+05   1.128239e+06
  -1.310123e+06   8.568857e+05
  -1.981361e+06  -3.804242e+05
  -1.407661e+06  -1.837761e+06
   1.863537e+05  -2.300320e+06
   1.519451e+06  -1.346374e+06
   1.595119e+06   1.107305e+05
   8.114371e+05   8.325017e+05
   3.097010e+05   5.961230e+05
   4.696326e+05   1.968461e+05
   6.083369e+05   3.021510e+05
   9.062444e+04   7.340911e+05
  -8.291939e+05   8.582880e+05
  -1.368266e+06   3.128210e+05
  -9.934797e+05  -6.726763e+05
   2.293386e+05  -1.375184e+06
   1.623733e+06  -1.023913e+06
   2.133791e+06   4.432157e+05
   1.085308e+06   1.986593e+06
  -9.521877e+05   2.252227e+06
  -2.412957e+06   9.885785e+05
  -2.229154e+06  -6.182864e+05
  -9.023842e+05  -1.259702e+06
   1.923431e+05  -8.837380e+05
   3.522202e+05  -4.789335e+05
   5.209800e+04  -7.239837e+05
   8.330148e+04  -1.256133e+06
   6.325208e+05  -1.236488e+06
   1.233018e+06  -3.139363e+05
   1.283034e+06   1.015156e+06
   5.466148e+05   1.795263e+06
  -5.771718e+05   1.371347e+06
  -1.219478e+06   6.404644e+03
  -7.768910e+05  -1.217087e+06
   3.689389e+05  -1.327294e+06
   1.107790e+06  -3.805495e+05
   7.716885e+05   6.724256e+05
  -1.226866e+05   1.027854e+06
  -5.168695e+05   7.404349e+05
  -8.129090e+04   3.881341e+05
   4.184806e+05   3.129513e+05
   6.252812e+04   3.629236e+05
  -1.094104e+06   2.053985e+05
  -1.969199e+06  -3.040161e+05
  -1.543656e+06  -9.767493e+05
   3.560816e+04  -1.367755e+06
   1.512568e+06  -1.096790e+06
   1.739818e+06  -2.708317e+05
   7.886103e+05   4.742753e+05
  -2.502438e+05   5.472926e+05
  -4.877002e+05   2.992145e+04
  -3.459893e+04  -4.091584e+05
   4.147370e+05  -2.536865e+05
   4.628483e+05   3.205153e+05
   2.597733e+05   6.845604e+05
   1.065588e+05   4.565982e+05
   1.262668e+05  -8.398917e+04
   2.514482e+05  -2.731959e+05
   2.612581e+05   2.189466e+05
  -1.181209e+05   9.363113e+05
  -8.452965e+05   1.023989e+06
  -1.308595e+06   1.845589e+05
  -8.335550e+05  -8.635772e+05
   3.856665e+05  -1.098744e+06
   1.203410e+06  -3.440020e+05
   7.065704e+05   5.332189e+05
  -6.638287e+05   6.195613e+05
  -1.502603e+06  -8.252000e+04
  -9.447852e+05  -8.105870e+05
   4.619143e+05  -9.297621e+05
   1.411549e+06  -4.495388e+05
   1.158098e+06   1.779262e+05
   1.254535e+05   4.822587e+05
  -6.150807e+05   2.544148e+05
  -3.722932e+05  -2.815574e+05
   5.444444e+05  -5.127419e+05
   1.130316e+06   5.055471e+04
   6.701257e+05   1.111491e+06
  -5.214813e+05   1.637828e+06
  -1.393042e+06   8.762217e+05
  -1.207075e+06  -6.970651e+05
  -2.194689e+05  -1.697509e+06
   6.856761e+05  -1.230078e+06
   8.761994e+05   1.680564e+05
   4.110700e+05   1.127450e+06
  -2.125020e+05   9.113423e+05
  -5.372783e+05   7.844344e+04
  -4.353649e+05  -3.481101e+05
  -1.435035e+05  -1.216687e+05
  -4.990016e+04   8.580494e+04
  -2.891388e+05  -2.907033e+05
  -5.041608e+05  -9.178637e+05
  -1.775275e+05  -1.016617e+06
   6.947191e+05  -3.778201e+05
   1.405268e+06   4.217811e+05
   1.210136e+06   7.761220e+05
   1.822538e+05   6.652525e+05
  -7.897245e+05   4.148677e+05
  -9.262768e+05   1.813639e+05
  -3.563704e+05  -5.754086e+04
   1.288194e+05  -2.195364e+05
   4.974255e+04  -1.825637e+05
  -2.332457e+05  -7.078159e+04
  -5.922534e+04  -1.257732e+05
   6.030250e+05  -2.477251e+05
   1.000761e+06  -1.370184e+04
   4.575846e+05   6.602271e+05
  -7.603527e+05   1.153888e+06
  -1.623652e+06   7.663941e+05
  -1.383547e+06  -3.753387e+05
  -2.982813e+05  -1.331509e+06
   7.127981e+05  -1.332003e+06
   9.925508e+05  -5.492055e+05
   6.271259e+05   1.945905e+05
   1.450070e+05   3.407385e+05
  -4.616617e+04   8.214123e+04
   8.293590e+04   4.600000e+02
   2.805291e+05   3.509052e+05
   2.406555e+05   7.643798e+05
  -1.528628e+05   6.569984e+05
  -6.487216e+05  -8.310297e+04
  -7.418636e+05  -8.757602e+05
  -1.609936e+05  -9.869369e+05
   6.993190e+05  -2.798883e+05
   1.013537e+06   6.411509e+05
   3.733324e+05   1.034255e+06
  -6.626777e+05   6.817220e+05
  -1.081853e+06  -4.026567e+04
  -5.332123e+05  -5.918889e+05
   2.632133e+05  -6.766909e+05
   3.760039e+05  -3.622679e+05
  -2.129050e+05   8.871312e+03
  -6.123052e+05   5.653239e+04
  -1.545233e+05  -2.960588e+05
   7.717251e+05  -6.616641e+05
   1.207651e+06  -5.214296e+05
   7.529881e+05   1.745258e+05
  -7.138640e+04   8.409661e+05
  -5.301991e+05   8.362595e+05
  -4.289923e+05   1.793536e+05
  -7.667481e+04  -4.465962e+05
   2.146370e+05  -4.348668e+05
   3.400604e+05   1.092358e+05
   2.595408e+05   5.439607e+05
  -3.613883e+04   4.302416e+05
  -3.759067e+05  -2.321053e+04
  -4.665230e+05  -2.732892e+05
  -2.322237e+05  -1.007234e+05
   4.615136e+04   1.616882e+05
   7.644566e+04   7.706812e+04
  -5.386988e+04  -3.250054e+05
  -9.390524e+03  -5.561883e+05
   2.882233e+05  -2.606776e+05
   4.805702e+05   3.252534e+05
   2.081595e+05   6.141837e+05
  -3.704129e+05   3.232988e+05
  -6.583232e+05  -2.352609e+05
  -2.700076e+05  -5.319488e+05
   4.823763e+05  -3.643165e+05
   8.592155e+05   3.997934e+04
   4.738833e+05   3.480604e+05
  -2.716909e+05   4.076648e+05
  -6.124667e+05   2.559360e+05
  -2.581425e+05   2.605980e+04
   3.031220e+05  -9.676258e+04
   3.823437e+05   2.131872e+04
  -1.287704e+05   2.676274e+05
  -6.650842e+05   2.829171e+05
