
 $NMID
 id='ANONYMOUS ', fmtdat='(2E16.6)'
 volume=1.0
 tramp=1.0
 $END
  -2.469387e+07  -1.251510e+05
  -1.578280e+07  -1.323224e+07
   1.477656e+06  -1.613435e+07
   1.140608e+07  -8.721414e+06
   8.329470e+06   7.751776e+05
  -3.196714e+05   4.451396e+06
  -4.852492e+06   1.160598e+06
  -2.813008e+06  -4.179264e+06
   1.833566e+06  -5.836494e+06
   4.565259e+06  -2.187317e+06
   3.672614e+06   3.120406e+06
   3.853842e+05   4.742945e+06
  -2.250766e+06   1.144049e+06
  -1.677322e+06  -3.611849e+06
   1.541065e+06  -4.243946e+06
   3.892041e+06  -2.981498e+04
   2.586894e+06   4.743915e+06
  -1.423032e+06   5.735076e+06
  -4.662635e+06   2.691194e+06
  -4.759798e+06  -1.326821e+06
  -2.321403e+06  -3.452237e+06
   1.584807e+05  -3.164173e+06
   6.368337e+05  -1.936521e+06
  -7.077254e+05  -1.568268e+06
  -1.518438e+06  -2.484746e+06
   3.468887e+05  -3.268433e+06
   3.978515e+06  -2.213264e+06
   5.779537e+06   4.922730e+05
   3.500409e+06   2.693582e+06
  -7.958654e+05   2.619770e+06
  -2.923543e+06   7.185987e+05
  -1.322802e+06  -1.099295e+06
   1.596233e+06  -1.374531e+06
   2.706335e+06   1.642608e+04
   1.431354e+06   2.019299e+06
  -5.115643e+05   2.917019e+06
  -1.422224e+06   1.599986e+06
  -9.616916e+05  -8.602637e+05
   5.059075e+04  -1.750432e+06
   4.293617e+05   7.240930e+04
  -3.848837e+05   2.236417e+06
  -1.564630e+06   1.610768e+06
  -1.486336e+06  -1.360407e+06
   3.596354e+05  -2.895158e+06
   2.337955e+06  -7.710222e+05
   2.187038e+06   2.718787e+06
  -4.365910e+05   3.661448e+06
  -3.366213e+06   1.160079e+06
  -3.961477e+06  -2.128496e+06
  -1.585771e+06  -3.332648e+06
   1.811736e+06  -1.981456e+06
   3.395973e+06   3.515119e+05
   1.965358e+06   1.779668e+06
  -9.011671e+05   1.410039e+06
  -2.362412e+06  -1.321635e+05
  -1.246852e+06  -1.210887e+06
   7.654826e+05  -7.680465e+05
   1.226108e+06   4.847904e+05
  -1.623269e+05   9.286108e+05
  -1.363020e+06   3.534751e+04
  -6.475429e+05  -1.092976e+06
   1.342816e+06  -1.167346e+06
   2.453237e+06  -1.671771e+04
   1.391414e+06   1.605108e+06
  -1.128024e+06   2.734796e+06
  -3.246705e+06   2.500587e+06
  -3.569241e+06   5.819900e+05
  -2.141101e+06  -2.052321e+06
  -2.474149e+05  -3.521382e+06
   7.699798e+05  -2.896330e+06
   7.077802e+05  -1.317848e+06
   4.974040e+05  -5.581157e+05
   9.608056e+05  -7.894314e+05
   1.797485e+06  -6.343268e+05
   1.995898e+06   6.462584e+05
   1.044239e+06   1.963067e+06
  -5.137572e+05   1.768357e+06
  -1.574986e+06   7.401189e+03
  -1.319367e+06  -1.791095e+06
   1.962422e+05  -2.106021e+06
   1.926509e+06  -7.614146e+05
   2.496697e+06   1.126193e+06
   1.441807e+06   2.212877e+06
  -2.200108e+05   2.014409e+06
  -1.063939e+06   1.167305e+06
  -9.141789e+05   6.376613e+05
  -9.265190e+05   6.539279e+05
  -1.866574e+06   5.464165e+05
  -2.862019e+06  -3.378038e+05
  -2.365373e+06  -1.775943e+06
  -1.297452e+05  -2.823284e+06
   2.284206e+06  -2.657589e+06
   3.035847e+06  -1.236289e+06
   1.774725e+06   6.110513e+05
  -1.493831e+05   1.651629e+06
  -1.040923e+06   1.193608e+06
  -3.796118e+05  -1.390716e+05
   8.507032e+05  -8.636396e+05
   1.261440e+06  -2.437075e+05
   4.956558e+05   7.934463e+05
  -4.783649e+05   8.111129e+05
  -5.183916e+05  -2.229132e+05
   4.169669e+05  -8.102488e+05
   1.280066e+06   1.577465e+05
   1.064896e+06   1.922201e+06
  -2.736516e+05   2.679005e+06
  -1.878586e+06   1.567397e+06
  -2.670820e+06  -5.368241e+05
  -2.069386e+06  -2.036586e+06
  -4.561484e+05  -2.069928e+06
   9.720415e+05  -1.044066e+06
   1.178941e+06  -7.365342e+04
   3.489677e+05   4.162106e+04
  -2.671974e+05  -5.177664e+05
   2.021168e+05  -8.651290e+05
   1.184882e+06  -4.091858e+05
   1.372223e+06   4.756466e+05
   3.667712e+05   8.976767e+05
  -7.767023e+05   4.745663e+05
  -7.583512e+05  -2.811559e+05
   4.836607e+05  -5.584846e+05
   1.678377e+06  -2.885960e+04
   1.523314e+06   9.353911e+05
  -1.525376e+04   1.583488e+06
  -1.651794e+06   1.324304e+06
  -1.990364e+06   2.385456e+05
  -8.468536e+05  -8.288118e+05
   5.948155e+05  -9.517050e+05
   9.731719e+05  -1.083385e+05
   8.062926e+04   6.927620e+05
  -1.035893e+06   5.019212e+05
  -1.229327e+06  -4.798277e+05
  -3.690370e+05  -1.156821e+06
   6.681589e+05  -8.294540e+05
   9.391037e+05   5.652204e+04
   3.090065e+05   5.061795e+05
  -4.716179e+05   8.589820e+04
  -4.887562e+05  -6.934551e+05
   4.195628e+05  -9.630374e+05
   1.404049e+06  -3.354609e+05
   1.397910e+06   7.557465e+05
   2.675300e+05   1.435500e+06
  -9.684745e+05   1.154907e+06
  -1.206643e+06   1.941809e+05
  -4.187795e+05  -5.970174e+05
   4.328516e+05  -6.167266e+05
   5.308472e+05  -5.895682e+04
  -1.757048e+03   3.810621e+05
  -4.337222e+05   2.895667e+05
  -2.952004e+05  -6.690470e+04
   1.938018e+05  -1.181154e+05
   4.122077e+05   3.210251e+05
  -4.359202e+04   7.951221e+05
  -9.244505e+05   6.488157e+05
  -1.452264e+06  -2.705109e+05
  -1.015241e+06  -1.354891e+06
   1.633888e+05  -1.734580e+06
   1.165959e+06  -1.093175e+06
   1.296146e+06   2.197876e+04
   7.500761e+05   7.392567e+05
   2.612083e+05   6.966848e+05
   2.090321e+05   2.977247e+05
   2.894631e+05   1.655046e+05
   3.189690e+04   4.355517e+05
  -5.744550e+05   6.440651e+05
  -1.036339e+06   2.907829e+05
  -8.263918e+05  -5.370990e+05
   1.157435e+05  -1.136719e+06
   1.221477e+06  -8.302244e+05
   1.626667e+06   3.199556e+05
   8.704870e+05   1.455033e+06
  -5.983610e+05   1.659827e+06
  -1.711426e+06   8.084718e+05
  -1.720814e+06  -3.477416e+05
  -8.460304e+05  -9.456331e+05
   5.578328e+04  -8.143646e+05
   3.795112e+05  -4.912680e+05
   2.444521e+05  -5.133306e+05
   1.696958e+05  -8.083269e+05
   4.463653e+05  -8.229583e+05
   8.558113e+05  -1.936063e+05
   9.142496e+05   7.793865e+05
   3.734223e+05   1.349023e+06
  -4.606332e+05   1.016795e+06
  -9.227407e+05   2.280704e+04
  -6.064549e+05  -8.515149e+05
   1.877206e+05  -9.774714e+05
   7.169674e+05  -3.944232e+05
   5.582753e+05   3.261645e+05
   2.692836e+04   6.654344e+05
  -2.322595e+05   5.727502e+05
  -2.160498e+03   3.565056e+05
   2.714147e+05   2.733538e+05
   1.744530e+04   2.818564e+05
  -7.580627e+05   1.586191e+05
  -1.376638e+06  -2.131456e+05
  -1.135668e+06  -6.847703e+05
  -6.425419e+04  -9.426951e+05
   1.015872e+06  -7.707610e+05
   1.259312e+06  -2.586800e+05
   6.251563e+05   2.293758e+05
  -1.380538e+05   3.428837e+05
  -3.282045e+05   7.030447e+04
   2.354161e+04  -2.230532e+05
   3.594462e+05  -1.527029e+05
   3.218899e+05   2.520124e+05
   7.855031e+04   5.393893e+05
  -2.175939e+04   3.459034e+05
   1.087488e+05  -1.246927e+05
   2.643948e+05  -2.795585e+05
   2.018313e+05   1.509855e+05
  -1.538799e+05   7.175665e+05
  -6.308466e+05   7.249295e+05
  -8.485875e+05   5.687368e+04
  -4.872695e+05  -6.512070e+05
   2.993397e+05  -7.155130e+05
   8.284802e+05  -1.407413e+05
   4.990093e+05   4.418929e+05
  -4.808350e+05   4.720846e+05
  -1.166812e+06  -3.168175e+04
  -8.259390e+05  -5.981359e+05
   2.652155e+05  -7.731981e+05
   1.093567e+06  -4.553194e+05
   9.564863e+05   7.759983e+04
   1.389214e+05   3.884442e+05
  -4.528695e+05   2.332795e+05
  -2.446273e+05  -1.801406e+05
   4.579549e+05  -3.232171e+05
   8.300247e+05   1.311795e+05
   3.865676e+05   8.782970e+05
  -5.311552e+05   1.171726e+06
  -1.113121e+06   5.545385e+05
  -8.841206e+05  -5.903085e+05
  -1.113791e+05  -1.305908e+06
   5.473178e+05  -9.663348e+05
   6.784472e+05   8.075821e+04
   3.563015e+05   8.510261e+05
  -9.120614e+04   7.357315e+05
  -3.798917e+05   8.825409e+04
  -3.843610e+05  -2.868482e+05
  -1.765212e+05  -1.190604e+05
  -1.414541e+04   8.819060e+04
  -1.142275e+05  -1.709070e+05
  -3.264954e+05  -6.806825e+05
  -1.996358e+05  -7.932057e+05
   4.355390e+05  -2.929291e+05
   1.068130e+06   3.518872e+05
   9.787832e+05   6.161608e+05
   1.331220e+05   4.887263e+05
  -6.764118e+05   2.827626e+05
  -7.310451e+05   1.420253e+05
  -2.094314e+05  -6.381120e+03
   1.307817e+05  -1.550098e+05
  -3.782950e+04  -1.832138e+05
  -2.593214e+05  -1.099776e+05
  -6.728463e+03  -9.726005e+04
   5.528175e+05  -1.301308e+05
   7.391879e+05   4.395698e+04
   1.943837e+05   4.873858e+05
  -6.881727e+05   7.863202e+05
  -1.179561e+06   4.631404e+05
  -9.135538e+05  -3.708453e+05
  -1.448048e+05  -1.022426e+06
   5.511768e+05  -9.469840e+05
   7.549814e+05  -3.193951e+05
   4.731263e+05   2.145393e+05
   6.042204e+04   2.547243e+05
  -1.099746e+05   3.710218e+03
   3.645616e+04  -5.808844e+04
   2.417454e+05   2.464953e+05
   1.933828e+05   5.813704e+05
  -1.511740e+05   4.689521e+05
  -4.979625e+05  -1.421228e+05
  -4.729415e+05  -7.369025e+05
   8.212811e+03  -7.321984e+05
   5.826107e+05  -1.002103e+05
   7.054524e+05   5.932144e+05
   1.863780e+05   7.813093e+05
  -5.318453e+05   4.226362e+05
  -7.649485e+05  -9.159986e+04
  -3.325075e+05  -4.008493e+05
   2.102598e+05  -4.196697e+05
   2.224963e+05  -2.441465e+05
  -2.349190e+05  -3.642326e+04
  -4.794574e+05   5.821262e+03
  -7.852342e+04  -2.111287e+05
   6.029005e+05  -4.789284e+05
   8.615123e+05  -4.088363e+05
   4.849855e+05   9.409067e+04
  -8.963571e+04   5.972591e+05
  -3.594656e+05   5.791581e+05
  -2.484438e+05   6.635715e+04
   2.214751e+03  -3.670174e+05
   1.897071e+05  -2.745385e+05
   2.510156e+05   1.638323e+05
   1.623134e+05   4.193400e+05
  -5.898329e+04   2.568609e+05
  -2.763734e+05  -6.188247e+04
  -3.176704e+05  -1.733015e+05
  -1.715723e+05  -4.158692e+04
  -3.364260e+03   6.667038e+04
   5.904693e+04  -5.146157e+04
   7.046925e+04  -2.851471e+05
   1.473357e+05  -3.340549e+05
   2.637363e+05  -5.507981e+04
   2.505868e+05   3.407979e+05
   7.264948e+03   4.727686e+05
  -3.238624e+05   1.903942e+05
  -4.337659e+05  -2.467376e+05
  -1.429362e+05  -4.348213e+05
   3.540308e+05  -2.434482e+05
   5.980871e+05   9.403635e+04
   3.197348e+05   2.804334e+05
  -2.173504e+05   2.421060e+05
  -4.474506e+05   1.034115e+05
  -1.395648e+05  -1.842580e+02
   3.050756e+05  -5.992569e+02
   3.123648e+05   1.114632e+05
  -1.724380e+05   2.391810e+05
  -6.130643e+05   1.763291e+05
