
 $NMID
 id='ANONYMOUS ', fmtdat='(2E16.6)'
 volume=1.0
 tramp=1.0
 $END
   5.894128e+07  -1.557195e+06
   3.602808e+07   3.607344e+07
  -7.272564e+06   4.014244e+07
  -2.854164e+07   1.542818e+07
  -1.702046e+07  -7.450336e+06
   3.502037e+06  -9.725225e+06
   1.010950e+07   1.411364e+06
   2.767198e+06   1.010194e+07
  -6.372380e+06   9.462735e+06
  -9.898789e+06   2.032794e+06
  -7.356641e+06  -6.181635e+06
  -1.120920e+06  -8.745698e+06
   3.999924e+06  -3.024060e+06
   2.851615e+06   5.288880e+06
  -3.711468e+06   6.601270e+06
  -8.124507e+06  -1.321716e+06
  -4.766197e+06  -1.044933e+07
   3.675524e+06  -1.226953e+07
   1.034357e+07  -6.418631e+06
   1.137190e+07   1.752453e+06
   7.284370e+06   7.643781e+06
   1.040641e+06   9.220618e+06
  -3.098191e+06   6.564690e+06
  -2.253511e+06   2.676182e+06
   1.032039e+06   1.755009e+06
   5.910665e+05   4.010593e+06
  -5.092315e+06   4.776325e+06
  -9.746253e+06   1.067606e+06
  -7.445358e+06  -3.882770e+06
  -6.630934e+05  -5.262651e+06
   3.523916e+06  -2.993326e+06
   2.605697e+06  -3.853159e+05
  -2.070189e+05   8.344384e+05
  -1.945409e+06   7.359858e+05
  -2.287524e+06  -1.057829e+06
  -1.099100e+06  -3.835971e+06
   1.630964e+06  -4.134343e+06
   3.551608e+06  -1.523670e+05
   2.106350e+06   3.770908e+06
  -7.880301e+05   2.277938e+06
  -6.333533e+05  -2.296215e+06
   2.349783e+06  -2.350826e+06
   2.543210e+06   3.268677e+06
  -2.534954e+06   6.399102e+06
  -7.404788e+06   1.135711e+06
  -5.551506e+06  -7.186114e+06
   1.860982e+06  -8.971234e+06
   7.665470e+06  -2.720007e+06
   7.176315e+06   4.362941e+06
   1.939600e+06   6.044411e+06
  -3.453400e+06   2.753115e+06
  -5.260642e+06  -1.476580e+06
  -2.416956e+06  -3.485490e+06
   2.497432e+06  -2.257625e+06
   4.666109e+06   8.924099e+05
   2.020238e+06   2.783131e+06
  -1.754374e+06   1.449646e+06
  -1.740443e+06  -9.996702e+05
   1.437913e+06  -8.545995e+05
   2.537544e+06   1.952690e+06
  -7.932302e+05   3.680962e+06
  -4.939701e+06   2.004460e+06
  -5.518719e+06  -1.418847e+06
  -2.431500e+06  -4.110571e+06
   1.635625e+06  -5.462671e+06
   4.822997e+06  -5.159901e+06
   6.227300e+06  -2.087510e+06
   4.883263e+06   3.005101e+06
   1.240013e+06   6.243134e+06
  -1.794333e+06   4.843401e+06
  -1.795422e+06   1.122286e+06
  -3.785250e+04  -4.144772e+05
   3.266525e+05   9.845650e+05
  -1.360671e+06   2.024429e+06
  -2.798332e+06   5.664333e+05
  -2.212538e+06  -1.685607e+06
  -2.644638e+05  -2.084409e+06
   1.416275e+06  -3.340491e+05
   1.732357e+06   1.887651e+06
   1.799995e+05   2.897225e+06
  -2.683257e+06   1.847921e+06
  -4.627603e+06  -9.462709e+05
  -3.506382e+06  -3.714361e+06
  -1.358187e+05  -4.407172e+06
   2.298525e+06  -2.921151e+06
   2.319665e+06  -1.213773e+06
   1.856334e+06  -6.843748e+05
   2.917587e+06  -5.323858e+05
   4.355637e+06   6.296574e+05
   3.563646e+06   2.632812e+06
   2.850023e+05   4.087470e+06
  -3.001153e+06   4.006686e+06
  -4.024027e+06   2.337446e+06
  -2.687402e+06  -2.311440e+05
  -4.595808e+05  -2.198429e+06
   9.527262e+05  -2.018026e+06
   5.760147e+05  -1.535811e+04
  -1.003829e+06   1.365261e+06
  -1.900412e+06   4.811158e+05
  -1.002878e+06  -1.181522e+06
   4.395894e+05  -1.130584e+06
   3.873466e+05   3.688878e+05
  -1.096058e+06   6.370375e+05
  -1.858799e+06  -1.392034e+06
  -5.899855e+05  -3.530054e+06
   1.649719e+06  -3.320267e+06
   3.108973e+06  -9.976967e+05
   3.209035e+06   1.411932e+06
   2.234032e+06   2.593038e+06
   5.256179e+05   2.493473e+06
  -1.142872e+06   1.498111e+06
  -1.541038e+06   3.139701e+05
  -4.905954e+05  -2.515822e+04
   3.829453e+05   7.347420e+05
  -3.843433e+05   1.368500e+06
  -1.917681e+06   6.451539e+05
  -2.069858e+06  -8.473585e+05
  -4.103775e+05  -1.421813e+06
   1.152822e+06  -5.975758e+05
   8.654069e+05   4.181406e+05
  -8.399356e+05   4.869889e+05
  -2.116618e+06  -2.985609e+05
  -1.693221e+06  -1.266821e+06
   2.074123e+05  -1.897513e+06
   2.210480e+06  -1.684481e+06
   2.731160e+06  -3.658841e+05
   1.259633e+06   1.232622e+06
  -8.772753e+05   1.561385e+06
  -1.586472e+06   2.513968e+05
  -2.607472e+05  -1.093223e+06
   1.490236e+06  -7.988967e+05
   1.731868e+06   7.316943e+05
   3.585460e+05   1.629034e+06
  -1.075537e+06   9.672513e+05
  -1.242302e+06  -3.103989e+05
  -2.342114e+05  -7.790986e+05
   8.139321e+05  -7.323597e+04
   7.841043e+05   1.028905e+06
  -5.076843e+05   1.450202e+06
  -1.975759e+06   6.354122e+05
  -2.077015e+06  -9.584533e+05
  -4.628176e+05  -2.057079e+06
   1.385345e+06  -1.689078e+06
   1.713827e+06  -2.579336e+05
   5.139171e+05   8.518613e+05
  -6.328228e+05   8.116339e+05
  -6.038610e+05   1.060023e+05
   1.180371e+05  -3.179551e+05
   4.400798e+05  -1.875200e+05
   5.726922e+04   3.823046e+04
  -4.747257e+05  -1.244424e+05
  -5.118326e+05  -6.936588e+05
   1.964084e+05  -1.191128e+06
   1.351756e+06  -9.314967e+05
   2.085396e+06   3.381645e+05
   1.534745e+06   1.878600e+06
  -1.178446e+05   2.404816e+06
  -1.538149e+06   1.434456e+06
  -1.645816e+06  -7.960699e+04
  -8.415009e+05  -8.185746e+05
  -3.363918e+05  -5.579947e+05
  -5.282765e+05  -1.591357e+05
  -6.788878e+05  -3.110349e+05
  -1.221912e+05  -7.871433e+05
   8.491097e+05  -9.175186e+05
   1.411899e+06  -3.541562e+05
   1.035929e+06   6.621725e+05
  -2.087290e+05   1.415039e+06
  -1.658684e+06   1.103112e+06
  -2.232533e+06  -3.980390e+05
  -1.182166e+06  -2.045108e+06
   9.477909e+05  -2.385262e+06
   2.507942e+06  -1.091883e+06
   2.334411e+06   6.006165e+05
   9.443938e+05   1.285036e+06
  -1.908969e+05   8.941742e+05
  -3.257963e+05   4.826824e+05
   1.304558e+04   7.658094e+05
  -2.592548e+04   1.344411e+06
  -6.291639e+05   1.333142e+06
  -1.292735e+06   3.747380e+05
  -1.381637e+06  -1.015792e+06
  -6.350403e+05  -1.856378e+06
   5.532743e+05  -1.452644e+06
   1.270799e+06  -4.182209e+04
   8.434751e+05   1.258518e+06
  -3.628653e+05   1.399805e+06
  -1.167641e+06   4.072446e+05
  -8.286895e+05  -7.161287e+05
   1.226509e+05  -1.097815e+06
   5.491420e+05  -7.835552e+05
   8.477373e+04  -3.933843e+05
  -4.548755e+05  -3.059144e+05
  -8.205311e+04  -3.743725e+05
   1.148053e+06  -2.458410e+05
   2.084265e+06   2.603022e+05
   1.645210e+06   9.810393e+05
  -1.382875e+04   1.444933e+06
  -1.569489e+06   1.201908e+06
  -1.816837e+06   3.249350e+05
  -8.298210e+05  -4.968404e+05
   2.554580e+05  -5.925880e+05
   5.152848e+05  -3.547422e+04
   5.731073e+04   4.439706e+05
  -4.159618e+05   2.850413e+05
  -4.980182e+05  -3.187788e+05
  -3.163242e+05  -7.021302e+05
  -1.467327e+05  -4.736592e+05
  -1.254611e+05   7.781715e+04
  -2.358810e+05   2.774163e+05
  -2.763155e+05  -2.219541e+05
   8.050093e+04  -9.760930e+05
   8.498028e+05  -1.102740e+06
   1.386987e+06  -2.494631e+05
   9.253037e+05   8.750957e+05
  -3.669639e+05   1.181002e+06
  -1.261534e+06   4.199034e+05
  -7.604114e+05  -5.262262e+05
   6.774306e+05  -6.650235e+05
   1.561725e+06   4.628693e+04
   9.854093e+05   8.177222e+05
  -4.701684e+05   9.671228e+05
  -1.450339e+06   4.876774e+05
  -1.194517e+06  -1.606670e+05
  -1.366888e+05  -4.932119e+05
   6.352377e+05  -2.759898e+05
   4.046542e+05   2.886400e+05
  -5.417342e+05   5.655130e+05
  -1.185545e+06   2.313211e+03
  -7.587705e+05  -1.130589e+06
   4.646332e+05  -1.738588e+06
   1.413489e+06  -9.795044e+05
   1.286235e+06   6.765118e+05
   2.926314e+05   1.758348e+06
  -6.702189e+05   1.295745e+06
  -9.143760e+05  -1.575106e+05
  -4.538971e+05  -1.161760e+06
   2.066779e+05  -9.457429e+05
   5.621860e+05  -9.241632e+04
   4.532407e+05   3.433271e+05
   1.396855e+05   1.157259e+05
   5.420405e+04  -8.608372e+04
   3.318185e+05   3.050325e+05
   5.655411e+05   9.443102e+05
   2.034440e+05   1.048577e+06
  -7.310216e+05   4.131594e+05
  -1.476999e+06  -3.891303e+05
  -1.272206e+06  -7.646739e+05
  -2.111872e+05  -6.904993e+05
   7.940327e+05  -4.638421e+05
   9.531933e+05  -2.169649e+05
   3.852050e+05   5.731107e+04
  -1.208201e+05   2.356529e+05
  -6.183456e+04   1.817210e+05
   2.282997e+05   5.352878e+04
   7.375137e+04   1.286373e+05
  -6.007776e+05   2.897125e+05
  -1.046593e+06   5.681989e+04
  -5.289487e+05  -6.776920e+05
   7.338360e+05  -1.245385e+06
   1.679571e+06  -8.729420e+05
   1.481919e+06   3.315049e+05
   3.690092e+05   1.375845e+06
  -6.993585e+05   1.422632e+06
  -1.016863e+06   6.231464e+05
  -6.602471e+05  -1.688731e+05
  -1.721392e+05  -3.512962e+05
   3.027225e+04  -9.993160e+04
  -9.127702e+04  -1.038963e+04
  -2.968962e+05  -3.603922e+05
  -2.725902e+05  -7.881135e+05
   1.313431e+05  -6.958500e+05
   6.779596e+05   4.940839e+04
   8.198096e+05   8.748482e+05
   2.255116e+05   1.028003e+06
  -7.101804e+05   3.372498e+05
  -1.090041e+06  -6.148723e+05
  -4.410549e+05  -1.067405e+06
   6.639509e+05  -7.505375e+05
   1.140167e+06  -3.885999e+03
   5.882879e+05   6.103608e+05
  -2.515255e+05   7.324370e+05
  -3.933721e+05   3.950180e+05
   2.067125e+05  -2.519597e+04
   6.331169e+05  -8.564194e+04
   1.779315e+05   3.067329e+05
  -7.799493e+05   7.182127e+05
  -1.253040e+06   5.774709e+05
  -8.073864e+05  -1.672652e+05
   4.128745e+04  -8.871601e+05
   5.357774e+05  -8.986242e+05
   4.579073e+05  -2.137665e+05
   1.064457e+05   4.575505e+05
  -2.050444e+05   4.712762e+05
  -3.597835e+05  -8.656763e+04
  -2.944541e+05  -5.574886e+05
   1.841521e+04  -4.640115e+05
   3.946156e+05   3.371638e+03
   5.017312e+05   2.776194e+05
   2.456376e+05   1.050584e+05
  -6.059241e+04  -1.789421e+05
  -8.075220e+04  -1.007126e+05
   8.973246e+04   3.299835e+05
   5.823303e+04   5.988783e+05
  -2.842581e+05   3.105312e+05
  -5.352920e+05  -3.055423e+05
  -2.671910e+05  -6.333628e+05
   3.674284e+05  -3.600108e+05
   7.072453e+05   2.110791e+05
   3.108920e+05   5.397202e+05
  -4.938689e+05   4.011319e+05
  -9.079740e+05  -2.199313e+03
  -5.128979e+05  -3.448041e+05
   2.686736e+05  -4.472440e+05
   6.346360e+05  -3.043568e+05
   2.800792e+05  -3.861274e+04
  -2.979683e+05   1.262632e+05
  -3.954402e+05   9.680884e+03
   1.098979e+05  -2.761684e+05
   6.619536e+05  -3.244895e+05
