
 $NMID
 id='ANONYMOUS ', fmtdat='(2E16.6)'
 volume=1.0
 tramp=1.0
 $END
   2.882850e+07   3.381598e+06
   1.637599e+07   1.674681e+07
  -3.492992e+06   1.798812e+07
  -1.357556e+07   9.044648e+06
  -9.214014e+06  -1.056409e+06
   5.463856e+05  -4.763385e+06
   5.368963e+06  -1.160963e+06
   2.977898e+06   4.731997e+06
  -2.238514e+06   6.600611e+06
  -5.262582e+06   2.307114e+06
  -4.064402e+06  -3.942302e+06
  -1.429537e+05  -5.661505e+06
   2.773499e+06  -1.128417e+06
   1.821653e+06   4.506666e+06
  -1.989474e+06   4.977345e+06
  -4.481348e+06  -2.091958e+05
  -2.664701e+06  -5.757041e+06
   2.122961e+06  -6.639893e+06
   5.779177e+06  -2.744787e+06
   5.537248e+06   2.149440e+06
   2.244220e+06   4.470800e+06
  -8.000814e+05   3.641326e+06
  -9.727209e+05   1.860571e+06
   1.130075e+06   1.652620e+06
   2.106529e+06   3.227382e+06
  -5.869805e+05   4.228840e+06
  -5.236019e+06   2.510575e+06
  -7.159625e+06  -1.116861e+06
  -3.973035e+06  -3.640375e+06
   1.389315e+06  -3.156572e+06
   3.837853e+06  -6.004206e+05
   1.669546e+06   1.657325e+06
  -2.108687e+06   1.925154e+06
  -3.597069e+06   1.997594e+04
  -1.915286e+06  -2.683072e+06
   7.639877e+05  -3.779707e+06
   1.957411e+06  -1.855893e+06
   1.088628e+06   1.356326e+06
  -4.256702e+05   2.226333e+06
  -7.414562e+05  -3.305839e+05
   5.679792e+05  -2.956281e+06
   1.992070e+06  -1.958389e+06
   1.628077e+06   1.629345e+06
  -6.060147e+05   3.171476e+06
  -2.589578e+06   4.701604e+05
  -2.074321e+06  -3.423426e+06
   9.601721e+05  -4.113617e+06
   4.105026e+06  -9.546507e+05
   4.598067e+06   2.835797e+06
   1.767899e+06   4.057589e+06
  -2.212982e+06   2.304446e+06
  -4.052457e+06  -4.995920e+05
  -2.329141e+06  -2.090612e+06
   1.038877e+06  -1.507692e+06
   2.691082e+06   3.091937e+05
   1.359229e+06   1.407137e+06
  -9.340862e+05   7.809145e+05
  -1.448235e+06  -5.922037e+05
   7.896118e+04  -1.019251e+06
   1.409670e+06  -1.076820e+05
   6.718567e+05   9.933741e+05
  -1.493195e+06   1.066569e+06
  -2.739513e+06  -1.116686e+05
  -1.480450e+06  -1.921897e+06
   1.612560e+06  -3.272455e+06
   4.243792e+06  -2.915954e+06
   4.494904e+06  -4.330876e+05
   2.460190e+06   2.773988e+06
   3.751639e+04   4.352662e+06
  -1.010201e+06   3.443077e+06
  -7.337065e+05   1.636507e+06
  -5.626620e+05   9.049857e+05
  -1.381521e+06   1.162540e+06
  -2.504786e+06   7.390989e+05
  -2.613712e+06  -1.017631e+06
  -1.258211e+06  -2.636011e+06
   7.465375e+05  -2.281828e+06
   2.034674e+06   1.359040e+04
   1.629202e+06   2.302086e+06
  -3.430318e+05   2.639306e+06
  -2.481276e+06   8.168535e+05
  -3.037972e+06  -1.622889e+06
  -1.568465e+06  -2.870777e+06
   4.942183e+05  -2.415477e+06
   1.400728e+06  -1.265946e+06
   1.102119e+06  -6.738703e+05
   1.114557e+06  -7.708092e+05
   2.313823e+06  -6.190921e+05
   3.539975e+06   5.258373e+05
   2.880275e+06   2.296173e+06
   5.506753e+04   3.529623e+06
  -2.981870e+06   3.253108e+06
  -3.895500e+06   1.430156e+06
  -2.217574e+06  -8.819718e+05
   2.883267e+05  -2.116047e+06
   1.385277e+06  -1.458524e+06
   4.525120e+05   2.077236e+05
  -1.121423e+06   1.032196e+06
  -1.554813e+06   2.212550e+05
  -5.394972e+05  -1.011473e+06
   6.273133e+05  -9.785057e+05
   6.286755e+05   2.754064e+05
  -4.778069e+05   9.668770e+05
  -1.477738e+06  -1.795551e+05
  -1.262455e+06  -2.284643e+06
   2.748048e+05  -3.239150e+06
   2.237859e+06  -1.952914e+06
   3.304688e+06   6.254771e+05
   2.609125e+06   2.542808e+06
   5.608582e+05   2.617524e+06
  -1.257764e+06   1.302022e+06
  -1.491222e+06   6.148794e+04
  -4.337212e+05  -5.636256e+04
   3.039637e+05   6.562452e+05
  -3.000269e+05   1.039642e+06
  -1.471653e+06   4.242873e+05
  -1.639170e+06  -6.423331e+05
  -3.921609e+05  -1.087822e+06
   9.776498e+05  -5.296310e+05
   9.269869e+05   3.814487e+05
  -6.143587e+05   6.918626e+05
  -2.103669e+06   1.700839e+04
  -1.912096e+06  -1.191261e+06
   3.187961e+04  -1.986950e+06
   2.095969e+06  -1.622150e+06
   2.488052e+06  -2.425910e+05
   1.008360e+06   1.046847e+06
  -7.845956e+05   1.129930e+06
  -1.190521e+06   7.145101e+04
  -4.039498e+04  -8.593671e+05
   1.312488e+06  -5.668050e+05
   1.497889e+06   6.364750e+05
   4.244613e+05   1.424270e+06
  -8.253509e+05   9.934947e+05
  -1.131228e+06  -8.738581e+04
  -3.496736e+05  -6.076392e+05
   5.921580e+05  -5.339925e+04
   5.693416e+05   9.158853e+05
  -5.920313e+05   1.203471e+06
  -1.797941e+06   3.584800e+05
  -1.727142e+06  -1.012756e+06
  -2.764345e+05  -1.803648e+06
   1.242554e+06  -1.397527e+06
   1.490089e+06  -2.070224e+05
   4.899200e+05   7.323137e+05
  -5.544383e+05   7.342905e+05
  -6.587912e+05   5.273168e+04
   1.298089e+04  -4.814652e+05
   5.619305e+05  -3.661406e+05
   3.964189e+05   8.309440e+04
  -2.233978e+05   1.552291e+05
  -5.074583e+05  -3.962637e+05
   7.104508e+04  -9.921485e+05
   1.182561e+06  -7.887309e+05
   1.818885e+06   3.900733e+05
   1.229299e+06   1.740468e+06
  -2.548232e+05   2.173601e+06
  -1.477832e+06   1.343836e+06
  -1.619045e+06  -3.977464e+04
  -9.508903e+05  -9.232269e+05
  -3.552758e+05  -8.861522e+05
  -2.738951e+05  -4.099630e+05
  -3.483566e+05  -2.397968e+05
  -2.097292e+04  -5.554070e+05
   7.339393e+05  -8.043502e+05
   1.319523e+06  -3.573829e+05
   1.056592e+06   6.899528e+05
  -1.515691e+05   1.440314e+06
  -1.560932e+06   1.025286e+06
  -2.044061e+06  -4.464320e+05
  -1.044991e+06  -1.849236e+06
   8.068332e+05  -2.046754e+06
   2.157811e+06  -9.476960e+05
   2.129071e+06   4.750998e+05
   1.038790e+06   1.183639e+06
  -6.756139e+04   1.014433e+06
  -4.779801e+05   6.315482e+05
  -3.382106e+05   6.659642e+05
  -2.616595e+05   1.014821e+06
  -5.967996e+05   1.006328e+06
  -1.080963e+06   2.031753e+05
  -1.121978e+06  -1.014527e+06
  -4.228507e+05  -1.709101e+06
   6.141276e+05  -1.261558e+06
   1.154735e+06   3.011892e+03
   7.240289e+05   1.083600e+06
  -2.656758e+05   1.205870e+06
  -8.917516e+05   4.584197e+05
  -6.648111e+05  -4.242247e+05
  -1.693821e+03  -8.158155e+05
   3.041260e+05  -6.889631e+05
   2.046656e+03  -4.374731e+05
  -3.434007e+05  -3.560999e+05
  -2.022031e+04  -3.618878e+05
   9.569780e+05  -1.737038e+05
   1.725395e+06   3.205792e+05
   1.399651e+06   8.986569e+05
   3.637685e+04   1.172576e+06
  -1.307083e+06   9.168140e+05
  -1.576042e+06   2.784678e+05
  -7.563714e+05  -3.004785e+05
   1.917483e+05  -4.191050e+05
   4.074805e+05  -7.607155e+04
  -4.161394e+04   2.859174e+05
  -4.550262e+05   1.933169e+05
  -3.998142e+05  -3.236557e+05
  -9.110617e+04  -6.945519e+05
   3.650009e+04  -4.468649e+05
  -1.311694e+05   1.608771e+05
  -3.366223e+05   3.582971e+05
  -2.583145e+05  -1.999327e+05
   2.088046e+05  -9.177118e+05
   8.274658e+05  -8.988164e+05
   1.088326e+06  -2.641661e+04
   5.962207e+05   8.558755e+05
  -4.136644e+05   8.938775e+05
  -1.062434e+06   1.444689e+05
  -6.216889e+05  -5.715356e+05
   6.130609e+05  -5.780384e+05
   1.459171e+06   6.235292e+04
   1.022756e+06   7.550091e+05
  -3.395655e+05   9.543479e+05
  -1.368771e+06   5.493692e+05
  -1.192604e+06  -1.114589e+05
  -1.672155e+05  -4.853369e+05
   5.696207e+05  -2.759269e+05
   2.949914e+05   2.414061e+05
  -5.969505e+05   3.991986e+05
  -1.052892e+06  -1.941329e+05
  -4.657733e+05  -1.131586e+06
   7.072610e+05  -1.475403e+06
   1.425157e+06  -6.756843e+05
   1.102684e+06   7.657652e+05
   1.104420e+05   1.648407e+06
  -7.064630e+05   1.203078e+06
  -8.439267e+05  -1.175120e+05
  -4.237489e+05  -1.073519e+06
   1.316172e+05  -9.123625e+05
   4.788586e+05  -9.509769e+04
   4.778925e+05   3.652140e+05
   2.200033e+05   1.462700e+05
   1.622488e+04  -1.053207e+05
   1.321647e+05   2.343199e+05
   3.880328e+05   8.711411e+05
   2.299164e+05   9.896103e+05
  -5.544016e+05   3.415618e+05
  -1.334587e+06  -4.689706e+05
  -1.215576e+06  -7.897769e+05
  -1.534592e+05  -6.188384e+05
   8.593582e+05  -3.498085e+05
   9.208640e+05  -1.633344e+05
   2.589184e+05   2.215082e+04
  -1.683049e+05   1.943142e+05
   5.022498e+04   2.189770e+05
   3.313108e+05   1.348492e+05
   5.976745e+03   1.309533e+05
  -7.065414e+05   1.634717e+05
  -9.357337e+05  -7.886898e+04
  -2.306274e+05  -6.396918e+05
   8.961771e+05  -9.847117e+05
   1.510141e+06  -5.437170e+05
   1.151457e+06   5.072322e+05
   1.583850e+05   1.299133e+06
  -7.269272e+05   1.178501e+06
  -9.729913e+05   3.830816e+05
  -5.995478e+05  -2.837469e+05
  -6.821123e+04  -3.310245e+05
   1.468128e+05  -1.338489e+04
  -3.972620e+04   6.777678e+04
  -2.938787e+05  -3.134347e+05
  -2.250735e+05  -7.349511e+05
   2.087464e+05  -5.888375e+05
   6.323657e+05   1.926660e+05
   5.831840e+05   9.504016e+05
  -3.154994e+04   9.363101e+05
  -7.482355e+05   1.183764e+05
  -8.850235e+05  -7.702930e+05
  -2.145518e+05  -9.992608e+05
   6.918599e+05  -5.226496e+05
   9.685385e+05   1.425827e+05
   4.014016e+05   5.250199e+05
  -2.901597e+05   5.256470e+05
  -2.936248e+05   2.911340e+05
   2.982791e+05   3.882478e+04
   6.080816e+05   1.888973e+03
   9.251871e+04   2.729301e+05
  -7.723650e+05   5.876057e+05
  -1.091055e+06   4.816612e+05
  -6.018506e+05  -1.435916e+05
   1.335511e+05  -7.521840e+05
   4.749057e+05  -7.122540e+05
   3.250888e+05  -6.766419e+04
  -6.837792e+03   4.686056e+05
  -2.526217e+05   3.451155e+05
  -3.226889e+05  -2.113158e+05
  -1.943949e+05  -5.355693e+05
   9.009363e+04  -3.266602e+05
   3.512967e+05   8.568845e+04
   3.893896e+05   2.316781e+05
   2.093629e+05   5.756546e+04
   1.367106e+04  -9.036561e+04
  -5.977142e+04   6.119610e+04
  -8.882438e+04   3.709482e+05
  -2.033912e+05   4.384608e+05
  -3.513716e+05   7.108055e+04
  -3.206604e+05  -4.484680e+05
  -5.317846e+02  -6.147653e+05
   4.186161e+05  -2.378519e+05
   5.493891e+05   3.292841e+05
   1.737186e+05   5.584715e+05
  -4.561774e+05   2.955114e+05
  -7.585814e+05  -1.407283e+05
  -3.966416e+05  -3.660308e+05
   2.886346e+05  -3.002610e+05
   5.767044e+05  -1.165794e+05
   1.781990e+05   1.078825e+04
  -3.914459e+05   3.253042e+03
  -4.009932e+05  -1.435973e+05
   2.168089e+05  -3.046239e+05
   7.771883e+05  -2.202926e+05
