
 $NMID
 id='ANONYMOUS ', fmtdat='(2E16.6)'
 volume=1.0
 tramp=1.0
 $END
  -3.489581e+07   2.018837e+06
  -2.330939e+07  -1.821663e+07
   1.274094e+06  -2.331198e+07
   1.579218e+07  -1.249143e+07
   1.160652e+07   1.301047e+06
  -5.011711e+05   6.162757e+06
  -6.621971e+06   1.271921e+06
  -3.649381e+06  -5.812701e+06
   2.607520e+06  -7.709171e+06
   6.202949e+06  -2.910113e+06
   5.139809e+06   3.910035e+06
   8.875825e+05   6.186191e+06
  -2.776278e+06   1.764547e+06
  -2.271427e+06  -4.473255e+06
   2.011892e+06  -5.556121e+06
   5.386351e+06  -9.650778e+04
   3.824053e+06   6.434731e+06
  -1.603576e+06   8.084677e+06
  -6.249792e+06   4.242538e+06
  -6.822746e+06  -1.211842e+06
  -3.850519e+06  -4.512284e+06
  -3.512085e+05  -4.680525e+06
   8.593703e+05  -3.156517e+06
  -5.410265e+05  -2.195442e+06
  -1.806461e+06  -2.919743e+06
   1.975500e+05  -4.042264e+06
   4.833088e+06  -3.161341e+06
   7.481675e+06   9.585632e+04
   4.863100e+06   3.152887e+06
  -5.894109e+05   3.422433e+06
  -3.459571e+06   1.220708e+06
  -1.698431e+06  -1.033924e+06
   1.723172e+06  -1.533399e+06
   3.123187e+06  -1.243547e+05
   1.899391e+06   2.189853e+06
  -2.041470e+05   3.581978e+06
  -1.553199e+06   2.379448e+06
  -1.507272e+06  -7.027331e+05
  -3.843228e+05  -2.290603e+06
   4.739965e+05  -2.829769e+05
  -2.657946e+05   2.676119e+06
  -1.945146e+06   2.139931e+06
  -2.052237e+06  -1.825111e+06
   5.719127e+05  -4.096937e+06
   3.554431e+06  -1.227872e+06
   3.360708e+06   3.787512e+06
  -4.835131e+05   5.298213e+06
  -4.643325e+06   1.870854e+06
  -5.403323e+06  -2.715789e+06
  -2.149901e+06  -4.389675e+06
   2.344009e+06  -2.596728e+06
   4.413283e+06   4.426225e+05
   2.552378e+06   2.292361e+06
  -1.223648e+06   1.852628e+06
  -3.182356e+06  -1.316387e+05
  -1.690152e+06  -1.582307e+06
   1.011610e+06  -1.042371e+06
   1.564917e+06   5.970018e+05
  -3.658369e+05   1.123107e+06
  -1.869198e+06  -1.825027e+05
  -6.639811e+05  -1.720650e+06
   2.111781e+06  -1.693816e+06
   3.483015e+06   3.754041e+03
   1.986220e+06   2.238988e+06
  -1.250695e+06   3.794559e+06
  -3.992154e+06   3.606031e+06
  -4.650517e+06   1.144865e+06
  -3.102910e+06  -2.453719e+06
  -6.623750e+05  -4.606438e+06
   9.036839e+05  -3.846826e+06
   9.603324e+05  -1.649748e+06
   5.504635e+05  -5.685786e+05
   9.694572e+05  -9.791042e+05
   2.067925e+06  -9.833599e+05
   2.499596e+06   5.474939e+05
   1.448122e+06   2.258068e+06
  -4.601069e+05   2.135577e+06
  -1.844418e+06   6.494634e+04
  -1.672917e+06  -2.125836e+06
   1.057619e+05  -2.630909e+06
   2.366803e+06  -1.147093e+06
   3.350836e+06   1.181202e+06
   2.179600e+06   2.769884e+06
  -4.826954e+04   2.788191e+06
  -1.364087e+06   1.771858e+06
  -1.281333e+06   9.612309e+05
  -1.253660e+06   8.663780e+05
  -2.419566e+06   7.421486e+05
  -3.725760e+06  -3.321559e+05
  -3.128042e+06  -2.178742e+06
  -2.893499e+05  -3.600881e+06
   2.768827e+06  -3.503211e+06
   3.746078e+06  -1.770848e+06
   2.264338e+06   6.030812e+05
  -3.812843e+04   2.046993e+06
  -1.166929e+06   1.571348e+06
  -4.582374e+05  -1.289230e+05
   1.016078e+06  -1.123966e+06
   1.584006e+06  -3.669379e+05
   6.906012e+05   9.729661e+05
  -5.317159e+05   1.004131e+06
  -5.894617e+05  -3.010040e+05
   6.163924e+05  -9.702654e+05
   1.691699e+06   3.567732e+05
   1.318629e+06   2.575041e+06
  -4.581315e+05   3.392028e+06
  -2.451554e+06   1.898292e+06
  -3.365646e+06  -6.905588e+05
  -2.599433e+06  -2.484233e+06
  -6.263551e+05  -2.554475e+06
   1.155441e+06  -1.367235e+06
   1.460572e+06  -1.744332e+05
   4.411632e+05   2.752981e+04
  -3.502250e+05  -6.503496e+05
   2.457970e+05  -1.125014e+06
   1.522005e+06  -5.689751e+05
   1.766743e+06   5.810955e+05
   4.652484e+05   1.139165e+06
  -9.856467e+05   5.925450e+05
  -9.239299e+05  -3.636461e+05
   6.597861e+05  -6.886806e+05
   2.126487e+06  -2.125589e+04
   1.899462e+06   1.157452e+06
  -1.183647e+04   1.973138e+06
  -2.043124e+06   1.709165e+06
  -2.501338e+06   3.807172e+05
  -1.112344e+06  -1.017974e+06
   7.137588e+05  -1.254082e+06
   1.247259e+06  -1.944330e+05
   1.433229e+05   8.799004e+05
  -1.298088e+06   6.784829e+05
  -1.570944e+06  -5.763551e+05
  -4.771567e+05  -1.451772e+06
   8.443003e+05  -1.035038e+06
   1.174637e+06   8.669976e+04
   3.594872e+05   6.428151e+05
  -6.352318e+05   1.017996e+05
  -6.582574e+05  -8.926495e+05
   5.004388e+05  -1.262552e+06
   1.782583e+06  -5.001216e+05
   1.822097e+06   8.951153e+05
   4.060139e+05   1.816899e+06
  -1.184900e+06   1.510305e+06
  -1.515273e+06   2.921827e+05
  -5.284941e+05  -7.340649e+05
   5.350946e+05  -7.729970e+05
   6.339909e+05  -7.953036e+04
  -3.863907e+04   4.547034e+05
  -5.389021e+05   3.300819e+05
  -3.166735e+05  -9.672607e+04
   3.033082e+05  -1.283461e+05
   5.521285e+05   4.409093e+05
  -4.121388e+04   1.045915e+06
  -1.168359e+06   8.753087e+05
  -1.873276e+06  -2.827459e+05
  -1.364439e+06  -1.682135e+06
   1.213669e+05  -2.202562e+06
   1.423511e+06  -1.411427e+06
   1.618117e+06  -1.071405e+04
   9.391612e+05   8.711898e+05
   3.427110e+05   7.948935e+05
   3.155776e+05   3.125611e+05
   4.366295e+05   2.049448e+05
   8.946491e+04   5.910747e+05
  -7.127932e+05   8.625790e+05
  -1.318229e+06   4.115096e+05
  -1.065970e+06  -6.431086e+05
   1.149611e+05  -1.435813e+06
   1.526830e+06  -1.101124e+06
   2.081645e+06   3.400637e+05
   1.153868e+06   1.828370e+06
  -7.244329e+05   2.151320e+06
  -2.171721e+06   1.086246e+06
  -2.189314e+06  -4.036336e+05
  -1.061594e+06  -1.172129e+06
   7.312524e+04  -9.957904e+05
   4.348187e+05  -5.930763e+05
   2.226720e+05  -6.560879e+05
   1.351637e+05  -1.063881e+06
   5.285734e+05  -1.096141e+06
   1.094340e+06  -3.009211e+05
   1.207007e+06   9.397039e+05
   5.425522e+05   1.691289e+06
  -5.313184e+05   1.309374e+06
  -1.167455e+06   5.952297e+04
  -8.022903e+05  -1.076785e+06
   2.224767e+05  -1.260424e+06
   9.371573e+05  -5.048683e+05
   7.439895e+05   4.455644e+05
   3.328607e+04   8.870532e+05
  -3.228802e+05   7.430210e+05
  -1.068429e+04   4.334027e+05
   3.727508e+05   3.173874e+05
   4.828316e+04   3.541910e+05
  -9.785908e+05   2.434041e+05
  -1.797807e+06  -2.044880e+05
  -1.484834e+06  -8.348040e+05
  -9.548326e+04  -1.229899e+06
   1.293166e+06  -1.048651e+06
   1.603643e+06  -3.677418e+05
   7.994477e+05   3.084900e+05
  -1.707159e+05   4.688352e+05
  -4.305917e+05   9.258659e+04
  -8.964972e+03  -3.094258e+05
   4.252237e+05  -2.237483e+05
   4.293227e+05   2.949659e+05
   1.661786e+05   6.621850e+05
   2.353288e+04   4.300552e+05
   1.324307e+05  -1.449726e+05
   3.082040e+05  -3.380407e+05
   2.705415e+05   1.921770e+05
  -1.393692e+05   9.170369e+05
  -7.723751e+05   9.697727e+05
  -1.122048e+06   1.480979e+05
  -6.980120e+05  -7.962124e+05
   3.368361e+05  -9.611526e+05
   1.063322e+06  -2.647581e+05
   6.628365e+05   5.197563e+05
  -5.930589e+05   6.215327e+05
  -1.471279e+06   3.658907e+03
  -1.039571e+06  -7.321465e+05
   3.319201e+05  -9.762283e+05
   1.364624e+06  -5.876174e+05
   1.193357e+06   8.040553e+04
   1.766097e+05   4.811048e+05
  -5.707805e+05   3.006963e+05
  -3.312026e+05  -2.280308e+05
   5.476646e+05  -4.482256e+05
   1.059607e+06   9.718540e+04
   5.672738e+05   1.073809e+06
  -5.666165e+05   1.520546e+06
  -1.353988e+06   7.868185e+05
  -1.151849e+06  -6.810030e+05
  -2.198830e+05  -1.636116e+06
   6.409586e+05  -1.234977e+06
   8.619900e+05   8.866581e+04
   4.742483e+05   1.067400e+06
  -1.125835e+05   9.261463e+05
  -4.913206e+05   1.197160e+05
  -4.788649e+05  -3.439455e+05
  -2.017264e+05  -1.399146e+05
  -2.329045e+04   1.048941e+05
  -1.924297e+05  -2.215532e+05
  -4.633228e+05  -8.477640e+05
  -2.625926e+05  -9.904805e+05
   5.704087e+05  -3.940520e+05
   1.363593e+06   3.854419e+05
   1.243311e+06   7.298710e+05
   1.948073e+05   6.184978e+05
  -8.129618e+05   3.950949e+05
  -9.094471e+05   2.095281e+05
  -2.902805e+05  -6.733245e+03
   1.449419e+05  -2.024635e+05
  -2.782198e+04  -2.196474e+05
  -3.010653e+05  -1.156764e+05
  -2.565383e+04  -1.217439e+05
   6.573532e+05  -2.032472e+05
   9.411849e+05   2.920687e+03
   3.227132e+05   6.018335e+05
  -7.893317e+05   1.048587e+06
  -1.481085e+06   6.850638e+05
  -1.215028e+06  -3.866090e+05
  -2.582053e+05  -1.277276e+06
   6.470154e+05  -1.246742e+06
   9.352956e+05  -4.730590e+05
   6.056559e+05   2.281272e+05
   1.049687e+05   3.191602e+05
  -1.090905e+05   2.483914e+04
   5.760737e+04  -5.676803e+04
   3.084455e+05   3.113012e+05
   2.653109e+05   7.284487e+05
  -1.574974e+05   6.070646e+05
  -6.284053e+05  -1.320144e+05
  -6.563361e+05  -8.794022e+05
  -6.930792e+04  -9.219297e+05
   7.050682e+05  -1.883477e+05
   9.334806e+05   6.756335e+05
   3.062269e+05   9.740330e+05
  -6.364944e+05   5.908973e+05
  -9.884012e+05  -5.561351e+04
  -4.684557e+05  -5.055057e+05
   2.377781e+05  -5.742303e+05
   2.924117e+05  -3.338734e+05
  -2.691949e+05  -2.407301e+04
  -5.992586e+05   4.174643e+04
  -1.243977e+05  -2.656260e+05
   7.332391e+05  -6.400199e+05
   1.092058e+06  -5.553752e+05
   6.513874e+05   1.039769e+05
  -7.058845e+04   7.711069e+05
  -4.395397e+05   7.721869e+05
  -3.338323e+05   1.264841e+05
  -3.374207e+04  -4.498804e+05
   2.137400e+05  -3.743733e+05
   3.217412e+05   1.661022e+05
   2.364479e+05   5.184294e+05
  -4.640162e+04   3.502722e+05
  -3.520354e+05  -4.944916e+04
  -4.249805e+05  -2.142787e+05
  -2.232996e+05  -5.658836e+04
   1.638826e+04   1.018577e+05
   8.028332e+04  -2.843276e+04
   3.959321e+04  -3.416573e+05
   1.093404e+05  -4.488130e+05
   3.039001e+05  -1.292533e+05
   3.660361e+05   3.773265e+05
   8.418208e+04   5.840498e+05
  -3.817963e+05   2.723046e+05
  -5.789018e+05  -2.632214e+05
  -2.205612e+05  -5.284657e+05
   4.391325e+05  -3.371360e+05
   7.758078e+05   6.532138e+04
   4.300975e+05   3.316734e+05
  -2.550009e+05   3.388902e+05
  -5.601507e+05   1.845198e+05
  -1.946330e+05   1.812665e+04
   3.532593e+05  -3.387905e+04
   3.841899e+05   9.469260e+04
  -1.837461e+05   2.911482e+05
  -7.257613e+05   2.557730e+05
