
 $NMID
 id='ANONYMOUS ', fmtdat='(2E16.6)'
 volume=1.0
 tramp=1.0
 $END
   6.103041e+07   1.127628e+06
   3.581811e+07   3.875638e+07
  -9.113144e+06   4.119524e+07
  -3.024740e+07   1.496896e+07
  -1.751043e+07  -8.240624e+06
   3.934559e+06  -9.982497e+06
   1.052736e+07   1.742500e+06
   2.595848e+06   1.063059e+07
  -6.995545e+06   9.743991e+06
  -1.042925e+07   1.794598e+06
  -7.378960e+06  -6.801648e+06
  -7.209450e+05  -9.210746e+06
   4.324000e+06  -2.912429e+06
   2.704204e+06   5.773285e+06
  -4.196733e+06   6.829716e+06
  -8.427946e+06  -1.684772e+06
  -4.519944e+06  -1.109400e+07
   4.360148e+06  -1.261273e+07
   1.103005e+07  -6.176043e+06
   1.167038e+07   2.384149e+06
   7.107408e+06   8.233569e+06
   6.283809e+05   9.484156e+06
  -3.386063e+06   6.589847e+06
  -2.275312e+06   2.792372e+06
   1.043485e+06   2.113959e+06
   2.949002e+05   4.336256e+06
  -5.706162e+06   4.658767e+06
  -1.028496e+07   4.874458e+05
  -7.524060e+06  -4.484509e+06
  -3.102983e+05  -5.468061e+06
   3.917617e+06  -2.810770e+06
   2.681939e+06  -1.273053e+05
  -4.684466e+05   9.071123e+05
  -2.250674e+06   5.593682e+05
  -2.314532e+06  -1.395089e+06
  -8.078571e+05  -4.128937e+06
   1.947362e+06  -4.164026e+06
   3.582714e+06   7.956919e+04
   1.897016e+06   3.973571e+06
  -8.863154e+05   2.198889e+06
  -4.243690e+05  -2.524415e+06
   2.630574e+06  -2.377209e+06
   2.533542e+06   3.509485e+06
  -2.839877e+06   6.558623e+06
  -7.637492e+06   9.062739e+05
  -5.414443e+06  -7.647645e+06
   2.289929e+06  -9.203140e+06
   8.075238e+06  -2.464310e+06
   7.326913e+06   4.914150e+06
   1.791367e+06   6.466675e+06
  -3.771102e+06   2.772523e+06
  -5.523328e+06  -1.781908e+06
  -2.442841e+06  -3.785618e+06
   2.682059e+06  -2.277507e+06
   4.839556e+06   1.121003e+06
   2.008881e+06   2.985321e+06
  -1.887576e+06   1.433989e+06
  -1.808360e+06  -1.137985e+06
   1.497476e+06  -8.988731e+05
   2.603927e+06   2.048273e+06
  -8.574736e+05   3.757545e+06
  -5.132099e+06   1.917737e+06
  -5.689086e+06  -1.650125e+06
  -2.380745e+06  -4.364768e+06
   2.006395e+06  -5.617179e+06
   5.378962e+06  -5.117378e+06
   6.638929e+06  -1.810197e+06
   4.899325e+06   3.423893e+06
   9.374079e+05   6.609013e+06
  -2.107860e+06   5.031349e+06
  -1.934686e+06   1.184315e+06
  -1.064659e+05  -3.604272e+05
   1.479836e+05   1.034163e+06
  -1.634949e+06   1.956293e+06
  -2.979448e+06   3.218265e+05
  -2.173402e+06  -1.992644e+06
  -7.111313e+04  -2.242977e+06
   1.585316e+06  -2.245911e+05
   1.732367e+06   2.169425e+06
  -1.171428e+04   3.095373e+06
  -2.949913e+06   1.756621e+06
  -4.780543e+06  -1.292855e+06
  -3.433921e+06  -4.074808e+06
   9.384020e+04  -4.575935e+06
   2.518710e+06  -2.912041e+06
   2.454780e+06  -1.172075e+06
   1.985531e+06  -6.622717e+05
   3.132734e+06  -4.301716e+05
   4.598220e+06   8.995579e+05
   3.644087e+06   2.999084e+06
   6.608258e+04   4.372029e+06
  -3.446251e+06   4.082798e+06
  -4.435697e+06   2.212699e+06
  -2.822633e+06  -4.452353e+05
  -3.067629e+05  -2.364552e+06
   1.162473e+06  -2.058171e+06
   6.036966e+05   3.175778e+04
  -1.161687e+06   1.381288e+06
  -2.040748e+06   3.968893e+05
  -9.795095e+05  -1.303349e+06
   5.514973e+05  -1.173569e+06
   4.188957e+05   4.226905e+05
  -1.182234e+06   6.715618e+05
  -1.935920e+06  -1.499429e+06
  -5.270507e+05  -3.765872e+06
   1.861798e+06  -3.526928e+06
   3.376687e+06  -1.001181e+06
   3.413940e+06   1.652829e+06
   2.287914e+06   2.939182e+06
   4.170862e+05   2.732190e+06
  -1.323849e+06   1.527801e+06
  -1.667377e+06   2.282425e+05
  -5.217718e+05  -5.672716e+04
   3.657189e+05   8.061644e+05
  -4.772913e+05   1.429604e+06
  -2.062576e+06   5.799383e+05
  -2.154461e+06  -1.004988e+06
  -3.683424e+05  -1.530291e+06
   1.262736e+06  -5.766129e+05
   9.150799e+05   5.022865e+05
  -9.243653e+05   5.007411e+05
  -2.276260e+06  -4.215888e+05
  -1.771898e+06  -1.469146e+06
   3.255596e+05  -2.048313e+06
   2.472954e+06  -1.684648e+06
   2.943270e+06  -2.310171e+05
   1.271463e+06   1.380102e+06
  -1.015908e+06   1.600014e+06
  -1.687193e+06   1.763982e+05
  -2.065583e+05  -1.167635e+06
   1.632132e+06  -7.605279e+05
   1.808891e+06   8.760973e+05
   3.024794e+05   1.764205e+06
  -1.198426e+06   9.904244e+05
  -1.320612e+06  -3.868017e+05
  -2.216330e+05  -8.447995e+05
   8.639762e+05  -3.703764e+04
   7.715094e+05   1.139729e+06
  -6.317419e+05   1.511267e+06
  -2.144533e+06   5.520309e+05
  -2.153007e+06  -1.148972e+06
  -3.709537e+05  -2.218924e+06
   1.572433e+06  -1.720890e+06
   1.843653e+06  -1.801741e+05
   5.057397e+05   9.388448e+05
  -7.219255e+05   8.342171e+05
  -6.602024e+05   7.171313e+04
   1.439157e+05  -3.534626e+05
   5.026849e+05  -1.862911e+05
   8.572625e+04   6.095317e+04
  -4.944929e+05  -1.300936e+05
  -5.216772e+05  -7.540750e+05
   2.648978e+05  -1.261641e+06
   1.494383e+06  -9.192051e+05
   2.205821e+06   4.830700e+05
   1.524076e+06   2.095109e+06
  -2.727211e+05   2.563009e+06
  -1.736130e+06   1.450532e+06
  -1.769676e+06  -1.795083e+05
  -8.638945e+05  -9.453642e+05
  -3.190291e+05  -6.490615e+05
  -5.304536e+05  -2.139298e+05
  -6.896868e+05  -3.577504e+05
  -8.558888e+04  -8.336762e+05
   9.566441e+05  -9.344008e+05
   1.536575e+06  -3.020952e+05
   1.078918e+06   7.786056e+05
  -3.053072e+05   1.518160e+06
  -1.843853e+06   1.088789e+06
  -2.367448e+06  -5.589497e+05
  -1.149665e+06  -2.255358e+06
   1.140290e+06  -2.494298e+06
   2.736407e+06  -1.029805e+06
   2.470195e+06   7.689850e+05
   9.535572e+05   1.437559e+06
  -2.535757e+05   9.674695e+05
  -3.979926e+05   5.077134e+05
  -5.629676e+04   8.056650e+05
  -1.148684e+05   1.413035e+06
  -7.432063e+05   1.375162e+06
  -1.393130e+06   3.212036e+05
  -1.408811e+06  -1.168157e+06
  -5.627365e+05  -2.020340e+06
   6.811191e+05  -1.516174e+06
   1.362187e+06   2.990292e+04
   8.317354e+05   1.389109e+06
  -4.596283e+05   1.476184e+06
  -1.263267e+06   3.841906e+05
  -8.488580e+05  -7.919927e+05
   1.770334e+05  -1.158639e+06
   6.156116e+05  -8.139896e+05
   1.098352e+05  -4.258982e+05
  -4.615668e+05  -3.568449e+05
  -6.177734e+04  -4.053305e+05
   1.234743e+06  -1.982320e+05
   2.201399e+06   3.961784e+05
   1.699429e+06   1.140265e+06
  -8.670990e+04   1.537646e+06
  -1.732599e+06   1.189745e+06
  -1.957807e+06   2.475055e+05
  -8.668699e+05  -5.667190e+05
   2.991500e+05  -6.123218e+05
   5.506904e+05  -1.494365e+04
   3.338448e+04   4.657145e+05
  -4.652228e+05   2.737821e+05
  -5.100158e+05  -3.701235e+05
  -2.814968e+05  -7.670212e+05
  -1.162522e+05  -5.105664e+05
  -1.434723e+05   8.301701e+04
  -2.821480e+05   2.880627e+05
  -2.843753e+05  -2.533199e+05
   1.529488e+05  -1.038586e+06
   9.728002e+05  -1.123371e+06
   1.478481e+06  -1.797889e+05
   9.201540e+05   9.850821e+05
  -4.591019e+05   1.227090e+06
  -1.359262e+06   3.630639e+05
  -7.759420e+05  -6.112770e+05
   7.617613e+05  -6.723376e+05
   1.672785e+06   1.403088e+05
   1.019574e+06   9.369312e+05
  -5.535956e+05   1.019005e+06
  -1.589066e+06   4.477511e+05
  -1.280562e+06  -2.403382e+05
  -1.208338e+05  -5.406339e+05
   6.963417e+05  -2.623019e+05
   4.122064e+05   3.275515e+05
  -6.162541e+05   5.622433e+05
  -1.260833e+06  -7.900037e+04
  -7.273978e+05  -1.253741e+06
   6.143871e+05  -1.817198e+06
   1.572409e+06  -9.473396e+05
   1.328841e+06   8.065565e+05
   2.003635e+05   1.898213e+06
  -7.994716e+05   1.348837e+06
  -9.726969e+05  -2.184414e+05
  -4.213093e+05  -1.271869e+06
   2.719383e+05  -1.007962e+06
   6.053064e+05  -6.958429e+04
   4.696272e+05   4.000237e+05
   1.491165e+05   1.386688e+05
   6.125761e+04  -9.258029e+04
   3.262906e+05   3.355674e+05
   5.421659e+05   1.039650e+06
   1.613063e+05   1.139357e+06
  -7.961507e+05   4.029560e+05
  -1.555404e+06  -5.087661e+05
  -1.321147e+06  -9.004245e+05
  -1.847343e+05  -7.493845e+05
   8.850201e+05  -4.413587e+05
   1.036407e+06  -1.741554e+05
   4.032038e+05   7.714707e+04
  -1.466330e+05   2.418250e+05
  -6.986186e+04   1.995153e+05
   2.483545e+05   8.177681e+04
   6.636462e+04   1.408168e+05
  -6.690504e+05   2.625686e+05
  -1.118219e+06  -7.821714e+03
  -5.075303e+05  -7.481728e+05
   8.689802e+05  -1.272417e+06
   1.837505e+06  -8.213423e+05
   1.545371e+06   4.475325e+05
   3.019888e+05   1.491835e+06
  -8.320645e+05   1.472102e+06
  -1.121342e+06   5.938951e+05
  -6.929107e+05  -2.284524e+05
  -1.571476e+05  -3.836488e+05
   4.475872e+04  -9.462858e+04
  -9.661659e+04  -8.384038e+03
  -3.003157e+05  -4.025109e+05
  -2.452468e+05  -8.602597e+05
   1.853654e+05  -7.311950e+05
   7.192664e+05   1.035403e+05
   8.101972e+05   9.896592e+05
   1.646995e+05   1.105155e+06
  -7.809133e+05   3.023496e+05
  -1.116690e+06  -7.329391e+05
  -3.964487e+05  -1.163532e+06
   7.544931e+05  -7.505603e+05
   1.210668e+06   6.904772e+04
   5.863464e+05   6.794600e+05
  -3.102420e+05   7.569283e+05
  -4.358928e+05   3.980385e+05
   2.294048e+05  -6.263581e+03
   6.826641e+05  -4.857196e+04
   1.680434e+05   3.354840e+05
  -8.784972e+05   7.179594e+05
  -1.369250e+06   5.466030e+05
  -8.451907e+05  -2.188417e+05
   9.973342e+04  -9.400582e+05
   6.194706e+05  -9.246058e+05
   4.904028e+05  -1.965295e+05
   7.801283e+04   4.964663e+05
  -2.482989e+05   4.841428e+05
  -3.752086e+05  -1.234536e+05
  -2.771554e+05  -6.133025e+05
   4.809896e+04  -4.856051e+05
   4.188326e+05   3.215256e+04
   5.172978e+05   3.213872e+05
   2.575468e+05   1.227425e+05
  -5.204686e+04  -1.866795e+05
  -8.551291e+04  -9.958829e+04
   6.117996e+04   3.578378e+05
   1.208415e+04   6.266090e+05
  -3.214746e+05   2.961575e+05
  -5.364600e+05  -3.648728e+05
  -2.296650e+05  -6.874999e+05
   4.172682e+05  -3.546461e+05
   7.330805e+05   2.733665e+05
   2.914240e+05   5.970023e+05
  -5.495545e+05   3.961596e+05
  -9.619452e+05  -6.198872e+04
  -5.224984e+05  -3.997871e+05
   3.125050e+05  -4.537819e+05
   6.908903e+05  -2.775042e+05
   2.942948e+05  -2.482178e+04
  -3.318225e+05   1.049744e+05
  -4.217577e+05  -2.570070e+04
   1.446974e+05  -2.895903e+05
   7.386812e+05  -2.978061e+05
