
 $NMID
 id='ANONYMOUS ', fmtdat='(2E16.6)'
 volume=1.0
 tramp=1.0
 $END
  -3.700760e+03  -1.222605e+02
  -2.425762e+03  -2.155158e+03
   5.630089e+02  -2.637360e+03
   2.024828e+03  -8.639009e+02
   8.895467e+02   6.139330e+02
  -6.899376e+02   3.525928e+02
  -8.362934e+02  -4.181280e+02
  -1.201821e+02  -9.151100e+02
   7.681753e+02  -8.056499e+02
   8.926378e+02   6.098139e+01
   3.787166e+02   7.142954e+02
  -1.930947e+02   8.083139e+02
  -5.346679e+02   7.651655e+01
  -2.151206e+02  -7.031626e+02
   2.785589e+02  -6.460930e+02
   5.530244e+02  -1.875969e+00
   2.888731e+02   5.638466e+02
  -2.292949e+02   5.175965e+02
  -4.788034e+02   2.053662e+01
  -2.671573e+02  -3.013406e+02
  -4.959049e+01  -3.664135e+02
   1.320660e+02  -2.672065e+02
   1.696163e+02  -6.633903e+01
  -1.647296e+02   5.793680e+01
  -4.366766e+02  -1.618270e+02
  -1.622361e+02  -4.386051e+02
   4.444426e+02  -3.343576e+02
   7.996999e+02   1.001307e+02
   3.679682e+02   5.015860e+02
  -3.924635e+02   5.105570e+02
  -6.358448e+02   9.926719e+00
  -3.051248e+02  -4.705107e+02
   3.394491e+02  -5.039876e+02
   5.795221e+02  -1.882011e+02
   4.066522e+02   1.935329e+02
   4.604063e+01   4.536164e+02
  -1.962119e+02   2.566224e+02
  -1.484651e+02  -2.276844e+02
   1.408538e+02  -3.707705e+02
   4.284614e+02   7.847004e+01
   2.243642e+02   6.801974e+02
  -2.740226e+02   6.050846e+02
  -6.007719e+02  -4.315721e-01
  -2.416672e+02  -4.650675e+02
   2.611596e+02  -2.494597e+02
   3.438029e+02   3.304672e+02
  -5.042011e+01   4.678936e+02
  -5.101454e+02   1.233257e+02
  -5.438844e+02  -4.063876e+02
  -1.661486e+02  -5.667092e+02
   3.889712e+02  -2.970739e+02
   5.603209e+02   1.027381e+02
   3.150281e+02   3.888223e+02
  -1.415232e+02   3.187583e+02
  -3.841522e+02   3.937328e+01
  -2.159137e+02  -1.604165e+02
   7.489083e+01  -6.654598e+01
   1.210660e+02   1.208209e+02
  -1.975440e+02   1.570574e+02
  -2.829237e+02  -8.668005e+01
  -1.408907e+02  -2.381953e+02
   1.717834e+02  -2.017015e+02
   2.889941e+02  -2.046968e+01
   2.306516e+02   4.573655e+01
   1.186105e+01   1.547815e+02
  -2.063448e+02   3.386141e+02
  -3.467825e+02   2.039420e+02
  -3.035859e+02  -1.266760e+02
  -3.351095e+01  -4.081758e+02
   1.151450e+02  -3.508052e+02
   1.002969e+02  -4.711015e+01
  -4.379733e+01   1.106340e+01
   2.597865e+01  -7.627623e+01
   1.609316e+02  -1.191870e+02
   2.554838e+02   5.407220e+01
   1.441619e+02   2.193451e+02
  -9.831277e+01   2.320186e+02
  -2.487940e+02   2.392715e+01
  -2.111326e+02  -2.346868e+02
   1.670151e+01  -3.141587e+02
   2.618965e+02  -1.221941e+02
   3.476887e+02   1.729174e+02
   1.633459e+02   3.347342e+02
  -8.685063e+01   2.856186e+02
  -1.555014e+02   1.082537e+02
  -1.345041e+02   5.442851e+01
  -8.426081e+01   1.457121e+01
  -1.997490e+02   4.377158e+01
  -3.685070e+02  -6.612290e+01
  -2.848741e+02  -2.604821e+02
  -1.522768e-01  -4.210871e+02
   3.698121e+02  -3.779600e+02
   5.164364e+02  -1.660237e+02
   3.138926e+02   9.093857e+01
   7.012165e+00   2.601672e+02
  -9.702123e+01   1.913466e+02
  -3.466798e+01   4.168187e+01
   7.971951e+01  -1.150775e+02
   1.504388e+02   3.014428e+00
   4.855119e+01   1.763197e+02
  -1.126439e+02   1.714776e+02
  -1.557480e+02  -6.894288e+01
   8.721479e+00  -1.652553e+02
   1.618577e+02   4.996896e+00
   1.355499e+02   2.452457e+02
  -3.071270e+01   2.932491e+02
  -2.226385e+02   1.544763e+02
  -3.324560e+02  -4.940004e+01
  -2.647325e+02  -2.200899e+02
  -5.360220e+01  -2.296773e+02
   9.370101e+01  -1.142981e+02
   1.081350e+02   8.499315e+00
   3.526929e+01  -1.350455e+01
  -4.280135e+01  -5.652797e+01
  -3.284963e+01  -1.478545e+02
   1.239291e+02  -9.705220e+01
   1.686431e+02  -2.890512e+01
   9.721193e+01   6.590002e+01
  -6.513579e+01   7.977428e+00
  -8.630692e+01  -1.580514e+01
   9.013933e+01  -5.483280e+01
   2.763903e+02  -2.293870e+01
   2.410901e+02   6.804701e+01
   4.299159e+01   2.208271e+02
  -1.839492e+02   2.472264e+02
  -2.363983e+02   8.530060e+01
  -1.058817e+02  -8.454218e+01
   3.950877e+01  -1.056259e+02
   7.321861e+01  -7.996046e+00
  -3.971253e+01   1.126212e+02
  -1.996159e+02   5.913674e+01
  -2.136727e+02  -1.251396e+02
  -8.687753e+01  -1.925806e+02
   8.499615e+01  -1.176974e+02
   1.045158e+02  -2.817092e+01
   4.997105e+01   6.458907e+01
   9.950505e+00   1.442550e+01
   5.639584e+00  -8.064630e+01
   7.180324e+01  -1.305625e+02
   1.850833e+02  -1.607948e+01
   1.549511e+02   7.889545e+01
   4.225602e+01   1.630511e+02
  -9.754166e+01   1.381395e+02
  -1.377021e+02  -2.206358e+01
  -5.923039e+01  -9.728041e+01
   4.836913e+01  -1.056689e+02
   3.643343e+01   2.098449e+01
   4.751887e+00   4.975346e+01
  -3.982998e+01   2.359293e+01
  -9.511382e+00  -2.188992e+01
   1.657287e+01   1.995418e+01
   6.072974e+01   6.563924e+01
   2.796051e+01   1.339417e+02
  -1.213022e+02   1.550164e+02
  -1.906852e+02   3.655934e+01
  -2.169428e+02  -1.088398e+02
  -3.841752e+01  -2.155023e+02
   9.856866e+01  -1.483865e+02
   1.528504e+02  -3.682143e+01
   8.371582e+01   2.539211e+01
  -2.214128e+01   3.285197e+01
   3.529279e+00  -3.805591e+01
   1.028461e+02  -2.362725e+01
   8.713282e+01   4.394912e+01
   1.845688e+01   1.182650e+02
  -6.101032e+01   4.824033e+01
  -1.281836e+02   2.512912e+01
   3.780990e+00  -8.076649e+01
   1.380097e+02  -7.842615e+01
   1.851097e+02   3.330184e+01
   8.163323e+01   2.141766e+02
  -1.107870e+02   1.979641e+02
  -2.542876e+02   9.305174e+01
  -2.855373e+02  -8.911067e+01
  -1.170645e+02  -1.702933e+02
   2.537783e+01  -1.412811e+02
   1.077976e+02  -1.008418e+02
   1.281541e+02  -5.776703e+01
   1.140818e+02  -8.211308e+01
   7.371057e+01  -5.404680e+01
   1.381624e+02   2.352865e+01
   1.380707e+02   1.124968e+02
   1.270702e+01   1.983506e+02
  -7.134872e+01   1.210090e+02
  -1.425079e+02   5.149070e+00
  -1.226402e+02  -1.057337e+02
  -1.532475e+01  -1.465566e+02
   5.800810e+01  -8.209095e+01
   7.140527e+01   1.993849e+01
   2.276742e+01   3.987802e+01
  -4.707460e+01   1.808967e+01
  -2.625670e+01  -3.692329e-01
   7.002010e+01   3.824001e+01
   2.900521e+01   1.427715e+01
  -6.769960e+01   2.971804e+01
  -1.653498e+02  -2.062768e+01
  -1.142836e+02  -3.562033e+01
  -1.117596e+01  -4.725786e+01
   1.224294e+02  -5.647681e+01
   1.261035e+02  -2.243114e+01
   1.228922e+01  -2.969412e-01
  -6.534923e+01   7.404391e+01
  -3.902905e+01  -1.833034e+01
  -1.125015e+01  -5.622095e+01
   3.857413e+01  -3.499625e+01
   5.988604e+01   1.891178e+01
   3.933778e+01   2.152835e+01
   6.354589e+01   4.945917e+01
   2.340860e+01   1.638670e+01
   6.995806e+01   3.367349e+01
  -9.214155e+00   8.344313e+01
  -4.970136e+01   1.439796e+02
  -8.160051e+01   9.525780e+01
  -1.754976e+02   5.170794e+01
  -1.394077e+02  -1.016261e+02
  -1.088662e+01  -1.210060e+02
   1.022961e+02  -6.342831e+01
   4.609130e+01   2.537640e+01
  -5.771351e+01   3.137879e+01
  -1.368293e+02  -4.077907e+01
  -4.252518e+01  -1.529132e+02
   1.167833e+02  -1.001908e+02
   1.529796e+02  -4.857360e+01
   1.256095e+02   4.236194e+01
   3.062940e+01   7.800066e+01
  -4.655830e+01   4.200489e+01
  -6.388247e+01  -9.578637e+00
   5.246401e+01  -3.454489e+01
   6.452852e+01  -2.252015e+01
   2.861947e+01   7.727189e+01
  -6.292559e+01   1.345525e+02
  -1.632819e+02   5.884336e+01
  -1.298717e+02  -5.537389e+01
  -4.000134e+01  -1.858031e+02
   5.937575e+01  -1.171821e+02
   1.224562e+02   1.347864e+01
   4.321307e+01   7.992291e+01
  -7.188837e+00   1.123097e+02
  -3.049132e+01   2.003900e+00
  -3.349290e+01   2.989709e+01
  -4.822113e+01   1.136708e+00
   3.525113e+01  -2.230570e+01
  -1.983492e+01   5.470830e+00
  -2.284426e+01  -5.565748e+01
  -4.671989e+01  -8.226748e+01
   3.651750e+01  -2.591664e+01
   8.052592e+01   4.659549e+01
   1.081621e+02   6.217423e+01
   1.956033e+01   5.590241e+01
  -7.665733e+01   2.810180e+01
  -9.790559e+01   5.104786e+00
   9.112641e-01  -4.209833e+01
   7.333989e+01   3.376617e+00
   5.280235e+01  -1.920262e+01
   2.193137e+01   6.398401e+01
   1.573508e+01   2.067856e+01
   5.056080e+01  -3.108443e+01
   8.033641e+01   4.278263e+00
  -5.434256e+00   4.999362e+01
  -8.162398e+01   7.898212e+01
  -1.738212e+02   7.830507e+01
  -1.037309e+02  -3.842039e+01
  -4.565586e+01  -1.409819e+02
   6.264365e+01  -1.246970e+02
   1.016421e+02  -5.088902e+01
   7.875340e+01   4.319235e+01
   6.165899e+00   7.772066e+01
  -2.506996e+00  -1.265044e+01
   9.994217e+00   2.094141e+01
   4.928451e+01   4.184560e+01
   1.976200e+01   5.804745e+01
  -1.448799e+01   4.877923e+01
  -5.549432e+01  -1.289880e+01
  -7.095400e+01  -7.405151e+01
  -2.990891e+01  -8.062870e+01
   5.307489e+01  -5.609372e+00
   5.283053e+01   4.908021e+01
   1.913957e+01   6.165583e+01
  -8.727846e+01   3.965323e+01
  -1.310705e+02  -1.965524e+01
  -5.391354e+01  -4.590446e+01
   5.625950e+01  -5.576860e+01
   3.212627e+01  -2.226056e+00
  -4.269472e+01   1.298653e+01
  -5.011963e+01   2.832517e+01
  -1.105537e+01  -3.131202e+01
   5.297159e+01  -4.446201e+01
   1.137420e+02  -5.420186e+01
   4.433462e+01   1.152054e+01
   4.638798e-01   3.722972e+01
  -3.972468e+01   9.666015e+01
  -6.383769e+00   4.964239e+00
  -3.730057e+00  -7.140749e+01
   5.062336e+01  -3.307938e+01
   2.773770e+01   3.459021e+01
  -1.859037e+01   8.739808e+01
  -3.520421e+01   8.115579e+01
  -5.056495e+01   1.667228e+01
  -2.270562e+01  -9.327537e+01
  -3.567781e+01  -3.301829e+01
   1.836542e+01   3.989871e+01
   1.866115e+01   2.380557e+01
   1.245683e+00   1.155091e+01
   4.045427e+01  -6.758334e+01
   5.148341e+01   9.287119e+00
   6.260588e+01   5.450027e+01
   6.585282e+00   4.134586e+01
   1.699988e+01   2.979009e+01
  -2.158167e+01  -6.147706e+00
  -4.222195e+01  -7.869077e+01
   6.003302e+01  -4.264180e+01
   1.193275e+02   9.981212e+00
   5.997264e+01   3.965423e+01
  -5.867300e+01   2.459418e+01
  -9.598446e+01   2.266948e+01
  -4.303935e+01  -4.638728e+00
   4.094689e+01  -3.692330e+01
   5.993395e+01  -3.572199e-01
   2.717794e+00   2.303255e+01
  -8.302259e+01   2.440063e+01
