
 $NMID
 id='ANONYMOUS ', fmtdat='(2E16.6)'
 volume=1.0
 tramp=1.0
 $END
   2.802063e+03  -2.981230e+01
   1.717864e+03   1.382588e+03
   2.086651e+01   1.686376e+03
  -1.033963e+03   1.132777e+03
  -9.199137e+02   3.159330e+02
  -1.682056e+02  -1.470283e+02
   2.616816e+02   2.139602e+01
   7.435333e+01   3.957301e+02
  -2.868225e+02   5.191204e+02
  -5.658177e+02   1.450090e+02
  -4.033337e+02  -4.130905e+02
  -6.816678e+01  -6.735013e+02
   2.808567e+02  -2.638782e+02
   2.811387e+02   3.717465e+02
  -1.468712e+02   5.127933e+02
  -3.975195e+02   1.890275e+02
  -2.613232e+02  -4.769946e+02
   7.346597e+01  -6.099651e+02
   4.018972e+02  -3.343095e+02
   4.082342e+02   1.436971e+02
   2.176039e+02   3.892351e+02
  -3.841318e+01   2.663068e+02
  -1.141821e+02   1.325790e+02
   1.654575e+02   3.449890e+01
   2.226367e+02   2.593597e+02
  -5.131661e+01   3.285411e+02
  -4.520256e+02   1.218999e+02
  -5.563562e+02  -1.799293e+02
  -1.669750e+02  -3.821220e+02
   4.390126e+02  -1.365444e+02
   4.336326e+02   1.726861e+02
   1.494828e+02   3.712423e+02
  -2.877677e+02   3.231883e+02
  -4.112707e+02   1.138270e+02
  -2.174027e+02  -1.337417e+02
  -1.374061e+02  -2.356026e+02
  -3.947456e+01  -2.178131e+02
  -1.551303e+01   8.408027e+01
  -1.570062e+02   1.144864e+02
  -1.904429e+02  -1.674767e+02
  -5.200378e+01  -4.544931e+02
   2.158149e+02  -3.713884e+02
   2.991272e+02   2.691756e+01
   1.156614e+02   2.545337e+02
  -1.410471e+02   9.227236e+01
  -1.655622e+02  -2.814212e+02
   8.748571e+01  -3.241268e+02
   3.953071e+02  -1.243156e+01
   4.330406e+02   3.955028e+02
   1.248016e+02   4.643212e+02
  -2.737269e+02   2.197163e+02
  -4.317565e+02  -1.072485e+02
  -2.631815e+02  -2.565892e+02
  -8.224783e-01  -1.987066e+02
   2.099045e+02  -7.981248e+01
   1.807326e+02  -4.471524e+00
   4.100795e+01   1.600459e+01
  -3.428180e+01  -3.299571e+01
   1.313170e+02  -2.051257e+01
   2.167552e+02   4.846792e+01
   1.747221e+02   1.695576e+02
  -1.318559e+02   2.368500e+02
  -3.616432e+02   1.651735e+02
  -2.958984e+02  -2.376481e+01
  -1.363660e+01  -3.143197e+02
   2.920111e+02  -4.236106e+02
   4.179730e+02  -1.507823e+02
   2.682483e+02   1.511140e+02
   4.864646e+01   3.461738e+02
  -2.669102e+01   2.898642e+02
  -1.993177e+01   1.333449e+02
  -3.571029e+01   7.590641e+01
  -8.092211e+01   1.594111e+02
  -1.912601e+02   6.594761e+01
  -1.753583e+02  -8.714955e+01
  -7.704023e+01  -2.262742e+02
   8.437288e+01  -1.640938e+02
   2.135200e+02   7.370265e+00
   9.344585e+01   3.082844e+02
  -8.914824e+01   2.365640e+02
  -2.530896e+02   9.098944e+01
  -2.799040e+02  -1.669973e+02
  -1.943693e+02  -3.091608e+02
   6.267335e+01  -2.522080e+02
   1.501720e+02  -1.410407e+02
   1.431469e+02  -1.078114e+02
   1.387712e+02  -9.355176e+01
   2.610801e+02   2.363710e+00
   3.785680e+02   8.520143e+01
   3.044671e+02   2.861844e+02
  -9.358771e+00   4.111965e+02
  -3.460433e+02   3.498972e+02
  -4.107217e+02   1.328317e+02
  -2.557499e+02  -1.185797e+02
   1.430127e+01  -2.174276e+02
   5.030600e+01  -1.256060e+02
   1.694695e+01   6.061482e+00
  -9.088034e+01   1.141225e+01
  -1.556535e+02  -7.309906e+00
   4.028354e+01  -1.405452e+02
   8.318689e+01  -1.107174e+02
   5.010129e+01   7.212134e+01
   1.088930e+01   8.446860e+01
  -1.356804e+02   5.334983e+00
  -1.145778e+02  -2.166559e+02
  -2.070267e+01  -3.551779e+02
   2.202618e+02  -2.433767e+02
   3.666804e+02   6.529087e+01
   2.647587e+02   2.711391e+02
   1.102763e+02   2.641507e+02
  -1.178449e+02   1.266318e+02
  -1.327888e+02   1.651638e+01
  -2.577614e+01  -3.094028e+00
   4.885900e+01   7.894935e+01
   1.519749e+01   1.142194e+02
  -1.098440e+02   6.928582e+01
  -1.720671e+02  -1.959194e+01
  -1.762057e+01  -6.438108e+01
   4.356970e+01   3.372951e+01
   5.814472e+01   1.089502e+02
  -1.381253e+02   9.074682e+01
  -2.896030e+02   3.458670e+00
  -2.482269e+02  -1.720212e+02
  -8.398242e+00  -2.750408e+02
   1.989175e+02  -2.575611e+02
   2.859102e+02  -7.401259e+01
   1.216953e+02   4.302248e+01
  -4.199790e+01   1.093175e+02
  -5.464293e+01   5.215870e+00
   4.722490e+01  -9.334605e+01
   1.759864e+02  -5.030060e+00
   1.916746e+02   9.697417e+01
   4.878584e+01   1.514263e+02
  -1.027824e+02   1.212718e+02
  -1.304281e+02   3.558907e+01
  -3.313450e+00  -1.310180e+01
   9.608132e+01   2.572619e+01
   3.883403e+01   1.025888e+02
  -8.874281e+01   1.138481e+02
  -2.318214e+02   2.190167e+01
  -1.863009e+02  -1.192347e+02
  -2.215002e+01  -2.264913e+02
   1.483278e+02  -1.558797e+02
   1.874757e+02   1.185996e+01
   2.388526e+01   9.983887e+01
  -6.308948e+01   4.596874e+01
  -4.184549e+01   4.491209e+01
  -2.702188e+01  -5.165439e+01
   4.971396e+01  -2.963290e+01
  -1.676740e+01   2.095544e+01
  -6.629128e+01  -1.400550e+01
  -1.135557e+02  -8.317290e+01
  -2.357376e+01  -1.604530e+02
   1.135644e+02  -1.329122e+02
   2.360074e+02   2.234319e+00
   2.196900e+02   1.340152e+02
   3.241899e+01   2.461893e+02
  -1.165533e+02   1.496558e+02
  -1.092946e+02   3.603510e+01
  -5.601116e+01  -3.334424e+01
  -5.209640e+01  -2.948157e+01
  -9.694185e+01   3.451318e+01
  -1.198647e+02   3.839957e+01
  -5.821871e+01  -3.824295e+01
   1.876584e+01  -1.274309e+02
   1.324759e+02  -1.050124e+02
   1.215347e+02   5.363935e+01
  -1.294370e+01   1.563186e+02
  -1.619907e+02   6.827692e+01
  -2.345108e+02  -7.288136e+01
  -1.181819e+02  -2.053448e+02
   1.402548e+02  -2.072803e+02
   2.755284e+02  -8.361736e+01
   2.313523e+02   8.127782e+01
   1.172877e+02   1.766667e+02
  -2.899964e+01   1.292387e+02
  -8.261176e+01   1.215035e+02
  -1.212258e+02   9.264203e+01
   9.012395e-01   7.649634e+01
  -1.026492e+01   5.676154e+01
  -1.296633e+02  -6.678033e+01
  -1.218451e+02  -1.677067e+02
  -2.025377e+01  -1.829681e+02
   1.070541e+02  -1.189920e+02
   1.779657e+02   7.635694e+00
   1.531249e+02   1.422415e+02
   1.252989e+01   1.400560e+02
  -2.516929e+01   8.128078e+01
  -8.114870e+01  -2.912421e+01
   2.725565e+01  -4.540495e+01
   5.217533e+01  -3.162301e+01
  -2.094167e+01  -4.500246e-01
  -9.781816e+01  -1.238136e+01
   2.330993e+00  -3.667981e+01
   6.039062e+01  -2.700897e+01
   1.942996e+02  -1.733039e+01
   1.367282e+02   4.527344e+01
   2.442994e+00   1.147130e+02
  -1.783224e+02   6.241193e+01
  -1.249185e+02  -1.941775e+01
  -5.217002e+01  -6.445409e+01
   1.060643e+02  -3.441520e+01
   1.149225e+02   2.087893e+01
   3.387522e+01   9.411858e+01
  -6.996027e+01   5.627005e+01
  -1.013920e+02   5.286050e+00
  -4.120273e+01  -4.556106e+01
  -5.012784e+01  -1.856908e+01
  -4.909286e+01  -2.419191e-01
  -5.863932e+01  -1.278009e+01
  -3.475977e+01  -1.050158e+02
   3.208376e+01  -1.492344e+02
   1.013559e+02  -1.905328e+02
   1.475035e+02  -5.975192e+01
   1.711502e+02   1.278116e+02
   2.749648e+01   1.335515e+02
  -6.828824e+01   6.629693e+01
  -5.698290e+01  -7.084551e+00
   5.694202e+01  -3.747276e+01
   1.220678e+02   1.687844e+01
   7.231654e+01   1.227383e+02
  -1.198076e+02   1.327578e+02
  -1.450919e+02  -1.624120e+00
  -1.560876e+02  -5.382181e+01
  -1.818287e+01  -1.116133e+02
   7.475417e+01  -5.553401e+01
   7.118961e+01   1.200507e+01
  -1.100303e+02   5.199101e+01
  -1.031525e+02  -3.489999e+01
  -5.930935e+01  -9.590545e+01
   1.283634e+02  -1.921100e+02
   1.459297e+02  -3.328296e+01
   1.154751e+02   9.855808e+01
  -4.684288e+00   1.392944e+02
  -5.569481e+01   1.165400e+02
  -1.238236e+02   1.477384e+01
  -4.429852e+01  -9.007594e+01
   1.008229e+01  -7.721330e+01
   9.294675e+01  -1.080044e+01
   3.607226e+01   4.096608e+01
   7.848867e+00  -3.115714e+00
   4.926708e+00  -1.834232e+01
   1.581025e+01  -3.614271e+00
   4.745806e+01   8.416555e+01
   5.676642e+01   1.065657e+02
  -4.985742e+01   2.721464e+01
  -1.137631e+02  -6.974213e+01
  -6.610008e+01  -5.222003e+00
   1.535263e+01  -5.673923e+01
   8.164310e+01  -2.356152e+01
   2.656087e+01   1.779121e-01
  -8.729781e+00   3.003930e+01
  -4.100330e+01  -1.592119e+01
   3.941101e+00  -2.784686e+01
   7.173626e+00  -3.039423e+01
   2.464627e+01  -1.055481e+01
  -1.056564e+02  -4.558736e+01
  -1.076278e+02   7.130463e+00
  -1.869215e+01  -7.455754e+01
   7.636470e+01  -1.420168e+02
   1.732936e+02  -3.659405e+01
   1.362513e+02   4.141298e+01
   3.878331e+01   1.634205e+02
  -7.741964e+01   1.143618e+02
  -1.176969e+02   4.462207e+01
  -1.093981e+02  -4.590905e+01
   4.547264e+00  -5.110246e+00
  -1.897005e+01   1.108413e+01
  -3.046775e+01  -1.686601e+01
  -2.279241e+01  -5.396312e+01
  -1.903167e+01  -6.521258e+01
   1.953788e+01  -9.959950e+01
   4.943773e+01  -8.783205e+00
   6.555067e+01   1.157691e+02
   2.466218e+01   1.173658e+02
  -6.911773e+01   2.306015e+00
  -9.486781e+01  -4.981490e+01
  -1.763180e+01  -1.147202e+02
   5.563432e+01  -1.020345e+02
   1.169534e+02  -1.540217e+00
   5.298166e+01   9.104218e+01
  -1.966678e+01   6.000161e+01
  -1.023467e+01   3.261023e+01
   1.491518e+01  -2.749883e+01
   3.702278e+01  -5.589351e+00
  -1.111959e+01   3.063116e+01
  -1.123857e+02   7.604836e+01
  -1.304449e+02   1.660084e+00
  -3.832619e+01  -6.302944e+01
  -8.706521e+00  -9.135387e+01
   7.054740e+01  -8.078523e+01
   2.873510e+01  -3.660772e+01
   2.010580e+00   4.234369e+01
  -1.175978e+01   1.806664e+01
  -6.726470e+01   6.786729e+00
  -4.309194e+01  -7.299319e+01
  -1.092074e+01  -7.077299e+01
   3.436286e+01  -1.950861e+01
   4.940632e+01   4.157115e+01
   1.404845e+01   7.240140e-01
   1.009044e+01  -4.560269e+01
  -2.895946e+01   3.977331e+01
  -2.119532e+01   6.638166e+01
  -2.791903e+01   5.894447e+01
  -1.323317e+01   1.493155e+00
  -9.344022e+01  -1.236787e+01
  -1.489578e+01  -4.510771e+01
   3.204795e+01  -8.335945e+00
   3.614456e+01   2.889521e+01
  -5.295273e-01   1.030799e+02
  -5.047040e+01   3.104436e+01
  -7.567779e+01   8.153576e-01
  -8.195457e+01  -5.231887e+01
   1.141853e+01  -4.645374e+00
   6.060482e+01   5.690198e+00
   3.842139e+01  -1.930252e+01
  -7.645695e+01  -4.508243e+00
  -2.076239e+01  -2.527374e+01
   4.910176e+01  -2.732499e+01
   8.797600e+01  -2.289956e+01
