
 $NMID
 id='ANONYMOUS ', fmtdat='(2E16.6)'
 volume=1.0
 tramp=1.0
 $END
  -2.710492e+03  -4.238588e+01
  -1.897503e+03  -1.134175e+03
  -4.213588e+02  -2.011171e+03
   1.030675e+03  -1.358253e+03
   1.008097e+03  -4.316008e+02
   2.356583e+02   1.119143e+02
  -1.689010e+02  -4.460150e+01
  -3.986289e+01  -4.267078e+02
   3.190851e+02  -4.412445e+02
   4.980821e+02  -5.207639e+01
   4.331887e+02   4.009623e+02
   1.285714e+02   5.644523e+02
  -1.579445e+02   2.734414e+02
  -1.562503e+02  -2.150642e+02
   5.725745e+01  -3.642705e+02
   3.424340e+02  -1.962797e+02
   3.102358e+02   3.379198e+02
  -4.005407e+01   5.969274e+02
  -3.065012e+02   3.625323e+02
  -3.991619e+02  -4.145357e+01
  -1.950417e+02  -2.134512e+02
   4.354529e+01  -2.255634e+02
  -5.114096e+01  -6.260032e+01
  -2.490097e+02  -2.612385e+02
  -3.338927e+02  -3.270091e+02
   6.628451e+01  -3.709968e+02
   4.927033e+02  -1.571664e+02
   5.847123e+02   1.625021e+02
   1.270387e+02   3.258804e+02
  -2.777629e+02   1.539955e+02
  -4.334507e+02  -1.243787e+02
  -1.384020e+02  -2.847093e+02
   1.964709e+02  -3.079295e+02
   4.290161e+02  -1.686302e+02
   3.024237e+02   1.406089e+02
   1.026487e+02   2.182496e+02
   4.380693e+01   1.807607e+02
   9.261637e+01  -9.666475e+01
   1.865007e+02  -6.390925e+01
   9.975205e+01   1.172978e+02
  -1.389347e+01   4.081407e+02
  -1.608171e+02   3.455811e+02
  -1.840677e+02   2.010459e+01
  -3.831500e+01  -2.405845e+02
   1.234373e+02  -8.274993e+01
   1.197958e+02   2.589840e+02
  -1.436265e+02   3.553785e+02
  -4.017656e+02   4.922503e+01
  -4.378031e+02  -3.199382e+02
  -1.588603e+02  -4.673910e+02
   2.237530e+02  -2.380546e+02
   4.626394e+02   3.162560e+01
   3.345792e+02   2.074793e+02
  -7.019916e+01   1.643307e+02
  -2.240502e+02   8.758953e+01
  -2.283063e+02   4.338638e+01
  -2.755689e+01  -1.530254e+01
   4.227207e+01   2.911464e+01
  -3.580194e+01   5.233782e+01
  -1.611330e+02  -3.945145e+01
  -1.306215e+02  -1.779335e+02
   1.599197e+02  -2.867809e+02
   3.742975e+02  -1.568474e+02
   2.398513e+02   1.049535e+02
  -1.098265e+00   3.705343e+02
  -2.964844e+02   3.717670e+02
  -3.203951e+02   1.132730e+02
  -2.374064e+02  -1.198855e+02
  -3.425396e+01  -3.215950e+02
  -1.161400e+00  -2.489204e+02
  -6.622983e+01  -1.606360e+02
   5.121504e+01  -1.296851e+02
   9.908654e+01  -1.151629e+02
   2.179387e+02  -4.937716e+01
   2.804066e+02   1.522449e+02
   1.283112e+02   2.064465e+02
  -2.542074e+01   1.418136e+02
  -1.683471e+02  -1.370997e+01
  -1.543732e+02  -2.127905e+02
   3.318201e+01  -2.452647e+02
   2.344919e+02  -5.047060e+01
   3.153772e+02   1.617471e+02
   2.052430e+02   3.002325e+02
  -2.049782e+01   2.589523e+02
  -1.082993e+02   1.902695e+02
  -1.476782e+02   1.299207e+02
  -1.304989e+02   3.185824e+01
  -2.956809e+02   5.238338e+01
  -4.162469e+02  -5.183658e+01
  -3.024013e+02  -2.740981e+02
   3.312040e+01  -4.302279e+02
   3.376062e+02  -4.081302e+02
   4.207034e+02  -1.796404e+02
   2.429745e+02   7.464616e+01
   2.837899e+01   2.292365e+02
  -8.845867e+01   1.774920e+02
   6.210598e+00   2.479259e+01
   1.254787e+02  -2.404227e+01
   1.346207e+02   2.336954e+01
   1.513946e+01   1.606653e+02
  -5.392739e+01   7.623872e+01
  -4.455923e+01  -4.259874e+01
   1.559425e+01  -9.524869e+01
   1.139274e+02   2.470598e+01
   1.396199e+02   2.362877e+02
   3.553365e+01   3.666085e+02
  -2.009516e+02   2.107881e+02
  -3.854147e+02  -2.719367e+01
  -3.207506e+02  -2.517638e+02
  -1.121335e+02  -2.650800e+02
   9.962424e+01  -1.354348e+02
   1.229099e+02  -1.055935e+01
   1.036424e+01  -2.981006e+01
  -5.794288e+01  -7.726212e+01
  -2.906905e+01  -1.606941e+02
   1.151140e+02  -1.128301e+02
   1.538246e+02   2.957076e+01
   5.730431e+01   2.304508e+01
  -5.552375e+01   2.879698e-01
  -9.310258e+00  -9.420349e+01
   1.686324e+02  -8.259473e+01
   3.035861e+02  -6.761999e+00
   2.637752e+02   1.502556e+02
  -3.512751e+01   2.859500e+02
  -2.095097e+02   2.408648e+02
  -2.861175e+02   8.248631e+01
  -1.282828e+02  -4.092784e+01
   1.568961e+01  -9.518402e+01
   5.448148e+01  -3.957424e+01
  -5.874944e+01   2.571070e+01
  -1.651988e+02   4.495638e+00
  -1.487131e+02  -1.164828e+02
  -3.661630e+01  -1.737742e+02
   1.108340e+02  -1.003579e+02
   1.027308e+02   2.059795e+01
   4.480006e+01   4.467668e+01
  -8.234100e+01  -1.514996e+01
  -3.815415e+01  -1.144064e+02
   9.754452e+01  -1.611652e+02
   1.799924e+02  -5.278759e+01
   1.874522e+02   1.287676e+02
   2.720058e+01   1.858083e+02
  -1.220283e+02   1.700655e+02
  -1.551440e+02   2.775073e+01
  -4.774175e+01  -9.613472e+01
   8.648132e+01  -8.997935e+01
   6.606587e+01   2.078618e+01
   8.629602e+00   6.071026e+01
  -3.271409e+01  -7.132748e+00
   1.244396e+01  -2.904800e+01
   1.114983e+02   2.079409e+01
   1.111712e+02   1.008070e+02
   4.055249e+01   1.863394e+02
  -1.335459e+02   2.094939e+02
  -2.226260e+02   6.079779e+01
  -1.793662e+02  -1.724957e+02
  -5.605103e+01  -1.911553e+02
   8.670349e+01  -1.422568e+02
   9.900240e+01  -6.641291e-01
   7.730525e+01   1.172373e+01
  -1.552677e+01  -1.794128e+01
   3.844004e+01  -1.953709e+01
   8.171896e+01  -1.369672e+01
   5.761685e+01   7.022319e+01
  -1.486756e+01   1.149994e+02
  -1.573575e+02   1.006104e+02
  -1.289275e+02  -5.529864e+01
   8.920476e+00  -1.284661e+02
   1.545235e+02  -1.015814e+02
   2.135401e+02   8.389071e+01
   7.799824e+01   1.759935e+02
  -7.448015e+01   2.281156e+02
  -2.438871e+02   1.086506e+02
  -2.462101e+02  -2.741193e+01
  -1.423476e+02  -1.675703e+02
   2.804632e-01  -1.027580e+02
   5.713095e+01  -5.041173e+01
   3.872006e+01  -3.892968e+01
   6.123238e+01  -1.170402e+02
   4.371161e+01  -1.437755e+02
   7.961520e+01   1.782737e+01
   1.283759e+02   1.459565e+02
   9.437191e+00   2.378599e+02
  -1.064207e+02   1.738955e+02
  -1.449230e+02  -3.069306e+01
  -9.175038e+01  -1.389390e+02
  -7.671634e+00  -1.732809e+02
   4.109409e+01  -6.512151e+01
   7.290147e+01   1.617312e+01
  -2.000122e+01   7.776372e+01
  -4.268906e+01   4.232300e+01
  -7.858964e+00   1.284626e+01
   7.138313e+01   3.124194e+01
   2.608790e+01   6.772018e+01
  -1.003489e+02   4.685583e+01
  -1.751723e+02  -3.337065e+01
  -1.565944e+02  -9.551300e+01
   3.227934e+01  -1.448444e+02
   1.156975e+02  -6.695660e+01
   1.431803e+02  -3.492574e+00
   2.643669e+01   7.128069e+01
  -6.884015e+01   5.786221e+01
  -9.986141e+01  -8.494626e+00
  -4.389130e+01  -7.061163e+01
   1.593788e+01  -6.518116e+01
   4.235110e+01   1.943404e+00
   4.547630e+01   3.550306e+01
   5.098139e+01   3.866680e+01
   6.958607e+01  -4.396421e+01
   1.689446e+01  -3.077341e+00
   6.965350e+01   7.734899e+01
  -5.158509e+01   1.424451e+02
  -1.229359e+02   1.225045e+02
  -1.741182e+02   4.364736e+01
  -1.534706e+02  -1.093158e+02
  -2.845118e+01  -1.388024e+02
   5.904245e+01  -5.422990e+01
   2.838751e+01   3.243709e+01
  -7.449492e+01   2.269962e+01
  -8.134792e+01  -4.831148e+01
  -2.010885e+01  -1.348275e+02
   8.528958e+01  -9.113606e+01
   1.903429e+02  -1.976234e+01
   1.039577e+02   8.231230e+01
   5.418743e+00   1.059852e+02
  -6.253496e+01   4.915237e+01
  -4.556958e+01  -2.988357e+01
   4.345412e+01  -3.927484e+01
   1.115537e+02  -1.799586e-01
   1.191071e+01   1.145381e+02
  -5.745795e+01   1.338707e+02
  -1.665391e+02   7.928822e+01
  -1.474663e+02  -9.918839e+01
  -4.917128e+00  -1.624171e+02
   4.768700e+01  -1.126961e+02
   5.612622e+01  -1.040969e+01
   6.187678e+01   1.170285e+02
  -3.394498e+01   7.702562e+01
  -4.607538e+01  -1.849397e+01
  -3.898772e+01  -1.788743e+01
   2.197594e+01   1.683794e+01
   1.100435e+01   4.072471e+01
  -6.118980e+01  -1.300634e+01
  -9.297703e+01  -7.865873e+01
  -7.527093e+01  -1.372870e+02
   7.842279e+01  -6.803783e+01
   1.236967e+02   1.379619e+00
   1.240400e+02   8.025594e+01
   4.389660e+01   5.557604e+01
  -5.215832e+01   2.315920e+01
  -7.053340e+01  -1.373714e+00
  -2.802169e+01  -1.913054e+01
   3.395067e+01  -6.323019e+01
   1.009451e+01   1.938483e+01
   2.482500e+01  -2.003696e+01
   3.246038e+01  -1.546312e+00
   5.825013e+01  -2.626053e+01
   9.550364e+01   5.793598e+00
   1.015574e+01   7.709925e+01
  -8.204289e+01   7.834853e+01
  -1.809109e+02   9.868088e+01
  -1.556704e+02   2.717809e+01
  -3.075738e+01  -1.582810e+02
   8.814554e+01  -1.785190e+02
   1.165504e+02  -1.316211e+02
   8.043990e+01  -2.495849e+01
   1.745158e+01   5.268376e+01
   3.242153e+01   6.719752e+01
  -1.711431e+01   3.852380e+01
   1.108076e+01   6.404184e+01
   2.660779e+01   1.004002e+02
  -2.538251e+00   3.332181e+01
  -1.118615e+02  -5.091544e+01
  -8.722254e+01  -5.904505e+01
  -2.325077e+01  -1.222622e+02
   7.678444e+01  -4.517050e+01
   1.323888e+02   4.415416e+01
   7.486064e+01   1.173465e+02
  -9.421865e+01   5.355253e+01
  -1.009732e+02  -2.603506e+01
  -2.719212e+01  -5.088041e+01
  -3.543042e+01  -8.752902e+01
   1.547510e+01   1.412481e+00
  -1.907144e+01  -7.899488e+00
  -4.153598e+01   2.272752e+00
   6.326097e+01   1.939488e+01
   8.048854e+01  -3.926973e+01
   1.152133e+02  -3.640821e+01
   4.886118e+01   5.684258e+01
  -2.691706e+01   9.037217e+01
  -1.039101e+02   8.655227e+01
  -4.429572e+01   4.306561e+01
   5.318648e+00  -5.908300e+01
   2.243989e+01  -3.536782e+01
   7.197625e+01   2.729594e+01
   3.127747e+00   5.254538e+01
   4.404664e+01   2.895477e+01
  -8.138584e+00  -2.138825e+01
  -3.246272e+01  -3.460696e+01
  -4.208470e+01   7.039893e+00
   2.189313e+01   7.478788e+01
  -2.820735e+01   2.083335e+01
  -3.535069e+01  -6.566198e+01
   2.820409e+01  -7.907104e+01
   5.084699e+01  -1.325400e+00
   7.629256e+01   4.720623e+01
   5.966608e+00   1.257820e+02
  -4.315565e+01   4.424323e+01
  -6.655114e+01  -1.785483e+01
  -4.348020e+01  -3.335121e+01
   1.707888e+01  -1.634167e+01
   7.839235e+01   1.808976e+01
   5.978998e+01   2.766531e+01
   2.099302e+01   1.281019e+01
  -9.147732e+01   3.258289e+01
  -4.487516e+01   4.393231e+01
   3.965256e+01  -1.548160e+01
   2.964160e+01   7.244557e+00
  -1.109402e+01   1.694057e+01
  -2.945417e+01   4.176055e+01
