
 $NMID
 id='ANONYMOUS ', fmtdat='(2E16.6)'
 volume=1.0
 tramp=1.0
 $END
   2.550509e+03  -2.286085e+02
   1.713748e+03   1.153775e+03
   1.406888e+02   1.559574e+03
  -8.748382e+02   1.082369e+03
  -8.230259e+02   3.396658e+02
  -1.926399e+02  -2.011188e+01
   1.188096e+02   6.885935e+01
   5.904821e+01   2.899538e+02
  -2.716062e+02   4.456764e+02
  -4.187011e+02   4.713406e+01
  -3.240484e+02  -3.112682e+02
  -6.723303e+01  -4.374219e+02
   1.188250e+02  -2.037598e+02
   1.464536e+02   2.828797e+02
  -8.562488e+00   4.683684e+02
  -2.303806e+02   1.322241e+02
  -2.735881e+02  -2.890553e+02
   5.434036e+00  -5.449509e+02
   3.494646e+02  -2.824821e+02
   3.773027e+02   1.258823e+02
   1.130408e+02   3.165028e+02
  -2.241072e+01   2.672920e+02
  -2.829941e+01   3.382187e+01
   1.650624e+02   1.017195e+02
   2.380096e+02   2.343566e+02
  -2.368753e+01   3.069601e+02
  -4.062162e+02   6.268454e+01
  -4.743219e+02  -1.747519e+02
  -1.002132e+02  -1.839121e+02
   2.048383e+02  -1.079951e+02
   2.974239e+02   1.174937e+02
   8.613533e+01   2.000350e+02
  -2.102084e+02   2.584157e+02
  -3.079608e+02   1.196348e+02
  -2.968166e+02  -5.316101e+01
  -9.144438e+01  -1.719617e+02
  -3.988793e+01  -1.171271e+02
  -5.560480e+01   1.762094e+01
  -1.550512e+02   3.223579e+01
  -1.184923e+02  -1.336128e+02
  -1.386666e+01  -3.731755e+02
   1.884583e+02  -3.476332e+02
   2.709798e+02  -3.019623e+01
   8.118684e+01   2.029416e+02
  -1.047352e+02   8.919234e+01
  -1.208073e+02  -1.944787e+02
   1.074901e+02  -2.708663e+02
   3.371442e+02   7.184635e+00
   3.896580e+02   2.605957e+02
   9.626606e+01   3.815848e+02
  -2.266656e+02   2.100067e+02
  -3.435895e+02  -2.161394e+01
  -2.347685e+02  -1.887019e+02
   2.915800e+01  -1.470926e+02
   2.306866e+02  -4.485630e+01
   1.847101e+02  -4.573761e+01
   4.073920e+01  -8.761590e+00
  -1.927749e+01   8.925425e+00
   6.524134e+01  -1.462724e+00
   1.211973e+02  -2.399687e+01
   8.219738e+01   6.935576e+01
  -8.800313e+01   1.581908e+02
  -2.428499e+02   1.199364e+02
  -2.104687e+02  -7.350156e+01
  -7.718308e+00  -2.727117e+02
   2.119099e+02  -2.944417e+02
   2.732007e+02  -1.189061e+02
   1.946828e+02   1.111489e+02
   3.569336e+01   2.796817e+02
   1.975391e+01   2.113206e+02
  -6.172383e+00   8.686536e+01
  -4.845149e+00   8.734537e+01
  -7.748428e+01   1.292484e+02
  -1.978071e+02   2.567312e+01
  -1.588591e+02  -1.378904e+02
  -2.473630e+01  -2.091794e+02
   1.404617e+02  -1.256498e+02
   1.280720e+02   6.153384e+01
   1.017734e+02   2.088257e+02
  -1.462804e+01   1.689407e+02
  -1.849997e+02   2.787408e-01
  -2.597866e+02  -1.162878e+02
  -1.523907e+02  -2.204161e+02
   7.085091e+01  -1.779131e+02
   1.411870e+02  -1.154874e+02
   1.430648e+02  -6.836830e+01
   1.100558e+02  -4.291426e+01
   2.006673e+02  -2.149799e+01
   2.906476e+02   8.267369e+01
   2.109757e+02   1.893555e+02
   1.043040e+01   3.366095e+02
  -3.093989e+02   3.071559e+02
  -3.494894e+02   1.183964e+02
  -1.556959e+02  -2.681443e+01
  -2.786732e+01  -1.472592e+02
   7.929880e+01  -8.583809e+01
  -4.321170e+01  -3.557460e+01
  -1.132184e+02  -1.182790e+01
  -1.057055e+02  -4.058125e+01
   6.039366e+00  -1.133223e+02
   1.208620e+02  -2.865458e+01
   4.994404e+01   3.720150e+01
   3.171301e+00   5.864841e+01
  -1.066854e+02   3.161500e+01
  -9.400632e+01  -1.954285e+02
   6.674102e+01  -2.787495e+02
   1.654809e+02  -1.534012e+02
   2.674384e+02   7.691326e+01
   1.975389e+02   2.228185e+02
   4.546980e+01   2.314931e+02
  -1.283220e+02   1.394499e+02
  -1.390898e+02   9.255532e+00
  -4.464639e+01   2.037096e+01
   3.684758e+01   4.219759e+01
  -2.070233e+01   4.060885e+01
  -1.183535e+02   5.265700e+01
  -1.051995e+02   2.710899e+01
  -5.450642e+00   1.259355e+01
   4.828951e+01   1.206161e+01
   2.169972e+01   9.820793e+01
  -1.096409e+02   6.256681e+01
  -2.096088e+02   3.413763e+00
  -1.706793e+02  -1.266185e+02
   2.530064e+01  -1.726570e+02
   1.442308e+02  -1.894736e+02
   1.871075e+02  -9.067265e+01
   9.062090e+01   4.373384e+01
  -3.000783e+01   1.276951e+01
  -1.848384e+01  -2.803942e+00
   6.843644e+01  -7.603050e+01
   1.697633e+02  -1.716677e+01
   9.838681e+01   7.428087e+01
   4.672371e+01   1.250798e+02
  -6.165707e+01   9.203269e+01
  -9.306567e+01  -6.095928e+00
  -1.062619e+01  -1.391550e+01
   1.064495e+01   3.434398e+01
   2.245625e+01   8.923145e+01
  -8.589095e+01   1.046947e+02
  -1.722127e+02  -1.729875e+01
  -1.244788e+02  -7.532749e+01
   2.181148e+01  -1.457649e+02
   2.012049e+02  -8.421795e+01
   1.356496e+02  -2.293344e+01
   3.693267e+01   6.501145e+01
  -4.269158e+01   1.056588e+02
  -8.695251e+01   4.240403e+00
   6.374005e+01  -2.322190e+01
   6.219046e+01  -1.527227e+01
  -1.788439e+01   3.567158e+01
  -7.157062e+01  -7.200334e+00
  -9.663745e+01  -8.538148e+01
  -2.134590e+01  -8.645619e+01
   9.865465e+01  -1.087413e+02
   1.988899e+02  -4.219193e+01
   9.590570e+01   1.249738e+02
   1.941674e+01   1.467574e+02
  -4.346229e+01   1.026559e+02
  -9.585468e+01  -1.791740e+01
  -4.335448e+01  -2.243729e+01
   2.367214e+01  -2.261666e+01
  -2.865365e+01   6.941499e+00
  -6.755262e+01  -6.578635e+00
  -2.934854e+01  -5.536287e+01
   1.144206e+01  -5.424262e+01
   8.381274e+01  -5.026689e+01
   7.216164e+01   8.649639e+01
   6.733029e+00   8.682412e+01
  -1.366205e+02   4.384672e+01
  -2.120735e+02  -5.426402e+01
  -3.780686e+01  -1.607634e+02
   9.700459e+01  -1.599433e+02
   2.362285e+02  -9.675076e+01
   1.581863e+02   4.638649e+01
   5.635825e+01   1.171922e+02
  -5.796501e+01   1.100576e+02
  -5.128189e+01   8.892037e+01
  -2.658753e+01   5.867497e+01
  -3.148799e+01   8.492682e+01
  -8.017500e+01   7.468266e+01
  -1.218656e+02   6.735038e-01
  -1.158689e+02  -1.462101e+02
  -4.150741e+01  -1.891950e+02
   7.865990e+01  -1.196697e+02
   8.881839e+01   6.994245e+00
   8.715980e+01   8.564567e+01
  -2.284245e+01   1.039625e+02
  -8.388264e+01   1.611043e+01
  -5.457993e+01  -8.871277e+00
   3.679463e+01  -6.729366e+01
   5.847098e+01  -2.757120e+01
  -2.519142e+00  -3.263054e+00
  -3.001022e+01   2.761504e+01
  -4.543750e+01   4.036756e+00
   7.271469e+01  -2.302738e+01
   1.282042e+02   2.092685e+01
   1.136250e+02   3.211522e+01
  -5.142872e+01   4.542896e+01
  -1.110817e+02   5.943828e+01
  -1.026117e+02  -4.101814e+01
   9.509438e+00  -1.183113e+01
   4.625256e+01  -4.551525e+01
   4.239623e+01   3.582508e+01
  -2.456704e+01   8.146245e+01
  -4.243965e+01   7.464310e+01
  -6.966898e+01  -8.943430e+00
  -3.516733e+01  -3.503332e+01
  -8.478367e+00  -3.502031e+01
  -6.012772e+01   1.423864e+01
  -4.249433e+01   1.585181e+01
  -5.069613e+01  -9.324840e+01
   2.390513e+01  -1.354012e+02
   9.668622e+01  -8.616872e+01
   1.258847e+02  -1.693944e+01
   1.154147e+02   6.261680e+01
   3.511388e+01   1.114003e+02
  -6.226724e+01   3.885099e+01
  -7.086134e+01   6.770187e+00
   4.633367e+01  -1.514207e+01
   1.338399e+02   1.253864e+01
   5.458356e+01   6.799781e+01
  -6.533499e+01   4.994080e+01
  -1.482388e+02   2.902553e+01
  -9.409222e+01   2.663532e+01
   2.542015e+00   4.894978e+00
   5.315053e+01  -2.534074e+01
  -5.318884e-01   5.051613e+00
  -7.676687e+01   1.163579e+01
  -8.181549e+01  -1.259388e-01
  -2.430955e+01  -6.264502e+01
   1.002763e+02  -1.432773e+02
   1.681889e+02  -4.132197e+01
   1.051779e+02   6.522427e+01
   3.308910e+01   1.443662e+02
  -4.303261e+01   1.004008e+02
  -6.717721e+01   9.500363e+00
  -6.870641e+01  -7.270840e+01
  -7.970517e+00  -1.112039e+02
  -3.348074e+01  -3.368554e+01
   4.494371e+01   3.000002e+01
  -2.919168e+01  -7.149938e-01
  -3.029291e+00  -8.595021e+00
   1.180205e+01   5.044508e+01
   4.876139e+01   2.550957e+01
   1.210951e+01   1.898700e+01
  -5.922428e+01   1.104828e+01
  -6.224132e+01  -2.923690e+01
  -1.256170e+02  -4.071290e+01
   5.469963e+01  -1.746863e+01
   3.703727e+01  -2.498360e+01
   1.890892e+01  -4.451142e+01
  -4.071828e+00   3.420863e+01
  -3.601393e+01  -1.562641e+00
   1.365644e+01   1.897373e-02
   1.138247e+01   2.094713e+01
  -1.239319e+01  -4.172857e+00
  -7.384539e+01   1.704521e+01
  -5.019383e+01  -5.678612e+01
  -1.586384e+01  -9.178420e+01
   1.061071e+02  -9.390859e+01
   1.421544e+02  -2.710380e+01
   1.191698e+02   5.918874e+01
  -2.600457e+01   1.121722e+02
  -4.702417e+01   1.023146e+02
  -9.332393e+01   8.707145e+00
  -2.679949e+01  -4.417062e+01
   3.638549e-02  -1.379717e+01
  -3.293241e+01  -2.804401e+01
  -3.966837e+00   7.638767e+00
  -2.333273e+01  -5.049778e+00
  -1.715211e+01  -4.825104e+01
  -2.965229e+01  -4.908576e+01
   3.485691e+01  -4.070180e+01
   7.634807e+01   6.015110e+01
   1.878281e+01   7.450755e+01
  -4.276481e+01   3.987734e+01
  -7.360604e+01  -3.773230e+01
   6.439670e-02  -5.274061e+01
   7.112826e+01  -5.254816e+01
   8.896218e+01   1.523012e+00
   2.057864e+01   4.086540e+01
  -3.052688e+01   6.009265e+01
  -3.883465e+01   4.026989e+01
  -6.158446e+00   2.299934e+01
   5.817815e+01  -3.985621e+01
   9.707429e+00  -1.522579e+00
  -7.802577e+01   4.642003e+01
  -8.189036e+01   5.953692e+01
  -8.019258e+01   2.770380e+01
   6.241016e+00  -5.279179e+01
   5.366908e+01  -6.463077e+01
   1.130365e+01  -1.503276e+01
   4.519604e+00   3.601867e+01
  -1.264328e+01   6.362566e+01
  -1.927448e+01   1.454983e+01
  -1.719926e+00  -1.015801e+01
   2.156267e+01  -4.030371e+01
   1.117389e+01  -1.038047e+01
   6.029836e+01   4.461649e+01
   4.639463e+01  -2.501504e+00
   1.211336e+01  -4.727112e+01
  -1.715816e+01  -9.634128e+00
   1.955336e+01   6.536988e+00
   3.071335e+01   1.792074e+01
  -4.534428e+01   4.573556e+01
  -4.432347e+01  -6.551397e+01
  -4.001661e+01  -5.143729e+01
   4.338681e+01  -1.458399e+01
   5.363500e+01   4.164356e+01
  -1.378291e+01   4.943986e+01
  -8.436077e+00   5.339879e+01
  -1.057810e+02   4.101700e+01
  -2.976759e+01  -4.094848e+01
   1.545719e+01  -2.784574e+01
   1.101935e+01  -3.512246e+01
   4.708892e+01  -1.550178e+01
  -1.292008e+01   1.286075e+01
  -2.233187e+01  -7.556001e+00
  -7.284086e+00  -2.494369e+01
   3.273745e+01  -9.862763e+00
