
 $NMID
 id='ANONYMOUS ', fmtdat='(2E16.6)'
 volume=1.0
 tramp=1.0
 $END
  -2.145177e+03   1.605041e+02
  -1.664031e+03  -1.185772e+03
  -2.016989e+02  -1.482899e+03
   7.208016e+02  -1.133255e+03
   8.049364e+02  -4.475741e+02
   2.581730e+02   7.292072e+01
  -1.592443e+02   1.138985e+02
  -1.302852e+02  -2.693410e+02
   2.626003e+02  -4.635978e+02
   4.445707e+02  -1.996970e+02
   2.857519e+02   2.719049e+02
   3.713483e+01   4.529631e+02
  -1.746921e+02   2.227789e+02
  -1.460817e+02  -2.537951e+02
  -5.502017e+01  -3.634535e+02
   2.490575e+02  -9.159966e+01
   2.685783e+02   2.938198e+02
   5.544756e+01   5.013555e+02
  -2.562515e+02   3.368741e+02
  -3.514238e+02  -4.784779e+01
  -1.159972e+02  -2.145071e+02
   9.202286e+01  -2.256805e+02
   1.688495e+01  -5.007491e+01
  -2.082385e+02  -9.932145e+01
  -2.590969e+02  -2.347617e+02
   5.052337e+00  -3.010444e+02
   3.886807e+02  -1.255895e+02
   4.123958e+02   1.695690e+02
   1.527455e+02   2.813546e+02
  -1.908423e+02   7.530626e+01
  -3.418881e+02  -8.050649e+01
  -1.465300e+02  -2.554333e+02
   2.277167e+02  -2.529422e+02
   3.345756e+02  -9.866842e+01
   2.216905e+02   1.590879e+02
   5.669611e+01   2.381809e+02
  -6.987054e+00   8.559797e+01
   8.728910e+01  -8.746642e+01
   1.372689e+02  -1.102485e+02
   1.272286e+02   9.743442e+01
  -2.158954e+01   4.032230e+02
  -1.489656e+02   3.554812e+02
  -1.876385e+02   4.366373e+01
  -8.790607e+01  -1.953633e+02
   6.646209e+01  -6.492732e+01
   8.021792e+01   2.189617e+02
  -4.585361e+01   2.595478e+02
  -3.095759e+02   2.914778e+01
  -3.960994e+02  -2.762865e+02
  -1.576671e+02  -3.704919e+02
   2.102889e+02  -2.250129e+02
   4.104391e+02   1.522662e+01
   2.801413e+02   1.582389e+02
  -3.303968e+01   1.503341e+02
  -1.946612e+02   7.592909e+01
  -1.328182e+02   8.764753e+00
  -6.925095e+00  -1.748100e+01
   5.511037e+00   2.415505e+00
  -7.263691e+01  -4.249314e+00
  -1.146762e+02  -5.310550e+01
  -7.002616e+01  -1.139458e+02
   9.108571e+01  -2.165536e+02
   2.389012e+02  -1.609083e+02
   2.456812e+02   5.815923e+01
   5.554763e+00   2.563965e+02
  -2.011143e+02   3.031091e+02
  -3.288417e+02   1.037526e+02
  -1.988616e+02  -1.382683e+02
  -3.391626e+01  -2.666658e+02
   2.632242e+01  -2.488995e+02
  -2.639268e-01  -1.304242e+02
   3.764373e+01  -1.204044e+02
   1.432652e+02  -1.096973e+02
   1.950657e+02  -3.698042e+01
   1.891792e+02   1.119828e+02
   6.879159e+01   2.163283e+02
  -7.448215e+01   1.567732e+02
  -1.142242e+02  -3.778822e+01
  -1.021711e+02  -1.770928e+02
   2.691649e+01  -2.041575e+02
   2.197663e+02  -5.898482e+01
   2.289190e+02   1.244360e+02
   1.686282e+02   2.088397e+02
  -5.337914e+00   1.906186e+02
  -8.546989e+01   1.513106e+02
  -7.065016e+01   5.499694e+01
  -9.258675e+01   5.637722e+01
  -2.181188e+02   3.196252e+01
  -3.297228e+02  -7.279564e+01
  -2.688400e+02  -2.221165e+02
  -2.778792e+01  -3.370085e+02
   2.669969e+02  -3.391335e+02
   3.562341e+02  -1.662519e+02
   1.795139e+02   4.562679e+01
   2.002942e+01   1.859517e+02
  -7.898356e+01   1.559656e+02
   2.099235e+01   1.110931e+01
   8.084684e+01  -1.679018e+01
   6.281475e+01   4.606847e+01
   2.609463e+00   1.307618e+02
  -7.397896e+01   7.370362e+01
  -4.330310e+01  -5.729295e+01
  -2.689579e+00  -1.559069e+02
   1.422633e+02  -2.790805e+01
   1.320299e+02   1.719759e+02
   2.911982e+01   2.803083e+02
  -1.523648e+02   1.784479e+02
  -3.028721e+02  -5.343169e+01
  -2.531687e+02  -2.298908e+02
  -6.603223e+01  -2.551975e+02
   1.236225e+02  -1.195672e+02
   8.199606e+01  -1.049801e+01
   4.158108e+00  -2.417829e+01
  -3.608346e+01  -9.092505e+01
  -1.571791e+01  -1.399176e+02
   1.326772e+02  -1.224015e+02
   1.737156e+02  -1.401881e+01
   3.820420e+01   2.782068e+01
  -5.257429e+01  -1.254836e+01
  -3.763874e+01  -4.916087e+01
   8.517473e+01  -6.517132e+01
   2.401758e+02  -6.937180e+00
   1.947856e+02   9.402517e+01
   1.151423e+01   2.184434e+02
  -1.790038e+02   1.978988e+02
  -2.222218e+02   1.034066e+02
  -1.425699e+02  -4.609411e+01
   2.842939e+01  -9.921479e+01
   3.539135e+01   6.153620e-02
  -1.979755e+01   7.794301e+01
  -1.462454e+02   2.361958e+01
  -1.634174e+02  -7.055909e+01
  -4.908951e+01  -1.910099e+02
   3.069461e+01  -7.948867e+01
   1.238471e+02  -2.346312e+01
   5.912404e+01   2.044688e+01
  -1.687084e+01  -1.533263e+01
   1.652706e+01  -5.759370e+01
   8.015736e+01  -7.679460e+01
   1.982552e+02   1.642431e+01
   1.773433e+02   9.270062e+01
   3.882805e+00   1.469868e+02
  -1.558369e+02   1.054544e+02
  -1.298916e+02   5.655168e+00
  -4.592896e+01  -6.665151e+01
   4.175997e+01  -1.347191e+02
   4.199417e+01  -5.163591e+00
  -1.649196e+01  -2.094956e+01
  -1.002655e+01   6.917388e+01
   1.553193e+01   1.124891e+00
   7.728555e+01  -1.810270e+01
   4.175718e+01   5.359555e+01
  -9.395876e+00   1.205531e+02
  -1.382560e+02   9.464173e+01
  -1.969808e+02  -1.838347e+01
  -1.273622e+02  -1.209514e+02
  -4.060590e+01  -1.904697e+02
   9.006824e+01  -1.547855e+02
   1.108040e+02  -6.668880e+00
   8.351032e+01   4.633226e+01
   4.363850e+01  -2.947058e+00
   6.324688e+01  -1.644650e+01
   1.014617e+02  -1.938874e+01
   7.326179e+01   7.821803e+01
  -5.471186e+00   9.973784e+01
  -9.476566e+01   5.902388e+01
  -6.674764e+01  -4.696491e+01
  -3.944879e+01  -1.101169e+02
   1.368290e+02  -8.394255e+01
   1.497051e+02   5.534088e+01
   6.521946e+01   1.371776e+02
  -8.835208e+01   1.938089e+02
  -2.242900e+02   6.746359e+01
  -2.133609e+02  -7.675107e+01
  -1.172065e+02  -1.553725e+02
   3.202865e+01  -1.526288e+02
   7.197885e+01  -3.645116e+01
   4.474721e+01  -6.351651e+01
   5.628971e+01  -4.874563e+01
   6.143350e+01  -7.072330e+01
   1.170378e+02   1.418561e+01
   1.168953e+02   1.115952e+02
   3.180865e+01   2.012734e+02
  -2.755992e+01   1.054992e+02
  -1.262995e+02   3.651277e+01
  -1.132812e+02  -4.524000e+01
  -3.065399e+01  -6.569748e+01
   3.931420e+01  -5.001727e+01
   4.997696e+01   1.209128e+01
   3.072642e+01   6.011507e+01
  -5.271894e+01   4.398246e+01
   3.741778e+00  -1.242101e+00
   4.797402e+01   4.090326e+01
   5.082342e+01   9.522902e+00
  -3.925749e+01   1.711946e+01
  -1.750425e+02  -1.719911e+01
  -1.261671e+02  -5.897863e+01
  -2.682018e+01  -9.429087e+01
   1.182322e+02  -5.175616e+01
   1.061849e+02  -2.952562e+01
   4.965173e+01  -6.266455e+00
  -2.911196e+01   5.510750e+01
  -2.397452e+01  -2.812306e+01
  -1.139182e+01  -4.381452e+01
   2.449621e+01  -5.763013e+01
   5.720419e+01   9.186075e+00
   4.595408e+01   5.954013e+01
   2.852095e+01   4.073199e+01
   4.760384e+01  -1.573092e+01
   7.808361e+01   2.984185e+01
   1.682508e+01   4.667850e+01
  -4.479238e+01   7.662738e+01
  -1.013109e+02   1.063630e+02
  -1.371618e+02  -9.383225e+00
  -9.434251e+01  -7.901720e+01
   1.500354e+00  -1.159337e+02
   1.048515e+02  -5.482818e+01
   6.324434e+01   1.714814e+01
  -7.647699e+01   2.220303e+01
  -6.039521e+01  -1.597165e+01
  -5.957136e+01  -5.971303e+01
   2.830474e+01  -8.945227e+01
   1.389953e+02  -2.500920e+01
   1.202282e+02   5.449379e+01
   4.095589e+01   7.404494e+01
  -6.090286e+01   5.947196e+01
  -2.582358e+01  -3.093817e+01
   5.373431e+01  -1.318892e+00
   6.392251e+01   1.747069e+01
   2.173867e+01   5.514093e+01
  -3.175963e+01   1.027693e+02
  -8.026185e+01   6.113898e+01
  -1.042630e+02  -7.453715e+01
  -3.906321e+01  -1.379108e+02
   6.684650e+01  -1.157448e+02
   5.355396e+01  -4.944909e+00
   6.142179e+01   9.749573e+01
  -2.426779e+01   9.985547e+01
  -8.864767e+00   3.252392e+01
  -4.110693e+01   2.927764e+01
  -3.332795e+01   9.701039e+00
   4.442409e+00   3.405632e+01
  -4.595776e+01  -2.818575e+01
  -6.623470e+01  -8.766345e+01
  -1.146282e+01  -8.744360e+01
   5.450822e+01  -7.662050e+00
   1.171525e+02   5.026390e+01
   6.574199e+01   8.104863e+01
  -1.426645e+01   3.733698e+01
  -4.653252e+01   1.256998e+00
  -5.686997e+01  -6.312801e+00
  -5.435646e+01  -1.777891e+01
   3.876879e+00  -2.466565e+01
   6.182363e+00   4.759337e+00
  -2.114957e+01  -1.385346e+01
  -3.479564e+01  -2.690144e+01
   5.184183e+01  -1.662007e+01
   7.481223e+01   1.946939e+01
  -9.348293e+00   6.908581e+01
  -7.872937e+01   1.210799e+02
  -1.481434e+02   5.143647e+01
  -1.399438e+02  -3.292174e+01
  -1.299801e+01  -1.311218e+02
   6.823123e+01  -1.511734e+02
   1.529306e+02  -2.214019e+01
   7.274382e+01   3.057409e+01
   2.611665e+01   1.999384e+01
   9.577525e+00   2.882146e+01
   3.624315e+01   7.919723e+00
   2.754579e+01   3.337309e+01
  -1.401464e+01   2.945137e+01
  -1.037797e+01   4.494477e+01
  -6.763560e+01  -4.016599e+00
  -6.104874e+01  -8.654686e+01
  -1.501242e+01  -8.553407e+01
   7.587741e+01  -3.571048e+01
   1.104150e+02   1.964393e+01
   1.421217e+01   8.054552e+01
  -8.499476e+01   7.009810e+01
  -1.003049e+02  -3.112797e+01
  -3.925905e+01  -7.443913e+01
   4.901978e+01  -3.862928e+01
   2.419016e+01  -6.458431e+00
   1.278752e+01   2.528336e+01
  -5.052366e+01   4.325254e+01
  -3.050080e+01  -1.667279e+01
   6.749485e+01  -5.911966e+01
   1.370343e+02  -5.302832e+01
   6.014845e+01   2.646001e+01
   3.195579e+00   9.982635e+01
  -1.469567e+01   6.823270e+01
  -7.146303e+01   5.690571e+01
  -3.272075e+01  -5.874264e+01
   2.307605e+01  -4.299103e+01
   7.210893e+01   1.341566e+01
   2.025484e+00   7.042542e+01
   5.653081e+00   1.386228e+01
  -3.212400e+01   5.357872e+00
  -2.963439e+01  -1.934070e+01
  -3.019815e+00  -1.799135e+01
  -2.236089e+01   3.791011e+01
   1.255729e+00  -3.013755e+01
   3.029639e+00  -3.361981e+01
  -2.342881e+01  -3.462015e+01
   3.372019e+01  -4.512410e+01
   7.285183e+01   3.168101e+01
   2.864299e+01   3.552233e+01
  -8.352955e+01   5.108922e+01
  -9.170906e+01  -1.309595e+01
  -3.877250e+01  -8.938092e+01
   4.440365e+01  -5.336559e+01
   3.550640e+01   1.566101e+01
   6.680430e+01   3.513262e+01
   2.230480e+01   4.611655e+01
  -5.428094e+01   4.762534e+01
  -2.633693e+01   6.894108e+00
   2.051886e+01  -1.189727e+01
   3.538722e+01  -8.764484e+00
  -2.742604e+01  -1.440588e+01
  -4.458474e+01   1.057310e+01
