
 $NMID
 id='ANONYMOUS ', fmtdat='(2E16.6)'
 volume=1.0
 tramp=1.0
 $END
   2.392449e+03   1.845347e+01
   1.735525e+03   1.232633e+03
   9.898566e+01   1.537426e+03
  -8.324800e+02   9.753719e+02
  -7.238107e+02   3.047402e+02
  -2.265749e+02   4.476706e+01
   9.613562e+01  -3.374389e+00
   2.212812e+01   3.279391e+02
  -2.719235e+02   2.724929e+02
  -3.492066e+02   5.438399e+01
  -3.086190e+02  -3.379556e+02
  -9.855395e+01  -4.924118e+02
   9.613033e+01  -2.116972e+02
   1.257167e+02   1.807364e+02
  -1.211733e+02   2.969927e+02
  -2.440119e+02   9.618352e+01
  -2.205622e+02  -3.599106e+02
  -2.887256e+01  -5.333797e+02
   2.729494e+02  -3.746558e+02
   4.234517e+02   6.199110e+01
   1.166425e+02   2.838660e+02
  -3.639274e+01   2.303298e+02
  -2.989505e+01   6.553039e+01
   1.572644e+02   9.688474e+01
   2.100516e+02   2.406190e+02
  -4.919138e+01   3.099851e+02
  -3.624381e+02   1.382697e+02
  -4.433638e+02  -1.273365e+02
  -1.471186e+02  -1.928719e+02
   2.362941e+02  -2.339420e+01
   3.461470e+02   1.154783e+02
   1.769011e+02   2.859408e+02
  -1.770338e+02   2.700648e+02
  -3.483845e+02   1.263255e+02
  -2.276228e+02  -9.665189e+01
  -1.212767e+02  -2.189887e+02
  -6.451044e+01  -8.933313e+01
  -9.379035e+01   6.766881e+01
  -1.910402e+02   5.548549e+01
  -8.714805e+01  -1.673606e+02
   1.882235e+01  -3.733708e+02
   1.251432e+02  -2.945359e+02
   2.097814e+02  -2.635938e+01
   2.571892e+01   1.896800e+02
  -5.947393e+01   5.942584e+01
  -7.607145e+01  -2.390001e+02
   1.084573e+02  -2.838411e+02
   3.488022e+02  -6.656732e+01
   3.842591e+02   2.568295e+02
   1.104235e+02   3.979425e+02
  -2.952375e+02   1.942953e+02
  -4.115456e+02  -6.816799e+01
  -2.705230e+02  -1.798524e+02
   3.191897e+00  -1.908909e+02
   2.530636e+02  -1.020268e+02
   2.118165e+02   1.086339e+01
   6.349148e+01   1.755732e+01
  -9.504342e+00  -3.036955e+01
   1.159680e+02  -7.355797e+00
   1.942159e+02   4.699090e+01
   6.617461e+01   1.904759e+02
  -1.324642e+02   2.490733e+02
  -3.127340e+02   8.951203e+01
  -2.200974e+02  -1.428440e+02
   9.005774e+01  -2.960086e+02
   3.503089e+02  -2.906488e+02
   2.982778e+02  -7.065793e+01
   1.979319e+02   1.491988e+02
  -8.852637e+00   2.955404e+02
  -3.169704e+01   2.934097e+02
   7.010363e+01   2.096332e+02
  -3.335220e+01   1.875651e+02
  -1.983194e+02   1.364323e+02
  -2.548745e+02   6.001725e+01
  -2.450931e+02  -1.483054e+02
  -8.258440e+01  -2.350580e+02
   1.101385e+02  -1.448781e+02
   1.618739e+02   9.831791e+01
   5.925259e+01   2.152775e+02
  -1.022689e+02   2.213848e+02
  -2.273140e+02   3.900146e+01
  -2.077309e+02  -1.759060e+02
  -1.014403e+02  -2.711632e+02
   4.024721e+01  -2.098301e+02
   8.479532e+01  -1.538450e+02
   8.282497e+01  -5.098179e+01
   1.503396e+02  -6.502174e+01
   3.113248e+02  -4.692455e+01
   3.536662e+02   1.074914e+02
   2.618244e+02   2.870226e+02
  -7.237438e-01   3.886028e+02
  -3.377704e+02   3.177847e+02
  -4.042467e+02   1.669870e+02
  -2.000870e+02  -6.843967e+01
  -1.348051e+00  -1.492614e+02
   1.117624e+02  -9.058635e+01
   2.712918e+01  -2.959996e+01
  -1.091108e+02  -1.083709e+01
  -1.503100e+02  -3.918625e+01
  -3.600534e+01  -4.749173e+01
   6.809875e+01  -7.462699e+01
   7.829911e+01   5.772348e+01
  -3.444566e+01   4.075546e+01
  -1.177565e+02  -4.643893e+01
  -9.559907e+01  -2.200359e+02
   8.350916e+00  -3.221269e+02
   2.249380e+02  -1.569568e+02
   2.919389e+02   8.896547e+01
   2.294854e+02   2.245459e+02
   2.165097e+01   2.417731e+02
  -1.030413e+02   1.041309e+02
  -1.023267e+02  -2.546563e+00
  -1.889527e+01   1.823179e+01
   3.943068e+01   4.994008e+01
  -4.805081e+01   8.961243e+01
  -8.805143e+01   4.042322e+01
  -1.054260e+02   5.477320e+00
   2.789147e+01  -5.690120e+00
   2.815816e+01   3.744435e+01
   3.141757e+01   8.841632e+01
  -1.267517e+02   3.205935e+01
  -2.675955e+02  -4.124272e+01
  -2.259639e+02  -1.376698e+02
   3.211906e+01  -2.115193e+02
   2.064379e+02  -2.037784e+02
   2.512789e+02  -6.065079e+01
   1.015853e+02   5.913122e+01
  -2.605045e+01   3.770851e+01
  -5.572369e+01  -1.440084e+01
   6.820142e+01  -4.022028e+01
   1.802094e+02   6.609856e-02
   1.439741e+02   8.006879e+01
   3.028346e+01   1.405913e+02
  -6.187230e+01   8.497799e+01
  -6.118837e+01   3.413424e+01
   2.801144e+00   7.767725e+00
   2.730827e+01   5.620759e+01
  -2.238767e-01   1.085721e+02
  -9.196528e+01   1.152047e+02
  -1.699494e+02  -3.511658e+01
  -1.672448e+02  -1.346996e+02
  -2.543761e+00  -1.840240e+02
   1.174226e+02  -1.314211e+02
   1.341565e+02   2.646103e+01
   6.503454e+01   5.964766e+01
  -3.524461e+01   2.548730e+01
  -6.562271e+01   3.670624e+01
   7.592218e+00  -1.951449e+01
   4.576190e+01   1.073232e+01
   1.385889e+01   4.855063e+01
  -9.999046e+01   2.415685e+01
  -9.021196e+01  -1.318032e+02
  -6.884241e+00  -1.477220e+02
   1.234673e+02  -9.170308e+01
   2.244679e+02  -8.025143e+00
   1.996508e+02   1.310385e+02
   3.798823e+01   2.092679e+02
  -9.740208e+01   1.202136e+02
  -9.569357e+01   2.266874e+01
  -1.911020e+01   2.800605e+00
  -6.494980e+01  -4.081628e+01
  -4.599199e+01   1.340409e+01
  -1.119688e+02   2.248166e+01
  -6.141936e+01  -7.992625e+01
   4.624491e+01  -1.014896e+02
   1.414718e+02  -4.375915e+01
   1.128692e+02   9.129244e+01
  -3.000507e+01   9.170886e+01
  -1.894415e+02   6.669479e+01
  -2.560668e+02  -7.740072e+01
  -3.894725e+01  -1.912147e+02
   1.348521e+02  -1.910287e+02
   2.113613e+02  -1.127626e+02
   2.596861e+02   5.722200e+01
   1.023444e+02   1.554277e+02
  -6.998395e+01   1.163044e+02
  -9.726339e+01   8.217828e+01
  -6.322456e+01   9.926793e+01
  -3.863373e+01   8.086643e+01
  -7.807360e+01   2.971746e+01
  -1.167056e+02  -1.047645e+00
  -9.830694e+01  -1.618349e+02
  -4.900487e-01  -1.265596e+02
   1.158110e+02  -1.085695e+02
   1.570656e+02  -2.422378e+01
   1.057252e+02   8.301013e+01
  -3.894191e+01   1.116584e+02
  -3.120929e+01   8.329991e+01
   4.693402e+00  -1.150991e+01
   1.227635e+01  -6.286950e+01
   2.381964e+01  -4.461831e+01
  -2.812537e+01  -1.407733e+01
  -6.591557e+01  -2.482382e-01
  -6.625534e+00   1.667119e+00
   1.112718e+02  -2.332428e+01
   1.542328e+02   6.839861e+00
   9.004705e+01   5.639441e+01
  -3.678475e+01   9.395556e+01
  -1.194776e+02   4.805967e+01
  -1.587396e+02   2.480186e+01
  -5.383311e+01  -5.329366e+01
   8.250498e+01  -6.284818e+01
   5.506229e+01   3.511089e+01
   3.446251e+01   9.963151e+01
  -2.298587e+01   6.823714e+01
  -3.312697e+01  -9.401467e+00
  -3.013165e+01  -5.362073e+01
  -3.302239e+01  -6.032113e+01
  -6.205885e+01   1.305249e+01
  -6.972191e+01  -2.227423e+01
  -6.889351e+01  -4.278604e+01
   1.232954e+01  -1.237588e+02
   1.451359e+02  -9.381088e+01
   1.742164e+02  -5.290730e+01
   1.380728e+02   5.860561e+01
  -9.609498e+00   1.072519e+02
  -8.162091e+01   8.543337e+01
  -3.029381e+01   6.271338e+00
   7.465367e+01  -3.595237e+01
   1.198595e+02   1.783423e+01
   1.248049e+02   8.762503e+01
  -4.128648e+01   8.674176e+01
  -1.803900e+02   4.668193e+01
  -1.558013e+02  -3.852945e+01
  -1.549666e+00  -5.410312e+01
   6.820343e+01  -3.400266e+00
   5.144570e+01   2.544280e+01
   3.877064e-01   1.555685e+00
  -1.147106e+02  -3.140168e+01
  -5.642219e+01  -1.331650e+02
   9.402013e+01  -1.396029e+02
   1.702677e+02  -1.533246e+01
   9.220485e+01   1.136483e+02
   2.201764e+01   1.683503e+02
  -7.332594e+01   1.538424e+02
  -1.179784e+02  -1.200633e+01
  -1.014530e+02  -9.076955e+01
   3.646720e+01  -1.044497e+02
   4.625218e+01   4.814188e+00
   6.633532e+01  -2.081327e+01
   4.597016e+01  -4.174809e+00
  -3.064492e+01  -9.061132e+00
   1.703735e+01   5.777956e+00
   3.871051e+01   4.290353e+01
   4.044972e+01   1.132813e+02
  -5.471464e+01  -3.918005e+00
  -1.206335e+02  -5.233999e+01
  -1.112861e+02  -5.484621e+01
  -2.564819e+01  -4.984416e+01
   5.441142e+01  -6.327571e-01
   5.210692e+01   2.425906e+01
   1.935275e+01   3.393263e+01
  -2.896998e+01   1.771959e+00
  -3.884154e+01  -3.163869e+00
  -9.877321e+00  -3.324029e+01
   1.298401e+01   3.183766e+00
  -7.585076e+01   2.820317e+01
  -9.611020e+01  -1.120548e+01
  -3.261221e+01  -9.206106e+01
   1.059279e+02  -1.266770e+02
   1.592363e+02  -7.258191e+00
   1.846520e+02   5.855443e+01
   9.407129e+00   1.649074e+02
  -6.889052e+01   1.514496e+02
  -1.291039e+02   6.101182e+01
  -7.421586e+01  -2.745842e+01
  -1.038505e+01  -2.880615e+01
  -2.841183e+01  -1.202326e+01
  -7.732570e+00  -2.823206e+01
  -7.506326e+01  -8.033398e+01
  -2.494988e+01  -8.188839e+01
   3.475123e+01  -3.872737e+01
   8.095880e+01   3.773328e+01
   9.510621e+01   8.106973e+01
   3.072674e+01   7.198260e+01
  -6.700352e+01  -7.240540e-01
  -1.099996e+02  -3.873131e+01
  -3.615577e+01  -4.275307e+01
   4.013491e+01  -2.088729e+01
   1.166269e+02  -9.062959e+00
   4.800250e+01   5.502003e+01
  -4.146391e+01   4.531906e+01
  -4.184938e+01   1.232854e+01
   3.493551e+00  -3.797717e+01
   6.817793e+01  -4.105952e+01
   9.919030e+00   2.427742e+01
  -5.385331e+01   2.607984e+01
  -6.712172e+01   6.386309e+01
  -5.522859e+01  -3.478152e+01
  -1.484296e+01  -6.273129e+01
   7.989385e+01  -5.683920e+01
   5.050739e+01  -9.247090e+00
  -3.702643e+00   5.704611e+01
   1.667965e+01   6.165968e+01
  -3.191058e+01   4.179586e+01
  -3.418055e+01  -2.192142e+01
  -2.731564e+01  -4.384416e+01
   3.966756e+01  -1.438792e+01
  -2.669433e+01  -2.091071e+00
  -5.719704e+00  -2.951409e+01
  -1.336731e+00  -1.635326e+01
  -2.548306e+01   1.461727e+01
   6.914574e+00   3.421905e+01
  -7.354751e+00   5.983247e+00
  -5.703534e+01   3.256832e+01
  -5.426395e+01  -6.063347e+01
  -2.708798e+01  -6.281924e+01
   7.352926e+01  -4.200284e+01
   9.004573e+01   3.527608e+01
   1.366801e+01   5.796964e+01
  -2.528537e+01   8.528603e+01
  -5.761704e+01   3.216096e+01
  -1.550282e+00  -3.782821e+01
   2.264913e+01  -4.365418e+01
   1.806383e+01  -5.094014e+01
   6.490870e+01  -3.522611e+01
  -6.516778e+00   1.446627e+00
  -1.527970e+01  -1.821737e+01
   2.492851e+01  -2.509789e+01
   5.178107e+01  -1.564479e+01
