
 $NMID
 id='ANONYMOUS ', fmtdat='(2E16.6)'
 volume=1.0
 tramp=1.0
 $END
   2.795588e+03  -1.241397e+02
   1.863798e+03   1.644706e+03
  -3.334624e+02   1.801914e+03
  -1.453565e+03   5.403318e+02
  -6.850493e+02  -5.812594e+02
   5.632435e+02  -3.834963e+02
   6.635508e+02   2.520471e+02
   1.176942e+01   7.600981e+02
  -5.086672e+02   4.555199e+02
  -5.781805e+02  -5.354805e+01
  -3.601384e+02  -5.599638e+02
   2.107302e+02  -6.177291e+02
   5.231320e+02  -5.331493e+01
   2.449295e+02   4.780507e+02
  -2.252422e+02   5.132699e+02
  -4.027075e+02   2.598301e+01
  -1.971352e+02  -4.676699e+02
   2.075553e+02  -5.017268e+02
   3.713072e+02  -9.157380e+01
   2.351544e+02   2.506536e+02
  -1.971152e+01   3.084026e+02
  -1.878598e+02   1.776572e+02
  -1.258139e+02   7.194857e+00
   1.058662e+02  -4.526949e+01
   3.026207e+02   4.354439e+01
   2.175541e+02   2.554525e+02
  -2.374097e+02   2.531950e+02
  -5.001159e+02  -4.443030e+01
  -2.833436e+02  -3.377930e+02
   2.922292e+02  -2.939713e+02
   5.281641e+02  -4.700999e+00
   2.231040e+02   3.105045e+02
  -1.935025e+02   3.940243e+02
  -3.780542e+02   1.788357e+02
  -2.522507e+02  -1.368019e+02
  -7.227582e+01  -3.268875e+02
   1.537816e+02  -1.853188e+02
   1.240059e+02   1.599722e+02
  -8.543893e+01   2.882597e+02
  -3.029185e+02  -3.623139e+01
  -1.824447e+02  -4.716908e+02
   2.319066e+02  -4.274013e+02
   3.746014e+02  -2.794119e+00
   1.344648e+02   3.361971e+02
  -2.171816e+02   1.936500e+02
  -2.459687e+02  -2.136799e+02
   4.371647e+01  -3.607305e+02
   4.127131e+02  -9.818909e+01
   3.546958e+02   3.017261e+02
   8.440099e+01   4.361423e+02
  -3.075870e+02   2.229641e+02
  -4.241637e+02  -8.390131e+01
  -2.089182e+02  -2.784591e+02
   1.376677e+02  -2.286975e+02
   3.223591e+02   2.778141e+01
   9.885493e+01   1.569403e+02
  -1.021421e+02   2.665925e+01
  -1.262830e+02  -1.211018e+02
   1.322119e+02  -1.673173e+02
   2.908795e+02   4.923576e+01
   1.251093e+02   2.413004e+02
  -1.474957e+02   1.533448e+02
  -2.597676e+02   2.504145e+01
  -1.385882e+02  -6.464867e+01
   2.411521e+00  -1.520647e+02
   1.439049e+02  -2.240766e+02
   2.087817e+02  -1.632433e+02
   2.002294e+02   8.832156e+01
   1.690801e+01   3.144125e+02
  -1.061322e+02   1.812396e+02
  -9.123779e+01   1.783523e+01
   2.739667e+01  -4.397043e+01
  -8.990472e+00   8.526490e+01
  -1.068661e+02   1.063623e+02
  -1.820847e+02  -3.613253e+00
  -1.242247e+02  -1.808578e+02
   3.559752e+01  -1.685693e+02
   1.563069e+02  -1.295431e+01
   1.209513e+02   1.633476e+02
  -1.608206e+01   2.242208e+02
  -2.198583e+02   8.068949e+01
  -2.431781e+02  -1.309166e+02
  -1.299231e+02  -2.047368e+02
   8.644446e+01  -1.909013e+02
   1.850666e+02  -7.266010e+01
   1.047778e+02  -7.052653e+00
   7.023937e+01  -8.698568e-02
   1.446810e+02  -1.692771e+01
   2.459101e+02   3.331621e+01
   1.820355e+02   1.284786e+02
  -3.247743e+01   2.169424e+02
  -2.446533e+02   2.527138e+02
  -3.039004e+02   1.522272e+02
  -1.875021e+02  -5.402195e+01
  -7.280096e+01  -1.760224e+02
   4.442519e+01  -1.895744e+02
   7.889814e+01  -8.976507e+01
  -4.337032e+01   7.250020e+01
  -1.220810e+02   2.466439e+01
  -5.828548e+01  -6.527848e+01
   4.424129e+01  -1.223681e+02
   7.276377e+01   5.613106e+01
  -5.633337e+01   1.377145e+02
  -1.428176e+02  -4.944321e+00
  -9.590286e+01  -2.058974e+02
   4.446621e+01  -2.523702e+02
   1.616149e+02  -1.121440e+02
   2.288327e+02   3.573594e+01
   1.800913e+02   1.705719e+02
   7.133537e+01   1.742832e+02
  -6.410772e+01   7.843289e+01
  -9.502840e+01  -2.865165e+01
  -3.972431e+01  -3.929625e+01
   1.952457e+01   3.525212e+01
   3.386294e+01   5.246380e+01
  -7.755457e+01   6.780001e+01
  -1.334414e+02  -3.242052e+01
  -2.749098e+01  -6.009532e+01
   5.106880e+01   4.000644e+01
   3.190487e+01   4.301660e+01
  -8.958370e+01   8.243816e+01
  -2.159177e+02   1.256017e+01
  -2.152531e+02  -8.769147e+01
  -2.950330e+01  -1.673806e+02
   1.215496e+02  -1.398349e+02
   1.870596e+02  -5.389493e+01
   6.855283e+01   8.372209e+01
  -2.947643e+01   4.196898e+01
  -7.661244e+01   8.449174e-01
  -3.209781e+01  -5.775419e+01
   9.789308e+01  -2.934447e+01
   1.561543e+02   6.773059e+01
   5.971560e+01   1.560783e+02
  -6.915440e+01   9.974879e+01
  -1.170048e+02   3.132687e+01
  -1.002289e+02  -2.550628e+01
  -3.502461e+01   1.204477e+01
   5.987341e+00   5.302706e+01
   2.057388e+01   6.684828e+01
  -1.004739e+02   4.437696e+00
  -8.176995e+01  -9.375951e+01
  -1.490034e+01  -1.767452e+02
   1.105001e+02  -1.171232e+02
   1.257395e+02  -5.452926e+01
   9.362381e+01   8.008504e+01
  -5.673579e+01   9.645252e+01
  -6.723880e+01   7.152784e+01
  -3.004422e+01  -3.166023e+01
   2.426280e+01  -3.155777e+01
  -4.206489e+01  -3.107409e+01
  -2.578695e+01  -7.667539e+01
  -5.113559e+01   2.799291e+00
   2.451326e+01  -4.885277e+01
   1.094137e+02  -7.484629e+01
   1.466982e+02  -1.330209e+01
   1.338479e+02   8.388559e+01
   9.668060e+00   1.600359e+02
  -3.487516e+01   1.308072e+02
  -9.321839e+01   2.052500e+01
  -8.108692e+01  -2.367865e+01
  -4.842697e+01  -4.799471e+01
  -5.326193e+01   1.809258e+00
  -5.800082e+01  -3.107964e+01
  -1.527887e+01  -4.405161e+01
   3.258872e+01  -9.968652e+01
   2.547733e+01  -4.794684e+01
   2.287294e+01   2.098496e+01
  -1.004400e+01   5.457274e+01
  -1.111466e+02   2.727573e+01
  -1.495162e+02  -5.421235e+01
  -1.061833e+02  -1.474054e+02
   5.921147e+01  -1.500768e+02
   1.405641e+02  -9.198557e+01
   1.407284e+02   6.295340e+01
   1.999377e+01   1.059164e+02
  -2.851428e+01   1.219480e+02
  -7.952825e+01   9.623447e+01
  -8.347764e+01   6.226314e+01
  -2.723281e+01   7.604854e+01
  -1.676442e+00   6.564843e+01
  -7.558318e+01   3.588921e+01
  -7.535261e+01  -1.248552e+02
  -3.489218e+01  -1.530957e+02
   5.512986e+01  -1.007232e+02
   8.586274e+01  -3.975406e+01
   7.440358e+01   5.708804e+01
   7.371080e+01   7.983482e+01
  -3.048294e+01   6.118339e+01
  -1.110170e+02   3.305040e+01
  -1.154025e+00  -4.493405e+01
  -1.661780e+01   2.132440e+01
  -3.009472e+01   1.588001e+01
  -4.095374e+01   2.566208e+01
  -6.723195e+01   1.832137e+01
   2.452022e+01  -2.455518e+01
   6.492974e+01  -2.844569e+01
   6.308435e+01   2.693871e+01
  -1.780463e+01   3.158332e+01
  -9.277041e+01   8.957703e+01
  -1.568099e+02  -2.955710e+01
  -4.960455e+01  -5.584423e+01
   7.864026e+01   5.981709e+00
   8.373506e+01   4.022756e+01
  -1.437752e+01   8.362394e+01
  -5.485785e+01   2.552395e+01
  -5.253105e+01  -9.240113e+00
  -1.396912e+01  -6.086507e+00
  -4.975971e+01  -5.370964e+01
  -1.107875e+01  -2.155020e+01
  -1.078902e+00   6.371212e+00
  -2.316674e+01  -1.850570e+01
  -2.996181e+01  -1.145426e+02
   2.881132e+01  -1.073863e+02
   1.080446e+02  -2.423261e+01
   7.042622e+01   5.554522e+01
  -2.231262e+01   7.652086e+01
  -4.306889e+01   5.337337e-01
  -4.648358e+01  -2.900781e+01
   1.544825e+01   1.508370e+01
   1.308869e+02   2.790026e+00
   4.929946e+01   7.025132e+01
  -6.050646e+01   8.327326e+01
  -1.319331e+02   2.100494e+01
  -1.197434e+02   1.679954e+01
  -6.088573e+01  -9.766240e+00
   4.676361e+01  -5.573612e+01
   6.788577e+01   2.454260e+01
  -1.282462e+01   5.305369e+00
  -5.689411e+01   5.776206e+00
  -4.207778e+01  -8.420981e+01
   4.961290e+01  -3.689062e+01
   8.186371e+01  -6.142868e+01
   3.988581e+01   7.097449e+01
   6.486152e+00   1.568507e+02
  -4.639962e+01   1.161817e+02
  -7.399410e+01  -2.972489e+00
   8.555231e+00  -6.155245e+01
  -2.809160e+01  -4.068329e+01
   2.819290e+01   1.822683e+00
   3.342835e+01   2.637239e+01
   3.515127e+01   4.289554e+01
  -4.843327e+01  -5.715041e+00
   3.238371e+01  -9.113652e+00
   3.738375e+01   3.671576e+01
   3.662228e+01   6.599268e+01
  -5.184200e+01   3.212184e+01
  -1.020335e+02  -7.145826e+01
  -9.224940e+01  -4.437824e+01
  -9.255731e+00  -4.526635e+01
   5.985503e+01  -1.820090e+01
   1.176388e+02   2.647659e+01
   4.062371e+01  -5.783454e+00
  -3.731791e+01   3.130352e+01
  -3.184425e+01   4.628841e+01
  -5.871311e-01  -2.072178e+01
   3.920321e+00   1.093860e+01
  -4.321363e+01  -3.267457e+01
  -5.651149e+01  -1.600594e+01
   1.853713e+01  -4.037797e+01
   6.662580e+01  -6.950684e+01
   1.342517e+02   6.863087e+00
   1.443103e+02   9.447403e+01
   3.055295e+01   1.175366e+02
  -8.472944e+00   7.698597e+01
  -3.371336e+01   4.176362e+01
  -4.608190e+01  -1.671523e+01
  -1.417879e+01  -4.483649e+01
  -1.374310e+01  -3.506419e+01
  -2.181932e+01  -1.554198e+01
  -5.390392e+01  -2.547826e+01
  -1.403604e+01  -6.718899e+01
   3.227249e+01  -5.920305e+01
   3.572000e+01  -1.863700e+01
   6.792947e+01   6.320226e+01
   3.138272e+01   2.847910e+01
  -2.280541e+01   5.715422e+01
  -6.797723e+01  -7.943141e+01
  -1.744889e+01  -9.499154e+01
   6.334451e+01  -3.003616e+01
   7.829893e+01   6.355565e+01
   3.841253e+01   5.709424e+01
  -4.614799e+01   4.091181e+01
  -5.725719e+01  -2.216243e+01
   2.018330e+01  -3.208395e+01
   6.467887e+01  -1.064131e+01
  -7.448133e+00  -2.928969e+01
  -8.098331e+01   1.851481e+01
  -7.467044e+01   4.582560e+01
  -2.936186e+01  -3.976569e+00
  -6.649491e+01  -4.194555e+01
  -1.537807e+01  -7.929550e+01
   4.921717e+00  -1.184409e+01
   6.579017e+00   2.686601e+01
  -8.038659e+00   1.840362e+01
   2.225852e+00  -3.538873e+01
  -8.582869e+00  -9.899306e+00
  -9.932806e+00  -4.808585e+01
  -5.612466e+00   3.484994e+00
   2.497016e+01  -4.327473e+00
   1.587187e+01   2.630642e+01
  -6.116896e+00  -2.060250e+01
  -2.533453e+01   2.578039e+01
  -1.383212e+00   2.883208e+01
   4.385174e+01   2.104722e+01
   3.413123e+01  -2.924423e+01
   8.599779e+00  -4.255922e+01
   3.203150e+01  -1.643740e+01
   5.353200e+01   1.334203e+01
   1.728436e+01   1.334228e+01
   1.546761e+01   5.056680e+01
  -7.625610e+01   1.174689e+01
  -9.272354e+01  -4.981898e+00
  -9.222103e+01  -4.140324e+01
  -2.070211e+01  -3.647909e+01
   2.349862e+01  -8.960140e+00
   4.349577e+01  -2.031575e+01
  -3.552620e+01  -4.698649e+00
  -4.575015e+01   7.121665e+00
   1.396453e+01  -2.293832e+01
   5.409005e+01  -2.471764e+01
