
 $NMID
 id='ANONYMOUS ', fmtdat='(2E16.6)'
 volume=1.0
 tramp=1.0
 $END
   3.139307e+03   2.701201e+02
   2.081364e+03   1.737718e+03
  -8.902596e+01   2.149800e+03
  -1.252952e+03   1.150077e+03
  -8.179902e+02  -6.739220e+01
   1.640607e+02  -1.970546e+02
   6.465973e+02   3.006314e+02
   1.474099e+02   7.170054e+02
  -5.399959e+02   7.098932e+02
  -7.270864e+02   5.964850e+01
  -4.317433e+02  -5.698124e+02
   6.504172e+01  -6.286456e+02
   4.358460e+02  -1.155694e+02
   1.978806e+02   5.734805e+02
  -1.878320e+02   5.465431e+02
  -4.183529e+02   1.011550e+01
  -2.824878e+02  -4.353601e+02
   2.189850e+02  -5.886577e+02
   5.028734e+02  -2.281348e+02
   3.732670e+02   2.366599e+02
   8.570563e-01   3.651436e+02
  -1.588592e+02   2.757532e+02
  -7.139292e+01   3.768640e+01
   1.255540e+02  -4.687481e+01
   2.611909e+02   1.294949e+02
   7.856752e+01   3.056298e+02
  -3.840966e+02   2.142610e+02
  -5.837967e+02  -8.453455e+01
  -2.723488e+02  -3.270324e+02
   3.311810e+02  -2.604533e+02
   4.980610e+02   7.468798e+01
   1.720752e+02   3.476312e+02
  -2.487795e+02   3.686428e+02
  -4.275183e+02   1.077912e+02
  -2.409857e+02  -1.378190e+02
  -8.052149e+01  -2.867044e+02
   1.272934e+02  -1.596499e+02
   4.401746e+01   2.043909e+02
  -1.445516e+02   3.129185e+02
  -2.947514e+02   1.290016e+01
  -1.350838e+02  -4.886704e+02
   2.572289e+02  -4.530235e+02
   4.077862e+02  -1.559687e+00
   1.693515e+02   4.193541e+02
  -2.405414e+02   2.462077e+02
  -2.924925e+02  -2.407456e+02
   4.531316e+01  -3.939524e+02
   4.268688e+02  -1.489103e+02
   5.035177e+02   3.253648e+02
   1.320505e+02   4.899542e+02
  -2.858859e+02   2.811561e+02
  -5.081847e+02  -2.198586e+01
  -2.912510e+02  -2.653398e+02
   9.293544e+01  -2.214913e+02
   2.963174e+02  -3.956603e+01
   1.887000e+02   9.976971e+01
  -8.936628e+00   7.626153e+01
  -7.053094e+01  -7.352302e+01
   9.034294e+01  -1.049728e+02
   2.248332e+02   5.012656e+01
   1.206582e+02   2.002032e+02
  -1.305996e+02   1.930425e+02
  -2.982890e+02   6.378374e+01
  -1.895723e+02  -8.826189e+01
   6.502575e+01  -2.724432e+02
   2.165339e+02  -3.002197e+02
   2.793704e+02  -1.634351e+02
   2.208326e+02   8.773788e+01
   6.986430e+01   3.219454e+02
  -6.286276e+01   2.569107e+02
  -1.468808e+01   1.321033e+02
   1.470783e+01   6.039724e+01
  -1.037657e+02   9.597266e+01
  -2.223596e+02   5.692508e+01
  -2.579168e+02  -1.425046e+02
  -8.362907e+01  -2.698909e+02
   9.101337e+01  -1.583031e+02
   1.986844e+02   3.700326e+01
   1.252004e+02   1.925525e+02
  -3.150156e+01   2.291805e+02
  -2.493654e+02   1.200813e+02
  -3.030096e+02  -1.504606e+02
  -1.434896e+02  -3.015218e+02
   6.541470e+01  -3.019971e+02
   1.447840e+02  -1.135989e+02
   1.075408e+02  -3.457811e+01
   1.186850e+02   1.183236e+01
   2.317141e+02  -3.250874e+01
   3.531644e+02   9.028992e+01
   2.522084e+02   2.398357e+02
   2.504271e+01   3.868266e+02
  -3.085230e+02   3.893380e+02
  -4.323916e+02   1.497622e+02
  -2.937786e+02  -8.726432e+01
  -5.916103e+01  -2.447247e+02
   8.743377e+01  -1.963477e+02
   2.642680e+01  -4.210927e+01
  -7.002160e+01   4.967537e+01
  -1.335534e+02   1.762715e+01
  -3.404002e+01  -1.568944e+02
   6.144621e+01  -1.574026e+02
   1.094170e+02   7.367118e+00
  -3.016883e+01   9.849015e+01
  -1.253098e+02  -4.024277e+00
  -9.725274e+01  -1.919359e+02
   7.762219e+01  -2.791575e+02
   2.174415e+02  -1.467729e+02
   3.283629e+02   8.454003e+01
   2.140024e+02   2.540808e+02
   2.653465e+01   2.538435e+02
  -8.406099e+01   1.542227e+02
  -1.520594e+02   1.760668e+00
  -2.277499e+01  -3.684410e+01
   6.072051e+01   4.868330e+01
  -2.265138e+01   1.209754e+02
  -1.183675e+02   1.115585e+02
  -1.373945e+02   1.321006e+01
  -9.225206e+01  -7.859548e+01
   9.664252e+01  -1.834229e+01
   4.682604e+01   1.019697e+02
  -7.806688e+01   2.779804e+01
  -2.425368e+02  -6.015064e+01
  -2.073730e+02  -1.635087e+02
  -8.345427e+00  -2.162683e+02
   2.062075e+02  -1.736053e+02
   2.741667e+02  -3.286331e+01
   1.538632e+02   4.303530e+01
  -1.015654e+01   1.111120e+02
  -8.945830e+01  -2.492212e+01
   6.262196e+01  -7.477136e+01
   1.675348e+02  -3.800083e+01
   1.612208e+02   1.064364e+02
   5.270991e+01   1.486483e+02
  -1.034400e+02   1.288522e+02
  -1.345510e+02   9.958757e+00
  -3.869714e+01  -4.614949e+01
   1.716160e+00   1.777682e+01
   3.077861e+01   5.317887e+01
  -6.063486e+01   5.269192e+01
  -1.621037e+02   2.524215e-01
  -1.282033e+02  -1.103854e+02
  -2.982333e+01  -1.689041e+02
   1.639215e+02  -1.374553e+02
   2.138909e+02   2.154340e+01
   5.448930e+01   9.254546e+01
  -3.249905e+01   1.086335e+02
  -4.718192e+01   3.965648e+01
  -8.397124e+00   8.117174e+00
   3.073578e+01   1.215971e+01
  -2.047994e+01  -4.924967e+00
  -9.668911e+01  -2.829138e+01
  -8.893815e+01  -8.578001e+01
   1.797308e+01  -1.251356e+02
   1.107772e+02  -1.276186e+02
   2.011934e+02  -3.378019e+01
   1.824416e+02   1.264774e+02
   5.944584e+00   1.876944e+02
  -1.032774e+02   1.142124e+02
  -1.270119e+02  -3.139393e-01
  -9.735940e+01  -9.551555e+01
  -1.519438e+01  -3.959006e+01
  -6.598589e+01   3.096915e+00
  -6.703398e+01  -1.638854e+01
  -3.638779e+01  -3.623681e+01
   5.494634e+00  -3.834102e+01
   9.451537e+01  -3.212624e+01
   5.027589e+01   6.093325e+01
  -4.749733e+00   1.149030e+02
  -1.225787e+02   7.717973e+01
  -1.742740e+02  -1.022585e+02
  -9.208802e+01  -1.629254e+02
   1.056208e+02  -1.758091e+02
   2.468006e+02  -7.080206e+01
   1.820134e+02   1.163724e+02
   1.006330e+02   1.525565e+02
  -5.012998e+01   1.179395e+02
  -1.462920e+02   5.367990e+01
  -6.779155e+01   1.091574e+01
  -3.602390e+01  -9.052806e+00
  -8.501864e+01   3.829671e+01
  -1.078162e+02  -3.476071e+01
  -8.067792e+01  -1.327042e+02
  -3.834485e+00  -1.653266e+02
   8.778716e+01  -1.911762e+02
   1.256311e+02  -1.200343e+01
   1.479623e+02   1.316294e+02
  -2.755901e+01   1.094297e+02
  -3.031206e+01   7.659798e+01
  -5.898768e+01  -1.213170e+01
   6.450524e+01  -3.993606e+01
   1.543352e+01   1.665224e+01
  -6.365397e+01   2.182965e+01
  -8.229784e+01  -4.619009e+01
  -7.135901e+01  -3.884139e+01
   3.842554e+01  -2.608370e+01
   1.814819e+02  -1.785571e+01
   1.492770e+02   6.003001e+01
  -3.478418e+01   7.348073e+01
  -1.221235e+02   2.555499e+01
  -1.079820e+02   2.536201e+00
  -3.188808e+01  -4.625636e+01
   7.761676e+01  -3.810244e+01
   7.302363e+01   1.488060e+01
   1.278095e+01   6.726209e+01
  -4.827779e+01   1.038801e+01
  -1.079650e+02  -1.481123e+01
  -9.545855e-01  -6.009751e+01
  -3.352836e+01  -7.945494e+01
  -6.640038e+01   4.923154e+01
  -8.478537e+01  -2.331516e+01
  -3.875454e+01  -6.884432e+01
   7.248545e+01  -5.571256e+01
   1.046295e+02  -9.839103e+01
   1.344380e+02  -3.274057e+01
   1.125520e+02   5.899986e+01
  -1.718981e+00   1.168148e+02
  -5.296342e+01   4.574104e+01
  -2.960704e+01  -7.086800e+01
   6.526603e+01   1.211755e+01
   1.007694e+02   5.293519e+01
   8.834690e+01   7.786454e+01
  -9.112918e+01   8.767391e+01
  -1.333439e+02   5.391931e+00
  -1.621278e+02  -4.139115e+01
  -8.754468e+01  -9.239377e+01
   5.818352e+01  -4.792722e+01
   4.858443e+01   2.989519e+01
  -1.570494e+01   1.036770e+01
  -8.992041e+01  -2.795571e+01
  -4.500902e+01  -5.797618e+01
   6.841308e+01  -7.515169e+01
   1.446118e+02  -3.752852e+01
   8.500930e+01   8.778505e+01
   2.251004e+01   1.679920e+02
  -8.517408e+01   9.999723e+01
  -9.241409e+01  -2.041574e+01
  -3.514568e+01  -7.088827e+01
   1.517698e+01  -9.310565e+01
   1.834327e+01   1.303790e+01
  -5.585944e+00  -2.730664e+01
   2.711679e+01  -1.583787e+01
  -1.315703e+01   2.585172e+01
   1.721338e+01  -1.815703e+01
   2.903645e+01   1.059288e+02
   1.709760e+01   7.966194e+01
  -5.206586e+01  -4.235368e+01
  -8.976956e+01  -1.104581e+02
  -5.192678e+01  -1.179691e+02
   3.217943e+01  -6.742008e+01
   3.863682e+01   2.794694e+00
   1.346444e+02   2.138893e+01
  -2.271054e+00   3.095872e+01
  -7.949582e+01   3.365107e+01
  -3.489211e+01  -3.168301e+00
  -2.491052e+01  -4.931265e+01
  -6.075580e+00  -1.310710e+01
  -6.285387e+01  -1.825547e+01
  -7.210177e+01  -4.460701e+01
   1.898022e+01  -6.578481e+01
   1.145399e+02  -7.049727e+01
   1.726469e+02  -6.539567e+01
   1.402749e+02   6.268050e+01
   4.708342e+01   1.192595e+02
  -6.319271e+01   1.467736e+02
  -1.016774e+02   5.806495e+01
  -6.974808e+01  -1.521833e+01
  -4.507582e+01  -5.274152e+01
   4.244140e+00  -7.079939e+01
   5.320708e+00  -1.127453e+01
  -5.283100e+01  -5.736312e+01
   6.157637e+00  -7.253648e+01
   2.563242e+01  -3.054292e+01
   1.007135e+02   5.362335e+01
   8.375322e+01   1.027356e+02
  -6.557056e+00   8.275415e+01
  -6.367172e+01  -7.970681e+00
  -4.917109e+01  -6.310777e+01
  -5.712964e+01  -8.844169e+01
   8.069234e+01  -2.652242e+01
   1.203898e+02  -1.921255e+01
   3.611991e+01   5.569873e+01
  -4.962697e+01   1.446598e+01
  -7.872597e+01   2.059655e+01
   3.873976e+01   8.123370e+00
   3.444590e+01  -1.432196e+01
   3.328154e+01   2.163519e+01
  -5.621089e+01   8.250011e+01
  -9.062973e+01   2.211575e+01
  -5.213978e+01   9.324285e+00
   1.067611e+01  -8.223386e+01
   9.487863e+01  -7.131966e+01
   3.704162e+01   6.934260e+00
   8.031704e+00   5.018102e+01
  -2.250114e+01   1.880140e+01
  -5.133599e+01   2.497111e+01
  -2.352510e+01  -1.750253e+01
   1.851587e+01  -1.179137e+01
   5.991400e+01   1.558319e+01
   3.536002e+01   4.423957e+01
   4.780546e+00   4.190461e+01
  -3.618997e+01   1.048940e+01
  -1.497332e+00   2.326536e+01
   1.030691e+01   9.456725e+00
  -1.573681e+01   1.657023e+01
  -4.085303e+00  -1.326064e+01
   2.789831e+00  -3.609821e+01
   1.220586e+01  -6.941205e+01
   4.921583e+01  -1.034049e+01
   9.075662e+01  -6.246171e-01
   1.631219e+01   9.049327e+01
  -2.703725e+01   3.683132e+01
  -1.306437e+02  -2.219030e+01
  -2.250632e+01  -6.620456e+01
   2.660594e+01  -5.180345e+01
   4.275215e+01  -2.890752e+01
   3.574258e+01  -2.818475e+00
  -8.781881e+00   1.890127e+01
  -3.071008e+01  -2.124205e+01
   1.569204e+01  -2.181607e+01
   6.858045e+01  -2.688487e+01
