
 $NMID
 id='ANONYMOUS ', fmtdat='(2E16.6)'
 volume=1.0
 tramp=1.0
 $END
  -2.470235e+03  -1.262885e+01
  -1.788257e+03  -1.314668e+03
  -1.430471e+02  -1.653930e+03
   9.155791e+02  -1.145197e+03
   7.874935e+02  -3.608612e+02
   1.225163e+02   1.636832e+02
  -2.537246e+02  -3.630585e+01
  -7.974102e+01  -3.961656e+02
   2.861218e+02  -4.095201e+02
   5.059353e+02  -1.174896e+02
   3.919078e+02   3.564980e+02
   5.987306e+01   4.339313e+02
  -1.923418e+02   1.479429e+02
  -1.651621e+02  -3.041600e+02
   7.690376e+01  -4.331145e+02
   4.194669e+02  -7.914956e+01
   3.219297e+02   4.542782e+02
  -4.014147e+01   5.486166e+02
  -4.694808e+02   3.132593e+02
  -4.580128e+02  -1.148758e+02
  -1.571955e+02  -2.452871e+02
   1.680180e+01  -1.568044e+02
   6.828880e+00  -5.804324e+01
  -2.079974e+02  -8.291609e+01
  -2.785938e+02  -2.942302e+02
   8.266390e+01  -3.770860e+02
   4.045062e+02  -1.346212e+02
   5.289504e+02   1.592068e+02
   2.399598e+02   3.044491e+02
  -2.941137e+02   1.015685e+02
  -3.574294e+02  -1.095338e+02
  -9.183455e+01  -3.094837e+02
   2.559631e+02  -3.060411e+02
   4.904602e+02  -1.218667e+02
   3.070677e+02   1.835071e+02
   1.512905e+02   2.654519e+02
  -3.088477e+00   1.554681e+02
   1.765230e+01  -6.458390e+01
   1.562911e+02  -7.571506e+01
   1.753826e+02   1.662813e+02
   4.168874e+01   4.298266e+02
  -2.153696e+02   3.876471e+02
  -2.889132e+02  -1.735079e+00
  -8.494112e+01  -2.434787e+02
   9.033635e+01  -8.963318e+01
   1.670745e+02   2.424251e+02
  -8.640897e+01   3.075019e+02
  -4.289442e+02   1.034805e+01
  -4.441593e+02  -3.262731e+02
  -1.282096e+02  -4.213206e+02
   2.855210e+02  -2.176594e+02
   4.894828e+02   4.126881e+01
   2.826497e+02   1.701131e+02
  -4.927691e+01   1.739095e+02
  -2.371951e+02   7.804768e+01
  -1.566661e+02  -9.134732e+00
   4.035777e+01   9.215915e+00
   5.406854e+01   5.648159e+01
  -5.178517e+01   8.977692e+01
  -2.098989e+02   3.415902e+00
  -1.165921e+02  -1.473421e+02
   7.736938e+01  -1.885400e+02
   2.944044e+02  -1.018590e+02
   2.325218e+02   1.020592e+02
  -5.232840e+01   3.544339e+02
  -3.021606e+02   3.257008e+02
  -3.998692e+02   1.061028e+02
  -2.385304e+02  -1.916827e+02
  -6.149104e+01  -3.206452e+02
   3.747331e+01  -3.129580e+02
   1.406359e+01  -1.536516e+02
   3.973946e+01  -1.094066e+02
   1.500758e+02  -1.047502e+02
   2.158753e+02  -4.956191e+01
   2.130324e+02   1.362553e+02
   6.583463e+01   2.047927e+02
  -1.137244e+02   1.764655e+02
  -1.733998e+02  -5.463302e+01
  -1.293049e+02  -1.973913e+02
   9.213575e+01  -2.135070e+02
   2.487227e+02  -5.916140e+01
   2.698894e+02   1.581945e+02
   1.250487e+02   2.653527e+02
  -1.080799e+02   2.586933e+02
  -1.668934e+02   1.276760e+02
  -1.670954e+02   8.791631e+01
  -1.410073e+02   3.011502e+01
  -2.319365e+02   4.386868e+01
  -3.599906e+02  -9.823195e+01
  -2.926647e+02  -2.941726e+02
   2.905892e+01  -3.517274e+02
   3.567113e+02  -3.379765e+02
   4.245344e+02  -1.433729e+02
   2.781078e+02   6.822011e+01
   7.233630e+00   1.770375e+02
  -8.835443e+01   1.100652e+02
   2.664382e+01  -1.701119e+01
   1.339938e+02  -2.483674e+01
   1.478542e+02   4.008000e+01
   2.759255e+01   1.437815e+02
  -8.367895e+01   6.714137e+01
  -7.881142e+01   1.120187e+01
   4.639882e+01  -1.258749e+02
   1.224693e+02  -9.285163e+00
   1.403018e+02   2.157172e+02
  -3.716098e+01   3.042475e+02
  -1.969668e+02   2.031956e+02
  -3.149732e+02   7.956002e+00
  -2.514822e+02  -2.104367e+02
  -6.089159e+00  -2.766782e+02
   1.496809e+02  -1.388427e+02
   1.184855e+02  -3.022999e+01
  -1.417837e+01   1.143012e+01
  -7.302879e+01  -4.477386e+01
   1.128012e+01  -1.321784e+02
   1.507030e+02  -5.232900e+01
   1.662534e+02  -2.174470e+00
   8.033498e+01   1.894083e+01
  -6.446804e+01  -3.513582e+01
  -3.313263e+01  -1.052195e+02
   1.264001e+02  -5.278618e+01
   2.801945e+02  -1.424813e+01
   2.289361e+02   1.691415e+02
   7.570914e+00   2.412656e+02
  -1.810369e+02   2.160180e+02
  -2.154400e+02   7.961842e+01
  -1.242628e+02  -6.317056e+01
   4.572208e+01  -1.176878e+02
   1.252659e+02   1.272746e+01
  -4.613118e+01   8.906158e+01
  -1.405282e+02   5.482480e+01
  -1.783451e+02  -6.962683e+01
  -4.099563e+01  -1.777435e+02
   1.010845e+02  -9.757415e+01
   1.160236e+02   4.386677e+01
  -8.901536e+00   5.454820e+01
  -6.136041e+01  -4.103356e+01
   3.056146e+00  -1.126686e+02
   1.433203e+02  -1.056153e+02
   1.972766e+02  -1.240768e+01
   1.819908e+02   1.238746e+02
   1.114214e+01   2.217564e+02
  -1.461562e+02   1.673822e+02
  -1.694293e+02   2.124850e+01
  -7.551973e+01  -6.957345e+01
   6.911688e+01  -6.040912e+01
   6.295866e+01  -4.150996e+01
  -2.640501e+01   2.301796e+01
  -8.732261e+01  -6.019259e+00
  -1.183315e+01  -5.595990e+01
   1.138512e+02  -6.369103e+01
   1.289177e+02   3.612904e+01
   2.313574e+01   1.220089e+02
  -9.906860e+01   1.267693e+02
  -2.361666e+02   4.658593e+01
  -1.934685e+02  -1.228571e+02
  -3.911984e-01  -2.462741e+02
   1.098800e+02  -1.816728e+02
   9.041540e+01  -4.859912e+01
   7.596773e+01   8.461967e+00
   3.320816e+01   1.520364e+01
   3.406809e+01  -1.192753e+01
   9.809746e+01   2.416393e+01
   8.342210e+01   6.811885e+01
  -4.042648e+00   1.211140e+02
  -1.254361e+02   8.742861e+01
  -1.384444e+02  -6.464230e+01
  -8.779840e-01  -1.598385e+02
   1.518452e+02  -9.611084e+01
   2.060686e+02   4.883807e+01
   1.014004e+02   1.956510e+02
  -1.041404e+02   1.882194e+02
  -2.747499e+02   7.102190e+01
  -1.530917e+02  -8.671920e+01
  -4.374767e+01  -1.706506e+02
   6.936180e+01  -1.115938e+02
   6.290965e+01  -3.240928e+01
   4.053925e+01  -3.837206e+01
   1.618428e+01  -8.087585e+01
   4.301605e+01  -3.983289e+01
   1.157978e+02   3.283744e+01
   1.238423e+02   1.518569e+02
   4.176905e+01   1.671302e+02
  -1.127978e+02   1.443291e+02
  -1.591273e+02  -4.022234e+01
  -9.987515e+01  -1.019862e+02
   4.552410e+01  -1.357408e+02
   6.934654e+01  -5.535072e+01
   9.251384e+01   6.899158e+01
  -5.410839e+00   6.703104e+01
  -4.604675e+01   2.310789e+01
   3.382001e+01  -1.685247e+01
   5.918963e+01  -3.887752e+01
   8.866878e+00   1.845992e+01
  -5.160793e+01   5.720902e+01
  -1.219612e+02  -2.736681e+01
  -1.591235e+02  -7.208276e+01
   6.151444e+00  -9.847231e+01
   1.064019e+02  -7.215453e+01
   1.063864e+02  -1.204751e+01
   3.060261e+01   6.268979e+01
  -6.442569e+01   5.556868e+01
  -1.238921e+02  -2.561116e+01
  -8.828943e+00  -7.850871e+01
   8.495210e+01  -1.213745e+02
   1.083693e+02  -1.048851e+01
   9.413138e+01   7.192314e+01
   2.632270e+01   7.094368e+01
   2.198751e+01   2.277883e+01
   4.857865e+01  -1.337952e+01
   3.530728e+01   6.548094e+01
  -2.253469e+01   9.276282e+01
  -9.103615e+01   1.105136e+02
  -1.568217e+02   1.451154e+01
  -1.629192e+02  -1.106958e+02
  -1.234393e+00  -1.558660e+02
   7.021952e+01  -9.174919e+01
   7.646710e+01   3.704917e+01
  -2.311830e+01   1.123690e+01
  -4.369132e+01  -5.880149e+01
  -6.566347e+01  -1.103094e+02
   6.476590e+01  -1.086498e+02
   1.789258e+02  -3.910233e+01
   1.259964e+02   5.441894e+01
   4.573552e+00   8.267557e+01
  -8.952325e+01   2.586655e+01
  -4.356134e+01  -1.541138e+01
   5.042090e+01  -4.729156e+01
   1.250852e+02  -1.341437e+00
   1.193702e+02   1.112311e+02
  -3.362025e+01   1.416400e+02
  -1.773939e+02   7.529087e+01
  -1.626624e+02  -8.006305e+01
  -4.094139e+01  -1.883785e+02
   6.750911e+01  -1.215142e+02
   8.142394e+01   2.809391e+01
   6.149318e+01   1.058915e+02
  -2.726287e+01   1.229408e+02
  -4.728810e+01   2.842127e+01
  -5.598789e+01  -9.393721e+01
   5.081157e+00  -7.104515e+00
   8.807133e+00   2.343104e+01
   4.632803e+01  -5.788896e+01
  -3.755950e+01  -3.841906e+01
  -1.554667e+01  -3.975989e+01
   6.645712e+01  -4.198005e+01
   1.343190e+02   3.112605e+01
   8.415767e+01   7.845252e+01
   8.872844e+00   6.990620e+01
  -7.645280e+01   2.710243e+01
  -1.022757e+02  -7.265106e-01
  -3.290348e+01  -1.508543e+00
   5.260829e+00  -4.474833e+01
   2.027407e+01  -1.445770e+01
  -2.958051e+01   1.216439e+01
  -3.298330e+01   1.075039e+01
   5.221013e+01  -1.411603e+01
   8.145945e+01   6.945898e+00
   3.516044e+00   7.111336e+01
  -7.885201e+01   5.546173e+01
  -1.505166e+02   2.185467e+01
  -1.556261e+02  -2.312431e+01
  -3.120096e+01  -1.294512e+02
   7.950839e+01  -1.417554e+02
   1.014919e+02  -2.692480e+01
   4.307003e+01   3.151400e+01
   4.804370e+01   6.010434e+01
  -3.522763e+01   3.457068e+01
  -4.743167e+00  -3.588880e+01
   2.273177e+01   3.453482e+01
  -1.716207e+01   9.884072e+01
  -4.078885e+01   7.191085e+01
  -7.655667e+01   1.867614e+01
  -1.005493e+02  -4.679808e+01
  -2.195905e+01  -1.129965e+02
   5.582049e+01   3.838054e+00
   9.719113e+01   4.594964e+01
   4.900976e+01   8.349563e+01
  -1.000607e+02   4.593143e+01
  -1.389678e+02  -1.276365e+01
  -4.601364e+01  -4.035756e+01
   9.205232e+00  -7.222336e+01
   1.135032e+01  -1.282797e+01
   1.656862e+01   2.998273e+01
  -6.972852e+01  -1.855361e+01
  -7.269193e+01  -1.364883e+01
   4.723247e+01  -6.741560e+01
   1.541594e+02  -7.101946e+01
   6.378324e+01   2.826065e+01
   2.491911e+01   8.044424e+01
  -5.587451e+01   9.918737e+01
  -6.063798e+01  -2.964343e-01
  -1.750712e+01  -4.203301e+01
   4.939399e+01   1.451436e+01
   5.333600e+01   6.958600e+01
  -2.800576e+01   7.407046e+01
  -2.109433e+01   1.435023e+01
  -3.823281e+01  -1.712809e+01
  -7.065349e+01  -5.224796e+01
  -2.022371e+01  -3.606245e+01
   3.037466e+01   1.407769e+01
   1.265491e+01   1.483286e+01
   9.924139e-01  -3.944950e+01
  -1.291355e+01  -4.172329e+01
   5.568801e+01   3.400724e+00
   7.433959e+01   2.801796e+01
   5.342607e+01   5.031187e+01
  -4.149655e+01   6.192920e+01
  -1.169177e+02  -6.683303e+00
  -3.150539e+01  -6.252985e+01
   6.403446e+01  -4.179561e+01
   9.099067e+01   4.812901e+00
   6.223646e+01   3.757683e+01
  -2.341631e+01   3.470816e+01
  -8.435043e+01   1.143128e+01
  -4.095090e+01   1.871806e+01
   6.547535e+01  -1.092321e+01
   1.969536e+01  -4.093452e+01
  -1.423524e+01   4.640916e+01
  -4.132828e+01  -1.100628e+01
