
 $NMID
 id='ANONYMOUS ', fmtdat='(2E16.6)'
 volume=1.0
 tramp=1.0
 $END
   2.760886e+03   9.831165e+01
   1.834806e+03   1.328257e+03
   5.673704e+01   1.834544e+03
  -7.973874e+02   1.264587e+03
  -6.667274e+02   6.074708e+02
  -1.722692e+02   3.432150e+01
   1.799084e+02  -1.943209e+01
   9.620940e+01   2.560056e+02
  -3.588201e+02   4.621616e+02
  -4.781186e+02   1.561097e+02
  -2.951768e+02  -3.891228e+02
  -3.213903e+01  -5.283396e+02
   1.694735e+02  -1.549414e+02
   1.821215e+02   2.160389e+02
  -6.415543e+01   4.419062e+02
  -2.439407e+02   1.120623e+02
  -2.133402e+02  -3.511740e+02
  -3.325613e+01  -5.184259e+02
   3.710412e+02  -3.096984e+02
   4.400068e+02   6.656869e+01
   2.790593e+02   3.026589e+02
  -3.510490e+01   1.437952e+02
  -7.419138e+01   3.639716e+01
   2.379353e+02   1.516753e+02
   2.373576e+02   2.934719e+02
  -1.084079e+02   3.449971e+02
  -4.243846e+02   1.625296e+00
  -5.660545e+02  -2.484568e+02
  -1.548028e+02  -2.403958e+02
   2.227644e+02  -1.877674e+02
   4.318220e+02   1.930213e+02
   9.328114e+01   3.222815e+02
  -2.793961e+02   3.056356e+02
  -3.693863e+02   5.496170e+01
  -3.334201e+02  -6.667294e+01
  -1.085680e+02  -2.700496e+02
  -3.045058e+01  -1.303078e+02
  -1.310649e+02   6.364567e+01
  -2.066225e+02   7.305398e+01
  -1.160752e+02  -1.854534e+02
   7.650030e+01  -4.987267e+02
   2.171385e+02  -3.698690e+02
   2.218058e+02   2.571211e+01
   9.300361e+01   2.259485e+02
  -8.366404e+01   4.636330e+01
  -9.425072e+01  -2.981866e+02
   1.127324e+02  -3.413224e+02
   3.738739e+02   1.077710e+01
   4.440152e+02   3.690756e+02
   8.988414e+01   4.195834e+02
  -3.131885e+02   2.267453e+02
  -4.400041e+02  -9.348394e+01
  -2.843989e+02  -2.431715e+02
   7.076088e+00  -1.871599e+02
   2.638367e+02  -7.429660e+01
   2.100270e+02  -6.464681e+01
   6.066024e+01  -6.262140e+01
   1.282235e+01   7.593799e-01
   7.721652e+01  -1.319722e+01
   1.461339e+02   7.501893e+01
   9.400497e+01   1.549446e+02
  -1.173259e+02   1.850675e+02
  -3.183337e+02   1.426316e+02
  -2.471966e+02  -5.741480e+01
  -1.483960e+01  -3.317035e+02
   3.063010e+02  -3.458063e+02
   4.095329e+02  -1.414268e+02
   2.649779e+02   1.924009e+02
   4.879086e+01   3.665339e+02
   2.366812e+01   3.218881e+02
  -1.068422e+01   1.460675e+02
  -3.498301e+01   9.834964e+01
  -1.525655e+02   1.180088e+02
  -2.695446e+02   4.750346e+01
  -2.355118e+02  -1.641849e+02
   4.646289e+00  -2.621211e+02
   1.610780e+02  -2.262704e+02
   2.322566e+02   5.266627e+01
   1.284401e+02   2.524532e+02
  -7.150066e+01   2.471818e+02
  -2.473898e+02   4.063355e+01
  -2.790854e+02  -1.483379e+02
  -1.577907e+02  -2.609634e+02
   6.085249e+01  -2.001534e+02
   1.807846e+02  -1.457836e+02
   1.201573e+02  -7.957414e+01
   1.618064e+02  -1.071473e+02
   2.706838e+02  -2.254877e+01
   3.771698e+02   1.243613e+02
   2.559216e+02   2.796513e+02
  -3.679918e-01   4.650124e+02
  -4.105018e+02   3.629423e+02
  -5.015229e+02   1.550236e+02
  -2.695721e+02  -8.476629e+01
  -2.814293e+01  -2.116057e+02
   8.751010e+01  -1.687002e+02
  -2.608083e+00  -4.678917e+01
  -1.016178e+02   1.359986e+01
  -7.775011e+01  -1.319819e+01
   3.347422e+01  -1.341024e+02
   1.354828e+02  -8.479114e+01
   6.201143e+01   5.505501e+01
  -2.755348e+01   1.056295e+02
  -1.706707e+02  -8.330846e+01
  -1.611922e+02  -2.305727e+02
   2.194255e+01  -2.895665e+02
   2.636081e+02  -2.097621e+02
   3.561432e+02   2.436195e+01
   2.787478e+02   2.676382e+02
   5.616710e+01   2.850448e+02
  -1.180218e+02   1.032975e+02
  -1.068299e+02  -2.296484e+00
  -1.230195e+01   2.764018e+01
   4.532226e+01   6.332545e+01
  -5.009578e+01   1.090359e+02
  -1.910989e+02   4.047441e+01
  -1.862251e+02  -5.842000e+01
  -1.357128e+01  -7.667827e+01
   7.854923e+01  -1.015190e+01
   2.749095e+01   3.593823e+01
  -1.665354e+02   1.040774e+02
  -2.615634e+02  -1.251612e+01
  -2.645337e+02  -1.571984e+02
   7.146580e+00  -2.793826e+02
   2.096461e+02  -2.121865e+02
   2.754559e+02  -6.836167e+01
   1.213670e+02   3.775261e+01
  -3.639662e+01   8.517871e+01
  -8.765558e+01  -4.592843e+01
   6.915364e+01  -7.629372e+01
   2.214480e+02  -8.985898e+00
   2.131932e+02   1.190346e+02
   5.867390e+01   1.590707e+02
  -8.362897e+01   1.294850e+02
  -1.351515e+02  -2.703835e+01
   7.133333e+00  -1.846994e+01
   7.689313e+01   6.015221e+01
   2.559644e+01   8.691163e+01
  -8.355055e+01   1.097359e+02
  -2.158790e+02  -1.597538e+01
  -1.679427e+02  -1.303039e+02
   1.178757e+01  -2.466897e+02
   1.540948e+02  -1.674300e+02
   1.063181e+02  -3.977139e+01
   4.315442e+01   6.347006e+01
  -5.165652e+01   5.796476e+01
  -6.992610e+01  -1.313018e+01
   1.563150e+01  -3.669267e+00
   7.610393e+01  -5.053613e+00
   1.252291e+00   2.184746e+01
  -8.857348e+01  -2.093316e+01
  -1.093624e+02  -9.183695e+01
  -1.690802e+01  -1.859539e+02
   1.262240e+02  -1.167531e+02
   2.193164e+02  -2.335396e+01
   1.754993e+02   1.398299e+02
   4.416332e+01   1.720837e+02
  -8.908213e+01   1.278911e+02
  -1.112425e+02   5.308732e+01
  -6.556637e+01  -1.301041e+01
  -1.588196e+01   1.010114e+01
  -3.645815e+01   1.730584e+01
  -8.464418e+01   1.495508e+01
  -5.098169e+01  -4.948185e+01
   3.553650e+01  -9.170276e+01
   1.019806e+02  -6.566133e+01
   1.011376e+02   5.296662e+01
  -7.212624e-01   1.660538e+02
  -1.636162e+02   8.721529e+01
  -1.960742e+02  -7.454322e+01
  -9.200729e+01  -2.259071e+02
   1.254270e+02  -2.273898e+02
   2.371930e+02  -6.014243e+01
   2.273897e+02   8.560350e+01
   4.879747e+01   1.300488e+02
  -6.950456e+01   1.035745e+02
  -1.091032e+02   6.126674e+01
  -7.063053e+01   1.541286e+01
  -3.535638e+01   6.368877e+01
  -3.057048e+01   7.578109e+01
  -1.466899e+02   1.421045e+01
  -1.120147e+02  -1.361218e+02
  -2.484683e+01  -2.058054e+02
   1.072945e+02  -1.868508e+02
   1.766098e+02  -3.516819e+00
   1.220852e+02   1.431333e+02
   3.651502e+01   1.449834e+02
  -5.365570e+01   6.668995e+01
  -3.259064e+01  -1.512969e+01
   1.423463e+01  -6.628604e+01
   5.975568e+01  -3.841661e+01
   1.593381e+01  -1.233395e+01
  -5.042353e+01  -1.428672e+01
  -7.312600e+00  -2.368909e+01
   2.614125e+01   6.564257e+00
   1.775542e+02   3.645712e+01
   1.329689e+02   6.880973e+01
   1.319870e+01   8.141740e+01
  -1.398385e+02   6.857503e+01
  -1.307411e+02   1.092713e+01
  -1.044007e+02  -3.498448e+01
   5.692660e+01  -6.407600e+01
   3.517901e+01   2.394691e+01
   5.255839e+01   3.986275e+01
   1.005108e+01   5.293061e+01
  -5.295634e+01   4.539394e+01
  -2.150022e+01  -6.167653e+01
  -5.718938e+01  -2.424724e+01
  -8.378688e+01   4.298216e+01
  -5.298397e+01   1.658538e+01
  -4.429939e+01  -3.902958e+01
   3.636894e+01  -9.726520e+01
   1.032646e+02  -1.365707e+02
   2.064612e+02  -2.970590e+01
   1.007853e+02   1.039000e+02
  -6.108719e-01   9.259870e+01
  -1.308166e+02   4.119512e+01
  -4.697153e+01  -4.107451e+01
   4.462846e+01  -1.512473e+01
   1.356795e+02   1.584929e+01
   5.081651e+01   1.088674e+02
  -5.340767e+01   1.000551e+02
  -2.176618e+02   2.199003e+01
  -1.357809e+02  -3.585911e+01
  -3.573862e+01  -9.641617e+01
   2.170851e+01  -2.590783e+01
   4.122065e+01  -1.995164e+00
  -1.382483e+01   2.179788e+01
  -8.652398e+01  -3.689991e+01
  -5.913869e+01  -7.980763e+01
   6.252389e+01  -1.405705e+02
   1.288708e+02  -5.913625e+01
   1.025917e+02   8.747875e+01
   1.730822e+01   2.092534e+02
  -7.745348e+01   1.288363e+02
  -1.031151e+02  -3.886550e+01
  -2.794442e+01  -1.059639e+02
   4.452092e+01  -1.127773e+02
   5.380107e+01   4.206420e+01
   2.521297e+01   2.342559e+01
  -1.255053e+01   1.116448e+01
   8.705207e+00  -1.684403e+01
   4.471308e+00   4.254770e+00
   8.089769e+01   8.276249e+01
   5.642151e+01   9.249560e+01
  -6.108435e+01   4.266120e+01
  -1.042926e+02  -9.863685e+01
  -1.044277e+02  -7.265833e+01
  -2.090814e+01   2.341720e+01
   5.230981e+01  -1.210241e+01
   7.223988e+01  -2.808695e+01
   3.169480e+01   1.813582e+01
  -5.446151e+01   1.603256e+01
  -1.725998e+01   1.149643e+01
   5.849055e+00   2.621489e+01
  -1.509942e+01   2.904206e+01
  -6.432492e+01  -3.916434e+01
  -1.002328e+02  -2.395342e+01
  -2.800317e+01  -2.346139e+01
   9.003856e+01  -5.514688e+01
   1.375486e+02  -6.794390e+01
   1.480907e+02   5.089423e+01
  -2.896174e+00   1.668928e+02
  -1.055454e+02   1.630463e+02
  -1.089590e+02   5.473539e+01
  -5.222614e+01  -6.474500e+01
  -1.284834e+01  -9.094062e+01
  -3.686833e+01  -2.160078e+01
   2.921693e+01   2.114306e+01
  -3.292925e+01  -4.410693e+01
  -6.990386e+01  -1.158916e+02
   4.198287e+00  -1.098597e+02
   4.048146e+01   2.295099e+00
   4.472263e+01   1.067864e+02
  -7.527218e+00   1.185283e+02
  -4.745240e+01   6.946177e+01
  -1.351202e+02  -6.091421e+01
  -5.191589e+01  -1.238640e+02
   4.700851e+01  -4.070763e+01
   7.011113e+01  -1.973315e+01
   3.972310e+01   3.785338e+01
  -5.972158e+01   1.049930e+02
  -4.650640e+01   1.643970e+01
  -2.835396e+01   9.271163e+00
   2.604094e+01  -1.385879e+01
   3.550161e+01   3.451589e+01
  -6.980168e+01   8.269198e+01
  -1.696582e+02   4.395636e+01
  -4.961366e+01  -3.935792e+01
   3.459892e+01  -7.495303e+01
   5.893301e+01  -1.030115e+02
   3.264426e+01  -1.478204e+01
   3.761478e+01   7.014768e+01
  -5.576054e+01   6.468970e+01
  -2.230561e+01  -3.113368e+01
  -7.304736e+00  -7.375954e+01
  -6.026804e+00  -5.054731e+01
   1.753004e+01  -1.034317e+01
   3.825768e+01  -3.920237e+00
   8.283929e-01  -2.241370e+01
   4.450347e+01  -4.513905e+01
  -7.766815e+00   2.177187e+01
  -1.335504e+01   5.738549e+01
  -3.503129e+01   6.397219e+01
  -4.399018e+01   1.363429e+01
  -1.087581e+02  -9.358839e+00
  -2.170360e+01  -5.882034e+01
   6.563588e+01  -1.804291e+01
   7.489832e+01  -4.620227e+01
  -2.300974e+01   5.282788e+01
  -2.682560e+01   3.870699e+01
  -9.764035e+01  -3.712658e+01
  -4.936513e+01  -5.786174e+01
   2.255096e+01  -7.807782e+01
   5.540579e+01  -4.396911e+01
   2.939623e+00  -1.368053e+00
  -5.040301e+01   2.017092e+00
  -3.096420e+01   2.757285e+00
   1.367778e+01  -2.194223e+01
   4.452623e+01  -3.916158e+01
