
 $NMID
 id='ANONYMOUS ', fmtdat='(2E16.6)'
 volume=1.0
 tramp=1.0
 $END
  -6.504485e+02  -4.297245e+01
  -2.255809e+02  -1.644960e+02
  -3.518692e+01  -1.128625e+02
   1.271449e+02  -1.470895e+02
   1.196356e+01   1.389562e+01
  -6.016589e+01  -3.832112e+01
  -3.436608e+01  -2.305247e+01
   5.371692e+01  -2.964323e+00
   3.648854e+01  -1.263701e+01
   5.003875e+01  -3.717329e+01
  -4.920515e-01   4.319392e+01
  -1.003187e+00   1.572098e+01
   2.506542e+00   7.062348e+01
   6.153480e+00  -7.241061e+01
  -9.879249e+00  -2.076170e+01
  -2.862241e+01   1.935816e+01
   3.749901e+01  -9.096852e+00
   2.559129e+01   8.448238e+00
   1.963529e+01   3.626758e+01
  -2.511979e+01   3.758878e+01
   1.158934e+01  -3.717448e+00
  -3.392955e+01  -3.368131e+00
   1.450995e+01  -6.998657e+01
  -8.508776e+00   9.917877e+00
  -4.886013e+01  -5.140311e+01
  -4.353561e+01  -4.327486e+01
   8.755423e+01  -2.413121e+01
   4.047844e+01   4.791836e+01
  -3.834768e+01  -1.376127e+01
  -7.022892e+01   3.967121e+01
  -4.097562e+01  -7.741512e+00
  -6.500952e-01   1.910724e+01
   1.781095e+01   1.936902e+01
   9.113021e+00   1.242448e+01
  -3.869269e+01  -1.178253e+01
  -1.053815e+01   2.638733e+01
   3.051414e+01   1.674088e+00
   3.316250e+01   1.535715e+01
  -3.129210e+01  -3.225724e+01
   8.859427e+00  -1.406043e+01
   2.889283e+01  -3.102772e+01
   4.842811e+01   2.747408e+01
  -3.117927e+01   1.338426e+01
  -1.808146e+01  -3.692740e+00
  -5.608028e+01  -2.127824e+00
   2.194906e+01   2.154007e+01
   2.405787e+01   2.745036e+01
   5.492193e+00  -2.657493e+01
  -1.777726e+01  -2.721140e+01
  -3.334143e+01   3.371296e+01
  -3.188835e+00   3.397698e+01
   2.676977e+01  -2.089278e+01
   3.083780e+01  -9.573726e+00
  -3.915199e+00   1.087792e+00
  -3.578604e+01   1.617553e+01
   1.327837e+01  -1.221582e+01
   1.950052e+01   1.821928e+01
   1.265187e+01  -1.325400e+01
  -9.985982e+00  -2.429421e+01
  -3.727952e+01  -3.525861e+00
  -2.074348e+01   1.379234e+00
  -3.004539e+00   3.537131e+01
   1.112507e+01  -2.856697e+01
   1.301435e+01  -4.531893e+01
  -2.726201e+01  -4.188092e+00
   6.835774e+00   2.073039e+01
  -1.331190e+01   5.803517e+01
  -1.089326e+01   1.615143e+01
  -2.875290e+01  -3.546533e+01
  -2.001535e+01  -1.915399e+01
  -2.422752e+01   1.406711e+01
  -6.448351e+00  -5.466460e+00
   2.442376e+01   1.348492e+01
   1.170345e+01  -5.336415e+00
   8.101302e+00   1.189419e+01
   3.688164e+00   1.112128e+01
  -8.719687e+00  -5.972718e+00
   2.300558e+00  -2.810536e+01
  -1.725996e+01  -1.165866e+01
  -3.756610e+01   4.812812e+00
   1.960835e+01  -2.558846e+01
  -4.131497e+00  -7.699267e+00
  -1.591566e+01  -4.249361e+00
  -1.059680e+01   3.468906e+01
   4.129111e+01   1.008960e+01
   7.539525e+00   2.768221e+01
  -1.014273e+01  -3.325775e+01
  -2.418326e+01   1.548569e+01
  -1.045441e+01   3.179866e+01
  -2.409667e+00   1.850599e+00
  -1.192448e+01  -3.926954e+01
   2.880250e+01  -2.247434e+01
   6.599300e+00  -1.930351e+01
   1.239417e+01   1.614203e+01
   2.789655e+01   1.588565e+01
   1.674117e+01   3.257901e+01
   2.408780e+00   3.909559e+01
   1.309073e+01   2.377862e+01
   2.018916e+01   6.033626e+00
   3.835279e+01  -1.345270e+01
   1.548900e+00   4.568619e+01
  -8.188857e+00  -4.851489e+00
   4.695417e+01  -1.380273e+01
  -1.230394e+01   1.185339e+01
   2.537288e+01   8.985076e+00
  -1.431917e+01   1.934759e+01
   4.557203e+01   1.308053e+01
  -2.989367e+00  -3.106483e+01
  -2.341874e+00   1.130986e+01
  -3.146499e+01  -1.026321e+01
   5.023255e+00  -8.341511e-01
   2.949016e+01  -2.778561e+01
  -1.924517e+01  -1.255846e+01
   2.043988e+01  -2.899253e+00
   6.842458e+00  -5.005208e-01
   1.192056e+01   2.759536e+01
  -2.234801e+00  -3.608666e+01
   3.401609e+01   1.165211e+00
  -1.591635e+00  -8.824911e+00
  -1.732333e+01  -1.869836e+00
   2.841953e+01  -7.943059e+00
   2.630437e+01  -2.528810e+01
   4.512379e+01   6.031125e+00
   3.738308e+01  -8.083300e-01
  -1.322067e+01   2.234967e+01
  -6.057519e+01   1.153253e+01
   1.745862e+01   1.547533e+01
  -3.634529e+00  -3.324964e+01
  -1.757094e+01  -6.335679e+00
   1.553867e+00   1.553829e+01
  -1.782078e+01   2.934989e+01
  -2.775496e+01  -3.424900e+01
  -2.697116e+01  -1.661384e-01
  -2.629599e+00  -2.199694e+01
   7.954692e+00  -3.525229e+01
  -2.067494e+01   1.442608e+01
   2.559296e+01  -1.471010e+01
  -1.092862e+01  -8.993365e+00
  -5.235698e+01  -3.344832e+00
   1.686854e+00  -2.576421e+01
   1.765006e+01   6.811418e+00
  -2.963378e+01   5.609897e+00
  -1.810556e+01   3.013872e+01
  -9.301999e+00   7.401265e+00
   1.934139e+01  -1.528853e+00
   1.486373e+01  -3.021240e+01
  -3.899733e+00   1.674849e+00
   9.972228e+00   3.082343e+01
  -6.356543e+00   2.699522e+01
   4.001969e+01  -1.071038e+01
   2.203988e+01   3.531192e+01
  -7.227309e+00   5.241405e+00
  -9.160531e-01   3.187033e+01
   2.229986e+01   3.162309e+01
  -4.176501e+00   8.021567e+00
  -2.251540e+01  -3.827152e+00
  -3.189199e+01   7.751607e+00
   2.973518e+01   1.949502e+01
   6.184985e+00  -2.183042e+00
   2.622237e+00   1.027062e+00
  -6.833671e+00   1.575085e+01
   4.281640e+01  -4.682599e+00
   1.579636e+01   5.965580e+00
   1.799265e+01  -8.459736e+00
   3.292189e+01  -5.751464e-01
  -4.544527e+00   1.994394e+01
   2.571484e+01   4.440003e+01
  -1.960610e+00  -2.399248e+01
  -2.216501e+01  -3.145862e+01
  -4.530653e+00   1.978071e+01
   3.016636e+01   3.105055e+01
   4.573697e+01   2.132951e+01
  -3.608692e+00  -1.739566e+01
  -4.574865e+01   7.044007e+00
   1.260264e+01   4.401876e+01
  -1.060598e+00  -2.081372e+01
   7.389343e-01  -4.832489e+01
   2.158574e+01   3.819297e+00
   2.508916e+01  -1.998702e+01
   2.848019e+01  -2.385849e+00
   2.005680e+01   2.599668e+01
  -4.070204e+00   1.927276e+01
  -7.950871e+00  -1.686559e+01
   2.447748e+01   5.416834e+00
  -1.503864e+01  -8.401946e+00
  -2.651992e+01  -5.115349e+01
  -1.722130e+01   1.864824e+01
  -4.930636e+00  -3.706123e+01
  -2.017251e+01  -7.608549e+00
  -3.313940e+01  -2.023239e+01
  -1.510232e+01   3.358059e+00
  -2.220311e+00   3.380351e+01
  -1.904037e+00   3.835442e+01
   4.478243e+00   1.492493e+01
  -4.688632e+01   1.750920e+01
  -7.064347e+00   2.253804e+01
   1.979927e+01  -5.096106e+00
  -1.397438e+01  -2.177534e+01
   2.196848e+01   3.689285e+00
  -1.676209e+01   8.900111e+00
  -2.005170e+01   7.333565e+00
  -6.209524e+01  -1.043839e+01
  -3.163416e+01  -1.127566e+01
   3.019517e+00   3.402722e+01
  -6.886156e+00  -1.226309e-01
   1.436300e+01  -1.962252e+01
   1.137200e+01  -2.681998e+01
   5.293755e+01   1.987534e+01
   1.506420e+01  -3.130298e-01
   5.327015e+01   2.280483e+01
   1.153879e+01  -2.409548e+01
  -1.904636e-01  -5.736483e+00
  -1.838164e+01  -7.950211e+00
  -1.200342e+01   2.494015e+01
  -1.825955e+01   3.444640e+00
  -4.905278e+00  -1.936158e+01
  -2.152393e+01  -1.343305e+01
  -1.996036e+01  -5.723132e+00
  -2.494519e+00  -2.088549e+01
   9.849704e-01  -1.356557e+01
  -8.108157e+00  -5.704983e+00
   3.750181e+01  -2.516557e+01
   1.124572e+01   1.405282e+00
   1.893767e+01  -2.179149e+01
   3.238776e+01  -3.594356e+01
   1.063302e+01  -1.278272e+01
  -2.165900e+01  -5.577919e+00
   1.410833e+01   3.884660e+01
   2.254883e+01   2.358913e+01
   4.143179e+00   2.013092e+01
   7.186636e+00   2.709646e+01
  -1.457226e+01   1.972435e+01
   2.641136e+01   1.274048e+01
  -1.011201e+01   9.456609e+00
  -1.185296e+01  -1.288789e+01
   8.359951e+00  -5.411755e+00
   2.449104e+01   2.523572e+01
   2.427670e+01  -1.892461e+01
  -2.041356e+00  -9.836289e+00
  -8.007841e+00  -2.451804e+01
  -3.454973e+01  -2.491850e+01
   1.141971e+00  -1.345012e+01
  -4.793403e-01  -2.137112e+01
  -2.091089e+01   5.227100e+00
  -2.758480e+01  -5.461352e+01
  -1.143991e+01  -1.736281e+01
  -1.002347e+01  -1.770341e+00
   4.949457e+00  -1.582238e+01
   5.099474e+01  -1.932186e+01
   1.150997e+00   8.272893e+00
  -2.522719e+01   1.358728e+01
   7.686058e+00   8.152967e+00
   7.375240e+00  -3.094949e+01
   1.575176e+01  -2.542123e+01
   3.160194e+01   3.924244e+01
  -1.520353e+01   3.068259e+01
   1.367327e+01   1.816197e+01
   4.502946e+01   4.264768e+01
  -3.186352e+01   1.547129e+01
  -6.304249e+00   4.950679e+00
  -1.873182e+01   1.182985e+01
  -6.304246e+00   2.038812e+01
  -1.666297e+01   3.743298e+00
  -2.577259e+01   1.017097e+01
   4.097256e+01  -2.979649e+01
  -5.215950e-01  -2.147163e+01
  -2.344551e+01  -2.074861e+01
  -2.357909e+01  -2.483156e+01
   1.095410e+01  -1.308094e+01
  -1.524822e+01  -3.853335e+00
  -3.634527e+00  -1.755053e+00
   5.195034e-01  -4.327651e-01
  -3.280895e+01   1.547082e+01
  -4.582675e+01  -4.119592e+00
  -1.211735e+01   2.493221e+01
   4.342050e+01  -7.947345e+00
   1.335589e+01   2.608380e+01
  -2.013331e+00   3.717381e+01
  -1.083422e+00  -1.669138e+01
   5.383937e+00  -1.636934e+01
  -1.435042e+01  -2.453441e+01
  -4.181048e+00  -3.179332e+01
  -4.131603e+01  -4.673394e+00
   6.811094e+00   7.787469e+00
  -3.838974e+00   1.115140e+01
  -1.403202e+01   1.964423e+01
  -2.078734e+01  -2.108880e+00
   2.903218e+01   5.650724e+00
   8.793929e+00   5.219296e+01
   7.305701e+00   1.015438e+01
  -1.114793e+01   1.647492e+01
   1.553439e+01   4.737490e+01
   1.284509e+01  -1.220195e+01
  -3.037518e+01  -1.732413e+01
  -2.643422e+01  -1.110454e+01
   3.578202e+01  -2.962142e+01
   2.631915e+00   4.263650e+01
   1.720577e+01   3.347398e+00
  -1.514544e+01   6.786006e-01
  -2.293816e+01   2.755303e+00
  -1.552228e+01   8.029406e+00
  -1.387894e+01  -6.735065e+00
  -9.161371e+00  -2.001935e+01
   8.504443e+00   2.118360e+01
  -7.998493e+00   2.210794e+00
  -3.646824e+00   4.465412e+00
  -6.139597e+00  -4.309499e-01
  -3.714491e+01  -5.572844e+01
  -4.267211e+01   2.335199e-02
   1.490970e-01  -4.628381e+00
   1.517964e+01  -2.870423e+01
   3.295334e+01  -9.263062e+00
   1.912533e+00  -6.367341e+00
  -2.229106e+01  -1.098209e+01
   5.024009e+00   4.495504e+01
  -2.521990e+01  -1.011743e+01
   3.598220e+01   2.576676e+01
   7.005823e+01   4.215298e+01
   3.787295e+00   4.049421e+01
   7.582998e+00  -1.228242e+01
