
 $NMID
 id='ANONYMOUS ', fmtdat='(2E16.6)'
 volume=1.0
 tramp=1.0
 $END
  -2.526201e+03   1.310304e+02
  -1.615912e+03  -1.303004e+03
   2.853234e+02  -1.557300e+03
   1.015512e+03  -7.049219e+02
   6.380438e+02   1.782252e+02
  -1.625578e+02   2.731740e+02
  -4.403830e+02  -2.505529e+02
  -9.443989e+01  -5.472848e+02
   3.337464e+02  -5.609865e+02
   5.181997e+02  -5.242522e+00
   2.735012e+02   4.069652e+02
  -1.158463e+02   4.756669e+02
  -2.412244e+02   5.588795e+01
  -1.888416e+02  -3.820275e+02
   1.627440e+01  -4.311898e+02
   2.915921e+02  -9.400833e+01
   1.991228e+02   3.740941e+02
  -1.002509e+02   4.335311e+02
  -3.081224e+02   1.905238e+02
  -3.197463e+02  -1.477238e+02
  -8.723101e+01  -3.575975e+02
   1.193892e+02  -1.653920e+02
   1.580607e+02  -2.870996e+01
  -2.002789e+02   3.961599e+01
  -3.229920e+02  -1.189840e+02
  -3.682614e+01  -3.229771e+02
   3.285233e+02  -2.281878e+02
   4.890285e+02   5.724037e+00
   2.473227e+02   3.102253e+02
  -2.404348e+02   2.041085e+02
  -4.775519e+02  -2.139776e+01
  -2.360032e+02  -2.831924e+02
   1.496342e+02  -3.592310e+02
   3.922254e+02  -1.730335e+02
   3.012352e+02   1.217870e+02
   7.396898e+01   2.883397e+02
  -1.050727e+02   2.197145e+02
  -9.946577e+01  -1.037662e+02
   7.717233e+01  -2.351822e+02
   1.636041e+02   2.240298e+01
   7.161736e+01   3.936919e+02
  -1.541856e+02   3.929383e+02
  -3.458530e+02   2.199468e+00
  -1.907935e+02  -2.901982e+02
   9.860738e+01  -2.098908e+02
   1.773180e+02   1.499783e+02
  -7.805891e+01   2.756069e+02
  -3.358561e+02   9.132235e+01
  -3.422337e+02  -2.600591e+02
  -1.171210e+02  -3.936939e+02
   2.307971e+02  -2.450060e+02
   3.802835e+02   4.299861e+01
   2.183955e+02   2.196494e+02
  -1.349243e+02   2.429277e+02
  -2.821092e+02   3.055787e+01
  -1.580639e+02  -1.555424e+02
   3.645744e+01  -1.235963e+02
   9.913187e+01   4.402310e+01
  -5.707022e+01   1.054751e+02
  -2.608887e+02  -3.685191e+01
  -1.777595e+02  -1.342891e+02
   6.604355e+01  -2.157175e+02
   2.154832e+02  -1.424481e+02
   2.051346e+02   5.972456e+01
   3.053322e+01   1.937946e+02
  -1.673006e+02   2.721569e+02
  -2.740939e+02   1.681319e+02
  -2.204696e+02  -6.305102e+01
  -7.397903e+01  -2.408135e+02
   3.778412e+01  -1.978173e+02
   3.435254e+01  -1.320123e+02
   2.716880e+01  -6.366740e+00
   3.296650e+01  -5.874970e+01
   1.372090e+02  -8.392661e+01
   1.973762e+02   8.697834e+01
   1.541164e+02   1.853268e+02
  -5.000000e+01   1.626663e+02
  -1.703984e+02  -2.050673e+01
  -7.595135e+01  -1.579523e+02
   1.115056e+01  -1.869588e+02
   1.816938e+02  -3.040248e+01
   2.413409e+02   1.236118e+02
   1.196472e+02   2.106316e+02
  -6.556395e+01   1.850491e+02
  -1.372617e+02   1.105585e+02
  -1.640771e+02   4.961003e+00
  -1.068219e+02   1.398286e+01
  -1.790091e+02   4.771437e+01
  -3.042057e+02  -1.861806e+01
  -2.394944e+02  -1.138725e+02
   7.884456e+00  -2.787644e+02
   2.141076e+02  -3.295789e+02
   3.024984e+02  -1.204115e+02
   1.767810e+02   4.427554e+01
   2.612574e+01   1.888086e+02
  -5.101673e+01   1.770675e+02
  -1.078655e+01   5.942514e+01
   8.351595e+01  -9.768817e+01
   9.540076e+01   1.252794e+01
   3.133306e+00   1.798054e+02
  -1.222723e+02   1.726265e+02
  -1.313699e+02  -2.404619e+01
  -6.016293e+00  -1.289722e+02
   9.639043e+01  -6.494691e+01
   1.280361e+02   1.156184e+02
   1.293136e+01   2.488919e+02
  -1.331276e+02   1.768743e+02
  -2.367940e+02  -3.055138e+01
  -2.042312e+02  -1.470377e+02
  -7.236015e+01  -1.813630e+02
   1.041961e+02  -1.243475e+02
   1.365167e+02  -2.145786e+00
   5.376944e+01   3.480625e+01
  -2.569772e+01  -3.211501e+01
  -1.894722e+01  -2.301427e+01
   7.427954e+01  -1.491105e+01
   1.347674e+02   4.312948e+00
   3.369951e+01   2.006944e+01
  -7.680188e+00   5.786657e+00
  -2.298381e+01  -9.576547e+00
   6.220774e+01  -6.308757e+01
   1.999999e+02   1.344003e+01
   1.807277e+02   4.828141e+01
   2.136698e+01   1.917347e+02
  -1.076804e+02   1.980327e+02
  -1.836288e+02   6.805494e+01
  -9.486028e+01  -4.810836e+01
   3.892860e+01  -6.064449e+01
   5.813050e+01   1.268866e+01
  -5.094758e+01   4.400687e+01
  -1.741018e+02   3.922639e+00
  -1.348687e+02  -7.592276e+01
  -3.408833e+01  -1.335194e+02
   3.035138e+01  -1.200876e+02
   9.195055e+01  -1.508330e+01
   1.002818e+02   1.559170e+01
  -4.425460e+01  -3.448775e+01
  -6.392354e+01  -5.912650e+01
   9.349116e+01  -9.179476e+01
   1.175779e+02  -8.716107e+00
   1.577637e+02   1.010637e+02
   6.093654e+01   1.460738e+02
  -9.196336e+01   7.985082e+01
  -1.384780e+02   1.988469e+01
  -5.439297e+01  -7.356154e+01
   4.477530e+01  -8.274144e+01
   5.117149e+01  -1.149183e+01
  -2.010360e+01  -2.183279e+00
  -2.379200e+00   1.150543e+01
  -1.938060e+01   8.493712e+00
   6.738656e+01  -5.606998e+01
   8.808785e+01   5.892864e+01
   2.263758e+01   1.086111e+02
  -1.154385e+02   1.385711e+02
  -1.285263e+02   3.380163e+01
  -1.416945e+02  -1.061091e+02
  -6.020776e+01  -1.326720e+02
   6.737478e+01  -1.237923e+02
   7.680177e+01  -2.613981e+01
   5.289207e+01   1.718613e+01
   1.987689e+01   4.291024e+01
   4.847042e+01  -6.964593e+01
   6.669972e+01  -2.085686e+01
   6.925721e+01   6.742444e+01
  -1.109315e+01   8.215022e+01
  -5.293764e+01   7.686285e+01
  -2.073164e+01  -2.018853e+01
   5.003281e+00  -3.164983e+01
   5.647184e+01  -5.763281e+01
   7.865220e+01   8.587839e+00
   6.351425e+00   1.281608e+02
  -7.124488e+01   1.739927e+02
  -1.645560e+02   4.039815e+01
  -1.776345e+02  -1.226545e+02
  -1.105117e+02  -1.052609e+02
   8.659867e+00  -1.147394e+02
   5.090944e+01  -2.178341e+01
   6.807584e+01  -4.554116e+01
   7.342922e+01  -6.241616e+01
   8.825920e+01  -8.072967e+01
   8.586194e+01  -1.587961e+01
   7.509253e+01   1.003239e+02
   6.871734e+00   1.286736e+02
  -9.056177e+01   1.158834e+02
  -1.283480e+02  -5.357604e+00
  -1.077707e+02  -8.159459e+01
  -1.734913e+01  -1.219113e+02
   4.943115e+00  -4.584730e+01
   4.065690e+01   1.020102e+01
  -1.336388e+01  -8.860247e+00
  -3.709565e+01   5.466089e+01
   2.474871e+00   8.762403e+00
   8.867546e+01   2.227103e+01
   4.295767e+01   2.330135e+01
  -5.421985e+01   1.322374e+01
  -8.391503e+01   2.388424e+01
  -7.874881e+01  -1.803212e+00
  -2.365890e+01  -5.074865e+01
   9.971370e+01  -3.633498e+01
   9.462699e+01   1.406641e+01
   5.517815e+01   6.418568e+01
  -5.540493e+01   6.052156e+01
  -7.960757e+01   1.407659e+01
   5.990997e+00  -6.989436e+01
   3.247500e+01  -5.534774e+01
   3.532174e+01   2.998129e+00
   3.869754e+01   4.469931e+01
   6.585762e+01   5.097849e+00
   1.543028e+01  -1.176099e+00
   1.521485e+01   1.374011e+01
   2.196998e+01   8.710000e+01
  -3.021613e+01   1.142789e+02
  -1.420749e+02   8.861205e+01
  -1.401003e+02   1.311674e+01
  -1.318186e+02  -8.348889e+01
  -6.947718e+00  -8.915893e+01
   5.902921e+01  -2.220699e+01
   2.648859e+01  -1.424740e+01
  -8.291515e+01  -4.641250e+00
  -6.240994e+01  -3.974516e+01
  -3.898392e+01  -3.858108e+01
   4.762909e+01  -7.493979e+01
   1.116579e+02  -4.562324e+01
   1.284469e+02   4.343456e+01
   6.712325e+00   7.027434e+01
  -5.670363e+01   4.965660e+01
  -1.987866e+01   3.613438e+01
   5.653345e+01   8.402590e+00
   7.306276e+01  -4.648214e+00
   1.554076e+01   8.042658e+01
  -3.383345e+01   8.117592e+01
  -9.966223e+01   6.497626e+01
  -6.910491e+01  -5.037673e+01
  -6.567511e+01  -1.150821e+02
   3.307580e+01  -4.882672e+01
   1.084314e+02   1.003977e+01
   4.955271e+01   9.855522e+01
  -4.142934e+01   9.476089e+01
   1.223089e+01   4.698306e+00
  -2.321250e+01  -6.624531e+00
   4.975659e+00   3.976592e+01
  -5.223487e+00   8.239207e+01
   8.971899e+00   6.200938e+01
  -4.120824e+01  -5.699343e+01
  -4.607110e+01  -9.300092e+01
   1.238254e+01  -2.311201e+01
   8.037352e+01   3.361144e+01
   8.137921e+01  -2.318065e+00
   2.737989e+01   6.261672e+01
  -5.596205e+01  -4.326236e+00
  -2.028822e+01   6.600528e+00
   4.958895e+00  -2.810967e+01
   3.282189e+01  -1.324860e+01
   2.068118e+01  -4.386076e+01
  -9.609447e-01   2.089941e+01
   2.700368e+00  -1.962443e+01
   3.184967e+01  -1.468464e+01
   8.510808e+01  -1.788189e+01
   3.345036e+01   1.373042e+01
  -3.504260e+01   7.746204e+01
  -9.689469e+01   6.832060e+01
  -7.446544e+01  -2.425605e+01
  -3.819950e+01  -1.303236e+02
   6.477943e+01  -9.286670e+01
   9.341376e+01   4.278589e+01
   8.240129e+01   3.072369e+01
  -1.073129e+01   1.739043e+01
  -2.156139e+01   3.187447e+00
   1.731037e+01   2.431446e+01
   4.993666e+01   1.491443e+01
   3.631928e+01   4.013582e+01
  -1.628740e+01   3.177686e+01
  -2.586075e+01  -1.256568e+01
  -5.642519e+01  -3.854705e+01
   2.173788e+01  -9.071615e+01
   6.741767e+01   1.026705e+01
   8.988689e+01   1.433256e+01
   5.194881e+01   5.862107e+01
  -4.531769e+01   7.480821e+01
  -4.179726e+01   1.072633e+01
  -4.426098e+01   1.014938e+01
   1.954266e+01  -1.702677e+01
   4.855429e+01  -1.605605e+01
  -2.108711e+01  -6.681116e+00
  -2.231343e+01  -6.655951e+00
   1.404246e+01  -8.259393e+00
   3.326012e+01  -6.032056e+01
   7.431204e+01  -5.548807e+01
   8.827425e+01   5.910677e+00
   2.730657e+01   4.427237e+01
  -4.170427e+01   3.420782e+01
   1.459843e+01   9.096543e+00
  -4.341171e+00  -3.988761e+00
  -6.705764e+00   2.481742e+00
   2.409510e+01   2.663795e+01
   1.537531e+01   3.698368e+01
  -4.291181e+01   5.120295e+01
  -2.340329e+01   3.844499e+01
  -3.586258e+01  -2.613131e+01
  -2.118422e+01  -5.143038e+01
   1.073982e+01   1.359336e+01
   8.478825e+00   1.266540e+01
  -2.625976e+01  -6.017257e+01
  -4.810882e+00  -1.899323e+01
   1.964637e+01   5.812863e+00
   2.387608e+01   7.747849e+00
  -3.736819e+01   2.064566e+01
  -3.005731e+01  -2.960370e+01
   9.636224e-02  -2.641475e+01
  -8.882390e+00  -3.488136e+01
   3.981366e+01  -2.288028e+01
   9.161856e+01   3.393608e+01
   7.658985e+01   6.512748e+01
  -1.770514e+01   6.881729e+01
  -4.996496e+01   2.048147e+01
   6.008173e+00  -3.500849e+01
   2.971445e+01  -4.294559e+01
   4.802416e+01  -5.749512e+00
  -1.183462e+01   3.745317e+01
  -7.137334e+01   1.057576e+01
