
 $NMID
 id='ANONYMOUS ', fmtdat='(2E16.6)'
 volume=1.0
 tramp=1.0
 $END
   1.593890e+03   5.486702e+01
   8.682209e+02   7.384334e+02
  -1.396975e+02   7.738000e+02
  -6.201293e+02   4.567399e+02
  -3.749841e+02   7.365827e+01
   5.169375e+01  -1.145107e+02
   1.840146e+02   2.693028e+01
   1.724863e+01   2.669735e+02
  -2.910791e+02   2.679132e+02
  -3.028436e+02   4.548353e+01
  -1.229156e+02  -1.917868e+02
  -1.921136e+01  -2.855373e+02
   1.043162e+02   9.281359e+00
   1.335226e+02   2.218714e+02
  -6.319342e+01   1.901629e+02
  -1.933668e+02   4.094229e+01
  -2.358200e+02  -2.008958e+02
   9.308803e+01  -2.752646e+02
   2.004251e+02  -1.224832e+02
   2.229981e+02   9.267537e+01
   4.744635e+01   1.990791e+02
  -1.053329e+02   9.222053e+01
  -7.906574e+01   4.552641e+01
   1.502244e+02  -2.604290e+01
   1.940701e+02   1.223383e+02
   2.869713e+00   2.047611e+02
  -2.852323e+02   6.012298e+01
  -2.385110e+02  -1.381404e+02
  -8.695161e+01  -1.830585e+02
   1.846401e+02  -9.990932e+01
   3.101215e+02   8.740350e+01
   9.170382e+01   2.355536e+02
  -1.371242e+02   1.395498e+02
  -2.152718e+02   5.302540e+01
  -1.605430e+02  -8.394107e+01
   4.808130e+00  -1.468513e+02
   1.034733e+02  -1.006404e+02
   4.180234e+01   6.943000e+01
  -9.275032e+01   1.002875e+02
  -7.516862e+01  -5.913761e+01
  -3.355031e+01  -2.590799e+02
   1.078339e+02  -2.198457e+02
   1.846160e+02   2.359693e+01
   4.564697e+01   1.655307e+02
  -4.774258e+01   1.116548e+02
  -1.329386e+02  -1.427393e+02
   3.633504e+01  -1.888772e+02
   1.573937e+02  -1.882925e+01
   1.907142e+02   1.766063e+02
   6.636589e+01   2.734494e+02
  -1.431396e+02   8.696648e+01
  -2.610558e+02  -4.706686e+01
  -1.368130e+02  -1.378480e+02
   3.887275e+01  -1.231851e+02
   1.177379e+02  -2.531788e+01
   9.651338e+01   9.806273e+00
   2.993416e+01  -1.209368e+01
  -2.953577e+01   1.536253e+01
   6.657153e+01  -6.416635e+00
   7.395583e+01   3.027832e+01
   2.391248e+01   5.211613e+01
  -9.808861e+01   1.052559e+02
  -1.849493e+02   3.268366e+01
  -1.029529e+02  -5.436982e+01
   3.221623e+01  -1.545844e+02
   1.469314e+02  -1.483701e+02
   1.871974e+02  -8.661650e+01
   1.125096e+02   8.644719e+01
   1.135982e+01   2.335386e+02
   2.476143e+00   1.450387e+02
  -1.606751e+01   8.508633e+01
  -5.506880e+01   5.213098e+01
  -6.653913e+01  -5.360486e+00
  -1.699287e+02  -2.817267e+00
  -6.940583e+01  -7.860027e+01
  -3.194741e+01  -1.010005e+02
   4.396422e+01  -7.858886e+01
   9.253641e+01   5.621409e+01
   2.501764e+01   1.312661e+02
  -5.262068e+01   1.328557e+02
  -1.348970e+02   4.219638e+01
  -1.702155e+02  -5.736044e+01
  -3.953397e+01  -1.326770e+02
   4.739281e+01  -1.084867e+02
   8.459087e+01  -7.393663e+01
   7.023733e+01  -2.146996e+01
   1.201173e+02  -8.755366e+00
   1.598079e+02   2.674318e+01
   1.769951e+02   9.225186e+01
   1.545605e+02   1.845833e+02
  -2.840972e+01   1.807189e+02
  -2.146226e+02   1.344819e+02
  -2.225882e+02   4.869402e+01
  -6.054660e+01  -4.904177e+01
   4.817245e+01  -9.082164e+01
   5.165120e+01  -7.317372e+01
  -3.662348e+01  -6.588481e-01
  -7.315906e+01   7.752380e+01
  -5.892281e+01   3.106226e-01
   4.500007e+00  -6.111472e+01
   8.478973e+01  -6.337080e+01
   3.806569e+01   8.240293e+00
  -6.147719e+01   8.275281e+01
  -8.734798e+01  -1.145703e+01
  -5.366771e+01  -1.403624e+02
   5.080101e+01  -1.655329e+02
   1.552189e+02  -7.126667e+01
   1.886890e+02   3.474437e+01
   1.264137e+02   1.298969e+02
   3.018506e+01   1.008985e+02
  -3.829672e+01   6.784838e+01
  -1.075052e+02   2.167531e+01
  -6.130991e+01   2.284070e+01
   3.145789e+01   5.110927e+01
   2.214954e+01   4.717813e+01
  -7.719882e+01   2.459050e+01
  -1.039588e+02  -2.391450e+01
  -1.645532e+01  -2.755617e+01
   2.004456e+01  -7.148913e+00
  -1.133412e+00   5.039725e+01
  -6.366239e+01   4.928126e+01
  -1.348453e+02  -1.820627e+01
  -1.198523e+02  -1.150863e+02
   4.852648e+00  -1.406134e+02
   1.225185e+02  -9.548210e+01
   1.149053e+02  -2.617662e+01
   9.133207e+01   3.618285e+01
  -2.578499e+01   4.830001e+01
  -6.855142e+01   3.313684e+01
   3.247737e+01   7.477984e+00
   1.005477e+02  -3.139686e+01
   5.287642e+01   2.303141e+01
  -5.916462e+00   8.257089e+01
  -9.030670e+01   8.217329e+01
  -6.200305e+01   6.019047e+00
  -3.130018e+01  -4.369612e+00
   3.874473e+01   3.479062e+01
  -3.728670e+00   8.810154e+01
  -6.264072e+01   5.737471e+01
  -6.126324e+01   2.026882e+00
  -1.143554e+02  -6.870636e+01
   8.124951e-01  -8.230618e+01
   5.823855e+01  -5.031760e+01
   1.070535e+02  -5.015501e+00
   8.580791e+01   7.980407e+01
  -3.143644e+01   5.988778e+01
  -4.263827e+01   3.128684e+01
  -1.614700e+01   5.500678e+00
  -2.914526e+01   3.103750e+01
  -2.397184e+01   9.447072e+00
  -3.838830e+01  -2.300213e+01
  -9.332323e+01  -4.951316e+01
   5.795278e+00  -8.429234e+01
   8.351061e+01  -2.770356e+01
   1.150324e+02   4.129865e-01
   9.914262e+01   9.469170e+01
   8.451348e+00   1.018774e+02
  -7.588168e+01   4.993761e+01
  -1.906539e+01  -7.507566e+00
  -1.164504e+01  -5.894205e+01
  -4.525427e+01  -4.470618e+01
  -7.882385e+00  -1.175029e+01
  -1.590836e+01  -9.404534e-01
  -3.878045e+00  -2.254672e+01
   2.282993e+01  -5.323690e+01
   5.880223e+01  -1.428461e+01
   1.216372e+01   3.186561e+01
  -2.845545e+01   2.629167e+01
  -8.069951e+01   5.285850e+01
  -8.532796e+01  -3.019720e+01
  -5.655765e+01  -1.507483e+02
   4.111519e+01  -1.139607e+02
   1.575613e+02  -6.650892e+01
   1.129633e+02   8.485269e+01
   6.527258e+01   8.441335e+01
  -2.410859e+01   6.543090e+00
  -3.231393e+01   4.029798e+01
  -6.200218e+01   6.815257e+01
  -4.422367e+01   5.861897e+01
  -8.236588e+01   4.431629e+00
  -5.998385e+01  -3.613517e+01
  -1.376492e+01  -1.224786e+02
   1.307049e+01  -9.153649e+01
   4.481962e+01  -4.131657e+01
   7.592789e+01   4.607211e+01
   4.346306e+01   5.520758e+01
  -6.753843e+00   6.958314e+01
  -5.067667e+01  -8.241779e+00
  -3.385898e+01  -7.060489e+01
   4.913127e+01   3.372537e+00
   4.806871e+01  -1.380160e+01
   3.018093e+00   5.213346e+00
  -7.448953e+01   3.739869e-01
  -2.442638e+01  -4.699326e+01
   1.148854e+02  -3.690508e+01
   1.016828e+02   2.334119e+01
   7.717339e+01   3.255501e+01
  -3.144980e+01   3.924253e+01
  -8.356064e+01   1.247077e+01
  -5.706508e+01  -7.800305e-02
  -1.772278e+01  -2.222002e+01
   3.518237e+01  -2.370051e+01
   4.632177e+01   1.121799e+01
   2.692308e+01   4.885646e+01
  -1.834253e+01   3.883369e+01
  -2.533063e+01  -5.001369e+01
  -3.869284e+01  -4.301617e+00
  -3.079908e+01  -2.642173e+01
  -4.605004e+01  -9.375109e+00
  -2.105906e+01   1.380477e+01
  -1.320555e+01  -3.850601e+01
  -2.082562e+01  -7.613143e+01
   4.194113e+01  -6.786263e+01
   1.018704e+02  -9.126253e+00
   7.091663e+01   3.623489e+01
  -1.735613e+01   6.063853e+01
  -9.724109e+01   5.488140e+01
  -3.730893e+01  -1.884898e+01
   2.616845e+01   5.721362e+01
   3.987632e+01   1.239622e+01
   2.467843e+01   1.772694e+01
  -5.020276e+01   6.125361e+01
  -4.439290e+01   2.430137e+01
  -1.031160e+02   5.740154e+00
  -2.980286e+01  -1.281928e+01
   4.694748e+01  -3.471576e+01
   3.531095e+01  -1.527984e+01
  -2.411309e+01  -1.626046e+01
  -1.605967e+01  -1.068359e+01
  -3.786825e+01  -5.790644e+01
   4.800541e+01  -5.461455e+01
   8.543853e+01  -1.436714e+01
   6.053449e+01   4.709909e+01
   3.898559e+00   9.959452e+01
  -2.845105e+01   1.132166e+02
  -4.952341e+01  -1.972151e+01
  -2.095636e+01  -7.379106e+01
  -2.804255e+01  -3.592539e+01
   1.961381e+01  -1.487304e+01
   5.949580e+01   3.402091e+01
  -2.191819e+01   1.730744e+01
   1.487410e+01   3.670654e+00
   1.500216e+01   5.440274e+00
   4.748452e+01   2.881173e+01
   4.541098e+01   3.851350e+01
  -2.093090e+01   1.941995e+01
  -9.639272e+01  -3.748344e+00
  -9.736224e+01  -1.549047e+01
  -1.138288e+01  -6.224389e+00
   7.053297e+01  -9.457453e+00
   5.010848e+01  -3.160368e+01
   3.078002e+01   3.057677e+01
   1.596125e+01   4.352565e+01
   2.848248e+01   4.141749e+01
  -1.190285e+01   2.669370e+01
  -4.285096e+01  -2.159500e+01
  -3.266324e+01   8.201438e+00
  -6.935873e+01   3.284456e+01
  -3.225809e+01  -3.673920e+01
   5.815401e+01  -9.001304e+01
   9.911231e+01   7.281181e+00
   3.677676e+01   3.330000e+01
   1.190749e+01   1.222551e+02
  -2.726076e+01   1.140109e+02
  -1.133416e+02   1.082931e+01
  -4.148515e+01  -2.455737e+01
  -3.402344e+01  -5.835935e+01
   2.035086e+01  -2.521478e+01
  -3.793492e+00  -3.814191e+01
  -4.103782e+01  -4.466788e+01
   1.650155e+01  -4.838982e+01
   4.239555e+01   4.893637e+00
   3.838645e+01   2.449801e+01
   3.419694e+01   2.077480e+01
   8.134162e+00   7.079549e+01
  -1.637425e+01  -8.377437e-01
  -5.102538e+00  -5.044707e+01
  -2.771269e+00  -5.115847e+01
   4.041819e+01  -5.886490e+01
   3.916269e+01   1.519113e+01
  -5.531664e+00  -8.147425e+00
  -2.087318e+01   2.768005e+01
  -1.536617e+01  -1.259425e+00
   1.537516e+01  -5.561283e+00
  -2.046943e+00   2.295360e+01
  -2.774681e+01   1.207399e+01
  -3.848228e+01   4.286444e+01
  -5.662559e+01  -3.849244e+00
  -4.044733e+01  -4.671838e+01
   2.949313e+01  -4.184257e+01
   3.691901e+00  -1.544699e+01
   4.165424e+01  -1.291492e+00
   2.177140e+01   3.716630e+01
   1.314104e+01   4.746489e+01
  -2.777156e+01   1.756209e+01
  -1.039191e+01  -3.312132e+01
   2.170725e+01  -4.656489e+01
   5.162422e+01   1.514210e+00
   3.196735e+01   4.611237e+01
  -1.601924e+00   1.209962e+01
  -1.750299e+00  -1.149873e+01
  -8.243765e+00   1.109509e+01
   3.817285e+01   2.556375e+01
   1.517781e+01   4.053048e+01
  -1.857999e+01   4.471983e+01
  -7.373834e+00   1.514964e+01
  -3.929425e+00  -2.492806e+01
   2.291268e+01  -1.270438e+01
   2.550141e+01  -3.862676e+01
  -2.821213e+00  -9.289042e+00
  -4.064452e+01   2.212148e+01
  -2.506039e+01  -5.211174e+01
   5.294202e-01  -4.133551e+01
   3.544282e+01   7.966485e+00
  -3.266987e+01   1.041128e+01
  -1.722986e+00  -1.038472e+01
   2.034377e+01   2.415169e+01
  -4.459045e+01  -2.401138e+00
   3.541615e+01  -3.325941e+01
   2.836341e+01   1.679582e+01
