
 $NMID
 id='ANONYMOUS ', fmtdat='(2E16.6)'
 volume=1.0
 tramp=1.0
 $END
   2.734848e+03  -1.814039e+02
   1.731557e+03   1.511183e+03
  -2.017737e+02   1.774746e+03
  -1.338340e+03   8.297288e+02
  -7.886127e+02  -2.303247e+02
   2.036696e+02  -3.798654e+02
   4.851347e+02   1.802777e+02
   1.600557e+01   6.308099e+02
  -4.671169e+02   4.677099e+02
  -6.012527e+02   7.132691e+00
  -2.951996e+02  -5.369999e+02
   9.864441e+01  -5.362020e+02
   3.292819e+02  -1.280908e+02
   2.486917e+02   4.723961e+02
  -1.852919e+02   4.817194e+02
  -3.933468e+02  -1.297003e+01
  -2.768739e+02  -4.599593e+02
   1.889205e+02  -5.783755e+02
   3.791147e+02  -2.075084e+02
   3.231959e+02   1.917855e+02
   6.469920e+01   3.370027e+02
  -1.822055e+02   2.205598e+02
  -9.180910e+01  -1.674482e+01
   5.329169e+01   6.941142e+00
   2.418550e+02   2.374774e+02
   5.677713e+01   3.150223e+02
  -3.770101e+02   1.406783e+02
  -5.725850e+02  -1.429830e+02
  -2.272349e+02  -3.521725e+02
   3.041569e+02  -1.701758e+02
   4.731258e+02   1.562971e+02
   2.072995e+02   3.823607e+02
  -2.479127e+02   3.059493e+02
  -4.288494e+02   8.149612e+01
  -2.789546e+02  -1.768809e+02
  -4.048400e+01  -2.949112e+02
   1.001406e+02  -1.612085e+02
  -3.703091e-02   9.731808e+01
  -1.162128e+02   1.399466e+02
  -2.305303e+02  -1.199779e+02
  -7.087011e+01  -4.252744e+02
   2.549890e+02  -4.028920e+02
   2.957699e+02   1.529364e+01
   9.348094e+01   3.346564e+02
  -1.598194e+02   1.720848e+02
  -2.429420e+02  -2.209675e+02
   8.048248e+01  -3.471831e+02
   3.300157e+02  -1.131003e+02
   3.876104e+02   2.641024e+02
   1.338488e+02   4.182386e+02
  -2.064270e+02   2.294537e+02
  -4.142400e+02  -7.919364e+00
  -2.659556e+02  -2.375956e+02
   2.373011e+01  -2.144743e+02
   2.757161e+02  -1.546726e+01
   1.715538e+02   5.409433e+01
  -5.167908e+01   2.675084e+01
  -1.056159e+02  -6.811386e+01
   8.147653e+01  -1.137373e+02
   2.417971e+02   4.457907e+01
   1.414987e+02   2.092873e+02
  -1.329226e+02   1.502239e+02
  -2.967184e+02   4.244598e+01
  -1.639634e+02  -8.244533e+01
   8.105417e+00  -2.332849e+02
   2.389472e+02  -3.013092e+02
   3.073029e+02  -1.223716e+02
   2.781605e+02   1.218144e+02
   2.935217e+01   3.154419e+02
  -7.069105e+01   2.493979e+02
  -7.296526e+01   1.091925e+02
   1.302194e+00   8.614337e+01
  -5.450698e+01   7.446743e+01
  -1.979280e+02   9.902547e+01
  -2.450988e+02  -7.903848e+01
  -1.244366e+02  -1.865509e+02
   5.928934e+01  -2.002569e+02
   1.884159e+02  -1.956790e+01
   1.163545e+02   1.814305e+02
  -8.458183e+00   1.949649e+02
  -1.898707e+02   8.751238e+01
  -2.412934e+02  -1.465579e+02
  -1.388779e+02  -2.681877e+02
   6.058578e+01  -2.246184e+02
   1.660813e+02  -7.334905e+01
   1.258101e+02  -2.783879e+00
   1.044883e+02  -4.437301e+01
   1.539429e+02  -3.574205e+01
   3.336046e+02   7.096853e+01
   2.613941e+02   2.268170e+02
  -7.091397e-01   2.954362e+02
  -2.689553e+02   3.298780e+02
  -3.529345e+02   1.540130e+02
  -2.337512e+02  -9.433173e+01
  -7.584535e+01  -2.068230e+02
   6.902570e+01  -1.766851e+02
   2.874581e+01  -5.649372e+01
  -8.774515e+01   4.103932e+01
  -1.281092e+02  -1.822338e+01
   6.456925e+00  -1.077485e+02
   1.360678e+02  -1.486073e+02
   1.379968e+02   5.983329e+01
  -3.219549e+01   1.404547e+02
  -1.295803e+02  -1.909527e+01
  -1.329128e+02  -1.879824e+02
   7.961484e+01  -3.248916e+02
   2.286102e+02  -1.476006e+02
   3.312196e+02   4.510833e+00
   2.204176e+02   2.012879e+02
   7.759996e+01   2.187697e+02
  -1.062470e+02   9.643610e+01
  -1.120562e+02   2.207446e+01
  -1.705599e+01  -1.763467e+01
   4.738142e+01   4.914929e+01
   2.559733e+00   5.413647e+01
  -1.046544e+02   7.298781e+01
  -1.224902e+02  -2.319521e+01
  -2.687737e+01  -7.144360e+01
   4.811107e+01   1.034981e+01
  -1.490983e+01   8.887838e+01
  -1.083699e+02   6.553647e+01
  -2.397199e+02   1.464021e+01
  -2.252438e+02  -1.521942e+02
  -2.824363e+01  -1.979153e+02
   1.491039e+02  -2.170452e+02
   1.825864e+02  -1.118721e+02
   1.095621e+02   4.146875e+01
  -1.382662e+01   4.593535e+01
  -4.417391e+01  -1.225200e+01
   2.221827e+01  -4.863411e+01
   1.585333e+02  -2.474106e+01
   1.684286e+02   7.826012e+01
   4.974836e+01   2.002149e+02
  -1.242309e+02   1.397948e+02
  -1.086305e+02   2.283056e+00
  -4.460895e+01  -5.919444e+01
   2.229206e+01   9.653314e+00
  -7.213648e+00   1.149641e+02
  -4.588595e+01   9.843108e+01
  -1.649790e+02  -1.022946e+01
  -1.565692e+02  -1.144983e+02
  -3.243536e+00  -1.750067e+02
   1.196646e+02  -9.841578e+01
   1.311375e+02   2.581644e+01
   7.217660e+01   9.761050e+01
  -6.836583e+01   8.812242e+01
  -4.503447e+01   4.778436e+01
   6.605276e+01  -2.348618e+01
   6.233113e+01  -7.533927e+00
  -4.954662e+01  -5.018005e+00
  -1.158373e+02  -2.152016e+01
  -7.165693e+01  -7.687772e+01
  -1.246141e+01  -1.674762e+02
   1.407950e+02  -1.025050e+02
   1.770087e+02  -4.542413e+01
   1.309739e+02   1.462829e+02
   2.515352e+01   2.045026e+02
  -7.152394e+01   1.061784e+02
  -5.394725e+01  -5.799648e-02
  -6.158712e+01  -6.442241e+00
   3.668465e+01   3.912857e+01
  -3.545864e+01   2.978013e+01
  -1.366054e+02  -7.660808e+00
  -3.467715e+01  -1.262366e+01
  -2.241103e+01  -9.740007e+01
   1.060542e+02  -5.533227e+01
   6.965659e+01   4.620638e+01
  -7.041274e+01   8.199542e+01
  -1.129846e+02   2.925971e+01
  -1.697576e+02  -3.644911e+01
  -5.683063e+00  -1.559506e+02
   9.515938e+01  -1.617293e+02
   2.008489e+02  -7.726830e+01
   2.115532e+02   1.027844e+02
   6.091351e+01   1.270486e+02
   1.134460e+01   1.369773e+02
  -8.172125e+01   6.840187e+01
  -7.447366e+01   7.402317e+01
  -5.703456e+01   9.351671e+01
  -4.017232e+01   6.100939e+01
  -1.183205e+02   1.928047e+01
  -1.167862e+02  -9.754501e+01
  -4.169734e+01  -2.090494e+02
   5.982067e+01  -1.637121e+02
   1.434354e+02  -3.362895e+01
   7.444541e+01   5.658155e+01
   1.057003e+01   1.308888e+02
  -1.421021e+01   9.027006e+01
  -2.678208e+01  -1.321692e+01
   1.592803e+01  -2.598793e+01
   3.398523e+01   2.832232e+01
  -2.556790e+01  -1.068201e+01
  -6.810149e+01  -4.527451e+01
  -9.276461e+01  -5.692267e+01
   8.691865e+01  -2.846218e+01
   2.136053e+02  -2.155917e+01
   1.455538e+02   5.699053e+01
  -2.566100e+00   6.200676e+01
  -1.278876e+02   4.549559e+01
  -8.894145e+01   1.182641e+01
  -2.798672e+01   2.164289e+00
   7.873573e+01  -5.146122e+01
   3.477159e+01   2.762951e+01
   4.040345e+00   5.285567e+01
  -8.549929e+01   5.893110e+01
  -3.311044e+01  -5.879384e+01
  -1.665995e+01  -5.468877e+01
  -3.958602e+01  -5.875896e+01
  -7.014707e+01   9.494857e+00
  -3.062120e+01   5.804269e+00
  -3.849380e+01  -3.661417e+01
   8.530104e+00  -1.230768e+02
   8.954303e+01  -1.068073e+02
   1.137467e+02  -7.465428e+00
   1.291192e+02   8.502051e+01
   3.237887e+01   8.432154e+01
  -5.033380e+01   6.044661e+01
  -5.877862e+01  -1.730347e+01
   5.959635e+01   3.891575e+01
   1.014900e+02   3.453031e+01
   2.731635e+01   1.077274e+02
  -8.585742e+01   1.066894e+02
  -1.922424e+02   3.865797e+01
  -1.374958e+02  -6.718273e+00
  -1.928788e+01  -9.292483e+01
   5.997429e+01  -8.750252e+01
   8.775080e+01  -1.823832e+01
  -5.355320e+01   7.010964e+01
  -4.406700e+01  -3.135116e+01
  -3.911247e+01  -6.874860e+01
   7.690134e+01  -1.363864e+02
   1.537180e+02  -5.101803e+01
   1.046485e+02   7.678861e+01
   5.646218e+00   1.762409e+02
  -1.051372e+02   7.928750e+01
  -9.478244e+01  -1.799060e+01
  -2.982625e+01  -1.657400e+02
  -2.458008e+01  -8.834664e+01
   2.603696e+01  -8.549503e+00
   3.507360e+01   3.477369e+01
   1.368684e+01  -3.455107e+01
   9.624067e+00  -2.729302e+01
   3.136119e+01   3.426686e+00
   5.905733e+01   7.639367e+01
   6.089304e+01   1.129058e+02
  -3.340010e+01   3.212830e+01
  -1.682566e+02  -3.166526e+01
  -8.844914e+01  -7.719738e+01
   2.939022e+01  -3.420909e+00
   1.003559e+02   1.906051e+01
   8.288538e+01  -3.146969e+01
  -1.203635e+01  -2.019010e+01
  -4.840999e+01   3.315411e+01
   9.639132e+00  -3.719741e+01
   3.349120e+00   3.291690e+01
  -3.741972e-01   4.325995e+00
  -3.869706e+01  -3.571782e-01
  -8.345883e+01  -5.109826e+01
  -4.229706e+00  -7.262678e+01
   1.334440e+02  -8.832044e+01
   1.846341e+02  -7.163007e+01
   1.612766e+02   4.580161e+01
   1.851491e+01   1.833686e+02
  -9.487890e+01   1.190411e+02
  -1.173183e+02   5.852879e+01
  -1.034783e+02  -4.195948e+00
   3.367637e+00  -4.294284e+01
  -2.919864e+01  -1.705933e+01
  -9.006933e+00   2.918738e+01
  -1.858760e+01  -2.877889e+01
  -4.695012e+01  -4.715045e+01
   1.550084e+01  -4.753495e+01
   9.102382e+01  -2.775146e+01
   5.649506e+01   1.273379e+01
  -4.385840e+00   6.145428e+01
  -3.584903e+01   3.184036e+01
  -1.131828e+02  -7.792970e+01
  -1.225878e+01  -1.200769e+02
   8.054424e+01  -2.863257e+01
   7.216678e+01   2.543256e+01
   3.923805e+00   9.885110e+01
   1.550177e+01   9.244226e+01
  -5.494622e+01   2.341479e+01
   1.783022e+01  -2.888706e-02
   7.061665e+01  -8.033475e+00
   1.116766e-01  -1.364730e-01
  -8.170524e+01   4.677027e+01
  -1.681572e+02   4.293853e+01
  -4.228798e+01  -2.067524e+01
   3.230145e+00  -4.954836e+01
   5.038890e+01  -5.157885e+01
  -1.971582e+01  -8.610267e+00
   6.538137e+00   5.366182e+01
  -3.069422e+01   9.005386e+01
  -2.348599e+01  -1.617044e+01
   3.494027e+01  -3.888043e+01
  -3.072295e+00  -5.513186e+01
   1.203954e+01  -5.260666e+00
   4.151813e+01   5.286452e+01
   4.008812e+01   6.975346e+00
  -5.624191e+00  -5.406086e+01
  -4.118699e+01  -7.166815e+00
   2.132878e+01   1.098372e+01
  -1.834579e+01   3.961593e+01
  -2.141584e+01   6.442247e+01
   1.091295e+00  -1.272332e+01
  -2.219103e+01  -6.357816e+01
  -6.254005e+00  -1.370884e+01
   7.458284e+01  -3.684202e+01
   4.446763e+01   3.445456e+01
  -2.330031e+01   4.144398e+01
  -3.712112e+01   2.044742e+01
  -4.071950e+00  -6.349366e+01
   2.776857e+01  -4.637715e+01
   6.835689e+01   1.078159e+01
   1.006527e+01   9.211965e+00
  -5.683471e+00  -4.754355e+00
  -4.316617e+01   5.179023e-01
  -2.127939e+01   9.487527e-01
   3.905964e+01  -1.986715e+01
