
 $NMID
 id='ANONYMOUS ', fmtdat='(2E16.6)'
 volume=1.0
 tramp=1.0
 $END
   3.719116e+03   9.771195e-01
   2.410187e+03   1.979132e+03
  -3.293141e+02   2.364988e+03
  -1.339063e+03   1.161735e+03
  -9.504310e+02   2.017777e+00
   1.628454e+02  -2.250311e+02
   3.967439e+02   3.444073e+01
   8.156546e+01   6.354994e+02
  -5.005600e+02   5.595995e+02
  -6.700485e+02   9.996776e+01
  -3.799291e+02  -5.307421e+02
  -2.809396e+01  -7.620625e+02
   3.785162e+02  -1.399450e+02
   3.112633e+02   5.868828e+02
  -2.015095e+02   5.896730e+02
  -4.268351e+02   1.017167e+02
  -3.576101e+02  -5.168303e+02
   2.007962e+02  -6.597113e+02
   4.995363e+02  -1.644885e+02
   3.653819e+02   2.149244e+02
   9.520583e+01   4.381030e+02
  -1.846453e+02   2.368246e+02
  -6.783285e+01   9.046509e+01
   1.858900e+02  -1.592419e+01
   2.757340e+02   2.697563e+02
   3.318629e+01   4.086030e+02
  -4.531388e+02   2.219251e+02
  -7.432443e+02  -2.261411e+02
  -2.495478e+02  -4.123794e+02
   3.696640e+02  -3.193644e+02
   6.516805e+02   1.279082e+02
   2.445988e+02   4.149546e+02
  -3.013235e+02   4.231051e+02
  -4.778186e+02   1.378603e+02
  -3.730195e+02  -1.700006e+02
  -7.577745e+01  -4.164156e+02
   7.353804e+01  -2.039394e+02
   4.122243e+01   1.590105e+02
  -1.366420e+02   1.796074e+02
  -2.452280e+02  -1.239705e+02
  -9.145670e+01  -5.609984e+02
   2.878624e+02  -5.238609e+02
   3.835612e+02  -3.720089e+01
   1.772704e+02   3.921370e+02
  -1.592009e+02   2.170457e+02
  -2.531393e+02  -3.074514e+02
   8.307454e+01  -4.424424e+02
   4.741143e+02  -1.029771e+02
   5.235212e+02   3.745933e+02
   2.006206e+02   5.896114e+02
  -3.512159e+02   3.175165e+02
  -5.711504e+02  -6.883074e+01
  -3.693409e+02  -3.001236e+02
   1.168950e+02  -2.555887e+02
   3.349816e+02  -8.866849e+01
   2.444809e+02   1.659708e+01
   5.596598e+00   2.300372e+01
  -1.063856e+02  -1.239083e+02
   1.176198e+02  -1.032764e+02
   2.731952e+02   4.436264e+01
   1.483157e+02   1.423543e+02
  -7.952271e+01   2.488411e+02
  -2.934735e+02   1.881201e+02
  -2.876460e+02  -5.163271e+01
   1.791419e+01  -2.992878e+02
   2.479528e+02  -3.704781e+02
   3.573411e+02  -1.649315e+02
   2.936090e+02   1.955544e+02
   1.176472e+02   3.766102e+02
  -5.756397e+01   3.256271e+02
  -4.122830e+01   1.349312e+02
  -4.647079e+01   7.739772e+01
  -1.321707e+02   5.737388e+01
  -2.140423e+02   8.446445e+01
  -2.465918e+02  -1.161929e+02
  -9.696235e+01  -2.530484e+02
   4.945499e+01  -2.133031e+02
   2.039595e+02   2.172575e+01
   2.027965e+02   2.020607e+02
   2.533943e+01   2.643775e+02
  -2.591649e+02   4.538201e+01
  -3.042044e+02  -1.589313e+02
  -1.822474e+02  -2.717427e+02
   6.522133e+01  -2.794578e+02
   2.319256e+02  -1.154536e+02
   1.875772e+02  -4.217809e+01
   1.830241e+02  -5.361570e+01
   2.475171e+02  -2.832599e+01
   3.460693e+02   6.498601e+01
   2.572077e+02   2.807841e+02
  -6.025347e+00   4.022655e+02
  -3.603057e+02   4.595226e+02
  -4.561915e+02   2.183934e+02
  -2.818243e+02  -7.254021e+01
  -7.184752e+01  -2.722286e+02
   8.204992e+01  -2.317887e+02
  -9.630147e+00  -3.266028e+01
  -1.049011e+02   3.857727e+01
  -1.046660e+02  -2.388792e+01
   6.780523e+00  -1.828406e+02
   1.490265e+02  -9.417937e+01
   1.569448e+02   8.386414e+01
  -4.160566e+00   1.485930e+02
  -1.672332e+02   3.809175e+01
  -1.818164e+02  -2.052026e+02
   1.571424e+01  -3.098411e+02
   1.861734e+02  -1.876862e+02
   3.391030e+02   9.193488e+01
   2.476509e+02   2.787519e+02
   6.255594e+01   2.205105e+02
  -7.328067e+01   1.215986e+02
  -1.188063e+02  -3.162410e+00
  -1.187039e+01  -5.613046e+00
   4.361043e+01   1.041445e+02
  -3.997708e+01   1.642044e+02
  -1.397409e+02   1.049509e+02
  -1.590203e+02  -1.305078e+00
  -3.504173e+01  -9.190424e+01
   5.208326e+01  -2.450750e+01
   2.398544e+01   1.107771e+02
  -1.249690e+02   1.187635e+02
  -2.363003e+02  -2.432072e+01
  -2.990161e+02  -1.623163e+02
  -5.139423e+01  -2.897355e+02
   1.533103e+02  -2.535329e+02
   2.596412e+02  -1.391008e+02
   1.694886e+02   6.010518e+01
  -4.451086e+01   7.372924e+01
  -8.183995e+01  -1.742589e+01
   5.806348e+00  -5.651278e+01
   1.661126e+02  -4.802932e+01
   1.934590e+02   8.951683e+01
   8.179862e+01   1.773594e+02
  -4.056207e+01   1.387276e+02
  -1.271445e+02   8.699330e+00
  -2.510745e+01  -1.935651e+01
  -2.051145e+00  -2.240896e+01
  -7.186810e+00   5.502839e+01
  -8.590065e+01   1.054594e+02
  -1.798185e+02   1.660408e+01
  -1.780279e+02  -1.284653e+02
   5.123333e+00  -2.004859e+02
   1.587118e+02  -1.608158e+02
   1.558466e+02   1.365792e+01
   7.933936e+01   1.055869e+02
  -5.941519e+01   1.051720e+02
  -9.493049e+01   3.695890e+01
  -8.811467e+00   3.787392e+00
   8.520800e+00   4.225199e+00
  -3.443668e+01  -1.867109e+01
  -6.279416e+01   2.631174e+01
  -1.026165e+02  -6.575309e+01
   4.673422e+00  -1.332408e+02
   1.112329e+02  -1.988543e+02
   2.341679e+02  -3.319665e+01
   2.009511e+02   1.398853e+02
   6.096057e+01   2.315595e+02
  -1.071364e+02   1.606831e+02
  -9.609489e+01   7.028026e+01
  -1.034213e+02  -2.005407e+01
  -7.660076e+01  -3.463914e+01
  -6.980794e+01   2.085051e+01
  -7.766167e+01   3.050974e+01
  -7.269313e+01  -7.251145e+01
   3.008750e+01  -1.356697e+02
   1.291632e+02  -8.084859e+01
   1.459693e+02   6.117660e+00
  -1.160377e+01   9.654209e+01
  -1.127492e+02   9.205707e+01
  -1.422654e+02  -1.487894e+01
  -1.014920e+02  -1.695667e+02
   1.049249e+02  -1.891270e+02
   1.979519e+02  -7.636660e+01
   2.344686e+02   8.568541e+01
   1.170271e+02   1.689180e+02
  -4.512077e+01   1.430604e+02
  -9.501847e+01   5.782899e+01
  -6.283926e+01   9.157356e+01
  -1.148267e+02   1.186872e+02
  -7.973350e+01   2.033095e+01
  -8.284910e+01  -3.307165e+01
  -1.191555e+02  -1.440283e+02
  -2.997716e+01  -2.497357e+02
   7.810654e+01  -1.877582e+02
   1.599323e+02  -5.037402e+01
   1.254005e+02   6.865090e+01
   3.399081e+01   1.693864e+02
  -6.974983e+01   9.884466e+01
  -3.952931e+01   2.819124e+01
   6.497423e+00  -4.930795e+01
   1.490517e+01  -6.237580e+01
  -3.511983e+01  -1.786966e+01
  -8.152675e+01  -3.876941e+00
  -5.584363e+01  -4.094715e+01
   3.354388e+01  -8.661489e+01
   1.354919e+02  -1.227043e+01
   1.041577e+02   3.725944e+00
   3.168056e+01   3.665498e+01
  -1.204195e+02   4.349483e+01
  -1.128483e+02   5.269567e+01
  -5.762207e+01  -1.690280e+01
  -1.754195e+00   1.303761e+01
   4.728654e+00   6.251428e+01
   6.685481e+00   5.932971e+01
  -3.571342e+01   5.898692e+01
  -6.727433e+01  -3.338879e+01
  -4.495733e+01  -7.712934e+01
  -9.549588e+01  -2.785467e+00
  -9.678593e+01  -2.259370e+01
  -4.777934e+01  -2.555187e+01
  -2.566574e+01  -8.756842e+01
   6.468726e+01  -1.526493e+02
   1.405739e+02  -1.493749e+02
   1.587578e+02  -1.870365e+01
   1.229565e+02   7.888538e+01
   4.988899e+01   1.304508e+02
  -8.612279e+01   6.084248e+01
  -6.338010e+01   2.082439e+01
   5.567714e+01   1.577676e+01
   1.199695e+02   2.173266e+01
   2.486478e+01   9.810468e+01
  -9.426175e+01   9.071649e+01
  -1.785925e+02   7.255798e+00
  -1.766844e+02  -7.869702e+01
  -1.854944e+01  -1.322530e+02
   7.245294e+01  -9.136287e+01
   1.030659e+02   2.099483e+01
  -1.876937e+01   8.306908e+00
  -6.853725e+01  -1.198896e+01
  -1.977280e+01  -9.844059e+01
   7.303569e+01  -1.258418e+02
   1.791359e+02  -8.411463e+01
   8.316911e+01   8.586338e+01
   7.214654e-01   1.734871e+02
  -8.373780e+01   1.107254e+02
  -1.175387e+02   4.306764e-01
  -2.673077e+01  -1.071644e+02
   3.827176e+01  -9.189974e+01
   4.020075e+01  -1.178442e+01
   5.377822e+01  -2.329711e+00
   1.245445e+01   4.311304e+01
   2.808676e+01  -2.781098e+01
   1.653677e+01  -3.407403e+00
   2.333232e+01   7.315939e+01
  -1.686621e+01   8.015229e+01
  -7.208762e+01  -8.408307e+00
  -1.095378e+02  -4.079920e+01
  -1.086762e+02  -6.878061e+01
  -6.328055e+01  -6.464917e+01
   6.357805e+01  -4.923805e+01
   8.227640e+01  -3.500884e+01
   6.664161e+01  -7.670976e+00
  -1.844238e+01   2.010166e+01
  -3.436561e+00  -2.517171e+00
   2.194112e+01  -2.668850e+00
   3.022660e+00   1.473951e+01
  -7.771382e+01  -5.720313e+00
  -1.340316e+02  -4.420750e+01
  -7.444478e-01  -3.447679e+01
   1.153247e+02  -6.326016e+01
   1.760441e+02  -5.944884e+01
   1.246064e+02   3.263170e+01
  -1.971381e+01   1.301796e+02
  -8.741597e+01   1.001828e+02
  -4.347662e+01   2.791853e+01
  -5.025845e+01  -6.096436e+01
  -1.230679e+01  -5.851379e+01
   3.725372e+01  -1.958464e+01
   3.679912e+01  -7.335593e+00
  -2.460182e+01  -3.964553e+01
   1.828227e+00  -8.299544e+01
   6.264707e+01  -8.178195e+01
   9.723464e+01   3.080476e+01
   7.535046e+01   1.686130e+02
  -8.409716e+00   1.082474e+02
  -5.986580e+01   2.729239e+01
  -1.155244e+02  -9.745400e+01
  -9.035617e+01  -1.017729e+02
   5.396451e+01  -1.004190e+02
   7.801396e+01   2.536649e+01
   6.422969e+01   9.089394e+01
  -1.978343e+01   5.269170e+01
  -7.508552e+01   1.697896e+01
  -1.859219e+01  -5.463335e+00
   3.475329e+01  -7.232881e+01
   2.257365e+01   3.077559e+01
  -6.142390e+01   1.839215e+01
  -9.484646e+01   5.994715e+01
  -9.930578e+01  -6.558141e+01
  -2.131002e+01  -6.853913e+01
   5.942580e+01  -4.453648e+01
   7.328663e+01  -5.141777e+00
  -1.007530e+01   5.026265e+01
  -5.078124e+01   6.396475e+01
  -2.989125e+01   4.390539e+01
  -2.464863e+01  -6.036963e+01
   3.146188e+01  -2.576367e+01
   4.869825e+01   9.977354e-01
   8.418179e+01   3.904220e+01
  -1.577968e+00  -1.588910e+01
  -7.017907e+00  -3.632910e+00
  -1.612186e+01   2.564300e+01
  -2.070109e+01   4.753783e+01
  -1.245083e+01   6.081021e+01
  -4.717338e+01   1.587221e+01
  -2.491846e+01  -4.856243e+01
   1.548667e+01  -9.463996e+01
   3.214567e+01  -4.234385e+01
   5.594851e+01   3.824527e+01
   2.832579e+01   6.760836e+01
  -6.726128e+01   1.195702e+01
  -6.752651e+01  -1.901360e+01
  -3.839746e+00  -6.605762e+01
   9.001823e+01  -4.909191e+01
   6.673307e+01  -2.392042e+01
   2.775953e+01   2.498292e+01
  -6.727926e+01   1.363873e+01
  -3.123008e+01  -5.655660e+01
   4.541787e+01  -2.056593e+01
   8.518382e+01   1.201116e+01
