
 $NMID
 id='ANONYMOUS ', fmtdat='(2E16.6)'
 volume=1.0
 tramp=1.0
 $END
   4.382274e+03   2.376642e+02
   2.444365e+03   2.874112e+03
  -7.656798e+02   2.922674e+03
  -2.421767e+03   7.648881e+02
  -9.963609e+02  -9.573934e+02
   7.449559e+02  -6.097473e+02
   1.053373e+03   6.275877e+02
   5.336299e+01   1.181024e+03
  -8.022420e+02   7.206690e+02
  -1.020433e+03  -2.013822e+02
  -3.901115e+02  -8.568343e+02
   2.884076e+02  -9.187516e+02
   8.129744e+02  -9.783333e+01
   4.233190e+02   7.841368e+02
  -2.703584e+02   8.529622e+02
  -6.731669e+02  -9.161781e+01
  -2.834991e+02  -7.398967e+02
   4.404083e+02  -6.408946e+02
   6.159607e+02  -6.296456e+01
   3.780270e+02   4.400164e+02
  -1.839418e+01   5.616210e+02
  -2.368802e+02   3.001606e+02
  -2.892519e+02   3.218188e+01
   8.894260e+01  -8.142903e+01
   5.246376e+02   1.029811e+02
   2.879703e+02   4.540082e+02
  -4.412618e+02   5.653639e+02
  -9.232128e+02   2.407088e+01
  -4.668920e+02  -6.301009e+02
   4.593065e+02  -5.162235e+02
   8.061318e+02   1.100220e+02
   3.574362e+02   5.251605e+02
  -3.159018e+02   6.224271e+02
  -5.915242e+02   1.926427e+02
  -4.536628e+02  -2.249713e+02
  -1.230106e+02  -5.251469e+02
   2.138891e+02  -3.363654e+02
   2.340864e+02   2.190836e+02
  -1.396880e+02   5.438573e+02
  -5.441232e+02  -2.527230e+01
  -3.761657e+02  -7.793114e+02
   2.814490e+02  -8.517100e+02
   7.323645e+02  -3.202643e+01
   3.149827e+02   6.505972e+02
  -2.768080e+02   4.118314e+02
  -4.348098e+02  -3.391470e+02
   6.165768e+01  -6.678676e+02
   5.481104e+02  -1.424429e+02
   6.287200e+02   4.056832e+02
   1.836359e+02   6.468227e+02
  -4.192640e+02   3.454512e+02
  -7.100262e+02  -7.159036e+01
  -4.229419e+02  -4.380915e+02
   1.553469e+02  -4.558312e+02
   5.249002e+02  -1.229863e+02
   2.625563e+02   2.255798e+02
  -1.736167e+02   1.260874e+02
  -2.032946e+02  -1.800609e+02
   1.765646e+02  -2.413448e+02
   3.796035e+02   4.339354e+01
   1.637066e+02   2.953337e+02
  -2.316979e+02   2.918757e+02
  -3.111290e+02  -7.872413e+00
  -1.928103e+02  -1.387002e+02
   4.315241e+00  -2.257016e+02
   2.365101e+02  -3.139651e+02
   3.678578e+02  -2.031758e+02
   3.759145e+02   1.860916e+02
   7.800631e+01   4.943725e+02
  -1.288905e+02   4.022072e+02
  -2.245842e+02   7.010843e+01
  -3.364171e+01  -7.579221e+01
  -1.348506e+01   9.316140e+01
  -1.700358e+02   1.064618e+02
  -2.514644e+02  -6.708509e+01
  -2.180714e+02  -2.345720e+02
   1.042187e+02  -2.353146e+02
   2.527989e+02  -5.931067e+01
   1.952668e+02   2.115921e+02
  -2.182418e+01   2.683805e+02
  -2.772763e+02   1.382889e+02
  -3.663060e+02  -1.849110e+02
  -1.763359e+02  -3.487058e+02
   1.472373e+02  -3.295851e+02
   2.695520e+02  -1.193160e+02
   1.781628e+02  -1.419872e+01
   8.092684e+01   2.315888e+01
   2.224915e+02  -8.280924e+01
   4.077820e+02   5.549422e+01
   3.199966e+02   3.103767e+02
  -1.755670e+01   4.616462e+02
  -3.301733e+02   3.805785e+02
  -4.703770e+02   1.745691e+02
  -3.548731e+02  -5.313279e+01
  -7.688508e+01  -2.972021e+02
   1.583409e+02  -2.665287e+02
   9.817923e+01  -3.882888e+01
  -1.261354e+02   1.505059e+02
  -2.238471e+02   7.744547e-01
  -9.035232e+01  -1.939520e+02
   2.359800e+02  -2.084993e+02
   1.917997e+02   1.803934e+01
  -4.629789e+01   1.529205e+02
  -1.337957e+02  -8.724071e+00
  -1.395313e+02  -2.119272e+02
   1.168889e+01  -3.328717e+02
   1.821563e+02  -1.726444e+02
   3.082151e+02   7.091638e+01
   3.061488e+02   1.755342e+02
   1.546300e+02   2.526482e+02
  -1.056432e+02   1.879542e+02
  -1.527058e+02   5.770707e+01
  -5.860424e+01   2.470386e+01
   8.190829e+01   7.325713e+01
   2.274557e+01   1.332676e+02
  -1.053897e+02   1.144463e+02
  -1.760514e+02  -6.308439e+00
  -4.014869e+01  -5.571684e+01
   9.308464e+01  -4.840642e+00
   1.763716e+01   6.079998e+01
  -1.208466e+02   6.523004e+01
  -1.931541e+02   1.819084e+01
  -2.689830e+02  -9.192351e+01
  -8.227017e+01  -2.231702e+02
   1.672875e+02  -2.664969e+02
   2.717613e+02  -1.732910e+02
   1.997337e+02   5.581625e+01
  -4.062207e+01   1.141023e+02
  -1.543435e+02   7.518757e+01
   5.072908e+01  -1.070104e+02
   1.773287e+02  -7.040784e+01
   2.038207e+02   6.847786e+01
   7.393331e+01   1.687131e+02
  -4.040953e+01   1.832319e+02
  -1.274890e+02   3.814496e+01
  -5.758514e+01   8.616850e+00
   2.443750e+00   1.620664e+01
   5.728290e+01   5.063099e+01
  -3.913533e+01   1.229907e+02
  -2.233829e+02   2.113712e+01
  -2.264863e+02  -9.991043e+01
  -5.376973e+01  -1.767186e+02
   1.347208e+02  -2.057990e+02
   2.033519e+02  -2.093585e+01
   8.284423e+01   8.352545e+01
  -6.192154e+01   1.013861e+02
  -6.985800e+01   1.952565e+01
   2.454868e+01  -4.810731e+01
   3.493881e+01   1.322064e+00
  -5.008319e+01  -6.956512e+00
  -5.271793e+01  -9.861554e-01
  -4.979058e+01  -9.628403e+01
  -3.947165e+01  -1.082429e+02
   9.826236e+01  -1.651254e+02
   2.022481e+02  -5.576724e+01
   1.961584e+02   1.039171e+02
   5.203229e+01   2.487569e+02
  -1.075255e+02   1.474738e+02
  -1.713299e+02   3.165599e+01
  -8.027299e+01  -5.918231e+01
   8.758132e+00  -8.916408e+01
   6.899912e+00   5.293939e+00
  -4.972585e+01   6.781212e+00
  -2.415510e+01  -4.303191e+01
   5.084098e+01  -8.477909e+01
   9.084354e+01  -5.249003e+01
   9.850637e+01   9.967162e+00
  -2.431955e+01   1.602732e+02
  -1.457235e+02   9.255286e+01
  -2.221606e+02  -8.081071e+00
  -1.175763e+02  -2.003120e+02
   5.289328e+01  -2.771102e+02
   2.637106e+02  -1.448463e+02
   2.085937e+02   8.743816e+01
   1.445743e+02   2.617119e+02
  -4.627236e+01   1.865582e+02
  -1.068008e+02   1.106652e+02
  -7.972238e+01   6.314486e+01
  -5.335037e+01   9.027092e+01
  -6.202184e+01   5.517958e+01
  -1.278747e+02  -6.728761e+01
  -8.356957e+01  -1.218243e+02
  -8.157553e+01  -2.027881e+02
   7.225870e+01  -1.719795e+02
   2.127301e+02  -1.927609e+01
   1.550598e+02   8.964922e+01
   6.678314e+00   1.200133e+02
  -8.194291e+01   6.112295e+01
  -7.643306e+01  -1.140788e+01
   2.985339e+01   9.259692e+00
  -4.064641e+01  -5.359016e+01
  -1.012817e+01  -3.912968e+01
  -7.165695e+01  -8.841307e+00
   2.440133e+01  -1.657074e+01
   3.296932e+01  -1.275562e+01
   1.481001e+02  -4.474231e+00
   7.299927e+01   4.300549e+01
  -2.850687e+01   8.528420e+01
  -9.458163e+01   5.694162e+01
  -1.515607e+02   2.606936e+01
  -9.766442e+01  -8.591529e+00
   4.947891e+00  -4.932516e+01
   4.704699e+01  -1.122454e+01
  -1.599105e+01  -1.883152e+00
  -2.790996e+01   8.610483e+01
  -2.756047e+01  -5.262448e+01
  -3.142707e+01  -4.685737e+01
  -5.863959e+01   4.743737e+00
  -3.614911e+01  -4.658789e+01
  -5.924197e+01   3.950241e+00
  -7.705750e+00  -6.881492e+01
   2.093345e+01  -1.499531e+02
   7.065117e+01  -1.825531e+02
   1.550772e+02  -4.298995e+01
   1.782681e+02   5.128824e+01
   2.946430e+01   1.304118e+02
  -9.068505e+01   8.146204e+01
  -2.069355e+01  -5.151148e+01
   2.469480e+00  -3.810030e+01
   1.791512e+02   5.023758e+01
   8.751991e+01   1.460123e+02
  -3.813625e+01   1.461311e+02
  -1.779214e+02   6.584636e+01
  -1.724895e+02  -3.791796e+01
  -6.336858e+01  -9.662109e+01
   5.696344e+01  -9.438982e+01
   6.231364e+01  -2.832690e+01
  -8.154082e+00   1.054668e+01
  -5.644706e+01   2.947740e+01
  -6.198682e+01  -1.544335e+02
   9.571611e+01  -1.677136e+02
   1.467604e+02  -5.183077e+01
   1.378873e+02   1.374108e+02
  -1.504321e+01   2.301133e+02
  -8.863600e+01   1.213374e+02
  -7.992594e+01  -9.949187e+00
  -7.903762e+01  -1.180215e+02
  -2.806690e+01  -9.461650e+01
   9.386230e+01   2.852597e+00
   1.948332e+01   2.689092e+01
   2.421724e+01   2.657359e+01
  -1.324367e+01  -4.906844e+01
   3.910370e+00   2.944949e+00
   8.321804e+01   8.960596e+01
   5.843526e+01   1.039641e+02
  -3.552038e+01   7.698735e+01
  -1.657441e+02  -2.577143e+01
  -1.294952e+02  -2.881145e+01
  -5.176996e+01  -2.992317e+01
   8.969845e+01  -5.841265e+01
   1.110784e+02  -5.019886e+01
   2.802291e+01  -3.149710e+01
  -7.640123e+01   1.896655e+01
  -1.747657e+00   1.319618e+01
  -2.125783e-01  -4.804971e+00
  -1.694878e+01  -4.063742e+00
  -7.881515e+01  -2.520589e+01
  -5.126400e+01  -4.366811e+01
  -7.216162e+00  -9.768783e+01
   1.192158e+02  -9.921458e+01
   1.692161e+02  -2.330026e+01
   1.352865e+02   1.061433e+02
   1.876028e+01   1.765984e+02
  -7.104259e+01   1.527012e+02
  -6.875435e+01   3.208538e+01
  -6.764025e+01  -4.862092e+01
   2.300352e+01  -7.833072e+01
  -2.518813e+00   1.039098e+01
   4.631603e+01   4.761924e+01
  -4.658093e+01  -1.765053e+01
  -1.230008e+01  -9.423339e+01
   1.575660e+01  -8.243860e+01
   1.082725e+02   1.571272e+00
   7.120986e+01   1.115460e+02
   2.300092e+01   1.056880e+02
  -1.213369e+02   9.565135e+00
  -9.727142e+01  -9.751616e+01
  -1.965170e+01  -1.147633e+02
   6.209807e+01  -2.507455e+01
   1.038384e+02   1.479434e+01
   4.600021e+01   1.349147e+01
  -6.323516e+00   1.012461e+01
  -5.589945e+01  -2.785298e+01
   4.361896e+01   1.857074e+01
   4.410323e+01   2.525336e+01
   2.517164e+01   2.291870e+01
  -5.635146e+01   8.116376e+01
  -1.249416e+02   4.555006e+01
  -6.569608e+01  -2.261480e+01
   1.598566e+01  -7.754437e+01
   4.233606e+01  -7.225154e+01
  -1.419456e+00  -1.030251e+00
   4.687639e+01   3.314586e+01
  -3.450210e+01   6.926293e+01
  -3.503917e+01  -2.411437e+01
  -3.339895e+01  -5.384586e+01
   4.173376e+01  -5.147911e+01
   5.059593e+01  -9.328711e+00
   5.843391e+01   3.214090e+01
   3.008967e+01   5.306372e+00
   9.254752e-01  -3.495824e+01
  -2.382200e+00   2.385191e+01
   3.139403e+00   7.051219e+01
  -1.426191e+01  -2.436862e-01
  -9.059878e+00  -6.393349e+00
   9.207168e+00  -7.485814e+01
   1.051114e+01  -3.092927e+01
   3.797425e+01   5.496656e+00
   2.647085e+01   4.247386e+01
  -3.091678e+00   5.292347e+01
  -5.544158e+01  -6.008125e+00
  -7.561304e+01  -2.889846e+01
  -7.354873e+01  -5.328546e+01
   5.475573e+01  -3.314601e+01
   4.817260e+01  -4.020436e+01
   8.608364e+01  -2.688977e-01
  -7.195478e+00  -5.494201e+00
  -4.714902e+01  -2.227984e+01
   3.614149e+01  -2.456742e+01
   9.479596e+01   1.860899e+01
