
 $NMID
 id='ANONYMOUS ', fmtdat='(2E16.6)'
 volume=1.0
 tramp=1.0
 $END
  -4.048860e+03  -1.321177e+02
  -2.196269e+03  -2.674427e+03
   7.443179e+02  -2.634503e+03
   1.845640e+03  -7.774927e+02
   8.452166e+02   5.695099e+02
  -5.518517e+02   4.525160e+02
  -8.494376e+02  -4.116578e+02
  -5.930351e+00  -1.000014e+03
   7.115350e+02  -6.964335e+02
   8.852466e+02   4.851653e+01
   5.503663e+02   8.098438e+02
  -3.208022e+02   9.261825e+02
  -6.715653e+02   5.729807e+01
  -3.650012e+02  -7.538126e+02
   3.692308e+02  -7.351450e+02
   5.396277e+02  -1.347211e+00
   3.051841e+02   6.020866e+02
  -2.479506e+02   5.554925e+02
  -5.926199e+02   1.966491e+01
  -2.947191e+02  -4.169381e+02
   5.145783e+01  -4.284606e+02
   2.084502e+02  -2.409145e+02
   1.850191e+02   4.746863e+01
  -1.526479e+02   7.641001e+01
  -3.928202e+02  -1.609500e+02
  -1.805406e+02  -4.796094e+02
   4.541594e+02  -3.660960e+02
   6.932337e+02   8.826902e+01
   3.283664e+02   4.871113e+02
  -3.782544e+02   3.919816e+02
  -7.036834e+02  -1.189149e+02
  -3.010119e+02  -4.451207e+02
   2.931916e+02  -4.916722e+02
   4.834033e+02  -9.988906e+01
   3.777662e+02   2.193924e+02
   5.934279e+00   4.543876e+02
  -2.645848e+02   2.623901e+02
  -1.744747e+02  -1.890952e+02
   2.116980e+02  -4.164685e+02
   4.205995e+02   1.064897e+01
   2.333764e+02   5.939964e+02
  -3.136746e+02   6.045387e+02
  -5.046446e+02   3.217940e+01
  -2.086297e+02  -5.012314e+02
   2.989109e+02  -3.208008e+02
   4.309007e+02   2.872696e+02
  -4.935981e+01   4.720868e+02
  -5.202708e+02   1.626484e+02
  -5.540999e+02  -3.734852e+02
  -1.391162e+02  -5.721404e+02
   4.058584e+02  -3.539955e+02
   6.425687e+02   2.936717e+01
   3.287353e+02   3.124900e+02
  -1.034917e+02   3.133026e+02
  -3.911975e+02  -2.945480e+01
  -2.212587e+02  -1.721818e+02
   7.401405e+01  -7.694652e+01
   1.274157e+02   1.126604e+02
  -1.628647e+02   1.368559e+02
  -3.281451e+02  -4.353499e+01
  -1.332647e+02  -2.668699e+02
   1.360854e+02  -2.214016e+02
   2.573543e+02  -1.471901e+01
   1.982749e+02   7.429521e+01
  -2.752987e+01   1.693956e+02
  -1.751116e+02   2.791932e+02
  -3.454605e+02   1.875095e+02
  -2.467331e+02  -6.484053e+01
  -3.836753e+01  -3.690498e+02
   1.052741e+02  -3.354306e+02
   1.151046e+02  -7.080935e+01
   2.005400e+01   2.533988e+01
   2.535847e+01  -5.489161e+01
   1.760602e+02  -1.291929e+02
   2.747305e+02   9.920161e+01
   1.449584e+02   2.739082e+02
  -1.194054e+02   2.812286e+02
  -2.464624e+02   5.655478e+01
  -2.081004e+02  -2.136795e+02
  -5.466384e+00  -3.003605e+02
   2.040768e+02  -1.082878e+02
   3.083773e+02   1.414571e+02
   1.926689e+02   2.623819e+02
  -7.472561e+01   2.627360e+02
  -1.596566e+02   9.536261e+01
  -1.527282e+02   3.551041e+01
  -9.844397e+01   3.837175e+01
  -2.209640e+02   1.127423e+02
  -3.701092e+02  -1.369528e+01
  -3.385703e+02  -2.537814e+02
   4.894285e+00  -4.204329e+02
   2.921051e+02  -3.279967e+02
   4.416393e+02  -1.494911e+02
   2.581392e+02   6.564494e+01
   1.427196e-01   3.001929e+02
  -1.232904e+02   2.611093e+02
  -6.635574e+01   3.621646e+01
   1.023933e+02  -8.986138e+01
   1.715558e+02   4.050628e+01
   2.697387e+01   2.296782e+02
  -1.404663e+02   1.237681e+02
  -1.776618e+02  -5.667715e+01
   1.586540e+01  -2.146926e+02
   1.315756e+02  -4.416040e+01
   1.573264e+02   2.033177e+02
  -5.606651e+01   3.160700e+02
  -1.474631e+02   1.607063e+02
  -2.590304e+02  -6.488291e+01
  -2.286430e+02  -1.676520e+02
  -4.680909e+01  -1.942091e+02
   7.507106e+01  -1.167490e+02
   1.804724e+02  -4.907667e+01
   1.767014e+01   2.027624e+01
  -5.524630e+01  -3.294277e+01
  -5.912860e+01  -1.041156e+02
   1.401137e+02  -9.538318e+01
   1.454518e+02  -5.032760e-01
   1.197512e+02   7.275541e+01
  -6.811677e+01   3.127683e+01
  -9.399040e+01  -4.984769e+01
   1.115809e+02  -2.985513e+01
   2.083155e+02  -3.162289e+01
   2.120968e+02   6.827044e+01
   9.515864e+01   1.809808e+02
  -1.419670e+02   2.352364e+02
  -2.513012e+02   1.482960e+02
  -1.366778e+02  -6.710485e+01
   2.464408e+01  -8.781645e+01
   4.767740e+01  -1.703525e+01
  -9.044448e+01   8.380924e+01
  -1.641240e+02   6.796384e+01
  -2.031365e+02  -9.806247e+01
  -5.238928e+01  -1.898889e+02
   8.343019e+01  -2.016856e+02
   1.170321e+02  -2.305106e+01
   1.193126e+02   4.651692e+01
   8.040711e+00   8.172598e+01
  -5.402177e+01  -7.921827e+01
   7.916055e+01  -8.718192e+01
   1.513760e+02  -5.531665e+01
   1.192762e+02   1.190773e+02
   2.354385e+01   1.582878e+02
  -1.174749e+02   1.379717e+02
  -1.901034e+02  -3.925299e+01
  -6.354589e+01  -1.509984e+02
   7.648933e+01  -1.326842e+02
   7.465301e+01  -1.316853e+01
   6.793490e+01   3.717871e+01
  -1.016040e+01   3.872376e+01
  -1.547874e+01   2.010444e+01
   7.736136e+01   2.608503e+01
   7.403936e+01   7.044716e+01
   1.367218e+00   8.432275e+01
  -9.937691e+01   1.155550e+02
  -2.396135e+02   2.071029e+01
  -1.836478e+02  -1.173802e+02
  -3.187015e+01  -1.888015e+02
   1.012452e+02  -1.905660e+02
   1.389437e+02  -5.576673e+00
   6.121512e+01   4.277043e+01
   2.852748e+01   8.150251e+01
   5.222496e+01   1.645734e+01
   3.234221e+01   4.726404e+01
   1.974409e+01   3.551330e+01
  -2.064114e+01   4.578766e+01
  -7.709154e+01   6.271395e+01
  -5.768593e+01  -8.670978e+00
   7.429008e+01  -7.510920e+01
   1.800621e+02  -5.988812e+01
   1.495008e+02   7.513905e+01
   8.124987e+01   1.497625e+02
  -5.892780e+01   2.065288e+02
  -1.751262e+02   5.145560e+01
  -2.374960e+02  -4.715842e+01
  -1.152794e+02  -1.505756e+02
  -1.594775e+01  -1.557727e+02
   5.755620e+01  -5.763394e+01
   2.289651e+01  -5.784361e+01
   2.318758e+01  -1.072045e+02
   8.982770e+01  -7.998556e+01
   1.078654e+02   6.960041e+01
   8.624712e+01   1.030163e+02
  -1.025981e+01   2.037185e+02
  -1.433900e+02   1.351057e+02
  -1.664979e+02   2.361725e+01
  -1.221329e+02  -8.776311e+01
   2.379647e+01  -1.507227e+02
   3.292900e+01  -9.061679e+01
   4.670612e+01  -2.213121e+01
  -1.862453e+01   2.056878e+00
   1.199128e+01   5.187509e+00
   4.111229e+01   1.694501e+01
   5.010406e+01   4.415435e+01
   2.309050e+00   5.091749e+01
  -6.767289e+01  -9.213451e+00
  -1.199551e+02  -1.553987e+01
  -9.498087e+01  -9.080953e+01
  -2.167653e+01  -4.155306e+01
   1.206191e+02  -6.728369e+01
   1.531333e+02   1.163307e+01
   8.925964e+01   2.431731e+01
  -4.799877e+01   3.064508e+01
  -3.377571e+01  -5.392260e+00
  -4.134967e+01  -5.145278e+01
   2.641048e+01  -6.724400e+01
   4.868723e+01  -2.319550e+01
   7.731453e+01   3.980449e+01
   4.265686e+01   1.470484e+01
   4.033389e+01   5.458055e+00
   3.206732e+01   7.245179e+01
   1.947082e+01   5.101754e+01
  -5.560544e+01   1.072021e+02
  -1.124388e+02   1.564108e+02
  -1.590907e+02   4.282633e+01
  -1.302708e+02  -4.623429e+01
  -6.140763e+00  -9.521726e+01
   5.558829e+01  -4.016772e+01
   7.810322e+01  -1.761505e+01
  -4.119357e+01   3.188822e+01
  -1.023811e+02  -4.124595e+01
  -5.779781e+01  -9.743999e+01
   8.938059e+01  -1.330677e+02
   2.204711e+02  -1.451392e+01
   1.718314e+02   6.415186e+01
   7.111804e+01   1.258856e+02
  -8.430186e+01   7.202142e+01
  -6.659708e+01   1.782200e+01
   1.450263e+01  -3.104820e+01
   6.426845e+01  -2.740961e+01
   1.414296e+01   1.268525e+02
  -5.400682e+01   1.426993e+02
  -1.602114e+02   6.740019e+01
  -1.503883e+02  -1.250605e+02
   2.803993e+00  -1.431116e+02
   4.252062e+01  -1.166957e+02
   1.342726e+02   2.061654e+01
   7.792672e+01   9.442882e+01
   2.468339e+01   7.143905e+01
  -5.318805e+01   8.453854e+00
  -4.607621e+01  -5.250726e+01
  -5.539872e+01  -1.671232e+01
  -2.871940e+01   1.906136e+01
  -6.029300e+01  -3.586513e+01
  -3.058643e+01  -1.191837e+02
  -4.916537e+01  -6.511673e+01
   5.477403e+01  -3.713429e+01
   1.287641e+02  -1.771356e+01
   1.214133e+02   1.005214e+02
   1.325525e+01   5.559993e+01
  -8.943534e+01   3.475722e+01
  -1.066936e+02  -8.983878e-01
   1.515171e+01  -2.979834e+01
   1.380757e+01  -4.041081e+01
   2.202697e+01   1.332141e+01
   7.540173e-01   1.639629e+00
   5.869556e+00  -1.443156e+01
   8.115935e+01  -2.227675e+01
   9.249580e+01  -3.037167e+00
   8.410357e+00   1.126854e+02
  -1.146604e+02   1.097980e+02
  -1.409817e+02   5.796903e+01
  -9.432470e+01  -4.360459e+01
  -2.684812e+01  -1.167338e+02
   6.193492e+01  -1.372131e+02
   9.270033e+01  -1.003692e+02
   5.676541e+01  -1.169616e+01
  -1.119493e+01   1.186162e+01
  -4.446388e+01  -5.485901e+00
   1.945805e+01   2.549618e+01
   4.437083e+01   2.355518e+01
   5.509686e+01   9.340451e+01
   2.415876e+01   8.296648e+01
  -8.119083e+01  -1.716622e+01
  -7.048821e+01  -8.561044e+01
  -3.384021e+01  -5.690011e+01
   8.580547e+01   1.243636e+01
   1.512650e+02   3.647172e+01
   3.338109e+01   1.306231e+02
  -7.361894e+01   3.150961e+00
  -8.103236e+01  -6.909574e+00
  -1.541359e+01  -4.014178e+01
   1.322443e+01  -2.001768e+01
   6.626261e+00  -3.037895e+01
  -4.281033e+01  -2.980893e+01
  -7.081518e+01   3.456046e+00
   1.520259e+01  -8.486974e+00
   4.809066e+01  -8.481515e+01
   2.583609e+01  -8.440090e+01
   4.661914e+01   1.225481e+01
  -2.924734e+01   4.537152e+01
  -2.778046e+01   7.396820e+01
   3.734028e+01   1.802230e+01
  -5.021772e+00  -6.063051e+01
  -1.705720e+01  -4.858694e+01
   6.975278e+00  -8.372429e-01
   3.238132e+01   3.396247e+01
   1.516807e+01   5.715518e+01
  -1.594261e+01  -1.691258e+00
  -5.373834e+01  -4.430499e+01
  -9.883990e+00  -2.962479e+01
  -2.479908e+01   4.811417e+01
   1.056396e+01  -6.821221e-02
   4.066326e+01  -1.751697e+01
   2.864958e+01  -1.589603e+01
   4.208002e+00   8.582337e+00
  -3.516212e+00   5.713516e+01
  -4.979725e+00   6.803974e+01
  -5.307651e+01   3.159693e+01
  -1.169520e+02  -4.551326e+01
  -3.612968e+01  -8.737090e+01
   4.437607e+01  -2.341598e+01
   7.777826e+01   6.770682e+00
   3.623170e+01   4.431319e+01
   1.241903e+00   1.797365e+01
  -4.067978e+01   3.256623e+01
   2.178609e+01  -1.602645e+01
   6.372621e+01   1.779326e+01
   7.166230e+01   1.735094e+01
  -4.190882e+00   3.197809e+01
  -8.536814e+01   1.686976e+01
