
 $NMID
 id='ANONYMOUS ', fmtdat='(2E16.6)'
 volume=1.0
 tramp=1.0
 $END
  -4.919606e+03   6.269835e+01
  -2.880162e+03  -3.095954e+03
   1.015287e+03  -3.305597e+03
   2.625344e+03  -7.322995e+02
   9.540331e+02   9.486954e+02
  -9.304639e+02   7.339620e+02
  -1.102927e+03  -6.868455e+02
   8.713811e+01  -1.240868e+03
   9.348019e+02  -8.434557e+02
   9.613061e+02   1.816065e+02
   4.690231e+02   9.636888e+02
  -3.402422e+02   9.925592e+02
  -7.153095e+02   1.560840e+01
  -3.694844e+02  -9.337743e+02
   3.588790e+02  -8.475353e+02
   7.316001e+02  -2.771693e+01
   2.451512e+02   7.868532e+02
  -4.457031e+02   6.448913e+02
  -6.791297e+02   8.445301e+01
  -3.913633e+02  -4.588040e+02
  -2.163115e+01  -4.634779e+02
   3.048192e+02  -3.276799e+02
   3.420236e+02   4.371893e+01
  -1.587730e+02   1.805052e+02
  -4.400188e+02  -8.126120e+00
  -2.908060e+02  -4.784789e+02
   5.968815e+02  -4.459536e+02
   9.485310e+02   9.029835e+01
   4.811212e+02   6.800357e+02
  -3.793326e+02   5.716769e+02
  -7.506260e+02   6.153397e+01
  -4.060030e+02  -4.948144e+02
   2.695969e+02  -5.449617e+02
   6.323488e+02  -2.590558e+02
   4.558372e+02   2.400175e+02
   4.367246e+01   5.092315e+02
  -2.442664e+02   2.914589e+02
  -2.097204e+02  -2.941059e+02
   1.393980e+02  -5.502116e+02
   5.733603e+02  -2.420865e+01
   3.005829e+02   7.087973e+02
  -3.617410e+02   8.015194e+02
  -7.682261e+02   3.912310e+01
  -3.415981e+02  -6.636098e+02
   3.677489e+02  -3.705292e+02
   4.456562e+02   3.926554e+02
  -1.300257e+02   6.658937e+02
  -6.884368e+02   1.406359e+02
  -6.600857e+02  -5.011414e+02
  -1.040735e+02  -6.792631e+02
   4.941850e+02  -3.438656e+02
   6.355853e+02   8.010073e+01
   3.049058e+02   3.997134e+02
  -1.558702e+02   4.077416e+02
  -4.556677e+02  -5.160526e+00
  -2.432842e+02  -2.832407e+02
   1.592950e+02  -1.174645e+02
   1.789329e+02   2.086663e+02
  -2.092575e+02   3.081573e+02
  -3.853790e+02  -8.319748e+01
  -1.434341e+02  -3.878236e+02
   2.295729e+02  -3.062122e+02
   3.123745e+02  -2.204477e+01
   1.807612e+02   1.106544e+02
  -5.761323e+01   1.846465e+02
  -1.913269e+02   3.255393e+02
  -3.503508e+02   2.724550e+02
  -3.052715e+02  -1.254998e+02
  -9.310776e+01  -5.072695e+02
   1.287968e+02  -3.734327e+02
   1.501801e+02  -2.894005e+01
  -1.009023e+01   4.356645e+01
  -1.495138e+01  -1.036404e+02
   1.417580e+02  -2.099037e+02
   2.682637e+02   6.084298e+01
   1.882776e+02   3.202693e+02
  -6.097286e+01   2.964699e+02
  -2.572013e+02  -2.723065e+01
  -2.103618e+02  -3.024551e+02
  -8.077737e+00  -3.282343e+02
   2.845193e+02  -9.493434e+01
   3.825571e+02   2.067328e+02
   1.919021e+02   3.813218e+02
  -1.028393e+02   3.150372e+02
  -1.923787e+02   1.383019e+02
  -1.568016e+02  -3.716305e+01
  -8.817889e+01   6.218315e+01
  -2.410522e+02   8.394659e+01
  -3.996369e+02  -3.769601e+01
  -3.446448e+02  -2.959610e+02
   8.575720e+01  -4.099388e+02
   3.753298e+02  -3.960164e+02
   5.397879e+02  -1.913291e+02
   3.501728e+02   8.681591e+01
   5.323266e+01   2.999005e+02
  -1.487176e+02   2.577159e+02
  -1.167984e+02   5.397555e+01
   1.340952e+02  -1.221788e+02
   2.052937e+02   9.910969e+00
   6.669022e+01   2.675204e+02
  -1.528096e+02   1.988106e+02
  -2.245529e+02  -5.868970e+01
   4.534507e+01  -2.093017e+02
   1.822271e+02  -3.786216e+01
   1.129737e+02   2.381117e+02
  -5.052502e+01   3.554997e+02
  -2.111205e+02   1.602169e+02
  -2.754781e+02  -6.441946e+01
  -2.282533e+02  -2.492257e+02
  -1.484818e+02  -2.513165e+02
   4.239056e+01  -1.682509e+02
   2.270089e+02  -1.208185e+01
   1.234715e+02   5.428757e+01
  -5.109759e+01  -7.751557e+00
  -2.879448e+01  -1.186261e+02
   1.354185e+02  -1.162615e+02
   1.751862e+02  -6.584973e+00
   8.357921e+01   7.763490e+01
  -8.852315e+01   3.826807e+01
  -6.185473e+01  -6.654310e+01
   1.410644e+02  -7.991666e+01
   2.148798e+02   1.198083e+01
   1.879595e+02   9.580508e+01
   2.734031e+01   2.314221e+02
  -1.761909e+02   2.396092e+02
  -2.595026e+02   1.330332e+02
  -1.894232e+02  -7.707552e+01
   6.144909e+00  -1.362812e+02
   9.376589e+01  -3.730541e+01
   3.609362e+00   5.943800e+01
  -1.396216e+02   7.986246e+01
  -1.663146e+02  -6.748632e+01
  -1.612509e+01  -1.929064e+02
   6.144678e+01  -1.585191e+02
   1.415958e+02  -5.516842e+00
   1.070046e+02   5.553003e+01
  -5.720007e+01   1.828285e+01
  -7.082454e+01  -6.958948e+01
   1.696810e+00  -1.179109e+02
   1.760446e+02  -7.621635e+01
   1.546500e+02   1.352068e+02
   2.798989e+01   2.129088e+02
  -1.416862e+02   1.269812e+02
  -1.833681e+02   1.140716e+01
  -7.128490e+01  -1.139534e+02
   3.758311e+01  -1.139840e+02
   6.555050e+01  -1.174811e+01
   6.120657e+01   4.301985e+01
   6.086996e-01   2.254095e+01
  -1.838687e+01  -1.188940e+01
   2.199307e+01  -8.788688e+00
   5.471086e+01   8.137959e+01
  -2.473072e+01   1.253357e+02
  -1.444035e+02   1.087998e+02
  -1.993562e+02  -2.795404e+01
  -1.707245e+02  -1.472984e+02
  -6.576875e+00  -2.448307e+02
   1.514972e+02  -1.345932e+02
   1.792945e+02  -2.048630e+00
   8.277312e+01   9.044975e+01
  -3.300890e+01   9.741364e+01
   4.099692e+01  -4.496249e+01
   5.310507e+01  -1.301193e+01
   5.325282e+01   4.176016e+01
  -4.243227e+01   3.298232e+01
  -6.783749e+01   1.874045e+01
  -5.383146e+01  -3.118572e+01
   9.913709e+00  -1.303181e+02
   8.780656e+01  -7.115858e+01
   2.343558e+02   4.731957e+01
   8.246430e+01   1.972545e+02
  -6.842964e+01   2.154956e+02
  -2.434652e+02   1.347785e+02
  -2.402725e+02  -1.140762e+02
  -8.235354e+01  -1.949100e+02
   6.594946e+01  -1.581364e+02
   1.029917e+02  -8.792745e+01
   8.618249e+01  -6.260114e+01
   8.090818e+01  -5.904080e+01
   5.377337e+01  -1.648799e+01
   1.047252e+02   5.139456e+01
   1.149454e+02   1.386828e+02
   2.225837e+01   1.904590e+02
  -1.215309e+02   1.688767e+02
  -1.196577e+02   4.584466e+01
  -1.550483e+02  -1.444888e+02
  -1.411658e+01  -1.772568e+02
   6.663406e+01  -1.030538e+02
   5.315874e+01  -1.559248e+01
   1.263871e+01   4.150357e+01
  -6.693813e+00   5.291529e+01
  -6.281424e+00   3.040798e+01
   7.886093e+01   1.900773e+01
   1.885694e+01   4.699797e+01
  -6.171753e+01   8.425160e+01
  -1.242166e+02  -1.094924e+01
  -1.274742e+02  -4.259052e+01
  -2.347458e+01  -9.733722e+01
   1.256203e+02  -4.059801e+01
   1.070820e+02  -9.261912e-01
   3.748602e+01   4.393458e+01
  -2.412760e+01  -3.571495e+01
  -3.178200e+01  -4.184988e+01
   3.333721e+01  -1.003024e+02
   6.352200e+01  -3.376797e+01
   9.718449e+01   6.559661e+01
   2.805396e+01   7.996868e+01
   5.406300e+01   8.406800e+01
   7.251670e+01   2.384559e+01
   2.227579e+01   2.259192e+01
   2.362941e+01   5.501106e+01
  -9.817343e+00   1.231998e+02
  -7.564880e+01   1.593825e+02
  -1.795695e+02   2.693836e+01
  -1.455675e+02  -8.473432e+01
   3.873392e+01  -1.181189e+02
   1.055773e+02  -6.944651e+01
   6.077924e+01  -3.325888e+01
  -8.990554e+01  -3.899439e+00
  -1.147202e+02  -8.932055e+01
  -3.361179e+01  -1.053066e+02
   5.292953e+01  -1.073731e+02
   1.984721e+02  -1.332977e+01
   1.926086e+02   6.132213e+01
   6.325523e+01   9.933677e+01
  -1.100229e+02   7.519315e+01
  -1.186351e+02  -1.017574e+00
   1.042124e+01  -6.782114e+01
   1.045330e+02  -6.407001e+00
   5.199523e+01   1.916630e+02
  -1.073475e+02   1.936983e+02
  -1.572620e+02   1.159321e+02
  -9.472637e+01  -1.073064e+02
   7.599028e+00  -2.280854e+02
   7.435434e+01  -1.500029e+02
   1.296961e+02   9.265112e+00
   9.113730e+01   6.704931e+01
   2.038323e+01   1.599659e+02
  -5.196066e+01   9.025134e+01
  -4.211493e+01  -4.543360e+01
  -2.556491e+01  -3.396765e+01
  -8.251589e+00   5.008792e+00
  -2.233820e+01  -2.026278e+01
  -6.759556e+01  -1.250177e+02
  -1.865861e+01  -1.134444e+02
   4.285974e+01   2.131946e+01
   1.105339e+02   8.396282e+01
   9.483377e+01   5.303669e+01
   3.361460e+01   6.209677e+01
  -1.050804e+02  -1.993934e+01
  -8.085988e+01  -1.438816e+01
   2.389799e+01  -4.303938e+01
   4.741212e+01  -2.457747e+01
  -2.184789e+01  -1.508893e+01
   2.675332e+01   8.375687e-01
  -1.725447e+00   4.949417e+01
   8.826529e+01   3.877611e+01
   9.904670e+01   5.864323e+01
  -1.249529e+01   9.153860e+01
  -1.450471e+02   9.523292e+01
  -1.867076e+02   4.082650e+01
  -1.279990e+02  -1.101444e+02
  -6.637223e+00  -1.684419e+02
   1.120053e+02  -1.752011e+02
   1.576381e+02  -6.428167e+01
   7.412846e+01   1.829821e+01
   2.383237e+01   1.212934e+01
  -2.592356e+01  -3.781065e+01
   2.321122e+01  -2.341746e+01
   2.900712e+01   6.506267e+01
   2.395742e+01   8.956148e+01
  -5.516209e+01   8.318110e+01
  -1.344372e+02   8.098592e+00
  -4.866515e+01  -1.312215e+02
  -1.073155e+01  -1.029345e+02
   9.049400e+01   2.156280e+01
   6.644469e+01   3.897841e+01
  -4.015267e+01   9.751692e+01
  -6.852700e+01   2.934389e+01
  -6.667120e+01  -2.682755e+01
  -2.346050e+01  -7.907167e+01
   7.107480e+01  -7.340789e+01
   4.601221e+01  -1.922634e+01
  -3.741650e+01   4.113640e+01
  -7.006971e+01   9.007888e+00
  -3.986634e+01  -3.701817e+00
   9.013744e+01  -8.239926e+01
   5.768080e+01   2.817081e+00
   5.884075e-01   3.372675e+01
  -3.560084e+01   9.236223e+01
  -6.973833e+01   3.270066e+01
  -5.955288e+01   3.824868e+01
   1.079375e+01  -2.956344e+01
   1.286981e+01  -7.597289e+01
  -1.398612e+01  -2.489425e+01
  -3.385453e+01   9.388634e+01
  -1.241919e+01   2.043792e+00
  -1.711833e+01  -5.156698e+01
   2.708720e+01  -5.296419e+01
   1.227264e+01   5.378591e+01
   2.562057e+00   3.623122e+01
  -7.927190e+00   6.189565e+00
  -2.640223e+01  -5.072606e+01
   2.865967e+01  -1.444392e+01
   7.651764e+01   1.024650e+01
   9.303522e+00   3.828930e+01
  -5.457286e+01   3.391777e+01
  -6.805476e+01  -4.512806e+01
  -8.025286e+01  -6.470394e+01
   4.015834e+01  -3.127218e+01
   7.403167e+01  -2.761562e+01
   1.020657e+02   2.672924e+01
   9.934017e+01   4.875210e+01
  -8.027418e+01   5.845205e+01
  -8.993635e+01   5.780896e+01
  -6.537383e+00  -4.848498e+01
   6.368864e+01   9.080247e+00
   5.004814e+01   1.724161e+01
  -6.575979e+01   3.819191e+01
  -6.247385e+01   5.483407e+01
