
 $NMID
 id='ANONYMOUS ', fmtdat='(2E16.6)'
 volume=1.0
 tramp=1.0
 $END
   2.003188e+03   1.304542e+02
   1.298486e+03   1.078430e+03
  -2.118399e+02   1.268158e+03
  -8.621898e+02   5.392073e+02
  -5.138403e+02  -1.666786e+02
   1.810338e+02  -3.024244e+02
   4.145378e+02   1.010625e+02
  -2.788984e+01   4.903467e+02
  -3.791313e+02   3.742632e+02
  -4.581253e+02   2.422250e+01
  -3.912929e+02  -4.378177e+02
   6.797186e+01  -5.105901e+02
   2.669630e+02  -1.332003e+02
   2.071368e+02   3.003918e+02
  -7.793467e+01   3.443932e+02
  -2.975110e+02   6.257896e+01
  -1.724408e+02  -3.317345e+02
   1.555382e+02  -2.926732e+02
   1.976069e+02  -1.077766e+02
   1.622741e+02   1.544937e+02
   2.697799e+01   2.531286e+02
  -1.761365e+02   1.561782e+02
  -5.592415e+01   1.602012e+01
   5.232037e+01  -2.812656e+01
   2.250563e+02   3.382583e+01
   4.539412e+01   2.276939e+02
  -2.278481e+02   1.559719e+02
  -3.712008e+02  -1.297406e+01
  -1.751720e+02  -2.174031e+02
   1.076828e+02  -2.096061e+02
   3.180722e+02  -1.198918e+01
   1.560248e+02   2.166086e+02
  -6.107439e+01   1.847665e+02
  -2.444538e+02   1.351439e+02
  -2.361502e+02  -9.317038e+01
  -4.988716e+01  -1.802115e+02
   6.689286e+01  -1.230324e+02
   9.040251e+01   7.696487e+01
  -5.403849e+01   1.726406e+02
  -1.716117e+02   3.419014e+01
  -1.837469e+02  -2.852282e+02
   1.006227e+02  -3.227212e+02
   2.648340e+02  -8.574738e+01
   2.016481e+02   1.626431e+02
  -9.124507e+01   1.789790e+02
  -1.960049e+02  -8.135391e+01
  -1.235094e+01  -2.124129e+02
   2.173421e+02  -1.219686e+02
   2.915558e+02   1.118359e+02
   1.489546e+02   2.380744e+02
  -1.619952e+02   1.972034e+02
  -2.925520e+02   3.728382e+01
  -1.948045e+02  -1.475556e+02
  -4.425847e-01  -2.027200e+02
   1.744799e+02  -6.336159e+01
   8.518282e+01   8.346288e+01
  -3.792373e+01   8.225681e+01
  -6.139239e+01  -4.082884e+01
   6.954645e+01  -7.266818e+01
   1.698729e+02   1.939970e+01
   1.029579e+02   1.273218e+02
  -8.926273e+01   1.258304e+02
  -1.749875e+02   3.538675e+01
  -1.155469e+02   1.318297e+01
   1.136578e+01  -8.447244e+01
   1.343994e+02  -1.248650e+02
   1.338422e+02  -1.116961e+02
   1.479991e+02   6.260066e+00
   5.345804e+01   1.772971e+02
  -6.958993e+01   2.221098e+02
  -5.980037e+01   3.683756e+01
  -1.319671e+01  -2.866052e+00
   5.300040e+01   2.667430e+01
  -8.143133e+01   5.195681e+01
  -1.301361e+02  -1.636492e+01
  -8.705703e+01  -1.187263e+02
   3.686763e+01  -1.043375e+02
   7.891921e+01   1.304709e+00
   6.732478e+01   1.027591e+02
  -4.150658e+00   1.329980e+02
  -9.515310e+01   7.896629e+01
  -2.171418e+02  -9.517517e+01
  -9.570341e+01  -1.159811e+02
   2.814669e+00  -1.449581e+02
   7.620028e+01  -8.162299e+01
   7.146805e+01  -8.904679e+00
   5.006009e+01  -6.371569e+00
   1.117363e+02  -6.070324e+01
   1.641088e+02  -4.583616e+01
   1.479540e+02   1.112144e+02
   2.993036e+01   2.415189e+02
  -1.540971e+02   2.179601e+02
  -2.113937e+02   1.188696e+02
  -1.471232e+02  -4.400393e+01
  -1.596748e+01  -1.560337e+02
   6.100732e+01  -1.096469e+02
   4.010445e+01  -3.346493e+01
  -5.238157e+01   7.852902e+01
  -9.148226e+01   1.892849e+00
  -3.613049e+01  -9.832564e+01
   8.384443e+01  -7.406238e+01
   1.140838e+02   1.908387e+01
   2.857660e+00   1.233382e+02
  -7.861023e+01  -1.940745e+01
  -6.826464e+01  -9.222397e+01
  -4.480240e+01  -1.702309e+02
   8.727602e+01  -1.055979e+02
   1.653538e+02   7.544820e+00
   1.588436e+02   9.943851e+01
   5.753875e+01   1.136165e+02
  -4.504985e+01   8.635855e+01
  -8.457294e+01   1.050959e+01
  -3.412677e+01   2.686540e+01
   3.941815e+01   2.862613e+01
   3.987663e+01   8.430388e+01
  -1.402605e+01   6.083996e+01
  -9.080319e+01   2.008709e+01
  -9.367334e+01  -5.393318e+01
   5.602405e+01  -9.358074e+00
   3.479397e+01   3.028895e+01
  -3.019529e+01   1.427831e+01
  -1.077059e+02  -4.489751e+00
  -1.043895e+02  -6.035019e+01
   2.533224e+01  -9.780537e+01
   8.548312e+01  -8.988148e+01
   7.993804e+01  -5.074854e+01
   8.248287e+01  -1.313445e+01
  -6.721169e+00   9.586588e+00
   9.946905e+00  -1.240081e-01
   3.300886e+01  -4.834510e+01
   1.136648e+02  -2.947628e+01
   1.203510e+02   2.683546e+01
   5.961234e+01   7.329036e+01
  -5.233789e+01   1.222219e+02
  -8.954535e+01   5.005064e+01
  -1.753474e+01  -1.795266e+01
  -1.685654e+01  -4.078923e+01
   5.156324e+01   5.194194e+01
  -4.580090e+01   9.040465e+01
  -1.399550e+02   1.423696e+01
  -1.101376e+02  -3.770170e+01
  -1.286564e+01  -1.260800e+02
   9.766702e+01  -6.748814e+01
   5.138595e+01  -5.226598e+00
   3.372533e+01   3.661970e+01
  -2.846296e+01   4.067983e+01
  -2.791095e+01   2.533406e+01
  -1.875401e+01  -4.172904e+01
   1.594411e+01  -3.299948e+01
   1.362766e+01   1.391804e+01
  -4.740873e+01   5.872305e+00
  -5.539995e+01  -3.129795e+01
  -5.800565e+01  -7.717418e+01
   8.050373e+01  -7.505489e+01
   1.062908e+02  -4.406581e+01
   1.195897e+02   7.002894e+01
   2.387280e+01   1.057263e+02
  -7.971201e+01   7.282619e+01
  -1.009837e+02  -7.538920e+00
  -2.733447e+01  -3.635747e+01
   1.442410e+01   4.617603e+00
  -7.160466e+00   1.055245e+01
  -3.814552e+01  -1.584549e+00
  -7.294563e+01  -1.272741e+00
  -5.053888e+01  -5.858675e+01
   5.452310e+01  -3.648323e+01
   4.426837e+01  -2.794447e+01
   3.176707e+01   7.025186e+01
  -8.416651e+01   3.044614e+01
  -9.721504e+01  -6.531910e+00
  -3.212370e+01  -9.206886e+01
   2.811185e+01  -1.526507e+02
   1.309750e+02  -7.621206e+01
   1.318984e+02   4.900484e+01
   6.439716e+01   6.800912e+01
  -1.215585e+01   6.103747e+01
  -3.454755e+01   4.322089e+01
   1.150512e+01   5.136275e+00
  -4.188535e+00   6.723956e+01
  -1.077585e+01   6.520453e+01
  -5.609106e+01  -3.165376e+00
  -9.700265e+01  -3.620060e+01
  -5.538348e+01  -9.031177e+01
   3.532763e+01  -1.175146e+02
   8.226714e+01   2.392993e+01
   7.886820e+01   4.207020e+01
   1.644621e+01   6.489547e+01
  -1.779116e+01   5.085748e+01
  -1.808573e+00  -9.122553e+00
  -1.359799e+01  -1.961984e+01
  -7.313985e+00  -1.977647e+01
  -3.133387e+01   3.358211e+01
  -3.718271e+01   1.450500e+01
  -3.642868e+00  -2.252815e+01
   1.699968e+01  -3.924433e+01
   5.638123e+01  -7.312628e-01
   8.889766e+01  -1.250267e+01
   1.251396e+01   1.560552e+01
  -3.146902e+01   2.215244e+01
  -5.161012e+01  -1.855520e+01
   7.859437e+00  -1.072207e+01
   5.663819e+01   2.045504e+01
   2.827511e+01  -1.305167e+00
  -9.858611e-01   6.642882e+01
  -2.702522e+01   3.836052e+01
  -5.724933e+01  -3.241318e+01
  -5.399026e+01  -4.900878e+01
  -1.161643e+01  -4.169164e+01
  -2.389168e+01   4.066608e+00
  -5.800407e+00   2.544596e+01
   1.779375e+01  -3.370952e+01
  -9.029616e+00  -8.054068e+01
   7.304463e+01  -8.540083e+01
   8.993834e+01  -4.219667e+01
   7.165377e+01   5.403216e+01
  -4.256254e+01   6.255446e+01
  -1.375445e+01   4.513639e+01
  -4.318346e+00   1.696622e+01
   5.630657e+01  -9.512664e+00
   4.233161e+01  -4.704219e+00
   3.918441e+00   5.127735e+01
  -1.775178e+01   7.868391e+01
  -9.452623e+01   3.871620e+01
  -8.780516e+01  -2.391978e+01
  -3.429105e+01  -7.637419e+01
   3.804602e+01  -3.138595e+01
   5.559342e+00  -2.588703e+00
   7.349793e+00   1.402797e+01
  -3.121898e+01   2.059637e+01
  -3.741342e+01  -7.956970e+01
   3.966888e+01  -4.800789e+01
   7.137834e+01  -5.032177e+01
   4.979223e+01   7.512736e+01
   4.702526e+00   1.417013e+02
  -4.452358e+01   7.398764e+01
  -9.442971e+01   1.274294e+00
  -2.517557e+01  -9.694814e+01
  -9.998282e+00  -5.256159e+01
   6.278527e+01  -2.017545e+01
   3.049372e+01   6.118813e+00
   2.734613e+01  -2.111204e+01
   7.823205e-01  -2.578027e+01
  -1.263369e-01   4.511836e+01
   1.766859e+01   1.584345e+01
   2.541250e+01   1.592361e+01
  -4.302946e+01   1.217224e+01
  -3.608949e+01   4.212778e+00
  -9.340196e+01  -3.692623e+01
   2.807847e+01   2.146614e-01
   2.465473e+01  -9.864943e+00
   4.764214e+01  -3.461449e+01
   1.615113e-01  -5.384304e+01
  -1.211180e+01   3.085030e+00
   1.756957e+01   1.025499e+01
   3.393118e+01   5.189853e+00
   3.193618e+01   2.062455e+01
  -3.707223e+01   4.773152e+01
  -4.379850e+01  -3.771426e-01
  -2.071210e+01  -3.296458e+01
   4.630329e+01  -6.209830e+01
   6.997994e+01  -1.829635e+01
   4.267969e+01  -1.684732e+01
   3.486743e+00   8.733823e+01
  -1.626498e+01   4.892456e+01
  -2.308202e+01   1.249216e+01
   6.275322e+00   2.361631e+01
  -1.128383e+01   4.089985e+01
   1.541726e+01   1.501402e+01
   3.125605e+00   2.433924e+01
  -2.576790e+01  -7.390050e+00
  -1.466906e+01   1.013597e+01
   2.072008e+01  -5.623988e+01
   2.372193e+01   2.193128e+01
   1.782091e+01   6.650180e+00
   2.441668e+01   5.069527e+01
   3.065309e+00   6.246681e+00
  -6.712571e+01  -6.632314e+00
  -5.771387e+01  -6.087433e+01
   4.993678e+01   2.008811e+00
   5.779332e+01   8.039148e+00
   4.020658e+01   2.672311e+01
  -6.916198e+01   2.265338e+01
  -2.425520e+00   1.652317e+01
   6.098078e+00  -4.013901e+01
   7.314038e+01  -2.541178e+01
   5.697316e+00   2.054746e+01
   2.391737e+01   2.428150e+01
  -3.832237e+01   5.072630e+01
  -2.580566e+01  -6.029327e-01
  -1.683774e+01  -5.222256e+01
   3.059432e+01  -1.841555e+01
   1.680073e+01  -1.629868e+01
   1.160953e+01   6.148170e+00
  -7.712038e+00   1.428441e+01
  -1.147452e+01   2.065692e+00
   8.500423e+00  -9.791816e+00
  -2.626676e+01   2.251031e+01
   4.585282e+01  -1.352732e+01
   1.908975e+01   1.621825e+01
  -1.128630e+01  -2.931764e+01
   3.756025e+00  -9.041949e-01
   5.625933e-01   7.397095e+00
  -3.176532e+00  -6.273918e+00
   3.356339e+00   1.453050e+01
  -3.038506e+01   1.982092e+01
  -2.402514e+00  -2.318938e+01
   1.357812e+01  -3.034965e+01
   1.929793e+01   1.719546e+01
   2.126334e+01   8.458099e+00
  -2.272032e+00   1.292911e+01
  -5.134899e+01   3.296374e+01
  -5.001537e+01   2.589875e+00
  -1.570725e+01  -4.564269e+01
   3.614464e+01   1.085866e+00
   4.509879e+01   2.517726e+01
   2.191336e+01   4.572187e+00
  -5.193570e+00  -1.191066e+01
  -3.631968e+01  -6.575991e+00
   3.511214e+00  -2.211005e+01
   2.257867e+01  -1.328578e+01
