
 $NMID
 id='ANONYMOUS ', fmtdat='(2E16.6)'
 volume=1.0
 tramp=1.0
 $END
   5.086811e+03   1.394751e+02
   2.890319e+03   2.946579e+03
  -8.455595e+02   3.181181e+03
  -2.303091e+03   1.001496e+03
  -8.632163e+02  -6.137409e+02
   7.137810e+02  -8.131825e+02
   1.023151e+03   4.183984e+02
  -6.916025e+00   1.112853e+03
  -1.031913e+03   9.065389e+02
  -1.056490e+03  -8.995577e+01
  -5.384908e+02  -9.614045e+02
   2.864850e+02  -9.971631e+02
   7.202014e+02  -1.087938e+02
   4.838207e+02   8.634217e+02
  -1.970378e+02   7.772079e+02
  -6.802691e+02   1.113333e+02
  -2.881019e+02  -8.090738e+02
   3.904022e+02  -6.571982e+02
   6.253259e+02  -3.010903e+01
   3.966426e+02   4.035705e+02
   8.265316e+01   4.720677e+02
  -2.620190e+02   3.815830e+02
  -2.269726e+02   4.405729e+01
   7.072227e+01  -1.406590e+02
   4.035313e+02   1.010800e+02
   2.094277e+02   3.882723e+02
  -5.088793e+02   4.230893e+02
  -8.645883e+02  -1.732375e+01
  -4.874860e+02  -5.698186e+02
   3.837361e+02  -4.612421e+02
   8.055362e+02  -5.024511e+00
   3.873241e+02   4.787615e+02
  -3.103975e+02   6.017875e+02
  -5.839950e+02   1.919836e+02
  -4.535709e+02  -2.387235e+02
  -1.022877e+02  -5.308388e+02
   2.665457e+02  -3.293159e+02
   1.879494e+02   2.594588e+02
  -1.484233e+02   4.696857e+02
  -4.682517e+02  -3.517685e+01
  -3.191709e+02  -7.129149e+02
   3.309823e+02  -7.899722e+02
   7.246599e+02  -3.068565e+01
   3.185307e+02   6.128486e+02
  -3.176435e+02   4.040819e+02
  -4.537731e+02  -3.030383e+02
   7.482980e+01  -5.659043e+02
   6.019327e+02  -1.504935e+02
   6.327428e+02   4.170566e+02
   1.511461e+02   6.356608e+02
  -4.889622e+02   3.898802e+02
  -7.038585e+02  -1.018176e+02
  -3.940083e+02  -4.385923e+02
   2.205979e+02  -4.057012e+02
   5.295371e+02  -5.974053e+01
   2.812528e+02   2.535965e+02
  -9.017703e+01   1.594234e+02
  -1.572310e+02  -1.877677e+02
   1.578528e+02  -1.821664e+02
   4.138396e+02   8.158725e+01
   1.492299e+02   3.907386e+02
  -1.767858e+02   2.929767e+02
  -3.239344e+02   4.347488e+01
  -2.198995e+02  -7.290387e+01
  -2.655207e+01  -2.120010e+02
   2.461012e+02  -3.408149e+02
   3.877202e+02  -2.244337e+02
   3.430618e+02   1.129345e+02
   9.771374e+01   4.991098e+02
  -1.535775e+02   4.875904e+02
  -1.466421e+02   1.324226e+02
  -4.055818e+01  -7.189811e+01
  -8.325832e+00   5.500194e+01
  -1.606872e+02   1.264647e+02
  -2.905826e+02  -1.339165e+01
  -2.071552e+02  -2.268295e+02
   4.689207e+01  -2.758215e+02
   2.617312e+02  -2.539514e+01
   2.525119e+02   2.427546e+02
  -3.670444e+01   3.672986e+02
  -3.319521e+02   8.824957e+01
  -3.982578e+02  -2.160421e+02
  -1.941824e+02  -3.727807e+02
   1.382906e+02  -3.089111e+02
   2.960423e+02  -1.447394e+02
   1.150505e+02   3.168936e-01
   1.057541e+02  -6.048230e+00
   1.728731e+02  -1.098688e+02
   3.945058e+02   1.591907e+01
   3.838541e+02   2.413200e+02
   5.564010e+01   4.575993e+02
  -3.525628e+02   4.293969e+02
  -5.295566e+02   2.117235e+02
  -3.762229e+02  -1.291814e+02
  -5.678962e+01  -2.798850e+02
   1.160532e+02  -2.419333e+02
   7.872480e+01  -1.233076e+02
  -1.586758e+02   9.477531e+01
  -2.308282e+02  -3.021747e+01
  -4.213376e+01  -1.963538e+02
   1.932015e+02  -1.900757e+02
   2.000793e+02   4.200139e+01
   3.192721e+01   1.744193e+02
  -1.752778e+02   6.453952e+01
  -1.487217e+02  -2.209310e+02
   5.619088e+01  -3.817899e+02
   2.368582e+02  -2.411455e+02
   3.777223e+02   8.899142e+01
   2.780069e+02   2.174617e+02
   1.252594e+02   2.949798e+02
  -1.322546e+02   1.633853e+02
  -2.312440e+02   1.377862e+01
  -5.024554e+01  -2.776108e+01
   8.662005e+01   5.824207e+01
   4.724681e+01   1.445019e+02
  -1.170882e+02   8.569858e+01
  -1.725013e+02   9.900006e+00
  -7.060628e+01  -2.613805e+01
   6.343130e+01   1.655877e+00
   4.200592e+01   9.565373e+01
  -1.379498e+02   5.475299e+01
  -2.706301e+02   3.607194e+01
  -2.951145e+02  -1.739916e+02
  -1.324237e+02  -2.862328e+02
   1.537030e+02  -2.865444e+02
   2.839191e+02  -1.446086e+02
   1.963015e+02   3.792487e+01
   2.623173e+01   1.039333e+02
  -1.277110e+02  -2.219448e+01
  -4.177755e+01  -1.097040e+02
   2.318143e+02  -5.187853e+01
   2.316116e+02   7.121935e+01
   4.529884e+01   2.343389e+02
  -1.183131e+02   1.544024e+02
  -1.233559e+02   5.077629e+01
  -6.158746e+01  -9.207205e+01
   2.015503e+01   9.688758e+00
   2.638339e+01   9.715978e+01
  -7.967130e+01   1.210364e+02
  -2.023714e+02  -2.700465e+00
  -1.952386e+02  -1.033511e+02
   6.866260e+00  -2.106777e+02
   1.653663e+02  -1.626786e+02
   2.178319e+02  -2.326420e+01
   4.469101e+01   1.356345e+02
  -4.800928e+01   1.277686e+02
  -7.160675e+01   2.733065e+01
   2.081538e+01  -1.401810e+01
   6.167175e+01   6.281761e+00
  -3.930143e+01  -7.092660e+00
  -8.165650e+01  -1.368624e+01
  -7.926195e+01  -8.786515e+01
  -2.357745e+01  -1.488686e+02
   1.016466e+02  -1.436380e+02
   2.174786e+02  -3.489231e+01
   2.728529e+02   1.852334e+02
   8.362348e+01   2.121494e+02
  -1.080025e+02   1.863216e+02
  -1.841557e+02   2.290269e+01
  -7.513153e+01  -8.580090e+01
   1.163005e+01  -3.174735e+01
  -5.796902e+01   8.307377e+01
  -7.936562e+01   1.965568e+01
  -4.869317e+01  -2.090938e+01
   1.003816e+01  -7.260597e+01
   1.106001e+02  -2.842882e+01
   9.154989e+01  -4.404245e+00
  -1.187482e+01   8.725479e+01
  -1.855881e+02   1.127594e+02
  -2.037921e+02  -6.959763e+01
  -5.505122e+01  -1.626272e+02
   9.986884e+01  -1.936381e+02
   2.701663e+02  -1.169281e+02
   2.858914e+02   1.229693e+02
   1.539069e+02   2.063386e+02
  -4.522232e+01   1.547752e+02
  -1.080320e+02   4.704494e+01
  -1.314633e+02   8.041854e+01
  -5.851500e+01   1.304234e+02
  -5.822316e+01   1.028421e+02
  -1.262870e+02  -1.216424e+01
  -1.108188e+02  -1.768935e+02
  -3.043854e+01  -2.331476e+02
   1.356003e+02  -2.029522e+02
   1.617007e+02  -4.276520e+01
   1.543053e+02   1.273030e+02
   1.812363e+01   1.767807e+02
  -9.656793e+01   7.322086e+01
  -6.704169e+01  -5.812311e+01
  -3.094927e+01  -4.578066e+01
   3.479112e+01  -7.106049e+01
   3.787409e+00   1.438954e+01
  -9.114109e+01   9.235583e+00
  -2.374438e+01  -6.381618e+01
   1.205433e+02   1.874519e+01
   1.658955e+02   5.902165e+00
   1.756367e+02  -1.771562e+01
  -2.275725e+00   9.463746e+01
  -1.260593e+02   8.146434e+01
  -1.197981e+02   3.657544e+00
  -5.468254e+01   3.183832e+00
   8.803744e+01  -5.059573e+01
   7.481850e+01   2.737322e+01
   1.048309e+01   4.330442e+01
  -5.268076e+01   3.875331e+01
  -1.058024e+02  -2.089907e+00
  -3.638188e+01  -6.553311e+01
  -7.228689e+01  -1.595465e+01
  -1.056755e+02   2.789441e+01
  -8.672628e+01   5.707277e+00
  -1.786208e+01  -8.883684e+01
  -3.322284e+01  -1.539546e+02
   1.471834e+02  -2.173320e+02
   1.867937e+02  -3.661763e+01
   1.198807e+02   1.294733e+02
   9.695714e+00   1.543815e+02
  -1.358278e+02   7.018939e+01
  -9.045118e+01  -2.009409e+01
   1.015415e+02   4.025688e+00
   1.590972e+02   5.903870e+01
   8.882443e+01   9.884093e+01
  -1.001348e+02   1.308835e+02
  -1.943082e+02   2.457865e+01
  -2.092611e+02  -4.177276e+01
  -2.902017e+01  -8.751505e+01
   9.638769e+01  -4.694681e+01
   3.845599e+01  -1.299953e+01
  -6.745426e+00   2.003779e+01
  -8.617702e+01  -3.759416e+01
  -5.782667e+01  -1.577886e+02
   7.436289e+01  -2.008370e+02
   2.013774e+02  -4.003176e+01
   1.337203e+02   1.407465e+02
   2.064999e+01   2.107968e+02
  -8.264694e+01   1.382641e+02
  -1.366538e+02  -7.925457e+00
  -1.157305e+02  -1.388300e+02
   1.526597e+01  -1.151027e+02
   6.617757e+01  -3.082288e+01
   8.161481e+01   6.320487e+01
   3.457822e+01  -8.168831e-01
  -1.306381e+01   2.896279e+01
   4.448805e+01  -1.254359e+01
   6.842823e+01   1.235718e+02
   6.519246e+01   1.149265e+02
  -4.163549e+01   8.594121e+01
  -1.295869e+02  -3.427031e+01
  -1.144791e+02  -7.048537e+01
  -1.050391e+01  -7.983836e+01
   8.764322e+01  -3.165704e+01
   1.221270e+02  -1.766369e+01
   9.415870e+00   1.930132e+01
  -5.632090e+01   1.050461e+01
   2.058320e+01   2.582271e+01
   6.394851e+00  -1.275208e+01
   2.001848e+01  -9.797712e+00
  -5.782296e+01  -1.212699e+00
  -1.324410e+02  -7.701615e+01
   1.016319e+00  -1.280527e+02
   1.709980e+02  -9.969335e+01
   2.145489e+02  -8.931763e+01
   1.263574e+02   5.149229e+01
   5.764323e+01   1.681272e+02
  -6.847342e+01   1.471179e+02
  -1.275501e+02   4.631520e+01
  -1.139519e+02  -1.570987e+01
  -2.398974e+01  -1.073236e+02
   5.468323e+01  -3.626415e+01
  -5.524833e+01  -3.780318e+01
  -2.766648e+01  -1.351638e+01
  -3.690620e+01  -1.047548e+02
  -9.231973e+00  -6.189712e+01
   1.347742e+02  -3.132638e+00
   7.049582e+01   1.008029e+02
   6.287812e+00   1.160579e+02
  -9.842574e+01   6.484243e+01
  -8.288507e+01  -1.091510e+02
  -5.116323e+01  -1.129971e+02
   4.343943e+01  -7.581575e+01
   9.519516e+01  -1.670587e+00
   3.774255e+01   7.436867e+01
  -3.749966e+01   1.386389e+02
  -6.035612e+01  -7.662175e+00
   1.702461e+01  -1.251922e+01
   4.761738e+01   3.348426e+01
   5.522694e+00  -1.046757e+01
  -4.954700e+01   5.672301e+01
  -1.228293e+02   3.450594e+01
  -5.853389e+01  -3.421705e+01
   2.369084e+01  -6.187682e+01
   4.706066e+01  -9.951618e+01
   7.182565e+01   2.072427e+01
   3.444109e+01   1.708840e+01
  -5.317232e+01   3.334044e+01
  -1.070185e+02   9.719425e+00
  -4.591404e+01  -7.947153e+01
   2.289538e+01  -5.368367e+01
   4.733837e+01   1.472811e+01
   2.058525e+01   4.470174e+01
  -1.141431e+01   3.305064e+00
   6.418565e+01   2.778360e+01
  -1.834565e+01   8.900072e+01
  -4.318847e+01   4.447898e-02
  -4.733841e+01   1.971159e+01
  -1.245455e+01   3.810701e+01
  -3.192665e+01   5.400125e+00
   2.715006e+01  -3.971898e+01
   5.331364e+01  -1.334945e+01
   4.328939e+01   8.464628e+00
  -3.173156e+01   7.991599e+01
  -4.980167e+01   4.737696e+00
  -5.184744e+01  -2.533255e+01
  -4.094383e+01  -5.543090e+01
   1.703857e+01  -3.513054e+01
   5.935388e+01   1.373694e+01
   1.805408e+01  -3.861395e+01
  -6.687647e+01  -3.841053e+01
  -3.716782e+01  -2.852246e+01
  -8.959149e-01  -4.427923e+01
   1.267169e+02  -1.422466e+01
