
 $NMID
 id='ANONYMOUS ', fmtdat='(2E16.6)'
 volume=1.0
 tramp=1.0
 $END
   2.286793e+03   4.340774e+01
   1.486053e+03   9.658277e+02
  -1.678660e+02   1.321698e+03
  -1.031938e+03   6.361105e+02
  -5.414632e+02  -7.823432e+01
   8.521191e+01  -4.630439e+01
   2.202748e+02   1.433265e+02
   4.358876e+01   3.307468e+02
  -2.678129e+02   4.081657e+02
  -3.961622e+02  -3.255217e+01
  -2.901405e+02  -3.969104e+02
   2.980208e+01  -4.500850e+02
   2.457742e+02  -3.372432e+01
   1.578070e+02   3.475231e+02
  -7.702521e+01   3.678478e+02
  -2.743411e+02   4.881957e+01
  -1.895771e+02  -3.583552e+02
   1.117153e+02  -4.474234e+02
   2.994813e+02  -1.359618e+02
   2.876879e+02   1.306316e+02
   1.054390e+02   2.502409e+02
  -4.467870e+01   1.501599e+02
   1.444086e+01   1.356211e+02
   5.376908e+01   4.864424e+01
   2.216270e+02   1.716297e+02
   3.455882e-01   2.359029e+02
  -2.598486e+02   1.700934e+02
  -4.288933e+02  -1.670401e+02
  -1.998519e+02  -2.218950e+02
   2.304261e+02  -1.476819e+02
   3.804638e+02   7.094375e+01
   1.683493e+02   1.765496e+02
  -1.507164e+02   2.692276e+02
  -2.572358e+02   1.439867e+02
  -2.203722e+02  -7.455818e+01
  -7.328920e+00  -1.910850e+02
   6.596691e+01  -8.847997e+01
  -1.690056e+01   3.921787e+01
  -1.327945e+02   1.125990e+02
  -1.195729e+02  -6.300759e+01
  -3.157289e+01  -3.148776e+02
   2.030029e+02  -3.206298e+02
   2.040233e+02   5.958915e+00
   7.872924e+01   2.163959e+02
  -7.384701e+01   8.990487e+01
  -1.480268e+02  -2.000697e+02
   1.472293e+01  -2.593986e+02
   2.801577e+02  -1.255596e+01
   3.392160e+02   2.401100e+02
   9.427807e+01   3.573761e+02
  -1.737643e+02   1.824307e+02
  -3.569743e+02  -5.176009e+01
  -2.355859e+02  -1.895167e+02
   2.943757e+00  -1.481693e+02
   2.186788e+02  -4.656873e+01
   1.623021e+02   2.501851e+01
   3.051216e+01   4.708118e+01
  -3.910066e+01  -4.463910e+01
   8.310328e+01  -2.418035e+01
   2.320155e+02   6.090619e+01
   1.133340e+02   1.706100e+02
  -1.148515e+02   1.646795e+02
  -2.452940e+02   7.824301e+01
  -1.635326e+02  -9.783322e+01
   9.680935e+00  -2.122470e+02
   1.549393e+02  -2.328557e+02
   2.066731e+02  -1.366824e+02
   1.534537e+02   9.262590e+01
   6.151424e+01   2.603409e+02
   2.727387e+01   2.048219e+02
  -2.406048e+00   9.131269e+01
  -4.585337e+01   5.441509e+01
  -1.052868e+02   1.080508e+02
  -1.537214e+02   7.636688e+01
  -1.788561e+02  -8.869221e+01
  -6.885393e+01  -2.196076e+02
   7.160646e+01  -1.515585e+02
   1.370084e+02   3.070793e+01
   1.041676e+02   1.753122e+02
  -5.378282e+00   1.792301e+02
  -1.695800e+02   3.547832e+01
  -2.418926e+02  -1.131332e+02
  -1.155793e+02  -1.711352e+02
   3.390234e+01  -1.862066e+02
   1.071044e+02  -1.165546e+02
   8.061124e+01  -9.053629e+01
   1.190799e+02  -3.538321e+01
   1.706776e+02  -2.126309e+01
   2.728630e+02   6.148699e+01
   2.120683e+02   2.012292e+02
  -8.972957e+00   2.898604e+02
  -2.753895e+02   2.572896e+02
  -3.400113e+02   1.406664e+02
  -1.620323e+02  -5.529095e+01
  -4.405925e+01  -2.009209e+02
   5.022501e+01  -1.702784e+02
  -1.115406e+01  -5.563620e+01
  -7.546894e+01   2.184569e+01
  -1.056642e+02   1.803977e+01
   2.957947e+01  -6.243712e+01
   8.207859e+01  -1.013389e+02
   8.165594e+01   2.883677e+01
   4.890892e+00   1.000287e+02
  -8.643836e+01   3.259782e+00
  -1.158321e+02  -1.343191e+02
   2.930063e+01  -2.281251e+02
   1.573364e+02  -1.146584e+02
   2.100919e+02   4.535266e+01
   1.765378e+02   1.569227e+02
   2.731921e+01   1.279153e+02
  -1.091605e+02   6.789551e+01
  -1.319602e+02   6.685669e+00
   2.057464e+01   2.505470e+01
   8.972968e+01   5.746864e+01
   7.912650e+00   8.463827e+01
  -1.091487e+02   5.013451e+01
  -9.541517e+01  -1.606502e+01
  -4.366264e+01  -3.497205e+01
   7.986292e+01   7.494216e+01
   1.454894e+01   5.449147e+01
  -1.570529e+02   7.310608e+01
  -2.088381e+02  -1.218381e+01
  -1.747125e+02  -1.352757e+02
   7.751851e+00  -1.761195e+02
   1.656178e+02  -1.766267e+02
   1.741345e+02  -4.957713e+01
   9.391474e+01   8.414873e+01
  -2.179335e+01   6.634924e+01
  -5.118857e+01  -1.693754e+01
   4.385357e+01  -7.494866e+01
   8.752989e+01  -3.977926e+01
   1.022896e+02   1.010959e+02
   5.483044e+01   1.532071e+02
  -1.109698e+02   9.798360e+01
  -1.113653e+02  -1.157964e+01
  -4.628539e+01  -6.095533e+01
   3.755129e+01   2.079863e+01
   6.336553e+01   6.380931e+01
  -2.733147e+01   7.839176e+01
  -1.705927e+02  -1.382027e+01
  -1.648475e+02  -9.668551e+01
   1.357770e+01  -1.112699e+02
   1.485507e+02  -8.675076e+01
   1.432324e+02  -3.461531e+01
   3.638845e+01   7.686069e+01
  -3.203800e+01   1.255461e+02
  -6.566145e+01   6.970841e+01
  -5.621648e+01   7.232200e-01
   1.919858e+01  -4.531408e+01
  -3.488400e+00  -3.767601e+01
  -2.861656e+01   3.627968e+01
  -7.246788e+01  -1.677898e+01
   1.700986e+01  -1.188522e+02
   1.112563e+02  -1.111576e+02
   1.695557e+02   4.805422e+00
   1.874965e+02   1.015597e+02
   2.584600e+01   1.584814e+02
  -7.198952e+01   1.039848e+02
  -1.322539e+02   2.649269e+01
  -6.264191e+01  -4.686310e+01
  -2.785693e+00   1.268619e+00
  -4.501145e+01   6.682328e+01
  -5.103135e+01  -6.945462e+01
  -6.580236e+01  -4.328146e+01
   4.276430e+01  -5.275258e+01
   1.203897e+02  -9.735503e+00
   1.100727e+02   4.885332e+01
  -3.062881e+01   6.759279e+01
  -1.194920e+02   5.563080e+01
  -1.352924e+02  -2.649482e+01
  -2.541791e+01  -1.269412e+02
   8.525046e+01  -1.372364e+02
   1.596878e+02  -6.289997e+01
   1.580333e+02   5.284091e+01
   6.072619e+01   8.239039e+01
  -4.862652e+01   1.200878e+02
  -1.038368e+02   5.530826e+01
  -4.021644e+01   3.819404e+01
  -5.742508e+01   7.739357e+01
  -6.008602e+01   8.831549e+00
  -8.611483e+01  -2.586174e+01
  -5.569302e+01  -1.526477e+02
   2.956034e+01  -1.034422e+02
   8.913687e+01  -2.543857e+01
   9.682470e+01   1.407234e+01
   6.659615e+01   6.292620e+01
  -4.320841e+01   1.027623e+02
  -8.661493e+01   3.848408e+01
  -6.060500e+01  -9.853999e+00
   1.522974e+01  -2.613490e+01
   4.714251e+01   3.306999e+01
  -1.246598e+01   1.561166e+01
  -7.414575e+00  -5.202449e+00
  -3.582707e+00   4.148709e+00
   8.773695e+01  -3.955380e+01
   1.110758e+02  -3.329733e+00
   1.119892e+02   3.269460e+01
   2.965857e+01   7.221475e+01
  -1.227748e+02   4.678532e+01
  -1.145863e+02  -5.469306e+01
  -6.257244e+00  -5.091963e+01
   6.852538e+01  -1.211306e+01
   7.032916e+01   2.398890e+01
   3.549036e-01   4.034093e+01
  -2.916259e+01   3.528178e+01
  -4.641364e+01   4.159708e+01
  -1.615246e+01  -4.607536e+01
  -2.917564e+01  -4.166575e+01
  -4.662482e+01   3.134129e+01
  -6.056669e+01  -2.623213e+01
  -4.513782e+01  -6.167798e+01
   4.511942e+01  -1.080125e+02
   5.987026e+01  -9.209907e+01
   1.018593e+02  -1.299441e+01
   5.681580e+01   8.278540e+01
  -2.332351e+01   9.900175e+01
  -4.333252e+01   4.558126e+01
  -6.038959e+01  -5.310681e+01
   3.249219e+01  -2.918225e+01
   8.378615e+01   1.436126e+01
   6.030838e-01   6.752969e+01
  -5.908165e+01   1.003217e+02
  -1.179352e+02   4.960082e+01
  -1.373165e+02   1.164720e+01
  -8.913346e+00  -3.811049e+01
  -4.108096e+00  -1.816817e+01
   3.715319e+01  -1.617134e+01
  -9.680375e+01  -1.419424e+01
  -5.985618e+01  -3.365106e+01
  -5.651602e+00  -5.975040e+01
   6.544217e+01  -7.118273e+01
   1.233320e+02  -1.530848e+01
   9.470638e+01   6.468996e+01
   2.244749e+01   1.002410e+02
  -7.886342e+01   7.516501e+01
  -4.011852e+01  -3.943037e+01
  -1.585579e+01  -1.057440e+02
   3.115133e+01  -6.798963e+01
   2.379345e+01  -1.152417e+01
  -8.516195e+00   3.940945e+01
   4.975707e+01  -3.539869e+00
   2.745078e+01  -2.103378e+01
   2.152556e+01   2.180859e+01
   4.382625e+01   5.690718e+01
  -9.865428e-01   6.366195e+01
  -7.120490e+01   8.341114e+00
  -1.324296e+02  -8.799996e+01
  -1.224751e+02  -3.281023e+01
  -3.675656e+00  -2.857853e+01
   5.692641e+01  -2.203149e+01
   6.172893e+01  -4.946804e+01
   3.539662e+01   2.119744e+01
  -6.761755e+01   3.054099e+01
  -3.247865e+01   2.900699e+01
   1.579966e+01  -1.076808e+01
  -2.446878e+01  -1.599075e+01
  -2.569091e+01   1.637669e+01
  -5.163418e+01  -6.723074e+00
  -4.331152e+01  -1.399105e+01
   5.235606e+01  -6.671513e+01
   8.563033e+01  -6.563185e+01
   1.149631e+02   5.144124e+01
   1.495176e+01   6.410890e+01
  -6.387977e+01   8.316154e+01
  -6.135551e+01   1.699978e+01
   2.511235e+00  -6.367033e+00
  -6.163127e+00  -4.075789e+01
   6.856789e+00   2.113163e+01
   4.129767e+01  -3.409655e+01
   7.229187e+00  -8.007772e+01
   2.794822e+01  -8.450813e+01
   2.858089e+01  -6.702500e+00
   3.543856e+01   5.463470e+01
   7.051423e+01   6.108134e+01
  -1.681058e+00   5.261119e+01
  -3.458070e+01   7.679885e+00
  -9.156127e+01  -7.592506e+01
  -2.188178e+01  -2.720445e+01
   6.253139e+01  -2.116349e+01
   5.665040e+01  -1.781774e+01
  -5.018215e+00   5.663730e+01
  -3.281915e+01   1.171285e+01
  -4.116553e+01   2.069806e+01
   2.302582e+01   1.308782e+01
   6.359256e+01   1.070199e+01
   1.214503e+00  -8.860509e+00
  -4.524619e+01   2.146336e+01
  -8.398538e+01   2.252831e+00
  -7.500054e+00  -1.585186e+01
   3.514735e+01  -7.434749e+01
   4.391751e+01  -5.958276e+01
   3.321117e+01  -9.932803e+00
   3.784592e+00   1.611041e+01
  -1.860008e+01   3.032737e+01
   9.053531e+00  -1.194458e+01
   1.826877e+01  -2.046034e+01
  -1.770466e+00  -5.409333e+01
   5.748494e+01   3.259617e+01
   3.975559e+01   4.408340e+01
   2.827382e+00   1.006029e+01
  -2.378030e+01  -9.918837e+01
   2.390716e+01  -3.524360e+01
   1.658255e+01   4.687508e+01
   2.323505e+01   7.529752e+01
   7.091796e+00   7.680147e+00
  -1.315793e+01  -3.040203e+01
  -2.380110e+01  -5.312662e+01
   2.698229e+01  -2.216999e+01
   4.620732e+01  -3.120100e+00
  -3.959606e+01   4.778320e+01
  -1.655599e+01   7.271033e+01
  -4.205075e+01  -2.895023e+01
  -6.856860e+01  -4.721906e+01
   2.736302e+01  -4.820822e+01
   6.938672e+01  -6.461394e+01
   3.201889e+01  -2.235047e+01
  -1.585020e+01  -1.015436e+01
  -4.086060e+01  -8.968347e+00
   1.421666e+01  -7.708988e+00
   3.093329e+01  -1.820125e+01
