
 $NMID
 id='ANONYMOUS ', fmtdat='(2E16.6)'
 volume=1.0
 tramp=1.0
 $END
  -3.214294e+03   1.989040e+02
  -1.841373e+03  -1.727955e+03
   4.210051e+02  -1.784968e+03
   1.514794e+03  -7.683304e+02
   8.293363e+02   2.647791e+02
  -2.338974e+02   3.677931e+02
  -5.533212e+02  -1.606093e+02
   5.385837e+01  -6.159453e+02
   6.013096e+02  -4.729288e+02
   7.022476e+02   6.795344e+01
   3.621120e+02   6.472522e+02
  -3.593096e+01   6.886446e+02
  -4.015844e+02   1.640886e+02
  -1.577031e+02  -4.937861e+02
   1.130921e+02  -5.497442e+02
   4.536583e+02   3.325393e+01
   2.087853e+02   5.245485e+02
  -1.694335e+02   5.084680e+02
  -3.885904e+02   3.884972e+01
  -2.583246e+02  -2.151736e+02
  -1.046696e+02  -2.592037e+02
   1.695102e+02  -9.100028e+01
   9.124605e+01   4.891901e+00
  -9.498542e+01   1.058378e+01
  -2.422968e+02  -1.419922e+02
  -3.682620e+01  -2.851694e+02
   2.746303e+02  -1.830381e+02
   5.516857e+02   1.459919e+02
   2.078502e+02   3.094319e+02
  -2.974212e+02   2.099317e+02
  -4.494199e+02  -1.440758e+02
  -1.719674e+02  -3.677126e+02
   2.588073e+02  -3.405986e+02
   4.989324e+02  -8.624277e+01
   3.259513e+02   1.591017e+02
   1.688050e+01   3.202602e+02
  -1.032373e+02   1.503075e+02
   1.274127e+01  -1.322465e+02
   2.022310e+02  -1.849637e+02
   2.211068e+02   8.212370e+01
   4.190940e+01   4.809328e+02
  -2.606422e+02   4.578992e+02
  -2.996284e+02  -2.420592e+01
  -1.159201e+02  -2.657711e+02
   1.009773e+02  -7.855259e+01
   1.335809e+02   2.663448e+02
  -1.318225e+02   3.586141e+02
  -3.982795e+02  -9.391869e+00
  -4.380388e+02  -3.906310e+02
  -1.101821e+02  -4.601043e+02
   2.871364e+02  -2.598664e+02
   4.739248e+02   5.907258e+01
   2.480996e+02   2.837161e+02
  -8.807835e+01   1.963037e+02
  -2.581599e+02  -2.411667e+00
  -1.528035e+02  -5.562576e+01
   3.009356e+01  -2.122229e+01
   8.273223e+01   9.624419e+01
  -1.079393e+02   1.401157e+02
  -2.858317e+02  -6.854508e+01
  -1.316759e+02  -1.672566e+02
   1.152631e+02  -1.580082e+02
   2.431363e+02  -1.114252e+02
   2.106876e+02   7.259484e+01
  -4.324360e+01   2.187238e+02
  -2.520231e+02   2.616047e+02
  -2.749808e+02   1.689548e+02
  -2.221447e+02  -1.198926e+02
  -6.369713e+01  -2.776664e+02
   6.859243e+00  -2.876421e+02
   4.356955e+01  -1.140461e+02
   1.717420e+01  -6.032859e+01
   4.572573e+01  -9.094250e+01
   1.870054e+02  -8.766669e+01
   2.108898e+02   8.081663e+01
   1.391545e+02   2.176787e+02
  -1.017055e+02   2.445718e+02
  -2.047974e+02  -2.255241e+01
  -1.207913e+02  -2.562926e+02
   2.676854e+01  -1.900997e+02
   2.113898e+02  -4.470450e+01
   2.456857e+02   1.288613e+02
   1.220555e+02   2.503854e+02
  -9.083233e+01   2.285658e+02
  -1.656610e+02   5.870806e+01
  -8.967387e+01   2.011705e+01
  -1.312227e+02   4.152833e+01
  -2.299014e+02   2.697442e+01
  -2.980176e+02  -9.777061e+01
  -2.506790e+02  -2.568815e+02
   1.333152e+00  -3.867993e+02
   3.049068e+02  -2.916592e+02
   3.618632e+02  -1.513276e+02
   2.605694e+02   4.435548e+01
   4.937460e+01   2.107703e+02
  -1.030881e+02   1.527971e+02
  -4.332163e+01   1.206188e+01
   6.697960e+01  -2.665965e+01
   8.241857e+01   9.112657e+00
   5.025417e+01   9.307468e+01
  -1.205482e+02   7.651247e+01
  -9.748896e+01  -3.666677e+01
  -1.884375e+01  -1.200869e+02
   1.457683e+02   1.699287e+01
   6.208656e+01   1.573208e+02
  -6.301303e+01   2.370353e+02
  -1.886905e+02   1.068724e+02
  -2.468343e+02  -1.078117e+02
  -1.874186e+02  -2.248932e+02
  -4.501850e+00  -1.902309e+02
   8.827024e+01  -9.535012e+01
   1.521377e+02   1.530619e+01
   6.489201e+01   1.594412e+01
  -4.230955e+01  -4.217224e+01
   1.493586e+00  -4.265580e+01
   8.317083e+01  -4.349346e+01
   9.182825e+01   9.604911e+00
   6.401021e+01   5.816586e+01
  -5.390457e+01   1.497084e+01
  -3.734273e+01  -1.089962e+02
   1.400066e+02  -9.719242e+01
   2.274018e+02   3.514718e+01
   1.969723e+02   1.429774e+02
   1.063279e+01   2.096700e+02
  -1.444957e+02   1.615622e+02
  -1.812662e+02   6.743905e+01
  -1.172073e+02  -6.366624e+01
   6.810295e+01  -7.461328e+01
   5.283847e+01   2.910476e+00
  -7.121855e+01   4.324218e+01
  -1.373588e+02   2.333772e+01
  -1.646367e+02  -7.930677e+01
  -1.362886e+00  -1.534144e+02
   6.984968e+01  -1.000122e+02
   9.293245e+01  -3.926056e+01
   9.742561e-01   3.724440e+01
  -7.749100e+01  -5.507206e+01
  -6.571087e+01  -9.096490e+01
   1.321353e+02  -1.485593e+02
   1.675818e+02  -8.007072e+00
   1.782515e+02   1.369810e+02
   2.825211e+01   1.674689e+02
  -9.174373e+01   1.421851e+02
  -1.374160e+02   4.068081e+01
  -1.158125e+02  -7.737415e+01
   3.913463e+01  -4.404615e+01
   3.328879e+01  -2.103902e+01
  -8.722361e+00   1.405343e+01
  -3.199496e+01  -4.021989e+01
   1.669419e+01   1.071191e+01
   8.349576e+01  -4.147885e+00
   4.386248e+01   8.714838e+01
  -1.877131e+01   1.282352e+02
  -1.460184e+02   9.376495e+01
  -1.607287e+02  -2.328076e+01
  -1.370883e+02  -1.005888e+02
  -1.781153e+01  -1.526038e+02
   6.564943e+01  -1.330158e+02
   8.114161e+01  -5.911104e+01
   6.635245e+01   2.140713e+01
   2.163927e+01   2.118890e+01
   7.659049e+01  -1.858001e+01
   1.203228e+02   1.230592e+01
   1.112116e+01   6.301102e+01
  -4.977365e+01   9.157381e+01
  -6.553617e+01  -1.246321e+00
  -5.154799e+01  -4.082471e+01
   4.106403e+01  -6.719720e+01
   1.242576e+02  -1.246939e+02
   1.895002e+02   4.836461e+01
   7.080071e+01   1.630673e+02
  -1.339230e+02   1.772060e+02
  -2.227650e+02   7.077818e+01
  -1.892747e+02  -7.620692e+01
  -1.058619e+02  -1.463106e+02
   5.106935e+01  -8.896636e+01
   7.047819e+01  -9.133582e+01
   7.790421e+01  -9.524573e+01
   7.936954e+01  -9.697893e+01
   7.532016e+01  -2.314322e+01
   7.456754e+01   6.268307e+01
   1.252778e+02   1.235528e+02
   1.032895e+01   1.961025e+02
  -1.078599e+02   1.063674e+02
  -1.495946e+02  -3.909268e+01
  -8.250984e+01  -1.002438e+02
   5.647446e+01  -1.442669e+02
   3.490944e+01  -6.998224e+01
   7.667676e+01  -4.492187e-01
   3.876987e+01   5.789459e+01
  -4.581293e+01   5.788552e+01
  -3.157555e+01   2.608528e+01
   5.120317e+01   6.160421e+00
  -1.133805e+01   4.540587e+01
  -9.916790e+01   2.285718e+01
  -1.634510e+02   2.825132e+01
  -9.017082e+01  -6.502442e+01
  -3.797797e+01  -1.024928e+02
   1.070864e+02  -5.909988e+01
   7.723960e+01   8.461540e+01
   4.973919e+01   1.348819e+01
  -8.350779e+01   3.879689e+01
  -3.926612e+01  -5.105390e+01
  -2.498331e+01  -5.849588e+01
   4.972852e+01  -5.476282e+01
   4.247028e+01  -1.207034e+01
   5.161332e+01   6.348101e+01
   2.320485e+01   3.310533e+01
   5.257989e+01  -3.188823e+01
   8.370941e+00   7.535650e+01
   4.661391e+01   6.940723e+01
  -4.709231e+01   1.440255e+02
  -1.206475e+02   8.079146e+01
  -1.348352e+02   1.351074e+01
  -1.094421e+02  -5.336384e+01
  -1.378039e+01  -1.165747e+02
   1.144838e+02  -5.933363e+01
   3.420841e+01   6.869778e+01
  -3.495527e+01   1.335256e+01
  -9.311462e+01  -5.303323e+01
  -4.126500e+01  -7.582279e+01
   3.538994e+01  -5.510738e+01
   1.056658e+02  -7.653204e+01
   8.283375e+01   4.046589e+01
   1.754767e+01   2.098063e+01
  -4.962553e+01  -9.817266e-01
  -2.332864e+01  -4.039431e+01
   6.307016e+01  -4.790651e+01
   7.602431e+01   3.896165e+01
   2.296756e+01   9.130519e+01
  -8.632897e+01   1.399651e+02
  -1.585482e+02   6.039958e+01
  -6.705975e+01  -8.494653e+01
   2.012423e+01  -1.573933e+02
   9.586742e+01  -6.173108e+01
   8.624634e+01  -4.124065e+01
   4.482998e+01   9.888047e+01
  -2.533353e+00   9.619345e+01
  -4.570350e+01   5.032799e+01
   7.150966e+00  -3.486367e+01
  -3.140953e+01  -3.853637e+01
  -4.468865e+00   1.470271e+01
   3.129330e+00  -3.026777e+01
  -4.296211e+01  -7.373630e+01
  -1.712119e+01  -6.819938e+01
  -4.662800e+00  -8.042087e+01
   1.148354e+02   4.046091e+01
   7.503256e+01   1.380059e+01
   1.943924e+01  -2.593657e+00
  -6.622302e+01  -3.240517e+00
  -4.322459e+01   7.759917e+01
  -5.345848e+01  -2.531369e+01
   3.682965e+01  -1.121415e+01
  -2.049589e+00  -3.610389e+01
   1.319709e+01  -4.157847e+01
  -4.873641e+01   1.028122e+01
   7.816026e+01  -6.681208e+00
   1.157353e+02   2.061564e+01
   1.733873e+01   6.264907e+01
  -9.623584e+01   1.190055e+02
  -1.663365e+02   5.969246e+01
  -1.484305e+02  -4.168203e+01
  -2.360336e+01  -1.443251e+02
   3.541065e+01  -6.931742e+01
   4.125918e+01  -2.187442e+01
   4.701784e+01  -1.282178e+01
   3.068533e+00   1.416561e+01
   4.246085e+01   2.870668e+01
   5.639681e+00   2.456543e+01
   1.229858e+01   4.883130e+01
   4.756619e+00   7.674943e+01
  -1.513984e+01   4.676041e+01
  -5.367938e+01   1.399124e+01
  -5.247788e+01  -7.573308e+01
   1.743570e+01  -9.480598e+01
   7.110930e+01  -1.195697e+01
   7.991993e+01   3.177239e+01
   8.475146e+00   1.165816e+02
  -6.601155e+01   6.056247e+01
  -7.450001e+01  -8.299736e+01
  -2.041016e+01  -5.108632e+01
   1.760437e+00  -2.787663e+00
   6.120668e+01   8.635731e-01
  -5.169730e+00   1.083991e+00
  -7.687344e+01  -3.035901e+01
  -4.970926e+01  -1.617017e+01
   4.353505e+01  -4.840783e+01
   9.949173e+01  -6.935664e+00
   8.591163e+01   6.718100e+01
   3.941813e+00   8.606565e+01
  -4.631598e+01   5.333296e+01
  -2.625258e+01   4.567369e+00
  -2.085462e+01  -4.840992e+01
   2.484901e+01  -1.752870e+01
   5.692277e+01  -6.837506e+00
   1.199172e+01   2.374134e+01
   2.632555e+01   3.072563e+01
  -4.578852e+00  -8.485997e+00
  -4.049909e+01  -2.812627e+01
  -1.343221e+01  -2.770199e+01
   8.995831e+00   3.688060e+01
  -1.007190e+01  -1.878766e+01
   1.269204e+01  -6.750782e+01
   4.451953e+01  -7.643564e+01
   6.966854e+01  -1.762792e+01
   2.810977e+01   1.560465e+01
  -3.688106e+00   4.487118e+01
  -7.944419e+01   1.650158e+01
  -4.620144e+01  -2.036831e+01
  -2.861480e-01  -8.047381e+01
   3.223467e+01  -1.709529e+01
   6.174414e+01   1.525170e+00
   2.423574e+01   1.419974e+01
  -4.381657e+01   7.234301e+01
  -6.005708e+01   4.079621e+00
  -3.160418e+01  -3.404196e+01
   3.591969e+01  -5.094678e+00
   2.980681e+01  -2.024299e+01
   5.421336e+01   4.908705e+01
  -9.714759e+01   2.672097e+01
