
 $NMID
 id='ANONYMOUS ', fmtdat='(2E16.6)'
 volume=1.0
 tramp=1.0
 $END
   4.030467e+03   7.482979e+01
   2.486838e+03   2.628412e+03
  -5.523393e+02   2.689355e+03
  -2.189122e+03   9.365766e+02
  -9.392009e+02  -6.714062e+02
   5.849404e+02  -5.442418e+02
   9.538862e+02   4.133587e+02
   1.143584e+02   1.026963e+03
  -7.496883e+02   7.825607e+02
  -8.283234e+02  -7.281205e+01
  -4.259298e+02  -8.033291e+02
   2.046849e+02  -8.928273e+02
   6.141673e+02  -1.059371e+02
   2.988450e+02   7.088723e+02
  -2.832097e+02   7.545570e+02
  -5.203747e+02  -9.043475e+00
  -2.449395e+02  -6.702580e+02
   2.877023e+02  -5.828714e+02
   5.817904e+02  -1.358320e+02
   3.511943e+02   3.134912e+02
   3.896045e+01   4.513281e+02
  -2.429701e+02   2.659069e+02
  -1.188901e+02   4.262463e+01
   2.215012e+02  -8.401519e-01
   3.407907e+02   2.294243e+02
   1.372179e+02   4.405451e+02
  -5.090512e+02   3.538708e+02
  -7.659741e+02  -7.326064e+01
  -3.671394e+02  -5.717525e+02
   3.944600e+02  -4.251008e+02
   7.322580e+02   5.312309e+01
   3.457623e+02   4.835530e+02
  -2.978855e+02   5.392889e+02
  -5.802459e+02   1.679137e+02
  -3.808270e+02  -2.750673e+02
  -7.750404e+01  -4.592570e+02
   2.458387e+02  -2.900258e+02
   1.545415e+02   1.902567e+02
  -1.290721e+02   3.909957e+02
  -4.269294e+02   7.627248e+00
  -2.319713e+02  -6.265344e+02
   2.924185e+02  -6.483882e+02
   6.112382e+02  -2.632792e+01
   2.653835e+02   5.118582e+02
  -2.684036e+02   2.821459e+02
  -3.946377e+02  -3.395697e+02
   7.657720e+01  -5.426944e+02
   5.499269e+02  -1.014811e+02
   6.101114e+02   4.029597e+02
   1.790445e+02   5.970317e+02
  -3.609098e+02   3.505073e+02
  -6.095498e+02  -4.524560e+01
  -4.024437e+02  -4.060337e+02
   1.097057e+02  -3.630820e+02
   3.766860e+02  -8.063740e+01
   2.374668e+02   2.311098e+02
  -1.202323e+02   9.590518e+01
  -1.656723e+02  -1.343591e+02
   1.014455e+02  -2.115393e+02
   3.109114e+02   9.846876e+01
   1.224425e+02   2.512466e+02
  -1.812200e+02   2.237104e+02
  -3.552712e+02   4.246632e+01
  -2.308101e+02  -7.925702e+01
   3.369980e+01  -2.055061e+02
   2.263658e+02  -2.680325e+02
   3.624573e+02  -2.029504e+02
   2.771774e+02   9.869204e+01
   8.756888e+01   3.945962e+02
  -9.968067e+01   3.359804e+02
  -1.280043e+02   1.111190e+02
  -2.787377e+00  -1.227922e+00
  -3.753023e+01   1.094491e+02
  -1.689437e+02   1.035827e+02
  -2.993541e+02  -1.238158e+01
  -1.870372e+02  -2.462834e+02
   5.915868e+01  -2.616832e+02
   2.899267e+02  -7.757731e+01
   2.240057e+02   2.415285e+02
   3.190093e+01   3.327148e+02
  -2.501426e+02   1.051449e+02
  -3.713596e+02  -1.366575e+02
  -2.194650e+02  -3.346239e+02
   1.215862e+02  -3.118017e+02
   2.395690e+02  -1.153924e+02
   1.398898e+02  -3.507144e+00
   7.043843e+01  -9.187976e+00
   2.329259e+02  -7.129683e+01
   4.071584e+02   5.825052e+01
   3.407394e+02   3.041261e+02
   2.511360e+01   4.310214e+02
  -3.517203e+02   4.117715e+02
  -5.409324e+02   2.020571e+02
  -3.649202e+02  -1.314429e+02
  -3.540795e+01  -2.819677e+02
   1.428067e+02  -2.384888e+02
   4.784307e+01  -4.172306e+01
  -7.373097e+01   1.027688e+02
  -1.802550e+02  -7.490500e+00
  -4.709665e+01  -1.789549e+02
   1.349757e+02  -1.547209e+02
   1.605477e+02   6.177436e+01
  -3.706983e+01   1.506332e+02
  -2.175183e+02  -1.558217e+01
  -1.358445e+02  -2.496280e+02
   3.045245e+01  -3.558825e+02
   2.493434e+02  -2.373158e+02
   3.018010e+02   8.241690e+01
   2.536296e+02   2.530132e+02
   1.133432e+02   2.437661e+02
  -6.858009e+01   1.686711e+02
  -1.700730e+02   2.781878e+01
  -6.824862e+01  -6.632764e+01
   8.768746e+01   4.191060e+01
   8.685960e+00   1.179364e+02
  -1.383913e+02   1.062283e+02
  -1.615025e+02  -1.060892e+00
   1.326444e+01  -2.334185e+01
   9.393166e+01   1.341276e+01
   4.590195e+01   1.020297e+02
  -1.381426e+02   5.015186e+01
  -2.845426e+02  -3.237593e+01
  -2.628777e+02  -1.693678e+02
  -3.894486e+01  -2.210856e+02
   1.929763e+02  -2.277461e+02
   2.287309e+02  -1.553848e+02
   1.833320e+02   2.992409e+01
  -1.237892e+01   1.006616e+02
  -1.163282e+02   4.532922e+01
   6.094946e+01  -1.284750e+02
   1.907743e+02  -3.745626e+01
   1.923525e+02   1.048788e+02
   1.115991e+01   2.025374e+02
  -1.211176e+02   1.090184e+02
  -1.326787e+02  -2.151337e+00
  -2.237778e+01  -1.148600e+02
   6.430460e+01   4.850107e+00
   3.632810e+01   1.113665e+02
  -3.488389e+01   1.567255e+02
  -1.831026e+02   4.738247e+00
  -1.452323e+02  -1.216491e+02
  -3.215436e+01  -1.972668e+02
   1.651455e+02  -1.798339e+02
   1.649646e+02   4.566067e+00
   7.180133e+01   1.156811e+02
  -1.034241e+02   6.791915e+01
  -8.049264e+01  -1.748417e+01
   1.531964e+01   1.521779e+01
   7.796269e+01   2.065021e+01
   3.888971e+01  -1.923464e-01
  -3.853278e+01  -1.432055e+01
  -1.150751e+02  -6.051393e+01
  -3.987575e+01  -1.640973e+02
   1.430445e+02  -9.561133e+01
   1.940064e+02  -5.000054e+01
   2.226716e+02   1.113874e+02
   4.445979e+01   2.657819e+02
  -1.167901e+02   1.993929e+02
  -1.631369e+02   7.524627e+01
  -6.307275e+01  -6.663521e+01
   5.884548e+00  -6.162022e+01
  -7.032901e+01   1.171010e+01
  -7.516189e+01   2.080240e+00
  -4.198018e+01  -4.613550e+01
   6.056691e+00  -1.107981e+02
   6.246429e+01  -8.998053e+01
   9.253684e+01   1.881629e+01
  -4.529796e+01   1.161669e+02
  -1.583016e+02   6.852632e+01
  -1.925601e+02  -6.464074e+01
  -1.002391e+02  -2.038947e+02
   7.677478e+01  -2.297480e+02
   2.435971e+02  -9.549408e+01
   2.793584e+02   8.463325e+01
   1.565974e+02   1.889248e+02
   3.307421e+01   1.702849e+02
  -9.986565e+01   1.192614e+02
  -9.783819e+01   5.099934e+01
  -1.161156e+02   1.160577e+02
  -8.873318e+01   2.878636e+01
  -1.198792e+02  -1.053916e+01
  -6.932562e+01  -1.746934e+02
  -1.643060e+00  -1.855014e+02
   7.650916e+01  -1.801253e+02
   1.707080e+02  -8.031490e+00
   1.492357e+02   8.696199e+01
   2.736121e+01   1.092422e+02
  -8.081870e+01   9.673087e+01
  -6.502511e+01   1.591850e+01
  -6.014714e+00  -3.133467e+01
   2.909067e+01  -4.812043e+01
  -6.172796e+01  -1.603557e+01
  -5.453217e+01  -5.380376e+01
   7.899678e+00  -2.970585e+01
   3.412170e+01  -3.758490e+01
   1.520036e+02  -3.069303e+00
   1.404666e+02   5.731736e+01
   3.663925e+01   7.400333e+01
  -1.510000e+02   3.667912e+01
  -1.584444e+02   5.245932e+01
  -5.072644e+01  -5.682871e+01
   5.815895e+01  -6.173034e+01
   4.196425e+01   1.963880e+00
   3.317468e+01   6.255964e+01
  -9.618869e+01   5.567946e+01
  -6.681763e+01  -1.480667e+01
  -3.203240e+01  -3.634129e+01
  -2.474492e+01  -5.153671e+01
  -8.162482e+01   2.445345e+01
  -8.225780e+01   1.246402e+00
  -3.439294e+01  -5.332712e+01
   1.320864e+01  -1.111699e+02
   9.463788e+01  -1.342396e+02
   1.895105e+02  -4.046374e+01
   1.392548e+02   7.445120e+01
   7.244874e+00   1.688226e+02
  -7.183700e+01   7.946262e+01
  -8.837089e+01   1.271035e+01
  -1.871509e-01  -7.702469e+01
   1.099524e+02   5.342324e+01
   8.398205e+01   8.259047e+01
  -1.114587e+02   8.044767e+01
  -1.816589e+02   8.178243e+01
  -1.375015e+02  -1.556917e+01
  -5.918463e+01  -1.072963e+02
   2.420287e+00  -1.078988e+02
   8.264736e+01  -2.729135e+01
  -1.182933e+01   2.625248e+01
  -4.501310e+01   2.268436e+01
  -3.240976e+01  -1.198723e+02
   1.104912e+02  -1.440212e+02
   2.058358e+02  -6.947644e+01
   1.533182e+02   1.178312e+02
  -4.856029e+01   2.484532e+02
  -9.846023e+01   1.699799e+02
  -1.741514e+02  -1.629973e+01
  -7.249324e+01  -1.588481e+02
  -2.120970e-01  -6.598321e+01
   2.353916e+01  -9.316401e+00
   9.021466e+01   6.019000e+01
   4.063420e+01   1.521041e+01
   2.784359e+01  -4.462422e+01
   8.560487e+00  -1.502761e+00
   6.260968e+01   7.846995e+01
   9.922629e+00   1.371838e+02
  -3.569880e+01   4.706866e+01
  -9.623798e+01  -1.201883e+01
  -1.124469e+02  -9.221767e+01
  -1.062471e+01  -7.579122e+00
   8.224096e+01  -2.291146e+01
   9.347020e+01  -1.614488e+01
   6.343606e+01  -1.067533e+01
   3.331464e+00  -1.248823e+00
  -1.947419e+01   5.531749e+01
   3.644056e+01   4.268988e+00
   4.654013e+01  -8.296367e+00
  -9.574331e+01   9.218054e+00
  -9.787806e+01  -2.168687e+01
  -4.545356e+01  -9.257256e+01
   6.545766e+01  -8.812347e+01
   1.475476e+02  -7.507892e+01
   1.467858e+02   7.465760e+00
   4.005101e+01   1.380650e+02
  -8.471704e+01   1.654628e+02
  -1.013514e+02   4.471324e+01
  -7.717926e+01  -4.514871e+01
   2.511518e+01  -5.348663e+01
   2.267773e+01   3.574999e+00
   2.164773e+01   4.958360e+01
  -2.584817e+01  -7.183195e+01
   2.102941e+01  -8.672700e+01
  -4.012641e+00  -7.336555e+01
   8.798222e+01  -2.092584e+00
   6.202765e+01   9.990496e+01
   6.587938e+01   1.095697e+02
  -4.662927e+01   6.898572e+01
  -1.088663e+02  -5.498243e+01
  -6.321079e+01  -8.145377e+01
   7.128840e+01  -5.484911e+01
   1.069264e+02   7.657485e+01
   3.069517e+00   7.278590e+01
  -1.267043e+01   2.047650e+01
  -6.450771e+00   1.545414e+01
   4.838986e+01  -3.266294e+00
   6.641292e+01   2.767368e+01
  -4.617732e+00   1.514105e+01
  -5.537371e+01   5.145772e+01
  -1.756578e+02   2.600499e+01
  -1.142175e+01  -3.441793e+01
  -1.852247e+01  -1.017130e+02
   7.895484e+01  -8.715221e+01
   5.867245e+01   3.443764e+01
  -2.566156e+01   3.707682e+01
  -6.400241e+01   1.577922e+01
  -1.944541e+01  -3.062844e+01
  -5.938263e+01  -6.248129e+01
  -5.125419e+01  -5.302748e+01
   3.831615e+01   1.843180e+01
   3.103120e+01   1.934134e+01
   2.459688e+01  -3.694838e+01
   2.321208e+01  -2.496387e+01
  -4.216889e+00  -5.891349e-01
  -1.440838e+01   4.281864e+01
   1.024757e+01   5.353453e+01
  -2.244876e+01   4.133469e+01
   5.668825e+00  -7.276723e+01
  -4.286890e+00  -6.847441e+01
   2.251034e+01  -3.741487e+01
   4.720309e+01   3.414083e+01
  -3.480248e+01   6.794335e+01
  -7.051142e+01   3.955543e+00
  -1.346739e+02  -3.704939e+00
  -2.622749e+01  -5.001520e+01
   2.353607e+01  -5.059819e+01
   7.254185e+01  -4.846412e+01
   4.845474e+01   3.570810e+01
  -2.388016e+01  -2.220827e+01
   5.941307e+00  -8.383545e+00
   6.154061e+01  -3.193665e+01
   7.064642e+01   1.427799e+01
