
 $NMID
 id='ANONYMOUS ', fmtdat='(2E16.6)'
 volume=1.0
 tramp=1.0
 $END
   3.513489e+03  -1.143221e+02
   2.115321e+03   1.986462e+03
  -5.202545e+02   2.263682e+03
  -1.687408e+03   1.119253e+03
  -8.827604e+02  -4.554131e+02
   4.578292e+02  -5.759832e+02
   6.983394e+02   2.854034e+02
   1.090075e+02   7.992452e+02
  -5.902013e+02   7.528706e+02
  -8.162767e+02  -2.353845e+01
  -3.876339e+02  -6.436116e+02
   1.033659e+02  -7.667640e+02
   5.567913e+02  -1.572254e+02
   3.499666e+02   6.358985e+02
  -1.339418e+02   6.207443e+02
  -5.625418e+02   1.468129e+01
  -2.429838e+02  -4.872501e+02
   2.788469e+02  -4.553302e+02
   4.421837e+02  -1.985210e+02
   4.074619e+02   3.003382e+02
   3.275068e+01   3.529596e+02
  -2.248342e+02   2.333735e+02
  -2.258035e+02   5.537979e+01
   5.208018e+01  -4.078197e+01
   2.652009e+02   1.125080e+02
   1.729819e+02   2.992818e+02
  -3.034897e+02   3.284915e+02
  -6.691324e+02  -4.244533e+01
  -3.567535e+02  -4.382515e+02
   3.728048e+02  -3.031400e+02
   6.112369e+02   4.920859e+01
   3.274741e+02   3.543074e+02
  -2.311280e+02   4.373258e+02
  -5.067780e+02   2.342989e+02
  -3.509458e+02  -1.632161e+02
  -9.375248e+01  -4.035718e+02
   8.731725e+01  -2.809927e+02
   8.439740e+01   1.142717e+02
  -1.318211e+02   3.537504e+02
  -2.979752e+02  -2.877207e+01
  -1.594789e+02  -5.998905e+02
   2.870261e+02  -5.980889e+02
   4.708329e+02   4.567205e+01
   2.089268e+02   4.878539e+02
  -2.038654e+02   2.579297e+02
  -2.911294e+02  -2.197608e+02
   5.920801e+01  -4.534515e+02
   4.452624e+02  -1.488177e+02
   5.240697e+02   3.511411e+02
   1.905417e+02   5.031516e+02
  -3.086640e+02   2.467911e+02
  -5.186602e+02  -1.304475e+01
  -3.618652e+02  -2.832385e+02
   7.039322e+01  -3.175146e+02
   4.161750e+02  -9.439015e+01
   2.247687e+02   1.235810e+02
  -7.883379e+01   7.717880e+01
  -1.150571e+02  -4.603943e+01
   1.354193e+02  -7.253561e+01
   2.916059e+02   5.166031e+01
   1.458973e+02   1.849777e+02
  -1.268504e+02   2.468217e+02
  -3.149471e+02   1.092640e+02
  -2.137503e+02  -7.553875e+01
   2.189895e+01  -2.584539e+02
   2.135460e+02  -3.209624e+02
   2.958682e+02  -1.910332e+02
   3.360834e+02   1.324155e+02
   1.300472e+02   3.691598e+02
  -1.008350e+02   3.317757e+02
  -1.271648e+02   1.212204e+02
  -4.924124e+01   1.073275e+01
  -4.599119e+01   1.009459e+02
  -1.756986e+02   1.120156e+02
  -2.389021e+02  -3.225260e+01
  -1.124776e+02  -2.200362e+02
   6.265874e+01  -1.643022e+02
   1.747895e+02  -2.787425e+01
   1.236057e+02   2.032660e+02
  -7.758577e+00   2.457619e+02
  -2.546875e+02   8.646941e+01
  -3.288056e+02  -1.467825e+02
  -1.781768e+02  -2.689309e+02
   1.055874e+02  -2.763782e+02
   1.932416e+02  -1.620065e+02
   1.018161e+02  -5.703824e+01
   9.460338e+01   4.873584e+00
   2.255311e+02  -5.245911e+01
   3.489600e+02   6.479845e+01
   2.624647e+02   2.296189e+02
   2.889475e+01   3.999248e+02
  -2.879628e+02   3.731369e+02
  -3.783490e+02   2.293396e+02
  -2.688557e+02  -1.198439e+02
  -4.460404e+01  -2.817737e+02
   1.149036e+02  -2.044234e+02
   2.506238e+01  -4.418568e+01
  -8.539057e+01   8.344746e+01
  -1.298124e+02  -5.661231e+01
  -3.614975e+01  -1.301711e+02
   1.257454e+02  -1.546545e+02
   1.397598e+02   7.852057e+01
  -5.966281e+01   1.585649e+02
  -2.520301e+02   5.701991e+01
  -1.578112e+02  -2.325601e+02
   5.718400e+01  -3.401111e+02
   2.511519e+02  -1.851306e+02
   3.344395e+02   9.703887e+01
   2.388465e+02   2.399626e+02
   6.388071e+01   2.836811e+02
  -1.077503e+02   1.359455e+02
  -1.535615e+02  -3.930191e+01
  -4.124590e+01  -4.967949e+01
   1.085063e+02   7.260618e+00
   2.742209e+00   1.349919e+02
  -1.350978e+02   8.541534e+01
  -1.714145e+02  -7.365017e+00
  -2.084255e+01  -6.864305e+01
   6.117125e+01  -1.977280e+01
   5.106848e+01   5.475102e+01
  -1.087265e+02   1.300348e+02
  -2.761212e+02   2.838599e+01
  -2.390422e+02  -1.437946e+02
  -4.440473e+01  -2.674906e+02
   1.900834e+02  -2.321220e+02
   2.229086e+02  -1.464269e+02
   1.759197e+02   4.991033e+01
  -1.157201e+01   5.032803e+01
  -4.156196e+01   4.395925e+01
   1.768249e+01  -7.945277e+01
   1.662455e+02  -5.380470e+01
   1.632896e+02   7.034232e+01
   6.501784e+01   1.703089e+02
  -8.521002e+01   1.262004e+02
  -1.176625e+02   9.850092e+00
  -5.937699e+00  -3.766036e+01
   9.905077e+01   1.149405e+01
   5.499301e+01   1.244201e+02
  -2.170333e+01   1.331894e+02
  -1.605903e+02   1.025341e+01
  -1.812251e+02  -7.318121e+01
  -5.868621e+01  -1.684745e+02
   1.207836e+02  -1.357211e+02
   1.823764e+02  -8.224368e+00
   5.586655e+01   9.198217e+01
  -6.565747e+01   6.978651e+01
  -7.529019e+01   4.165457e+00
   4.084639e+01  -3.275134e-01
  -1.721198e+00   1.971070e+01
  -7.380842e+00   1.769996e+01
  -1.291221e+02  -1.786331e+01
  -7.169517e+01  -6.624193e+01
  -1.440199e+01  -1.508195e+02
   1.334765e+02  -1.156590e+02
   2.233933e+02  -2.771617e+01
   2.004561e+02   1.381960e+02
   2.424410e+01   2.405713e+02
  -7.513126e+01   1.219850e+02
  -1.429080e+02   1.611721e+01
  -5.238955e+01  -2.092649e+01
  -2.428649e+01  -2.984340e+01
   1.415355e+01   6.337590e+00
  -7.856188e+01   2.666258e+01
  -2.875013e+01  -7.352525e+01
   5.638302e+01  -6.589381e+01
   6.468776e+01  -2.293731e+01
   8.677030e+01   2.740609e+01
  -4.059427e+01   1.148702e+02
  -1.319712e+02   1.035469e+02
  -1.586717e+02  -4.667779e+01
  -6.645367e+01  -1.878528e+02
   8.804097e+01  -2.402591e+02
   2.590108e+02  -8.957031e+01
   2.081523e+02   8.706192e+01
   9.018571e+01   1.668120e+02
  -4.057247e+01   9.656431e+01
  -6.105127e+01   5.715294e+01
  -8.901071e+01   3.892041e+01
  -5.348096e+01   1.026288e+02
  -1.093019e+02   6.351621e+01
  -9.154822e+01  -4.140303e+01
  -7.668363e+01  -1.200859e+02
  -2.428827e+01  -2.042924e+02
   9.407854e+01  -1.172044e+02
   1.573777e+02   3.485898e+01
   1.338571e+02   1.596525e+02
   3.418536e+01   1.106224e+02
  -3.574479e+01   6.653226e+01
  -2.747771e+01  -3.581333e+01
  -5.645352e+01  -2.158474e+01
  -1.102929e+01  -2.298249e+01
   3.213112e+00  -2.284083e+01
  -6.721787e+01  -1.993260e+01
  -3.223866e+01  -6.505079e+00
   5.634180e+01  -4.255623e+01
   1.405730e+02  -2.908734e+01
   1.245324e+02   6.741349e+01
   8.166336e+00   9.373376e+01
  -1.146733e+02   5.201012e+01
  -1.148603e+02  -1.793922e+01
  -5.292998e+01  -2.901111e+01
   3.541663e+01   3.862675e+00
   5.521968e+01   2.629324e+01
  -1.449945e+01   5.412399e+01
  -3.489921e+01   5.944231e+01
  -3.156590e+01   2.153935e+01
  -4.471904e+01  -2.543125e+01
  -3.531620e+01  -2.226563e+01
  -6.996515e+01   4.201970e+01
  -9.706646e+01   3.117730e+01
  -4.716006e+01  -9.457149e+01
   2.708425e+01  -1.482461e+02
   1.277166e+02  -1.262837e+02
   1.457302e+02  -2.349010e+01
   1.226972e+02   1.174607e+02
  -1.151193e+01   1.129603e+02
  -1.285762e+02   3.791193e+01
  -2.383550e+01   7.222104e+00
   7.474881e+01  -4.846501e+01
   1.257187e+02  -5.227570e+00
   4.516115e+01   1.010232e+02
  -1.032969e+02   7.008029e+01
  -1.603257e+02   3.090662e+01
  -1.273239e+02  -2.577986e+01
   7.173013e-01  -5.708561e+01
   3.106283e+01  -5.225801e+01
   2.388757e+01   4.864632e+01
  -1.044227e+02   4.620021e+01
  -5.301492e+01  -6.842239e+01
  -3.874942e+00  -5.809751e+01
   8.823333e+01  -1.375948e+02
   1.170388e+02  -6.551693e+01
   1.384095e+02   6.071255e+01
   1.061310e+01   1.632751e+02
  -6.895045e+01   1.175129e+02
  -6.197453e+01  -2.628133e+01
  -3.055948e+01  -1.402746e+02
  -1.535460e+01  -9.485864e+01
  -7.976413e+00   2.266128e+01
  -4.016661e+00   1.699714e+01
   3.886741e+01  -1.085853e+01
   2.329982e+01  -5.691649e+01
   2.507270e+01   1.659830e+01
   4.349960e+01   8.895664e+01
   4.587139e+01   1.090172e+02
  -4.813399e+01   7.942813e+01
  -1.259560e+02  -3.720680e+01
  -1.333919e+02  -3.534671e+01
  -3.413117e+01  -2.548789e+01
   3.606694e+01  -1.051287e+01
   2.968307e+01  -5.047458e+01
  -1.496520e+01  -8.940029e+00
  -6.712105e+01  -1.091931e+01
  -5.014258e+01  -3.331573e+00
   5.462265e+01  -4.623027e+01
   1.430232e+01  -2.021282e+01
  -5.353761e+01  -1.943550e+01
  -6.382570e+01  -7.148377e+00
  -1.188989e+01  -8.582778e+01
   7.656859e+01  -1.309986e+02
   1.574611e+02  -5.648861e+01
   1.397246e+02   7.362303e+01
   2.759644e+01   1.725225e+02
  -6.115669e+01   1.314674e+02
  -9.395544e+01   6.053683e+01
  -6.440476e+01  -4.876883e+01
  -4.301496e+01  -7.733337e+00
  -5.311853e+01   1.024352e+00
  -7.674353e+01   1.357184e+01
  -4.449559e+01  -5.948074e+01
  -1.216840e+01  -6.738200e+01
   2.641864e+01  -6.444874e+01
   7.241819e+01   2.449780e+01
   5.864986e+01   8.889363e+01
  -2.273019e+01   9.868571e+01
  -7.957546e+01   1.777066e+01
  -1.401777e+02  -4.739777e+01
  -7.166005e+00  -7.263497e+01
   1.033062e+02  -2.406163e+01
   9.463814e+01   6.149797e+01
   2.853646e+00   6.636954e+01
  -2.840038e+01   2.319590e+01
  -6.939453e+01  -5.016419e+01
   3.488695e+01  -2.878403e+01
   8.947383e+01  -1.461530e+00
  -3.994737e+01   7.583134e+00
  -1.453368e+02   5.796429e+01
  -9.291456e+01   8.857675e+01
  -6.683958e+01   2.341329e+01
   1.380196e+01  -5.334488e+01
   4.619326e+01  -8.272897e+01
  -1.923438e+00   3.235506e-01
   4.330687e+01   3.843468e+01
   1.712396e+01   3.946662e+01
  -5.355896e+01  -1.122483e+01
  -7.635713e+01  -4.202147e+01
   7.481533e+00  -3.803032e+01
   8.940848e+00   1.634840e+01
  -3.175612e+00   4.271348e+00
  -6.961908e+00   1.543783e+01
  -2.979614e+00  -3.776893e+01
   2.326964e+01  -8.290649e+00
   2.115596e+01   5.751240e+01
  -8.419586e+00   9.900676e+01
  -4.669582e+01   2.675997e+01
  -3.681526e+01  -5.393367e+01
   1.063574e+01  -2.900810e+01
   3.996737e+01  -2.878682e+01
   2.017307e+01   7.067692e+01
  -2.254343e+01   9.940309e+01
  -6.833843e+01   3.831749e+01
  -6.454518e+01  -1.216917e+01
  -7.570511e+01   6.649219e+00
   2.041224e+01  -5.419889e+01
   8.393496e+01  -4.344319e+01
   4.032702e+01  -1.986965e+01
  -3.541106e+01   2.001216e+01
  -5.377174e+01   9.626983e+00
   5.124076e+00  -4.549030e+01
   5.255308e+01   5.502201e+00
