
 $NMID
 id='ANONYMOUS ', fmtdat='(2E16.6)'
 volume=1.0
 tramp=1.0
 $END
  -4.743351e+03   6.014809e+01
  -2.816111e+03  -2.917491e+03
   8.778172e+02  -3.089030e+03
   2.337678e+03  -1.039660e+03
   1.139722e+03   8.229631e+02
  -6.735253e+02   7.240449e+02
  -1.035633e+03  -5.346360e+02
  -3.109906e+01  -1.263771e+03
   1.078838e+03  -9.635268e+02
   1.139885e+03   6.798464e+01
   4.952067e+02   1.051306e+03
  -2.674893e+02   8.878880e+02
  -7.600994e+02   1.462047e+02
  -3.832023e+02  -9.141228e+02
   3.001265e+02  -8.107579e+02
   7.106727e+02  -4.630458e+01
   3.436343e+02   7.524941e+02
  -3.337922e+02   7.394697e+02
  -7.230255e+02   1.296753e+02
  -3.849599e+02  -3.962073e+02
  -1.677880e+01  -4.578800e+02
   2.482849e+02  -3.101127e+02
   2.569492e+02   1.809110e+01
  -1.339804e+02   1.210105e+02
  -3.762380e+02  -1.776513e+02
  -2.601904e+02  -5.566880e+02
   4.618163e+02  -5.350071e+02
   9.547515e+02  -1.945643e+01
   5.041794e+02   5.968945e+02
  -4.207976e+02   5.145342e+02
  -8.685541e+02  -7.740895e+00
  -4.555532e+02  -6.095918e+02
   3.305415e+02  -6.102170e+02
   7.390392e+02  -2.585719e+02
   5.101406e+02   2.880014e+02
   6.198944e+01   5.722849e+02
  -2.695678e+02   3.564110e+02
  -2.039837e+02  -2.164819e+02
   1.974192e+02  -5.192321e+02
   5.536758e+02  -3.807082e+00
   3.264527e+02   7.389595e+02
  -3.419441e+02   8.468690e+02
  -6.994522e+02   2.375224e+01
  -3.189766e+02  -6.375168e+02
   3.137714e+02  -4.101051e+02
   4.594329e+02   3.717949e+02
  -1.164857e+02   6.528617e+02
  -6.598754e+02   1.983988e+02
  -7.054571e+02  -4.340313e+02
  -1.887049e+02  -6.664436e+02
   4.365518e+02  -4.275077e+02
   6.259680e+02   4.278421e+01
   4.034619e+02   4.569568e+02
  -1.673111e+02   4.249754e+02
  -4.642562e+02   4.699264e+01
  -2.445421e+02  -2.413490e+02
   1.382472e+02  -1.387846e+02
   1.650807e+02   1.662493e+02
  -1.871427e+02   2.723578e+02
  -3.866005e+02  -6.278262e+01
  -2.003403e+02  -4.110684e+02
   2.079358e+02  -3.904465e+02
   3.774344e+02  -1.024802e+02
   2.178162e+02   1.079512e+02
  -1.446828e+00   2.447875e+02
  -2.387820e+02   3.204924e+02
  -3.331662e+02   2.291463e+02
  -2.794838e+02  -1.956410e+02
  -7.453324e+01  -5.179338e+02
   1.147711e+02  -4.427173e+02
   1.517366e+02  -1.512654e+02
   5.893933e+01   5.290552e+01
   4.944420e+01  -2.086741e+01
   2.500046e+02  -1.239490e+02
   3.168217e+02   4.933511e+01
   1.835726e+02   2.837025e+02
  -8.867264e+01   2.679904e+02
  -2.780580e+02   2.048301e+01
  -2.346234e+02  -2.399776e+02
  -1.471805e+00  -3.061837e+02
   3.278627e+02  -1.181965e+02
   4.092491e+02   2.311205e+02
   2.360346e+02   3.644132e+02
  -6.852854e+01   3.904101e+02
  -2.381939e+02   1.711524e+02
  -2.008071e+02   3.896430e+00
  -1.507655e+02  -7.309403e+00
  -2.641920e+02   6.940960e+01
  -4.237662e+02  -6.105448e+01
  -3.628103e+02  -3.063281e+02
  -6.958025e+01  -4.794695e+02
   3.286566e+02  -4.984277e+02
   5.085197e+02  -2.802801e+02
   3.732512e+02   7.863899e+01
   6.885757e+01   3.506046e+02
  -1.823827e+02   2.795360e+02
  -1.108972e+02   4.533451e+01
   9.931018e+01  -1.224200e+02
   2.863233e+02   6.435172e+00
   9.528729e+01   2.446190e+02
  -1.514909e+02   2.357009e+02
  -2.041444e+02  -9.205962e+01
  -3.774691e+01  -1.810702e+02
   2.317651e+02   1.502161e+01
   2.092388e+02   2.875886e+02
  -8.573334e+00   4.302570e+02
  -2.591192e+02   1.936382e+02
  -3.505474e+02  -9.050660e+01
  -2.975664e+02  -2.545915e+02
  -7.447820e+01  -2.947940e+02
   1.237951e+02  -2.117396e+02
   1.726188e+02  -4.088230e+01
   5.103261e+01   5.918995e+01
  -8.396436e+01  -1.537645e+01
  -4.356098e+01  -1.386282e+02
   1.546396e+02  -1.631173e+02
   2.082490e+02  -3.637094e+01
   1.295918e+02   1.264047e+02
  -1.453755e+02   5.465498e+01
  -9.918508e+01  -2.124939e+01
   1.243499e+02  -8.135229e+01
   2.887165e+02  -2.279104e+01
   2.936594e+02   1.470705e+02
   6.145755e+01   2.457407e+02
  -1.918938e+02   2.599418e+02
  -2.771763e+02   1.621590e+02
  -1.715953e+02  -4.851648e+01
   2.176574e+01  -1.045469e+02
   5.547602e+01  -3.237584e-01
  -2.755453e+01   1.018033e+02
  -2.197432e+02   7.650945e+01
  -2.290820e+02  -1.124075e+02
  -2.094796e+01  -2.322084e+02
   1.161480e+02  -2.050053e+02
   1.777131e+02  -2.241955e+01
   4.110846e+01   3.209597e+01
  -5.720400e+01  -1.757038e+01
  -5.770916e+01  -1.037717e+02
   7.998004e+01  -1.206261e+02
   2.169772e+02  -3.814488e+00
   2.251106e+02   1.509282e+02
   1.877240e+01   1.927272e+02
  -1.788435e+02   2.062583e+02
  -2.498044e+02   9.345512e+01
  -6.664058e+01  -1.069033e+02
   4.179455e+01  -1.203331e+02
   7.353283e+01  -5.223498e+01
   1.835527e+01   2.124992e+01
  -1.114646e+01   3.051989e+01
   5.066502e+01   1.217066e+01
   3.895909e+01  -5.307232e-01
   6.996294e+01   8.594798e+01
   2.626688e+01   1.437342e+02
  -1.004164e+02   1.508800e+02
  -2.221928e+02   4.582546e+00
  -2.284899e+02  -1.198057e+02
  -6.841709e+01  -2.992130e+02
   1.052419e+02  -1.435630e+02
   1.707262e+02  -2.771141e+01
   1.037561e+02   4.400065e+01
   3.033161e+01   4.163346e+01
   8.115627e+01  -1.712410e+01
   8.872964e+01   3.365857e+01
   2.641176e+01   5.145216e+01
  -7.987169e+01   7.160219e+01
  -1.324002e+02   7.782211e+00
  -8.052365e+01  -6.966860e+01
   1.242162e+01  -1.361181e+02
   1.643932e+02  -8.544481e+01
   2.037352e+02   7.480196e+01
   1.410735e+02   1.992150e+02
  -9.598278e+01   2.378951e+02
  -2.997766e+02   1.359435e+02
  -3.029113e+02  -6.560099e+01
  -1.466828e+02  -1.903846e+02
   1.237951e+01  -1.940463e+02
   1.066843e+02  -1.550404e+02
   5.149584e+01  -9.719591e+01
   1.187578e+02  -1.230010e+02
   1.203706e+02  -8.768577e+01
   1.498667e+02   5.016349e+01
   1.695531e+02   1.498106e+02
   2.335942e+01   2.290307e+02
  -9.894390e+01   1.481859e+02
  -1.966338e+02   1.359725e+01
  -1.465269e+02  -1.683164e+02
  -3.561421e+01  -1.552144e+02
   9.406582e+01  -1.056669e+02
   9.176787e+01   5.395939e+00
  -7.250982e+00   7.298580e+01
   2.248925e+01   3.194198e+01
   6.327098e+01   5.168754e+01
   9.730620e+01   3.223653e+01
   5.438314e+01   5.357034e+01
  -8.610102e+01   2.898802e+01
  -1.693108e+02  -1.864537e+01
  -1.444124e+02  -4.955991e+01
   1.615002e+00  -1.117593e+02
   1.680750e+02  -5.012498e+01
   1.612533e+02  -1.581677e+01
   4.349992e+01   2.881081e+01
  -7.523035e+01   6.217447e+01
  -1.074181e+02  -1.934703e+01
  -1.222707e+01  -7.986304e+01
   2.865035e+01  -1.173962e+02
   7.758552e+01  -2.765306e+01
   6.215455e+01   8.974967e+01
   4.326972e+01   3.753875e+01
   9.375762e+01  -2.488927e+01
   9.831616e+01  -4.042346e+01
   4.491983e+01   6.327548e+00
  -7.362276e+01   1.625435e+02
  -1.019960e+02   1.859957e+02
  -1.719054e+02   8.303682e+01
  -1.250998e+02  -7.024430e+01
  -2.022011e+01  -1.244415e+02
   1.111334e+02  -6.087787e+01
   8.546921e+01   5.783300e+01
  -4.966999e+01   4.125778e+01
  -1.668409e+02  -5.165238e+01
  -1.063035e+02  -1.203280e+02
   3.532567e+01  -1.029312e+02
   2.262812e+02  -5.615243e+01
   2.051932e+02   5.430052e+01
   3.398455e+01   1.045231e+02
  -5.424625e+01   1.058062e+02
  -7.992058e+01   2.439028e+01
   2.698078e+01  -3.923348e+01
   9.990014e+01   1.027321e+01
   3.153254e+01   9.520631e+01
  -1.550577e+02   1.915138e+02
  -2.361896e+02   8.147765e+01
  -1.713310e+02  -1.554655e+02
  -4.416155e+00  -2.551516e+02
   1.305799e+02  -2.179185e+02
   1.240970e+02  -1.085214e+01
   1.167215e+02   1.495635e+02
   4.271387e+01   1.372141e+02
  -7.601209e+01   3.250443e+01
  -5.081519e+01  -1.009159e+02
  -2.011309e+01  -1.551100e+01
  -1.730182e+01   7.729277e+01
  -1.984343e+01  -7.918424e-01
  -1.718021e+01  -7.543727e+01
  -2.765002e+01  -9.121419e+01
   3.997017e+01  -5.611438e+01
   1.398256e+02   3.674972e+01
   1.386375e+02   5.703923e+01
   5.690530e+01   5.348571e+01
  -6.992419e+01   4.511279e+01
  -9.542795e+01   1.897172e+00
  -3.410401e+01  -3.481415e+00
   3.138000e+00   1.555984e+01
   4.200168e+01  -4.483954e+01
   2.282881e+01   3.527741e+01
  -1.525633e+01   4.826000e+00
   5.394702e+01   5.468442e+00
   1.176012e+02   3.097864e+01
   1.300818e+00   9.257006e+01
  -1.418981e+02   1.271685e+02
  -2.275245e+02   1.212993e+01
  -1.620240e+02  -7.142639e+01
   9.532227e+00  -1.700814e+02
   1.076801e+02  -1.857606e+02
   1.428957e+02  -7.638146e+01
   4.738684e+01   3.426153e+01
  -2.290390e+01   6.201528e+01
  -4.225419e+01   3.902423e+01
   2.689908e+01  -2.419289e+01
   3.170846e+01   5.998068e+01
   2.073605e+00   1.102545e+02
  -3.981543e+01   9.979537e+01
  -1.010891e+02  -2.887444e+01
  -4.405525e+01  -1.348269e+02
  -1.677020e+01  -1.706939e+02
   1.145104e+02  -6.236605e+00
   1.530470e+02   9.326563e+01
  -1.175677e+01   1.547960e+02
  -9.070234e+01   5.117065e+01
  -1.181706e+02  -2.535201e+01
  -7.053139e+01  -4.215702e+01
   3.185772e+01  -7.306372e+01
   4.157148e+01  -5.006987e+01
  -2.799288e+01  -4.419309e+01
  -4.761448e+01   3.614184e+01
  -2.796712e+00  -5.025774e+00
   5.733612e+01  -4.928566e+01
   1.163416e+02  -7.205646e+01
   5.217033e+01   3.795752e+00
  -1.227320e+01   1.199301e+02
  -9.827913e+01   7.714268e+01
  -3.231083e+01  -2.457255e+01
   3.415408e+01  -6.278158e+01
   6.199772e+01  -3.662060e+01
   7.097429e+01   1.589195e-02
   4.031141e+01   5.834565e+01
  -4.288662e+00   2.385642e+01
  -8.099271e+01   7.389878e+00
  -5.494292e+01  -1.840972e+01
   1.127939e+01  -3.038288e+01
  -2.467401e+00  -8.071408e+00
   1.071079e+01   5.433590e+01
  -1.072819e+01  -4.034343e+01
   4.702086e+01  -6.989837e+01
   5.311858e+01   1.698995e+01
   4.958682e+01   1.639305e+01
  -1.360183e+01   8.806848e+01
  -4.261264e+01   4.689684e+01
  -6.116541e+01  -7.467613e+00
  -1.288552e+01  -5.446270e+01
   9.188257e+01  -9.218098e+00
   9.503984e+01   1.820963e+01
   4.552849e+01   4.550822e+01
  -9.175514e+01   3.325877e+01
  -9.520317e+01   2.403815e+01
  -4.510259e+01   1.699047e+01
   3.929813e+01   3.833333e+01
   2.090315e+01   2.754741e+01
  -4.883371e+01   3.097535e+01
  -1.074460e+02   1.010958e+01
