
 $NMID
 id='ANONYMOUS ', fmtdat='(2E16.6)'
 volume=1.0
 tramp=1.0
 $END
   4.724322e+03  -5.169890e+01
   2.605694e+03   2.777574e+03
  -7.362329e+02   2.766803e+03
  -2.242065e+03   9.667076e+02
  -9.477457e+02  -7.490931e+02
   6.559416e+02  -6.811724e+02
   9.902842e+02   4.046324e+02
   1.282933e+01   1.168084e+03
  -8.575704e+02   7.211774e+02
  -9.044501e+02  -1.879977e+02
  -4.664941e+02  -8.770030e+02
   2.655221e+02  -9.866734e+02
   6.931865e+02  -1.414105e+02
   4.435751e+02   6.874554e+02
  -2.946413e+02   6.647122e+02
  -6.817319e+02  -7.040125e+01
  -2.811261e+02  -6.923385e+02
   3.976885e+02  -5.361406e+02
   6.103572e+02  -3.585047e+01
   3.516893e+02   3.846834e+02
  -3.304359e+01   4.459038e+02
  -2.210154e+02   3.027648e+02
  -3.061927e+02  -4.497184e+01
   1.060386e+02  -1.492242e+02
   4.047887e+02   1.672376e+02
   2.167522e+02   4.167623e+02
  -5.078407e+02   4.028274e+02
  -9.014925e+02  -1.422463e+02
  -4.186137e+02  -5.811190e+02
   4.446902e+02  -5.726876e+02
   8.139493e+02  -3.044212e+01
   3.804441e+02   4.768752e+02
  -2.401885e+02   5.208085e+02
  -5.436942e+02   2.048100e+02
  -3.330865e+02  -2.405281e+02
  -5.746400e+01  -3.869407e+02
   1.878327e+02  -2.331062e+02
   1.036690e+02   2.374917e+02
  -1.906648e+02   4.814490e+02
  -4.766527e+02  -2.616619e+01
  -2.849086e+02  -7.099824e+02
   3.269697e+02  -7.286621e+02
   6.957753e+02  -2.930259e+01
   2.690788e+02   5.890578e+02
  -3.356275e+02   3.655274e+02
  -4.391372e+02  -3.373990e+02
   9.883662e+01  -6.134606e+02
   6.438944e+02  -1.707723e+02
   6.380560e+02   4.710494e+02
   1.743592e+02   6.689958e+02
  -3.800755e+02   3.175513e+02
  -6.392766e+02  -5.840606e+01
  -4.053816e+02  -3.418232e+02
   1.322139e+02  -3.708058e+02
   4.401495e+02  -7.763424e+01
   2.986017e+02   1.801439e+02
  -1.114977e+02   1.425922e+02
  -1.507674e+02  -1.168242e+02
   1.555482e+02  -2.168777e+02
   3.361935e+02   5.894768e+01
   1.671155e+02   3.125620e+02
  -2.005289e+02   2.846623e+02
  -3.252954e+02   1.177894e+02
  -1.783893e+02  -3.685828e+01
   1.671586e+01  -2.461739e+02
   2.375454e+02  -3.554310e+02
   3.986376e+02  -2.551493e+02
   3.131685e+02   1.633089e+02
   7.493433e+01   4.491952e+02
  -6.401398e+01   4.055463e+02
  -1.295979e+02   1.493552e+02
  -5.657758e+01   1.667207e+01
  -1.535913e+02   1.191194e+02
  -2.236782e+02   1.552178e+02
  -2.789824e+02  -7.885684e+01
  -1.579271e+02  -2.918186e+02
   5.566449e+01  -2.418333e+02
   2.031668e+02  -2.984923e+01
   1.839629e+02   2.882046e+02
  -1.267750e+01   3.218275e+02
  -2.839944e+02   7.813005e+01
  -3.867397e+02  -1.814778e+02
  -1.768284e+02  -3.501865e+02
   9.904732e+01  -3.162282e+02
   1.959285e+02  -1.404524e+02
   1.545600e+02  -3.158657e+00
   8.452935e+01  -6.566445e+01
   2.592484e+02  -8.928632e+01
   4.388324e+02   4.109213e+01
   3.238935e+02   2.980006e+02
  -6.148037e+00   4.704858e+02
  -4.003764e+02   4.231997e+02
  -4.966435e+02   2.141949e+02
  -3.380221e+02  -1.013099e+02
  -4.695698e+01  -3.602452e+02
   1.248322e+02  -2.274694e+02
   9.768052e+01   2.874877e+00
  -8.940789e+01   1.447178e+02
  -1.811919e+02   2.496782e+01
  -5.401698e+01  -2.012391e+02
   1.526707e+02  -1.734121e+02
   1.840571e+02   7.848494e+01
   1.212640e+01   1.732655e+02
  -2.334703e+02   5.443399e+01
  -1.844240e+02  -2.444618e+02
   8.600235e+00  -3.388178e+02
   1.916355e+02  -2.279447e+02
   4.139353e+02   6.109579e+01
   2.535164e+02   2.065264e+02
   8.848713e+01   3.013088e+02
  -1.327452e+02   1.281763e+02
  -1.772708e+02  -1.861648e+01
  -5.370497e+01  -2.867214e+01
   1.137762e+02   4.348674e+00
   7.487683e+01   1.146395e+02
  -1.410610e+02   1.010853e+02
  -1.803856e+02   7.481492e+01
  -5.911807e+01  -7.727346e+01
   7.726264e+01  -1.536708e+01
   6.246866e+01   7.408874e+01
  -1.466933e+02   1.251572e+02
  -3.119267e+02   3.292298e+01
  -2.645430e+02  -1.402950e+02
  -7.795264e+01  -2.817317e+02
   1.576240e+02  -2.754008e+02
   2.702267e+02  -1.627375e+02
   1.904561e+02   4.770563e+01
  -1.261826e+01   7.570173e+01
  -7.518139e+01  -6.587876e+00
   2.132380e+01  -1.263688e+02
   1.985628e+02  -3.866214e+01
   2.334031e+02   1.149216e+02
   6.857575e+01   2.519978e+02
  -9.753962e+01   1.563097e+02
  -1.493520e+02  -7.686118e+00
  -1.081718e+02  -6.072922e+01
   1.715120e+01   2.927804e+01
   3.230798e+01   5.579886e+01
  -3.899379e+01   1.193298e+02
  -2.285495e+02   3.399487e+01
  -1.810782e+02  -1.191919e+02
  -2.931500e+01  -2.225568e+02
   1.653972e+02  -2.131695e+02
   1.886984e+02  -1.878304e+01
   8.598341e+01   1.338127e+02
  -7.125007e+01   1.441441e+02
  -8.438252e+01   2.509431e+01
   2.671912e+01  -7.039228e+01
   6.034293e+01  -3.097256e+01
  -1.649869e+01  -1.886796e+01
  -7.371759e+01  -5.870317e-01
  -1.159003e+02  -9.138790e+01
  -1.958935e+01  -2.135410e+02
   1.654575e+02  -2.143748e+02
   2.622775e+02   2.944291e+00
   2.206610e+02   1.723501e+02
   4.393572e+01   2.952585e+02
  -1.136510e+02   2.009758e+02
  -1.874321e+02   3.669334e+00
  -7.381687e+01  -5.614309e+01
  -6.278914e+00  -5.164798e-01
  -4.493116e+01   7.535275e+01
  -1.161737e+02   2.801516e+01
  -4.768281e+01  -4.443251e+01
   1.979538e+01  -1.428028e+02
   1.268801e+02  -7.688668e+01
   1.154375e+02   6.051460e+01
  -2.368394e+01   8.058063e+01
  -1.623932e+02   1.101784e+02
  -2.165499e+02  -4.248002e+01
  -1.216049e+02  -2.250626e+02
   1.141255e+02  -2.583338e+02
   2.941772e+02  -1.050915e+02
   2.507282e+02   6.572136e+01
   1.121447e+02   1.747408e+02
  -3.145369e+01   1.034854e+02
  -9.934065e+01   1.012718e+02
  -7.617381e+01   9.531164e+01
  -7.654218e+01   1.072966e+02
  -8.345655e+01   1.179037e+02
  -1.327786e+02  -4.599425e-01
  -1.191755e+02  -1.639625e+02
  -3.139409e+01  -2.123593e+02
   9.446765e+01  -1.517971e+02
   2.152343e+02   2.288946e+00
   1.482955e+02   1.790267e+02
   1.152750e+01   1.474583e+02
  -7.542266e+01   1.119222e+02
  -5.389101e+01  -7.727135e-01
  -2.445859e+01  -1.872812e+01
  -1.859132e+01  -1.663945e+01
  -4.981489e+01   5.990664e+00
  -8.717043e+01  -1.157405e+01
  -2.299303e+01  -6.214143e+01
   6.907765e+01  -3.886744e+01
   1.927698e+02   3.109599e+01
   1.431355e+02   3.044670e+01
   1.900917e+01   1.061291e+02
  -1.387563e+02   9.342650e+01
  -1.659602e+02  -5.693985e+00
  -6.420853e+01  -3.843261e+01
   7.892531e+01  -7.029008e+00
   1.044802e+02   6.198140e+01
  -8.076833e+00   8.555912e+01
  -5.576389e+01   5.280968e+01
  -5.112273e+01  -3.925412e+00
  -5.130730e+01  -7.045975e+01
  -7.784800e+01  -2.200215e+01
  -9.634845e+01   6.255165e+01
  -1.306386e+02  -1.508232e+01
  -4.514472e+01  -9.462486e+01
  -1.453799e+01  -2.289158e+02
   1.432747e+02  -1.924751e+02
   1.744053e+02  -3.321396e+01
   1.183898e+02   1.072803e+02
  -1.097123e+01   1.408706e+02
  -1.256471e+02   7.353757e+01
  -8.592319e+01  -2.727118e+01
   5.213596e+01  -4.206043e+01
   1.805153e+02   3.667349e+01
   9.013987e+01   9.456071e+01
  -8.145586e+01   8.765097e+01
  -2.190288e+02   4.178494e+01
  -2.110626e+02  -1.091153e+01
  -6.518092e+01  -8.353806e+01
   5.420284e+01  -4.806176e+01
   1.969569e+01  -1.445940e+01
  -8.346364e+01   1.399985e+01
  -8.087603e+01  -3.089611e+01
  -6.774872e+01  -1.779379e+02
   1.152090e+02  -2.165027e+02
   1.957348e+02  -1.543006e+01
   1.593391e+02   1.603215e+02
   8.587035e+01   2.211460e+02
  -8.448067e+01   1.581795e+02
  -1.096251e+02  -1.965949e+01
  -7.884789e+01  -1.098346e+02
  -3.683456e+01  -9.929585e+01
   5.242174e+01  -4.348863e-01
   2.870218e+01   4.113376e+01
   7.121430e+00  -5.816190e+00
   2.112259e+01  -2.315353e+01
   2.240579e+01   2.153317e+01
   7.007336e+01   7.781788e+01
   7.878129e+01   9.121870e+01
  -1.132919e+01   6.968430e+00
  -1.334434e+02  -5.664282e+01
  -8.341417e+01  -3.982521e+01
  -1.731843e+01  -2.166853e+01
   5.742505e+01   3.498889e+01
   2.940021e+01  -9.416161e+00
  -2.712818e-01  -2.764370e+01
  -1.695688e+01   1.587661e-01
   2.091067e+01   1.214639e+00
   3.067813e+01   1.286637e+01
  -1.438212e+01  -1.644224e+01
  -1.015704e+02   4.029751e+01
  -1.006191e+02  -3.781693e+01
  -1.075138e+01  -7.466673e+01
   1.476479e+02  -1.377975e+02
   2.065307e+02  -1.030551e+02
   1.636132e+02   3.225994e+01
   1.515956e+01   2.086196e+02
  -7.008878e+01   1.693868e+02
  -1.273122e+02   2.897813e+01
  -9.735943e+01  -2.418585e+01
  -7.351392e+00  -1.153950e+01
   1.398304e+01   2.348180e+01
   2.746769e+01   2.268091e+00
  -3.100010e+01  -4.043109e+01
  -3.449233e+00  -7.844066e+01
  -4.085914e+00  -4.160271e+01
   6.072177e+01   4.650809e+01
   7.938139e+01   1.230540e+02
   2.065914e+01   7.544559e+01
  -6.073712e+01   9.244256e+00
  -1.080744e+02  -6.534859e+01
  -5.561965e+01  -8.476358e+01
   4.228491e+01  -4.544848e+01
   1.009559e+02   2.427188e+01
   5.301583e+01   4.778553e+01
  -4.027944e+01   4.599037e+01
  -6.275681e+01   2.810429e+01
   4.633806e+01   1.520588e+01
   6.859217e+01  -1.710626e+01
  -1.083749e+00   3.539870e+01
  -9.820615e+01   8.005385e+01
  -9.245766e+01   6.479647e+01
  -1.080519e+02  -3.172514e+01
   3.912788e+00  -1.227688e+02
   7.074137e+01  -7.555041e+01
   3.018417e+01   2.590786e+01
   2.197657e+01   6.451235e+01
  -3.231073e+01   6.062110e+01
  -5.908834e+01  -3.767656e+00
  -4.785048e+01  -6.878979e+01
   2.567677e+01  -1.586305e+00
   1.907458e+01   9.490386e+00
   5.259098e+01  -1.220660e+01
  -1.624186e+01   6.107013e+00
  -9.030726e+00  -1.533576e+01
   1.949461e+01   1.614552e+01
   1.759557e+01   2.370337e+01
  -3.301600e+01   5.041025e+01
  -4.907616e+01  -1.544087e+01
   2.469147e+01  -2.063538e+01
   9.085853e+00  -6.749648e+01
   5.255269e+01  -2.014403e+01
   7.421490e+01   7.525163e+01
  -4.894956e+00   8.997367e+01
  -4.209707e+01   3.025285e+01
  -1.012602e+02   1.516441e+00
  -4.867201e+01  -2.744626e+01
   3.977491e+01   9.115686e+00
   8.439724e+01  -1.515296e+00
   4.054435e+01  -4.983228e+00
  -3.744500e+01  -1.853908e+01
  -2.266501e+01  -5.937503e+00
   7.486357e+01  -5.095220e+01
   7.995916e+01  -3.065608e+01
