
 $NMID
 id='ANONYMOUS ', fmtdat='(2E16.6)'
 volume=1.0
 tramp=1.0
 $END
  -3.853200e+03  -5.490972e+01
  -2.278568e+03  -2.161911e+03
   2.382849e+02  -2.598248e+03
   1.654736e+03  -1.219515e+03
   1.102296e+03   1.404633e+02
  -2.379352e+02   3.182729e+02
  -5.558073e+02  -3.287334e+02
  -9.975667e+01  -7.341905e+02
   6.892953e+02  -6.967322e+02
   7.032076e+02  -8.244787e+01
   4.885840e+02   6.401667e+02
  -1.213098e+01   7.277778e+02
  -4.256033e+02   1.642852e+02
  -3.897555e+02  -4.301410e+02
   1.571681e+02  -6.416636e+02
   4.637340e+02  -9.722978e+01
   3.194986e+02   5.793004e+02
  -1.942159e+02   7.081285e+02
  -5.523808e+02   2.443659e+02
  -4.602044e+02  -2.515378e+02
  -1.120938e+02  -3.199219e+02
   1.172755e+02  -3.724704e+02
   9.420071e+01  -1.015122e+02
  -7.628670e+01  -1.495082e+02
  -3.816741e+02  -1.319602e+02
  -2.043233e+01  -4.007367e+02
   4.839310e+02  -3.031747e+02
   6.788605e+02   1.563291e+02
   2.866097e+02   3.607612e+02
  -3.514139e+02   3.770928e+02
  -5.621751e+02  -7.618488e+01
  -1.991208e+02  -3.822073e+02
   2.714996e+02  -3.813305e+02
   4.684444e+02  -2.004023e+02
   3.252181e+02   1.155513e+02
   7.964025e+01   3.315857e+02
  -6.823231e+01   2.065756e+02
  -2.816107e+01  -1.557372e+02
   1.389938e+02  -2.027640e+02
   3.198116e+02   2.949880e+01
   1.613476e+02   5.406383e+02
  -2.359439e+02   5.267216e+02
  -4.154373e+02   5.920024e+01
  -1.896689e+02  -3.999600e+02
   1.650222e+02  -2.090956e+02
   2.489963e+02   2.533050e+02
  -5.507459e+01   4.426969e+02
  -4.652931e+02   6.487478e+01
  -5.122520e+02  -3.165523e+02
  -1.505965e+02  -5.356273e+02
   2.617510e+02  -3.239675e+02
   5.275810e+02   2.278920e+01
   4.047056e+02   2.535396e+02
  -4.495061e+00   2.615332e+02
  -2.774239e+02   7.246888e+01
  -2.045604e+02  -1.053967e+02
   4.818116e+01  -2.992939e+01
   1.174776e+02   1.158630e+02
  -1.090796e+02   2.052465e+02
  -2.499040e+02  -1.070243e+02
  -1.701351e+02  -2.415672e+02
   1.565132e+02  -2.401928e+02
   3.198461e+02  -1.109318e+02
   2.420299e+02   7.362674e+01
   2.418099e+00   2.835055e+02
  -2.556976e+02   3.676965e+02
  -3.565802e+02   2.015799e+02
  -3.104320e+02  -1.363077e+02
  -1.455680e+02  -4.218813e+02
   6.269353e+01  -3.447850e+02
   7.965587e+01  -1.507318e+02
  -3.215693e+01  -1.890204e+01
   1.524981e+02  -5.916501e+01
   1.919118e+02  -1.245493e+02
   3.017639e+02   7.599243e+01
   8.602141e+01   2.567797e+02
  -7.839796e+01   2.298245e+02
  -1.807566e+02  -5.449925e+01
  -1.013534e+02  -2.384192e+02
   8.862405e+00  -2.127894e+02
   2.378660e+02  -7.694698e+01
   3.336936e+02   2.215322e+02
   1.707895e+02   2.572825e+02
  -1.003561e+02   2.798233e+02
  -2.309639e+02   1.754304e+02
  -2.090692e+02   9.196105e+01
  -1.701500e+02   2.512289e+01
  -2.520165e+02   2.157127e+01
  -3.660318e+02  -5.968238e+01
  -3.312016e+02  -3.164496e+02
   9.846630e+00  -4.179896e+02
   3.676478e+02  -4.224113e+02
   4.273917e+02  -2.085896e+02
   2.987946e+02   1.238533e+02
   2.821357e+01   2.658701e+02
  -1.009587e+02   1.859961e+02
  -3.930665e+01   3.199134e+01
   1.049580e+02  -8.101502e+01
   1.528993e+02  -3.760974e+01
   2.450113e+01   1.279052e+02
  -6.368456e+01   1.386524e+02
  -1.011995e+02  -4.044318e+01
   5.435255e+01  -1.571730e+02
   1.571301e+02  -2.964890e+00
   1.423714e+02   2.809781e+02
   1.110981e+00   3.628778e+02
  -2.837863e+02   2.287820e+02
  -3.373854e+02  -1.345098e+02
  -2.776299e+02  -2.486263e+02
  -4.707545e+01  -2.633704e+02
   1.628677e+02  -1.488029e+02
   1.738337e+02  -2.154791e+01
   8.030169e+01   1.762630e+01
  -8.679433e+01  -5.889433e+01
  -1.871469e+01  -1.160379e+02
   1.024560e+02  -8.763525e+01
   1.535195e+02   4.942160e+01
   4.709708e+01   8.274084e+01
  -1.116091e+02   4.677956e+01
  -2.985890e+01  -5.728617e+01
   1.055500e+02  -9.960413e+01
   2.278136e+02   8.447318e+00
   2.362126e+02   9.208036e+01
   4.303900e+01   2.459873e+02
  -1.713855e+02   2.521128e+02
  -3.194762e+02   1.285316e+02
  -1.668184e+02  -1.818067e+01
  -2.177875e-01  -4.263885e+01
   5.698566e+01  -1.805715e+01
  -1.049503e+02   5.660807e+01
  -2.034858e+02   6.075290e+01
  -2.448448e+02  -1.215260e+02
  -5.545029e+01  -1.625021e+02
   9.442264e+01  -1.519721e+02
   1.342645e+02  -8.581533e+00
   1.105152e+02   4.096604e+01
  -3.451034e+01  -1.983502e+00
  -4.608111e+00  -7.798492e+01
   7.801259e+01  -1.131323e+02
   1.998219e+02   1.864077e+01
   2.154724e+02   1.430851e+02
   3.153747e+00   2.219839e+02
  -9.629674e+01   1.610774e+02
  -1.737614e+02   2.361010e+01
  -5.216968e+01  -4.730949e+01
   4.411576e+01  -1.566354e+02
   4.882359e+01  -3.281323e+01
  -1.388527e+01  -5.877402e-01
  -3.360734e+01  -1.616450e+01
   3.908771e+01  -6.330518e+00
   7.575421e+01  -2.154654e+00
   7.846091e+01   1.069262e+02
   2.730512e+01   1.114987e+02
  -1.281648e+02   1.592665e+02
  -1.837503e+02  -1.905247e+01
  -1.579713e+02  -1.227860e+02
  -5.185722e+01  -2.064886e+02
   1.060352e+02  -1.502552e+02
   1.418865e+02  -2.937694e+01
   4.915714e+01   5.573946e+01
   2.723452e+01  -2.308967e+00
   2.072057e+01  -7.699762e+00
   5.954182e+01   7.512024e+00
   3.701075e+01   3.882897e+01
  -7.483072e+01   1.111555e+02
  -1.164677e+02   6.898701e+01
  -8.773907e+01  -5.768438e+01
  -1.123697e+01  -1.061409e+02
   1.337992e+02  -4.259231e+01
   2.108186e+02   7.824171e+01
   1.151201e+02   2.365180e+02
  -1.157481e+02   2.450850e+02
  -2.577175e+02   6.779947e+01
  -2.343896e+02  -9.541468e+01
  -8.810748e+01  -1.390840e+02
   7.783280e+01  -1.762844e+02
   1.047474e+02  -8.018224e+01
   6.747934e+01  -1.089238e+02
   7.943282e+01  -1.092068e+02
   9.402678e+01  -9.521017e+01
   1.008949e+02  -1.208814e+01
   1.110685e+02   8.384683e+01
   6.970338e+01   2.327469e+02
  -1.138005e+02   1.537407e+02
  -1.518694e+02   1.955596e+01
  -1.838452e+02  -1.176729e+02
  -3.055558e+01  -1.886876e+02
   8.914438e+01  -1.084205e+02
   1.068691e+02  -5.884426e+00
  -1.400910e+01   8.207849e+01
  -7.525729e+00   5.655391e+01
   4.120490e+01   6.059285e+01
   4.784630e+01   2.261754e+01
   1.131319e+00   5.311930e+01
  -1.313552e+02   2.153277e+01
  -1.686851e+02  -3.024508e+01
  -1.269911e+02  -4.226485e+01
  -3.054882e+01  -1.008697e+02
   1.041418e+02  -9.826429e+01
   1.069744e+02  -3.800278e+00
   5.497982e+01   4.201369e+01
  -6.891327e+01  -8.999994e+00
  -5.955617e+01  -3.410126e+01
  -1.478388e+01  -6.716745e+01
   3.311555e+01  -5.194049e+01
   2.199421e+01  -3.741112e-01
   3.528313e+01   1.692921e+01
   8.461396e+01   3.060317e+01
   7.160035e+01  -1.692980e+01
   9.167647e+01  -5.529280e+00
   7.163756e+01   4.664619e+01
  -4.220869e+01   1.481440e+02
  -1.001833e+02   1.127929e+02
  -1.609518e+02   2.648060e+01
  -9.963945e+01  -9.450953e+01
  -2.148911e+01  -7.677579e+01
   9.949293e+01  -4.065756e+01
   2.621547e+01   1.620426e+00
  -1.687047e+01   2.188592e+00
  -1.444045e+02  -5.265249e+01
  -6.014518e+01  -7.405134e+01
   7.740945e+01  -1.243914e+02
   1.803503e+02  -1.717695e+01
   1.264999e+02   7.082720e+01
   4.413545e+01   9.114820e+01
  -7.673191e+01   9.860450e+01
  -6.480375e+01  -3.338558e+01
   1.716690e+01  -3.605169e+01
   1.097524e+02  -1.603783e+00
   6.794380e+01   1.134537e+02
  -7.361193e+01   1.453193e+02
  -1.348696e+02   6.525027e+01
  -8.007994e+01  -8.317612e+01
  -1.635416e+01  -1.718151e+02
   7.394432e+01  -1.320689e+02
   7.647580e+01   3.091530e+01
   6.610061e+01   1.115227e+02
  -9.647410e+00   1.362079e+02
  -6.001331e+01  -2.485367e+00
  -7.067174e+01  -8.657198e-01
  -7.069717e+01   1.361920e+00
   1.016784e+01   3.469252e+01
  -2.480390e+00  -2.710851e+01
   1.387223e+00  -8.406370e+01
  -4.341895e+01  -1.028806e+02
   7.352290e+01  -4.473060e+01
   1.667939e+02   6.229939e+01
   1.130740e+02   5.458898e+01
  -1.953477e+01   2.586902e+01
  -7.098640e+01   2.236507e+01
  -9.892214e+01   8.253714e+00
  -2.352420e+01  -2.839564e+00
   4.699392e+01  -3.621799e+01
  -1.039138e+01  -1.133760e+01
  -6.186980e+00  -1.176681e+01
   1.531772e+01   3.066890e+01
   7.165664e+01   1.597512e+01
   4.655243e+01   5.718804e+01
   2.224172e+01   8.170402e+01
  -5.130023e+01   1.056939e+02
  -1.709369e+02   5.556121e+01
  -1.404685e+02  -7.495723e+01
  -3.350183e+01  -1.448435e+02
   8.171694e+01  -1.625046e+02
   1.226086e+02  -6.516229e+01
   1.186638e+02   4.693418e+00
   7.796368e+00   3.639981e+01
   3.264422e+01   7.707377e+00
  -9.479715e+00   2.786761e+01
  -5.358597e+00   1.687111e+01
   4.868761e+01   1.193982e+02
  -5.822072e+01   4.315749e+01
  -4.180363e+01  -1.665108e+01
  -7.939832e+01  -1.056771e+02
   9.973469e+00  -1.064928e+02
   1.045496e+02  -3.087513e+01
   1.326422e+02   1.283718e+01
   1.311070e+01   1.612278e+02
  -5.923707e+01   5.948883e+01
  -8.219778e+01   1.638834e+01
  -3.915257e+01  -4.432722e+01
   1.768710e+01  -7.662339e+01
  -3.844784e+00  -4.753213e+01
  -5.022500e+01  -3.088617e+01
  -6.425274e+01   3.719239e-01
   7.613241e+00  -3.744857e+01
   9.192227e+01  -4.641209e+01
   1.293253e+02  -4.817118e+01
   4.373471e+01   5.242611e+01
  -1.732278e+01   1.034245e+02
  -6.522813e+01   8.501070e+01
  -4.080606e+01   5.558160e+00
  -3.330825e+01  -2.728052e+01
   5.571933e+00  -9.157314e+01
   6.435591e+01   4.430068e+00
   4.119657e+01   7.630675e+01
   3.835333e+01   2.972685e+01
  -1.679891e+01  -2.345519e+01
  -2.894851e+01  -5.947074e+00
  -2.608139e+01  -4.748926e+01
   4.226901e+01   1.275744e+00
   2.407406e+01   5.915681e+01
   2.245168e+01  -2.071837e+01
   4.994302e+01   6.676817e-01
   1.385726e+01   7.919261e+00
   4.159308e+01   4.548223e+01
   2.132899e+01   5.272503e+01
  -1.628163e+01   5.185600e+01
  -4.342254e+01   9.467034e-01
  -1.230931e+01  -5.314214e+01
   5.727798e+01  -1.644846e+01
   9.342375e+01   1.963012e+01
   1.932217e+01   5.741919e+01
  -4.230952e+01   1.206062e+01
  -3.739435e+01   2.460182e+01
  -3.967802e+01   2.576699e+01
   4.745689e+01   2.984081e+01
   3.787140e+01   1.961653e+01
  -3.397775e+01   9.720619e+01
  -7.597898e+01   3.559325e+01
