
 $NMID
 id='ANONYMOUS ', fmtdat='(2E16.6)'
 volume=1.0
 tramp=1.0
 $END
  -5.240400e+03  -1.499749e+00
  -2.929985e+03  -3.053733e+03
   1.113129e+03  -3.184795e+03
   2.423504e+03  -9.501597e+02
   9.612353e+02   9.649385e+02
  -8.621316e+02   7.669816e+02
  -1.118584e+03  -4.022197e+02
   1.864107e+01  -1.267935e+03
   1.014106e+03  -9.021725e+02
   1.206197e+03   6.555152e+01
   5.903927e+02   9.942249e+02
  -3.163600e+02   9.424612e+02
  -6.848391e+02   8.509241e+01
  -5.028193e+02  -8.034175e+02
   3.084937e+02  -7.904186e+02
   6.648841e+02   8.917580e+01
   2.903329e+02   7.765378e+02
  -3.946621e+02   7.063311e+02
  -7.470537e+02   1.056230e+02
  -3.377299e+02  -3.628880e+02
   2.957921e+01  -4.052794e+02
   3.598798e+02  -2.703734e+02
   2.837452e+02  -4.161355e+01
  -1.395731e+02   1.151005e+02
  -3.703034e+02  -1.136096e+02
  -2.408126e+02  -4.570569e+02
   3.993596e+02  -4.194171e+02
   8.784417e+02   1.020051e+02
   4.868571e+02   6.281466e+02
  -4.538623e+02   5.734717e+02
  -8.434550e+02  -3.009990e+01
  -3.984672e+02  -5.473485e+02
   3.167028e+02  -5.545591e+02
   5.518643e+02  -1.550779e+02
   3.910263e+02   2.831040e+02
   7.671258e+01   5.271543e+02
  -2.217326e+02   2.808494e+02
  -2.202797e+02  -2.173134e+02
   1.535896e+02  -4.512141e+02
   5.941463e+02   2.322539e+00
   3.496369e+02   7.048903e+02
  -3.700471e+02   8.104507e+02
  -7.138645e+02   9.460696e-01
  -3.450148e+02  -7.024104e+02
   3.521805e+02  -3.689243e+02
   4.250049e+02   4.018481e+02
  -8.253463e+01   6.213600e+02
  -6.416342e+02   1.616481e+02
  -6.724605e+02  -4.642726e+02
  -1.741772e+02  -6.812278e+02
   4.482882e+02  -4.361410e+02
   7.093505e+02   6.229262e+01
   4.318228e+02   4.709526e+02
  -1.971116e+02   4.345223e+02
  -5.226241e+02   4.321912e+01
  -2.458213e+02  -1.997923e+02
   1.381396e+02  -1.348552e+02
   1.788825e+02   2.018943e+02
  -1.566783e+02   2.252404e+02
  -3.921402e+02  -1.359249e+02
  -1.574759e+02  -3.554568e+02
   2.706634e+02  -2.726724e+02
   3.913525e+02  -1.629284e+01
   1.620917e+02   1.142590e+02
  -5.010010e+01   2.470316e+02
  -2.126831e+02   3.637127e+02
  -3.188173e+02   2.263051e+02
  -3.474361e+02  -1.936770e+02
  -1.294521e+02  -5.087702e+02
   1.359045e+02  -4.366155e+02
   1.528982e+02  -1.147157e+02
   8.727611e+01   1.425708e+01
   1.085343e+02  -8.791138e+01
   2.021955e+02  -1.730115e+02
   2.839399e+02   6.434924e+01
   1.893938e+02   3.027572e+02
  -7.735805e+01   2.810681e+02
  -2.266034e+02   4.265624e+01
  -1.931609e+02  -2.341619e+02
   5.201739e+00  -3.243647e+02
   3.119414e+02  -1.634249e+02
   3.703018e+02   1.790222e+02
   1.942212e+02   3.177627e+02
  -5.995709e+01   3.162721e+02
  -2.139741e+02   1.519836e+02
  -1.657673e+02   2.216445e+00
  -9.458901e+01  -1.262828e+00
  -2.578857e+02   2.466038e+01
  -3.907445e+02  -6.341908e+01
  -2.903284e+02  -2.923014e+02
  -3.933286e+01  -4.104660e+02
   3.624644e+02  -4.258297e+02
   5.127938e+02  -2.106809e+02
   3.580139e+02   9.513321e+01
   4.288569e+01   3.415556e+02
  -1.169844e+02   2.668911e+02
  -7.856189e+01   4.474867e+01
   9.303559e+01  -1.494863e+02
   1.967389e+02   7.130749e+00
   7.194675e+01   2.132763e+02
  -1.564629e+02   2.369039e+02
  -2.263898e+02  -8.554043e+01
   5.935916e+00  -2.568523e+02
   2.227835e+02  -9.321055e+01
   1.899604e+02   2.929908e+02
  -1.305283e+01   4.144891e+02
  -1.993152e+02   2.262031e+02
  -3.556783e+02  -7.089575e+01
  -2.534901e+02  -2.460765e+02
  -8.072849e+01  -2.596990e+02
   1.214714e+02  -1.620406e+02
   1.797571e+02  -3.458731e-01
   4.180972e+01   1.454785e+01
  -1.143057e+02  -5.932814e+01
  -6.988666e+00  -1.776375e+02
   1.519601e+02  -9.166377e+01
   2.033262e+02   4.132705e+01
   4.847241e+01   8.503412e+01
  -6.924517e+01   4.158193e+01
  -7.820433e+01  -5.370358e+01
   1.120755e+02  -6.747967e+01
   2.902622e+02   2.646143e+01
   3.200406e+02   1.599480e+02
   7.768911e+01   2.492290e+02
  -1.790387e+02   2.506595e+02
  -3.220541e+02   1.673701e+02
  -1.795507e+02  -2.430956e+01
   5.094240e+01  -1.491936e+02
   1.317950e+02   1.869741e+01
   7.509355e+00   1.119650e+02
  -2.238435e+02   9.506874e+01
  -2.341097e+02  -8.580190e+01
  -1.096746e+02  -1.864401e+02
   9.424923e+01  -1.377016e+02
   1.371869e+02  -1.693123e+01
   7.352099e+01   7.845686e+01
   1.229406e-01  -4.308053e+01
  -2.230166e+01  -1.055703e+02
   7.047365e+01  -8.858179e+01
   1.884537e+02  -6.452111e+01
   1.890393e+02   1.440692e+02
   7.613400e+01   2.354154e+02
  -1.696530e+02   1.905220e+02
  -2.080714e+02  -2.261258e+01
  -8.454290e+01  -1.725877e+02
   5.589168e+01  -1.560332e+02
   5.363445e+01  -4.228587e+01
  -4.921710e+00   1.952331e+01
  -2.557697e+01   4.449723e+00
   3.311000e+00   1.869585e+01
   8.779903e+01   2.616261e+01
   9.006313e+01   8.444446e+01
   4.111217e+01   1.542524e+02
  -1.003416e+02   1.385282e+02
  -2.380533e+02   3.263027e+01
  -2.295847e+02  -1.408030e+02
  -2.142616e+01  -2.094425e+02
   1.114985e+02  -1.717717e+02
   1.033232e+02  -5.577394e+01
   5.800113e+01   2.600424e+01
   6.507245e+01   3.865255e+01
   9.127887e+01  -5.359904e+01
   2.725000e+01   2.103918e+01
   6.674940e+00   8.272672e+01
  -3.113311e+01   1.394637e+02
  -8.320481e+01   5.045265e+01
  -7.223856e+01  -8.467141e+01
   2.434607e+01  -1.035182e+02
   1.580441e+02  -5.340314e+01
   1.898253e+02   9.954972e+01
   9.306694e+01   1.774938e+02
  -9.025605e+01   2.321910e+02
  -2.777421e+02   8.428628e+01
  -2.625908e+02  -5.923805e+01
  -1.071852e+02  -1.401388e+02
   3.653322e+00  -1.614615e+02
   6.469848e+01  -8.357148e+01
   5.432550e+01  -5.585922e+01
   7.504145e+01  -8.164519e+01
   8.427560e+01  -3.900606e+01
   1.425478e+02   5.073108e+01
   1.214722e+02   1.793738e+02
   5.514612e+01   2.252231e+02
  -1.291073e+02   1.765602e+02
  -2.111576e+02   3.110467e+01
  -1.300818e+02  -1.765314e+02
   4.562553e+01  -1.910731e+02
   1.165214e+02  -7.729031e+01
   9.002803e+01  -3.082832e-01
   3.932440e+01   1.757397e+01
   3.460314e+01   1.369277e+01
   7.146438e+01  -6.200736e+01
   1.234185e+02   2.642481e+01
   3.389137e+01   7.042867e+01
  -7.400445e+01   8.058043e+01
  -1.275932e+02   1.006503e+01
  -1.543968e+02  -3.392214e+01
  -1.034038e+01  -9.657667e+01
   1.732988e+02  -5.421177e+01
   1.887154e+02   3.671845e+00
   3.402342e+01   3.980404e+01
  -7.890722e+01   3.958173e+01
  -8.760566e+01  -2.531622e+01
  -3.588436e+01  -4.543143e+01
   5.057284e+01  -9.606647e+01
   6.206386e+01  -4.104664e+01
   7.695598e+01  -2.442609e+00
   4.719693e+01   5.042366e+01
   6.956760e+01  -8.925250e+00
   5.121016e+01  -1.638061e+01
   4.405422e+01   9.788985e+01
  -5.498311e+01   1.887450e+02
  -1.392304e+02   1.830412e+02
  -1.455511e+02   1.349665e+01
  -1.291982e+02  -9.306356e+01
  -3.108926e+01  -1.430279e+02
   8.176398e+00  -2.785788e+01
   3.844301e+01  -1.549174e+01
  -3.687089e+01   3.740499e+01
  -9.641302e+01  -5.681182e+01
  -5.214348e+01  -6.575560e+01
   4.343133e+01  -1.017644e+02
   1.324373e+02  -2.667136e+01
   1.644559e+02   4.789347e+01
   3.753104e+01   1.170582e+02
  -8.340311e+01   2.495882e+01
  -6.460669e+00   6.827766e+00
   3.595692e+01   2.575585e+01
   1.174838e+02   3.395238e+01
   3.669835e+01   1.112320e+02
  -3.737006e+01   1.388607e+02
  -1.897547e+02   3.438442e+01
  -1.394983e+02  -1.367613e+02
  -6.056110e+01  -1.754703e+02
   9.339865e+01  -1.485193e+02
   1.047366e+02   3.230146e+01
   2.746968e+01   1.015846e+02
  -4.325856e+00   4.097609e+01
   2.843551e+01  -4.846275e+01
   1.074231e+01  -4.029837e+01
   1.736355e+01   5.756570e+01
   1.945839e+01   1.323728e+01
  -7.654925e+00  -9.654625e+00
  -5.697088e+01  -6.632142e+01
  -4.065005e+01  -1.100792e+02
   2.439609e+01  -3.632471e+01
   1.165856e+02   6.975764e+01
   1.071301e+02   5.168405e+01
  -1.154198e+01   7.735300e+01
  -1.162365e+02  -1.122224e+01
  -1.372710e+02  -1.218654e+01
  -2.256156e+01  -1.144303e+01
   8.056299e+01  -3.216920e+01
   6.369796e+01  -4.547286e+01
  -1.154308e+01   2.247036e+01
   5.698073e+01   2.975174e+01
   5.967898e+01   4.247006e+01
   1.101240e+02   5.148929e+01
  -2.340960e+01   1.057599e+02
  -1.266247e+02   1.404911e+02
  -1.909576e+02   1.233677e+01
  -1.490917e+02  -8.118457e+01
  -6.907813e+01  -1.660351e+02
   9.139879e+01  -1.287497e+02
   1.249176e+02  -5.982529e+01
   1.056356e+02   6.355444e+01
   2.486860e+01   7.717345e+01
   2.259174e-01   1.619839e+01
   2.326225e+00  -2.275913e+01
   2.157130e+01   2.527046e+01
   1.157749e+01   8.727699e+01
  -5.779420e+01   4.438075e+01
  -9.406668e+01  -6.210356e+01
  -5.163824e+01  -1.327042e+02
   2.465884e+01  -1.085773e+02
   7.827686e+01  -4.771659e+00
   1.027010e+02   1.079100e+02
   1.657803e+01   1.322755e+02
  -1.228059e+02   6.840736e+01
  -1.406676e+02  -3.185956e+01
  -7.038740e+01  -2.856141e+01
   2.037604e+01  -6.422620e+01
   1.120389e+01  -2.317988e+01
  -5.978727e+01  -2.761491e+01
  -5.806139e+01  -2.503891e+01
   2.612757e+01  -3.432689e+01
   1.012294e+02  -5.199244e+01
   1.102723e+02  -3.129876e+01
   3.030009e+01   7.722069e+01
  -1.893027e+01   1.542095e+02
  -2.465790e+01   8.974627e+01
  -6.335522e+01  -2.432203e+01
   3.353877e+01  -6.586749e+01
   6.725270e+01   1.727222e+00
   3.831435e+01   5.407197e+01
   3.719862e+01   8.468247e+01
  -5.155030e+01  -1.248982e+01
  -7.142056e+01   1.192754e+01
  -1.923977e+01  -5.986422e+01
   1.974872e+01   6.668892e+00
   9.753941e-01   1.843014e+01
   8.919391e+00   3.694004e+00
  -5.613721e+00  -1.124192e+01
   7.169178e+01  -2.873374e+01
   5.233010e+01   2.345835e+01
   1.134020e+01   8.397472e+01
   3.501128e+00   3.761453e+01
  -1.391275e+01   2.955561e+00
  -4.972251e+01  -7.581288e+01
  -2.025442e+01  -1.202454e+02
   7.308307e+01  -9.389059e+01
   1.453048e+02   2.323057e+00
   5.474176e+01   5.386932e+01
  -5.602961e+01   5.335042e+01
  -9.002679e+01   2.270748e+01
  -5.716021e+01   2.400294e+01
   3.690770e+01  -1.386706e+01
   1.747371e+01   1.578948e+01
  -3.011862e+01   2.324614e+01
  -1.059223e+02   5.309813e+01
