
 $NMID
 id='ANONYMOUS ', fmtdat='(2E16.6)'
 volume=1.0
 tramp=1.0
 $END
  -5.166092e+03  -2.969872e+02
  -3.190672e+03  -2.973011e+03
   8.670294e+02  -3.203505e+03
   2.411774e+03  -1.148014e+03
   1.131946e+03   8.195663e+02
  -6.303734e+02   7.335607e+02
  -1.019848e+03  -5.098355e+02
   4.025544e+01  -1.225444e+03
   9.926787e+02  -9.838068e+02
   1.131635e+03   1.395579e+02
   5.401655e+02   9.462684e+02
  -1.894354e+02   1.027435e+03
  -7.822813e+02   1.761092e+02
  -6.531520e+02  -8.387191e+02
   3.352610e+02  -9.915033e+02
   7.357354e+02  -1.695082e+01
   2.614111e+02   7.960964e+02
  -3.666444e+02   7.051585e+02
  -7.115739e+02   6.839559e+01
  -4.229994e+02  -4.064077e+02
   6.422531e+01  -4.436188e+02
   2.740246e+02  -2.739558e+02
   3.064004e+02   4.919505e+01
  -1.442380e+02   1.644026e+02
  -3.615337e+02  -1.180056e+02
  -1.320920e+02  -5.143045e+02
   4.753083e+02  -4.571418e+02
   9.324072e+02   5.975679e+01
   4.937957e+02   5.219929e+02
  -3.420776e+02   5.077936e+02
  -8.691782e+02  -4.898840e+01
  -3.791782e+02  -5.193819e+02
   3.628466e+02  -5.192841e+02
   6.559112e+02  -2.154131e+02
   5.254548e+02   2.318139e+02
   1.196058e+02   5.239442e+02
  -1.894952e+02   3.778459e+02
  -2.368437e+02  -1.919007e+02
   1.691858e+02  -5.156776e+02
   5.284185e+02   1.560173e+01
   2.945679e+02   7.616388e+02
  -2.970859e+02   8.669597e+02
  -6.410569e+02   4.694925e+01
  -3.645401e+02  -6.108698e+02
   2.380457e+02  -3.907671e+02
   4.283132e+02   3.442407e+02
  -5.180174e+01   6.191316e+02
  -6.162597e+02   1.466951e+02
  -7.271159e+02  -4.986647e+02
  -2.150030e+02  -6.647037e+02
   4.743448e+02  -3.678463e+02
   7.010588e+02   4.171136e+01
   4.236509e+02   4.137244e+02
  -1.702614e+02   4.076230e+02
  -5.285966e+02   4.594903e+01
  -3.207448e+02  -2.203124e+02
   6.308129e+01  -1.092955e+02
   1.520704e+02   1.192521e+02
  -1.305440e+02   1.652062e+02
  -3.876715e+02  -5.594248e+01
  -1.797203e+02  -2.943972e+02
   1.961761e+02  -3.245804e+02
   3.615449e+02  -1.150428e+02
   2.364151e+02   1.300630e+02
  -3.336044e+01   2.829505e+02
  -2.290956e+02   3.488294e+02
  -3.795664e+02   2.975557e+02
  -3.775232e+02  -1.725593e+02
  -7.924642e+01  -5.016961e+02
   1.592307e+02  -4.359836e+02
   1.511385e+02  -1.386910e+02
   2.090997e+01  -9.090278e+00
   2.686342e+01  -1.042643e+02
   2.037756e+02  -1.616212e+02
   2.969724e+02   7.881481e+01
   1.590830e+02   2.330213e+02
  -2.879193e+01   2.040400e+02
  -2.249171e+02  -4.257021e+00
  -1.783693e+02  -2.798199e+02
   2.255941e+01  -2.641023e+02
   2.872717e+02  -1.321075e+02
   3.725707e+02   1.493848e+02
   2.542710e+02   4.378094e+02
  -1.113381e+02   3.840170e+02
  -2.241602e+02   1.573201e+02
  -1.870206e+02  -2.020834e+01
  -6.634781e+01   2.192878e+01
  -2.554344e+02   7.801978e+01
  -4.468898e+02  -3.107769e+01
  -3.359382e+02  -3.495123e+02
   4.654630e+01  -4.807376e+02
   4.103941e+02  -4.289141e+02
   4.741009e+02  -2.097040e+02
   3.435307e+02   1.468300e+02
   5.876086e+01   3.020679e+02
  -9.110281e+01   2.674110e+02
  -4.667659e+01   4.656368e+01
   1.026463e+02  -7.759751e+01
   1.631251e+02   1.078280e+01
   4.094132e+01   1.981171e+02
  -1.630739e+02   1.843053e+02
  -2.187570e+02  -2.907873e+01
   2.056131e+01  -2.204652e+02
   1.721105e+02  -1.456832e+01
   2.199550e+02   2.719897e+02
  -5.149350e+01   3.614308e+02
  -2.987155e+02   2.014908e+02
  -3.345387e+02  -1.033259e+02
  -3.122176e+02  -2.013760e+02
  -1.152162e+02  -2.933992e+02
   1.302133e+02  -2.213057e+02
   2.345970e+02  -1.523646e+01
   9.962358e+01   6.837588e+01
  -2.387253e+01  -7.914258e+01
  -3.016970e+01  -4.008774e+01
   1.108560e+02  -7.784430e+01
   1.653430e+02  -4.917429e-01
   1.280012e+01   6.867757e+01
  -8.483748e+01   2.207660e+01
   8.984705e-01  -5.914040e+01
   1.135501e+02  -1.152033e+02
   2.538864e+02   3.136731e+01
   2.581278e+02   1.302449e+02
   3.814358e+00   2.487424e+02
  -1.638396e+02   2.573486e+02
  -3.067606e+02   1.016180e+02
  -1.942512e+02  -6.520536e+01
   4.465002e+01  -1.189400e+02
   1.481361e+02  -5.103652e-01
  -2.911781e+01   9.217208e+01
  -1.979384e+02   8.361249e+01
  -2.603011e+02  -9.827619e+01
  -8.035540e+01  -1.964398e+02
   1.176036e+02  -1.373022e+02
   1.808677e+02  -8.089935e+00
   7.230862e+01   1.200701e+01
  -4.216833e+00  -3.788134e+00
  -1.645139e+01  -9.143042e+01
   8.738396e+01  -1.089323e+02
   2.306461e+02  -2.286992e+01
   2.008871e+02   1.346610e+02
  -2.971393e+01   2.471605e+02
  -1.811488e+02   2.183590e+02
  -1.941671e+02   1.730860e+01
  -8.390576e+01  -1.852920e+02
   6.890597e+01  -1.385621e+02
   1.246378e+02  -5.461763e+01
  -2.135489e+00   3.977339e+01
  -1.232067e+01   3.818184e+01
  -4.713024e+00   4.149284e+00
   9.002490e+01  -5.656231e-01
   7.508248e+01   7.356611e+01
   5.834140e+00   1.594041e+02
  -1.425532e+02   1.205288e+02
  -2.541346e+02   1.297189e+01
  -2.553421e+02  -1.629198e+02
  -2.971031e+01  -2.864929e+02
   1.159748e+02  -2.139249e+02
   1.205745e+02  -2.420816e+01
   9.239743e+01   8.587169e+01
   3.774627e+01   6.334499e+01
   5.842789e+01  -1.404052e+01
   9.892390e+01  -3.980487e+01
   3.249809e+01   9.612184e+01
  -2.319192e+01   1.189438e+02
  -8.736249e+01   6.114567e+01
  -1.135661e+02  -4.483903e+01
   3.933003e+01  -1.118828e+02
   1.618348e+02  -1.284639e+02
   2.067493e+02   6.718176e+01
   7.861920e+01   2.304277e+02
  -1.082624e+02   2.337736e+02
  -3.321251e+02   1.005330e+02
  -2.779802e+02  -5.707995e+01
  -1.381513e+02  -2.426010e+02
   2.907706e+01  -1.540538e+02
   1.216802e+02  -8.882741e+01
   1.375379e+02  -6.689092e+01
   6.463464e+01  -1.025060e+02
   1.080185e+02  -3.620063e+01
   1.277154e+02   7.781272e+01
   1.373265e+02   1.874145e+02
   1.887493e+01   2.040660e+02
  -6.863462e+01   2.042366e+02
  -1.730816e+02  -1.352630e+01
  -1.521072e+02  -8.828730e+01
  -6.095073e+01  -1.907437e+02
   7.399093e+01  -1.157031e+02
   7.013144e+01   1.366251e+01
   2.490469e+01   9.755135e+01
   1.976031e+01   4.699011e+01
   2.367320e+01   6.333028e+01
   5.954764e+01   5.348410e+01
   3.571519e+01   6.421089e+01
  -3.813018e+01   2.458056e+01
  -1.874503e+02  -4.227279e+01
  -1.372433e+02  -7.946064e+01
   1.009603e+01  -1.269476e+02
   1.435193e+02  -6.570891e+01
   1.761400e+02  -1.067684e+01
   9.740272e+01   5.314436e+01
  -1.334953e+01   3.544887e+01
  -9.624248e+01  -1.827896e+01
  -6.309510e+01  -9.699294e+01
   6.915657e+01  -5.635384e+01
   4.276464e+01   3.327689e+01
   7.114168e+01   4.259148e+01
   3.105350e+01   7.896129e+01
   9.460387e+01   4.255469e+01
   1.172875e+02  -2.933588e+00
   6.353582e+01   7.091440e+01
  -4.656542e+01   1.695248e+02
  -1.789396e+02   1.400874e+02
  -1.664937e+02   3.998919e+01
  -1.358290e+02  -8.052374e+01
   7.595011e-02  -1.833896e+02
   1.177280e+02  -7.377077e+01
   1.769859e+01   1.202927e+00
  -3.371951e+01   1.848504e+01
  -1.694637e+02  -6.546184e+01
  -6.425297e+01  -1.563354e+02
   9.290948e+01  -1.520705e+02
   2.187159e+02  -5.412135e+01
   2.092217e+02   4.507820e+01
  -6.362479e+00   1.282034e+02
  -8.681819e+01   1.067221e+02
  -7.902514e+01   2.168773e+01
   4.521984e+00  -3.427908e+01
   7.928991e+01   1.568866e+01
   2.759834e+01   1.666347e+02
  -7.662062e+01   9.880078e+01
  -1.651897e+02   4.102655e+01
  -1.440369e+02  -1.060003e+02
  -6.444298e+01  -2.425767e+02
   7.637412e+01  -1.967309e+02
   1.096305e+02  -2.283928e+01
   4.927587e+01   1.244229e+02
  -2.651742e+01   8.350610e+01
  -2.227653e+01   1.086550e+01
  -3.150494e+01  -7.161644e-01
  -2.260794e+00   1.406276e+01
   1.767662e+01   1.940595e+01
  -2.997232e+01  -1.743975e+01
  -7.199330e+01  -5.121873e+01
  -4.352336e+01  -9.689552e+01
   4.543352e+01  -3.581480e+01
   1.404332e+02   3.508235e+01
   1.246896e+02   7.445850e+01
   2.708726e+01  -4.444354e+00
  -1.087728e+02   1.455365e+01
  -1.194489e+02   8.488184e+00
  -3.424544e+01  -9.605955e+01
   4.385182e+01  -3.667266e+01
   4.957359e+01  -2.400893e+01
   4.384813e+01  -2.333594e+01
   4.984587e+01  -1.362218e+01
   1.146719e+02   2.578154e+01
   5.160471e+01   7.884654e+01
   3.279753e+00   1.448174e+02
  -1.293391e+02   1.092163e+02
  -2.227474e+02   4.331721e+01
  -1.574501e+02  -8.814253e+01
  -2.513992e+01  -2.032899e+02
   6.698262e+01  -1.950801e+02
   1.422536e+02  -3.934362e+01
   8.330077e+01  -2.852911e+00
   3.838577e-01   1.092614e+01
   7.983174e+01   1.898287e+01
   4.977034e+01  -7.869771e+00
   7.931153e+01   8.605465e+01
   5.490959e+01   1.294164e+02
  -7.607071e+01   6.459076e+01
  -1.194111e+02  -2.645129e+01
  -1.251486e+02  -1.447740e+02
   3.709704e+01  -1.437507e+02
   8.055796e+01   3.771795e-01
   8.443561e+01   1.216197e+02
  -4.496678e+01   1.299656e+02
  -9.291348e+01   3.376488e+01
  -1.423486e+02  -4.288776e+01
  -6.930497e-02  -6.785137e+01
   2.936257e+01  -9.452971e+01
   8.448576e+01  -1.920932e+00
  -1.053011e+01  -3.994289e+01
  -8.002878e+01   1.420811e+01
  -3.147576e+01  -3.714020e+01
   1.627582e+02  -4.999211e+01
   1.323346e+02  -1.164907e+01
   4.395436e+01   6.811557e+01
  -1.283611e+01   1.017477e+02
  -4.771524e+01   6.932887e+01
  -4.201216e+01  -5.174858e+00
   3.157316e+01  -4.745390e+01
   9.069314e+00   8.825200e+00
   4.058580e+01  -1.105968e+01
   2.242886e+01   5.347738e+01
  -1.133403e+01   7.254263e+01
  -9.588256e+01  -3.864645e+01
  -3.941468e+01  -1.901855e+01
  -5.076470e+01   2.004740e+01
  -1.332508e+01  -1.106045e+01
  -5.563897e+01   2.539714e+01
   1.180084e+01  -7.178694e+01
  -1.336982e+01  -2.689991e+01
   6.739529e+01  -7.532994e+00
   1.840202e+01   4.607885e+01
  -3.191727e+01   7.250624e+01
  -7.973947e+01   7.000734e+01
  -6.196255e+01  -5.532637e+01
  -2.361553e+01  -4.346170e+01
   5.412964e+01  -5.589753e+01
   1.118699e+02  -4.133757e+01
   1.922485e+01   3.132043e+01
   5.004012e+00   6.451941e+01
  -1.585436e+01  -1.373898e+01
   1.701800e+01  -2.614414e+01
   1.049110e+02   2.405521e+01
   2.512178e+01   4.169585e+01
  -5.773379e+01   5.290306e+01
  -8.535267e+01   2.825168e+01
