
 $NMID
 id='ANONYMOUS ', fmtdat='(2E16.6)'
 volume=1.0
 tramp=1.0
 $END
   4.329711e+03  -1.385390e+02
   2.592000e+03   2.394556e+03
  -7.890085e+02   2.781303e+03
  -2.099348e+03   8.995450e+02
  -8.184948e+02  -6.224198e+02
   5.257868e+02  -4.204046e+02
   8.778514e+02   3.840343e+02
  -6.880535e+01   1.070301e+03
  -8.199759e+02   8.637337e+02
  -9.357217e+02  -1.426016e+02
  -4.501052e+02  -8.978532e+02
   2.542901e+02  -9.389426e+02
   6.219351e+02  -5.281697e+01
   4.258189e+02   6.338378e+02
  -1.795544e+02   7.477266e+02
  -7.335954e+02  -2.595503e+01
  -2.015021e+02  -7.078712e+02
   3.596745e+02  -6.308971e+02
   5.582085e+02  -4.670570e+01
   3.553978e+02   3.132519e+02
   4.664915e+01   4.800851e+02
  -2.694750e+02   3.274620e+02
  -2.348448e+02   1.371996e+00
   9.277524e+01  -1.188660e+02
   3.666966e+02   4.214662e+01
   2.050592e+02   4.507168e+02
  -4.847664e+02   3.817397e+02
  -8.934066e+02  -8.545284e+01
  -4.946862e+02  -5.393813e+02
   4.360066e+02  -5.375782e+02
   7.132167e+02   4.648352e+01
   3.597831e+02   4.814826e+02
  -2.620618e+02   4.814658e+02
  -5.581617e+02   2.288620e+02
  -3.524380e+02  -1.827161e+02
  -6.226098e+01  -4.930715e+02
   2.300645e+02  -2.908862e+02
   1.936693e+02   2.386021e+02
  -1.774918e+02   5.172340e+02
  -4.835905e+02   2.842109e+01
  -2.499301e+02  -6.476373e+02
   2.968957e+02  -6.811961e+02
   5.692464e+02  -2.543643e+01
   2.468516e+02   5.413269e+02
  -3.612017e+02   3.223983e+02
  -4.230095e+02  -3.851285e+02
   5.287901e+00  -5.695294e+02
   5.643192e+02  -9.825598e+01
   5.799451e+02   3.998279e+02
   2.051532e+02   5.314940e+02
  -3.803451e+02   3.335250e+02
  -6.662471e+02  -7.626663e+01
  -3.966141e+02  -3.286918e+02
   1.678646e+02  -3.874571e+02
   3.907424e+02  -1.647854e+01
   2.324719e+02   2.059764e+02
  -1.197322e+02   1.495817e+02
  -1.350320e+02  -1.510150e+02
   1.455125e+02  -2.263837e+02
   3.798144e+02   4.963188e+01
   1.408027e+02   4.018803e+02
  -2.633437e+02   2.678175e+02
  -3.720540e+02   5.319807e+01
  -2.191037e+02  -1.165717e+02
   2.081614e+01  -1.726345e+02
   2.171287e+02  -3.315839e+02
   3.641239e+02  -2.513777e+02
   2.205923e+02   1.124384e+02
   8.700303e+01   4.378194e+02
  -4.789465e+01   3.749513e+02
  -1.243210e+02   1.207414e+02
  -4.513583e+01  -3.059794e+01
   9.356856e+00   8.893646e+01
  -1.864745e+02   1.463594e+02
  -2.671904e+02  -2.345524e+01
  -2.286797e+02  -2.285393e+02
   5.530995e+01  -2.377637e+02
   2.046393e+02  -1.515935e+01
   1.957928e+02   2.090587e+02
   2.399779e+01   2.504048e+02
  -2.857341e+02   9.805418e+01
  -3.735529e+02  -1.551339e+02
  -1.768629e+02  -3.830022e+02
   1.152196e+02  -2.851459e+02
   3.078591e+02  -9.736213e+01
   1.834786e+02   2.369420e+00
   1.024592e+02  -1.211017e+01
   1.792775e+02  -4.028349e+01
   3.634883e+02   4.454754e+01
   3.632000e+02   2.618591e+02
   1.890171e+01   3.994916e+02
  -3.513349e+02   3.804178e+02
  -4.829122e+02   2.442567e+02
  -2.987893e+02  -7.693372e+01
  -4.047224e+01  -2.931516e+02
   1.430730e+02  -2.414661e+02
   6.417268e+01  -4.175959e+01
  -1.198049e+02   1.500811e+02
  -1.996312e+02  -1.575650e+01
  -3.918188e+01  -1.972509e+02
   1.658152e+02  -2.076863e+02
   2.175767e+02   7.460304e+01
  -3.997577e+01   2.019247e+02
  -1.604611e+02   5.743297e+01
  -1.386503e+02  -2.460519e+02
   2.618585e+01  -3.745332e+02
   2.137897e+02  -1.518413e+02
   2.765549e+02   1.278021e+02
   2.364810e+02   2.348008e+02
   1.011283e+02   2.250450e+02
  -1.470115e+02   1.482526e+02
  -1.618453e+02  -1.228670e+01
   6.186198e-01  -2.954443e+01
   1.042177e+02   7.557728e+01
   2.413724e+01   1.373668e+02
  -1.123652e+02   5.827229e+01
  -2.422524e+02  -1.054439e+01
  -6.480209e+01  -8.610473e+01
   6.401129e+01  -3.524389e+01
   4.427761e+01   1.049546e+02
  -1.330430e+02   8.349639e+01
  -2.737140e+02  -1.290619e+01
  -2.075303e+02  -1.483866e+02
  -2.201239e+01  -3.078437e+02
   1.638696e+02  -2.921054e+02
   2.927095e+02  -1.092550e+02
   2.058224e+02   7.172235e+01
  -1.572755e+01   1.154498e+02
  -5.391067e+01   1.968858e+01
  -1.365429e+01  -7.639008e+01
   1.761258e+02  -2.448127e+01
   2.078866e+02   1.163629e+02
   7.629875e+01   2.043769e+02
  -1.213393e+02   1.627303e+02
  -1.733667e+02   3.199976e+01
  -9.518813e+01  -4.211620e+01
   4.254690e+01  -1.482079e+01
   3.519004e+01   7.919969e+01
  -5.369833e+01   1.221458e+02
  -2.147854e+02   5.687192e+01
  -1.370930e+02  -8.841519e+01
  -1.956770e+01  -2.665130e+02
   1.665356e+02  -1.939165e+02
   1.964080e+02  -2.789938e+01
   6.035323e+01   1.570116e+02
  -6.631995e+01   1.365144e+02
  -6.967245e+01   5.192517e+01
  -3.535733e+01  -3.231691e+01
   2.650013e+01  -6.191531e+01
  -2.628461e+01  -3.042647e+01
  -6.924767e+01  -3.224130e+01
  -6.540543e+01  -5.379606e+01
  -3.186271e+01  -1.433776e+02
   1.073551e+02  -1.642923e+02
   1.928222e+02  -3.835823e+01
   2.217286e+02   1.561817e+02
   2.002634e+01   2.245981e+02
  -1.261078e+02   1.673224e+02
  -1.450856e+02   5.728425e+01
  -1.084551e+02  -8.818100e+01
  -5.458497e+01  -3.852888e+01
  -6.000451e+01   6.170160e+01
  -6.295692e+01   4.642481e+01
   7.098815e+00   3.038364e+00
   2.803451e+01  -7.563228e+01
   3.693475e+01  -8.912015e+01
   1.163877e+02  -1.333714e+01
   1.784266e+01   1.103247e+02
  -1.096814e+02   8.868629e+01
  -1.787357e+02   9.008556e+00
  -1.300252e+02  -2.268840e+02
   1.006220e+02  -1.613746e+02
   2.220443e+02  -9.442120e+01
   2.625847e+02   6.233497e+01
   8.886445e+01   1.525820e+02
  -3.589222e+01   1.404712e+02
  -1.227580e+02   1.164590e+02
  -5.386550e+01   1.071644e+02
  -1.274117e+02   8.505428e+01
  -6.797138e+01   4.651897e+01
  -1.186716e+02  -8.012189e+01
  -1.206873e+02  -1.574296e+02
   1.003919e+01  -2.327893e+02
   1.099970e+02  -1.559915e+02
   1.871089e+02  -1.850922e+01
   9.559025e+01   1.485364e+02
   7.765216e+00   1.768611e+02
  -6.471481e+01   1.145181e+02
  -2.656756e+01  -2.241806e+00
   1.353905e+01  -3.182231e+01
  -5.665068e+00  -9.095631e+00
  -4.671136e+01  -2.609681e+01
  -9.078690e+01  -3.754910e+01
  -3.294271e+01  -1.332264e+01
   6.737749e+01  -3.924509e+01
   1.828455e+02   5.654461e+00
   2.002552e+02   6.845286e+01
   3.493934e+01   6.564478e+01
  -1.220551e+02   6.829555e+01
  -1.663353e+02   2.380733e+01
  -6.682109e+01  -1.892743e+01
   7.804237e+01  -2.361771e+01
   5.037574e+01  -6.364237e-01
   3.582616e+01   7.356185e+01
  -6.386619e+01   3.309685e+01
  -7.039904e+01   1.604870e+01
  -2.298333e+01  -7.265666e+01
  -3.420114e+01  -6.640782e+01
  -4.205616e+01  -2.750282e+01
  -7.772100e+01  -3.472443e+01
  -4.754664e+01  -5.059235e+01
   4.349811e+01  -1.331974e+02
   1.024924e+02  -1.644451e+02
   1.685398e+02  -3.387206e+01
   1.508813e+02   6.052987e+01
  -3.909915e+01   9.442800e+01
  -7.248689e+01   3.322734e+01
  -8.267810e+01   1.744339e+01
   6.176992e+01   1.730029e+01
   1.306752e+02   3.766637e+01
   3.941499e+01   9.353480e+01
  -1.160198e+02   7.243699e+01
  -1.502432e+02   1.901585e+01
  -1.499506e+02   1.177690e+01
  -6.717533e+01  -1.089328e+02
   1.322891e+01  -1.188614e+02
   9.661261e+01  -4.701446e+00
   3.037027e+01   1.027570e+01
  -8.323637e+01   4.508444e+01
  -5.269886e+01  -1.199834e+02
   9.415844e+01  -1.339348e+02
   1.186059e+02  -6.805886e+01
   1.568249e+02   9.190316e+01
   3.679829e+01   1.931807e+02
  -1.122952e+02   1.338375e+02
  -1.293582e+02   3.831785e+01
  -7.063821e+01  -8.493177e+01
  -1.343010e+01  -1.158488e+02
   2.058023e+01  -1.481986e+01
   3.919178e+01   7.182476e+01
  -2.352421e+01   1.150938e+01
  -1.386324e+00   7.362044e+00
   6.651853e-01   2.394729e+01
   4.902910e+01   8.075882e+01
   5.623623e+01   1.275803e+02
  -1.584867e+01   4.078262e+01
  -1.296217e+02  -3.518802e+01
  -1.057145e+02  -7.577628e+01
   1.246133e+01  -4.485651e+01
   2.616165e+01  -2.646606e+01
   9.238904e+01   2.429678e+01
   2.971951e+01   4.218224e+01
  -1.563066e+01  -1.669239e+00
  -2.969876e+01   9.966041e+00
   5.755837e+01  -5.327463e+01
  -2.608460e+01   1.815132e+01
  -5.562816e+01   1.605673e+01
  -9.568254e+01   3.783925e+01
  -1.785836e+01  -8.976213e+01
   1.067018e+02  -1.387352e+02
   1.625749e+02  -2.997761e+01
   1.697762e+02   7.041446e+01
   4.625363e+01   1.427541e+02
  -4.232840e+01   1.262471e+02
  -9.290945e+01   4.516829e+01
  -8.945583e+01   1.668379e+01
  -1.905564e+01  -6.907442e+00
   2.088338e+01  -1.039650e+01
   5.719662e+00   1.003082e+01
  -6.938299e+01  -2.863527e+01
  -4.500889e+01  -1.118303e+02
   3.505806e+01  -4.983899e+01
   7.116719e+01   2.285867e+01
   2.091225e+01   6.803785e+01
  -2.517602e+00   8.261342e+01
  -6.944446e+01   2.436199e+01
  -8.871976e+01  -6.959950e+01
  -3.334136e+01  -1.147352e+02
   5.361815e+01  -4.824011e+01
   6.863490e+01   4.211947e+01
   9.307488e+01   7.031435e+01
  -1.931340e+01   3.329761e+01
  -5.302930e+01   5.455321e+01
   1.601980e+01  -1.125121e+01
   8.432760e+01  -1.480716e+01
   4.941408e+00   1.368108e+01
  -5.295180e+01  -5.635306e+00
  -1.197566e+02   5.813971e+01
  -7.757776e+01  -3.817757e+01
  -1.619141e+01  -1.152662e+02
   1.021631e+02  -8.084476e+01
   8.928740e+01  -1.830322e+01
  -3.828868e+00   6.736511e+01
   1.155484e+01   3.096152e+01
  -5.931400e+01  -1.680397e+01
  -3.789320e+01  -8.118016e+01
  -9.298946e+00  -4.037912e+01
   6.132855e+01  -4.887527e+01
   2.647358e+01   1.629289e+00
   5.789811e+01  -9.514312e+00
   1.896627e+01  -5.414784e+00
  -4.017344e+01   3.055913e+00
   4.069442e+01   1.438548e+00
   4.271949e-02   7.707645e+01
  -7.620663e+01   2.506708e+01
  -4.288233e+01  -5.292249e+01
   3.507992e+01  -7.053189e+01
   2.243262e+01  -1.268501e+01
   3.308111e+01   6.442111e+01
   1.930097e+01   6.601399e+01
  -8.614676e+01   2.477426e+01
  -9.245931e+01   3.851721e+00
  -2.718554e+01  -5.399534e+01
   5.954568e+01  -5.561384e+01
   3.496786e+01  -9.781818e+00
  -2.947703e+01  -4.003806e+01
  -3.095312e+01   2.720957e+00
  -5.628492e+01  -5.895043e+00
   1.561953e+01   2.754147e+01
   7.801412e+01  -4.950727e+01
