
 $NMID
 id='ANONYMOUS ', fmtdat='(2E16.6)'
 volume=1.0
 tramp=1.0
 $END
   3.956519e+03  -1.309218e+02
   2.577474e+03   2.391649e+03
  -4.484602e+02   2.745385e+03
  -1.941700e+03   1.053567e+03
  -1.096565e+03  -2.405652e+02
   3.350459e+02  -3.970614e+02
   7.276263e+02   3.666482e+02
   1.529381e+02   9.342428e+02
  -7.752734e+02   8.579003e+02
  -9.228091e+02  -4.335187e+00
  -4.650818e+02  -6.958170e+02
   1.516814e+02  -8.438971e+02
   6.135661e+02  -2.594610e+02
   2.641689e+02   6.529471e+02
  -1.898811e+02   7.878357e+02
  -6.629801e+02   5.861077e+01
  -3.059421e+02  -6.535998e+02
   2.892279e+02  -6.947965e+02
   5.719331e+02  -9.850660e+01
   4.457289e+02   3.249690e+02
   8.287486e+01   4.617447e+02
  -2.016082e+02   2.348719e+02
  -2.012998e+02   1.831986e+01
   2.382303e+02   4.988428e+01
   3.299761e+02   1.728784e+02
   1.463066e+02   3.776227e+02
  -5.072638e+02   3.439697e+02
  -8.294864e+02  -1.476696e+02
  -3.662550e+02  -5.092786e+02
   3.742702e+02  -4.952748e+02
   8.159526e+02   7.894545e+01
   2.987123e+02   4.676023e+02
  -3.127925e+02   4.675811e+02
  -4.615071e+02   1.528562e+02
  -3.972958e+02  -2.183332e+02
  -3.296315e+01  -4.996581e+02
   1.689110e+02  -2.558817e+02
   8.081280e+01   2.078862e+02
  -2.230020e+02   3.958917e+02
  -4.172895e+02  -3.474778e+01
  -1.361417e+02  -6.783514e+02
   3.479316e+02  -6.321120e+02
   5.399309e+02   1.259034e+01
   1.891316e+02   5.222793e+02
  -2.745650e+02   2.791293e+02
  -3.432474e+02  -3.150248e+02
   7.608431e+01  -5.370098e+02
   4.953265e+02  -1.472718e+02
   5.633242e+02   4.307680e+02
   1.967965e+02   6.415140e+02
  -3.392275e+02   3.427724e+02
  -6.597561e+02  -1.024983e+02
  -3.751061e+02  -3.535235e+02
   1.058329e+02  -3.096304e+02
   4.433335e+02  -8.751038e+01
   2.489440e+02   1.430668e+02
  -6.507119e+01   9.167959e+01
  -1.356228e+02  -1.343698e+02
   1.536262e+02  -1.947558e+02
   3.399464e+02   9.691071e+01
   1.651105e+02   3.237281e+02
  -2.246873e+02   2.558495e+02
  -3.587454e+02   1.331526e+02
  -2.294617e+02  -1.219765e+02
   4.914588e+01  -2.415081e+02
   2.456260e+02  -3.657455e+02
   3.219831e+02  -1.911643e+02
   2.701006e+02   1.372870e+02
   7.143814e+01   4.395602e+02
  -1.155131e+02   4.130783e+02
  -9.050757e+01   1.476379e+02
  -5.287869e+01   5.579082e+00
  -1.399063e+02   6.444096e+01
  -1.984143e+02   1.572440e+02
  -2.505290e+02  -3.181384e+01
  -9.748985e+01  -2.644850e+02
   9.377654e+01  -2.279964e+02
   2.110490e+02   4.511521e+00
   1.675366e+02   2.632851e+02
  -8.663997e+00   3.341157e+02
  -3.417626e+02   1.332954e+02
  -3.611819e+02  -1.939090e+02
  -1.758776e+02  -3.696799e+02
   5.751054e+01  -2.308515e+02
   2.004808e+02  -1.389718e+02
   1.610348e+02  -1.468663e+01
   9.988867e+01  -6.811399e+01
   2.376950e+02  -7.476820e+01
   3.687972e+02   4.250326e+01
   3.204406e+02   2.232815e+02
  -2.115766e+01   4.325282e+02
  -3.701883e+02   4.078892e+02
  -5.467652e+02   1.947799e+02
  -3.085749e+02  -9.608406e+01
  -1.747814e+01  -2.942130e+02
   1.678481e+02  -1.967851e+02
   4.015017e+01  -2.847815e+01
  -1.329923e+02   5.191148e+01
  -1.134591e+02  -4.491386e+01
  -3.324094e+01  -1.823487e+02
   1.696286e+02  -1.534239e+02
   1.441720e+02   9.136828e+01
   7.215383e+00   2.623508e+02
  -1.733556e+02   7.649128e+01
  -1.570932e+02  -2.213521e+02
  -2.374420e+01  -3.489357e+02
   1.980180e+02  -2.435726e+02
   2.877204e+02   2.756441e+01
   2.771964e+02   2.371311e+02
   9.950957e+01   2.334527e+02
  -1.061781e+02   1.234461e+02
  -1.399325e+02  -4.064301e+01
  -3.402603e+01   2.258582e+00
   6.625731e+01   8.623189e+01
   1.838577e+01   1.511944e+02
  -1.227752e+02   1.079614e+02
  -1.800873e+02  -3.596230e+01
  -7.566376e+01  -1.105594e+02
   8.031366e+01  -4.241978e+01
   8.217131e+01   1.262551e+02
  -1.175254e+02   8.987783e+01
  -2.516108e+02   2.626901e+01
  -3.057671e+02  -1.316145e+02
  -1.203403e+02  -2.508349e+02
   1.488032e+02  -2.537576e+02
   2.985345e+02  -1.252443e+02
   1.643193e+02   1.888910e+01
  -5.265948e+01   1.961881e+01
  -9.717396e+01  -1.248836e+01
   5.431616e+01  -1.534643e+02
   2.353865e+02  -7.775511e+01
   2.376373e+02   6.069923e+01
   9.437429e+01   2.480561e+02
  -7.904013e+01   1.752255e+02
  -1.685197e+02   2.414715e+01
  -8.104418e+01  -2.507006e+01
   1.236494e+01  -7.455155e+00
   9.400259e+00   6.023289e+01
  -9.090122e+01   8.468719e+01
  -2.095870e+02   2.760331e+01
  -2.234499e+02  -1.505449e+02
  -4.105464e+01  -2.325089e+02
   2.047925e+02  -1.683820e+02
   1.951276e+02   9.081714e+00
   3.674532e+01   1.545899e+02
  -6.303459e+01   6.581637e+01
  -1.044305e+02   2.489104e+01
  -5.377023e+00  -6.491124e+01
   4.687530e+01  -3.634870e+01
  -3.060304e+01   8.759994e+00
  -1.124677e+02   5.230477e+01
  -5.768030e+01  -7.671350e+01
   1.789038e+01  -1.882174e+02
   1.759662e+02  -1.178094e+02
   1.680044e+02  -2.374049e+01
   1.935858e+02   1.389799e+02
   6.409401e+01   2.255489e+02
  -4.288599e+01   1.588595e+02
  -1.120613e+02   2.088849e+01
  -8.304205e+01  -5.053479e+01
  -5.835538e+01   5.532391e+01
  -4.185979e+00   1.612126e+01
  -7.867094e+01   5.085022e+01
  -6.320119e+01   5.627996e-01
   5.986170e+00  -1.045308e+02
   4.767257e+01  -2.672520e+01
   8.345810e+01   1.846167e+01
  -6.795824e+00   9.424119e+01
  -1.406179e+02   3.434374e+01
  -1.701542e+02  -4.585031e+01
  -5.121843e+01  -1.830243e+02
   7.363134e+01  -2.060680e+02
   2.577509e+02  -6.751217e+01
   2.916576e+02   7.822888e+01
   8.102890e+01   1.602705e+02
  -3.145254e+01   1.199536e+02
  -5.203313e+01   8.060466e+01
  -9.335084e+01   4.557055e+01
  -3.478257e+01   1.019925e+02
  -9.249874e+01   8.741906e+01
  -1.291981e+02   1.978728e+01
  -1.393207e+02  -1.365360e+02
  -7.839076e+01  -2.640750e+02
   1.237205e+02  -1.756311e+02
   1.536048e+02  -2.954533e+01
   1.303631e+02   1.349620e+02
   4.448070e+01   1.294549e+02
  -5.133039e+01   9.165976e+01
  -6.672062e+01  -1.518106e+01
   2.118821e+01  -5.558217e+01
   4.123787e+01  -4.407032e+01
  -3.389442e+01  -6.681170e-01
  -3.665959e+01  -4.356098e+01
  -7.455425e+01  -7.463047e+01
   6.311293e+01  -6.843492e+00
   1.625305e+02  -1.434561e+01
   1.591025e+02   3.698722e+01
   2.512448e+01   1.043007e+02
  -1.288024e+02   9.453765e+01
  -1.650989e+02   5.776535e+01
  -3.155274e+01  -4.625514e+01
   2.285982e+01  -5.860230e+01
   4.936327e+01   2.987117e+01
   2.743340e+01   7.525060e+01
  -7.818459e+01   1.215521e+02
  -7.917911e+01  -2.991773e+01
  -3.549606e+01  -1.175994e+02
  -8.907528e+00  -6.923727e+01
   1.462793e+00   9.423336e+00
  -3.710841e+01   1.893186e+01
   6.157238e+00   1.826206e+00
   4.748449e+00  -8.410156e+01
   6.438098e+01  -1.461958e+02
   1.568362e+02  -5.356412e+01
   1.153587e+02   1.143983e+02
   2.293098e+01   1.672011e+02
  -8.586415e+01   6.952139e+01
  -5.122432e+01   1.944513e+01
   6.172954e+01   1.031263e+01
   1.365729e+02   4.542491e+01
   7.424907e+01   8.522521e+01
  -7.481322e+01   1.090781e+02
  -1.501910e+02   8.607615e+01
  -1.706550e+02  -4.536070e+00
  -2.772734e+01  -7.192120e+01
   5.093220e+01  -5.654577e+01
   4.665231e+01  -1.891927e+01
  -7.699834e+00   1.715479e+01
  -2.653055e+01  -3.848299e+01
  -5.209490e+01  -7.898392e+01
   9.011025e+01  -1.411040e+02
   1.943878e+02  -1.029093e+02
   1.050416e+02   6.539692e+01
   5.328379e+01   1.985971e+02
  -6.244574e+01   1.667540e+02
  -8.934757e+01  -2.489314e+01
  -2.301613e+01  -8.290736e+01
   2.781811e+01  -1.121597e+02
   1.768085e+01   2.336476e+01
   5.822203e+01   8.055216e+01
  -4.050861e+01  -1.671719e+01
   4.421788e+00  -1.936171e+01
   3.138177e+01  -1.655277e+01
   9.901383e+01   6.222156e+01
   8.682589e+01   1.409961e+02
  -4.126628e+01   1.024672e+02
  -1.274201e+02  -3.414025e+01
  -1.298618e+02  -5.501732e+01
  -3.103234e+01   1.307596e+01
   8.310673e+01   2.619706e+01
   1.093685e+02   2.015676e+01
  -5.405034e+01   2.612788e+01
  -6.058885e+01   1.981537e+01
  -2.619433e+01   1.817553e+01
   3.229808e+01  -2.596941e+01
   4.744786e+01  -2.795495e+01
  -2.326742e+01   4.063636e+00
  -8.217858e+01  -2.988461e+01
  -1.692685e+01  -4.421947e+01
   1.372855e+02  -8.681926e+01
   2.271145e+02  -9.424827e+01
   1.394590e+02   8.753770e+01
   3.812952e+01   1.421592e+02
  -6.882114e+01   1.668247e+02
  -1.046076e+02   5.799490e+01
  -4.985332e+01  -3.973863e+01
  -6.513092e+01  -4.961318e+01
  -1.722747e+01  -1.851592e+00
  -1.899941e+01   2.118522e+01
  -2.146455e+01  -3.495702e+01
  -3.596553e+01  -8.394620e+01
  -5.446271e+00  -7.706486e+01
   7.308101e+01   2.052784e+01
   5.279002e+01   1.230199e+02
  -4.801181e+00   1.365238e+02
  -1.295541e+02  -1.854916e+01
  -1.764234e+02  -6.928524e+01
  -3.697391e+01  -1.125609e+02
   3.913499e+01  -6.878390e+01
   8.520223e+01  -1.922651e+01
   3.412551e+01   3.275135e+01
  -3.153581e+01   1.060238e+01
  -3.390043e+01   4.936873e+01
   3.332052e+01   1.738916e+01
   1.189677e+02  -1.542205e+01
   3.444905e+01   6.766862e+01
  -8.907300e+01   7.989849e+01
  -7.913277e+01   3.191607e+01
  -3.530025e+01  -1.862940e+01
   2.233622e+01  -7.883300e+01
   4.540220e+00  -7.065673e+01
   7.191377e+00  -2.196404e+01
   1.950583e+01   4.714751e+01
   2.290398e+00   5.354206e+01
  -8.935161e+00  -1.446479e+01
  -3.848563e+01  -7.294323e+00
  -3.838716e+01  -2.203114e+01
   1.602379e+01   8.255957e+00
   6.926734e+01  -2.801459e+01
   5.314761e+01  -6.689449e+01
  -7.248314e+00  -2.546841e+01
   2.525539e+01   3.167374e+01
  -4.758517e+01   2.016462e+01
  -1.761195e+00  -3.706773e+00
   1.246286e+01   2.810955e+01
  -7.047996e+01  -1.498168e+01
  -1.664221e+01  -2.196986e+01
   2.055606e+01  -8.438080e+00
   6.926317e+01   7.227491e+01
   5.991466e+00   2.823811e+01
  -8.886137e+01  -1.477856e+01
  -9.722803e+01  -1.842864e+01
  -2.269056e+01  -3.869985e+01
   4.415074e+01  -8.272662e+01
   2.859206e+01  -6.893299e+01
   3.081568e+01  -1.885068e+01
   3.049671e+00  -1.429848e+01
   3.654498e+00  -3.977957e+00
   2.437166e+01  -3.533506e+01
   6.386043e+01  -4.372192e+01
