
 $NMID
 id='ANONYMOUS ', fmtdat='(2E16.6)'
 volume=1.0
 tramp=1.0
 $END
  -4.143771e+03   6.799853e+01
  -2.560388e+03  -2.689227e+03
   6.985091e+02  -2.908221e+03
   2.314027e+03  -9.626993e+02
   1.048286e+03   5.976528e+02
  -6.096679e+02   7.019022e+02
  -1.010720e+03  -3.883575e+02
  -1.070603e+02  -1.217740e+03
   8.418214e+02  -9.138814e+02
   9.951754e+02   1.222332e+02
   4.851353e+02   9.275159e+02
  -1.894172e+02   9.524874e+02
  -6.747588e+02   2.278860e+02
  -3.549077e+02  -7.598669e+02
   3.064940e+02  -7.947609e+02
   7.119725e+02   1.807130e+01
   3.786496e+02   6.491628e+02
  -3.311742e+02   6.751141e+02
  -6.847531e+02   1.470991e+02
  -4.375606e+02  -3.397938e+02
  -3.148148e+01  -5.165691e+02
   2.655445e+02  -2.918801e+02
   2.439251e+02  -1.188557e+01
  -1.315378e+02   4.463690e+01
  -4.348175e+02  -6.605841e+01
  -1.844142e+02  -4.198665e+02
   5.016046e+02  -4.178351e+02
   8.836626e+02   1.256500e+02
   4.209363e+02   6.153921e+02
  -4.498938e+02   5.716931e+02
  -7.615220e+02  -4.055816e+01
  -3.871249e+02  -5.119175e+02
   3.041148e+02  -5.058953e+02
   6.360402e+02  -1.586920e+02
   4.139565e+02   2.569198e+02
   4.918043e+01   4.539891e+02
  -2.072769e+02   3.047940e+02
  -1.409669e+02  -2.011069e+02
   1.443068e+02  -4.371238e+02
   4.305911e+02  -4.345392e+01
   3.063343e+02   6.923520e+02
  -3.318344e+02   7.428095e+02
  -6.266292e+02   4.243178e+01
  -3.048775e+02  -5.230563e+02
   2.941448e+02  -3.335714e+02
   3.669294e+02   3.247055e+02
  -5.116816e+01   5.655547e+02
  -5.455915e+02   1.814133e+02
  -6.247924e+02  -4.064666e+02
  -2.186568e+02  -6.262204e+02
   4.080702e+02  -3.693380e+02
   7.092885e+02   8.112490e+01
   4.443615e+02   3.879986e+02
  -1.725958e+02   3.688731e+02
  -5.047983e+02   6.704917e+01
  -2.878736e+02  -1.779554e+02
   1.240543e+02  -1.704151e+02
   1.705604e+02   1.419544e+02
  -1.378708e+02   2.686107e+02
  -3.406361e+02  -3.228268e+01
  -2.110603e+02  -3.149234e+02
   1.977960e+02  -2.728566e+02
   3.810414e+02  -1.035472e+02
   1.914108e+02   1.427934e+02
  -1.988645e+01   2.151780e+02
  -2.070527e+02   2.802137e+02
  -3.026982e+02   1.960144e+02
  -3.025138e+02  -1.643570e+02
  -9.798632e+01  -4.154948e+02
   1.549043e+02  -3.754838e+02
   1.443567e+02  -1.411719e+02
   7.831171e+00   5.692091e+00
   4.838673e+01  -1.089646e+02
   2.272337e+02  -1.677876e+02
   2.839863e+02   5.781755e+01
   1.893280e+02   3.046032e+02
  -8.246466e+01   2.828461e+02
  -2.231441e+02  -9.837231e+00
  -2.205311e+02  -2.191736e+02
  -2.103268e+01  -2.742885e+02
   2.786475e+02  -1.588482e+02
   3.761995e+02   1.453231e+02
   1.915892e+02   3.808141e+02
  -1.118466e+02   3.644944e+02
  -2.132625e+02   1.303922e+02
  -1.661004e+02   2.225798e+01
  -9.873731e+01   3.809623e+01
  -2.541732e+02   8.249541e+01
  -4.605070e+02  -1.508843e+01
  -3.724103e+02  -3.053105e+02
  -7.652923e+00  -4.649398e+02
   3.976882e+02  -4.165426e+02
   4.784735e+02  -2.058053e+02
   3.521699e+02   1.378605e+02
   7.015443e+01   2.685442e+02
  -1.134753e+02   2.937862e+02
  -5.503782e+01   2.532832e+01
   1.098951e+02  -1.096490e+02
   2.252971e+02  -2.457907e+01
   7.491921e+01   1.766838e+02
  -1.575914e+02   2.681619e+02
  -1.513519e+02  -5.035366e+01
   1.085971e+01  -2.283929e+02
   2.297524e+02  -9.415905e+01
   1.804234e+02   2.909596e+02
  -1.636750e+01   3.517119e+02
  -2.757232e+02   2.513028e+02
  -3.772648e+02  -3.637573e+01
  -2.663871e+02  -2.299821e+02
  -9.932312e+01  -3.053269e+02
   1.023926e+02  -2.086292e+02
   1.312975e+02  -2.200154e+01
   1.515712e+01   4.166246e+01
  -5.423774e+01  -4.304313e+01
   2.273092e+01  -1.442628e+02
   1.148579e+02  -1.678115e+02
   1.656236e+02   8.369856e+00
   1.978898e+01   4.394351e+01
  -4.030103e+01   1.722904e+01
  -8.540263e+01  -5.973224e+01
   1.144268e+02  -1.220102e+02
   2.472733e+02  -2.325766e+00
   3.099902e+02   1.676812e+02
   5.780524e+01   2.538148e+02
  -1.985057e+02   2.377645e+02
  -2.721565e+02   8.746403e+01
  -1.836485e+02  -7.221698e+01
   1.062577e+01  -7.035149e+01
   8.751914e+01  -3.095148e+01
  -4.312818e+01   1.351099e+02
  -1.692017e+02   2.565693e+01
  -2.245711e+02  -9.394589e+01
  -8.187532e+01  -2.208404e+02
   9.708873e+01  -1.898620e+02
   8.865629e+01  -7.048473e+01
   3.764365e+01   2.823595e+01
  -2.212918e+01  -5.519243e+01
  -2.498464e+01  -1.097736e+02
   1.115378e+02  -9.481493e+01
   2.654945e+02  -2.719655e+01
   1.953624e+02   1.237851e+02
   1.803077e+01   2.615399e+02
  -1.391548e+02   1.552866e+02
  -1.710593e+02   2.113494e+01
  -3.515644e+01  -1.165721e+02
   5.645004e+01  -9.984475e+01
   8.172850e+01   1.166075e-01
   9.087395e+00   2.655828e+01
   2.946758e+01   3.033372e+01
   6.335270e+01  -2.381292e+01
   8.483889e+01  -5.759405e+00
   1.140626e+02   1.172123e+02
   1.242508e+01   1.642663e+02
  -1.391683e+02   2.047211e+02
  -2.237555e+02   2.381042e+01
  -1.655100e+02  -1.414622e+02
  -2.613851e+01  -2.326755e+02
   9.502106e+01  -1.699536e+02
   1.481656e+02  -6.571612e+01
   1.143036e+02   6.453766e+01
   5.555088e+01   7.022725e+01
   5.160980e+01   4.010868e+01
   5.455929e+01   6.045846e+01
   4.171401e+01   4.828020e+01
  -5.754551e+01   4.055608e+01
  -1.231856e+02   2.074836e+01
  -7.219540e+01  -6.368329e+01
   4.438312e+01  -7.485510e+01
   1.537513e+02  -2.014055e+01
   1.555222e+02   5.983151e+01
   6.471736e+01   2.115093e+02
  -1.063559e+02   1.994657e+02
  -2.586531e+02   1.328362e+02
  -2.401444e+02  -8.746652e+01
  -1.281940e+02  -1.812152e+02
   1.469479e+01  -1.726435e+02
   7.709689e+01  -8.555434e+01
   4.145008e+01  -5.367288e+01
   5.478964e+01  -9.841217e+01
   1.076882e+02  -9.757071e+01
   1.434818e+02  -4.383006e+00
   6.911894e+01   1.677081e+02
   3.254690e+01   2.346500e+02
  -4.423268e+01   2.007905e+02
  -1.912071e+02   2.544796e+01
  -1.681924e+02  -9.641145e+01
  -2.959568e+01  -1.548908e+02
   4.516508e+01  -9.139741e+01
   6.342806e+01  -3.920292e+01
  -3.620681e+01   5.028761e+00
  -3.717364e+00  -2.431637e+01
   2.387805e+01   2.364076e+01
   1.208035e+02   3.551584e+01
   5.345958e+01   4.501352e+01
  -3.550798e+01   1.631667e+01
  -1.925744e+02  -2.054142e+01
  -1.314639e+02  -5.300243e+01
  -2.067179e-01  -9.737083e+01
   1.092021e+02  -8.957925e+01
   1.516389e+02  -1.648455e+01
  -6.924896e+00   5.595902e+01
  -8.744319e+01  -4.027539e+00
  -8.537331e+01  -5.687010e+01
   7.836138e+00  -9.013619e+01
   7.745158e+01  -9.150580e+01
   7.845555e+01   1.502664e+01
  -1.481172e+00   7.594157e+01
   4.254576e+01   1.723126e+01
   5.184854e+01  -1.341909e+01
   3.621280e+01  -1.974096e+01
   2.422548e+01   6.257684e+01
  -2.406313e+01   1.272534e+02
  -7.386263e+01   1.712905e+02
  -1.497475e+02   2.927169e+01
  -1.269802e+02  -6.097686e+01
   3.650950e+01  -1.355751e+02
   9.301576e+01  -6.502880e+01
   6.448132e+01  -4.266731e+00
  -6.737560e+01   3.501760e+01
  -1.114316e+02  -1.711711e+01
  -6.124159e+01  -8.277249e+01
   7.865831e+01  -1.279997e+02
   1.928588e+02  -5.721049e+01
   1.905193e+02   4.458356e+01
   5.225291e+01   1.133579e+02
  -7.827156e+01   7.329773e+01
  -2.700362e+01   1.059468e+01
   5.996984e+01  -9.834928e+00
   1.028535e+02   6.102152e+01
   2.770757e+01   1.336280e+02
  -1.477629e+02   1.372222e+02
  -2.247499e+02   1.415141e+02
  -1.707789e+02  -8.867041e+01
  -5.990415e+00  -2.079569e+02
   1.176573e+02  -1.787987e+02
   6.407436e+01   3.318385e+00
   3.736290e+01   9.246665e+01
   3.148652e+01   1.028609e+02
  -1.336436e+01  -1.131189e+01
  -5.433992e+01  -4.722254e+01
  -2.658229e+01   3.463002e+01
  -3.101005e+01   3.251963e+01
  -6.546143e+00   4.711812e+01
  -1.105483e+02  -8.106752e+01
  -7.350274e+01  -1.380888e+02
   1.716742e+01  -5.993198e+01
   1.422459e+02   3.923512e+01
   8.314651e+01   4.300873e+01
  -1.518790e+01   4.077705e+01
  -8.859921e+01   3.403822e+01
  -7.203348e+01  -1.194578e+01
   1.819004e+01   1.646340e+01
  -1.460134e+01  -7.960730e+00
   3.085923e+01   2.691864e+01
  -1.909966e+01  -2.751787e+01
  -1.394021e+01   3.203615e+01
   3.803005e+01  -2.741650e+01
   7.765716e+01   4.244013e+01
   5.891051e+01   9.597342e+01
  -8.003201e+01   1.031959e+02
  -2.041606e+02   4.291632e+01
  -1.407903e+02  -7.849377e+01
  -3.514972e+01  -1.836243e+02
   1.100683e+02  -1.688372e+02
   1.039199e+02  -6.155575e+01
   7.630374e+01   1.245934e+01
   3.587153e+01   1.998431e+01
   1.239674e+01   4.836687e+01
   1.047201e+01  -2.107786e+01
   3.860603e+01   3.217508e+01
  -2.971521e+00   6.943722e+01
  -1.106765e+01   6.584868e+01
  -1.141342e+02   2.746528e+01
  -7.357646e+01  -9.435822e+01
   3.211057e+01  -1.006976e+02
   4.699957e+01  -2.236276e+01
   1.141272e+02   4.184880e+01
   2.794493e+01   7.965534e+01
  -4.020022e+01   2.354466e+01
  -8.714167e+01   1.811189e+01
  -2.716429e+01  -3.566682e+01
   5.188654e+01  -4.538615e+01
   4.208018e+01  -1.012968e+01
  -3.556887e+01   2.299468e+01
  -5.819045e+01   5.478271e+01
   1.540627e+01  -3.199287e+01
   1.094568e+02  -6.751018e+01
   1.112430e+02  -4.890731e+01
   5.923608e+01   5.050732e+01
  -3.604098e+01   9.619962e+01
  -6.440225e+01   5.913049e+01
  -2.076091e+01  -2.859609e+01
   2.971572e+01  -4.983870e+01
   3.504534e+01  -4.583399e+01
   3.407879e+01   4.109576e+01
   1.057866e+01   6.202315e+01
  -1.295058e+01   5.331755e+01
  -3.925240e+01   1.829210e+01
  -3.468751e+01  -1.210123e+01
  -3.334624e+01   1.232175e+01
  -3.313138e+01   3.606112e+00
   2.440160e+01  -5.917968e+00
   1.183377e+01  -4.708281e+01
   5.331856e+01  -8.103437e+01
   8.239143e+01   2.021698e+01
   5.473638e+01   1.023783e+02
  -5.859380e+00   9.327058e+01
  -6.871874e+01   2.904962e+01
  -5.345725e+01  -8.163146e+01
  -1.430337e+00  -7.917493e+01
   6.906407e+01   8.537261e+00
   7.298298e+01   2.035330e+01
   3.526866e+01   6.217281e+01
  -4.702464e+01   2.434418e+01
  -5.931362e+01   1.938969e+01
   1.021457e+01   2.932139e+00
   3.012635e+01   1.813349e+01
   3.343183e+01  -1.728222e+00
  -2.606012e+01   2.789416e+01
  -1.127478e+02  -1.594294e+01
