
 $NMID
 id='ANONYMOUS ', fmtdat='(2E16.6)'
 volume=1.0
 tramp=1.0
 $END
  -3.935287e+03   1.807463e+02
  -2.558340e+03  -2.367060e+03
   6.403672e+02  -2.776602e+03
   2.183069e+03  -7.276577e+02
   9.639290e+02   6.263343e+02
  -6.258973e+02   7.002293e+02
  -7.921850e+02  -4.119369e+02
   7.262739e+01  -1.166143e+03
   7.891095e+02  -7.069303e+02
   9.312378e+02   7.638143e+01
   4.427085e+02   8.695257e+02
  -9.686682e+01   8.971695e+02
  -5.682316e+02   2.005005e+02
  -3.502866e+02  -7.624111e+02
   2.562618e+02  -7.267431e+02
   6.153049e+02  -4.039354e+01
   3.770084e+02   6.732961e+02
  -3.882909e+02   7.129656e+02
  -5.702785e+02   1.791160e+01
  -3.479034e+02  -3.136778e+02
   4.328337e+01  -4.022523e+02
   2.988675e+02  -2.989936e+02
   2.505064e+02   8.470706e+00
  -1.477241e+02  -2.305703e+01
  -4.317212e+02  -1.676382e+02
  -1.510307e+02  -4.378508e+02
   5.201431e+02  -3.730771e+02
   8.096515e+02   1.202305e+02
   3.882369e+02   5.611846e+02
  -4.383126e+02   5.086375e+02
  -7.551981e+02  -1.067261e+02
  -3.514660e+02  -5.264516e+02
   2.697083e+02  -5.034614e+02
   5.538660e+02  -1.532522e+02
   3.983035e+02   2.905464e+02
   6.591585e+01   4.561068e+02
  -2.261555e+02   2.817236e+02
  -1.899147e+02  -2.185614e+02
   1.329129e+02  -4.495785e+02
   4.215225e+02   1.751794e+01
   2.294906e+02   6.995642e+02
  -3.609525e+02   6.935287e+02
  -6.174104e+02  -7.675514e+00
  -2.028096e+02  -5.699470e+02
   3.413926e+02  -3.842159e+02
   4.232937e+02   2.764002e+02
  -1.211679e+02   5.221353e+02
  -5.985016e+02   1.177913e+02
  -5.296019e+02  -4.369612e+02
  -1.232936e+02  -5.971814e+02
   4.125201e+02  -3.494174e+02
   6.620398e+02   6.457817e+01
   4.034943e+02   3.962477e+02
  -1.254973e+02   3.747865e+02
  -4.829031e+02   2.860762e+01
  -2.947122e+02  -2.229643e+02
   1.085445e+02  -1.374242e+02
   1.857494e+02   1.757760e+02
  -1.086303e+02   2.155050e+02
  -3.027313e+02  -6.005591e+01
  -1.020272e+02  -2.933433e+02
   2.158423e+02  -2.598622e+02
   2.921171e+02  -7.080452e+01
   1.915109e+02   5.506419e+01
  -5.185948e+01   1.732809e+02
  -2.340868e+02   2.758106e+02
  -3.657189e+02   2.199491e+02
  -3.004227e+02  -1.363021e+02
  -9.856991e+01  -4.351900e+02
   1.193997e+02  -4.026999e+02
   7.990321e+01  -1.411574e+02
   5.472976e+01  -4.958728e+01
   1.083263e+02  -1.168681e+02
   2.359828e+02  -6.576969e+01
   2.849223e+02   1.040557e+02
   1.861211e+02   2.850494e+02
  -8.258706e-01   2.727647e+02
  -2.499275e+02  -3.740913e+00
  -1.807486e+02  -2.509335e+02
  -3.809144e+01  -3.301623e+02
   2.222399e+02  -1.304489e+02
   3.226006e+02   1.499314e+02
   1.957857e+02   3.294495e+02
  -9.457975e+01   3.185381e+02
  -2.007887e+02   9.674309e+01
  -1.614012e+02  -2.556791e+01
  -7.388325e+01   8.805766e+00
  -2.352192e+02   5.330635e+01
  -3.568331e+02  -7.963197e+01
  -3.409552e+02  -3.401243e+02
   3.397419e+01  -4.385337e+02
   4.100794e+02  -3.784501e+02
   5.089063e+02  -1.974760e+02
   3.344923e+02   1.147602e+02
   2.605430e+01   2.653139e+02
  -1.452377e+02   2.188031e+02
  -9.831470e+01   6.557670e+01
   1.184343e+02  -4.876817e+01
   2.239086e+02   1.787896e+01
   4.680271e+01   2.087258e+02
  -1.799495e+02   1.693221e+02
  -2.018554e+02  -4.178122e+01
   2.202670e+00  -2.021387e+02
   1.776786e+02  -5.259009e+01
   1.147208e+02   2.052929e+02
  -2.585494e+01   3.274965e+02
  -2.830043e+02   1.679716e+02
  -3.136561e+02  -1.087970e+02
  -2.336338e+02  -2.889163e+02
  -5.304972e+01  -2.500055e+02
   1.241389e+02  -1.439992e+02
   1.424016e+02   1.688829e+01
   2.119408e+01   9.729325e+01
  -6.944161e+01  -5.769029e+01
  -6.004362e+01  -1.759711e+02
   1.644916e+02  -1.123883e+02
   2.167767e+02   3.695438e+01
   5.255807e+01   6.676434e+01
  -1.099685e+02  -7.355507e+00
  -1.003934e+02  -1.187933e+02
   9.705746e+01  -5.679730e+01
   2.528620e+02   3.177517e+01
   2.537663e+02   1.596069e+02
   3.989709e+01   2.338846e+02
  -2.300716e+02   2.464786e+02
  -2.560616e+02   1.173646e+02
  -1.170500e+02  -9.620291e+01
   3.987350e+01  -7.862794e+01
   1.341054e+02   1.677389e+01
  -3.034509e+01   1.209866e+02
  -2.130563e+02   4.680045e+01
  -2.084257e+02  -1.288850e+02
  -4.418375e+01  -2.294072e+02
   8.708744e+01  -1.542250e+02
   1.328324e+02  -4.817938e+01
   8.721261e+01   6.621568e+01
  -2.151493e+01   2.030493e-01
  -3.614527e+01  -1.183069e+02
   7.430997e+01  -1.210013e+02
   2.169257e+02  -6.345514e+01
   1.811032e+02   1.279997e+02
   1.072536e+02   2.268504e+02
  -1.164346e+02   1.487814e+02
  -1.522762e+02   8.521515e+01
  -8.025160e+01  -9.846932e+01
   2.507876e+01  -6.511986e+01
   3.656874e+01   7.656384e+00
  -4.054594e+00   2.960478e+01
  -1.450848e+01  -8.846655e+00
  -1.944098e+01  -7.236020e+01
   3.828787e+01   2.159994e+00
   1.031280e+02   8.282468e+01
   2.640900e+01   1.798313e+02
  -1.280144e+02   9.070215e+01
  -1.696713e+02  -2.422583e+01
  -1.337418e+02  -1.391868e+02
  -1.784229e+01  -2.311600e+02
   9.476653e+01  -1.561322e+02
   1.315980e+02  -3.285969e+01
   1.156755e+02   6.217027e+01
   1.244772e+01   6.079357e+01
   6.108720e+01  -3.093089e+01
   7.625678e+01   3.242726e+01
   1.292878e+01   4.765879e+01
  -6.785746e+01   8.587816e+01
  -1.583378e+02   3.065462e+01
  -9.579924e+01  -2.359955e+01
   2.321452e+01  -7.700426e+01
   1.042831e+02  -6.287924e+01
   1.847921e+02   4.738219e+01
   1.431371e+02   1.498375e+02
  -9.314913e+01   2.308520e+02
  -1.800630e+02   1.089441e+02
  -2.706946e+02  -8.848728e+01
  -1.232856e+02  -1.878087e+02
   1.958767e+01  -1.820226e+02
   6.846448e+01  -7.093138e+01
   7.525639e+01  -8.553537e+01
   9.533573e+01  -1.591700e+02
   1.332180e+02  -1.634726e+02
   1.191452e+02  -3.656542e+01
   1.059028e+02   1.412640e+02
   2.656657e+01   1.908583e+02
  -7.680023e+01   1.510973e+02
  -1.271308e+02   2.737792e+01
  -1.345785e+02  -8.881936e+01
  -3.798990e+01  -1.434849e+02
   6.388868e+01  -7.063553e+01
   7.772728e+01   5.875448e+01
  -3.568677e+01   5.936409e+01
  -3.454552e+01   3.948518e+01
   4.943426e+01   2.255607e+01
   3.152618e+01  -2.846969e+00
  -2.442575e+01   1.425122e+01
  -1.018422e+02   2.477382e+01
  -1.436082e+02  -4.963887e+01
  -1.286975e+02  -3.807019e+01
  -3.890693e+01  -1.131317e+02
   1.154251e+02  -1.005661e+02
   9.455922e+01  -7.689166e+01
   6.213709e+01   5.992829e+01
  -2.889100e+01   7.706556e+01
  -5.472923e+01   4.085859e+01
  -2.301493e+01  -8.442268e+01
   2.878841e+01  -1.162722e+02
   8.521615e+01   1.928172e+01
   3.156525e+01   6.810273e+01
   2.347111e+01   5.851395e+01
   6.614150e+01  -2.313390e+01
   5.238264e+01  -3.578507e+01
   4.975860e+01   9.642966e+01
  -2.482935e+00   1.288018e+02
  -9.006070e+01   1.840276e+02
  -1.593213e+02   2.605035e+01
  -1.461002e+02  -9.459544e+01
   3.617242e-01  -1.009909e+02
   9.733921e+01  -6.499596e+01
   1.334235e+02   5.805269e+01
  -1.082681e+02   6.310641e+01
  -2.036143e+02  -2.849653e+01
  -6.283119e+01  -5.440415e+01
   8.118443e+01  -9.617685e+01
   2.282320e+02  -1.615429e+01
   1.238810e+02   5.674693e+01
  -1.569175e+01   8.830771e+01
  -7.407816e+01   6.329018e+01
  -4.012265e+01  -5.848873e+01
   2.375135e+01  -4.291099e+01
   1.363069e+02   2.245584e+00
   5.769404e+01   1.113101e+02
  -6.947468e+01   1.446372e+02
  -1.641125e+02   1.952909e+01
  -1.547832e+02  -1.274520e+02
  -1.103129e+01  -1.867393e+02
   8.318991e+01  -1.707833e+02
   1.041770e+02  -1.300472e+01
   6.002859e+01   1.278813e+02
  -5.664135e+01   1.373561e+02
  -8.538034e+01   3.672929e+01
  -4.834945e+01  -2.756582e+01
  -2.351794e+01   2.082836e+01
  -3.370837e+00   4.326739e+01
  -5.180471e+01  -1.889454e+01
  -8.541528e+01  -8.925356e+01
  -3.247121e+01  -1.213247e+02
   4.161328e+01  -6.322732e+01
   1.289022e+02   2.248560e+01
   1.127280e+02   4.594961e+01
   2.078639e+01   4.522430e+00
  -7.127587e+01   1.773455e+01
  -8.097285e+01  -1.749004e+01
   2.695834e+01  -5.195904e+01
   6.641638e+01  -9.767112e-01
   4.714241e+00  -2.989140e+01
  -1.764815e+01   3.292329e+01
   4.224756e+01   8.392128e+00
   9.704711e+01  -1.946154e+01
   8.587360e+01  -5.644790e+00
  -3.959314e+01   5.658021e+01
  -1.239588e+02   1.207595e+02
  -1.767920e+02   4.468976e+01
  -9.867916e+01  -4.027301e+01
   1.834503e+01  -1.479335e+02
   8.661496e+01  -1.193712e+02
   7.743463e+01  -6.261472e+01
   7.035577e+01  -1.947863e+01
   5.033846e+01   3.206900e+01
  -4.156642e+00  -5.000824e+00
   1.716284e+01  -3.673425e+00
   3.010271e+01   6.423723e+01
  -1.724448e+01   9.207607e+01
  -5.001881e+01   6.655197e+01
  -8.106431e+01  -5.613576e+01
  -4.248707e+01  -1.451743e+02
   1.016509e+01  -1.350020e+02
   2.471765e+01  -2.844878e+01
   1.018228e+02   1.030975e+02
   6.559270e+01   5.723220e+01
  -5.400604e+01   8.576952e+01
  -8.142506e+01  -1.024013e+01
  -3.629470e+01  -1.088835e+02
   7.482467e+01  -2.202915e+01
   4.614427e+01  -7.931844e+00
  -8.681863e+01   8.791959e+00
  -9.755963e+01   7.086652e+00
  -9.833767e+00   2.712148e+01
   6.524247e+01  -5.159111e+01
   8.723912e+01  -1.621420e+01
   1.417072e+01  -1.761651e+01
  -1.737604e+01   7.542606e+01
  -4.330940e+01   8.512000e+01
  -4.037340e+01   1.468740e+01
   1.410956e+00  -3.802481e+01
   1.422414e+01  -6.965481e+01
   2.222194e+01   6.608780e+01
  -3.422757e+00   6.518890e+01
  -7.038780e+01  -2.392017e+01
   3.227026e-01  -4.003474e+01
   8.263329e+00  -6.165500e-01
  -9.048671e+00  -8.020351e+00
  -1.838492e+01   2.317782e+01
   1.498602e+01  -7.049135e+00
   2.225402e+01  -6.309349e+01
   2.573292e+01  -3.745998e+01
   4.337905e+01   7.127889e+00
   4.447791e+01   3.709943e+01
  -6.950190e+00   2.907996e+01
  -6.868930e+01   3.999608e+01
  -7.032892e+01  -7.627205e+01
  -1.415357e+01  -9.385565e+01
   7.591071e+01  -1.900388e+01
   1.252933e+02  -3.885528e+01
   3.951648e+01   8.293298e+01
  -1.036763e+02   3.600937e+01
  -8.386969e+01   2.838970e+01
  -4.569105e+01   2.118800e+01
   3.103016e+01   3.650313e-01
   5.091722e+01  -2.036805e+00
  -2.110189e+01  -2.207659e+00
  -7.305891e+01   1.577766e+01
