
 $NMID
 id='ANONYMOUS ', fmtdat='(2E16.6)'
 volume=1.0
 tramp=1.0
 $END
  -2.906129e+03   6.051382e+01
  -1.781433e+03  -1.616375e+03
   9.165316e+01  -1.891366e+03
   1.098896e+03  -9.578602e+02
   8.250027e+02  -1.097075e+02
   1.226140e+02   2.663756e+02
  -4.025386e+02  -8.783204e+01
   3.281310e+01  -5.581428e+02
   3.839037e+02  -4.872329e+02
   5.951244e+02   1.379708e+01
   3.376574e+02   4.549274e+02
  -6.817007e+01   6.615393e+02
  -4.055147e+02   1.448905e+02
  -2.450533e+02  -4.346356e+02
   1.109137e+02  -5.726706e+02
   2.848212e+02  -6.044171e+01
   2.113169e+02   4.162854e+02
  -2.009641e+02   5.955132e+02
  -4.803242e+02   2.878554e+02
  -3.773427e+02  -1.237494e+02
  -1.015433e+02  -2.937041e+02
   5.355695e+01  -1.930334e+02
   8.124915e+01  -7.727142e+01
  -1.275348e+02  -1.261584e+02
  -2.006896e+02  -1.981826e+02
  -2.452965e+01  -2.937750e+02
   3.908825e+02  -1.934831e+02
   6.140733e+02   1.692366e+02
   2.085083e+02   3.596532e+02
  -3.646548e+02   2.757177e+02
  -5.226346e+02  -1.490639e+02
  -1.765025e+02  -3.811825e+02
   2.467017e+02  -3.325891e+02
   4.154874e+02  -1.551088e+02
   3.394186e+02   1.468421e+02
   5.932238e+01   2.625807e+02
   6.701710e+01   1.221372e+02
   6.537458e+01  -1.001540e+02
   1.606680e+02  -1.094452e+02
   2.061351e+02   1.142899e+02
   4.512976e+01   5.216219e+02
  -2.532248e+02   4.458471e+02
  -3.625164e+02  -6.066768e+01
  -1.327847e+02  -2.844322e+02
   1.526419e+02  -1.565120e+02
   2.111387e+02   2.076809e+02
  -8.385818e+01   3.237870e+02
  -3.411698e+02   3.305261e+01
  -4.162414e+02  -2.420114e+02
  -1.632486e+02  -3.877600e+02
   2.937747e+02  -2.682025e+02
   5.074878e+02   5.824060e+01
   3.031473e+02   2.465423e+02
  -3.874511e+01   2.186515e+02
  -2.477199e+02   8.994867e+01
  -2.443954e+02   3.736640e+00
  -8.154546e+00  -3.955721e+01
   1.149084e+02   1.006192e+02
  -1.356506e+02   9.897440e+01
  -2.275042e+02  -7.058427e+01
  -1.460681e+02  -2.144929e+02
   1.022961e+02  -2.258246e+02
   2.931722e+02  -1.200298e+02
   2.898540e+02   6.320403e+01
  -7.920546e+00   3.053148e+02
  -2.755976e+02   3.250423e+02
  -3.189596e+02   1.532140e+02
  -2.264173e+02  -1.038204e+02
  -5.100777e+01  -3.514950e+02
   4.156335e-01  -3.177299e+02
   2.462270e+01  -1.652886e+02
   4.891406e+01  -1.084559e+02
   9.364097e+01  -1.168051e+02
   2.494065e+02  -5.506791e+01
   2.400227e+02   1.353511e+02
   8.257994e+01   2.179419e+02
  -8.162478e+01   1.176720e+02
  -1.714782e+02  -6.264415e+01
  -9.009278e+01  -2.431991e+02
   5.000297e+01  -2.114355e+02
   2.253872e+02  -1.069714e+01
   2.624948e+02   1.691169e+02
   1.437595e+02   2.791024e+02
  -2.189323e+01   2.472603e+02
  -1.267522e+02   8.970337e+01
  -8.115567e+01   1.098748e+02
  -1.220003e+02   1.065972e+02
  -2.729293e+02   9.026181e+01
  -4.395774e+02  -7.692309e+01
  -3.220336e+02  -3.109793e+02
   2.421732e+01  -4.438636e+02
   3.747626e+02  -4.175540e+02
   3.858943e+02  -1.296321e+02
   2.683017e+02   1.158334e+02
   1.521036e+01   1.949426e+02
  -7.124616e+01   2.031895e+02
  -7.780422e+00   5.337503e+01
   1.270168e+02   2.440869e+00
   1.514502e+02   7.792279e+01
   3.046194e+01   9.184224e+01
  -6.446742e+01   7.962978e+01
  -1.243567e+02  -4.135858e+01
  -1.400235e+01  -1.854340e+02
   1.333477e+02  -1.515670e+01
   1.181687e+02   2.678107e+02
  -1.994715e-01   3.328555e+02
  -1.835201e+02   1.660038e+02
  -3.169782e+02  -4.554628e+01
  -2.469976e+02  -2.060087e+02
  -8.771605e+01  -2.520580e+02
   1.131007e+02  -1.522273e+02
   1.051885e+02  -1.243290e+01
   3.213384e+01   1.040733e+01
  -4.306929e+01  -6.118614e+01
   1.243908e+00  -1.627125e+02
   9.486528e+01  -8.810228e+01
   1.449002e+02   2.650843e+01
   8.924880e+01   6.443029e+01
  -7.636612e+01  -5.946535e+01
  -2.168784e+01  -1.061046e+02
   1.183049e+02  -4.497045e+01
   2.774109e+02   3.131576e+01
   2.350001e+02   1.173707e+02
   5.280864e+01   2.441159e+02
  -1.837090e+02   1.662191e+02
  -2.783256e+02   7.075502e+01
  -1.632786e+02  -5.382287e+01
   3.604403e+01  -9.476888e+01
   7.279360e+01  -1.749193e+01
  -4.459920e+01   3.663294e+01
  -1.669153e+02   1.086164e+01
  -1.601884e+02  -8.320039e+01
  -2.351936e+00  -1.689902e+02
   1.873090e+01  -1.372045e+02
   9.428655e+01  -3.457174e+01
   4.239111e+01   2.500821e+01
  -3.728706e+01  -1.666797e+01
  -2.354525e+01  -9.913692e+01
   9.440554e+01  -1.272584e+02
   2.157525e+02  -1.204478e+01
   2.146833e+02   1.124079e+02
   2.891348e+01   1.966964e+02
  -1.381934e+02   2.110672e+02
  -1.973643e+02   6.448388e+00
  -9.500965e+01  -1.435080e+02
   4.326839e+01  -1.281028e+02
   8.011580e+01  -4.971444e+01
   2.373717e+01  -1.299138e+01
  -1.336905e+01   2.381692e+01
   3.861555e+01  -3.483760e+01
   7.240117e+01   2.915951e+01
   6.763102e+01   1.634031e+02
   3.520006e+00   1.807944e+02
  -1.636461e+02   1.005343e+02
  -2.289489e+02  -2.890843e+01
  -1.616749e+02  -1.738762e+02
  -2.518541e+01  -2.232704e+02
   1.303622e+02  -1.776921e+02
   1.364428e+02  -5.503062e+00
   8.726685e+01   1.100422e+02
   4.207960e+01   4.510767e+01
   7.794695e+01  -3.371036e+01
   5.546263e+01  -2.420087e+01
   2.679567e+01   4.312738e+01
  -2.051297e+01   6.746059e+01
  -7.472996e+01   7.895822e+01
  -1.413753e+02  -3.911347e+01
   4.597889e+01  -1.508421e+02
   1.438172e+02  -1.087703e+02
   1.874095e+02   7.434461e+01
   8.319999e+01   2.483738e+02
  -6.296259e+01   2.050731e+02
  -2.094038e+02   7.306487e+01
  -2.160806e+02  -8.422019e+01
  -1.054824e+02  -1.022166e+02
  -1.516446e+00  -1.246637e+02
   8.508227e+01  -1.064895e+02
   6.614824e+01  -1.453566e+02
   3.076383e+01  -1.190937e+02
   1.193514e+02  -1.270970e+02
   1.164301e+02   3.236490e+01
   1.189621e+02   1.159845e+02
   1.464896e+01   2.180979e+02
  -9.297224e+01   1.490287e+02
  -1.364323e+02  -1.732474e+01
  -8.477741e+01  -9.828543e+01
  -1.239240e+01  -1.509855e+02
   6.481486e+01  -7.733018e+01
   4.867813e+01   1.908619e+01
  -7.109915e+01   4.628088e+01
  -2.304108e+01   9.996787e+00
   6.044040e+01   1.718319e+01
   6.286750e+01   2.381151e+01
   3.102763e+01   6.175455e+01
  -5.271960e+01   1.289086e+01
  -1.561596e+02   6.445871e+00
  -1.369309e+02  -7.342891e+00
  -2.705472e+01  -7.503516e+01
   1.369604e+02  -3.867603e+01
   1.518878e+02  -7.301402e+00
   4.470674e+01   1.098664e+01
  -4.836515e+01   8.632827e+00
  -2.606500e+01   3.879744e+01
  -1.623013e+01  -7.093337e+01
  -5.071875e-01  -4.009500e+01
   6.321338e+01   6.287438e+01
   7.306909e+01   3.528557e+01
   3.028347e+01   5.935324e+01
   2.786057e+01   1.230107e+01
   4.595616e+01   3.893910e+00
   3.696550e+01   4.124710e+01
  -8.013096e+01   1.390502e+02
  -1.607731e+02   1.121484e+02
  -1.747570e+02  -1.409015e+01
  -6.555757e+01  -1.283761e+02
   2.424201e+01  -1.649614e+02
   9.987640e+01  -3.129519e+01
   6.888441e+01   2.284383e+01
  -6.650739e+01   4.929521e+01
  -1.435903e+02  -8.542994e+00
  -4.887371e+01  -9.410973e+01
   7.186262e+01  -1.176828e+02
   1.940547e+02  -4.432357e+01
   1.154607e+02   6.294228e+01
   2.736105e+01   1.058791e+02
  -6.859955e+01   8.943766e+01
  -7.028170e+01  -2.566065e+01
   7.441362e+01  -3.157588e+01
   6.025925e+01   5.739164e+01
   5.919960e+01   7.942873e+01
  -4.464715e+01   1.195070e+02
  -1.578954e+02   1.025350e+02
  -1.096700e+02  -7.137105e+01
  -4.463787e+01  -1.931430e+02
  -6.509943e+00  -1.315958e+02
   9.600240e+01   1.770609e+01
   8.696414e+01   4.642151e+01
  -2.493713e+01   1.375898e+02
  -6.966398e+01  -4.721913e+01
  -5.410846e+01  -4.023405e+01
  -2.997275e+01  -4.328942e+01
  -6.153517e+01  -4.569822e+01
  -2.837001e+01  -6.509044e+01
  -9.461452e+00  -1.093503e+02
   8.212275e+00  -5.137873e+01
   6.815409e+01  -2.989498e+01
   1.541742e+02   1.490317e+01
   1.450117e+02   4.783462e+01
   6.891679e+01   5.874825e+01
  -6.503904e+01   4.260460e+01
  -6.587150e+01   2.707375e+01
  -1.969576e+01   1.105353e+00
   2.367039e+01  -2.914788e+01
   4.041167e+01   1.204498e+01
  -1.393491e+01   5.811441e+01
  -7.015813e+00   3.186340e+01
   7.152920e+01  -2.197948e+01
   5.997676e+01   4.830512e+01
  -2.808794e+01   2.082589e+01
  -7.100270e+01   1.239927e+02
  -1.807500e+02   9.546661e+01
  -1.804715e+02  -3.470934e+01
  -6.546424e+01  -1.443986e+02
   1.871598e+01  -1.250906e+02
   8.207697e+01  -4.412471e+01
   4.985717e+01  -9.703273e+00
   1.696270e+01   3.009004e+01
   6.326747e+00   1.093314e+01
   4.786002e+01  -9.362962e+00
   4.273511e+01   2.924369e+01
   6.238572e+01   1.318099e+02
  -5.184338e+00   7.443883e+01
  -1.117499e+02  -3.188820e+01
  -8.329062e+01  -5.525665e+01
  -3.121557e+01  -1.096110e+02
   6.937152e+01  -2.756473e+01
   1.066027e+02   7.368817e+01
   8.406936e+01   1.520140e+02
  -7.457713e+01   9.002511e+01
  -4.107919e+01   3.503655e+01
  -7.040227e+01  -9.156941e+01
   3.304559e+01  -5.763638e+01
   1.579150e+01  -3.394870e+01
  -1.403618e+01   1.957501e+01
  -9.970181e+01  -3.157702e+01
  -5.607296e+01  -7.244654e+01
   8.616462e+01  -8.492627e+01
   1.061469e+02  -7.503962e+01
   8.719625e+01  -6.815900e+00
  -1.154977e+01   8.485209e+01
  -4.514748e+01   9.115437e+01
  -5.769009e+01  -3.501340e+01
  -1.691644e+01  -5.334686e+01
   6.175163e+01   1.141000e+01
   4.957568e+01  -1.209334e+01
   4.215050e+01   2.142983e+01
  -3.331514e+01   5.574156e+01
  -5.917331e+01  -5.065702e+01
  -5.746069e+01  -2.768833e+01
   3.670822e+01   4.738611e+00
   2.184890e+01   5.683103e+01
   8.151635e+00  -7.839431e+00
  -2.152374e+01  -6.986993e+00
  -2.019097e+00  -6.624955e+01
  -1.604500e+01  -6.423956e+01
   5.829725e+01   5.730618e+01
  -2.222079e+01   4.946649e+01
  -8.578542e+00   5.218960e+00
  -7.361824e+01  -2.056473e+01
  -2.122048e+01  -5.956538e+01
   3.269176e+01  -6.988222e+01
   6.882337e+01  -1.391008e+01
   3.664773e+01   2.947141e+01
  -2.094255e+01   6.324363e+01
  -8.539611e+01   2.943418e+01
   5.007052e+00   3.485548e+01
   6.391502e+01   1.254786e+01
   5.728093e+01  -1.338822e+01
  -2.423024e+00   3.053240e+00
  -6.554634e+01   3.551999e+01
