
 $NMID
 id='ANONYMOUS ', fmtdat='(2E16.6)'
 volume=1.0
 tramp=1.0
 $END
   4.649311e+03  -2.561143e+02
   2.808471e+03   2.572292e+03
  -5.887833e+02   2.668189e+03
  -1.930226e+03   1.241650e+03
  -1.083351e+03  -4.486318e+02
   6.624392e+02  -5.376458e+02
   6.829723e+02   4.233094e+02
   1.499225e+01   1.025923e+03
  -7.257083e+02   8.150056e+02
  -9.243351e+02  -8.397736e+01
  -5.441336e+02  -7.797724e+02
   2.522575e+02  -8.859385e+02
   5.352409e+02  -1.389893e+02
   4.136641e+02   7.590428e+02
  -2.382896e+02   7.881999e+02
  -5.674365e+02   4.521114e+01
  -3.130986e+02  -7.538031e+02
   2.187535e+02  -6.478055e+02
   5.976215e+02  -3.957813e+01
   4.481834e+02   3.477994e+02
   2.291936e+01   4.793175e+02
  -3.233275e+02   3.470015e+02
  -1.974865e+02  -1.309599e+00
   2.209536e+02  -9.251021e+01
   3.711424e+02   1.311670e+02
   1.494027e+02   3.724500e+02
  -4.640475e+02   3.611526e+02
  -9.176916e+02  -1.015515e+02
  -4.276907e+02  -5.992693e+02
   3.239112e+02  -5.545782e+02
   7.498061e+02   2.922924e+01
   3.681781e+02   4.415294e+02
  -2.800068e+02   4.841541e+02
  -5.504430e+02   1.867811e+02
  -4.057300e+02  -1.764093e+02
  -7.985618e+01  -4.256802e+02
   1.728134e+02  -2.689812e+02
   1.187377e+02   2.369401e+02
  -1.673888e+02   4.261745e+02
  -4.179036e+02  -1.830629e+01
  -2.240346e+02  -7.168114e+02
   3.806174e+02  -7.659439e+02
   5.715123e+02   1.103933e+01
   2.784927e+02   5.593258e+02
  -3.048445e+02   3.770297e+02
  -4.214763e+02  -3.092461e+02
   1.048310e+02  -6.041200e+02
   5.587585e+02  -8.527165e+01
   6.400063e+02   3.911941e+02
   1.447472e+02   6.166516e+02
  -4.136188e+02   3.259391e+02
  -6.132516e+02  -1.078785e+02
  -3.911522e+02  -3.955000e+02
   1.827246e+02  -3.770384e+02
   4.540377e+02  -5.785080e+01
   2.800429e+02   2.035494e+02
  -2.760320e+01   1.583929e+02
  -9.818603e+01  -9.534039e+01
   1.657674e+02  -1.644853e+02
   3.603878e+02   6.882220e+01
   1.214041e+02   2.850380e+02
  -2.017095e+02   2.626397e+02
  -2.864018e+02   4.512869e+01
  -1.453706e+02  -9.905925e+01
   5.246902e+01  -2.663942e+02
   2.196620e+02  -3.508348e+02
   4.015763e+02  -1.903289e+02
   3.620521e+02   2.080207e+02
   5.453893e+01   4.178656e+02
  -1.540759e+02   3.523535e+02
  -1.629686e+02   9.333492e+01
   2.392152e+01  -3.365417e+00
  -1.978464e+01   5.672818e+01
  -2.159106e+02   4.713212e+01
  -2.381847e+02  -8.348552e+01
  -1.433965e+02  -2.962343e+02
   1.111956e+02  -2.023964e+02
   2.022543e+02   1.059797e+01
   1.650587e+02   2.699137e+02
   1.171593e+01   3.015217e+02
  -2.304671e+02   1.059350e+02
  -3.474424e+02  -2.014340e+02
  -1.894636e+02  -3.773804e+02
   8.547625e+01  -3.229968e+02
   2.191996e+02  -8.500442e+01
   1.140012e+02   2.111311e+01
   7.095732e+01  -5.285984e+01
   1.950518e+02  -6.786217e+01
   4.065655e+02   1.259975e+01
   3.656870e+02   3.095779e+02
  -3.984884e+01   4.806558e+02
  -3.653005e+02   4.302489e+02
  -4.471895e+02   1.932280e+02
  -3.062429e+02  -1.078042e+02
   1.060766e+01  -2.479820e+02
   1.480964e+02  -2.047672e+02
   6.907972e+01   2.449817e+01
  -1.131588e+02   8.264179e+01
  -2.194192e+02   4.101726e+01
  -6.774998e+01  -1.537250e+02
   1.631813e+02  -1.715219e+02
   2.133262e+02   1.225745e+02
  -1.486238e+01   1.603905e+02
  -1.893441e+02   4.371533e+01
  -1.824263e+02  -2.558040e+02
  -6.889426e+00  -3.552403e+02
   2.144185e+02  -2.742675e+02
   3.492766e+02   3.690499e+01
   2.453129e+02   2.653493e+02
   7.576412e+01   2.566315e+02
  -1.373317e+02   1.568793e+02
  -1.352961e+02  -1.351888e+01
  -4.625643e+01  -4.020785e+01
   1.181486e+02   4.084794e-01
   4.760572e+01   1.268882e+02
  -1.317831e+02   1.302763e+02
  -2.029763e+02  -8.910428e+00
  -5.978775e+01  -3.686055e+01
   1.315378e+02  -4.320511e+01
   2.786335e+01   6.637123e+01
  -1.296937e+02   5.028289e+01
  -2.911675e+02  -3.072349e+01
  -2.612158e+02  -1.593669e+02
  -2.685931e+01  -2.683438e+02
   2.439968e+02  -2.545975e+02
   2.968759e+02  -1.485845e+02
   1.350159e+02   7.040290e+01
  -8.352869e+00   4.590694e+01
  -7.347694e+01  -2.118648e+01
   3.973561e+01  -1.178121e+02
   1.780541e+02  -1.334300e+01
   1.701159e+02   1.409773e+02
   6.085731e+01   2.108633e+02
  -1.376829e+02   2.224976e+02
  -1.361329e+02   6.784130e+01
  -9.303606e+01  -4.017606e+01
   1.297037e+01  -4.864169e+01
   1.012129e+01   6.021710e+01
  -8.726454e+01   7.754566e+01
  -1.924547e+02   3.144480e+01
  -1.767190e+02  -1.388494e+02
  -3.868513e+01  -2.100426e+02
   1.864290e+02  -1.727811e+02
   1.842272e+02   4.028845e+01
   1.114771e+02   1.541642e+02
  -7.586017e+01   1.293295e+02
  -1.114253e+02   2.192741e+01
  -3.420128e+01  -5.918585e+01
   3.608370e+01  -4.946693e+01
   1.593186e+01   1.408139e+01
  -5.047162e+01   1.126555e+01
  -1.179458e+02  -4.876742e+01
   1.084067e+01  -1.578448e+02
   1.212965e+02  -1.449293e+02
   2.061423e+02  -4.173039e+01
   2.340297e+02   1.239753e+02
   6.588474e+01   2.232678e+02
  -1.449815e+02   2.136956e+02
  -1.439136e+02   4.969510e+01
  -2.029089e+01  -5.139305e+01
  -2.011578e+00   1.156523e+01
  -6.857100e+01   3.852272e+01
  -8.459516e+01   4.739539e+01
  -4.278166e+01  -6.745548e+01
  -1.410676e+00  -1.333479e+02
   1.338190e+02  -8.964559e+01
   1.312582e+02   5.273638e+00
   1.723873e+01   8.765789e+01
  -2.258360e+02   9.795088e+01
  -2.468075e+02  -5.161641e+01
  -1.082809e+02  -2.046695e+02
   5.864046e+01  -2.007967e+02
   2.448678e+02  -1.016256e+02
   3.013174e+02   1.001514e+02
   1.220434e+02   1.821657e+02
  -2.269655e+00   1.329362e+02
  -9.343446e+01   7.468577e+01
  -7.441133e+01   8.401478e+01
  -5.237075e+01   1.210536e+02
  -1.107072e+02   5.448674e+01
  -9.162882e+01  -3.118302e+01
  -1.153305e+02  -1.842442e+02
  -3.528613e+01  -2.174560e+02
   8.740013e+01  -1.620786e+02
   2.014305e+02   1.316119e+01
   9.697800e+01   1.467746e+02
  -2.198539e-01   1.484287e+02
  -7.922898e+01   1.040723e+02
  -5.083894e+01  -3.587807e+01
   1.715793e+01  -3.121513e+01
  -3.376201e+00  -3.427779e+00
  -6.065671e+01   5.002174e-01
  -1.488776e+02  -2.785581e+01
  -4.075622e+01  -3.368903e+01
   1.223914e+02  -4.010950e+01
   2.141147e+02  -2.185445e+01
   1.392731e+02   5.855451e+01
  -7.173892e+00   4.898136e+01
  -1.084016e+02   1.005588e+02
  -1.346051e+02   4.797668e+01
  -3.083091e+01  -4.056327e+01
   9.091693e+01  -5.032785e+01
   7.788156e+01  -1.056465e+00
   4.647470e+00   6.950889e+01
  -8.283133e+01  -5.512935e+00
  -8.050708e+01  -2.248118e+01
  -6.167434e+01  -1.000291e+02
  -3.881316e+01  -5.421408e+01
  -7.871470e+01   4.669356e+01
  -8.481488e+01   4.092045e+01
  -6.127331e+01  -1.324432e+02
   4.994219e+01  -1.697668e+02
   9.922561e+01  -1.444534e+02
   1.769182e+02  -3.911594e+01
   1.329284e+02   5.938559e+01
   3.765308e+01   1.043563e+02
  -6.600502e+01   8.935966e+01
  -2.898443e+01  -2.032489e+01
   8.994293e+01  -4.957904e+01
   1.532518e+02   1.765549e+01
   4.533903e+01   8.562391e+01
  -1.053703e+02   1.225084e+02
  -2.182256e+02   4.025211e+01
  -2.187406e+02  -2.321586e+01
  -4.201296e+01  -1.110233e+02
   1.087991e+02  -9.401755e+01
   1.176242e+01  -3.058135e+01
  -1.963900e+01   1.745043e+01
  -8.390394e+01  -1.990428e+01
  -3.743982e+01  -1.074510e+02
   5.953117e+01  -1.164001e+02
   1.468203e+02  -4.883239e+01
   1.290292e+02   9.016245e+01
   1.191320e+01   1.835824e+02
  -1.147794e+02   1.259028e+02
  -1.229886e+02   2.238894e+01
  -5.273147e+01  -1.008454e+02
   1.640141e+01  -6.671031e+01
   1.681682e+01  -2.137516e+01
   2.094056e+01  -9.082518e+00
   2.602913e+01  -3.580243e+01
   6.292786e+00  -1.415299e+00
   1.686633e+01   4.780366e+01
   3.889102e+01   8.778529e+01
   3.796379e+01   1.247529e+02
  -5.292910e+01   4.532362e+01
  -1.333640e+02  -5.361473e+01
  -9.140812e+01  -7.759190e+01
   4.102990e+01  -2.889593e+01
   6.271318e+01   1.896961e+01
   7.787862e+01  -1.370605e+00
  -3.343809e+01   2.178100e+01
  -2.057387e+01   3.017561e-01
  -1.720036e+00  -4.662099e+01
   6.812336e+00   6.348577e+00
  -2.974257e+01  -3.840804e+01
  -7.338480e+01  -1.097688e+00
  -6.528090e+01  -2.278243e+01
   7.323817e+00  -7.464922e+01
   1.573522e+02  -6.597075e+01
   1.905671e+02  -4.073684e+01
   1.213179e+02   8.713204e+01
  -2.299128e+01   1.675816e+02
  -8.758426e+01   1.481940e+02
  -1.168528e+02   8.270625e+01
  -7.785441e+01  -2.067925e+01
  -1.117477e+01  -2.497363e+01
  -4.765705e+00  -4.376346e+01
  -3.154011e+01   1.914621e+01
  -3.904161e+01  -1.058079e+02
  -2.157492e+01  -1.553424e+02
   1.013752e+01  -8.147786e+01
   1.453154e+02   2.475488e+00
   1.077970e+02   7.725336e+01
  -1.320682e-01   7.234777e+01
  -7.621715e+01   1.506114e+01
  -9.022973e+01  -9.962130e+01
  -4.763325e+01  -7.691287e+01
   5.749974e+01  -6.142434e+01
   8.981185e+01   4.246810e+01
   5.634122e+01   6.156515e+01
  -6.614076e+01   6.420518e+01
  -4.046994e+01   1.389556e+01
   4.849389e+01  -5.566947e+00
   7.235652e+01  -2.869649e+01
   6.537172e+00   1.505614e+01
  -6.103531e+01   1.098024e+02
  -1.320680e+02   6.017051e+01
  -5.747544e+01  -4.045106e+01
   1.597278e+01  -1.313543e+02
   3.521383e+01  -4.153466e+01
   3.473812e+01   3.493022e+01
  -2.406354e+01   5.757170e+01
  -2.538347e+01   6.333532e+01
  -4.569875e+01  -4.238401e+00
  -2.080711e+01  -5.900087e+01
   2.451570e+01  -3.686143e+01
   6.713046e+01  -6.987104e+00
   1.673693e+01   7.735413e+00
   2.984304e+01  -4.055548e+01
   1.016026e+01  -6.910656e+00
   6.788214e+00  -8.438215e-02
   2.457210e+01  -2.632649e+00
   1.589537e+00   2.925764e+01
   1.021720e+01   3.403293e+01
  -7.595009e+00  -2.655811e-01
   1.925968e+01  -5.827452e+01
   8.403783e+00  -3.280775e+01
   1.360535e+01   7.082731e+00
   1.279495e+01   7.874099e+01
  -1.099681e+02   2.353330e+01
  -8.676383e+01  -5.334525e+01
  -3.864969e+01  -6.032156e+01
   7.844500e+01  -8.211700e+01
   7.404812e+01   3.384843e+01
  -1.779660e-01   4.120585e+01
   6.725567e+00   2.448759e+01
  -4.899556e+01   7.455014e+00
   5.018469e+01  -1.375172e+01
   1.227466e+01  -4.692366e+01
