
 $NMID
 id='ANONYMOUS ', fmtdat='(2E16.6)'
 volume=1.0
 tramp=1.0
 $END
  -4.172816e+03   5.084907e+01
  -2.458260e+03  -2.506406e+03
   5.019046e+02  -2.667187e+03
   2.022303e+03  -8.170269e+02
   8.250717e+02   5.445448e+02
  -5.242632e+02   4.042245e+02
  -7.732178e+02  -3.603808e+02
   4.769518e+01  -9.632064e+02
   8.221896e+02  -6.893484e+02
   7.875177e+02   1.751757e+02
   3.997293e+02   7.364536e+02
  -2.203162e+02   8.448240e+02
  -5.436630e+02   5.144022e+01
  -3.077984e+02  -6.690039e+02
   2.343227e+02  -7.190631e+02
   5.746773e+02  -7.476739e+01
   2.416584e+02   5.975426e+02
  -2.615717e+02   6.602084e+02
  -5.486859e+02   2.502697e+01
  -4.014962e+02  -3.313211e+02
  -3.932632e+01  -4.747136e+02
   2.212056e+02  -1.479697e+02
   1.961930e+02  -1.926960e+01
  -1.221411e+02   5.775353e+01
  -4.187406e+02  -8.070461e+01
  -1.335227e+02  -4.315849e+02
   5.035536e+02  -4.547339e+02
   8.235066e+02   9.857253e+01
   3.550000e+02   5.171972e+02
  -3.952805e+02   3.937442e+02
  -6.410268e+02  -2.326170e+01
  -3.113400e+02  -4.678731e+02
   2.677222e+02  -4.553965e+02
   6.098176e+02  -1.741530e+02
   3.734446e+02   2.849621e+02
   8.674206e+01   4.547271e+02
  -1.766692e+02   2.754305e+02
  -7.636776e+01  -1.693150e+02
   1.807066e+02  -3.797239e+02
   3.664782e+02   7.651271e+01
   1.478419e+02   6.223678e+02
  -3.683112e+02   6.185264e+02
  -5.887454e+02  -1.809049e+01
  -2.066357e+02  -5.431561e+02
   2.405718e+02  -2.983310e+02
   3.664926e+02   3.701475e+02
  -1.052279e+02   5.121492e+02
  -5.715531e+02   1.132628e+02
  -5.858482e+02  -4.526990e+02
  -1.306634e+02  -5.908925e+02
   4.335698e+02  -2.855881e+02
   6.236633e+02   1.047687e+02
   3.523396e+02   3.935941e+02
  -1.441648e+02   3.288333e+02
  -4.717998e+02   6.849586e+01
  -2.613646e+02  -1.405207e+02
   8.205372e+01  -1.190093e+02
   1.071125e+02   1.086301e+02
  -1.411387e+02   1.504918e+02
  -2.966323e+02  -6.104619e+01
  -1.068129e+02  -2.685533e+02
   2.781805e+02  -2.254758e+02
   3.763678e+02  -7.436715e+01
   2.153853e+02   1.045407e+02
  -1.907077e+01   2.523048e+02
  -2.043270e+02   3.670665e+02
  -3.361902e+02   2.636716e+02
  -2.817349e+02  -1.307542e+02
  -8.206121e+01  -4.239794e+02
   1.383321e+02  -3.503855e+02
   5.442025e+01  -1.347354e+02
   1.519963e+01   1.565628e+01
   4.896984e+01  -1.053195e+02
   2.111530e+02  -1.090307e+02
   2.552163e+02   1.027611e+02
   1.173077e+02   2.665637e+02
  -7.248539e+01   2.247770e+02
  -1.897882e+02  -3.160729e+01
  -2.081480e+02  -2.637245e+02
  -2.545610e+01  -3.557769e+02
   2.450730e+02  -1.382671e+02
   3.534783e+02   1.523114e+02
   2.503221e+02   3.502283e+02
  -4.916440e+01   3.536424e+02
  -1.693212e+02   1.686513e+02
  -1.194603e+02   7.691804e+01
  -1.322647e+02   1.047686e+02
  -2.538895e+02   4.223979e+01
  -4.215553e+02  -5.679930e+01
  -3.325316e+02  -2.782613e+02
   3.857097e+01  -4.292303e+02
   4.030417e+02  -3.994058e+02
   4.402655e+02  -1.915248e+02
   3.187480e+02   7.567937e+01
   7.133480e+01   2.865046e+02
  -7.485589e+01   2.391145e+02
  -7.702140e+01   2.229586e+01
   1.097802e+02  -9.749823e+01
   1.483641e+02  -2.875086e+01
   2.681300e+01   1.618669e+02
  -1.183301e+02   1.626301e+02
  -1.818765e+02  -6.351429e+01
   3.791154e+01  -1.693513e+02
   1.730944e+02  -6.124721e+01
   1.238712e+02   2.182000e+02
  -4.258483e+01   3.053934e+02
  -2.296133e+02   2.433543e+02
  -2.700611e+02  -3.875098e+01
  -2.898691e+02  -2.539696e+02
  -1.386116e+02  -3.068524e+02
   1.087111e+02  -1.531062e+02
   1.559298e+02  -2.263519e+01
   7.628160e+01   1.850086e+01
  -7.918347e+01  -5.420573e+01
   2.598609e+00  -1.340067e+02
   1.377990e+02  -4.593211e+01
   1.845749e+02  -2.114530e+00
   2.379237e+01   1.276267e+02
  -1.040908e+02   1.554933e+01
  -3.987959e+01  -7.690500e+01
   1.341913e+02  -2.361238e+01
   2.397226e+02   3.899891e+01
   2.313737e+02   1.635730e+02
   4.773692e+01   1.956061e+02
  -2.079441e+02   2.496070e+02
  -2.689576e+02   1.014108e+02
  -1.307421e+02  -4.274862e+01
   5.060011e+01  -1.417978e+02
   1.492683e+02  -3.965178e+01
  -4.000951e+01   9.260385e+01
  -1.741594e+02   6.402935e+01
  -1.692846e+02  -1.471502e+02
  -5.616594e+01  -2.340082e+02
   1.026774e+02  -1.599545e+02
   1.519440e+02  -5.859363e+00
   7.650158e+01   5.511467e+01
  -3.201871e+01  -2.952724e+01
  -1.669066e+01  -8.178170e+01
   9.397965e+01  -9.466564e+01
   2.256232e+02  -2.233149e+01
   2.046061e+02   1.116707e+02
  -7.015737e+00   1.925558e+02
  -1.999075e+02   1.562073e+02
  -2.068912e+02   3.419115e+01
  -5.239209e+01  -1.144622e+02
   1.008626e+02  -9.227014e+01
   1.232923e+02  -4.927220e+01
   2.500698e+01   7.785672e+01
  -5.055636e+01   4.683863e+01
   9.359980e+00   1.531354e+00
   9.728734e+01  -9.004664e+00
   9.718094e+01   4.762677e+01
  -3.303789e+01   1.771227e+02
  -6.619341e+01   8.268361e+01
  -2.202330e+02   7.146603e+00
  -1.795731e+02  -1.652397e+02
  -5.712841e+01  -2.036051e+02
   1.276586e+02  -1.383447e+02
   1.325450e+02   3.278876e+01
   7.644829e+01   8.491496e+01
   2.308221e+01   2.642670e+01
   2.065391e+01   1.175964e+01
   4.466554e+01   7.116896e+00
  -4.690813e+00   3.428375e+01
  -8.303686e+01   1.379383e+02
  -1.623373e+02   1.056677e+02
  -1.216350e+02  -8.440823e+00
   1.339126e+01  -8.419872e+01
   1.667449e+02  -8.861523e+01
   1.979243e+02   7.341846e+01
   9.805478e+01   1.806489e+02
  -1.318210e+02   2.123280e+02
  -3.091531e+02   2.690733e+01
  -2.417802e+02  -9.784709e+01
  -9.711158e+01  -2.065857e+02
   4.485561e+01  -1.399262e+02
   9.719612e+01  -6.026646e+01
   7.695628e+01  -6.651018e+01
   6.818616e+01  -1.051207e+02
   1.016301e+02  -8.430021e+01
   1.053921e+02  -5.877939e+00
   1.143543e+02   1.296560e+02
   4.270221e+01   2.793521e+02
  -1.151234e+02   1.857331e+02
  -2.001678e+02   2.481468e+01
  -1.815723e+02  -1.702716e+02
   3.074343e+00  -1.768456e+02
   7.990663e+01  -9.171621e+01
   6.114558e+01   8.137132e+00
  -4.435507e+01   7.647696e+01
  -5.381122e+01  -1.010328e+01
   2.288220e+01  -5.985071e+01
   1.174800e+02  -2.761541e+01
   1.246423e+02   2.697293e+01
   1.612823e+00   2.923824e+01
  -1.177504e+02   1.494230e+01
  -1.035585e+02   1.862980e+00
   5.670552e+00  -7.611949e+01
   1.167040e+02  -9.764708e+01
   1.381928e+02   2.731532e+01
   3.137014e+01   5.461622e+01
  -1.054211e+02   5.998894e+01
  -7.509876e+01  -5.664195e+01
  -3.580061e+01  -7.533400e+01
   6.603441e+01  -1.006963e+02
   3.374517e+01  -1.590168e+01
   2.613524e+01   6.525552e+01
   3.705682e+00   6.184202e+01
   8.943191e+01  -8.706885e+00
   5.521356e+01   4.245113e+00
   6.405121e+01   2.383797e+01
  -4.459566e+01   1.043412e+02
  -8.746234e+01   1.252330e+02
  -1.753335e+02   6.202144e+01
  -1.090338e+02  -8.467323e+01
   3.505183e+00  -1.193400e+02
   1.695541e+02  -6.650122e+01
   7.551789e+01   2.877068e+00
  -8.072334e+01   7.000298e+01
  -1.189307e+02   1.290861e+01
  -6.181839e+01  -9.310547e+01
   3.628209e+01  -9.878867e+01
   1.570831e+02  -5.131660e+01
   1.939136e+02   1.206647e+01
   2.674396e+01   7.160481e+01
  -6.813332e+01   6.999764e+01
  -6.822718e+01   2.002101e+01
   3.381631e+01  -2.663572e+01
   8.395891e+01   6.089201e+01
   5.971960e+01   1.204982e+02
  -1.237687e+02   1.568822e+02
  -1.950132e+02   9.309301e+01
  -1.411676e+02  -1.065695e+02
  -3.219267e+01  -1.819421e+02
   8.172117e+01  -1.475789e+02
   1.254151e+02   5.724774e+01
   7.007047e+01   1.356431e+02
  -5.417746e+00   8.327292e+01
  -3.453580e+01   3.607895e+01
  -3.988851e+01  -4.288001e+01
  -1.581408e+01  -6.402495e+00
  -1.252343e+01  -5.389249e-02
  -3.656401e+01  -1.072762e+01
  -4.546545e+01  -7.887462e+01
  -5.165245e+01  -9.837039e+01
   4.972450e+01  -5.173198e+01
   1.211592e+02   2.181326e+01
   1.118593e+02   7.451236e+01
   5.394714e+00   1.923078e+01
  -8.338764e+01  -5.950327e+00
  -1.113978e+02   8.245257e+00
   2.953010e-01  -4.980675e+01
   1.900105e+01  -5.364187e+01
   1.152255e+01   6.176681e+00
  -2.130329e+01   1.169878e+01
   2.680972e+01  -3.051831e+01
   8.258233e+01  -2.234802e+01
   1.375112e+02   2.530888e+00
   4.560804e+01   9.624370e+01
  -1.055352e+02   9.882331e+01
  -1.608464e+02   6.349367e+01
  -1.134423e+02  -5.737430e+01
  -7.310830e+01  -1.280966e+02
   4.834813e+01  -1.217740e+02
   8.756840e+01  -5.752198e+01
   5.601409e+01  -3.961191e+00
   5.552125e+00   2.595551e+01
  -6.183075e+00   2.901089e+00
   5.835345e+00  -3.859405e+01
   2.630638e+01   2.102367e+01
   4.558768e+01   8.666887e+01
  -3.178200e+01   5.924685e+01
  -4.525915e+01   3.983578e+00
  -3.623907e+01  -1.082228e+02
   6.802434e+00  -1.345175e+02
   8.601831e+01  -3.070096e+01
   1.237148e+02   1.005177e+02
   1.430397e+01   1.140208e+02
  -4.475808e+01   8.063676e+01
  -1.205748e+02   4.433472e+00
  -6.447434e+00  -7.651452e+01
   3.973303e+01  -7.798791e+01
   3.172833e+01  -7.405798e+01
  -3.838991e+01   5.154051e+00
  -5.452852e+01   8.327920e+00
  -5.076329e+01   5.274724e+00
   4.929634e+01  -7.491530e+01
   1.040034e+02  -4.194914e+01
   6.688801e+01   1.312633e+01
   9.345255e+00   6.452302e+01
  -2.841907e+01   7.776126e+01
  -4.720051e+01  -2.144811e+01
   3.826606e+01  -4.695577e+01
   6.290606e+01  -5.399250e+01
   6.963274e+01   1.675049e+01
   3.266750e+01   9.212020e+01
   2.907055e+00   7.867365e+01
  -3.041727e+01  -1.430491e+01
  -3.726097e+00  -3.206887e+01
  -2.320144e+01  -9.162674e+00
   2.348771e+01   1.694772e+01
   6.765221e+01   2.448100e+01
  -5.041503e+00   6.740283e-01
   2.039566e+01  -4.702905e+01
   3.527205e+01  -1.612736e+01
  -6.579538e+00   4.624697e+01
   3.563339e+00   6.742404e+01
  -3.233663e+01   3.581544e+01
  -4.904094e+01  -2.334846e+01
  -2.770807e+01  -7.952555e+01
   6.336795e+01   3.624444e+01
   7.638249e+01  -2.089537e+01
   5.415757e+01   6.251045e+01
  -3.236641e+01   6.815660e+01
  -2.895915e+01   3.202485e+01
  -4.076233e+01   1.894443e+01
   2.721752e+01  -1.730917e+01
   3.762932e+01  -1.627414e+01
  -2.579595e+01  -2.005937e+01
  -7.360387e+01   1.815444e+00
