
 $NMID
 id='ANONYMOUS ', fmtdat='(2E16.6)'
 volume=1.0
 tramp=1.0
 $END
   3.620342e+03  -1.779223e+02
   2.431834e+03   2.133881e+03
  -4.967230e+02   2.555663e+03
  -1.918361e+03   8.238885e+02
  -1.021842e+03  -3.769097e+02
   3.502695e+02  -4.622980e+02
   6.989337e+02   2.809379e+02
   2.102707e+02   8.310482e+02
  -6.241771e+02   7.985453e+02
  -8.187063e+02  -2.144162e+01
  -4.345139e+02  -6.634376e+02
   2.005272e+02  -7.697336e+02
   5.012572e+02  -1.100093e+02
   4.005320e+02   4.703455e+02
  -1.906254e+02   7.525061e+02
  -5.680398e+02   1.186554e+02
  -3.050185e+02  -5.647575e+02
   2.240170e+02  -6.568322e+02
   5.179878e+02  -1.680643e+02
   4.296261e+02   2.479263e+02
   9.543594e+01   3.938537e+02
  -2.359492e+02   1.987846e+02
  -2.315925e+02  -4.742096e+01
   1.103222e+02   2.292511e+01
   3.447362e+02   1.690305e+02
   1.247383e+02   3.809048e+02
  -4.597643e+02   3.020420e+02
  -7.867469e+02  -1.120428e+02
  -3.595148e+02  -4.163118e+02
   2.695475e+02  -3.842828e+02
   5.921781e+02   4.516086e+01
   2.801450e+02   3.922511e+02
  -2.794426e+02   4.676895e+02
  -4.920465e+02   1.511262e+02
  -3.763095e+02  -2.105184e+02
  -6.581279e+01  -4.447194e+02
   1.477634e+02  -2.687597e+02
   6.062478e+01   2.169418e+02
  -1.664089e+02   3.524097e+02
  -3.201236e+02  -2.992639e+01
  -1.326087e+02  -5.784402e+02
   2.798715e+02  -5.820550e+02
   4.538905e+02   3.105978e+01
   1.935307e+02   4.642541e+02
  -2.059308e+02   2.840189e+02
  -3.009346e+02  -2.636714e+02
   4.395099e+01  -4.829767e+02
   4.936981e+02  -1.161642e+02
   5.310453e+02   3.856225e+02
   1.373023e+02   5.442843e+02
  -3.652125e+02   2.923203e+02
  -5.661544e+02  -9.737972e+01
  -3.420710e+02  -3.579651e+02
   1.165819e+02  -3.328633e+02
   3.612895e+02  -6.118989e+01
   1.956381e+02   1.130172e+02
  -4.267706e+01   4.572831e+01
  -8.296163e+01  -7.274936e+01
   1.546857e+02  -1.270707e+02
   3.249777e+02   3.911114e+01
   1.334838e+02   3.102079e+02
  -1.859735e+02   2.268095e+02
  -2.927096e+02   8.468644e+01
  -2.060515e+02  -3.838861e+01
   1.801498e+01  -2.382608e+02
   2.288265e+02  -3.063289e+02
   3.003146e+02  -1.712372e+02
   2.299540e+02   1.108614e+02
   4.522973e+01   3.397190e+02
  -1.347361e+02   3.367876e+02
  -5.253187e+01   1.180906e+02
   1.158613e+01   1.766536e+01
  -5.844402e+01   9.173737e+01
  -1.902632e+02   1.136971e+02
  -2.882276e+02  -9.597333e+01
  -2.049601e+02  -2.617119e+02
   6.364222e+01  -2.462957e+02
   2.458802e+02  -1.776886e+01
   2.054196e+02   2.254334e+02
   4.174857e+01   2.663810e+02
  -2.610139e+02   7.901382e+01
  -3.249101e+02  -2.074665e+02
  -1.243469e+02  -3.173460e+02
   1.235728e+02  -3.006888e+02
   2.088939e+02  -9.639150e+01
   1.517886e+02  -2.077248e+01
   1.075804e+02  -2.819207e+01
   2.019373e+02  -1.657846e+01
   3.581883e+02   9.085173e+01
   2.940927e+02   2.903257e+02
  -1.423583e+01   4.021608e+02
  -3.390130e+02   3.924338e+02
  -4.497426e+02   1.808826e+02
  -3.291498e+02  -8.619591e+01
  -4.607847e+01  -2.797132e+02
   1.107535e+02  -2.555390e+02
   4.262378e+01  -1.241894e+00
  -8.712239e+01   1.287728e+02
  -1.909746e+02  -9.383812e+00
  -6.408794e+01  -1.140764e+02
   1.233091e+02  -1.957115e+02
   1.834427e+02   3.423853e+01
  -4.475925e+01   1.494846e+02
  -1.972483e+02   4.291205e+00
  -1.267359e+02  -2.491885e+02
   1.027803e+01  -3.403928e+02
   2.293491e+02  -1.893751e+02
   3.268116e+02   7.805089e+01
   3.345289e+02   2.805392e+02
   9.482614e+01   2.438424e+02
  -1.495242e+02   1.453256e+02
  -1.689162e+02   1.815791e+01
  -4.350576e+01  -1.746535e+01
   8.510779e+01   9.283156e+01
   2.177465e+01   1.539551e+02
  -1.230019e+02   8.744578e+01
  -1.578196e+02  -3.589806e+01
  -7.493553e+01  -8.194476e+01
   1.070017e+02  -8.641838e+00
   1.500431e+01   7.231176e+01
  -1.297724e+02   6.182571e+01
  -2.150863e+02  -4.120482e+01
  -2.883736e+02  -1.313148e+02
  -7.721874e+01  -2.640540e+02
   1.899658e+02  -2.917091e+02
   2.988167e+02  -1.059244e+02
   1.689490e+02  -7.679828e-01
  -1.840812e+01   6.077622e+01
  -4.005471e+01   1.614694e+01
   6.903660e+01  -7.774609e+01
   1.624751e+02  -5.415131e+01
   2.258067e+02   9.464696e+01
   6.512634e+01   2.092333e+02
  -7.839326e+01   1.604744e+02
  -1.038964e+02   3.877983e+01
  -5.810073e+01  -1.774513e+01
   2.595603e+01   2.222777e+01
   3.681202e+01   8.034947e+01
  -5.054856e+01   1.252039e+02
  -2.371671e+02  -1.612699e+01
  -2.029067e+02  -8.143144e+01
  -4.936166e+00  -2.302683e+02
   1.705314e+02  -1.456189e+02
   1.820116e+02   1.148093e+01
   5.099272e+01   7.100927e+01
  -7.090093e+01   5.190663e+01
  -1.186540e+02   2.722058e+01
  -1.736756e+00  -4.905709e+01
  -6.923879e+00  -1.341548e+01
   1.262881e+01   5.236942e+01
  -7.419175e+01  -8.724579e+00
  -8.802438e+01  -4.969727e+01
  -4.310204e+01  -2.275989e+02
   1.021785e+02  -1.916851e+02
   2.186187e+02  -1.974252e+01
   1.875831e+02   1.782767e+02
   4.597009e+01   2.648431e+02
  -1.380357e+02   1.637169e+02
  -8.890026e+01   2.663739e+01
  -5.445462e+01  -5.366942e+01
  -4.248630e+01   1.937265e+01
  -1.183822e+02   5.935782e+01
  -1.029327e+02   2.442855e+01
  -2.931337e+01  -5.047772e+01
   3.642584e+01  -5.442320e+01
   1.575405e+02  -9.231607e+01
   7.776402e+01   1.323554e+01
  -3.046378e+00   1.034654e+02
  -1.505857e+02   9.875092e+01
  -1.720430e+02  -3.318743e+01
  -1.064914e+02  -2.112131e+02
   1.124389e+02  -2.245281e+02
   2.864619e+02  -8.984368e+01
   2.574782e+02   1.163364e+02
   8.147829e+01   2.080359e+02
  -1.938749e+01   1.654977e+02
  -1.083721e+02   8.626574e+01
  -8.319669e+01   5.941085e+01
  -4.710442e+01   6.040777e+01
  -1.014094e+02   8.553696e+01
  -9.893452e+01  -6.497094e+01
  -8.245823e+01  -1.542609e+02
  -4.977012e+01  -1.888601e+02
   4.940505e+01  -1.916569e+02
   2.044585e+02   2.015574e+01
   1.408136e+02   1.526197e+02
   1.927727e+01   1.536531e+02
  -7.492614e+01   1.213569e+02
  -7.249005e+01   7.104365e-01
   3.383504e+01  -5.493644e+01
   3.319001e+01  -6.398637e+01
  -7.829957e+01   2.411254e+01
  -9.715483e+01  -3.900992e+00
  -5.564316e+01  -2.017276e+01
   2.436461e+01  -5.462788e+01
   1.200214e+02  -3.596387e+01
   1.215831e+02   3.867075e+01
  -2.630041e+01   3.989548e+01
  -1.349507e+02   7.805336e+01
  -6.264694e+01  -1.918399e+01
  -2.752469e+01  -4.468559e+01
   8.298454e+01  -1.012451e+01
   1.092036e+02   2.890721e+01
   3.807866e+01   8.872366e+01
  -3.299606e+01   7.160549e+01
  -8.676465e+01   2.108407e+01
  -6.004410e+01  -3.861088e+01
  -6.525241e+01  -3.405801e+01
  -5.730647e+01  -2.977254e+01
  -9.347558e+01   2.795350e+01
  -5.152359e+01  -3.766318e+01
   6.491401e+01  -1.060865e+02
   1.356805e+02  -1.182573e+02
   1.192841e+02  -5.621272e+01
   1.234007e+02   8.829961e+01
   2.195047e+01   1.067537e+02
  -6.976050e+01   4.160661e+01
  -4.549233e+01  -1.840865e+00
   2.765763e+01  -5.397021e+01
   1.632630e+02   5.072743e+01
   1.284040e+02   1.141865e+02
  -7.633208e+01   1.144760e+02
  -1.640541e+02   3.920185e+01
  -1.191827e+02  -2.768680e+01
  -4.310072e+01  -5.534546e+01
   6.235555e+01  -1.067392e+02
   7.345252e+01  -1.070840e+01
  -2.223840e+01   3.044479e+01
  -1.210072e+02  -1.752287e+01
  -6.031052e+01  -8.079277e+01
   8.537590e+01  -1.669976e+02
   1.132136e+02  -8.543234e+01
   1.353007e+02   1.104403e+02
  -1.512646e+00   1.356577e+02
  -6.467227e+01   1.319221e+02
  -5.570158e+01  -1.430328e+01
  -4.307207e+01  -1.040878e+02
  -4.606430e+01  -1.003715e+02
   5.115558e+01  -6.202768e+00
   7.376472e+01   2.929934e+01
   6.035567e+00   1.047877e+01
   1.970513e+01  -1.710935e+01
  -2.690471e+01   3.672066e+01
   2.955570e+01   7.902390e+01
   2.952417e+00   6.111127e+01
  -3.228734e+01   2.737911e+01
  -1.112275e+02  -5.263585e+01
  -9.263736e+01  -8.180152e+01
   1.802051e+01  -6.881549e+01
   7.328221e+01  -2.412821e+01
   6.436276e+01   1.179445e+01
  -5.349249e+00  -3.265127e+01
  -2.115898e+01   2.186199e+01
   5.506430e+00  -1.154489e+01
   3.067191e+01  -4.447252e+00
   6.229898e+00   3.089106e+01
  -7.031528e+01  -2.111114e+01
  -9.835036e+01  -8.710782e+00
   1.558004e+01  -4.981427e+01
   1.429035e+02  -8.857328e+01
   1.702212e+02  -2.760887e+01
   1.033073e+02   4.967056e+01
   1.514814e+01   1.834455e+02
  -2.813061e+00   1.885159e+02
  -9.333527e+01   5.240107e+01
  -2.947472e+01  -1.678594e+00
   4.507484e+00  -1.156325e+01
   1.692844e+01   9.529789e+00
  -3.001186e+01   9.423759e+00
  -3.489686e+01  -1.247462e+01
  -3.032373e+01  -9.649021e+01
  -2.639547e+01  -6.023584e+01
   4.793642e+01   3.538147e+01
   7.117488e+01   1.219292e+02
   2.172325e+01   1.152261e+02
  -2.370463e+01  -1.336752e+01
  -1.047943e+02  -7.217326e+01
  -2.507846e+01  -1.170598e+02
   7.495672e+01  -3.323961e+01
   1.257494e+02   4.977126e+00
   5.564441e+01   6.447678e+01
  -3.216711e+01   1.276387e+02
  -7.056293e+01  -3.763772e+01
   3.519729e+01  -1.640185e+01
   7.129918e+01   2.513357e+01
  -8.188935e+00  -7.053002e+00
  -2.674005e+01   7.951235e+01
  -9.325765e+01   6.349527e+01
  -3.479222e+01  -6.904603e+00
   2.339409e+01  -1.105283e+02
   3.739154e+01  -8.070887e+01
   4.481834e+01   9.534913e+00
  -4.144559e+01   5.222076e+01
  -1.645229e+01   4.012091e+01
  -2.032062e+01  -2.959560e+01
  -1.502136e+01  -5.705908e+01
   3.898676e+01  -3.381168e+01
   4.088140e+01   1.991389e+01
   1.482447e+01   3.950366e+01
  -1.194755e+01   1.667772e+01
   1.700431e+00  -1.314156e+01
  -4.161579e+01   3.181472e+01
  -2.685665e+00   6.322965e+01
  -3.840571e+01   5.369703e+01
  -4.964675e+01   1.056376e+01
  -5.433441e+01  -3.625718e+01
  -1.112658e+01  -3.921792e+01
   3.925405e+01  -3.002136e+01
  -4.209529e+00   2.484527e+01
  -4.992467e+00   7.362021e+01
  -8.893866e+01  -2.484778e+01
  -7.810422e+01  -2.478657e+01
  -4.864006e+00   5.568623e+00
   2.231847e+01  -4.849525e+01
   1.067005e+02  -4.707159e+01
  -6.400802e+00  -3.191516e+01
  -3.087216e+01  -2.934383e+01
   6.620091e+00   1.531354e+01
   2.450970e+01   5.545465e+01
   8.709978e+01   2.685000e+01
