
 $NMID
 id='ANONYMOUS ', fmtdat='(2E16.6)'
 volume=1.0
 tramp=1.0
 $END
   3.827098e+03  -1.903491e+02
   2.195205e+03   2.178281e+03
  -4.998885e+02   2.440708e+03
  -1.962876e+03   9.826070e+02
  -1.060034e+03  -3.104742e+02
   4.288656e+02  -3.422829e+02
   5.289448e+02   2.138765e+02
   5.911348e+01   9.045811e+02
  -5.889956e+02   7.479250e+02
  -7.624705e+02  -2.983884e+01
  -4.299609e+02  -7.548949e+02
   1.176388e+02  -6.705344e+02
   4.739359e+02  -9.708560e+01
   3.290398e+02   5.573964e+02
  -2.748520e+02   5.801226e+02
  -5.502692e+02   6.984183e+01
  -3.025381e+02  -5.556588e+02
   2.338296e+02  -6.104563e+02
   4.641868e+02  -2.578496e+02
   5.299690e+02   1.717719e+02
   1.337074e+02   3.501278e+02
  -1.044916e+02   3.111322e+02
  -9.907908e+01   3.355231e+01
   2.014911e+02  -5.726996e+01
   3.776499e+02   1.116424e+02
   1.536614e+02   3.819025e+02
  -3.790328e+02   2.807762e+02
  -6.867879e+02  -1.251161e+02
  -3.149953e+02  -4.285656e+02
   3.347442e+02  -2.923447e+02
   6.830270e+02   1.447024e+02
   3.332931e+02   4.234450e+02
  -2.345932e+02   4.648632e+02
  -4.998853e+02   1.764119e+02
  -3.952464e+02  -1.492898e+02
  -7.175134e+01  -3.969488e+02
   7.904845e+01  -2.430766e+02
   7.418710e+01   1.501653e+02
  -1.647806e+02   3.189137e+02
  -3.351279e+02  -1.311974e+01
  -1.640996e+02  -5.482020e+02
   2.756112e+02  -5.723801e+02
   4.678051e+02  -4.609540e+01
   2.137517e+02   4.075982e+02
  -2.277297e+02   2.683817e+02
  -3.261056e+02  -2.739208e+02
   8.064552e+01  -4.811314e+02
   4.965231e+02  -7.717373e+01
   5.441136e+02   3.625069e+02
   1.608199e+02   4.987635e+02
  -3.195682e+02   2.892276e+02
  -5.660662e+02  -5.954567e+01
  -3.548879e+02  -3.230730e+02
   1.631975e+02  -3.565969e+02
   3.678397e+02  -7.150531e+01
   2.049996e+02   1.638522e+02
  -5.358382e+01   9.170592e+01
  -5.795766e+01  -1.142298e+02
   1.502258e+02  -1.666111e+02
   2.762439e+02   5.384424e+01
   1.089485e+02   2.706701e+02
  -1.860156e+02   2.777312e+02
  -3.475791e+02   1.045388e+02
  -2.223624e+02  -1.065066e+02
   1.948476e+01  -3.028242e+02
   2.617196e+02  -3.155646e+02
   3.559422e+02  -1.526261e+02
   2.157422e+02   1.207760e+02
   6.196828e+01   3.354122e+02
  -8.329330e+01   3.482007e+02
  -6.819380e+01   1.749152e+02
  -3.346453e+01   8.642507e+01
  -6.101759e+01   8.167326e+01
  -2.070099e+02   9.407395e+01
  -2.230678e+02  -7.191503e+01
  -1.450962e+02  -2.630417e+02
   4.445021e+01  -2.400616e+02
   2.337520e+02   3.224291e+01
   1.974130e+02   2.408059e+02
  -9.410029e+01   3.151178e+02
  -2.839499e+02   1.354334e+02
  -2.977354e+02  -1.516326e+02
  -1.975154e+02  -2.802863e+02
   2.153872e-01  -2.660124e+02
   1.440849e+02  -1.645236e+02
   1.567631e+02  -4.637903e+01
   1.964873e+02  -2.653691e+01
   2.595836e+02  -4.028254e+01
   3.679167e+02   8.808536e+01
   2.799408e+02   2.614462e+02
  -3.390748e+01   3.971637e+02
  -3.754346e+02   4.096795e+02
  -5.016551e+02   2.141396e+02
  -2.995444e+02  -8.041893e+01
  -1.611329e+01  -2.838768e+02
   7.808317e+01  -2.595517e+02
   7.962184e+01  -7.051995e+01
  -9.843797e+01   2.212926e+01
  -1.593460e+02  -8.358891e+00
  -1.674814e+01  -1.554623e+02
   9.507865e+01  -1.147705e+02
   7.581789e+01   4.035485e+01
  -2.893529e+01   1.485245e+02
  -1.799864e+02  -8.680348e+00
  -1.464271e+02  -2.399174e+02
   2.744526e+01  -3.476756e+02
   2.461905e+02  -1.713203e+02
   2.443249e+02   8.542070e+01
   2.222070e+02   2.311670e+02
   5.384235e+01   2.382591e+02
  -8.618251e+01   1.938605e+02
  -1.313876e+02   2.234488e+01
  -2.951471e+01   1.439305e+01
   1.654802e+01   2.935558e+01
  -4.893834e+01   6.265006e+01
  -1.463255e+02   2.669667e+01
  -7.282401e+01  -4.144363e+01
  -1.873514e+01  -1.148490e+01
   5.896247e+01   4.359147e+01
   2.218432e+01   1.050756e+02
  -9.896995e+01   8.320126e+01
  -2.501629e+02  -1.668616e+01
  -2.666996e+02  -1.739746e+02
  -5.209360e+01  -2.393528e+02
   1.801143e+02  -2.033479e+02
   2.459124e+02  -9.141120e+01
   1.687818e+02   5.607195e+01
  -2.700478e+01   8.179260e+01
  -1.207000e+02  -4.588195e+01
   2.414162e+01  -1.238946e+02
   1.888008e+02  -7.043024e+01
   1.997687e+02   1.068143e+02
  -2.815870e+00   2.181197e+02
  -7.840729e+01   1.468813e+02
  -1.464613e+02   4.087531e+00
  -8.857769e+01  -3.240775e+01
   5.859320e+01  -1.166748e+01
   6.955182e+01   1.300996e+02
  -5.121285e+01   1.477303e+02
  -2.531834e+02   2.220033e+01
  -1.843525e+02  -1.460549e+02
  -1.995967e+01  -2.248353e+02
   1.443555e+02  -1.522645e+02
   2.129193e+02   1.864915e+01
   8.729932e+01   9.139350e+01
  -7.417249e+01   1.353626e+02
  -8.057756e+01   2.694574e+01
   2.749998e+01   2.967154e+01
   2.028757e+01  -1.106332e+01
   4.166712e+01   4.555729e+01
  -1.162299e+02  -2.596034e+01
  -8.834516e+01  -1.352040e+02
   1.323573e-01  -1.847133e+02
   1.684328e+02  -1.746794e+02
   2.445905e+02  -1.798325e+01
   2.006315e+02   1.653465e+02
   2.799688e+01   2.300084e+02
  -8.882925e+01   1.286115e+02
  -1.231517e+02   2.749092e+01
  -2.258911e+01  -5.440780e+01
  -1.254574e+01  -1.510519e+01
  -8.449930e+01   1.480316e+01
  -6.819058e+01   4.772583e+01
  -4.482264e+01  -7.631123e+01
   7.946869e+01  -4.211823e+01
   1.379165e+02  -6.720900e+01
   8.910080e+01   5.557783e+01
  -2.023100e+01   9.758489e+01
  -1.426073e+02   8.914983e+01
  -1.893903e+02  -1.196541e+01
  -1.349437e+02  -2.110523e+02
   1.213899e+02  -2.169079e+02
   2.208722e+02  -9.872144e+01
   2.057735e+02   8.007613e+01
   6.383941e+01   1.909841e+02
  -3.421708e+01   1.442732e+02
  -1.128347e+02   7.423368e+01
  -5.621658e+01   6.046637e+01
  -9.937338e+01   9.047331e+01
  -1.065984e+02   5.736079e+01
  -1.556498e+02  -4.335690e+01
  -1.104163e+02  -1.505588e+02
   1.726168e+01  -2.133084e+02
   1.178240e+02  -2.030241e+02
   1.753545e+02  -1.501293e+01
   1.118471e+02   1.404460e+02
   1.854383e+01   1.517959e+02
  -7.192764e+01   7.342637e+01
  -8.168683e+01   5.989370e+00
  -8.096581e+00  -1.790556e+01
  -3.076503e+00  -1.904869e+01
  -2.392846e+01   1.916442e+01
  -9.994240e+01   4.001741e+00
  -6.187852e+01  -7.696864e+01
   7.784746e+01  -2.901332e+01
   1.554538e+02  -2.178242e+01
   1.120549e+02   6.014800e+01
  -2.418027e+01   6.479177e+01
  -1.299145e+02   7.530245e+01
  -1.768401e+02   1.274895e+01
  -5.808978e+01  -7.930042e+01
   4.071621e+01  -5.086627e+01
   7.117503e+01   3.663076e+00
   2.419838e+01   4.367723e+01
  -4.429931e+01   1.185061e+02
  -8.720831e+01   6.431165e+00
  -7.232610e+01  -7.333090e+01
  -9.856181e+01  -1.859534e+01
  -1.047668e+02  -8.055407e+01
  -9.077392e+01  -1.160315e+01
  -2.053450e+00  -7.301485e+01
   4.012559e+01  -1.515611e+02
   1.416793e+02  -1.497063e+02
   1.671628e+02   2.978736e-01
   1.326975e+02   9.178336e+01
  -1.446698e+01   1.640481e+02
  -5.794594e+01   8.636249e+01
  -6.735692e+01  -7.782425e+00
   3.117187e+01  -2.567213e+01
   1.375250e+02   2.752060e+01
   5.409973e+01   7.940820e+01
  -4.228046e+01   1.382982e+02
  -1.962327e+02   1.059707e+02
  -1.700538e+02  -4.940852e+01
  -3.401740e+01  -9.884921e+01
   5.992190e+01  -4.919149e+01
   4.256729e+01   3.953981e+00
   1.610297e+01   1.271828e+01
  -9.452725e+01  -4.439843e+01
  -3.539291e+01  -1.128649e+02
   7.542593e+01  -1.491373e+02
   1.755219e+02  -1.014522e+02
   1.924385e+02   9.300241e+01
  -1.032950e+01   1.947000e+02
  -7.356743e+01   1.253654e+02
  -8.529104e+01  -4.722124e+00
  -4.958676e+01  -1.300648e+02
   2.497169e+01  -8.655104e+01
   4.171925e+01   1.530612e+01
   1.348906e+01   3.032354e+01
   9.630762e+00  -2.369881e+01
   7.200819e+00  -5.784318e+01
   4.907440e+01  -3.212529e+01
   1.017808e+02   8.265050e+01
   9.960096e+01   1.147887e+02
  -3.824136e+01   7.104262e+01
  -1.407879e+02  -8.426854e+01
  -1.168937e+02  -5.366283e+01
  -1.058555e+01  -3.891139e+00
   1.285173e+02  -1.295323e+01
   7.218321e+01   1.613679e+01
  -2.766832e+01   2.769898e+01
  -2.780356e+01  -1.575002e+01
   8.605152e+00  -4.285862e+01
   1.501042e+01   3.367306e+01
  -2.705359e+01   1.898734e+01
  -5.462701e+01  -7.438433e+00
  -2.840552e+01  -1.679062e+01
   4.642238e+00  -5.281969e+01
   1.119513e+02  -9.017628e+01
   1.616016e+02  -8.366121e+01
   1.460791e+02   3.535300e+01
   5.001001e+00   1.624198e+02
  -5.710902e+01   1.829140e+02
  -1.051655e+02   4.754565e+01
  -5.272280e+01  -5.090358e+01
  -5.997061e+01  -4.827304e+01
   2.838174e+01  -3.319251e+00
   2.393376e+00  -3.059988e+01
   7.627144e+00  -4.899192e+01
  -4.682496e+01  -8.716084e+01
   2.013864e+01  -9.540536e+01
   1.390012e+02  -9.230594e+00
   1.181220e+02   1.447464e+02
   1.408741e+01   1.305661e+02
  -6.406767e+01   3.298763e+01
  -1.012072e+02  -8.517787e+01
  -7.819365e+01  -1.166568e+02
   5.652395e+01  -1.563705e+01
   5.080878e+01   1.670912e+01
  -1.701455e+01   6.616717e+01
  -4.516351e+01   2.699657e+01
  -1.145528e+01   2.165698e+01
   4.817625e+01   2.401712e+01
   8.248433e+01   6.679547e+00
  -4.306679e+01   4.267853e+01
  -9.927258e+01   4.237311e+01
  -1.625923e+02   3.109283e+01
  -5.430653e+01  -2.540112e+01
  -4.756124e+00  -8.254831e+01
   5.995919e+01  -6.494252e+01
   8.793722e+01  -2.124301e+00
  -2.200499e+01   2.803741e+01
  -4.883596e+01  -1.607699e+01
  -1.153088e+01  -3.178130e+01
   1.182814e+00  -3.307804e+01
  -9.923474e+00   1.513059e+01
   1.779643e+01   4.058571e+01
   8.514675e+01   7.568035e+00
   6.541296e+01  -2.423388e+01
  -1.519936e+01  -5.270526e+01
   2.562069e+01  -1.672659e+01
   3.085073e+00   5.113411e+01
  -2.548845e+01   4.003560e+01
  -1.185269e+01   1.403609e+01
  -1.384591e+01  -2.562552e+01
  -1.325154e+01  -3.345931e+01
   7.631793e+01  -1.054470e+01
   1.131844e+02   5.745608e+01
  -4.386561e+01   8.833048e+01
  -7.576164e+01   1.112824e+02
  -1.108275e+02   2.437088e+00
  -4.663790e+01  -4.443142e+01
   1.440253e+01  -5.864875e+01
   6.399114e+01  -6.551867e+01
   4.055499e+01  -4.284707e+00
   4.959168e+00   4.036285e+00
  -6.250729e+01   1.489397e+01
   3.661220e+01   9.092250e+00
   8.003461e+01  -5.180021e+00
