
 $NMID
 id='ANONYMOUS ', fmtdat='(2E16.6)'
 volume=1.0
 tramp=1.0
 $END
   2.875860e+03   5.598923e+01
   1.959239e+03   1.657320e+03
   1.281006e+01   1.947654e+03
  -1.314698e+03   1.048413e+03
  -8.604308e+02  -1.411973e+01
   7.401868e+01  -2.587953e+02
   4.548882e+02   1.872546e+02
  -1.003354e+01   6.054131e+02
  -4.073515e+02   6.001858e+02
  -6.841052e+02   6.799084e+01
  -3.361541e+02  -5.609322e+02
  -5.046667e+01  -5.427718e+02
   2.653865e+02  -2.141586e+02
   2.821083e+02   4.610129e+02
  -1.324602e+02   6.377292e+02
  -4.266356e+02   8.707685e+01
  -3.413317e+02  -4.536684e+02
   1.849922e+02  -5.200107e+02
   3.474362e+02  -2.165750e+02
   3.401952e+02   2.047332e+02
   9.763477e+01   4.044282e+02
  -1.682843e+02   2.724576e+02
  -1.693706e+02   4.250396e+01
   1.171904e+02  -2.800136e+00
   2.597977e+02   1.722887e+02
   1.007325e+02   3.441021e+02
  -3.590954e+02   2.244675e+02
  -6.017278e+02  -1.117650e+02
  -2.849237e+02  -3.144694e+02
   2.842606e+02  -2.285564e+02
   4.736828e+02   9.265216e+01
   2.922427e+02   3.054572e+02
  -1.915941e+02   3.953389e+02
  -4.800142e+02   1.063708e+02
  -3.081593e+02  -1.266619e+02
  -1.043214e+02  -3.014802e+02
   1.198550e+01  -1.411514e+02
  -2.611217e+00   9.541415e+01
  -1.061236e+02   1.884013e+02
  -2.530024e+02  -5.009663e+01
  -1.262940e+02  -4.267419e+02
   1.761805e+02  -4.802777e+02
   3.569808e+02  -8.645205e+01
   1.841052e+02   3.196537e+02
  -1.669930e+02   2.203193e+02
  -1.901722e+02  -2.446326e+02
   1.179765e+02  -4.216496e+02
   4.428666e+02  -1.145938e+02
   4.948113e+02   2.911118e+02
   1.154921e+02   4.733295e+02
  -2.485933e+02   2.870788e+02
  -4.429139e+02  -3.474570e+01
  -3.242665e+02  -2.334062e+02
   7.771654e+01  -2.136576e+02
   3.011833e+02  -5.724787e+01
   2.381690e+02   7.681686e+01
  -8.705463e+00   4.675516e+01
  -1.082837e+02  -1.035435e+02
   1.242799e+02  -1.264355e+02
   2.403845e+02   5.990662e+01
   1.183688e+02   2.349861e+02
  -1.828373e+02   2.055721e+02
  -3.633584e+02   1.631289e+01
  -2.186627e+02  -1.132933e+02
   1.861694e+01  -2.732138e+02
   2.429159e+02  -3.537558e+02
   3.063596e+02  -2.128672e+02
   2.546188e+02   9.697334e+01
   2.144095e+01   3.474657e+02
  -5.325160e+01   2.780637e+02
  -5.188331e+01   1.937596e+02
  -6.866549e+01   5.621122e+01
  -1.106931e+02   9.245976e+01
  -1.847275e+02   6.927875e+01
  -2.157016e+02  -5.749500e+01
  -8.000015e+01  -1.921468e+02
   7.474583e+01  -1.495362e+02
   1.685807e+02   5.675825e+01
   1.256039e+02   2.358688e+02
  -5.425611e+01   2.214130e+02
  -1.944724e+02   6.410296e+01
  -2.875911e+02  -1.235952e+02
  -1.523248e+02  -2.961482e+02
   2.989474e+01  -2.612247e+02
   1.679889e+02  -1.049099e+02
   1.449652e+02  -4.788929e+01
   1.754902e+02  -8.724466e+01
   2.583040e+02  -5.628533e+01
   3.757413e+02   3.218359e+01
   3.011846e+02   2.483200e+02
   2.847125e+01   3.576597e+02
  -2.922827e+02   4.088308e+02
  -3.991437e+02   1.648331e+02
  -2.585462e+02  -7.763924e+01
  -1.748263e+01  -2.299970e+02
   1.154870e+02  -1.970027e+02
   3.897407e+01  -7.349330e+01
  -9.900137e+01   3.318876e+01
  -1.294563e+02   4.144449e+00
  -2.360333e+01  -1.675785e+02
   1.255958e+02  -1.096479e+02
   1.048212e+02   6.936498e+01
  -6.746797e+01   1.389260e+02
  -1.968378e+02   6.954908e+00
  -1.364861e+02  -1.784814e+02
   8.675840e+00  -2.867410e+02
   2.079528e+02  -1.987720e+02
   2.912331e+02   1.067605e+01
   2.753173e+02   1.464009e+02
   9.402178e+01   2.091269e+02
  -7.211627e+01   1.477032e+02
  -1.147498e+02   3.891599e+01
  -2.925514e+01  -1.926511e+00
   4.003697e+01   1.279132e+01
   1.937164e+00   5.929563e+01
  -9.170119e+01   5.900845e+01
  -1.405289e+02  -2.443791e+01
  -2.651696e+01  -3.187794e+01
   5.720840e+01   4.912828e+00
   2.449511e+01   5.879793e+01
  -1.920547e+02   3.974992e+01
  -2.613719e+02  -4.844783e+01
  -2.554999e+02  -1.919396e+02
  -1.864931e+01  -2.322628e+02
   1.554651e+02  -1.939039e+02
   2.532318e+02  -1.157969e+02
   1.502699e+02   1.575655e+01
  -3.328134e+01   1.823201e+01
  -3.239134e+00  -4.229773e+01
   7.206524e+01  -5.815013e+01
   9.558708e+01  -1.951195e+01
   1.523830e+02   1.061599e+02
   6.931301e+01   1.869157e+02
  -9.119461e+01   1.531385e+02
  -1.023350e+02   2.220380e+01
  -4.302690e+01  -3.611114e+01
   6.537538e+01   1.530699e+01
   1.789499e+01   1.172000e+02
  -1.038538e+02   9.731998e+01
  -1.771083e+02   2.556962e+01
  -1.908810e+02  -1.000848e+02
  -9.029113e+00  -1.633415e+02
   1.654047e+02  -1.087095e+02
   1.156909e+02   3.369698e+01
   3.833971e+01   6.096801e+01
  -5.397327e+01   7.218340e+01
  -5.362505e+01   3.736664e+01
   8.798296e+00   2.152671e-02
   8.250010e+01   1.504292e+01
  -7.045025e+01   4.191219e+01
  -1.276228e+02  -8.695810e+00
  -1.344167e+02  -1.047002e+02
  -2.063499e+01  -1.852147e+02
   1.461322e+02  -1.643589e+02
   2.318022e+02  -4.865023e+01
   1.753121e+02   1.425869e+02
   1.160095e+02   2.265202e+02
  -1.028656e+02   1.628117e+02
  -1.236864e+02   5.862997e+01
  -7.320045e+01  -1.293542e+01
  -9.426341e+00  -4.186661e+01
  -6.476111e+01   3.930911e+01
  -4.332228e+01  -4.925511e+00
  -9.205666e+01  -8.382800e+01
   5.808972e+01  -9.453863e+01
   1.047563e+02  -4.993829e+01
   1.017897e+02   2.758742e+01
  -3.133796e+01   9.589747e+01
  -1.249119e+02   3.428076e+01
  -1.608810e+02  -8.417008e+01
  -5.955841e+01  -1.975846e+02
   1.326093e+02  -2.096306e+02
   2.854486e+02  -6.674659e+01
   2.473814e+02   3.952732e+01
   9.932627e+01   1.661590e+02
  -6.833305e+01   1.518136e+02
  -1.376172e+02   7.388710e+01
  -6.933916e+01   8.152646e+01
  -3.721401e+01   1.130680e+02
  -6.348051e+01   9.149750e+01
  -1.068542e+02   2.482412e+01
  -8.299658e+01  -1.354466e+02
  -5.184117e+01  -2.385559e+02
   7.821487e+01  -1.900430e+02
   1.588723e+02  -1.738738e+01
   1.543893e+02   1.141400e+02
  -6.292790e+00   1.224048e+02
  -4.463919e+01   7.322022e+01
  -6.206918e+01  -1.415340e+01
  -4.230334e+01  -6.183300e+01
   3.220967e+01  -5.450306e+01
  -7.217436e+00  -5.299524e+01
  -6.690617e+01  -3.372914e+01
  -6.881385e+01  -7.511503e+01
   1.085279e+02  -5.766341e+01
   1.490800e+02  -2.920085e+01
   1.598267e+02   3.896821e+01
   7.488778e+01   1.439128e+02
  -9.099973e+01   1.005185e+02
  -1.691589e+02   2.736375e+01
  -3.757014e+01  -6.476034e+01
   8.973794e+00  -4.899006e+01
   8.762705e+01   1.754671e+01
  -1.526013e+00   9.080191e+01
  -3.494388e+01   8.766483e+01
  -7.790853e+01   4.487813e+00
  -3.428999e+01  -4.940553e+01
  -5.127476e+01  -3.418076e+01
  -5.575093e+01  -2.474686e+00
  -8.639536e+01   2.590234e+01
  -1.756965e+01  -6.658253e+01
   8.772903e+00  -1.126742e+02
   1.121843e+02  -1.650498e+02
   1.674557e+02  -4.250377e+01
   1.227371e+02   8.452319e+01
  -9.561799e+00   1.103225e+02
  -3.574358e+01   5.630963e+01
  -5.685247e+01  -3.389695e+00
   2.853289e+01   2.335960e+00
   1.169661e+02   3.293520e+01
   1.029933e+02   8.755039e+01
  -8.094169e+01   1.216473e+02
  -1.798180e+02   1.714619e+01
  -1.401352e+02  -4.786861e+01
  -4.213960e+01  -1.153171e+02
   4.824378e+01  -6.243453e+01
   8.430606e+01  -2.716729e+01
  -1.830674e+01   8.433549e+00
  -9.029133e+01  -1.874609e+01
  -4.763149e+01  -9.815889e+01
   8.502756e+01  -1.713023e+02
   1.331006e+02  -8.749756e+01
   1.323945e+02   8.565826e+01
  -3.697526e+00   1.800706e+02
  -1.125862e+02   1.170314e+02
  -1.030404e+02  -1.103605e+01
  -6.933567e+01  -1.212502e+02
  -1.389164e+01  -1.113147e+02
   2.719324e+01  -2.635110e+01
   1.460870e+01  -8.759081e+00
   7.690399e+00  -2.374861e+01
   4.642153e+01  -1.736384e+01
   3.599576e+01   4.653881e+01
   8.218806e+01   1.290413e+02
   2.034193e+01   1.070276e+02
  -5.194165e+01   7.705597e+01
  -1.255413e+02  -9.746577e+00
  -9.998278e+01  -6.583652e+01
  -2.547909e+01  -5.332738e+01
   6.558052e+01  -1.122180e+01
   9.696149e+01   3.149021e+00
   1.649285e+01  -2.549166e+01
  -5.663361e+01   1.993571e+01
  -6.330089e+01   2.530848e+01
   4.677433e+01  -6.303538e-01
   5.342799e+00   1.573603e+01
  -8.083175e+00   2.907779e+01
  -7.837291e+01  -7.386844e+00
   1.941412e+01  -6.452502e+01
   1.068532e+02  -7.477711e+01
   2.229673e+02  -8.522471e+01
   1.169025e+02   3.672794e+01
   9.798550e+01   1.694180e+02
  -5.940250e+01   1.770271e+02
  -1.277232e+02   4.753614e+01
  -8.178160e+01  -6.739849e+00
  -1.802126e+00  -3.477145e+01
  -1.155963e+01  -4.539937e+01
   1.645941e+01  -3.244418e+01
  -7.453777e+01  -4.530598e+01
   6.247469e+00  -1.007344e+02
   2.795044e+01  -1.135247e+02
   8.953713e+01   6.482463e+00
   6.465681e+01   7.003074e+01
   1.787450e+01   1.045104e+02
  -5.240904e+01   1.539115e+01
  -7.107746e+01  -6.630190e+00
  -5.013560e+01  -9.169950e+01
   5.303858e+01  -7.413957e+01
   8.492384e+01   1.155808e+01
   2.507183e+01   5.177806e+01
  -3.586227e+01   6.790831e+01
  -1.622527e+01   5.002812e+01
   3.943621e+01   2.940401e+01
   4.976030e+01   2.212879e+01
   4.788209e+00  -4.311175e+00
  -7.931271e+01   6.421797e+01
  -1.326025e+02   5.314555e+01
  -1.190311e+02   1.752925e+01
   1.402806e+01  -1.034177e+02
   5.237687e+01  -8.943626e+01
   2.845850e+01   7.471441e+00
  -3.926876e+01   5.400706e+01
  -4.127974e+01   4.896507e+01
  -4.794557e+01  -3.071066e+01
  -5.788158e+01  -5.902024e+01
   4.056024e+01  -4.725540e+01
   1.762727e+01  -4.021235e+01
   6.492265e+01   4.481028e+01
   1.227554e+01  -5.503996e+00
   3.009451e+01  -3.673988e+00
  -7.882709e+00   3.774644e+01
  -2.241347e+01  -1.070332e+00
  -3.205906e+01   3.372331e+01
  -2.803757e+01   3.392910e+01
  -3.427956e+01  -2.983190e+01
   9.071588e+00  -1.141561e+02
  -8.105202e+00  -1.586506e+01
   6.109381e+01   1.251224e+01
  -2.914966e+00   2.125786e+01
  -4.092326e+01   1.371751e+01
  -9.106519e+01   3.746373e+00
  -2.584281e+01  -2.193793e+01
  -1.312972e+00   7.530051e+00
   8.415785e+01  -6.497337e+00
  -1.319557e+01  -3.175115e+01
  -7.736274e+00  -5.442318e+00
  -3.200900e+01  -9.015219e-01
   5.602589e+01   2.073179e-01
   8.737793e+00   2.825958e+01
