
 $NMID
 id='ANONYMOUS ', fmtdat='(2E16.6)'
 volume=1.0
 tramp=1.0
 $END
  -3.581539e+03  -2.346018e+02
  -2.391792e+03  -1.943658e+03
   1.635860e+02  -2.346127e+03
   1.843927e+03  -9.129255e+02
   1.136566e+03   4.224037e+02
  -3.095180e+02   5.060085e+02
  -6.118228e+02  -2.296379e+02
  -9.099641e+01  -8.641253e+02
   6.405627e+02  -7.727533e+02
   8.641238e+02  -3.276430e+01
   5.403438e+02   7.137333e+02
  -9.064029e+01   8.483559e+02
  -4.437363e+02   1.901975e+02
  -2.970868e+02  -5.649649e+02
   1.872877e+02  -7.152520e+02
   5.781938e+02  -4.282689e+01
   3.093543e+02   6.038634e+02
  -2.973817e+02   7.509826e+02
  -5.026617e+02   2.657191e+02
  -4.031490e+02  -3.585874e+02
  -1.713737e+01  -4.446530e+02
   2.104716e+02  -2.497461e+02
   1.112138e+02  -9.871623e+01
  -1.293175e+02  -3.354790e+01
  -2.697278e+02  -2.688098e+02
  -8.326917e+01  -3.677061e+02
   4.885695e+02  -2.466205e+02
   6.914565e+02   7.098595e+01
   3.226825e+02   4.635736e+02
  -2.952610e+02   3.500970e+02
  -5.478930e+02  -9.951420e+01
  -2.468042e+02  -4.582687e+02
   2.531721e+02  -4.706283e+02
   5.224183e+02  -1.701787e+02
   4.011845e+02   1.890144e+02
   1.674764e+02   4.487893e+02
  -9.710540e+01   3.010700e+02
  -4.917511e+01  -1.265216e+02
   1.459444e+02  -2.846653e+02
   3.130472e+02   9.452475e+01
   1.428439e+02   5.222149e+02
  -2.656185e+02   5.547202e+02
  -4.658776e+02  -5.364427e-01
  -2.083530e+02  -3.619530e+02
   2.149851e+02  -2.496254e+02
   3.404044e+02   2.597892e+02
  -8.490545e+01   4.025919e+02
  -4.951577e+02   9.845410e+01
  -5.778168e+02  -3.751061e+02
  -1.273660e+02  -5.754204e+02
   3.753320e+02  -3.179982e+02
   6.018262e+02   4.658578e+01
   4.081324e+02   2.881291e+02
  -8.918284e+01   2.802636e+02
  -3.517382e+02   3.234166e+01
  -2.449552e+02  -1.168862e+02
   8.907082e+01  -4.831121e+01
   1.555024e+02   1.510763e+02
  -1.517164e+02   1.465102e+02
  -3.099828e+02   1.736557e+01
  -1.779210e+02  -2.225285e+02
   2.083626e+02  -2.493890e+02
   3.697973e+02  -1.169830e+02
   1.808343e+02   1.093701e+02
  -7.367067e+01   2.562461e+02
  -2.366417e+02   3.417176e+02
  -2.927988e+02   1.719015e+02
  -2.578851e+02  -1.373590e+02
  -5.716358e+01  -3.877003e+02
   5.246773e+01  -2.890127e+02
   4.411552e+01  -1.485265e+02
   5.065929e+01  -6.802836e+01
   1.227677e+02  -9.568830e+01
   2.374527e+02  -6.924629e+01
   2.794528e+02   1.389679e+02
   1.435367e+02   3.019937e+02
  -1.218527e+02   2.363387e+02
  -2.088335e+02  -4.491581e+01
  -1.716257e+02  -2.452359e+02
  -5.124568e+00  -2.918097e+02
   2.852952e+02  -9.625396e+01
   3.354143e+02   1.626267e+02
   1.397996e+02   2.618639e+02
  -7.153553e+01   2.601786e+02
  -2.299238e+02   1.420870e+02
  -1.294623e+02   8.424112e+01
  -9.188925e+01   7.417012e+01
  -2.210516e+02   9.151577e+01
  -4.107597e+02  -6.021962e+01
  -3.153715e+02  -2.339354e+02
   4.860564e+01  -4.515866e+02
   3.822212e+02  -3.991197e+02
   5.302655e+02  -1.845190e+02
   2.951793e+02   8.678295e+01
  -1.034254e+01   2.852437e+02
  -1.279832e+02   2.305994e+02
  -3.554938e+01   5.303475e+01
   1.214159e+02  -8.742840e+01
   1.635240e+02  -7.276704e+00
   1.654547e+01   1.818775e+02
  -1.263719e+02   1.756064e+02
  -1.164167e+02  -5.284776e+01
   5.552096e+01  -2.073788e+02
   1.878066e+02  -5.982897e+01
   1.663063e+02   2.079519e+02
  -3.016506e+01   3.295976e+02
  -2.946369e+02   2.411456e+02
  -3.610517e+02  -1.111410e+02
  -2.499330e+02  -2.556053e+02
  -9.966133e+01  -2.566096e+02
   1.212767e+02  -1.228524e+02
   1.751488e+02  -3.733668e+00
   8.628225e+00  -1.138974e+01
  -9.420236e+00  -5.868586e+01
   2.833833e+01  -1.301219e+02
   1.415402e+02  -6.594935e+01
   1.443081e+02   2.925433e+01
   1.559232e+01   4.670932e+01
  -7.688600e+01  -4.680918e+00
  -6.813642e+00  -9.665816e+01
   1.470339e+02  -5.759946e+01
   3.341155e+02   3.391649e+01
   2.381719e+02   1.729434e+02
  -1.194562e+01   3.019829e+02
  -2.310767e+02   2.310015e+02
  -2.721027e+02   1.212806e+02
  -1.610057e+02  -9.169811e+01
   9.963585e+00  -1.016579e+02
   8.007283e+01  -2.239041e+01
  -8.042473e+01   1.080072e+02
  -1.914830e+02   3.864391e+01
  -2.053489e+02  -1.335841e+02
  -5.693830e+01  -1.879038e+02
   7.327952e+01  -1.903187e+02
   1.919641e+02   1.025561e+01
   7.817878e+01   4.160966e+01
  -6.988906e+01   3.688770e+01
  -8.373690e+01  -8.505247e+01
   7.353396e+01  -7.552375e+01
   2.138793e+02  -3.299984e+01
   1.897908e+02   1.080699e+02
   4.618996e+01   1.843709e+02
  -1.274308e+02   1.518126e+02
  -1.630337e+02   3.176489e+01
  -7.440601e+01  -6.157855e+01
   5.410172e+01  -6.193469e+01
   6.469710e+01   1.384453e+01
  -1.474575e+01  -8.768808e+00
  -6.164451e+01  -2.998101e+01
   1.326094e+01  -5.073299e+01
   1.253758e+02  -2.248320e+01
   9.606704e+01   6.311805e+01
   1.739326e+01   1.371488e+02
  -1.489270e+02   2.070270e+02
  -2.924339e+02   2.811864e+01
  -2.091844e+02  -2.021415e+02
  -5.299185e+01  -2.500904e+02
   8.153945e+01  -2.019175e+02
   1.577647e+02  -8.686311e+01
   8.021774e+01   3.742557e+01
   8.036979e+01   4.060746e+01
   2.979953e+01  -4.500043e+01
   1.425231e+02  -1.248233e+01
   9.508073e+01   1.143830e+02
  -1.844126e+01   1.241764e+02
  -1.207985e+02   9.024635e+01
  -1.511735e+02  -4.652397e+01
   2.951913e+01  -1.334003e+02
   1.703879e+02  -6.466023e+01
   1.912972e+02   7.913994e+01
   6.885252e+01   2.228615e+02
  -9.745323e+01   2.176963e+02
  -2.396667e+02   1.028513e+02
  -2.308216e+02  -9.393599e+01
  -1.111577e+02  -1.693800e+02
   3.722327e+01  -1.431921e+02
   1.626000e+02  -5.284339e+01
   8.728633e+01  -6.994858e+01
   7.227750e+01  -9.679080e+01
   6.933769e+01  -4.935128e+01
   1.176583e+02   4.008467e+01
   1.244157e+02   1.748711e+02
  -2.180012e+01   2.642306e+02
  -1.186218e+02   1.328856e+02
  -1.648245e+02   1.701078e+01
  -1.240297e+02  -1.844950e+02
   2.057475e+01  -1.772585e+02
   1.017901e+02  -1.003738e+02
   4.748823e+01  -1.095055e+01
  -1.441009e+01   2.112095e+01
   1.459978e+01   2.235855e+01
   7.400668e+01  -3.121273e+00
   8.192828e+01   1.557734e+01
   1.001343e+02   8.326408e+01
  -1.021789e+02   3.558116e+01
  -1.810467e+02   3.758926e+01
  -1.824481e+02  -7.533306e+01
   2.031035e+01  -1.249053e+02
   1.443754e+02  -5.613060e+01
   1.969407e+02   2.852166e+01
   1.919901e+01   8.474856e+01
  -6.615835e+01   2.845966e+01
  -8.211632e+01  -2.584415e+01
  -3.949965e+01  -5.453239e+01
   5.272502e+01  -7.544360e+01
   8.960638e+01   3.436014e+01
   2.044692e+01   3.389587e+01
   9.988350e+01   5.157090e+01
   5.008097e+01   1.293385e+00
   4.101113e+01   1.748339e+01
   1.185512e+00   1.141019e+02
  -4.501579e+01   1.378496e+02
  -1.512085e+02   1.665966e+02
  -1.925988e+02   6.939996e+00
  -1.323761e+02  -7.968543e+01
  -5.324077e+00  -1.134533e+02
   1.104371e+02  -9.633657e+01
   3.794885e+01   1.703301e+01
  -2.829638e+01   3.757170e+01
  -1.608752e+02  -2.165464e+01
  -3.391842e+01  -1.077372e+02
   7.672839e+01  -7.444864e+01
   2.126254e+02  -6.582042e+01
   1.466345e+02  -8.643330e+00
   3.177936e+01   6.256653e+01
  -1.180091e+02   7.977577e+00
  -4.531185e+01   2.363503e+01
   5.124112e+01  -2.085205e+01
   3.982835e+01   1.276896e+01
  -9.283608e-01   1.466020e+02
  -9.294754e+01   1.544630e+02
  -1.380215e+02   8.865454e+01
  -1.226738e+02  -1.117875e+02
  -1.998500e+01  -2.448964e+02
   4.787405e+01  -1.827399e+02
   1.352276e+02   1.634996e+01
   5.696965e+01   1.242157e+02
  -1.328930e+00   1.271723e+02
  -3.043023e+00   4.669565e+01
  -5.729258e+01  -1.690905e+01
  -2.191082e+01   1.267905e+00
  -2.055492e+00   3.682188e+01
  -5.091010e+01  -3.196393e+00
  -6.385125e+01  -1.038580e+02
  -4.838481e+01  -1.417197e+02
   9.880625e+01  -4.132868e+01
   1.654299e+02  -1.795098e+00
   1.435812e+02   6.608725e+01
  -1.517260e+01   3.929289e+01
  -6.656447e+01   7.370946e+01
  -7.108837e+01   2.851077e+01
  -4.575764e+00   1.688301e+01
   3.286685e+01   1.908355e+01
   2.622269e+01   8.210292e+00
  -5.404391e+01   1.958789e+01
  -2.961567e+01  -4.702174e+01
   9.185277e+01  -2.347673e+01
   1.292642e+02   2.863879e+01
   9.343986e+00   5.674696e+01
  -1.144767e+02   1.018984e+02
  -1.781266e+02   5.860922e+01
  -9.970853e+01  -7.474854e+01
  -2.156767e+01  -1.873105e+02
   4.416904e+01  -1.622480e+02
   8.563546e+01  -3.434099e+01
   6.424275e+01   3.160927e+01
   2.996533e+01   7.339368e+01
   1.301549e+01   7.714014e+00
   4.498018e+00   5.937859e+01
  -1.465715e+01   9.411226e+01
   5.026659e+00   8.827240e+01
  -3.718316e+01   6.655938e+01
  -1.411097e+02  -2.716158e+01
  -1.073709e+02  -1.265672e+02
  -3.793431e+01  -9.903171e+01
   1.198532e+02  -8.225223e+01
   5.391364e+01   3.619088e+01
   5.373694e+01   1.261654e+02
  -8.665005e+01   5.275606e+01
  -8.006940e+01  -7.598016e-01
  -1.229564e+01  -4.604804e+01
   6.433749e+01  -5.922013e+01
   5.050190e+01  -6.456279e+00
  -1.658944e+01   3.713040e+01
  -4.116947e+01  -1.283529e+01
  -1.796032e+01  -3.342738e+01
   8.371041e+01  -4.582455e+01
   1.280220e+02  -7.290685e+01
   9.199673e+01   1.531194e+01
  -4.650509e+00   6.408352e+01
  -5.914997e+01   4.291268e+01
  -2.779794e+01   2.544917e+01
   3.982841e+01  -3.991762e+01
   6.280389e+01  -6.468843e+01
   7.533205e+01   5.662094e+00
   5.722343e+01   3.785784e+01
   3.699103e+01   4.220275e+01
  -2.401474e+01  -4.111866e+01
  -1.040182e+01  -4.228756e+01
  -1.860886e+01   3.299894e+01
   1.097252e+01   7.827419e+00
  -1.241995e+01  -1.209961e+01
  -2.518895e+01  -2.530158e+01
   2.463228e+01  -3.493501e+01
  -1.547350e-01  -1.598657e+01
  -5.672922e+00   2.091102e+01
   2.515657e+01   9.256323e+01
  -3.242716e+01   4.811426e+01
  -6.056791e+01  -3.077211e+00
  -1.056949e+00  -3.743715e+01
   5.090376e+01  -2.814431e+01
   1.060335e+02   5.927081e+01
   5.414704e+01   2.254258e+01
  -1.627666e+01   7.764516e+01
  -9.349579e+01   4.103075e+01
  -1.163399e+01   2.394493e+01
   3.949443e+01   5.489303e+01
   2.245558e+01   2.126736e+01
  -3.483891e+01   2.960487e+01
  -1.063477e+02   5.213339e+01
