
 $NMID
 id='ANONYMOUS ', fmtdat='(2E16.6)'
 volume=1.0
 tramp=1.0
 $END
   4.984843e+03  -4.928424e+02
   2.855031e+03   3.008394e+03
  -9.015057e+02   3.104077e+03
  -2.417980e+03   6.946424e+02
  -9.904816e+02  -9.395974e+02
   1.002264e+03  -6.718688e+02
   9.299602e+02   5.037923e+02
  -3.841673e+01   1.179232e+03
  -8.502614e+02   7.637069e+02
  -9.602674e+02  -1.837355e+02
  -3.908046e+02  -9.295531e+02
   2.960369e+02  -9.441704e+02
   6.499369e+02  -1.035225e+02
   2.814908e+02   8.504988e+02
  -2.667636e+02   8.051484e+02
  -6.122780e+02   5.405536e+00
  -2.442914e+02  -6.872994e+02
   3.431305e+02  -6.391183e+02
   5.938973e+02  -1.970510e+02
   4.647715e+02   3.970533e+02
   2.395530e+01   5.368382e+02
  -2.424290e+02   2.881851e+02
  -2.018507e+02   1.617946e+01
   1.148489e+02  -8.412664e+01
   5.501638e+02   1.338234e+02
   2.908713e+02   4.897043e+02
  -4.620582e+02   4.466109e+02
  -9.431027e+02  -1.079134e+02
  -4.885092e+02  -6.055249e+02
   4.326275e+02  -5.918131e+02
   7.798625e+02   9.352437e+00
   4.518875e+02   4.841502e+02
  -2.648174e+02   5.746414e+02
  -5.768592e+02   2.009253e+02
  -4.172013e+02  -2.131809e+02
  -1.074011e+02  -5.034501e+02
   2.616443e+02  -2.923652e+02
   2.407997e+02   2.373970e+02
  -1.064444e+02   5.454852e+02
  -5.004005e+02   6.957509e+01
  -3.263693e+02  -7.371757e+02
   3.371460e+02  -7.583912e+02
   6.438265e+02  -1.261978e+01
   2.646747e+02   6.058629e+02
  -3.395422e+02   3.862626e+02
  -4.721036e+02  -3.205652e+02
   4.694075e+01  -6.098722e+02
   5.848845e+02  -1.608486e+02
   6.110240e+02   4.107691e+02
   2.813903e+02   6.113879e+02
  -4.191749e+02   3.675385e+02
  -6.884226e+02  -1.070664e+02
  -4.289011e+02  -4.457594e+02
   1.924254e+02  -3.845244e+02
   5.514230e+02  -2.016584e+00
   2.692473e+02   2.224949e+02
  -1.377537e+02   1.080232e+02
  -1.195728e+02  -1.614331e+02
   1.455992e+02  -1.624033e+02
   3.656367e+02   1.096382e+02
   1.148909e+02   3.086257e+02
  -2.551492e+02   2.574221e+02
  -3.075430e+02   8.309061e+01
  -2.353284e+02  -5.349268e+01
  -2.521748e+01  -2.159296e+02
   2.420550e+02  -3.970785e+02
   3.479698e+02  -2.305311e+02
   3.113465e+02   1.867467e+02
   4.512490e+01   4.772306e+02
  -1.734403e+02   4.233712e+02
  -1.665177e+02   8.463824e+01
  -2.036157e+01  -2.726795e+01
  -1.702178e+01   3.791599e+01
  -1.392851e+02   1.081944e+02
  -2.844242e+02  -6.415518e+01
  -1.732127e+02  -3.131813e+02
   6.508059e+01  -2.370865e+02
   3.099322e+02   3.055477e+00
   2.040369e+02   2.912376e+02
  -3.531943e+01   3.469474e+02
  -2.933098e+02   1.169304e+02
  -4.102654e+02  -2.317670e+02
  -1.586700e+02  -4.045483e+02
   1.229667e+02  -3.016158e+02
   1.953339e+02  -1.019869e+02
   1.540532e+02   4.679339e+01
   1.421060e+02  -2.295874e+01
   2.349242e+02  -7.362839e+01
   4.116503e+02   2.032072e+01
   3.162500e+02   2.571060e+02
  -3.268160e+01   4.347276e+02
  -4.316438e+02   4.454242e+02
  -5.069272e+02   1.898000e+02
  -3.390166e+02  -1.042645e+02
  -8.244385e+01  -3.189707e+02
   1.911948e+02  -2.174600e+02
   1.283083e+02  -1.807338e+01
  -1.008565e+02   1.436126e+02
  -2.756072e+02  -6.947594e+01
  -8.903948e+01  -2.353961e+02
   1.371423e+02  -2.364068e+02
   2.529779e+02   7.548451e+01
  -3.661389e+01   1.954954e+02
  -2.189590e+02  -2.744326e+00
  -1.565523e+02  -2.419787e+02
   1.401714e+01  -3.822315e+02
   2.275492e+02  -2.087097e+02
   2.897532e+02   8.553894e+01
   2.683831e+02   2.039391e+02
   1.044390e+02   2.830870e+02
  -8.199799e+01   2.002729e+02
  -1.902211e+02   4.483206e+01
  -4.240122e+01  -1.383237e+01
   9.153522e+01   5.187048e+01
  -7.987557e+00   7.101370e+01
  -1.462418e+02   9.469093e+01
  -2.315598e+02   1.973360e+01
  -8.429787e+01  -5.422333e+01
   5.362088e+01  -7.015188e+01
   7.890714e+01   2.996178e+01
  -9.312764e+01   4.067256e+01
  -2.603899e+02   3.955913e+00
  -3.033202e+02  -1.291963e+02
  -8.168169e+01  -2.497640e+02
   1.915888e+02  -2.892866e+02
   2.654074e+02  -1.032947e+02
   1.949481e+02   7.428336e+01
  -5.446898e+01   1.352457e+02
  -4.001299e+01   2.825399e+01
   6.140821e+01  -1.402450e+02
   1.898113e+02  -7.158521e+01
   2.251483e+02   1.188673e+02
   8.120506e+01   1.810367e+02
  -7.276177e+01   1.872202e+02
  -1.215415e+02   4.603888e+01
  -4.997297e+01  -3.808885e+01
   1.452437e+01  -2.036360e+01
  -7.053691e+00   9.156587e+01
  -5.171689e+01   7.640463e+01
  -1.466811e+02   5.255067e+01
  -1.522761e+02  -8.741516e+01
  -3.656236e+00  -2.310340e+02
   1.390607e+02  -1.353793e+02
   2.063316e+02   1.791333e+01
   1.049913e+02   1.208780e+02
  -9.456068e+01   1.287970e+02
  -8.531521e+01   3.664398e+01
  -4.737164e+01  -4.913242e+01
   5.764283e+01  -4.538229e+01
  -1.395788e+01   5.467244e+00
  -6.403061e+01   7.550351e+00
  -1.154642e+02  -9.886876e+01
   3.449864e+01  -1.716480e+02
   1.639910e+02  -1.568130e+02
   2.371661e+02   3.256987e+01
   2.033227e+02   2.040828e+02
   2.136719e+01   3.327411e+02
  -1.754309e+02   1.420385e+02
  -2.020356e+02   2.393952e+01
  -9.847957e+01  -7.997539e+01
  -9.042632e+00  -7.506889e+01
  -6.901903e+01  -2.146785e+00
  -3.544170e+01  -4.309090e+00
  -7.612828e+00  -4.986369e+00
   2.652667e+01  -4.428974e+01
   1.069926e+02  -3.825248e+01
   3.467736e+01   4.085803e+01
  -1.974846e+01   5.927333e+01
  -1.266345e+02   6.477485e+01
  -1.982085e+02  -1.451243e+01
  -1.296294e+02  -1.881807e+02
   8.520043e+01  -2.520343e+02
   2.644555e+02  -1.426383e+02
   2.749721e+02   7.903141e+01
   4.821380e+01   2.007762e+02
  -4.205926e+01   1.533677e+02
  -1.157553e+02   7.308054e+01
  -5.888654e+01   1.121502e+02
  -8.130647e+01   8.650489e+01
  -8.113311e+01   7.687076e+01
  -1.662529e+02  -2.632495e+01
  -8.011406e+01  -1.978962e+02
  -2.970999e+01  -1.869423e+02
   8.081691e+01  -1.665278e+02
   1.932507e+02  -4.568189e+01
   1.296195e+02   1.350635e+02
   2.661497e+01   1.783276e+02
  -4.132392e+01   1.301489e+02
  -9.786442e+01   1.318801e+01
   1.256934e+01  -4.305166e+01
   9.563052e+00  -1.721608e+01
  -3.034405e+01   5.709709e+00
  -6.279715e+01  -1.232269e-01
  -6.368339e+01  -4.724792e+01
   2.286242e+01  -8.028472e+01
   1.250699e+02  -2.575016e+01
   1.526709e+02   3.813316e+01
   1.759377e+01   6.469519e+01
  -1.391325e+02   7.693586e+01
  -1.273398e+02  -9.769249e+00
  -7.292055e+01  -4.029964e+01
   8.125623e+01  -1.376915e+01
   9.864896e+01   3.500208e+01
   4.359943e+00   6.285844e+01
  -5.962694e+01   8.633641e+01
  -5.586061e+01   1.481618e+01
  -2.367542e+01  -1.678657e+01
  -6.563181e+01  -1.825032e+01
  -1.227544e+02  -5.921369e+00
  -4.912520e+01  -1.654398e+01
  -6.446087e+01  -4.763900e+01
   4.593468e+01  -1.466034e+02
   7.514170e+01  -1.503723e+02
   2.389076e+02  -7.783661e+01
   1.183852e+02   6.416516e+01
  -1.028798e+00   8.794344e+01
  -4.848849e+01   6.281914e+01
  -3.284334e+01  -2.378259e+00
   9.185217e+01   1.886642e+01
   1.203391e+02   8.512612e+01
   2.480862e+01   9.380598e+01
  -1.029249e+02   8.277027e+01
  -1.502181e+02   3.910017e+01
  -1.671914e+02  -3.701311e+00
  -1.540674e+01  -8.527529e+01
   3.678172e+01  -7.481040e+01
   5.911645e+01   3.426426e+01
  -4.007692e+01  -6.186912e+00
  -5.781664e+01  -3.462283e+01
  -3.769616e+01  -1.526207e+02
   9.786727e+01  -1.597560e+02
   1.180448e+02  -2.379215e+01
   8.975477e+01   1.623541e+02
  -2.368522e+01   1.894959e+02
  -6.996125e+01   1.214428e+02
  -1.312186e+02   1.251904e+01
  -3.865599e+01  -1.064434e+02
  -4.575638e+01  -4.040371e+01
   5.790663e+01  -5.785392e+01
   2.628210e+01   3.077980e+01
   1.471165e+00   1.972133e+01
  -9.202035e+00  -2.394206e+01
  -7.881403e+00   7.020562e+00
   6.956661e+01   4.412192e+01
   7.859695e+01   9.097099e+01
  -5.199326e+01   6.431609e+01
  -1.610796e+02  -4.768104e+01
  -1.150148e+02  -5.568519e+01
  -6.186549e+01  -5.011813e+01
   7.613312e+01  -2.935301e+01
   8.391636e+01  -7.828757e+00
   2.638701e+01  -5.428812e-01
  -1.358210e+01   8.841528e+01
  -2.440027e+01   5.726948e+01
   9.120674e+00  -2.441086e+01
   1.745604e+01   3.267391e+01
  -5.118053e+01   1.212013e+01
  -8.447566e+01   5.009642e+00
  -5.930262e+01  -4.694706e+01
   1.377921e+02  -1.233395e+02
   2.153609e+02  -1.030454e+02
   9.551672e+01   3.584912e+01
   3.857250e+01   1.135382e+02
  -7.980138e+01   1.314658e+02
  -1.364783e+02   7.301343e+01
  -7.072094e+01   1.917926e+01
  -4.632195e+01  -3.869290e+01
  -8.387483e+00   1.607268e+01
  -1.502155e+01  -8.002210e+00
  -5.053473e+01  -2.838214e+01
  -1.745781e+01  -7.760148e+01
   8.829022e+00  -5.495337e+01
   1.173278e+02   5.053705e+01
   8.908469e+01   8.523698e+01
  -1.860679e+01   1.107607e+02
  -1.018443e+02  -7.058062e+00
  -8.129465e+01  -9.176325e+01
  -2.687902e+01  -8.823753e+01
   9.181715e+01  -5.082965e+01
   1.032914e+02   6.926504e+00
   6.248533e+01   9.978277e+01
  -2.220898e+01   3.301953e+01
  -4.932733e+01   4.446934e+01
   7.266665e+01  -5.478781e+00
   6.063839e+01   8.445493e+00
  -5.205468e+00   5.931937e+01
  -1.219692e+02   1.049946e+02
  -1.498874e+02   8.157402e+01
  -7.139586e+01  -1.107398e+01
  -1.294329e+01  -8.389739e+01
   2.382456e+01  -1.174478e+02
   3.534115e+01  -1.235369e+01
   1.614498e+01   6.696376e+01
  -6.749879e+00   5.823335e+01
   1.740624e+00   3.076631e+01
  -4.685649e+01  -1.944294e+01
  -7.073171e+00   2.356943e+00
   2.928868e+01   2.059433e+01
  -7.303376e+00   2.950165e+01
   1.627064e+01  -2.946516e+01
  -3.087904e+01   3.069817e+01
  -3.623077e+01   1.893676e+01
  -2.085513e+00   6.896559e+01
  -6.158290e+01   2.549136e+01
  -8.178363e+01   1.277241e+01
  -6.598520e+01  -2.358338e+01
  -1.880340e+01  -8.212668e+01
   4.102152e+01   5.773185e+01
   4.026147e+01   7.079828e+01
   3.693248e+00   4.434431e+01
  -5.896609e+01   2.299033e+01
  -9.206277e+01  -5.531329e+01
  -3.280449e+01  -8.040673e+01
   2.721292e+01  -4.304167e+01
   8.987235e+01  -2.657743e+01
  -4.010309e+01   4.027741e+00
  -2.257120e+01  -1.399330e+01
  -6.502513e+01  -4.216730e+01
   3.736892e+01  -1.622985e+01
   1.233021e+02  -3.447906e+01
