
 $NMID
 id='ANONYMOUS ', fmtdat='(2E16.6)'
 volume=1.0
 tramp=1.0
 $END
  -3.345534e+03  -1.388162e+02
  -2.188425e+03  -1.750218e+03
   1.072278e+02  -2.153269e+03
   1.649451e+03  -1.220313e+03
   9.999775e+02   1.467336e+02
  -2.381343e+02   4.858521e+02
  -5.587094e+02  -2.090358e+02
  -6.313716e+01  -8.186701e+02
   5.891919e+02  -6.933089e+02
   7.878084e+02  -1.442602e+01
   3.849110e+02   5.974935e+02
  -8.001949e+01   8.458039e+02
  -4.906521e+02   2.350591e+02
  -3.334544e+02  -5.101697e+02
   1.551409e+02  -6.707615e+02
   5.716771e+02  -1.529733e+01
   2.736703e+02   4.755194e+02
  -2.029045e+02   6.791211e+02
  -5.636729e+02   2.233540e+02
  -4.222177e+02  -2.800147e+02
  -5.894096e+01  -4.541321e+02
   1.759942e+02  -2.411480e+02
   1.134204e+02  -9.416865e+01
  -9.239370e+01  -1.856541e+01
  -3.309357e+02  -1.891628e+02
  -1.097681e+02  -3.266516e+02
   3.771217e+02  -3.013664e+02
   7.388611e+02   1.268026e+02
   3.752244e+02   4.664004e+02
  -3.071206e+02   3.647729e+02
  -6.257867e+02  -9.220934e+01
  -2.481929e+02  -4.012458e+02
   3.007359e+02  -4.004216e+02
   4.737848e+02  -1.521974e+02
   3.744407e+02   1.558008e+02
   8.659692e+01   3.514773e+02
  -1.203112e+02   2.334835e+02
  -6.813574e+01  -1.191126e+02
   1.646106e+02  -2.828519e+02
   2.915319e+02   6.170010e+01
   1.761831e+02   4.933054e+02
  -2.167165e+02   6.042351e+02
  -4.490190e+02   3.105803e+01
  -2.193279e+02  -3.892030e+02
   1.647675e+02  -2.008109e+02
   2.776735e+02   2.756439e+02
  -8.396560e+01   4.724333e+02
  -4.929627e+02   7.676188e+01
  -5.447375e+02  -3.665470e+02
  -1.660359e+02  -5.010989e+02
   3.462077e+02  -2.845511e+02
   5.091210e+02   6.537774e+01
   3.266319e+02   2.568531e+02
  -6.486660e+01   2.934471e+02
  -2.936488e+02   6.480086e+01
  -2.250280e+02  -1.116858e+02
   2.308338e+01  -8.178208e+01
   9.222755e+01   9.030605e+01
  -1.523957e+02   1.545105e+02
  -2.786353e+02  -4.347607e+01
  -1.507944e+02  -2.567179e+02
   1.971173e+02  -2.419482e+02
   3.278635e+02  -6.184199e+01
   2.319371e+02   1.056692e+02
  -3.337943e+01   3.042042e+02
  -3.037694e+02   3.395310e+02
  -3.211411e+02   1.895785e+02
  -2.405608e+02  -1.085602e+02
  -5.927419e+01  -3.779231e+02
   7.300299e+01  -3.266864e+02
   3.339972e+01  -1.811842e+02
  -1.478196e+01  -6.762400e+01
   5.168810e+01  -1.581233e+02
   1.826954e+02  -1.084073e+02
   2.405370e+02   1.380846e+02
   1.253534e+02   2.524671e+02
  -6.551465e+01   2.452971e+02
  -1.839723e+02   3.981690e-01
  -1.475196e+02  -2.273179e+02
  -8.330612e+00  -3.115094e+02
   2.337599e+02  -9.550161e+01
   2.977221e+02   1.604107e+02
   1.516529e+02   3.514015e+02
  -8.302641e+01   2.667443e+02
  -1.880834e+02   1.170227e+02
  -1.772335e+02   2.767731e+01
  -1.656470e+02   2.802349e+01
  -2.551406e+02   9.042149e+01
  -3.862618e+02  -5.585456e+01
  -2.714351e+02  -2.900414e+02
   5.513687e+01  -4.273421e+02
   3.386307e+02  -3.837300e+02
   4.432575e+02  -1.898252e+02
   3.133011e+02   4.802024e+01
   8.285947e+01   2.629892e+02
  -1.089425e+02   1.967281e+02
  -5.984687e+01   3.812387e+01
   1.082190e+02  -5.540464e+01
   1.532768e+02   3.595982e+01
   5.853445e+01   1.398938e+02
  -9.628358e+01   1.679756e+02
  -1.440967e+02   1.713599e+01
   2.341855e+00  -1.481223e+02
   1.241357e+02  -5.776520e+00
   1.066611e+02   2.002966e+02
   2.951773e+00   2.814610e+02
  -2.378919e+02   2.082120e+02
  -3.115577e+02  -7.743602e+01
  -2.893163e+02  -2.381959e+02
  -8.561805e+01  -2.522406e+02
   9.685792e+01  -1.698801e+02
   1.643885e+02  -1.761107e+01
   8.136775e+01  -2.937764e+01
   5.030334e+00  -5.208524e+01
   4.463775e+01  -1.474743e+02
   1.048046e+02  -4.411747e+01
   1.463039e+02  -2.444982e+00
   3.035927e+00   6.617947e+01
  -6.669259e+01  -1.218061e+01
   2.963932e+01  -9.396564e+01
   1.335992e+02  -7.768701e+01
   2.542953e+02  -1.503087e+01
   2.360646e+02   1.673307e+02
   3.554690e+01   2.333651e+02
  -1.911764e+02   2.099635e+02
  -2.532451e+02   9.899204e+01
  -1.195592e+02  -7.521587e+01
  -1.233958e+01  -1.223382e+02
   8.068657e+01  -2.453541e-01
  -1.537507e+01   1.054668e+02
  -1.733360e+02   2.506113e+01
  -1.938243e+02  -9.826115e+01
  -6.046160e+01  -1.766182e+02
   1.033579e+02  -1.126571e+02
   1.194143e+02   2.435257e+01
   5.171579e+01   3.682858e+01
  -1.665771e+01  -1.743499e+01
  -1.959101e+01  -1.224415e+02
   7.777667e+01  -1.241707e+02
   1.920587e+02   2.274771e+00
   1.425305e+02   1.355293e+02
  -7.351338e+00   2.212522e+02
  -1.689723e+02   9.574650e+01
  -1.667861e+02   3.211187e+01
  -6.544562e+01  -1.120166e+02
   3.611063e+01  -9.945875e+01
   7.387225e+01   3.041080e+00
   2.557018e+01   1.185422e+01
  -2.482199e+01   1.809220e+01
  -4.819516e+00   1.108612e+01
   7.623884e+01  -4.176712e+01
   1.190596e+02   5.952409e+01
   2.851990e+00   1.347303e+02
  -1.503471e+02   1.288088e+02
  -2.441855e+02   3.632505e+01
  -1.839969e+02  -1.131013e+02
   7.550625e+00  -2.276114e+02
   6.722002e+01  -1.323362e+02
   1.323143e+02  -2.464109e+01
   4.601417e+01   5.251245e+01
  -9.669922e-01   9.895285e+00
   7.171271e+01  -3.547306e+01
   1.114963e+02   2.225010e+01
   3.360344e+01   7.092286e+01
  -5.388511e+01   1.248489e+02
  -9.738261e+01   8.005795e+01
  -1.455341e+02  -6.059447e+01
  -2.489633e+01  -1.534375e+02
   1.089311e+02  -8.143305e+01
   1.888557e+02   9.044418e+01
   2.878794e+01   2.270536e+02
  -1.152895e+02   1.811210e+02
  -2.518222e+02   6.778427e+01
  -2.474336e+02  -8.043904e+01
  -4.553098e+01  -1.533074e+02
   8.896148e+01  -8.873172e+01
   4.086698e+01  -7.982279e+01
   6.016328e+01  -9.799589e+01
   5.353476e+01  -1.150770e+02
   7.874712e+01  -1.139040e+02
   1.204040e+02   2.369686e+01
   1.300969e+02   1.352576e+02
   1.032484e+02   2.271398e+02
  -1.154814e+02   2.309621e+02
  -1.963411e+02   4.037378e+01
  -1.068674e+02  -1.041128e+02
  -1.108326e+01  -1.427334e+02
   5.192874e+01  -9.055588e+01
   2.589011e+01  -2.170613e+00
   1.964301e+01   8.615126e+01
  -2.453987e+01   4.971568e+01
   2.871467e+01  -2.323101e+01
   9.040245e+01  -3.172165e+01
   8.182366e+01   5.462846e+01
  -3.503587e+01   3.189388e+00
  -1.378921e+02   2.709226e+01
  -1.800981e+02  -4.083857e+01
  -3.327185e+01  -7.590134e+01
   1.343959e+02  -9.936594e+01
   1.295389e+02  -1.313011e+01
   7.396224e+01   6.686434e+01
  -3.713490e+01   2.271220e+01
  -1.129917e+02  -4.257868e+01
   3.402889e+01  -7.328421e+01
   3.099198e+01  -4.613672e+01
   1.125499e+02  -2.035079e+01
   7.174131e+01   6.181824e+01
   9.960730e+01   3.354855e+01
   6.071297e+01  -1.356893e+01
   4.274923e+01  -9.151514e+00
   2.593215e+01   6.650799e+01
  -5.543930e+01   1.630528e+02
  -1.590917e+02   1.380457e+02
  -1.965052e+02   3.774934e+01
  -9.798057e+01  -1.217763e+02
  -6.293022e+00  -1.312165e+02
   3.636121e+01  -1.127483e+02
   3.318644e+01   8.812241e+00
  -6.969211e+01   9.495981e+00
  -1.361887e+02  -8.711408e+01
  -9.870272e+01  -9.602394e+01
   9.776256e+01  -1.042497e+02
   1.754602e+02  -3.549768e+01
   1.782941e+02   3.800545e+01
   1.482975e+01   1.072879e+02
  -9.171143e+01   8.165232e+01
  -1.895932e+01   1.004597e+01
   2.232166e+01  -3.242667e+01
   8.473953e+01   2.632622e+01
   2.193217e+00   1.545979e+02
  -1.005859e+02   1.139794e+02
  -1.593418e+02   8.514761e+01
  -1.226747e+02  -5.854348e+01
  -3.460227e+01  -1.634526e+02
   8.148855e+01  -1.104485e+02
   1.178055e+02  -4.123684e+01
   2.067152e+01   8.408855e+01
   2.275135e+01   1.130711e+02
  -3.486440e+01  -3.616028e+00
  -4.405773e+01  -3.376751e+00
  -4.615690e+01   4.501158e-01
  -2.417075e+01   1.649961e+01
  -4.417975e+01   4.373835e+01
  -7.446287e+01  -1.410682e+02
  -6.037865e+01  -1.114907e+02
   9.024940e+01  -5.037621e+01
   1.188456e+02   2.673423e+00
   1.200148e+02   4.864317e+01
   4.211472e+01   4.490335e+01
  -9.648782e+01   1.600523e+01
  -7.783058e+01   2.818576e+01
  -2.737600e+01  -4.438062e+01
   1.393889e+00  -3.493414e+01
   4.989792e+00   4.246759e+01
  -4.466079e+01  -1.193245e+01
   3.156573e+01  -2.520683e+01
   8.045504e+01  -5.547206e+00
   1.118604e+02   6.489366e+00
   4.102873e+01   6.925615e+01
  -6.705744e+01   8.632478e+01
  -1.729825e+02   7.087422e+01
  -1.064373e+02  -6.523436e+01
  -1.370207e+01  -1.659447e+02
   9.450653e+01  -1.537846e+02
   1.517272e+02  -2.864545e+01
   5.596082e+01   2.894084e+01
  -1.600098e+01   5.965131e+01
   2.016614e+01  -2.184913e+01
   1.065217e+01   5.719620e+00
   4.060776e+01   6.309382e+01
   6.254164e+01   2.630479e+01
   8.850596e+00   9.156231e+01
  -7.907173e+01  -3.771719e+01
  -5.997307e+01  -1.175893e+02
   4.476588e+01  -8.508489e+01
   1.008121e+02  -7.592185e+00
   6.019218e+01   5.529097e+01
   6.497865e+01   8.756812e+01
  -6.749750e+01   5.808920e+01
  -9.892688e+01   4.392388e+01
  -7.983996e+01   7.662978e+00
   3.405709e+01  -5.207724e+01
   5.698671e+01  -1.765735e+01
  -5.246035e+01   1.666792e+01
  -5.635332e+01  -3.888166e+01
  -1.776103e+01   6.472451e+00
   6.666322e+01  -9.587092e+01
   1.034906e+02  -1.129565e+02
   6.226937e+01   7.212973e+00
  -2.940672e+00   9.413557e+01
  -7.549187e+01   4.304756e+01
  -2.254687e+01   2.275053e+01
   1.018197e+01  -9.463688e+01
  -9.415505e+00  -2.629909e+01
   3.113385e+01   5.036684e+01
  -1.482712e+01   4.097103e+01
  -1.045623e+01   1.115943e+01
  -5.964605e+01   3.870948e+00
  -8.738178e+01  -7.226553e+00
  -5.124726e+01  -6.286375e+00
  -3.448698e+01   2.780959e+01
  -8.655562e+00   1.936328e+01
  -2.006383e+01  -8.758945e+01
  -5.012150e+01  -9.465236e+01
   3.669341e+00  -5.375718e+01
   2.166616e+01   5.764719e+01
   3.018532e+01   4.467955e+01
  -5.828747e+01  -4.190047e+01
  -5.013627e+01  -2.744240e+01
   5.081063e+00  -9.878615e+00
   5.752391e+01  -1.506519e+01
   9.922617e+01   3.778104e+01
   9.590065e+00   3.356933e+01
  -2.535533e+01   7.519448e+01
  -4.278280e+01   1.551324e+01
  -6.226019e+01   1.934166e+01
   5.662862e+01  -6.048202e+00
   7.570421e+01  -1.815121e+00
  -4.285633e+01   4.858450e+01
  -8.474690e+01   9.480092e-01
