
 $NMID
 id='ANONYMOUS ', fmtdat='(2E16.6)'
 volume=1.0
 tramp=1.0
 $END
  -2.860702e+03  -1.526478e+02
  -1.923475e+03  -1.731368e+03
   2.670505e+02  -1.996641e+03
   1.325150e+03  -1.144604e+03
   8.301354e+02  -1.648235e+02
  -9.141123e+01   3.271957e+02
  -3.939392e+02  -2.316684e+01
  -7.181512e+01  -6.635160e+02
   5.297496e+02  -6.074431e+02
   6.409401e+02   8.174220e+00
   3.536125e+02   5.543849e+02
  -8.686284e+01   5.466877e+02
  -2.994467e+02   8.384428e+01
  -2.611112e+02  -3.671429e+02
   1.348972e+02  -4.837582e+02
   4.662473e+02  -5.129427e+01
   3.173714e+02   5.083028e+02
  -1.348124e+02   5.839707e+02
  -4.509872e+02   1.486173e+02
  -4.275549e+02  -1.050791e+02
  -9.882812e+01  -3.080649e+02
   1.332876e+02  -1.895762e+02
   5.628282e+01  -1.049111e+02
  -1.250838e+02  -1.171212e+02
  -1.932273e+02  -2.525840e+02
   2.913775e+01  -3.126969e+02
   4.070330e+02  -1.291980e+02
   6.016659e+02   1.086618e+02
   2.591420e+02   4.011004e+02
  -3.076034e+02   2.085657e+02
  -5.316819e+02  -1.172194e+02
  -2.083561e+02  -3.525944e+02
   2.428730e+02  -3.253083e+02
   4.340370e+02  -1.026226e+02
   3.531200e+02   1.516526e+02
   1.107232e+02   3.145589e+02
  -5.458506e+01   1.908663e+02
  -3.482389e+01  -7.018350e+01
   1.198209e+02  -1.688509e+02
   1.629415e+02   1.274085e+02
   2.621637e+01   4.551480e+02
  -2.622355e+02   4.321363e+02
  -3.113239e+02  -2.687953e+01
  -1.576150e+02  -2.968513e+02
   1.351543e+02  -1.435517e+02
   1.703289e+02   2.787125e+02
  -1.181401e+02   3.650506e+02
  -3.843919e+02   2.723247e+01
  -4.242519e+02  -3.292812e+02
  -1.201809e+02  -4.223920e+02
   2.693380e+02  -2.746224e+02
   5.016281e+02   6.192787e+01
   3.132941e+02   2.732244e+02
  -8.745589e+01   3.022818e+02
  -2.966928e+02   8.596358e+01
  -2.137559e+02  -1.008085e+01
  -2.061154e+01  -4.843890e+01
   2.207431e+01   4.461866e+00
  -1.288833e+02   1.068519e+02
  -2.171896e+02  -5.501413e+01
  -1.048951e+02  -1.465998e+02
   1.428174e+02  -2.056360e+02
   3.118821e+02  -9.850347e+01
   2.147598e+02   1.146036e+02
  -4.514459e+01   2.805462e+02
  -2.894246e+02   2.915760e+02
  -3.033405e+02   1.236160e+02
  -2.023487e+02  -1.525999e+02
  -6.193677e+01  -3.343248e+02
   1.923910e+01  -3.131478e+02
   1.274827e+00  -1.759558e+02
   3.630485e+01  -1.079554e+02
   1.541943e+02  -9.919304e+01
   2.682419e+02  -3.721473e+01
   2.234567e+02   1.093978e+02
   3.059060e+01   2.652482e+02
  -1.389810e+02   1.390665e+02
  -1.851841e+02  -1.010608e+02
  -1.358122e+02  -2.358491e+02
   3.992762e+01  -2.686107e+02
   2.812039e+02  -5.530558e+01
   2.852978e+02   1.144705e+02
   1.518421e+02   2.900130e+02
  -7.036987e+01   2.235856e+02
  -1.658526e+02   1.524151e+02
  -1.498319e+02   6.426117e+01
  -1.493159e+02   7.451720e+01
  -2.380325e+02   5.198341e+00
  -3.900546e+02  -1.210484e+02
  -2.982219e+02  -2.913144e+02
   2.526211e+01  -3.691273e+02
   3.735006e+02  -3.401285e+02
   4.106562e+02  -1.873641e+02
   2.408023e+02   6.474408e+01
   2.805991e+01   2.264553e+02
  -1.152523e+02   1.963840e+02
  -1.579918e+01   4.604688e+01
   6.377697e+01  -8.105284e+01
   1.065846e+02   5.169636e+00
   6.263434e+01   8.449173e+01
  -6.617341e+01   7.984328e+01
  -5.613003e+01  -6.539662e+01
   3.932963e+01  -1.011607e+02
   1.399132e+02   2.497177e+01
   1.084942e+02   2.388021e+02
  -5.447172e+01   3.332966e+02
  -2.255517e+02   1.670763e+02
  -2.961234e+02  -6.008831e+01
  -2.563544e+02  -2.490086e+02
  -7.434225e+01  -2.738529e+02
   9.551419e+01  -1.345639e+02
   1.853690e+02  -2.662944e+01
   8.008271e+01  -4.254483e+00
  -5.160107e+01  -3.129354e+01
  -1.057391e+01  -7.493646e+01
   1.435018e+02  -7.851068e+01
   1.222757e+02   2.954082e+01
   1.357823e+01   9.822338e+01
  -7.730972e+01  -7.263944e+00
  -1.805246e+01  -8.394583e+01
   1.076152e+02  -6.433336e+01
   2.788582e+02  -1.794966e+01
   2.516866e+02   1.562248e+02
   1.869955e+01   2.045621e+02
  -2.500000e+02   1.437642e+02
  -2.688546e+02   6.456688e+01
  -1.453375e+02  -4.850453e+01
   6.097402e+01  -5.767154e+01
   5.773610e+01  -3.947637e+01
  -5.099326e+01   5.188132e+01
  -1.723867e+02   5.316135e+01
  -1.733374e+02  -9.009845e+01
  -2.190837e+01  -1.965577e+02
   1.252440e+02  -1.679493e+02
   1.176323e+02  -1.863616e+01
   5.833954e+01   3.508882e+01
  -4.295750e+01  -5.572284e+00
  -3.711562e+01  -7.146014e+01
   6.040684e+01  -1.251345e+02
   1.758560e+02  -5.139509e+01
   1.457120e+02   1.114339e+02
   1.170888e+01   1.974183e+02
  -1.882422e+02   1.182253e+02
  -1.782516e+02  -1.768411e+00
  -5.465677e+01  -6.436076e+01
   4.056814e+01  -1.070910e+01
   8.927977e+01  -8.987999e+01
   1.581977e+00   4.927395e+00
  -2.602278e+01  -6.084182e+00
   1.834354e+00  -4.512541e+01
   1.040297e+02  -1.282543e+01
   1.079879e+02   8.854032e+01
   2.357021e+01   1.596759e+02
  -1.548168e+02   1.533469e+02
  -2.390519e+02   1.206713e+01
  -1.575222e+02  -1.610000e+02
  -1.815981e+01  -2.629815e+02
   1.288457e+02  -1.963097e+02
   1.646171e+02  -4.260161e+01
   6.534030e+01   8.774089e+01
   4.107945e+01   5.057734e+01
   8.243536e+01   2.714358e+01
   1.170370e+02   1.045485e+01
   3.106124e+01   1.010718e+02
  -4.018767e+01   9.556539e+01
  -1.729361e+02   4.074040e+00
  -1.203190e+02  -1.065454e+02
   3.550818e+01  -8.392446e+01
   1.474223e+02  -6.854065e+01
   1.835163e+02   1.341128e+02
   8.435090e+01   2.274255e+02
  -1.770128e+02   1.828988e+02
  -2.345478e+02   6.517819e+01
  -2.722284e+02  -6.967562e+01
  -1.264816e+02  -1.536164e+02
   5.162866e+01  -1.298701e+02
   9.638875e+01  -1.057389e+02
   6.901473e+01  -1.047701e+02
   5.570339e+01  -9.746372e+01
   9.734562e+01  -7.655603e+01
   1.611869e+02   5.812277e+01
   8.175952e+01   1.690346e+02
   4.102022e+01   2.438206e+02
  -8.100617e+01   1.890338e+02
  -1.611170e+02   1.448500e+00
  -1.350457e+02  -1.241940e+02
  -3.049450e+00  -1.352288e+02
   5.698771e+01  -1.070977e+02
   9.152832e+01   1.713713e+00
  -1.619291e+01   4.444382e+01
  -1.426267e+01   5.363634e+01
   2.068270e+01   1.248072e+01
   1.020695e+02   5.016010e+01
   2.083190e+01   2.025511e+01
  -5.110633e+01   4.256450e+01
  -1.634748e+02  -3.300575e+01
  -1.247729e+02  -7.510142e+01
  -1.300145e+01  -5.550742e+01
   1.355106e+02  -7.210188e+01
   1.643091e+02  -4.340967e+01
   3.921508e+01   4.147554e+01
  -5.364573e+01   4.245226e+01
  -5.659345e+01   6.103760e+00
  -2.556010e+01  -8.884464e+01
   6.722651e+01  -4.227782e+01
   4.755268e+01   2.128299e+01
   4.024862e+01   4.801862e+01
   3.610302e+01   1.327460e+01
   2.020410e+01  -3.100796e+00
   9.866557e+01   1.580724e+01
   4.443369e+01   7.635229e+01
  -1.976250e+00   1.330443e+02
  -1.575030e+02   1.490241e+02
  -1.817175e+02   1.348896e+01
  -1.071461e+02  -5.589198e+01
   2.791734e+00  -1.444396e+02
   7.269181e+01  -4.382860e+01
   3.788653e+01   4.395357e+01
  -6.035193e+01   3.721516e+01
  -1.588303e+02  -4.267184e+01
  -6.196440e+01  -7.869443e+01
   5.173078e+01  -9.348603e+01
   1.712896e+02  -6.531404e+01
   1.539246e+02  -7.033315e+00
   2.634027e+01   8.262691e+01
  -9.512810e+01   6.690947e+01
  -1.761013e+01   1.219490e+01
   3.299617e+01   1.622208e+00
   7.309472e+01   5.757346e+01
   8.304788e+01   1.233664e+02
  -8.451627e+01   1.334842e+02
  -1.719487e+02   8.085213e+01
  -1.868730e+02  -1.151224e+02
  -3.075995e+01  -2.026555e+02
   6.686032e+01  -1.599419e+02
   1.509752e+02  -4.659816e+00
   5.659212e+01   8.914043e+01
  -9.106076e+00   5.986657e+01
  -1.899011e+01   5.228969e+01
  -6.351724e+01   1.323547e+00
  -3.314050e+01  -2.144292e+01
  -3.434428e+01   1.029633e+01
  -3.509758e+01  -7.273769e+00
  -6.825299e+01  -9.716364e+01
  -7.042082e+01  -1.115497e+02
   7.399685e+01  -7.265882e+01
   1.502124e+02   8.520718e+01
   1.027465e+02   1.118843e+02
   3.596415e+01   5.784201e+01
  -9.511092e+01   1.755539e+01
  -6.949351e+01   5.842940e+01
  -6.963912e+01   3.879230e+01
   4.840484e+01  -3.325631e+01
   8.874984e+00  -2.587392e+01
   8.994839e+00  -1.195346e+01
   2.513511e+01  -2.650292e+01
   9.292261e+01  -1.402133e+01
   1.215848e+02   4.996019e+01
   2.549859e+01   1.279665e+02
  -7.032739e+01   1.256404e+02
  -1.938753e+02   1.123756e+02
  -1.748855e+02  -6.661687e+01
  -6.521344e+01  -1.054946e+02
   7.339787e+01  -1.220757e+02
   1.269345e+02  -9.770848e+01
   5.341650e+01   1.652428e+01
   3.034746e+01   2.774116e+01
   6.345795e+01  -2.636071e+01
   2.735967e+01   1.333210e+01
   6.619253e+01   4.043148e+01
  -1.578061e+00   3.154967e+01
  -6.547570e+00   7.254432e+01
  -5.731380e+01   1.826814e+01
  -6.156814e+01  -4.598315e+01
  -1.775005e+01  -1.139613e+02
   3.254684e+01  -2.354543e+01
   7.562198e+01   7.235075e+01
   2.445970e+01   1.352961e+02
  -2.248632e+01   5.240114e+01
  -9.129280e+01  -1.021019e+01
  -8.749465e+01  -3.111566e+01
   1.191716e+01  -3.644354e+01
   9.457741e+01  -9.661455e+00
  -2.494243e+01  -4.991284e+01
  -7.920781e+01   1.609672e+01
  -5.961589e+01   4.249653e+00
   9.192001e+01  -1.108754e+02
   1.362002e+02  -8.607263e+01
   1.113165e+02   2.013223e+01
  -7.788501e+00   1.006939e+02
  -5.895167e+01   1.084627e+02
  -4.323098e+01   4.233108e+01
  -2.312181e+01  -5.087313e+01
   2.387752e+01  -1.992895e+01
   2.107299e+01  -2.474056e+01
   1.252700e+01   3.632438e+01
  -7.527645e+00   2.034781e+01
  -3.476892e+01   2.957713e+00
  -1.958851e+01  -3.288869e+00
  -5.345477e+01   1.980926e+00
   5.935335e+00   7.359794e+00
   5.531598e+01   1.560178e+01
   1.318486e+01  -4.230099e+01
   1.445273e+01  -3.890319e+01
  -5.759604e+00  -2.361372e+01
  -1.449304e+01   5.355137e+01
  -2.431957e+01   5.602274e+01
  -6.892639e+01  -1.966347e+01
  -3.983485e+01  -6.181890e+01
   3.314427e+01  -7.546896e+01
   3.346060e+01  -1.222047e+01
   3.430120e+01   3.522018e+01
   5.653623e+01   5.132006e+01
  -1.202141e+01   3.705877e+01
  -4.198692e+01   1.348533e+01
  -4.085927e+01   7.561718e+00
   4.830704e+01  -2.684388e+00
   2.675437e+01   5.956865e+01
  -4.268361e+01   6.461232e+01
  -5.633100e+01   2.127325e+01
