
 $NMID
 id='ANONYMOUS ', fmtdat='(2E16.6)'
 volume=1.0
 tramp=1.0
 $END
  -3.206369e+03  -7.517700e+01
  -2.003600e+03  -1.728066e+03
   1.324213e+02  -1.892013e+03
   1.426488e+03  -9.513061e+02
   8.146182e+02  -3.944761e+01
  -2.410056e+02   2.026505e+02
  -4.360375e+02  -2.286390e+02
   8.894223e+01  -6.168543e+02
   5.245993e+02  -5.817622e+02
   6.462628e+02   1.179608e+01
   4.627998e+02   4.767700e+02
  -5.190526e+01   7.067341e+02
  -4.285815e+02   4.092521e+01
  -2.453875e+02  -5.041375e+02
   1.460157e+02  -5.120902e+02
   4.161259e+02  -8.909020e+01
   2.573142e+02   4.878231e+02
  -1.425329e+02   5.720737e+02
  -4.162044e+02   1.864625e+02
  -4.340927e+02  -1.716254e+02
  -2.156083e+02  -3.346792e+02
   1.228235e+02  -2.588170e+02
   3.837639e+01  -3.855758e+01
  -1.232897e+02  -3.324348e+00
  -4.182799e+02  -1.452081e+02
  -1.574005e+02  -3.453048e+02
   3.841473e+02  -2.801644e+02
   6.739055e+02   3.801180e+01
   3.466083e+02   4.560679e+02
  -3.392854e+02   2.957456e+02
  -4.785708e+02  -7.612507e+01
  -9.464339e+01  -3.655046e+02
   3.180303e+02  -3.381300e+02
   4.238803e+02  -1.357070e+02
   3.145510e+02   1.551104e+02
   7.585071e+01   2.483431e+02
  -9.112495e+01   1.372416e+02
  -1.793099e+01  -1.569567e+02
   1.947274e+02  -2.373794e+02
   2.743082e+02   7.444308e+01
   1.641317e+02   5.226125e+02
  -1.967804e+02   5.589168e+02
  -3.605825e+02   3.506694e+01
  -2.026713e+02  -3.308441e+02
   1.060310e+02  -1.863939e+02
   2.214866e+02   2.750024e+02
  -9.727063e+01   4.322918e+02
  -4.406512e+02   5.023105e+01
  -4.780320e+02  -3.501316e+02
  -1.436624e+02  -5.176838e+02
   3.354621e+02  -3.514750e+02
   5.441453e+02   5.485749e+01
   3.030736e+02   3.008895e+02
  -9.909103e+01   2.440231e+02
  -3.223980e+02   6.017950e+01
  -2.160746e+02  -7.541591e+01
   6.693001e+01  -7.044637e+01
   8.228765e+01   1.012873e+02
  -1.127080e+02   1.592054e+02
  -2.064490e+02  -4.776046e+00
  -1.410248e+02  -2.572053e+02
   1.533538e+02  -2.503383e+02
   2.866861e+02  -1.181219e+02
   2.039177e+02   7.488230e+01
   1.075802e+00   2.472617e+02
  -2.180557e+02   3.808218e+02
  -3.375886e+02   2.239603e+02
  -2.504858e+02  -1.490774e+02
  -2.785439e+01  -3.940703e+02
   4.753759e+01  -3.014746e+02
   2.356283e+01  -1.325247e+02
  -2.690212e+01  -3.784494e+01
   6.506346e+01  -1.149147e+02
   2.586359e+02  -8.325528e+01
   3.237629e+02   6.369173e+01
   1.378026e+02   2.579554e+02
  -1.040465e+02   1.384263e+02
  -2.159222e+02  -2.428460e+01
  -1.348052e+02  -2.512608e+02
   7.711040e+01  -2.660920e+02
   2.419787e+02  -6.011967e+01
   3.208962e+02   1.858566e+02
   1.720703e+02   2.766265e+02
  -8.758535e+01   2.884391e+02
  -1.012545e+02   1.966041e+02
  -1.409766e+02   9.563079e+01
  -1.576448e+02   1.213353e+02
  -2.883589e+02   2.965779e+01
  -4.189366e+02  -7.929663e+01
  -2.583160e+02  -3.078821e+02
   3.494087e+01  -4.324949e+02
   3.610357e+02  -4.029804e+02
   4.324351e+02  -2.086498e+02
   2.953278e+02   1.218171e+02
   4.775356e+01   2.826683e+02
  -6.576501e+01   2.379113e+02
  -1.243389e+01   4.728651e+01
   1.438335e+02  -3.919345e+01
   1.288610e+02   7.953945e+00
  -8.579593e+00   1.527825e+02
  -1.493832e+02   1.650681e+02
  -1.431850e+02  -7.034984e+01
   4.444782e+01  -1.486475e+02
   1.731681e+02  -1.598377e+01
   1.239959e+02   1.977297e+02
  -3.056865e+01   3.205169e+02
  -2.571676e+02   2.066793e+02
  -3.666995e+02  -4.908718e+01
  -3.209287e+02  -2.350258e+02
  -8.156659e+01  -2.499652e+02
   1.161912e+02  -1.604449e+02
   2.020806e+02  -1.466504e+01
   5.737533e+01   7.184809e+00
  -5.465971e+01  -6.261290e+01
   1.192618e+01  -1.113967e+02
   1.092890e+02  -3.353171e+01
   1.802830e+02   5.252905e-01
  -6.132928e+00   6.451717e+01
  -9.941738e+01   5.122536e+01
  -6.393646e+01  -1.029443e+02
   9.420642e+01  -9.106541e+01
   2.762144e+02   4.883831e-01
   2.067969e+02   1.443573e+02
   4.771941e+01   2.185650e+02
  -1.500779e+02   2.225771e+02
  -2.440450e+02   4.574166e+01
  -1.388475e+02  -4.179537e+01
   2.674285e+00  -5.397388e+01
   9.749851e+01   3.912070e+01
  -5.498986e+01   9.879100e+01
  -1.712351e+02   2.989556e+01
  -1.711397e+02  -1.348249e+02
  -5.963414e+01  -1.945505e+02
   1.037278e+02  -1.150025e+02
   1.782924e+02  -1.597183e+01
   9.129513e+01   3.961242e+00
  -6.522804e+01  -1.738504e+01
  -4.669756e+01  -1.172657e+02
   6.524984e+01  -1.186267e+02
   2.118475e+02   1.286206e+01
   1.813471e+02   1.320661e+02
  -1.833785e+01   2.059359e+02
  -1.724430e+02   1.552030e+02
  -2.153812e+02  -8.884266e+00
  -9.389922e+01  -1.318081e+02
   8.083606e+01  -5.381486e+01
   6.041896e+01   1.095288e+01
   1.470176e+01   1.149683e+01
  -2.863563e+01  -1.374640e+01
  -1.834783e+01  -2.861758e+01
   1.064049e+02   4.387661e+00
   9.682554e+01   9.628391e+01
  -4.373229e+01   1.551015e+02
  -1.448551e+02   1.449202e+02
  -2.416151e+02   1.133283e+01
  -1.602688e+02  -1.279141e+02
  -3.289030e+01  -2.699927e+02
   1.140954e+02  -1.650665e+02
   1.269316e+02  -2.169687e+01
   5.112250e+01   6.322867e+01
  -8.258376e+00   2.299058e+01
   5.571693e+01  -3.806491e+01
   4.565624e+01  -7.172951e+00
   4.206809e+01   8.279221e+01
  -2.270443e+01   1.051826e+02
  -1.277909e+02   8.354686e+01
  -1.502494e+02  -5.525824e+01
   9.624696e+00  -1.359357e+02
   1.624559e+02  -1.087460e+02
   1.961697e+02   8.665768e+01
   6.371313e+01   2.897840e+02
  -1.405070e+02   2.207821e+02
  -2.293426e+02   1.244049e+02
  -2.737784e+02  -1.079261e+02
  -8.370709e+01  -1.821848e+02
   3.761696e+01  -1.584064e+02
   5.613218e+01  -8.561805e+01
   6.302003e+01  -4.617775e+01
   8.929018e+01  -1.083142e+02
   1.247057e+02  -7.956423e+01
   1.617218e+02   1.402955e+00
   9.502583e+01   1.496839e+02
   3.709979e+00   2.050532e+02
  -1.212559e+02   1.266500e+02
  -1.583899e+02   4.332467e+01
  -1.258835e+02  -1.600493e+02
  -2.074096e+01  -1.773253e+02
   1.060422e+02  -8.944696e+01
   2.562634e+01  -2.778300e+00
   1.245134e+01   2.395346e+00
   8.921425e+00   1.646002e+01
   5.352925e+01  -4.012899e+00
   4.638422e+01  -2.287820e+01
   2.958335e+01   3.715447e+01
  -3.615073e+01   6.425191e+01
  -1.294254e+02   2.505175e+01
  -1.363111e+02  -5.301647e+01
   2.961549e+00  -1.088203e+02
   1.180315e+02  -7.222956e+01
   1.570754e+02  -2.059928e+01
   6.310111e+01   4.521221e+01
  -3.242389e+01   6.644138e+01
  -9.661972e+01  -6.684963e+00
  -2.603064e+01  -3.827199e+01
   3.929078e+01  -8.062010e+01
   7.711098e+01  -6.736693e+01
   6.419655e+01   5.386751e+01
   6.531645e+01   3.637686e+01
   8.902600e+01  -8.369405e+00
   5.188367e+01   8.922727e-01
   6.206018e+01   1.413498e+02
  -1.957118e+01   1.995148e+02
  -1.491835e+02   1.380910e+02
  -2.007106e+02   6.601352e+01
  -1.289761e+02  -8.629208e+01
  -8.539510e+00  -1.097661e+02
   6.096687e+01  -2.602750e+01
   3.514524e+01   3.874746e+01
  -5.207011e+01   7.421636e+00
  -1.622156e+02  -4.359482e+01
  -7.591694e+01  -1.376074e+02
   1.035741e+02  -1.077055e+02
   1.330334e+02  -7.390849e+00
   1.601440e+02   4.039633e+01
   2.499773e+01   7.323595e+01
  -4.179232e+01   4.559926e+01
  -2.875706e+01  -1.676202e+01
   5.662961e+01  -3.417659e+01
   7.317132e+01   1.275196e+01
   3.064187e+01   9.119644e+01
  -8.812263e+01   1.553317e+02
  -1.677259e+02   5.218370e+01
  -1.925366e+02  -9.484153e+01
  -4.620575e+01  -1.805481e+02
   7.628983e+01  -1.328715e+02
   1.211750e+02  -1.979639e+01
   8.416173e+01   1.141577e+02
  -3.409891e+00   1.071216e+02
  -4.151435e+01   5.451353e+01
   1.354763e+00   3.646266e+00
  -2.676435e+01  -3.229060e+01
  -5.669682e+00   2.048999e+01
  -4.346232e+01  -4.537158e+01
  -8.226144e+01  -6.582416e+01
  -8.025623e+01  -1.145587e+02
   8.729317e+01  -3.476517e+01
   1.185119e+02   6.651678e+00
   8.254763e+01   6.060092e+01
   1.759378e+01   3.574125e+01
  -9.589965e+01   4.131137e+01
  -6.695908e+01  -2.628992e+01
  -3.912651e+00  -3.408250e+01
  -3.515600e+01   1.729869e+01
   8.144185e+00  -1.853638e+01
  -9.513519e+00   3.466413e+01
   2.551103e+01   1.207007e+01
   7.404278e+01  -1.013664e+01
   9.590216e+01   2.024152e+01
   3.295243e+01   9.628832e+01
  -9.675427e+01   7.918593e+01
  -1.998131e+02   7.161592e+01
  -1.511606e+02  -9.981166e+01
  -5.248240e+01  -1.755409e+02
   3.267443e+01  -1.366639e+02
   9.806615e+01  -1.132871e+02
   1.105189e+02   1.721328e+01
  -1.144681e+01   1.078775e+01
  -1.302913e+01   2.259809e+01
   2.182517e+01   4.457280e+01
   2.752569e+01   5.242462e+01
   6.325696e+00   9.022975e+01
  -6.815642e+01   8.587528e+01
  -1.185544e+02  -1.491888e+01
  -1.218073e+02  -8.021665e+01
   3.219545e+01  -1.003949e+02
   6.626553e+01  -4.091154e+01
   1.045932e+02   5.506639e+01
   8.562225e+01   5.943599e+01
  -6.668361e+01   7.744253e+01
  -7.944316e+01   6.380214e+00
  -2.034091e+01  -4.877362e+01
   1.847346e+01  -6.065074e+01
   3.457280e+01  -6.221648e+01
   2.051857e+00  -2.858212e+01
  -4.791510e+01   4.649920e+01
   1.723330e+01  -2.463506e+01
   8.567308e+01  -5.293332e+01
   1.136301e+02  -6.988243e+01
   6.219928e+01  -8.943205e+00
  -5.483352e+00   8.158197e+01
  -5.811879e+01   9.244227e+01
  -2.677709e+01   2.674683e+01
  -2.461408e+00  -2.227629e+01
   6.502929e-01  -5.057086e+01
  -9.360080e+00  -3.867508e+01
   1.056544e+00   4.310164e+01
  -2.698292e+01   4.515253e+00
   1.609189e+00   2.112406e+01
  -1.411099e+01   5.759130e+00
  -1.585991e+01   8.943080e+00
  -2.538280e+01  -3.249672e+01
  -5.660543e+01  -4.498921e+01
  -6.599100e-01  -5.184518e+00
   2.436188e+01  -4.320426e+01
   4.834993e+01  -4.196487e+01
   5.658557e+01  -1.142814e+01
   4.417206e+01   7.763206e+00
  -4.764561e+01  -9.959228e+00
  -3.456878e+01   9.185415e+00
  -2.193787e+01  -3.723789e+01
   5.253553e+01  -9.412891e+00
   7.931743e+01   1.079954e+01
  -1.085089e+00   2.832267e+01
  -2.105954e+01   7.196877e+01
  -5.817870e+01   3.035173e+01
  -4.192708e+00   1.960720e+00
   3.622277e+01   1.718595e+01
   4.041073e+01   2.927292e+01
  -4.249818e+00   3.993031e+01
  -5.432940e+01   2.572902e+01
