
 $NMID
 id='ANONYMOUS ', fmtdat='(2E16.6)'
 volume=1.0
 tramp=1.0
 $END
   2.825075e+03  -2.390063e+02
   2.082385e+03   1.247186e+03
  -1.593851e+02   1.773403e+03
  -1.337964e+03   8.178308e+02
  -7.541644e+02  -5.247571e+01
   8.342682e+00  -1.039593e+02
   3.718883e+02   6.771706e+01
  -8.711036e+01   4.843765e+02
  -4.631677e+02   5.276564e+02
  -6.296640e+02   7.424051e+01
  -3.616291e+02  -5.509359e+02
   6.223825e+01  -6.630361e+02
   2.811885e+02  -1.545076e+02
   1.520536e+02   5.045151e+02
  -1.541136e+02   5.234187e+02
  -4.717330e+02   7.182631e+00
  -3.204324e+02  -5.315802e+02
   1.337160e+02  -5.563107e+02
   5.031653e+02  -1.885835e+02
   4.319578e+02   2.166787e+02
   1.652978e+02   3.961180e+02
  -5.770985e+01   2.452316e+02
  -9.445976e+01   6.603420e+01
   1.633659e+02  -4.559041e+01
   2.919489e+02   1.740102e+02
  -2.467346e+01   3.401956e+02
  -5.026655e+02   1.768965e+02
  -6.594012e+02  -2.201701e+02
  -2.419072e+02  -4.297313e+02
   3.455190e+02  -2.102737e+02
   4.766447e+02   1.009568e+02
   2.102788e+02   2.914885e+02
  -2.924342e+02   3.536451e+02
  -4.468936e+02   1.039229e+02
  -2.307839e+02  -1.869512e+02
   1.721142e+01  -3.265088e+02
   1.336779e+02  -1.800858e+02
   6.341273e+00   1.723779e+02
  -1.596375e+02   2.183359e+02
  -2.303997e+02  -1.086035e+02
  -6.441520e+01  -4.857242e+02
   3.004316e+02  -4.534606e+02
   3.815700e+02   2.614257e+00
   1.342895e+02   4.040332e+02
  -1.920836e+02   1.933947e+02
  -2.715281e+02  -2.616812e+02
   7.826468e+01  -3.798659e+02
   4.788902e+02  -1.252196e+02
   4.746485e+02   3.314543e+02
   1.535577e+02   4.527755e+02
  -2.821779e+02   2.410876e+02
  -4.943313e+02  -6.594030e+01
  -2.759249e+02  -2.967783e+02
   7.353814e+01  -2.700043e+02
   2.891916e+02  -3.793835e+01
   2.090460e+02   7.165590e+01
   5.779983e+00   1.013957e+02
  -9.472137e+01  -5.661236e+01
   1.173479e+02  -8.241299e+01
   1.926661e+02   5.434946e+01
   9.844238e+01   1.528407e+02
  -1.641328e+02   2.009151e+02
  -2.474971e+02   9.691278e+01
  -1.678167e+02  -7.026845e+01
   5.570880e+01  -2.495607e+02
   1.809592e+02  -2.618034e+02
   3.145869e+02  -1.949853e+02
   2.535611e+02   1.557157e+02
   6.052420e+01   3.292393e+02
  -7.886919e+01   3.246684e+02
  -4.946752e+01   1.494431e+02
  -4.508446e+01   1.229829e+02
  -8.459632e+01   1.146835e+02
  -2.043291e+02   8.137919e+01
  -2.544971e+02  -1.046722e+02
  -1.096106e+02  -2.345726e+02
   1.338079e+02  -2.012639e+02
   1.690080e+02   1.303030e+01
   1.272947e+02   1.505142e+02
  -3.839135e+01   2.822948e+02
  -2.708156e+02   7.987177e+01
  -2.795029e+02  -1.758281e+02
  -1.133211e+02  -3.177448e+02
   8.279730e+01  -2.720792e+02
   1.632561e+02  -1.519004e+02
   1.451154e+02  -2.788383e+01
   1.000245e+02  -7.038206e+01
   2.597472e+02  -2.304944e+01
   3.528459e+02   1.006641e+02
   2.507446e+02   2.783901e+02
  -1.793001e+01   3.877268e+02
  -3.006563e+02   3.917672e+02
  -5.100987e+02   1.550829e+02
  -2.778588e+02  -1.596427e+02
  -3.831412e+01  -2.432794e+02
   1.649646e+02  -1.513558e+02
   3.901151e+01  -1.304653e+01
  -1.076627e+02   4.074017e+01
  -1.194635e+02  -1.162875e+02
  -1.865693e+01  -1.570006e+02
   1.284827e+02  -8.803831e+01
   1.452609e+02   3.552382e+01
   2.595928e+01   6.011798e+01
  -9.468688e+01   8.370139e+01
  -1.556310e+02  -2.151986e+02
   5.706567e+01  -3.020586e+02
   2.497413e+02  -1.811115e+02
   2.976164e+02   6.502867e+01
   2.203636e+02   2.390008e+02
   3.005417e+01   2.547206e+02
  -1.525768e+02   1.261171e+02
  -1.522050e+02  -4.593923e+01
  -8.602401e+01  -4.936361e+01
   2.570830e+01   4.814075e+01
   4.707472e+01   1.402568e+02
  -1.013947e+02   9.321266e+01
  -1.539869e+02  -3.052486e+00
  -2.167510e+01  -1.031957e+02
   9.820620e+01  -2.678694e+00
   2.246074e+01   1.104473e+02
  -1.279567e+02   6.247912e+01
  -2.986080e+02   1.000787e+01
  -2.426598e+02  -1.524790e+02
  -4.098251e+01  -2.538367e+02
   1.825307e+02  -1.803410e+02
   2.462932e+02  -7.198644e+01
   1.515808e+02   1.185176e+01
  -2.413534e+01   7.871112e+01
  -8.368337e+01  -2.939374e+00
   4.060262e+01  -1.127414e+02
   1.217161e+02  -2.852490e+01
   1.297073e+02   1.190346e+02
  -1.371147e+01   1.950988e+02
  -1.180461e+02   8.937322e+01
  -9.959891e+01  -6.268199e-01
  -6.377930e+01  -5.256171e+01
   5.611106e+01   4.935074e+01
   1.497984e+01   1.026767e+02
  -9.856528e+01   1.300675e+02
  -1.618628e+02   7.861581e+00
  -1.283065e+02  -1.502386e+02
   1.962709e+01  -2.173874e+02
   1.702409e+02  -1.414063e+02
   1.218408e+02   2.410857e+01
  -3.178836e+00   1.228308e+02
  -4.905992e+01   6.917294e+01
  -5.374744e+01   2.409250e+01
   4.356886e+01   3.264807e+01
   4.640065e+01   1.477638e+01
  -1.799303e+01   4.884018e+01
  -7.266366e+01  -3.389671e+00
  -1.060619e+02  -1.202897e+02
  -2.382371e+01  -1.601774e+02
   1.239166e+02  -1.665416e+02
   2.404165e+02   2.838425e+00
   1.842877e+02   1.563321e+02
   4.889487e+01   2.380602e+02
  -7.765482e+01   1.558220e+02
  -1.548727e+02   4.732702e+01
  -3.118147e+01  -7.952821e+01
   4.338743e+01   8.791858e+00
  -5.202886e+01   1.444458e+01
  -9.938298e+01   3.567558e+01
  -1.032240e+01  -1.729863e+01
   2.263405e+01  -1.137855e+02
   8.378961e+01  -6.658351e+01
   1.135865e+02   5.362344e+01
   1.480249e+01   8.713628e+01
  -1.209841e+02   8.103471e+01
  -1.747224e+02   9.330220e+00
  -1.117325e+02  -1.576692e+02
   1.187647e+02  -1.486641e+02
   2.619704e+02  -9.404998e+01
   2.207303e+02   1.474337e+01
   6.443916e+01   1.635943e+02
  -7.426970e+01   1.365643e+02
  -1.007735e+02   6.813121e+01
  -9.959192e+01   3.808343e+01
  -1.425008e+01   8.679833e+01
  -1.019154e+02   1.064636e+02
  -1.435601e+02  -4.483844e+01
  -1.330225e+02  -1.342819e+02
  -5.529466e+01  -2.182830e+02
   8.178973e+01  -1.834925e+02
   1.279244e+02  -6.787640e+01
   5.812719e+01   1.040263e+02
  -2.121044e+01   1.345223e+02
  -6.422717e+01   5.523406e+01
  -7.209854e+01  -1.905134e+01
  -4.250870e+01  -1.093920e+02
   5.274511e+01  -4.092733e+01
  -2.329801e+01   3.946015e+01
  -3.861857e+01  -1.750149e+01
  -7.042862e+00  -5.697415e+01
   8.494152e+01  -2.364169e+01
   1.599171e+02   2.440366e+01
   1.380707e+02   8.549088e+01
  -2.834591e+01   1.184416e+02
  -1.289676e+02   4.836770e+01
  -3.842107e+01   2.289230e+01
  -4.208412e+01  -5.794268e+01
   2.832272e+01  -3.747143e+01
   1.159673e+02   3.011893e+01
   1.392357e+01   5.415330e+01
  -6.384525e+01   7.955681e+01
  -3.568513e+01  -4.859240e+01
  -4.870700e+01  -3.585456e+01
  -7.536256e+01  -5.113697e+01
  -6.079447e+01  -3.976670e+01
  -7.517724e+01  -2.420781e+01
  -3.676460e+01  -9.037839e+01
   2.434379e+01  -1.585851e+02
   1.515638e+02  -1.369531e+02
   2.045900e+02   6.123835e+00
   1.236648e+02   8.817704e+01
   1.280090e+01   1.328327e+02
  -7.019084e+01   4.603587e+01
  -5.131032e+01   1.148767e+01
   5.179603e+01   2.968955e+01
   1.395582e+02   4.964444e+01
   3.669185e+01   1.152232e+02
  -7.327146e+01   3.632155e+01
  -1.330662e+02   6.673346e+01
  -1.246120e+02  -3.157825e+01
  -4.560633e+01  -7.673163e+01
   3.907003e+01  -6.897800e+01
   7.695785e+00  -3.240643e+00
  -2.860453e+01  -6.929485e+00
  -1.845794e+01  -3.964261e+01
  -2.806496e+01  -1.354172e+02
   9.031015e+01  -1.078344e+02
   1.328207e+02  -3.596357e+01
   1.136043e+02   9.535123e+01
   5.707357e+00   1.594183e+02
  -4.109769e+01   1.088337e+02
  -6.420389e+01  -1.156460e+01
  -3.299854e+01  -7.253487e+01
  -6.071934e-01  -9.166499e+01
   5.719475e+01  -2.952805e+01
   1.616052e+01   5.674245e+01
  -3.506052e+01  -1.299129e+01
   6.610910e+01  -2.326725e+01
   6.696431e+01   1.785906e+01
   4.585562e+01   6.863618e+01
  -4.123842e+00   1.166483e+02
  -1.096319e+02   2.101083e+01
  -1.420672e+02  -6.625990e+01
  -1.234249e+02  -4.785861e+01
   4.585044e+00  -3.833330e+01
   1.292300e+02  -6.446788e+01
   1.036464e+02   7.115689e+00
   3.105719e+01   5.104455e+01
  -1.800499e+01   1.331111e+01
  -5.504455e+01   4.327197e+01
   1.789197e+01   9.332130e+00
   1.550835e+01  -8.007054e+00
  -6.738076e+01   5.640807e+01
  -9.099444e+01   3.079173e+01
  -1.189591e+01  -1.873195e+01
   6.267702e+01  -1.030990e+02
   1.535480e+02  -7.960849e+01
   1.130569e+02   6.234926e+01
   3.809368e+01   1.406019e+02
  -1.267959e+02   9.476332e+01
  -1.040229e+02   2.086778e+00
  -4.155160e+01  -6.002753e-01
  -6.853607e+00   9.213690e+00
  -1.900621e+01   5.541286e+01
  -4.085954e+01  -8.405884e-01
  -2.598271e+01  -4.592095e+01
  -2.002211e+01  -9.185792e+01
   1.020490e+01  -4.307427e+01
   5.096615e+01  -1.872877e+00
   3.409769e+01   6.046873e+01
  -1.955192e+01   1.021949e+02
  -6.805398e+01   6.337089e+01
  -1.208836e+02  -5.119487e+01
  -5.148000e+01  -1.258076e+02
   1.003682e+02  -6.633300e+01
   9.817312e+01   1.523405e+01
   3.956242e+01   6.039945e+01
  -3.583466e+01   5.225950e+01
  -7.009422e+00   2.856916e+01
   3.143802e+01  -2.499569e+01
   5.883894e+01   3.625037e+01
   2.599006e+00   2.775776e+01
  -4.421746e+01   4.220134e+01
  -8.102128e+01   6.341623e+01
  -5.217521e+01   1.011851e+01
   1.247395e+01  -3.455944e+01
   2.572672e+01  -6.453796e+01
   2.261775e+01  -3.668258e+01
   2.429538e+01   2.745056e+01
   1.469468e+01   1.152245e+01
  -2.888371e+01  -3.165371e+01
  -2.427236e+01  -3.817686e+01
   6.497221e+00  -5.266815e+01
   4.524378e+01  -1.455751e+00
   6.276701e+01   1.986521e+01
   4.782279e+01   1.468506e+01
  -5.778335e+00   2.154218e+01
  -1.939950e+01  -9.162389e+00
  -6.237466e+01   4.642901e+01
  -2.119844e+01   5.493882e+01
  -2.702554e+01  -1.872140e+01
  -3.740020e+01   1.416150e+01
   3.580725e+01  -8.605533e+00
   2.385376e+01  -4.810581e+01
   1.374389e+01   3.515497e+01
   2.099134e+01   7.176067e+01
  -3.777146e+01   3.500584e+01
  -1.090436e+02   1.204983e+01
  -4.491176e+01  -1.798595e+01
   3.988047e+01  -1.541397e+01
   4.427338e+01  -3.115923e+01
   2.652842e+01  -3.456881e+01
   1.795453e+01  -3.228521e+01
  -1.860893e+01  -2.837834e+01
   1.824951e+01  -1.174127e+01
   2.321088e+01   3.015283e+01
