
 $NMID
 id='ANONYMOUS ', fmtdat='(2E16.6)'
 volume=1.0
 tramp=1.0
 $END
   4.409577e+03   1.745447e+02
   2.716362e+03   2.587533e+03
  -6.552702e+02   3.039724e+03
  -2.350805e+03   8.488366e+02
  -8.500128e+02  -6.663883e+02
   7.013045e+02  -5.619120e+02
   1.025021e+03   3.657646e+02
   7.598876e+01   1.100340e+03
  -8.675319e+02   8.230484e+02
  -1.074538e+03  -1.163857e+02
  -4.266345e+02  -8.956115e+02
   2.685339e+02  -9.779059e+02
   7.692318e+02  -1.574512e+02
   3.887668e+02   7.774865e+02
  -2.760298e+02   7.861164e+02
  -7.118841e+02  -9.531737e+01
  -2.519435e+02  -7.556151e+02
   3.177559e+02  -6.733586e+02
   6.220954e+02  -1.529942e+02
   4.110482e+02   3.716471e+02
   4.070667e+01   3.968906e+02
  -2.723576e+02   2.480270e+02
  -2.906245e+02   1.148571e+01
   5.396326e+01  -1.531383e+02
   5.018222e+02   3.005045e+01
   2.492307e+02   3.982455e+02
  -4.424972e+02   4.266611e+02
  -9.146120e+02  -3.961242e+01
  -4.130789e+02  -5.858185e+02
   4.250688e+02  -4.948320e+02
   8.018808e+02  -1.460449e+01
   3.958874e+02   4.700169e+02
  -2.494522e+02   5.443502e+02
  -5.153005e+02   2.308111e+02
  -4.629706e+02  -1.991230e+02
  -1.004365e+02  -5.071873e+02
   2.079902e+02  -2.776003e+02
   2.362307e+02   2.117191e+02
  -1.984707e+02   4.722625e+02
  -5.094372e+02  -5.633435e+01
  -2.671900e+02  -6.661063e+02
   3.830075e+02  -7.097363e+02
   7.101146e+02   1.900258e+01
   3.074827e+02   5.935646e+02
  -2.979932e+02   3.924128e+02
  -4.221434e+02  -2.587440e+02
   8.089196e+01  -5.095745e+02
   5.499493e+02  -1.093029e+02
   5.716865e+02   3.722756e+02
   1.662757e+02   5.902829e+02
  -4.091631e+02   4.112537e+02
  -7.200373e+02  -3.830984e+01
  -4.158586e+02  -4.222283e+02
   1.637252e+02  -4.036624e+02
   4.670038e+02  -9.598900e+01
   2.623762e+02   1.722879e+02
  -1.699371e+02   7.405683e+01
  -1.435308e+02  -1.995858e+02
   1.370796e+02  -2.003885e+02
   3.807639e+02   7.663913e+01
   1.545551e+02   3.284902e+02
  -2.214805e+02   2.806766e+02
  -3.403590e+02   3.206951e+01
  -2.163839e+02  -1.027002e+02
   3.137031e+01  -2.480137e+02
   2.355839e+02  -3.015396e+02
   3.498530e+02  -2.288792e+02
   2.597046e+02   6.478224e+01
   5.889108e+01   4.197576e+02
  -1.387631e+02   4.215418e+02
  -5.855413e+01   7.936142e+01
  -4.030878e+00  -1.937361e+01
  -4.156341e+01   5.743228e+01
  -2.262148e+02   1.509327e+02
  -2.991102e+02  -6.958852e+00
  -1.594271e+02  -2.643990e+02
   1.577106e+01  -2.825314e+02
   2.082022e+02  -3.318572e+01
   2.393499e+02   2.281353e+02
  -6.970384e+00   2.794678e+02
  -2.840065e+02   1.629179e+02
  -3.979404e+02  -1.775725e+02
  -1.989523e+02  -3.823991e+02
   9.358792e+01  -2.834311e+02
   2.345685e+02  -1.172182e+02
   1.230998e+02   1.121987e+01
   8.469094e+01   2.309911e+01
   2.240343e+02  -7.251968e+01
   4.107545e+02   2.812419e+01
   3.176055e+02   2.672468e+02
  -4.929730e+00   4.434746e+02
  -3.882929e+02   3.976852e+02
  -4.963522e+02   1.912820e+02
  -3.525776e+02  -1.079178e+02
  -6.704612e+01  -3.050810e+02
   1.481452e+02  -2.838884e+02
   1.239938e+02  -5.246819e+01
  -8.198535e+01   1.022653e+02
  -1.967007e+02  -3.621498e+01
  -6.541461e+01  -2.427085e+02
   1.556653e+02  -2.052011e+02
   2.138333e+02   3.831564e+01
  -1.429506e+00   1.705484e+02
  -2.237854e+02   2.381269e+01
  -1.534033e+02  -2.767470e+02
   1.389745e+01  -3.741620e+02
   2.289144e+02  -1.925292e+02
   3.444077e+02   1.108151e+02
   3.000592e+02   2.316113e+02
   1.467473e+02   2.876108e+02
  -1.309801e+02   1.751680e+02
  -1.725129e+02   3.581074e+01
  -2.614774e+01  -7.804114e+01
   6.386279e+01   1.944298e+01
  -5.427428e+00   1.249774e+02
  -1.488968e+02   8.171365e+01
  -1.646851e+02  -4.654460e+01
  -3.587206e+01  -1.227187e+02
   1.013539e+02  -7.047335e+01
   8.125248e+01   1.322164e+02
  -9.674411e+01   1.290900e+02
  -2.547062e+02   1.080857e+01
  -2.499701e+02  -1.468098e+02
  -5.689996e+01  -2.531149e+02
   1.889198e+02  -2.925695e+02
   2.878894e+02  -1.485015e+02
   2.234190e+02   5.337859e+01
  -7.695087e-01   1.572219e+02
  -6.466598e+01   5.087545e+01
   2.132479e+01  -7.123753e+01
   2.442337e+02  -4.775245e+01
   2.456614e+02   1.073563e+02
   9.397131e+01   2.197323e+02
  -1.149354e+02   1.368268e+02
  -1.142416e+02   1.206640e+01
  -5.265196e+01  -3.312365e+01
   2.032456e+01  -6.759303e+00
   5.760470e+01   4.901484e+01
  -6.593158e+01   1.595449e+02
  -2.406847e+02   6.881218e+01
  -1.559957e+02  -1.279814e+02
  -1.006468e-01  -2.421991e+02
   1.347647e+02  -1.155395e+02
   2.095105e+02  -1.884561e+01
   1.042967e+02   1.543046e+02
  -7.603418e+01   1.177475e+02
  -8.130189e+01   1.414760e+01
  -5.588372e+01  -5.029045e+01
   9.606456e+00  -5.994846e+00
  -4.234845e+01   2.407987e+01
  -5.173233e+01  -1.964407e+01
  -9.273877e+01  -5.206250e+01
  -2.753907e+01  -1.697457e+02
   1.857080e+02  -1.332807e+02
   2.568524e+02  -2.456906e+01
   1.925206e+02   1.721644e+02
   5.166332e+01   2.366660e+02
  -1.161190e+02   1.802499e+02
  -1.421211e+02   5.713089e+01
  -4.077802e+01  -8.938674e+01
   2.007436e+01  -3.559365e+01
  -1.078829e+02   3.541032e+01
  -1.438807e+02   1.324192e+00
  -6.365405e+01  -5.308987e+01
   5.925475e+01  -8.889684e+01
   6.253220e+01  -7.639506e+01
   7.265623e+01   3.341011e+00
  -1.775049e+01   9.864372e+01
  -1.752965e+02   1.005638e+02
  -2.035583e+02  -1.232677e+01
  -1.302123e+02  -1.941652e+02
   1.003944e+02  -2.779854e+02
   3.320024e+02  -7.136962e+01
   2.840920e+02   9.094221e+01
   9.339106e+01   1.866249e+02
  -6.231112e+01   1.304003e+02
  -9.078747e+01   6.109156e+01
  -1.021816e+02   9.013682e+01
  -5.488564e+01   1.384977e+02
  -9.817952e+01   4.584278e+01
  -1.612455e+02  -4.566928e+01
  -1.093642e+02  -2.006022e+02
  -2.709651e+01  -2.457468e+02
   7.460990e+01  -2.233835e+02
   1.907758e+02  -1.145288e+01
   1.669373e+02   1.678185e+02
   3.662012e+01   2.096132e+02
  -1.067477e+02   1.771058e+02
  -3.317311e+01   2.154220e+00
  -1.309087e+01  -5.349640e+01
   2.518625e+01   5.249431e+00
  -9.041195e+01  -2.934856e+00
  -1.552433e+02  -5.495568e+01
  -9.073895e+01  -2.042565e+01
   8.258656e+01  -4.787401e+01
   1.643954e+02   1.007059e+01
   1.328176e+02   4.928909e+01
   2.666844e+01   7.559389e+01
  -1.021356e+02   9.729443e+01
  -1.223014e+02   4.220138e+01
  -3.038699e+01  -7.546936e+00
   4.298725e+01  -2.746002e+01
   1.036085e+02   6.003003e+01
  -3.621048e+01   2.779612e+01
  -4.326853e+01   3.992067e+01
  -4.750776e+01   8.542744e+00
  -6.370528e+01  -3.040006e+01
  -6.763643e+01  -1.780348e+01
  -8.221729e+01   2.385024e+01
  -7.558917e+01   1.864894e+01
  -2.032852e+01  -8.547319e+01
   1.328433e+01  -1.627096e+02
   9.000716e+01  -1.569895e+02
   1.528276e+02  -4.483677e+01
   1.573732e+02   9.149976e+01
  -2.825049e+00   1.499648e+02
  -8.916765e+01   6.863877e+01
  -7.507093e+01  -2.018012e+00
   5.321068e+01  -5.323279e+01
   1.173886e+02   4.198209e+01
   1.009034e+02   1.161292e+02
  -5.583443e+01   1.623376e+02
  -1.836397e+02   1.917099e+01
  -1.147931e+02  -2.561580e+01
  -3.865516e+01  -7.866137e+01
   5.073157e+01  -5.309506e+01
   5.366637e+01   2.341691e+00
  -2.497735e+01  -5.165766e+00
  -7.577330e+01   7.363832e+00
  -3.150687e+01  -1.398382e+02
   9.146789e+01  -1.768174e+02
   1.719532e+02  -7.317311e+01
   1.618158e+02   5.936970e+01
  -4.869415e+00   1.839003e+02
  -4.258790e+01   1.387782e+02
  -1.239229e+02  -9.925680e-01
  -2.541952e+01  -9.342993e+01
   2.097059e+00  -1.073026e+02
   3.190748e+01  -4.645534e+01
   3.103953e+01   6.118605e+00
   3.185867e+01   1.128773e+01
   1.800105e+01  -1.602970e+01
   3.091379e+01   1.314514e+01
   6.795555e+01   6.175820e+01
   2.840884e+01   9.741536e+01
  -3.912252e+01   4.823120e+01
  -1.309910e+02  -2.120009e-01
  -1.207371e+02  -7.636709e+01
   2.827804e+00  -1.359011e+02
   7.681325e+01  -2.725282e+01
   6.839318e+01  -1.231827e+01
   9.584954e+00   8.176491e+00
  -6.554482e-01   5.273427e+01
   1.657015e+01   3.441632e+01
   5.005105e+01  -1.825490e+01
  -1.600900e+01   3.806998e+00
  -1.322000e+02   7.657623e+00
  -1.052744e+02  -5.019340e+01
  -6.902321e+00  -7.260342e+01
   8.160629e+01  -8.936045e+01
   1.491344e+02  -8.952889e+01
   1.357537e+02   6.041558e+01
   2.948715e+01   1.334799e+02
  -1.086475e+02   1.180912e+02
  -6.563227e+01   2.752885e+01
  -7.779880e+01  -9.519033e+00
  -1.170910e+01  -1.207897e+01
   1.220305e+01   1.687113e+01
  -3.605286e+01  -2.222128e+01
  -5.307267e+01  -7.231640e+01
  -8.334734e+00  -8.286846e+01
   7.837875e+01  -9.398914e+01
   1.027058e+02   3.233649e+01
   9.814733e+01   1.076428e+02
   4.293462e+01   1.109993e+02
  -6.878885e+01  -1.059842e+01
  -1.231680e+02  -5.734067e+01
  -1.594595e+01  -6.363607e+01
   1.077005e+02  -5.620699e+01
   1.154742e+02  -2.180225e+00
   2.271081e+01   2.127202e+01
  -2.572713e+01   5.155525e+01
  -4.391008e+01   7.266162e+01
   2.347521e+01   3.073722e+01
   6.374209e+01  -3.316108e+01
   2.510037e+01   1.240835e+01
  -6.901622e+01   2.277902e+01
  -9.168013e+01   6.553955e+01
  -5.035949e+01  -5.423442e+00
   3.762863e+01  -6.974905e+01
   6.578356e+01  -6.786506e+01
   2.862814e+01  -2.569842e+01
   9.033783e+00   5.779808e+01
  -1.929662e+01  -8.623303e-01
  -3.639039e+01  -8.989959e+00
  -2.660440e+01  -4.364229e+01
  -2.064749e+01  -2.000522e+01
   1.219503e+01   2.759444e+01
   3.582228e+01   5.879121e+01
   4.509605e+01  -4.012053e+01
   1.610228e+01   4.469826e+01
  -4.581091e+00   1.202116e+01
  -1.775383e+01   3.764846e+01
  -5.355637e+01  -1.324574e+01
  -1.229326e+01  -9.194011e+00
  -3.565490e+01  -7.395251e+01
   2.532450e+01  -7.512203e+01
   6.571124e+01   9.856626e+00
   8.885412e+01   9.392798e+01
  -8.252243e-01   9.914091e+01
  -4.511538e+01   7.846183e+01
  -9.751852e+01   1.938942e+01
  -3.269788e+01  -1.082654e+01
   3.060926e+01  -6.229476e+01
  -1.239799e+00  -8.317396e+00
   2.906508e+00  -5.819542e+00
  -4.899925e+01   1.852483e+01
  -5.577726e+01  -1.284731e+00
   2.595621e+01  -3.733467e+01
   5.706651e+01  -3.594027e+00
