
 $NMID
 id='ANONYMOUS ', fmtdat='(2E16.6)'
 volume=1.0
 tramp=1.0
 $END
  -3.975147e+03   5.558032e+01
  -2.195704e+03  -2.380844e+03
   2.934739e+02  -2.535388e+03
   1.776799e+03  -1.095152e+03
   9.483264e+02   3.437890e+02
  -3.936862e+02   3.282823e+02
  -6.668789e+02  -2.660946e+02
  -4.031087e+01  -9.145344e+02
   7.048199e+02  -6.557656e+02
   8.587363e+02   1.287935e+01
   3.843405e+02   6.675904e+02
  -1.630942e+02   7.663581e+02
  -4.790766e+02   7.581788e+01
  -2.923192e+02  -6.201716e+02
   2.283018e+02  -6.894732e+02
   5.515499e+02  -2.611544e+01
   2.245462e+02   6.058323e+02
  -2.300866e+02   6.006719e+02
  -5.641198e+02   1.598149e+02
  -4.837643e+02  -3.179437e+02
  -7.246981e+01  -4.058093e+02
   1.867433e+02  -2.154066e+02
   1.176125e+02  -9.513382e+01
  -1.352309e+02   1.524642e+01
  -2.873474e+02  -1.386826e+02
  -3.060492e+01  -3.379642e+02
   4.367751e+02  -3.823833e+02
   7.176769e+02   1.636182e+02
   3.704801e+02   4.559701e+02
  -3.144918e+02   3.267805e+02
  -5.868029e+02  -8.853294e+01
  -2.773918e+02  -4.528344e+02
   2.520142e+02  -4.084034e+02
   5.245029e+02  -1.760345e+02
   3.559825e+02   2.489597e+02
   7.105809e+01   4.498055e+02
  -7.954923e+01   2.272423e+02
  -5.384634e+01  -1.456611e+02
   1.850768e+02  -2.821150e+02
   3.265765e+02   8.780165e+01
   1.628121e+02   5.604421e+02
  -2.822783e+02   5.500908e+02
  -4.725590e+02  -3.758490e+01
  -2.241805e+02  -3.749790e+02
   2.475659e+02  -1.848123e+02
   2.836156e+02   2.885835e+02
  -5.153654e+01   4.712454e+02
  -4.999065e+02   1.155138e+02
  -4.634516e+02  -4.078616e+02
  -1.253327e+02  -5.536670e+02
   3.693016e+02  -2.963172e+02
   5.507002e+02   1.082171e+02
   3.626803e+02   3.486093e+02
  -1.029062e+02   3.261325e+02
  -3.819905e+02   7.742140e+01
  -2.828328e+02  -8.351065e+01
   2.853304e+01  -7.747826e+01
   6.447591e+01   1.398293e+02
  -1.634278e+02   1.607453e+02
  -3.128177e+02  -4.686846e+01
  -1.800137e+02  -2.595907e+02
   1.557260e+02  -2.925454e+02
   3.340212e+02  -1.079781e+02
   2.632832e+02   1.033836e+02
  -4.390266e+01   2.863658e+02
  -2.354872e+02   3.840994e+02
  -3.327642e+02   2.154088e+02
  -2.764748e+02  -4.846920e+01
  -8.343338e+01  -3.727002e+02
   7.824138e+01  -3.878252e+02
   8.093145e+01  -1.222645e+02
   1.706094e+01  -6.056276e+01
   6.410400e+01  -8.502803e+01
   2.226817e+02  -8.535677e+01
   2.237155e+02   9.624248e+01
   1.238613e+02   2.785196e+02
  -6.600882e+01   2.546619e+02
  -2.080084e+02  -2.336055e+01
  -1.442686e+02  -2.728142e+02
   4.266335e+01  -2.680787e+02
   2.145904e+02  -1.498728e+02
   3.442236e+02   1.869724e+02
   2.252873e+02   3.275723e+02
  -6.495592e+01   2.964148e+02
  -2.493542e+02   1.579490e+02
  -1.989221e+02   5.436032e+00
  -1.352649e+02   7.302851e+01
  -2.232736e+02   3.977153e+01
  -3.882280e+02  -1.004143e+02
  -3.025667e+02  -3.144321e+02
   2.950406e+01  -4.190554e+02
   3.546918e+02  -3.566487e+02
   5.477342e+02  -1.954837e+02
   2.682330e+02   7.250296e+01
   3.105704e+01   2.695476e+02
  -1.213726e+02   2.011570e+02
  -6.167371e+01   4.182637e+01
   1.457504e+02  -1.935512e+01
   2.112530e+02  -6.683748e+01
   9.388408e+01   1.824884e+02
  -1.369946e+02   1.786337e+02
  -1.718741e+02  -2.725650e+01
  -2.091484e+01  -1.761738e+02
   1.342987e+02  -3.078251e+01
   1.307174e+02   2.682751e+02
  -1.450145e+01   3.469248e+02
  -2.651641e+02   2.115155e+02
  -3.187208e+02  -7.746734e+01
  -2.668449e+02  -2.433530e+02
  -8.818429e+01  -2.892984e+02
   1.656246e+02  -2.396144e+02
   2.139730e+02  -4.032902e+01
   4.260223e+01   6.669743e+00
  -6.389807e+01  -2.487415e+01
  -8.177810e+01  -1.265152e+02
   1.046301e+02  -9.287539e+01
   1.871408e+02  -4.756929e+01
   4.875499e+01   6.215688e+01
  -7.362406e+01  -1.610931e+01
  -4.725246e+01  -1.207431e+02
   1.458562e+02  -1.020277e+02
   3.038334e+02  -2.208615e+01
   2.614005e+02   1.038382e+02
   5.425143e+01   2.487507e+02
  -1.437919e+02   2.428786e+02
  -2.807830e+02   1.350094e+02
  -1.184698e+02   1.173722e+01
   4.626696e+01  -9.289415e+01
   7.604109e+01  -1.937154e+00
  -8.178731e+01   9.427425e+01
  -1.825727e+02   4.698449e+01
  -1.776269e+02  -9.943978e+01
  -6.438006e+01  -1.981789e+02
   9.566558e+01  -1.194450e+02
   1.261237e+02  -2.650920e+01
   1.026395e+02   5.213276e+01
  -5.016337e+00   1.482866e+01
  -4.244898e+01  -6.729975e+01
   2.604065e+01  -8.056497e+01
   2.332349e+02  -4.336951e+01
   1.724794e+02   9.073597e+01
   3.990823e+01   1.969340e+02
  -1.567905e+02   1.265537e+02
  -2.083323e+02   3.497370e-01
  -1.166462e+01  -8.064728e+01
   4.185192e+01  -7.856770e+01
   8.321360e+01  -3.280941e+01
   2.285668e+01   4.479966e+01
  -1.062755e+01   1.545989e+01
   2.577270e+01   1.374124e+01
   7.931415e+01   1.160921e+01
   8.587902e+01   7.371476e+01
  -2.228682e+01   1.213934e+02
  -1.039260e+02   1.525506e+02
  -2.107055e+02  -7.103405e+00
  -1.659804e+02  -1.427349e+02
  -7.216655e+00  -1.873423e+02
   1.200529e+02  -1.085134e+02
   8.433761e+01   1.574003e+01
   6.273185e+01   1.658772e+01
  -2.376520e+01   2.516167e+01
   2.489963e+01   9.657070e+00
   7.731006e+01  -1.174184e+01
   6.351080e+00   5.371110e+01
  -2.817535e+01   8.731134e+01
  -1.649049e+02   5.703280e+01
  -7.064207e+01  -3.881826e+01
   5.291723e+01  -1.433041e+02
   1.762821e+02  -7.164230e+01
   1.852379e+02   6.198064e+01
   7.593117e+01   2.514058e+02
  -1.177851e+02   2.247592e+02
  -2.919797e+02   5.656801e+01
  -2.859158e+02  -1.272771e+02
  -1.412256e+02  -1.573993e+02
   2.374453e+01  -1.580255e+02
   1.513524e+02  -9.192583e+01
   6.993777e+01  -8.029406e+01
   8.332879e+01  -9.091607e+01
   1.022874e+02  -6.750416e+01
   1.462489e+02   1.519868e+01
   1.111080e+02   1.979104e+02
   4.023823e+01   2.398900e+02
  -1.405908e+02   2.049224e+02
  -1.557972e+02   5.485945e+01
  -1.333942e+02  -1.210892e+02
   7.085108e+00  -1.336236e+02
   6.507657e+01  -4.774153e+01
   3.870085e+01   8.167830e+00
  -8.943036e+00   4.419729e+01
  -6.898156e-01   7.614579e+01
   2.429834e+01   1.293589e+01
   6.005014e+01  -9.122296e+00
   3.783921e+01   9.447917e+00
  -6.739275e+01   4.615424e+01
  -1.843894e+02  -4.750862e+01
  -1.636586e+02  -5.619074e+01
   3.642689e+01  -1.394332e+02
   1.122832e+02  -7.149150e+01
   1.457183e+02   1.942766e+01
   1.738757e+01   4.635843e+01
  -2.678410e+01   3.710308e+01
  -4.465929e+01  -1.226723e+01
   2.613832e+01  -7.268021e+01
   6.440004e+01  -1.703874e+01
   3.721304e+01   2.917667e+01
   3.924505e+01   8.558340e+01
   4.570919e+00   3.787336e+01
   1.731155e+01  -7.509520e-01
   6.405126e+01   3.946024e+01
  -1.397470e+01   8.745544e+01
  -3.527450e+01   1.279015e+02
  -1.289007e+02   9.747689e+01
  -1.947932e+02   7.936116e+00
  -1.122855e+02  -9.081535e+01
   3.304914e+01  -1.149166e+02
   8.681802e+01  -1.151566e+02
   1.573263e+00   4.022804e+01
  -6.108157e+01   3.823581e+01
  -1.376456e+02  -2.478805e+01
  -4.268503e+01  -1.128890e+02
   1.080926e+02  -7.893360e+01
   1.940667e+02  -2.852006e+01
   1.155045e+02   7.446360e+00
   1.084885e+01   5.309386e+01
  -4.627020e+01   7.124219e+01
  -6.242373e+01  -3.102548e+01
   4.750715e+01  -8.293675e+00
   6.953321e+01   6.219839e+01
   5.306738e+01   1.289723e+02
  -4.534228e+01   1.914484e+02
  -1.591108e+02   3.746599e+01
  -1.514881e+02  -1.169030e+02
  -1.986526e+00  -1.682095e+02
   7.260443e+01  -1.376913e+02
   1.274305e+02  -9.733545e+00
   3.271281e+01   1.092540e+02
  -4.682090e+01   1.211266e+02
  -8.533916e+01   2.638401e+01
  -4.056585e+01  -8.179601e+00
  -2.478848e+01  -7.902096e+00
   3.369892e+01   2.007456e+01
  -3.702645e+01  -1.890980e+01
  -5.174951e+01  -5.370060e+01
  -7.986940e+01  -8.282774e+01
   5.418293e+01  -2.789252e+01
   1.718180e+02   1.643083e+01
   1.281319e+02   4.055893e+01
  -6.974628e+00   2.143816e+01
  -7.053664e+01  -9.106850e+00
  -9.089450e+01   5.325266e+01
   4.696442e+00  -3.956414e+01
   5.046143e+01  -3.028397e+00
   2.238971e+01  -1.166064e+01
  -1.021684e+00   7.643323e+00
  -1.143133e+01   5.254192e+01
   9.209946e+01  -3.306734e+00
   4.424982e+01   7.910176e+00
  -2.053305e+01   1.008402e+02
  -8.415356e+01   1.176143e+02
  -2.055536e+02   5.784633e+01
  -1.363134e+02  -1.228676e+02
  -2.071164e+01  -1.812803e+02
   7.348809e+01  -1.648802e+02
   1.289064e+02  -4.198347e+01
   8.373310e+01   7.393627e+00
   5.380759e+01   5.234676e+01
  -3.477580e+01   3.446671e+01
   5.146749e+00   4.049666e+01
   3.698060e+01   3.874623e+01
   1.815957e+01   7.884682e+01
  -3.186408e+01   4.977117e+01
  -1.085723e+02  -3.977253e+01
  -9.974833e+01  -7.213882e+01
  -2.736063e+01  -9.203464e+01
   3.731564e+01  -1.188003e+01
   8.246731e+01   5.578245e+01
   5.395051e+01   1.047554e+02
  -1.355659e+02   1.715732e+00
  -6.563878e+01  -6.453803e+01
  -3.902109e+01  -4.090819e+01
   3.976151e+01  -1.155964e+01
   7.400072e+01  -2.125026e+01
  -4.667768e+01  -8.871577e+00
  -2.377971e+01   2.166379e+01
   7.805934e+00   8.786123e+00
   7.046175e+01  -9.665682e+01
   1.244200e+02  -4.021556e+01
   3.096829e+01   9.315876e+00
  -7.296530e+00   1.133885e+02
  -5.039635e+01   8.710197e+01
  -5.005890e+01   1.079948e+01
  -1.168703e+01  -6.601355e+01
   2.911452e+01  -7.223645e+01
   6.548670e+01   6.755225e+00
   4.217819e+01   8.447848e+01
   2.114779e+01   4.563269e+01
  -4.667810e+01   3.144062e+01
  -6.265021e+01  -5.371534e+01
  -3.461758e+01  -7.325625e+01
   2.972790e+01  -8.721934e+00
   2.790423e+00   2.397731e+01
   3.671588e-02  -7.238153e+01
   3.215788e+01  -4.245824e+01
   3.800757e+01   1.498385e+01
   2.065680e+01   1.816130e+01
   9.511056e+00   4.239476e+01
  -7.115955e+01   2.531773e+01
  -9.750621e+01  -7.610165e+01
   3.476469e+01  -7.164525e+01
   4.617644e+01  -4.303376e+01
   1.179484e+02   4.976292e+00
   8.835999e+00   5.516710e+01
  -1.800140e+01   4.432160e+01
  -6.695536e+01   3.791958e+01
  -3.112120e+01  -4.068216e+00
  -4.563552e+00   2.219743e+01
   9.607019e+00  -1.874028e+01
  -8.557697e+01   2.187733e+01
  -6.310767e+01   3.493310e+01
