
 $NMID
 id='ANONYMOUS ', fmtdat='(2E16.6)'
 volume=1.0
 tramp=1.0
 $END
  -3.979773e+03   1.276859e+02
  -2.336613e+03  -1.937671e+03
   3.646111e+02  -2.069968e+03
   1.591093e+03  -9.399246e+02
   8.848606e+02   2.272895e+02
  -1.412311e+02   2.744043e+02
  -5.702383e+02  -2.369983e+02
   7.565122e+00  -7.507538e+02
   6.359627e+02  -6.126527e+02
   6.847331e+02   4.225109e+01
   4.519859e+02   6.904024e+02
  -4.370203e+01   7.723117e+02
  -4.542885e+02   9.435116e+01
  -2.926791e+02  -6.027236e+02
   1.918173e+02  -5.363602e+02
   4.731008e+02  -5.572844e+01
   3.351721e+02   5.022613e+02
  -1.128424e+02   5.792391e+02
  -5.220480e+02   1.981037e+02
  -3.612333e+02  -2.321110e+02
  -1.542739e+02  -3.887814e+02
   1.751334e+02  -2.264434e+02
   8.507217e+01  -9.261045e+01
  -2.013591e+02   4.883756e+00
  -3.644460e+02  -1.744871e+02
  -1.184648e+02  -3.796852e+02
   4.211160e+02  -2.872822e+02
   7.970237e+02   2.351891e+02
   2.794528e+02   4.312989e+02
  -3.252180e+02   2.735194e+02
  -5.575288e+02  -1.082349e+02
  -2.450576e+02  -4.307681e+02
   3.265286e+02  -4.869409e+02
   5.688537e+02  -1.502242e+02
   3.728825e+02   2.060144e+02
  -4.618853e+00   4.027299e+02
  -1.166046e+02   1.649042e+02
  -5.249562e+01  -1.423784e+02
   1.783289e+02  -2.618055e+02
   2.646301e+02   1.602061e+02
   1.751948e+01   6.031389e+02
  -3.062869e+02   5.613367e+02
  -3.964962e+02  -2.756422e+01
  -1.276842e+02  -4.106294e+02
   2.732459e+02  -1.467208e+02
   2.758944e+02   3.526727e+02
  -7.297747e+01   5.242987e+02
  -5.408342e+02   1.557639e+02
  -5.286333e+02  -3.926787e+02
  -1.551479e+02  -5.368093e+02
   3.388367e+02  -2.975105e+02
   5.663430e+02   1.267763e+02
   3.268670e+02   3.036762e+02
  -1.090376e+02   2.063906e+02
  -3.382418e+02   1.576805e+01
  -1.974191e+02  -9.025509e+01
   4.475944e+01  -5.709650e+01
   9.776993e+01   9.582908e+01
  -1.179107e+02   1.504541e+02
  -2.770319e+02  -2.761044e+01
  -1.615976e+02  -2.215282e+02
   2.011760e+02  -2.979228e+02
   3.823685e+02  -1.290836e+02
   2.381616e+02   1.276696e+02
   4.759766e-01   3.693987e+02
  -2.718343e+02   4.130600e+02
  -4.204009e+02   1.972533e+02
  -2.532020e+02  -1.635484e+02
  -1.830933e+01  -3.795459e+02
   1.118266e+02  -2.906459e+02
   6.952048e+01  -1.150784e+02
  -4.718733e+01  -6.141965e+01
   1.035116e+02  -9.232525e+01
   2.314169e+02  -7.813246e+01
   2.816674e+02   1.221460e+02
   1.265478e+02   2.676345e+02
  -6.104447e+01   2.237484e+02
  -2.809865e+02   6.269147e+00
  -1.967458e+02  -2.942627e+02
   4.872780e+01  -3.665238e+02
   3.088831e+02  -9.008773e+01
   3.296963e+02   1.635883e+02
   1.589449e+02   3.241471e+02
  -5.115597e+01   2.929867e+02
  -1.608134e+02   1.760633e+02
  -9.236600e+01   5.568762e+01
  -9.602961e+01   1.067542e+02
  -2.723817e+02   8.037850e+01
  -4.580917e+02  -6.342013e+01
  -3.133621e+02  -2.501144e+02
   7.944207e+00  -4.114257e+02
   3.978168e+02  -4.032526e+02
   4.952633e+02  -1.285988e+02
   3.064020e+02   9.665389e+01
   6.406691e+01   2.860186e+02
  -1.416822e+02   2.183159e+02
  -6.465678e+01  -4.539304e+01
   1.414772e+02  -9.872465e+01
   1.550960e+02   3.022238e+01
   4.485838e+01   1.953980e+02
  -1.567795e+02   1.558857e+02
  -1.559174e+02  -7.696358e+01
   6.683670e+00  -2.033084e+02
   2.303243e+02  -2.367606e+01
   1.344325e+02   3.048164e+02
  -3.860911e+01   3.688712e+02
  -2.013013e+02   2.209428e+02
  -3.322746e+02   1.723427e+00
  -3.039878e+02  -2.654185e+02
  -3.439721e+01  -3.067244e+02
   1.157007e+02  -1.778077e+02
   2.028676e+02  -1.702647e+01
   2.645894e+01   8.078451e+01
  -6.736998e+01  -2.246197e+01
   4.900270e+00  -9.520023e+01
   1.235333e+02  -1.009942e+02
   1.680662e+02  -1.640246e+01
   8.283257e+01   7.877959e+01
  -4.920116e+01   3.229522e+01
  -4.240017e+01  -7.668708e+01
   1.389163e+02  -1.020310e+02
   2.708700e+02   6.955253e+00
   2.816094e+02   1.592221e+02
   2.721484e+01   2.597174e+02
  -1.892332e+02   2.276636e+02
  -2.370501e+02   9.419000e+01
  -1.164620e+02  -7.779730e+01
   2.405885e+01  -8.972313e+01
   9.488138e+00   3.663739e+01
  -4.350938e+01   1.166539e+02
  -2.584308e+02   7.237940e+01
  -2.092317e+02  -1.118189e+02
  -4.795345e+01  -2.365842e+02
   1.125990e+02  -1.802855e+02
   1.608021e+02  -4.448143e+01
   5.937484e+01   7.778659e+00
  -7.415002e+01   2.938936e+00
  -1.016245e+02  -4.580340e+01
   6.122968e+01  -1.711088e+02
   2.728649e+02  -3.347895e+00
   2.173649e+02   1.191290e+02
   4.544921e+01   2.450802e+02
  -1.702444e+02   2.252011e+02
  -2.015874e+02  -1.348185e+01
  -3.893161e+01  -1.314613e+02
   5.937935e+01  -1.098953e+02
   7.949260e+01  -7.330140e+01
   2.914207e+01   5.724062e+01
  -2.435236e+01   3.512668e+01
   6.253539e-01  -2.578818e+00
   7.841728e+01  -2.995463e+01
   1.462392e+02   4.411660e+01
   4.234331e+01   1.489397e+02
  -1.493814e+02   1.749617e+02
  -2.641419e+02   1.498363e+01
  -2.206417e+02  -1.402835e+02
  -7.232012e+01  -2.343147e+02
   1.127524e+02  -1.657464e+02
   1.311653e+02   2.317162e+01
   1.303173e+02   3.703624e+01
   9.383156e+00   1.849635e+01
   8.606338e+01  -3.849054e+01
   6.359896e+01   4.357245e+00
   1.484646e+01   7.033612e+01
   8.255064e+00   1.117650e+02
  -1.186521e+02   1.491375e+02
  -1.540567e+02  -4.322310e+00
   1.048373e+01  -1.076771e+02
   1.591564e+02  -1.025256e+02
   2.112530e+02   4.577592e+01
   1.145816e+02   2.403515e+02
  -1.511330e+02   2.668929e+02
  -2.950032e+02   5.235865e+01
  -2.816723e+02  -1.062338e+02
  -4.208850e+01  -1.647622e+02
   5.387035e+01  -1.388250e+02
   8.423593e+01  -7.271054e+01
   8.305863e+01  -6.241057e+01
   5.415400e+01  -1.253286e+02
   9.138469e+01  -1.164023e+02
   1.220545e+02   4.210250e+01
   1.618033e+02   2.073637e+02
  -1.925020e+01   2.659333e+02
  -1.016296e+02   1.845683e+02
  -1.856928e+02   7.123349e+00
  -1.496586e+02  -1.096020e+02
  -7.943004e+01  -1.826632e+02
   5.058313e+01  -8.064755e+01
   1.067435e+01   1.702116e+01
   3.972047e+01   4.733280e+01
   3.860097e+00  -1.922868e+01
   6.368176e+01  -7.627041e+00
   1.307336e+02   2.574988e+01
   5.455105e+01   6.524781e+01
  -3.322572e+01   9.704443e+00
  -1.375649e+02   1.633051e+01
  -1.309141e+02  -7.647757e+01
   9.260609e+00  -1.468540e+02
   1.038951e+02  -1.015227e+02
   1.309889e+02  -9.267169e+00
   5.023129e+01   1.197113e+02
  -7.433651e+01   4.209815e+01
  -8.095666e+01  -3.050873e+01
  -3.062869e+01  -9.115731e+01
   4.351032e+01  -7.496770e+01
   7.334626e+01   2.339823e+01
   3.730802e+01   3.957324e+01
   8.039943e+01   8.290738e+01
   6.725576e+01   2.550207e+01
   4.448512e+01  -1.240568e+00
   4.694553e+01   7.266170e+01
   1.313182e+01   1.896496e+02
  -1.235183e+02   1.410947e+02
  -1.781250e+02   1.824776e+01
  -1.031359e+02  -1.231864e+02
   1.229997e+01  -1.185973e+02
   3.136671e+01  -1.027919e+02
   2.218263e+01   1.473671e+01
  -2.144803e+01  -7.635691e+00
  -1.338652e+02  -4.698112e+01
  -1.066503e+01  -8.531050e+01
   6.930171e+01  -7.619113e+01
   1.440857e+02  -7.277120e+01
   1.547761e+02   7.945514e+01
   7.463527e+01   8.356439e+01
  -4.195351e+01   8.128436e+01
  -9.997872e+01   3.662566e+00
   2.407459e+01  -6.329394e+00
   4.112632e+01  -1.365214e+00
   1.447880e+01   1.156974e+02
  -6.840867e+01   1.663473e+02
  -1.551749e+02   5.960478e+01
  -1.356148e+02  -9.543690e+01
  -4.895493e+01  -1.897305e+02
   9.612430e+01  -1.307764e+02
   1.206713e+02   5.923378e+01
   6.279229e+01   1.035577e+02
   9.956426e+00   1.090706e+02
  -6.586912e+01   5.990668e+01
  -2.497578e+01   2.328694e+00
  -2.230176e+01   2.283849e-02
  -3.990883e+01   2.924948e+01
  -3.899491e+01  -1.791638e+01
  -5.013958e+01  -7.755066e+01
  -4.187998e+01  -8.380699e+01
   6.992320e+01  -5.136354e+00
   1.645368e+02   4.169911e+01
   7.636461e+01   7.991960e+01
  -4.415219e+01   4.654637e+01
  -1.240977e+02  -2.611214e+01
  -3.034763e+01   6.248179e+00
  -1.119309e+01  -3.366532e+01
   6.406134e+01  -8.100895e+00
   3.100928e+01   5.614008e+00
   3.522666e+01  -7.900631e+00
   4.889958e+01   4.823866e+00
   5.818260e+01   2.565991e+01
   1.238983e+02   3.004473e+01
   5.971686e+00   8.473528e+01
  -1.107750e+02   7.122239e+01
  -1.520729e+02   7.384434e+01
  -1.452633e+02  -8.680706e+01
  -4.034841e+01  -1.864845e+02
   1.317801e+02  -1.452501e+02
   1.559358e+02  -5.359182e+01
   6.365390e+01   3.234148e+01
   3.400538e+01   3.969970e+01
   2.274529e+01   6.366136e+00
   2.147503e+00   2.315084e+01
   9.010176e+00   5.348871e+01
   8.132685e+00   4.236026e+01
   1.134269e+01   7.684112e+01
  -9.652959e+01   5.913193e+00
  -1.019338e+02  -1.230166e+02
  -1.146228e+01  -5.949590e+01
   4.169335e+01  -3.857249e+01
   1.091879e+02   4.860687e+01
   4.753689e+01   8.985981e+01
  -7.835865e+01   9.640929e+00
  -9.222487e+01  -1.426700e+01
  -8.180604e+01  -8.017975e+00
   3.800846e+01  -3.502873e+01
   4.252142e+01   1.056551e+01
  -5.095795e+01   5.638232e+01
  -4.688823e+01  -2.156454e+01
   7.582996e-01  -2.515961e+01
   1.168966e+02  -3.603399e+00
   1.374361e+02  -1.272560e+01
   5.739864e+01   6.194108e+01
  -2.772666e+01   8.399877e+01
  -1.269105e+01   5.221372e+01
  -3.106516e+01   3.678475e+00
  -2.749999e+01  -4.076661e+01
   3.788006e+01  -4.028755e+01
   1.241419e+01  -7.596918e+00
  -7.482677e+00   9.569950e+01
  -1.720069e+01  -6.606377e+00
   3.760616e+01   6.523654e+00
  -5.687260e+01  -1.327377e+01
  -1.178589e+01   2.394347e+01
   2.216682e+01   3.754299e+01
   1.272128e+01  -1.903198e+01
   2.890945e+01  -3.751633e+01
   2.478346e+01  -4.006274e+01
   1.300977e+01  -8.868478e+00
   4.685166e+01   4.729559e+01
   1.584634e+01   3.455207e+01
  -1.666271e+01   4.497287e+01
  -5.036781e+01  -1.684399e+01
  -1.868549e+01  -7.480079e+01
   7.958127e+01  -3.741695e+01
   1.154556e+02   3.420964e+01
   4.177724e+01   3.478798e+01
  -9.494397e+00   4.666809e+01
  -9.977874e+01   5.026618e+01
  -5.153315e+01   3.491267e+01
   2.066954e+00   4.811498e+00
   4.802231e+01  -3.129765e+00
  -4.672010e+01  -1.364996e+01
  -7.898646e+01   2.963461e+01
