
 $NMID
 id='ANONYMOUS ', fmtdat='(2E16.6)'
 volume=1.0
 tramp=1.0
 $END
  -4.702970e+03   3.528841e+02
  -2.843782e+03  -2.876226e+03
   7.480336e+02  -2.916896e+03
   2.442467e+03  -9.397192e+02
   1.139928e+03   9.571135e+02
  -7.947292e+02   7.501353e+02
  -1.034081e+03  -4.948906e+02
   6.942057e+01  -1.170115e+03
   8.948875e+02  -9.059436e+02
   1.105796e+03  -3.209465e+01
   6.284733e+02   9.630320e+02
  -3.199400e+02   1.033354e+03
  -6.720171e+02   1.204318e+02
  -3.966851e+02  -7.851969e+02
   2.960325e+02  -8.292762e+02
   7.079951e+02   6.199904e+01
   3.424294e+02   7.392464e+02
  -3.931346e+02   6.229338e+02
  -7.003727e+02   7.077605e+01
  -3.917884e+02  -3.864009e+02
  -2.491967e+01  -3.710801e+02
   3.062346e+02  -2.361526e+02
   2.088229e+02  -1.044153e+01
  -1.974071e+02   6.492294e+01
  -4.027563e+02  -7.852631e+01
  -2.602735e+02  -4.006836e+02
   5.229250e+02  -4.866093e+02
   9.203195e+02   4.710329e+01
   5.028274e+02   5.835830e+02
  -3.716017e+02   5.980271e+02
  -7.821061e+02   8.973250e+01
  -3.769533e+02  -5.452369e+02
   2.761708e+02  -5.649671e+02
   6.478097e+02  -2.763919e+02
   4.587780e+02   2.447299e+02
   7.882575e+01   5.544629e+02
  -2.570680e+02   2.828905e+02
  -1.913979e+02  -2.212559e+02
   1.578669e+02  -5.353969e+02
   5.068363e+02  -3.888318e+01
   3.334189e+02   7.707100e+02
  -2.879130e+02   8.006904e+02
  -6.861266e+02   1.219421e+01
  -3.509849e+02  -5.929755e+02
   2.697064e+02  -3.504153e+02
   3.690469e+02   3.188948e+02
   4.803484e+00   6.041873e+02
  -5.578946e+02   1.515935e+02
  -6.705924e+02  -3.851259e+02
  -1.676364e+02  -6.462013e+02
   4.098218e+02  -4.308659e+02
   6.709554e+02   5.926597e+01
   4.092224e+02   3.632623e+02
  -1.714017e+02   4.171075e+02
  -4.916777e+02   7.597208e+01
  -2.602216e+02  -2.471515e+02
   1.473548e+02  -1.635040e+02
   1.503476e+02   1.679747e+02
  -1.881340e+02   2.392637e+02
  -4.253596e+02  -1.983566e+01
  -1.531885e+02  -3.278397e+02
   2.452216e+02  -2.557773e+02
   3.091014e+02  -7.916464e+01
   1.981053e+02   8.358897e+01
  -4.040243e+00   2.160887e+02
  -2.686926e+02   3.163805e+02
  -3.727104e+02   1.823210e+02
  -2.740587e+02  -2.139115e+02
  -3.664776e+01  -4.976160e+02
   1.973611e+02  -4.073348e+02
   1.604284e+02  -1.181692e+02
   5.020341e+01   4.917329e+01
   4.578166e+01  -7.813630e+01
   1.938493e+02  -1.386101e+02
   3.427349e+02   6.043271e+01
   2.077052e+02   2.945087e+02
  -9.345517e+01   2.307626e+02
  -2.591526e+02   3.266120e+01
  -1.929484e+02  -2.683727e+02
   2.292480e+01  -3.192571e+02
   3.478378e+02  -1.373608e+02
   4.167447e+02   2.462557e+02
   2.036191e+02   4.179348e+02
  -1.937639e+02   3.127757e+02
  -2.498112e+02   1.056151e+02
  -8.985999e+01  -5.205192e+00
  -9.708946e+01   3.568757e+01
  -2.526782e+02   9.865918e+01
  -4.142756e+02  -7.340807e+01
  -3.222930e+02  -3.054231e+02
  -1.025613e+00  -5.248235e+02
   3.798811e+02  -4.016747e+02
   5.580018e+02  -2.478851e+02
   3.417126e+02   1.028431e+02
   2.844111e+01   3.592468e+02
  -1.694552e+02   2.949183e+02
  -1.630546e+02  -4.892824e-01
   9.081217e+01  -1.908166e+02
   2.749392e+02  -3.032094e+01
   9.650409e+01   2.381536e+02
  -1.654795e+02   2.150330e+02
  -2.025109e+02  -4.806836e+01
   1.147806e+01  -2.341575e+02
   1.820190e+02  -2.592148e+01
   1.392831e+02   2.223343e+02
  -6.407158e+00   3.515306e+02
  -1.986570e+02   2.181442e+02
  -3.206390e+02  -7.178500e+01
  -3.315674e+02  -2.640420e+02
  -1.271345e+02  -2.989051e+02
   1.488175e+02  -2.189984e+02
   1.724987e+02  -2.954819e+01
   4.643870e+01   3.715944e+01
  -1.119781e+02  -4.086105e+01
  -4.724318e+01  -1.062116e+02
   1.407789e+02  -1.189123e+02
   2.092965e+02  -1.952355e+01
   5.972908e+01   6.373405e+01
  -6.907352e+01   8.099704e+00
  -8.429908e+01  -2.984994e+01
   1.633700e+02  -9.371571e+01
   2.788738e+02  -1.385512e+01
   2.596313e+02   9.657388e+01
   7.482462e+01   2.704375e+02
  -1.013784e+02   3.239735e+02
  -2.383876e+02   1.285706e+02
  -1.693255e+02  -8.547722e+01
   5.230053e+01  -1.005593e+02
   1.321778e+02   2.863768e+01
  -4.382692e+01   1.487122e+02
  -2.558546e+02   8.467636e+01
  -2.395593e+02  -1.430280e+02
  -8.981967e+01  -2.495173e+02
   9.071933e+01  -1.869274e+02
   1.824773e+02  -1.766035e+01
   9.686844e+01   6.537237e+01
  -6.899676e+01   2.245178e+01
  -6.069145e+01  -5.948685e+01
   3.461766e+01  -1.245146e+02
   2.623715e+02  -4.573518e+00
   1.809224e+02   1.070632e+02
  -1.817810e+01   2.090027e+02
  -1.462400e+02   1.329986e+02
  -2.296412e+02  -1.412066e+01
  -9.557631e+01  -1.521540e+02
   6.381344e+01  -7.752759e+01
   9.916976e+01  -7.918035e+01
   5.576857e+01   4.544734e+01
  -1.126759e-01   8.136579e+01
   5.539242e+00  -2.524703e+01
   3.381557e+01  -2.755851e+01
   5.281458e+01   1.288059e+01
   4.762576e+00   1.839096e+02
  -7.970099e+01   1.059267e+02
  -2.566244e+02   3.255684e+01
  -1.792804e+02  -1.698737e+02
  -1.506517e+01  -2.223476e+02
   1.300373e+02  -1.942890e+02
   1.511269e+02  -2.888709e+01
   8.754752e+01   7.611896e+01
   2.278997e+01   1.218547e+01
   7.501386e+01   5.807359e+00
   7.937352e+01   2.096440e+01
   2.047377e+01   7.910557e+01
   1.834310e+00   9.999305e+01
  -6.543870e+01   6.528830e+01
  -9.687705e+01  -2.846591e+00
  -5.196513e-01  -5.956314e+01
   8.756277e+01  -8.694948e+01
   1.703807e+02   4.210022e+01
   1.115220e+02   1.827567e+02
  -9.464620e+01   2.416731e+02
  -2.608036e+02   7.529333e+01
  -2.857780e+02  -1.117799e+02
  -1.312996e+02  -2.310744e+02
  -2.013613e+00  -1.146452e+02
   7.933890e+01  -8.203325e+01
   6.043299e+01  -2.372081e+01
   8.301641e+01  -1.023981e+02
   7.655595e+01  -1.058504e+02
   1.598701e+02   1.553883e+01
   1.632953e+02   1.440140e+02
   9.095537e+00   2.634441e+02
  -8.429494e+01   2.008666e+02
  -1.925779e+02   3.129972e+01
  -7.621017e+01  -1.492515e+02
  -6.836250e+01  -1.488747e+02
   7.622482e+01  -9.026915e+01
   7.105559e+01  -1.059614e+01
  -6.818704e+00   2.187097e+01
  -6.692533e+00  -9.041373e+00
   3.409128e+01  -3.013397e+01
   9.964476e+01   2.202087e+01
   5.848952e+01   2.251848e+01
  -3.465786e+01   7.190134e+01
  -1.314766e+02  -4.059311e+00
  -1.145108e+02  -5.210681e+01
  -3.964733e+01  -8.392579e+01
   1.420818e+02  -1.003184e+02
   1.868793e+02  -8.244824e+00
  -1.633354e+01   4.756315e+01
  -9.917424e+01   9.959543e+00
  -4.132258e+01  -3.325182e+01
  -1.385801e+01  -1.099150e+02
   2.778164e+01  -2.226899e+01
   6.933185e+01   1.231281e+01
   9.833716e+01   9.249569e+01
   5.462381e+01   6.176686e+01
   3.150614e+01  -2.495939e+00
   2.658639e+01   4.905857e+00
   6.171335e+01   4.308272e+01
  -9.579800e+00   1.694730e+02
  -1.057485e+02   1.824317e+02
  -1.617609e+02   1.600036e+01
  -1.417705e+02  -1.262192e+02
   9.128967e+00  -1.877640e+02
   8.678605e+01  -8.078507e+01
   1.092251e+02   1.605931e+01
  -7.552740e+01   1.590697e+01
  -1.760191e+02  -5.357391e+01
  -8.786580e+01  -1.186803e+02
   1.261136e+02  -1.486713e+02
   1.979917e+02  -4.591352e+01
   1.596134e+02   3.702307e+01
   6.024216e+01   8.798287e+01
  -9.068957e+01   9.635542e+01
  -1.060441e+02   1.305614e+01
   6.253148e+01  -4.017148e+01
   1.231704e+02  -3.714058e+01
   4.528203e+01   9.932418e+01
  -1.138267e+02   1.758574e+02
  -1.808555e+02   1.134304e+02
  -1.226078e+02  -1.267696e+02
  -6.504243e+01  -2.391276e+02
   9.932740e+01  -1.483722e+02
   1.636024e+02   5.570299e+00
   9.113922e+01   1.275065e+02
   2.318458e+01   5.318990e+01
  -2.670314e+01   5.193837e-01
  -6.947767e+01  -1.407540e+01
  -6.078032e+01   1.862711e+01
   1.603421e+01   3.483305e+01
  -1.496549e+01  -1.229547e+01
  -4.597899e+01  -5.751960e+01
  -6.213944e+01  -1.327238e+02
   1.000421e+02  -7.643530e+01
   1.658538e+02   5.116226e+01
   1.279114e+02   4.110882e+01
   4.116837e+01   1.354547e+01
  -6.274832e+01   1.326201e+01
  -6.246770e+01   2.904882e+00
   2.016428e+01  -1.417069e+01
   3.717095e+01  -4.963766e+01
   9.739684e+00   1.111812e+00
  -3.404984e+01  -3.412968e+00
   9.356913e-01   3.150644e+01
   1.326185e+02  -1.137913e+01
   7.451328e+01   3.938258e+00
   1.850016e+01   5.553805e+01
  -1.891831e+02   1.212428e+02
  -1.978695e+02   6.239300e+01
  -1.487599e+02  -7.540938e+01
  -1.795054e+01  -1.667491e+02
   9.022305e+01  -1.802606e+02
   1.241419e+02  -6.706651e+01
   1.081911e+02   2.237167e+01
   3.408680e+01   2.615894e+01
   3.557022e+01  -6.159695e+01
   3.879312e+01  -7.957629e-01
   4.745922e+01   1.574935e+01
   6.072162e+01   8.242687e+01
  -4.001937e+01   4.293597e+01
  -1.624665e+02  -1.280936e+01
  -9.601003e+01  -9.145621e+01
  -1.532297e+01  -1.324705e+02
   6.933920e+01   7.699022e+00
   1.452347e+02   6.117569e+01
   2.496154e+01   1.145214e+02
  -1.226572e+02   5.860016e+01
  -9.423567e+01   3.225822e+01
  -1.048366e+01  -3.188974e+01
   3.425928e+01  -1.025713e+02
   3.120811e+01   4.800939e+01
  -6.288848e+01   1.422352e+01
  -8.574514e+01   3.301929e+01
   1.559428e+01   5.684271e+00
   5.771411e+01  -9.484237e+01
   8.311484e+01  -7.339262e+01
   5.916246e+01  -1.386734e+01
   1.287356e+01   9.678736e+01
  -5.113203e+01   8.518362e+01
  -3.715291e+01   6.943185e+00
   3.042637e+00  -4.945335e+01
   1.270920e+01  -6.439020e+01
   5.027063e+01   7.575646e+00
   8.704779e+00   6.000302e+01
   1.472236e+01   1.295339e+01
   1.545843e+01  -1.076166e+01
  -1.356216e+01  -8.490503e+00
  -3.311512e+01   1.793702e-02
   5.586634e+01   9.446042e+00
   4.431733e+01  -2.673830e+01
   8.131726e+00  -5.698806e+01
   9.959556e+00  -7.938621e+01
   4.001155e+01  -4.377669e+01
   4.465935e+00   1.761259e+01
  -3.058666e+01   5.838727e+01
  -8.192644e+01   3.960743e+01
  -8.342417e+01  -2.242054e+01
  -4.732934e+01  -9.266971e+01
   6.883488e+01  -6.351652e+01
   8.913241e+01   3.795421e+01
   1.315239e+01   2.530223e+01
  -2.557654e+01   6.242756e+01
  -8.170761e+01   2.944023e+01
  -4.274083e+01   1.110717e+01
  -4.423533e-01  -2.711035e+01
   3.215308e+01  -4.643590e+00
  -3.951828e+01   5.455121e+00
  -2.412388e+01  -1.320365e+01
