
 $NMID
 id='ANONYMOUS ', fmtdat='(2E16.6)'
 volume=1.0
 tramp=1.0
 $END
   4.727962e+03  -1.958472e+02
   2.640803e+03   2.921268e+03
  -8.348440e+02   2.959870e+03
  -2.098112e+03   8.563430e+02
  -9.653676e+02  -7.848786e+02
   7.749274e+02  -7.235767e+02
   1.069601e+03   5.717393e+02
  -6.865186e+01   1.120502e+03
  -9.417412e+02   6.634283e+02
  -9.694657e+02  -1.854173e+02
  -4.921459e+02  -9.374748e+02
   3.307009e+02  -1.005328e+03
   7.171750e+02  -1.747501e+02
   5.038201e+02   7.714280e+02
  -3.596032e+02   7.882615e+02
  -6.399872e+02   3.557481e+01
  -2.137889e+02  -7.158218e+02
   3.758334e+02  -6.263781e+02
   6.533431e+02  -8.591326e+01
   4.161991e+02   3.843249e+02
   3.234013e+01   4.441472e+02
  -2.436715e+02   2.332636e+02
  -2.514092e+02  -8.970683e-01
   2.049948e+02  -2.139083e+02
   4.708520e+02   6.947911e+01
   2.783332e+02   5.222875e+02
  -4.746921e+02   5.143309e+02
  -9.091699e+02  -1.008384e+02
  -4.179383e+02  -6.131409e+02
   4.610575e+02  -6.044678e+02
   7.882637e+02   3.381838e+01
   3.742601e+02   5.392509e+02
  -3.059619e+02   5.580321e+02
  -6.532218e+02   2.295869e+02
  -4.036682e+02  -2.078831e+02
   6.537116e+00  -4.730250e+02
   2.147131e+02  -3.243789e+02
   1.791763e+02   2.137065e+02
  -2.108759e+02   5.229187e+02
  -5.816668e+02   2.012598e+01
  -2.372686e+02  -8.004887e+02
   3.704609e+02  -7.801009e+02
   6.760141e+02   1.373046e+01
   3.329844e+02   6.772772e+02
  -3.619142e+02   3.856435e+02
  -4.483087e+02  -3.839295e+02
   4.649321e+01  -5.425722e+02
   5.772200e+02  -1.521716e+02
   6.474072e+02   3.851739e+02
   1.758598e+02   6.245078e+02
  -4.631644e+02   3.178197e+02
  -6.601921e+02  -8.456136e+01
  -3.615271e+02  -4.204742e+02
   1.912864e+02  -4.059930e+02
   4.908144e+02  -5.058767e+01
   2.065896e+02   2.209753e+02
  -1.877435e+02   8.898453e+01
  -1.405262e+02  -1.912328e+02
   1.833752e+02  -2.109948e+02
   3.940876e+02   8.435659e+01
   1.565749e+02   3.833527e+02
  -1.945480e+02   3.211532e+02
  -3.482933e+02   4.794455e+01
  -2.385974e+02  -3.415888e+01
  -1.877302e+01  -2.190532e+02
   1.799080e+02  -3.577179e+02
   3.925970e+02  -2.248789e+02
   3.345461e+02   1.039092e+02
   7.304512e+01   4.573033e+02
  -1.774563e+02   3.716589e+02
  -1.559240e+02   5.980018e+01
  -6.016369e+01  -8.617525e+01
  -3.383358e+01   1.088834e+02
  -1.830129e+02   2.179706e+02
  -2.784552e+02  -2.655746e+01
  -1.134441e+02  -3.280637e+02
   6.154554e+01  -3.246954e+02
   2.364542e+02  -3.062598e+01
   2.513901e+02   2.442457e+02
   8.783639e+00   3.359327e+02
  -3.007018e+02   1.709482e+02
  -3.599592e+02  -1.833088e+02
  -1.909735e+02  -3.774325e+02
   1.176224e+02  -3.037538e+02
   2.346008e+02  -1.450177e+02
   1.503449e+02  -6.984687e+01
   8.439340e+01  -9.301151e+01
   2.095222e+02  -1.107284e+02
   4.066428e+02   4.768928e+01
   3.322471e+02   3.008859e+02
   4.623773e+01   4.759094e+02
  -3.309301e+02   4.473617e+02
  -5.321917e+02   2.360468e+02
  -3.922012e+02  -8.089993e+01
  -7.273629e+01  -3.269823e+02
   1.762432e+02  -2.933541e+02
   1.250168e+02   3.278148e+01
  -1.058696e+02   1.290906e+02
  -2.664341e+02  -2.867193e-02
  -5.961963e+01  -2.286471e+02
   2.361346e+02  -2.789082e+02
   1.719293e+02   6.657986e+01
  -3.396294e+01   2.567232e+02
  -1.839730e+02   5.137426e+01
  -1.708484e+02  -2.034604e+02
   3.877468e+01  -3.578752e+02
   2.339653e+02  -1.865145e+02
   3.422007e+02   6.440664e+01
   2.759824e+02   2.473955e+02
   1.042433e+02   2.607855e+02
  -1.550828e+02   1.438391e+02
  -2.017073e+02   5.425153e+00
  -6.792388e+01  -6.900149e+01
   1.639455e+02  -6.968066e+00
   6.341334e+01   1.308793e+02
  -1.306031e+02   1.323533e+02
  -1.218420e+02   3.268185e+01
  -6.907049e+01  -8.649658e+01
   1.248317e+02  -5.264687e+01
   7.191221e+01   1.093573e+02
  -4.841674e+01   8.621760e+01
  -2.705919e+02   2.634009e+01
  -3.054061e+02  -1.205566e+02
  -1.029364e+02  -2.646892e+02
   1.829753e+02  -3.186668e+02
   2.569420e+02  -1.555823e+02
   1.935640e+02   7.694238e+01
  -5.058119e+01   1.439154e+02
  -1.160485e+02   3.206572e+01
   3.878445e+01  -6.493760e+01
   2.058261e+02  -6.135478e+01
   2.023590e+02   1.244863e+02
   8.769973e+01   2.140703e+02
  -1.088529e+02   1.551533e+02
  -1.739269e+02   1.447932e+01
  -9.376741e+01  -7.157338e+01
   3.199180e+01  -1.356161e+01
   7.241565e+01   8.833244e+01
  -3.309308e+01   1.448695e+02
  -2.153657e+02   3.961782e+01
  -2.012383e+02  -1.403743e+02
   1.822152e+01  -2.472863e+02
   1.305591e+02  -1.175302e+02
   2.341137e+02   1.234148e+01
   5.971979e+01   7.837875e+01
  -4.101770e+01   1.049698e+02
  -4.891678e+01   1.808347e+01
   1.071494e+01  -1.088730e+01
   2.442004e+01  -1.081276e+00
  -5.269605e+00   4.605371e+01
  -8.958414e+01  -3.321173e+01
  -7.338238e+01  -4.484120e+01
  -1.026404e+01  -1.136731e+02
   1.191697e+02  -1.516489e+02
   2.455935e+02   3.319375e+00
   1.835948e+02   1.383335e+02
   5.312047e+01   2.189125e+02
  -1.431858e+02   1.830979e+02
  -1.579987e+02   1.022989e+01
  -5.187703e+01  -6.324973e+01
  -1.059038e+01  -5.630951e+01
  -7.426143e+01   1.445812e+01
  -7.211217e+01   4.374123e+01
   1.871197e+01  -7.682256e+01
   3.414048e+01  -1.038962e+02
   1.582735e+02  -1.244277e+02
   1.269569e+02   2.223290e+01
  -1.804485e+01   1.227556e+02
  -1.164575e+02   9.759614e+01
  -2.423148e+02  -4.389582e+01
  -9.385723e+01  -1.882232e+02
   6.297749e+01  -2.185243e+02
   2.626833e+02  -1.465509e+02
   2.900672e+02   4.995324e+01
   1.400308e+02   1.737191e+02
   4.004422e+01   1.687673e+02
  -1.156010e+02   1.159715e+02
  -1.148008e+02   7.182236e+01
  -6.938900e+01   6.826606e+01
  -1.015322e+02   4.542023e+01
  -1.564108e+02  -2.568343e+00
  -1.658988e+02  -8.154790e+01
  -6.559571e+01  -1.530111e+02
   6.588995e+01  -1.989702e+02
   1.884412e+02  -8.794295e+01
   1.225282e+02   9.769286e+01
   3.794429e+00   1.658149e+02
  -7.393747e+01   6.715687e+01
  -1.282056e+01  -2.255495e+01
   5.365580e+01  -2.545858e+01
   1.637260e+01   2.699174e+01
  -2.747677e+01  -3.261376e+01
  -5.121683e+01  -4.378408e+01
  -2.160640e+01  -3.944981e+01
   1.229471e+02  -7.236021e+01
   1.575791e+02   2.996055e+01
   1.843792e+02   7.588766e+01
   2.599136e+01   1.090899e+02
  -1.280976e+02   1.111580e+02
  -1.370184e+02   6.644896e+01
  -2.492384e+01  -1.886708e+01
   2.369110e+01  -1.210616e+01
   8.663117e+01  -9.612788e+00
  -3.465408e+01   4.269692e+01
  -7.247995e+01   1.286170e+01
  -5.868750e+01  -2.420785e+01
  -5.491391e+01  -1.074245e+02
  -1.585563e+01  -7.457515e+01
  -3.794019e+01   1.161442e+01
  -6.120443e+01   7.431833e+00
  -4.556358e+01  -4.008029e+01
   5.704877e+01  -9.998549e+01
   9.703659e+01  -1.624397e+02
   1.972255e+02  -5.959356e+01
   1.323470e+02   7.970841e+01
  -3.688824e+01   1.449642e+02
  -1.227934e+02   5.530737e+01
  -8.378725e+01  -1.293711e+00
   4.905310e+01  -1.700402e+00
   1.389724e+02   1.904777e+01
   5.265266e+01   1.148476e+02
  -1.187864e+02   1.495486e+02
  -1.480932e+02   2.769834e+01
  -1.597790e+02  -4.710851e+01
  -4.511789e+01  -1.291651e+02
   8.000881e+01  -8.778261e+01
   4.402279e+01   3.926701e+01
  -6.292748e+01   5.639551e+01
  -1.245181e+02  -3.075663e+01
  -7.530575e+01  -1.323055e+02
   5.330835e+01  -1.683487e+02
   1.319319e+02  -6.456542e+01
   1.660144e+02   1.010529e+02
  -2.391819e-02   2.060529e+02
  -1.017444e+02   1.548303e+02
  -1.356185e+02  -1.590314e+01
  -4.770334e+01  -1.804404e+02
   1.254906e+01  -1.312376e+02
   8.687897e+01  -4.231134e+01
   1.203267e+01   2.897549e+01
   1.388057e+01   7.011940e+01
  -1.900366e+01  -1.769633e+01
   5.205624e+01   2.160368e+01
   7.207039e+01   9.168763e+01
   1.541216e+01   1.020400e+02
  -4.546453e+01   7.904751e+01
  -1.528880e+02  -7.979131e+01
  -9.545881e+01  -1.178843e+02
  -1.560075e+01  -5.982754e+01
   7.277229e+01  -5.554381e+01
   8.507947e+01  -2.278268e+01
  -2.712981e+01   3.719390e+01
  -3.291377e+00   3.734302e+01
  -4.295363e+01   3.213329e+01
   3.234541e+01   1.685834e+01
   1.209377e+01   7.587695e+01
  -8.528751e+01  -1.848935e+00
  -1.322029e+02  -5.117670e+01
  -2.286010e+00  -9.983197e+01
   9.342877e+01  -1.461640e+02
   1.895324e+02  -3.951297e+01
   1.749247e+02   8.564408e+01
  -2.570108e+01   1.723441e+02
  -1.159135e+02   1.569902e+02
  -1.155719e+02   9.882763e+01
  -9.793526e+01   7.140595e+00
  -4.975220e+01  -4.847176e+01
  -1.009316e+01  -3.393493e+01
   2.796112e+00  -2.394176e+01
  -1.043381e+02  -3.518784e+01
  -1.353057e+01  -1.018225e+02
   3.359932e+01  -1.337345e+02
   1.556175e+02   1.770177e+01
   1.055723e+02   1.303033e+02
  -3.924586e+01   1.478608e+02
  -7.392472e+01  -2.361116e+00
  -1.238090e+02  -8.912685e+01
  -1.603307e+01  -5.277699e+01
   6.555356e+01  -8.706798e+01
   8.654306e+01   1.837507e+01
   5.272402e+01   3.777716e+01
  -6.775346e+01   5.690845e+01
   6.101857e+00   3.529650e+01
   6.677716e+01   5.882929e+01
   1.035685e+02   1.622382e+01
  -1.972768e+01   2.629460e-01
  -1.238077e+02   5.365210e+01
  -1.685074e+02   4.311155e+01
  -1.161703e+02   8.438911e+00
  -1.743020e+01  -9.821402e+01
   4.522734e+01  -5.804778e+01
   5.761953e+01  -1.677486e+01
   2.312300e+00   4.553868e+01
  -4.559947e+01   5.970027e+01
  -5.345344e+01  -6.990668e+01
  -3.138627e+01  -8.108021e+01
  -1.049680e+01  -4.016767e+01
   6.066489e+01  -2.856472e+01
   3.501553e+01   1.217350e+01
   4.061838e+01  -9.381244e+00
   2.778196e+01  -1.100011e+01
  -1.502152e+01  -2.098487e+01
  -2.543976e+01   3.455724e+01
  -3.226003e+01   5.320798e+01
  -3.608365e+01   2.926277e+01
   7.315749e-01  -2.444340e+01
   3.315352e+01  -6.665903e+01
   4.001365e+01  -5.033824e+01
   4.712680e+01   3.036838e+01
   7.454598e+00   7.489368e+01
  -8.175364e+01   2.410475e+01
  -6.539431e+01  -1.968216e+01
  -6.349404e+01  -5.179287e+01
   6.719299e+00  -7.131111e+01
   5.620443e+01  -2.233097e+01
   6.402283e+01  -2.172739e+01
   1.642309e+01   1.185274e+01
  -5.316693e+01  -4.530151e+01
   6.066836e+01  -8.871755e+01
   8.078169e+01  -4.527802e+01
