
 $NMID
 id='ANONYMOUS ', fmtdat='(2E16.6)'
 volume=1.0
 tramp=1.0
 $END
  -4.482865e+03  -2.211025e+02
  -2.716541e+03  -2.771194e+03
   7.404545e+02  -3.101155e+03
   2.103699e+03  -9.978487e+02
   8.640910e+02   3.586171e+02
  -7.453520e+02   4.328458e+02
  -8.869583e+02  -4.347640e+02
  -1.896543e+01  -1.010798e+03
   8.114310e+02  -8.401101e+02
   1.005449e+03   3.372027e+01
   4.774064e+02   7.465174e+02
  -2.697586e+02   9.373659e+02
  -5.825069e+02   2.353704e+02
  -3.656611e+02  -7.294630e+02
   2.468717e+02  -7.651271e+02
   5.423068e+02   9.667290e+00
   2.781234e+02   6.406701e+02
  -3.925666e+02   6.016051e+02
  -5.668376e+02   8.632792e+01
  -4.203003e+02  -4.033963e+02
  -5.166023e+01  -5.014453e+02
   1.824674e+02  -3.018484e+02
   2.605773e+02  -6.036507e+00
  -1.551930e+02   1.057540e+02
  -3.574129e+02  -8.112432e+01
  -1.621770e+02  -4.835263e+02
   4.855714e+02  -3.855580e+02
   8.399262e+02   5.838790e+01
   3.763803e+02   5.971476e+02
  -3.539963e+02   4.526972e+02
  -7.759758e+02   1.081119e+01
  -3.260587e+02  -4.875133e+02
   3.105605e+02  -4.972590e+02
   6.241024e+02  -2.918714e+02
   4.395644e+02   2.195868e+02
   5.218596e+01   4.908857e+02
  -1.837872e+02   2.839517e+02
  -1.237787e+02  -2.439056e+02
   2.142971e+02  -4.138929e+02
   4.642825e+02  -2.314141e+01
   2.556600e+02   6.954960e+02
  -3.049397e+02   7.885708e+02
  -6.349465e+02   6.564996e+01
  -2.584770e+02  -5.616360e+02
   3.143590e+02  -3.722352e+02
   3.786679e+02   3.352368e+02
  -1.034438e+02   5.401199e+02
  -5.845410e+02   1.495936e+02
  -6.081067e+02  -3.910260e+02
  -1.697171e+02  -5.660780e+02
   4.154908e+02  -3.577559e+02
   6.228862e+02   1.013446e+02
   3.617111e+02   3.649915e+02
  -2.242895e+02   3.455563e+02
  -4.780974e+02   4.506136e+01
  -3.052942e+02  -1.565093e+02
   1.044944e+02  -7.051840e+01
   9.959290e+01   1.424429e+02
  -1.820131e+02   1.972130e+02
  -3.623730e+02  -8.901106e+01
  -1.771101e+02  -3.381258e+02
   1.808722e+02  -2.532754e+02
   2.724709e+02  -1.085238e+02
   1.649484e+02   5.693143e+01
   1.852821e+01   2.358308e+02
  -2.068558e+02   3.792511e+02
  -3.769731e+02   2.614698e+02
  -3.577373e+02  -1.728636e+02
  -9.115829e+01  -4.714689e+02
   1.265312e+02  -3.864203e+02
   1.299473e+02  -9.783710e+01
   4.841921e+01   8.418372e+00
   3.450706e+01  -6.880787e+01
   1.737425e+02  -1.238161e+02
   2.492050e+02   4.716021e+01
   1.644985e+02   2.794367e+02
  -7.629181e+01   2.378379e+02
  -2.401016e+02   9.993856e+00
  -2.236844e+02  -2.448585e+02
  -5.521866e+00  -2.607244e+02
   2.703744e+02  -1.116661e+02
   3.492539e+02   1.539817e+02
   1.787825e+02   3.283432e+02
  -9.687525e+01   2.711092e+02
  -1.656283e+02   1.474032e+02
  -1.341418e+02  -1.061673e+01
  -1.089240e+02   4.033332e+01
  -2.059390e+02   3.443576e+01
  -3.659299e+02  -3.924629e+01
  -2.990136e+02  -2.654725e+02
  -7.206902e+00  -4.188292e+02
   3.244696e+02  -4.425419e+02
   5.531725e+02  -1.892545e+02
   3.195189e+02   9.292231e+01
   7.758178e+01   2.871718e+02
  -1.371681e+02   2.855320e+02
  -5.370650e+01   5.418653e+01
   6.470747e+01  -1.176984e+02
   1.925150e+02  -3.215764e+01
   3.927408e+01   1.932747e+02
  -1.992928e+02   1.964220e+02
  -1.589306e+02  -7.308336e+01
   3.200739e+01  -2.096660e+02
   2.175284e+02  -2.860050e+01
   1.217529e+02   2.676735e+02
   4.330977e+01   3.463316e+02
  -2.540168e+02   2.122282e+02
  -4.097080e+02  -7.506569e+01
  -3.013648e+02  -2.344427e+02
  -1.214599e+02  -2.960527e+02
   1.212538e+02  -1.932788e+02
   2.013235e+02  -3.219276e+01
   7.947586e+01   4.189353e+01
  -5.046923e+01  -2.563239e+01
  -5.029552e+01  -7.994135e+01
   4.517821e+01  -1.007129e+02
   1.376040e+02   2.847877e+01
   1.035801e+02   1.132083e+02
  -1.080969e+02  -4.128360e+01
  -1.291156e+01  -8.300896e+01
   8.950013e+01  -7.388493e+01
   2.300513e+02   1.187540e+01
   2.341632e+02   1.489176e+02
   6.887316e+01   2.915001e+02
  -1.789542e+02   2.762963e+02
  -2.767469e+02   1.237751e+02
  -1.632751e+02  -7.140469e+01
   8.165368e+01  -1.248882e+02
   9.219768e+01  -3.360469e+01
   7.743475e+00   1.182089e+02
  -2.078419e+02   1.192824e+02
  -2.300616e+02  -4.602665e+01
  -1.189537e+02  -1.826636e+02
   6.956278e+01  -1.719548e+02
   1.148566e+02  -2.931035e+01
   4.487272e+01   3.329784e+01
  -4.169449e+01   1.004820e+01
  -9.175952e+01  -1.044086e+02
   7.367323e+01  -1.191459e+02
   1.515345e+02  -2.335374e+01
   2.094570e+02   7.941911e+01
   3.161958e+01   2.278848e+02
  -1.560861e+02   1.401084e+02
  -2.234591e+02  -2.681479e+01
  -8.223298e+01  -1.238346e+02
   3.053166e+01  -1.045769e+02
   7.745793e+01  -4.517544e+00
  -1.655583e+01   2.084090e+01
  -4.143041e+01  -1.655190e+01
  -2.848204e+01  -6.622622e+01
   3.888634e+01  -1.050709e+01
   7.716333e+01   9.712016e+01
  -3.746974e+01   1.565022e+02
  -1.451314e+02   1.095309e+02
  -2.367215e+02   4.823612e+01
  -2.365098e+02  -1.694975e+02
  -7.841006e+01  -2.853002e+02
   1.371935e+02  -1.783380e+02
   1.604921e+02  -2.947297e+01
   1.037366e+02   2.407812e+01
   3.476993e+01   7.497789e+01
   6.357041e+01  -1.362404e+01
   9.360821e+01   6.848272e-01
   4.036894e+01   6.677805e+01
  -4.779191e+01   2.615647e+01
  -4.502360e+01   6.422001e+01
  -8.504068e+01  -1.838938e+01
   3.687788e+01  -1.038051e+02
   1.115748e+02  -5.937570e+01
   2.186718e+02   4.961863e+01
   1.071601e+02   2.173830e+02
  -9.102109e+01   2.054603e+02
  -2.530182e+02   1.410519e+02
  -2.553804e+02  -2.564005e+01
  -1.201634e+02  -1.584014e+02
   4.971086e-01  -1.323796e+02
   6.414473e+01  -4.857364e+01
   4.995793e+01  -5.575980e+01
   5.240694e+01  -1.108834e+02
   8.406821e+01  -7.893004e+01
   1.742399e+02   3.275503e+01
   1.498555e+02   9.657852e+01
   7.035947e+00   2.543926e+02
  -1.185990e+02   1.786963e+02
  -1.764014e+02   2.295757e+01
  -1.244683e+02  -9.785320e+01
   2.681848e+00  -1.237883e+02
   7.025209e+01  -8.808508e+01
   4.261453e+01  -3.537084e+01
  -1.641726e+01   5.513023e+01
  -5.331258e+01   3.647192e+01
  -5.599812e+00   3.620751e+00
   7.201331e+01  -8.827462e+00
   7.833193e+01   4.850749e+01
  -2.786476e+01   7.952792e+01
  -1.671291e+02  -1.133616e+01
  -1.423428e+02  -7.284014e+01
  -3.897484e+00  -8.412420e+01
   1.200276e+02  -7.831017e+01
   1.235155e+02   1.408715e+01
   6.066212e+00   2.092855e+01
  -5.717419e+01   6.594745e+01
  -8.842234e+01  -1.492428e+01
  -1.906655e+00  -1.154009e+02
   7.855990e+01  -8.385566e+01
   1.166206e+02   4.412378e+00
   2.087543e+01   3.729981e+01
   3.444609e+01   4.118084e+01
   1.284341e+01   3.199225e+01
   1.078294e+02  -4.444863e+01
   3.503805e+01   5.464058e+01
  -4.483378e+01   1.263178e+02
  -1.056697e+02   8.487763e+01
  -1.340111e+02   4.215324e+01
  -1.077009e+02  -1.117637e+02
   2.283685e+01  -8.783484e+01
   9.584083e+01  -1.617961e+01
   9.144497e+01  -4.087175e+01
  -4.130859e+01   1.737157e+01
  -1.936520e+02  -5.962144e+00
  -1.123070e+02  -6.424904e+01
   8.587348e+01  -1.158157e+02
   1.799595e+02  -3.745685e+01
   1.647890e+02   3.916048e+01
   5.268892e+01   9.740880e+01
  -6.455545e+01   4.989409e+01
  -1.361710e+01  -6.506053e+00
   3.601425e+01   1.365481e+01
   5.832675e+01   5.763773e+01
   5.842297e+01   1.297298e+02
  -8.142439e+01   1.356835e+02
  -1.946659e+02   2.851071e+01
  -8.716715e+01  -1.013114e+02
   4.041892e+01  -1.822049e+02
   9.814271e+01  -1.673276e+02
   1.245731e+02  -3.633243e+00
   1.180639e+02   1.386455e+02
  -1.940660e+01   1.575845e+02
  -5.454837e+01   4.307054e+01
  -7.707567e+01   1.056855e-01
  -9.519784e+01   1.155001e+01
  -1.651059e+01  -4.274498e+00
  -5.692847e+01  -3.381075e+01
  -5.416299e+01  -8.322959e+01
  -3.609229e+01  -8.160298e+01
   5.863553e+01  -4.962519e+01
   1.379646e+02  -1.093302e+01
   1.412897e+02   4.719172e+01
   1.908303e+01   2.459547e+01
  -5.294273e+01   1.133538e+01
  -1.265748e+02   1.162369e+01
   1.914579e+01   2.605932e+00
   5.638621e+01  -1.965774e+01
   4.584975e+01  -3.241525e+01
  -4.936573e+01   1.272721e+01
   2.390715e+01  -7.407100e+00
   6.581574e+01   6.684003e+00
   8.018833e+01  -1.408857e+00
   7.382781e+00   7.507793e+01
  -1.182745e+02   1.504385e+02
  -1.259969e+02   1.797570e+01
  -1.267099e+02  -5.867559e+01
  -5.156590e+01  -1.221575e+02
   9.617864e+01  -1.626916e+02
   8.865428e+01  -2.423381e+01
   1.133571e+02  -1.385240e+01
   2.495641e+01   3.334441e+01
  -1.266744e+01   2.210034e+00
   1.707549e+00   2.003875e+01
   5.247839e+01   7.344328e+01
   2.006414e+01   1.004445e+02
  -6.360994e+00   5.476922e+01
  -1.063106e+02   2.625892e+01
  -5.922796e+01  -1.034085e+02
   7.792677e+00  -9.993846e+01
   5.565518e+01  -3.533842e+01
   7.542039e+01   6.998368e+01
   4.847678e+01   8.809348e+01
  -7.765717e+01   3.798497e+01
  -1.011272e+02  -5.250717e+01
  -7.104214e+01  -3.014170e+01
   5.707222e+01  -7.148792e+01
   3.815479e+01  -2.796439e+01
  -4.761809e+01   4.721083e+00
  -7.021930e+01   3.978315e+01
  -5.571978e+00  -2.031407e+01
   8.877542e+01  -2.323463e+01
   6.595873e+01  -3.063928e+01
   3.611527e+01   2.504814e+01
  -2.437376e+00   8.460488e+01
  -2.090138e+01   5.481142e+01
   2.506596e+00   2.720405e+00
   5.229985e+01  -6.934793e+01
   2.378789e+01  -6.873811e+01
   6.358691e+01  -1.346258e+00
   4.457383e+01   2.702657e+01
  -5.871437e+00  -2.108641e+01
  -8.641171e+00   2.445717e+01
  -6.859849e+01  -7.548185e+00
  -3.784383e+01  -7.560600e+00
   1.299598e+01   1.097052e+01
  -1.948850e+01  -2.104368e+01
   1.438989e+01  -7.048767e+01
   7.908808e+00  -7.818420e+01
   5.677184e+01   1.533206e+01
   2.143245e+01   6.671497e+01
  -5.584569e+00   8.260052e+01
  -5.509619e+01   2.001819e+01
  -2.476754e+01  -3.942406e+01
   9.969330e+00  -5.573119e+01
   7.910404e+01  -2.914772e+01
   1.189948e+02  -2.526542e+01
   5.117484e+01   6.757096e+01
  -8.526318e+00   6.582244e+01
  -5.669018e+01   1.035946e+01
  -2.754965e+01   9.414947e+00
   8.543286e+00   2.858357e+01
   4.383457e+01  -1.165236e+01
  -2.949305e+01  -1.600711e+00
  -7.086892e+01  -2.289889e+01
