
 $NMID
 id='ANONYMOUS ', fmtdat='(2E16.6)'
 volume=1.0
 tramp=1.0
 $END
  -3.464364e+03  -5.506418e+01
  -2.219543e+03  -1.981175e+03
   2.795280e+02  -2.230957e+03
   1.433359e+03  -1.060291e+03
   9.964627e+02  -1.139306e+02
  -1.139613e+02   3.363842e+02
  -4.495123e+02  -2.291780e+02
  -1.738596e+01  -7.044535e+02
   5.863073e+02  -6.123419e+02
   6.920425e+02  -2.765199e+01
   4.386801e+02   6.469781e+02
  -1.176945e+02   6.899430e+02
  -3.331227e+02   1.727253e+02
  -1.999209e+02  -4.630900e+02
   1.439056e+02  -5.505004e+02
   5.181972e+02  -1.396073e+02
   3.078696e+02   5.546219e+02
  -1.022161e+02   5.941017e+02
  -4.334883e+02   2.257544e+02
  -5.053316e+02  -1.613027e+02
  -6.201014e+01  -3.906534e+02
   1.208301e+02  -2.933869e+02
   6.584532e+01  -1.186747e+02
  -9.802995e+01  -1.010360e+02
  -2.636535e+02  -2.368452e+02
   3.098731e+01  -3.726488e+02
   4.096559e+02  -2.704635e+02
   6.122108e+02   1.608101e+02
   1.883687e+02   3.988345e+02
  -3.405948e+02   2.525716e+02
  -5.457178e+02  -8.018695e+01
  -2.209254e+02  -3.982974e+02
   2.590784e+02  -4.527304e+02
   4.539979e+02  -2.024659e+02
   3.805837e+02   1.654310e+02
   1.228036e+02   3.903029e+02
  -7.077377e+01   1.942735e+02
  -6.516376e+00  -8.162635e+01
   1.715262e+02  -1.558980e+02
   2.358281e+02   1.632809e+02
   6.254655e+01   5.379329e+02
  -2.385277e+02   5.256187e+02
  -3.808368e+02   1.130038e+01
  -1.548277e+02  -3.547608e+02
   1.583006e+02  -2.240370e+02
   2.855976e+02   2.488753e+02
  -7.525878e+01   4.742228e+02
  -5.093902e+02   1.389172e+02
  -4.606751e+02  -3.576058e+02
  -1.846434e+02  -5.249051e+02
   2.556016e+02  -2.811059e+02
   4.805272e+02   6.028527e+01
   3.223702e+02   2.712897e+02
  -6.255541e+01   2.844186e+02
  -3.159363e+02   1.129377e+02
  -2.541472e+02  -3.076797e+01
  -2.069510e+01  -9.920726e+01
   1.387320e+01   7.537576e+01
  -1.035090e+02   8.406451e+01
  -2.635395e+02  -3.244648e+01
  -1.419603e+02  -2.545861e+02
   1.800376e+02  -2.799441e+02
   2.974660e+02  -1.669809e+02
   1.762542e+02   8.628824e+01
   2.441105e+01   2.767324e+02
  -2.324761e+02   3.514123e+02
  -2.637862e+02   1.563220e+02
  -2.120023e+02  -1.672586e+02
  -1.028975e+02  -3.681638e+02
   4.893078e+01  -3.134970e+02
   6.804954e+01  -1.292258e+02
   4.293825e+01  -5.079277e+01
   1.163843e+02  -1.025203e+02
   2.137458e+02  -9.173670e+01
   2.544256e+02   6.666325e+01
   1.265258e+02   2.697564e+02
  -1.086415e+02   2.224001e+02
  -1.915085e+02  -1.762545e+01
  -1.437744e+02  -2.053923e+02
   5.923063e+01  -2.476925e+02
   2.394039e+02  -4.843781e+01
   2.885899e+02   1.808973e+02
   1.621716e+02   2.550637e+02
  -7.993400e+01   2.432914e+02
  -1.823572e+02   1.229241e+02
  -1.438586e+02   5.680882e+01
  -1.747716e+02   7.340756e+01
  -2.486605e+02   1.666565e+01
  -4.172832e+02  -1.490722e+02
  -2.608245e+02  -3.342314e+02
   4.612532e+01  -4.445220e+02
   3.952042e+02  -3.373180e+02
   4.887339e+02  -1.686325e+02
   3.052673e+02   1.243441e+02
   1.872503e+01   2.923172e+02
  -8.312620e+01   2.222158e+02
   1.020544e+01   4.383105e+01
   1.087333e+02  -2.150333e+01
   8.645939e+01   7.687055e+01
  -3.257897e+01   1.242333e+02
  -1.151234e+02   9.276098e+01
  -6.047896e+01  -6.164533e+01
   3.027267e+01  -1.499975e+02
   1.703508e+02   4.569305e+01
   1.056017e+02   2.521925e+02
  -6.102479e+01   3.314373e+02
  -2.601269e+02   1.582945e+02
  -2.960645e+02  -9.074114e+01
  -2.767349e+02  -2.297848e+02
  -8.305223e+01  -2.606503e+02
   1.087591e+02  -1.194978e+02
   1.562521e+02  -6.062441e+01
   7.006453e+01   9.098109e+00
  -3.738174e+01  -6.569818e+01
   5.957023e+00  -5.910409e+01
   1.175790e+02  -4.511150e+01
   1.198295e+02   3.233930e+01
   3.879330e+01   6.496873e+01
  -7.523958e+01   1.007675e+01
   4.397715e-01  -7.756671e+01
   1.469439e+02  -7.726716e+01
   2.776032e+02   9.956535e+00
   2.161828e+02   1.610678e+02
   5.697068e+01   2.380223e+02
  -1.354139e+02   2.781842e+02
  -2.072559e+02   1.413359e+02
  -1.538330e+02  -1.567552e+01
  -1.722026e+01  -8.810796e+01
   3.134179e+01   1.105023e+01
  -4.106768e+01   4.882713e+01
  -2.020512e+02   6.346981e+01
  -1.875283e+02  -1.385731e+02
  -5.707713e+01  -1.326148e+02
   6.862157e+01  -1.369625e+02
   1.356759e+02  -3.854407e+01
   2.519847e+01  -1.107925e+01
  -8.691388e+01  -1.496858e+01
  -8.747699e+01  -1.161237e+02
   9.165690e+01  -1.416092e+02
   2.063689e+02  -6.338127e+01
   1.564538e+02   1.496818e+02
   7.148992e+00   1.935403e+02
  -1.326295e+02   1.444728e+02
  -1.836261e+02  -3.539956e+01
  -1.127620e+02  -8.709050e+01
   6.675663e+01  -7.837643e+01
   9.630550e+00  -2.243883e+01
   2.031686e+01  -2.396264e+01
  -1.406665e+01  -9.158871e+00
   3.160933e+01  -4.484558e+01
   9.571877e+01  -8.415169e+00
   1.051617e+02   4.185452e+01
   4.053520e+01   1.540075e+02
  -9.908980e+01   1.618239e+02
  -2.352328e+02  -8.856306e+00
  -2.122644e+02  -1.754974e+02
  -4.239365e+01  -2.629570e+02
   9.087327e+01  -1.691861e+02
   1.224217e+02  -3.344844e+01
   7.196603e+01  -1.245320e+01
   3.503755e+01   2.364420e+01
   6.026801e+01   5.926753e+00
   8.829459e+01  -3.913802e-01
   1.039790e+01   2.591063e+01
  -4.001399e+01   8.730524e+01
  -1.105004e+02   2.277093e+01
  -8.249543e+01  -2.856512e+01
   2.191026e+01  -9.418770e+01
   1.422811e+02  -5.430475e+01
   1.681046e+02   6.220715e+01
   5.781661e+01   2.004507e+02
  -1.296022e+02   2.284768e+02
  -2.447727e+02   8.946919e+01
  -2.734630e+02  -6.581887e+01
  -8.749889e+01  -1.657160e+02
   4.241075e+01  -1.399260e+02
   1.278154e+02  -6.926484e+01
   6.052014e+01  -9.222583e+01
   5.402147e+01  -9.661783e+01
   3.360601e+01  -2.626790e+00
   1.109623e+02   2.756455e+01
   8.489458e+01   1.684119e+02
   2.148762e+01   2.079993e+02
  -8.320314e+01   1.440988e+02
  -1.977139e+02  -3.485813e+01
  -1.235594e+02  -1.656240e+02
   8.090439e-01  -1.588545e+02
   3.266786e+01  -7.158492e+01
   6.817183e+01  -3.596454e+00
   8.175169e+00   4.575867e+01
   5.403531e-01   6.855630e+00
   2.232624e+01   5.560217e+00
   7.363538e+01   3.015387e+01
   4.157888e+01   4.253060e+01
  -7.416797e+01   1.722875e+01
  -1.417250e+02  -1.654870e+01
  -1.338627e+02  -7.809432e+01
  -3.015462e+01  -1.135070e+02
   1.354003e+02  -6.221419e+01
   1.852279e+02   1.589360e+00
   4.921721e+01   4.174340e+01
  -6.037329e+01   6.721596e+01
  -7.537294e+01  -3.326611e+01
   3.863217e+01  -1.053953e+02
   4.706798e+01  -3.964724e+01
   4.126176e+01  -3.479047e+01
  -4.455283e+00   8.406968e+01
   1.799580e+01   1.021000e+02
   3.013349e+01   5.772144e+00
   3.756725e+01  -2.959416e+01
   4.500221e+01   3.943076e+01
  -3.479658e+01   1.348797e+02
  -1.427167e+02   1.034572e+02
  -1.776357e+02  -8.006190e+00
  -1.580064e+02  -1.239737e+02
  -1.669022e+01  -9.669863e+01
   1.008655e+02  -8.134465e+01
   6.100942e+01  -6.852229e-02
  -7.088500e+01   1.211196e+01
  -1.108936e+02  -5.640103e+01
  -2.141068e+01  -9.760426e+01
   7.244413e+01  -7.523303e+01
   1.574913e+02  -2.246248e+01
   1.406137e+02   6.646828e+01
   2.525334e+01   6.613538e+01
  -1.006983e+02   9.712773e+01
  -5.943456e+01   1.873292e+01
   2.390028e+01  -5.991898e+01
   4.343126e+01   8.679069e+00
   4.535223e+01   7.685762e+01
  -9.119305e+01   1.175173e+02
  -1.309395e+02   2.980874e+01
  -1.100107e+02  -7.768469e+01
   4.777005e+01  -1.606317e+02
   6.394346e+01  -1.412478e+02
   8.691735e+01   1.519143e+01
   7.403208e+00   8.049078e+01
  -9.038930e+00   7.842431e+01
  -9.968817e+00   3.532662e+01
  -7.234516e+01  -1.026966e+01
  -2.484033e+01  -1.747082e+01
  -3.564800e+01   1.654212e+01
  -2.474533e+01  -1.005516e+01
  -6.475499e+00  -9.723648e+01
  -4.693533e+01  -1.191801e+02
   6.673671e+01  -8.013457e+01
   1.054424e+02   3.861243e+00
   1.373235e+02   5.521524e+01
   2.777932e+01   8.681034e+01
  -6.825573e+01   5.772457e+01
  -9.886041e+01   7.963891e+00
  -1.592346e+01  -1.108654e+01
   7.845804e+01  -5.268098e+01
   3.155760e+01  -1.171016e+01
   2.925703e+01   2.271002e+01
   9.812357e-01   2.449597e+01
   7.930574e+01   4.579801e+00
   6.246608e+01   2.054432e+01
   2.840816e+01   9.513728e+01
  -8.244134e+01   7.845070e+01
  -1.808143e+02   7.840027e+01
  -1.476689e+02  -8.211630e+01
  -4.644838e+01  -1.125775e+02
   7.783967e+01  -1.595149e+02
   9.468249e+01  -3.682844e+01
   2.840223e+01   2.734771e+01
  -1.897295e+01   9.175931e+01
  -3.086366e+01   3.081802e+01
   1.743088e-01  -1.216954e+01
   3.484590e+01   5.578281e+01
   1.498609e+01   3.174755e+01
  -5.986871e+01   5.469913e+01
  -7.600799e+01   3.301810e+01
  -6.939884e+01  -1.043670e+02
  -1.638865e+01  -1.024148e+02
   1.551961e+01  -2.587980e+00
   1.165726e+02   9.001004e+01
   1.040278e+02   1.158650e+02
  -8.024841e+01   7.958366e+01
  -1.004919e+02   2.906772e+01
  -6.563012e+01  -2.603157e+01
   4.440497e+01  -2.531726e+01
   2.659568e+01  -7.121514e+00
  -8.568895e+00  -3.457406e+01
  -5.608040e+00  -2.379906e+01
  -2.910154e+01  -1.279417e+01
   8.772243e+01  -6.989385e+01
   1.027804e+02  -3.239631e+01
   4.347211e+01   5.116213e+01
  -2.636560e+01   6.403574e+01
  -5.425390e+01   6.692623e+01
  -3.701176e+01  -3.960420e+01
   1.912849e+01  -5.662299e+01
   9.679670e+00  -4.902436e+01
   2.796355e+01   2.891050e+01
   8.710680e+00   7.429974e+01
  -6.550661e+00   4.222580e+01
   1.742010e+01  -1.673001e+01
   1.711611e+00  -4.805317e+01
  -1.965364e+01  -3.109486e+00
   2.087166e+00   1.323767e+01
   1.459274e+01   1.682338e+01
   4.868470e+00   1.214147e+01
   1.256286e+01  -4.306826e+01
   9.425135e+00  -2.004029e+01
   3.266352e+01  -1.956906e+00
   2.105364e+01   7.478802e+01
  -3.682136e+01  -4.022105e+00
  -4.561558e+01  -6.825146e+01
  -4.415714e+01  -3.432053e+01
   3.157536e+01  -2.818992e+01
   6.490651e+01   3.021513e+01
   5.392705e+01   1.324994e+01
  -3.202861e+01   5.472639e+01
  -7.684536e+01  -1.553445e+01
  -2.598412e+01  -9.760053e+00
   4.740579e+01   6.023159e+00
   7.859064e+01  -4.314581e+01
  -9.280905e+00   1.436678e+01
  -9.937823e+01   7.274464e+01
