
 $NMID
 id='ANONYMOUS ', fmtdat='(2E16.6)'
 volume=1.0
 tramp=1.0
 $END
   3.612852e+03   2.396950e+02
   1.997210e+03   1.766204e+03
   2.628644e+01   1.973930e+03
  -1.346913e+03   9.728711e+02
  -7.828109e+02   7.401555e+01
   2.596613e+02  -1.582780e+02
   4.306023e+02   2.854727e+02
  -4.442062e+01   6.945980e+02
  -6.526480e+02   5.958071e+02
  -6.132218e+02   1.817032e+00
  -3.898900e+02  -5.589848e+02
  -2.436861e+00  -6.214848e+02
   2.868007e+02  -1.504427e+02
   1.919108e+02   5.378680e+02
  -2.252476e+02   4.910098e+02
  -4.764591e+02  -5.500581e+01
  -2.421974e+02  -5.242727e+02
   1.670939e+02  -5.700887e+02
   4.909277e+02  -2.148755e+02
   3.669769e+02   2.196995e+02
   1.013514e+02   3.743259e+02
  -8.875716e+01   2.538924e+02
  -7.169429e+01   7.003572e+01
   1.759218e+02   2.116555e+01
   3.327099e+02   1.753436e+02
   3.351267e+00   3.190443e+02
  -5.247145e+02   2.556422e+02
  -7.133656e+02  -1.194440e+02
  -2.336462e+02  -4.481864e+02
   3.732946e+02  -2.871271e+02
   4.752307e+02   1.076481e+02
   1.487200e+02   3.895988e+02
  -2.901567e+02   3.930898e+02
  -5.020975e+02   1.458527e+02
  -3.256424e+02  -1.788807e+02
  -1.301226e+02  -3.486576e+02
   2.052730e+01  -2.099474e+02
  -1.481178e+01   5.830921e+01
  -1.774159e+02   2.102683e+02
  -2.816086e+02  -1.736090e+02
   1.634819e+01  -5.281644e+02
   2.846644e+02  -4.775262e+02
   3.936779e+02   3.069858e-01
   1.404653e+02   3.929175e+02
  -1.782735e+02   1.528173e+02
  -1.600880e+02  -3.422748e+02
   1.045088e+02  -4.267142e+02
   4.545673e+02  -9.775125e+01
   5.218784e+02   4.284808e+02
   1.230581e+02   5.431365e+02
  -3.136990e+02   3.098860e+02
  -5.113696e+02  -1.020200e+02
  -3.143984e+02  -3.307463e+02
   6.541459e+01  -2.660835e+02
   3.487830e+02  -7.806976e+01
   1.939072e+02   3.137782e+01
  -6.126690e+01   1.086257e+01
  -7.875718e+01  -6.376510e+01
   1.164318e+02  -2.889428e+01
   2.313300e+02   2.626441e+01
   1.737691e+02   1.912556e+02
  -1.633166e+02   1.565262e+02
  -2.901769e+02   1.092634e+02
  -3.082373e+02  -4.877758e+01
   2.419399e+01  -2.548012e+02
   2.435209e+02  -3.669807e+02
   4.132576e+02  -1.999129e+02
   2.661744e+02   1.227769e+02
   6.417971e+01   3.668445e+02
  -8.286220e+01   3.199744e+02
  -6.397529e+01   1.428558e+02
  -2.522428e+01   7.713953e+01
  -1.007488e+02   5.196474e+01
  -2.396881e+02   9.007548e+01
  -2.395956e+02  -1.059578e+02
  -7.651732e+01  -2.865631e+02
   1.027699e+02  -2.333797e+02
   2.299863e+02   7.096680e+01
   1.386448e+02   2.046688e+02
  -7.544276e+01   2.639125e+02
  -2.997098e+02   7.112641e+01
  -2.756604e+02  -1.800984e+02
  -1.708009e+02  -3.127169e+02
   7.579296e+01  -2.103647e+02
   1.881085e+02  -1.217217e+02
   1.274995e+02  -1.051331e+02
   1.129075e+02  -1.102708e+02
   2.593135e+02  -4.543278e+01
   3.830555e+02   1.030804e+02
   2.984271e+02   2.993969e+02
  -4.127127e+01   4.688576e+02
  -3.927775e+02   3.590208e+02
  -5.212515e+02   1.471278e+02
  -2.900311e+02  -1.382460e+02
  -6.238934e+00  -2.729882e+02
   1.041746e+02  -2.096344e+02
   3.441023e+01   3.852421e+01
  -1.077697e+02   6.245265e+01
  -1.421614e+02  -6.272671e+01
  -3.543516e+01  -1.174197e+02
   8.187458e+01  -8.676680e+01
   7.796094e+01   2.283671e+01
  -5.416287e+01   1.236865e+02
  -1.268998e+02   2.233806e+01
  -1.473632e+02  -2.491130e+02
   7.360284e+01  -4.014937e+02
   1.843780e+02  -2.091866e+02
   3.821673e+02   6.833307e+01
   2.813126e+02   3.060117e+02
   6.764474e+01   2.985748e+02
  -1.868530e+02   1.547968e+02
  -2.066369e+02  -3.324470e+01
  -4.755169e+01  -2.301266e+01
   8.074079e+01   6.324695e+01
   2.560301e+01   1.160861e+02
  -8.228723e+01   8.584006e+01
  -1.418992e+02  -1.334396e+01
  -4.066029e+01  -1.114751e+02
   6.807676e+01   2.545253e+01
   3.097820e+01   1.087805e+02
  -1.409605e+02   1.199708e+02
  -2.940471e+02  -2.715436e+01
  -2.886357e+02  -1.655008e+02
  -3.916749e+01  -2.317206e+02
   1.747588e+02  -2.673748e+02
   2.624354e+02  -1.260174e+02
   1.015569e+02   6.837278e+01
  -3.608540e+01   9.771285e+01
  -1.270841e+02  -4.315314e+01
   2.327588e+01  -7.706584e+01
   2.042405e+02  -5.647936e+01
   2.148753e+02   9.808931e+01
   4.066119e+01   1.709327e+02
  -1.336741e+02   1.556006e+02
  -1.628716e+02   4.011868e+01
  -2.839286e+01  -4.029580e+00
   4.966478e+01   9.454533e+00
   9.154026e+01   7.783049e+01
  -8.422844e+01   1.365678e+02
  -2.158054e+02   6.484321e+00
  -2.090879e+02  -1.244653e+02
  -4.203947e+01  -2.463175e+02
   1.743806e+02  -1.476472e+02
   1.381355e+02  -2.594785e+00
   9.348413e+01   1.023671e+02
  -3.072365e+01   1.133416e+02
  -3.409170e+01   2.212667e+01
  -3.256855e+01  -2.350685e+01
   2.645337e+01  -2.913267e+01
  -2.203591e+01   3.536534e+01
  -6.444989e+01  -5.044203e+00
  -6.538704e+01  -2.833805e+01
   2.736049e+00  -1.687830e+02
   9.239903e+01  -1.671066e+02
   2.247241e+02   4.623507e+00
   1.337371e+02   1.407090e+02
  -4.190872e+00   2.489726e+02
  -8.798999e+01   1.527960e+02
  -1.192712e+02  -9.391159e+00
  -7.438657e+01  -9.812041e+01
  -1.844679e+01  -3.138592e+01
  -5.184482e+00  -1.494091e+01
  -1.019553e+02   4.269354e+01
  -5.055277e+00  -5.903200e+01
   4.843526e+01  -1.073908e+02
   1.222739e+02  -2.712696e+01
   7.368525e+01   5.434421e+01
  -8.154885e+00   1.503534e+02
  -1.833727e+02   1.015572e+02
  -2.119368e+02  -1.215000e+02
  -8.748442e+01  -2.490361e+02
   1.247701e+02  -2.348031e+02
   2.129744e+02  -6.835564e+01
   2.274209e+02   7.645772e+01
   9.408580e+01   1.943116e+02
  -3.623987e+01   9.681344e+01
  -6.031003e+01   1.063989e+02
  -7.911750e+01   1.005058e+02
  -5.040260e+01   1.010694e+02
  -1.098345e+02   1.123887e+02
  -1.300684e+02  -7.548230e+01
  -1.284362e+02  -1.616307e+02
  -2.278005e+01  -2.356077e+02
   1.515605e+02  -1.553851e+02
   1.904247e+02   1.291970e+01
   1.042169e+02   1.170204e+02
  -2.637295e+01   1.404168e+02
  -7.614462e+01   4.616289e+01
  -6.387549e+01   2.698219e+01
   3.704004e+01  -5.335512e+01
  -4.432997e+00  -6.411441e+00
  -4.358136e+01  -1.648153e+01
  -1.041237e+02  -4.996772e+01
  -2.566252e+00  -1.217660e+01
   1.019723e+02  -7.232165e+01
   2.016447e+02  -5.089468e+00
   1.289524e+02   6.983416e+01
   9.215256e+00   1.729562e+02
  -8.630734e+01   1.161131e+02
  -2.054677e+02   3.183655e+01
  -1.480649e+01  -7.440261e+01
   8.062669e+01  -3.061068e+01
   9.864202e+01   3.309418e+01
  -2.339769e+00   9.487583e+01
  -5.935576e+01   8.980949e+01
  -5.429261e+01  -1.536328e+01
  -4.051691e+01  -2.847303e+01
  -3.751944e+01  -5.794028e+01
  -7.977571e+01   1.887971e+01
  -7.151358e+01   1.274480e+01
  -2.205997e+01  -6.967729e+01
   4.016718e+01  -1.691942e+02
   1.274096e+02  -1.702893e+02
   1.671251e+02  -3.789690e+00
   1.239531e+02   1.259828e+02
  -8.636086e+00   1.594565e+02
  -8.253187e+01   9.230594e+01
  -6.361351e+01  -5.014492e+01
   5.883443e+01  -3.748402e+01
   1.238476e+02   4.277450e+01
   8.141080e+01   1.434688e+02
  -1.055562e+02   1.337896e+02
  -2.072175e+02   8.700480e+01
  -1.276871e+02  -2.495496e+01
  -7.454639e+01  -1.020903e+02
   8.168774e+01  -8.523087e+01
   5.813118e+00   7.939346e+00
  -8.217378e+01   5.782342e+01
  -4.661073e+01  -2.686562e+01
  -2.505560e+01  -1.218950e+02
   9.371331e+01  -1.754793e+02
   1.307602e+02  -1.253281e+02
   1.578108e+02   1.379694e+02
   5.990160e+01   1.980084e+02
  -5.209950e+01   1.417301e+02
  -1.050633e+02  -1.675202e+00
  -9.034945e+01  -1.548343e+02
  -1.907884e+00  -1.443894e+02
   5.168938e+01  -3.660156e+01
   8.445218e+01   3.116118e+01
   6.317807e+01  -4.734542e+01
   2.229906e+01  -1.325824e+01
   2.948158e+01   1.028389e+00
   5.542655e+01   1.625657e+02
   2.417886e+00   1.572484e+02
  -6.514432e+01   8.862422e+01
  -1.824853e+02  -2.122298e+01
  -1.526559e+02  -8.657796e+01
  -3.395440e+01  -4.731555e+01
   5.649791e+01  -6.317862e+01
   7.599530e+01  -9.191749e+00
   2.735330e+01  -2.859503e+01
  -6.490356e+01   1.573934e+01
  -3.423032e+01   2.765983e+01
   7.029875e+00   1.771769e+01
  -2.720480e+01  -3.939853e+01
  -5.005104e+01  -4.810004e+01
  -8.060412e+01  -2.306038e+01
   7.156302e-01  -7.456621e+01
   1.200962e+02  -1.333910e+02
   2.099851e+02  -6.333562e+01
   1.410321e+02   5.412442e+01
   4.803703e+01   1.501759e+02
  -8.847514e+01   1.665001e+02
  -1.309446e+02   7.141554e+01
  -8.437546e+01  -4.942124e+00
  -5.196574e+01  -1.458527e+01
  -1.427496e+01   2.120865e+01
  -2.801236e+01  -2.216049e+01
  -7.543699e+00  -9.430001e+01
  -3.311471e+01  -1.322958e+02
   7.975933e+01  -5.630106e+01
   1.051949e+02   2.852219e+01
   1.038375e+02   1.432780e+02
  -2.958765e+01   1.130647e+02
  -6.166248e+01   4.532395e+01
  -7.931646e+01  -6.763404e+01
   7.565530e+00  -1.377172e+02
   5.019394e+01  -3.778988e+01
   1.214199e+02  -2.355517e+01
   5.236164e+01   3.989357e+01
  -4.299636e+01   7.107869e+01
  -7.782841e+01   5.665780e+01
   8.947888e+00  -1.756014e+01
   3.923973e+01  -1.074386e+01
   1.320741e+01   7.671692e+01
  -1.091653e+02   3.551761e+01
  -1.380837e+02   3.584135e+01
  -8.765137e+01  -5.137074e+01
   1.159382e+01  -8.767874e+01
   5.997532e+01  -7.795270e+01
  -4.267792e-01   2.756234e+01
  -2.156235e+01   3.339744e+01
  -3.089037e+01   5.191475e+01
   9.912794e+00  -3.284254e+01
  -4.122484e+01  -4.385685e+01
   3.280036e+01  -4.441496e+01
   6.544812e+01   1.089139e+01
   7.792323e+01   4.700318e+01
   7.008834e+01   1.775713e+00
  -2.018100e+01   1.333419e+01
   1.108682e+01   4.979076e+01
  -8.411150e+00   6.788155e+01
   3.268091e+01   7.798322e+01
  -3.994620e+01   4.351142e+01
  -5.521990e+01  -5.647766e+01
  -7.724421e+01  -4.351453e+01
   2.505723e+01  -2.811114e+01
   3.634164e+01   2.751448e+01
   4.721996e+01   6.536143e+01
  -5.250616e+01   2.276065e+01
  -9.255082e+01  -4.308068e+01
  -7.875761e+01  -5.474877e+01
  -6.534880e-01  -4.270210e+01
   6.484684e+01  -5.164660e+01
   1.792225e+01  -5.595926e+01
  -9.973453e+00  -4.377700e+01
  -9.398788e+00  -5.906166e+01
   6.548750e+01  -4.817968e+01
   1.040125e+02  -2.042347e+01
