
 $NMID
 id='ANONYMOUS ', fmtdat='(2E16.6)'
 volume=1.0
 tramp=1.0
 $END
  -2.993514e+03  -3.466879e+02
  -1.903596e+03  -1.353989e+03
  -6.942163e+01  -1.627912e+03
   1.003832e+03  -1.194250e+03
   8.751380e+02  -4.052981e+02
   1.287569e+02   1.045395e+02
  -1.996605e+02  -5.009460e+01
   2.149633e+01  -3.652230e+02
   4.103372e+02  -3.760070e+02
   5.452054e+02  -5.087314e+01
   3.315675e+02   4.508181e+02
  -2.563052e+00   4.761254e+02
  -1.768376e+02   1.901199e+02
  -2.563303e+02  -3.208826e+02
   5.452555e+01  -4.905999e+02
   2.764348e+02  -1.110340e+02
   2.482833e+02   4.609497e+02
  -8.306299e+01   6.142844e+02
  -4.267075e+02   2.974365e+02
  -3.957700e+02  -7.805714e+01
  -1.664084e+02  -3.329878e+02
  -5.189130e+00  -2.642621e+02
   4.796642e+01  -1.537678e+02
  -1.272522e+02  -9.289095e+01
  -2.346874e+02  -2.701399e+02
   5.480815e+00  -2.949036e+02
   4.219701e+02  -1.175244e+02
   5.207455e+02   2.214018e+02
   1.760084e+02   2.934742e+02
  -2.534454e+02   1.489158e+02
  -4.238720e+02  -1.209626e+02
  -1.074698e+02  -2.999902e+02
   2.213276e+02  -2.624771e+02
   4.381127e+02  -1.155500e+02
   3.753345e+02   1.411800e+02
   8.905043e+01   3.068187e+02
  -4.264525e+01   1.408269e+02
   1.320914e+01  -4.076428e+01
   1.089733e+02  -8.290861e+01
   1.145055e+02   1.349678e+02
  -2.037224e+01   4.145586e+02
  -1.717024e+02   3.920362e+02
  -2.546859e+02   2.191920e+01
  -1.027861e+02  -2.066340e+02
   1.301337e+02  -7.443993e+01
   1.255088e+02   3.069156e+02
  -8.973926e+01   3.634172e+02
  -3.701189e+02   7.286989e+01
  -4.597713e+02  -3.230317e+02
  -1.412618e+02  -4.688205e+02
   2.407252e+02  -2.959553e+02
   4.440926e+02  -6.981291e+01
   3.299919e+02   1.870554e+02
  -2.849541e+01   2.052116e+02
  -2.570766e+02   1.078926e+02
  -1.488904e+02  -3.046866e+01
  -4.059779e+01  -6.735772e+01
   3.208380e+00  -3.346348e+01
  -9.144617e+01  -3.846214e+00
  -1.764030e+02  -3.166586e+01
  -1.206526e+02  -1.120664e+02
   1.314051e+02  -2.503778e+02
   3.839570e+02  -1.277988e+02
   2.887182e+02   7.883452e+01
  -7.828892e+00   2.797984e+02
  -2.462904e+02   4.170687e+02
  -3.689029e+02   2.033978e+02
  -2.127870e+02  -1.520041e+02
  -3.300348e+01  -3.465087e+02
   1.910721e+01  -3.076085e+02
   1.834147e+01  -1.702180e+02
   7.631542e+01  -8.361790e+01
   1.402914e+02  -7.470269e+01
   2.443150e+02  -6.628570e+01
   2.707331e+02   1.138470e+02
   8.015326e+01   2.379416e+02
  -4.311515e+01   2.301849e+02
  -1.749374e+02  -1.344192e+01
  -1.932702e+02  -2.022952e+02
   3.220399e+01  -2.550434e+02
   2.675452e+02  -9.507962e+01
   3.466788e+02   2.081899e+02
   1.876444e+02   3.108234e+02
  -8.482650e+01   2.493112e+02
  -1.293624e+02   1.661282e+02
  -1.991827e+02   1.068464e+02
  -1.680382e+02   8.986469e+01
  -2.959943e+02   2.645137e+01
  -4.275266e+02  -1.301821e+02
  -2.839183e+02  -2.825896e+02
   3.483489e+01  -4.403108e+02
   3.535563e+02  -3.819238e+02
   4.176497e+02  -1.515136e+02
   2.399284e+02   1.039678e+02
   2.141161e+01   2.567344e+02
  -9.496702e+01   2.085515e+02
   9.195642e+00   3.254791e+00
   9.651702e+01  -1.104065e+01
   6.708026e+01   3.493457e+01
   4.025288e+01   1.019014e+02
  -1.052618e+02   8.501420e+01
  -1.051214e+02  -5.015094e+01
   1.864005e+01  -8.929761e+01
   1.185715e+02   1.520787e+01
   1.818259e+02   2.053002e+02
  -4.085060e+01   2.504436e+02
  -2.112814e+02   1.375231e+02
  -3.382553e+02  -8.584277e+01
  -3.002302e+02  -2.182104e+02
  -8.366428e+01  -2.534491e+02
   1.229955e+02  -1.712532e+02
   1.740245e+02  -4.745367e+01
   9.477271e+01  -6.303724e+01
  -2.156497e+01  -6.031713e+01
   1.036344e+01  -1.163283e+02
   9.157180e+01  -1.847413e+01
   1.235547e+02   3.439462e+01
   4.706881e+01   4.361986e+01
  -8.889993e+01  -9.268226e+00
  -1.049693e+00  -6.509297e+01
   1.601592e+02  -5.989675e+01
   3.051969e+02   1.348832e+01
   2.551094e+02   2.075692e+02
  -3.012432e+01   2.758654e+02
  -2.777189e+02   2.103366e+02
  -3.040224e+02   4.508850e+01
  -1.795101e+02  -7.651581e+01
   2.861113e+01  -9.737185e+01
   3.504750e+01  -2.177189e+01
  -7.297077e+01   3.167637e+01
  -1.482928e+02  -1.108229e+01
  -1.822494e+02  -1.286262e+02
  -2.442058e+01  -1.795495e+02
   8.512263e+01  -1.253845e+02
   1.085649e+02  -1.541638e+01
  -8.618522e-01   3.047400e+01
  -5.825187e+01  -5.483573e+01
  -7.022637e+00  -1.122349e+02
   1.057295e+02  -1.298989e+02
   2.293651e+02  -3.158781e+00
   1.774918e+02   1.637933e+02
  -3.354622e+01   2.152781e+02
  -1.531496e+02   1.746881e+02
  -1.746846e+02  -2.652959e+01
  -3.056283e+01  -1.252325e+02
   9.648041e+01  -1.023365e+02
   4.111996e+01  -3.885887e+01
  -1.711541e+00   4.108843e+01
   1.364017e+00  -4.034048e+01
  -1.331217e+01  -5.420065e+01
   6.174998e+01  -1.751783e+01
   7.756896e+01   1.322463e+02
   4.515153e+01   1.728794e+02
  -1.554290e+02   1.920100e+02
  -2.635931e+02  -2.743672e+00
  -1.918440e+02  -1.515528e+02
  -1.358684e+01  -2.239515e+02
   1.293536e+02  -1.752377e+02
   1.105322e+02  -4.544343e+01
   1.237922e+02   7.578971e+00
   7.853171e+01   5.753106e+01
   6.394638e+01   1.814771e+01
   7.179351e+01   2.091928e+01
   6.045955e+01   1.055796e+02
  -1.867313e+01   1.085212e+02
  -1.060733e+02   6.356715e+01
  -1.034326e+02  -4.151064e+01
   3.608948e+01  -1.253864e+02
   1.647835e+02  -1.182152e+02
   1.890642e+02   1.310828e+02
   6.457387e+01   2.141266e+02
  -1.382044e+02   2.046681e+02
  -2.696764e+02   6.505002e+01
  -2.486083e+02  -5.766229e+01
  -8.786209e+01  -1.494546e+02
  -1.582842e+01  -1.489260e+02
   1.091183e+02  -4.009512e+01
   4.806197e+01  -4.109507e+01
   7.897827e+01  -1.010029e+02
   9.578190e+01  -7.643689e+01
   1.392955e+02   3.053077e+01
   1.596912e+02   1.540258e+02
   3.987425e+00   2.290145e+02
  -1.232989e+02   1.566581e+02
  -1.623838e+02  -1.100412e+01
  -1.620025e+02  -1.434989e+02
  -1.100026e+01  -1.532498e+02
   7.667173e+01  -7.402418e+01
   8.374833e+01   1.472750e+01
  -2.853199e+01   9.116700e+01
  -4.794346e+01   1.488784e+01
   3.958745e+01   3.174347e+00
   7.424004e+01  -2.184453e+00
   4.942938e+01   3.432197e+01
  -7.487929e+01   6.712005e+01
  -1.773067e+02   1.911155e+01
  -1.552792e+02  -7.147022e+01
  -1.349856e+01  -1.267214e+02
   1.165966e+02  -7.808302e+01
   1.449979e+02  -5.228121e+01
   3.717780e+01   5.384746e+01
  -6.856340e+01   4.249112e+01
  -5.588630e+01  -1.313869e+01
   2.260854e+01  -6.425944e+01
   5.520609e+01  -4.683077e+01
   6.232991e+01  -8.734566e+00
   5.422070e+01   2.229972e+01
   9.060715e+01   5.566238e+01
   4.351959e+01   7.005058e+00
   7.327307e+01   3.539783e+01
   3.161656e+00   1.201082e+02
  -6.655190e+01   1.564344e+02
  -1.244678e+02   1.382235e+02
  -1.402649e+02  -1.852896e+01
  -1.339063e+02  -9.717232e+01
   1.325305e+01  -8.588726e+01
   7.555823e+01  -4.153230e+01
   5.988017e+01   5.210884e+01
  -5.858915e+01   3.570088e+01
  -6.397724e+01  -2.052398e+01
  -4.780465e+01  -1.162318e+02
   8.632087e+01  -1.042696e+02
   1.966793e+02  -7.826298e+01
   1.440493e+02   6.561542e+01
   5.824825e+00   1.186055e+02
  -6.706323e+01   7.064349e+01
  -5.225754e+01   1.409594e+01
   3.284412e+01  -1.361179e+01
   7.370429e+01   3.695032e+01
   5.015256e+01   1.222498e+02
  -1.027466e+02   1.329467e+02
  -1.468088e+02   2.713618e+01
  -1.272504e+02  -1.250188e+02
  -1.612684e+00  -2.399511e+02
   6.866867e+01  -1.229747e+02
   1.564361e+02   1.876505e+01
   5.422946e+01   8.871396e+01
  -4.965526e+00   1.175371e+02
  -3.006415e+01   1.154498e+01
  -4.316643e+01   1.613423e+01
  -1.827314e+01  -3.356256e+01
  -1.361349e+01   1.966343e+01
   2.397115e+01  -7.759827e+00
  -8.513062e+01  -1.418979e+02
  -1.782355e+01  -1.239247e+02
   2.821000e+01  -9.690219e+01
   1.163984e+02   4.835585e+01
   9.606485e+01   2.276778e+01
   3.868441e+01   8.872120e+01
  -7.661798e+01   2.999258e+01
  -9.480525e+01   3.100685e+01
   3.515744e+00  -8.981644e+00
   4.692733e+01   5.940511e+00
   2.596430e+01  -2.397937e+01
  -3.190614e+01  -4.065170e+01
   2.084195e+01  -2.433333e+01
   6.570040e+01  -1.266349e+01
   1.190421e+02   7.081665e+00
   3.978986e+01   8.824118e+01
  -1.358670e+02   1.074204e+02
  -2.161251e+02   5.512521e+01
  -1.627727e+02  -6.852881e+01
  -4.108419e+01  -1.209099e+02
   8.230000e+01  -1.591270e+02
   1.534469e+02  -3.949886e+01
   1.002046e+02  -6.662845e+00
   1.917583e+01   2.139867e+01
  -4.062303e+01  -3.164865e+01
  -5.611074e+00  -8.432812e+01
   1.016196e+01   4.526920e+01
   1.576957e+01   7.866720e+01
   8.371566e+00   1.235775e+02
  -8.417240e+01   9.065620e+00
  -9.903925e+01  -6.641204e+01
  -2.433515e+01  -9.697681e+01
   1.099462e+02  -2.043078e+01
   1.498202e+02   4.722622e+01
   1.505611e+01   1.268802e+02
  -7.361393e+01   8.706817e+01
  -1.176449e+02  -6.748784e-01
  -6.554287e+01  -7.990755e+01
   7.186730e+01  -1.008424e+02
   4.199202e+01  -2.909172e+01
  -1.228553e+01   2.448052e+01
  -4.207828e+01   4.955584e+00
  -2.748184e+00  -2.883619e+01
   5.829082e+01  -5.261706e+01
   1.177833e+02  -4.818073e+01
   8.080134e+01   5.628937e+01
  -1.028624e+01   7.678985e+01
  -4.416458e+01   9.840649e+01
  -6.097398e+01   6.498120e-02
  -2.121720e+01  -2.390082e+01
  -5.602631e+00  -4.102386e+01
   2.192043e+01   1.951818e+01
   4.730833e+01   6.093470e+00
  -1.606473e+01   8.470917e+00
  -1.093532e+01  -2.154955e+01
  -4.313159e+01  -4.335946e+01
  -1.599707e+00   1.445785e+01
   2.302758e+01   2.075792e+01
   1.552506e+01   3.755771e+00
   2.640499e+01  -5.687074e+01
   6.518780e+01  -5.536033e+01
   6.588508e+01  -1.434971e+01
   2.125926e+01   6.168204e+01
  -3.392092e+00   5.982803e+01
  -4.064350e+01   4.316234e+01
  -9.204583e+01  -1.137903e+01
  -1.379166e+01  -8.861498e+01
   5.812318e+01  -7.371896e+00
   1.051931e+02   1.014176e+01
   2.131637e+01   4.919109e+01
  -3.728395e+01   2.912371e+01
  -7.279599e+01   4.168341e+01
  -4.118438e+01  -4.943426e+00
   5.818154e+01  -4.790374e+01
   3.250273e+01  -1.117782e+01
  -1.083594e+01   7.068270e+00
  -1.223520e+02   5.104160e+01
