
 $NMID
 id='ANONYMOUS ', fmtdat='(2E16.6)'
 volume=1.0
 tramp=1.0
 $END
   3.119537e+03  -2.238553e+02
   2.026748e+03   1.521526e+03
  -1.388975e+02   2.109286e+03
  -1.552643e+03   9.566248e+02
  -8.637665e+02  -2.161593e+02
   1.972866e+02  -2.755661e+02
   4.696961e+02   1.592544e+02
   6.859577e+00   6.885196e+02
  -5.357856e+02   5.582320e+02
  -7.994103e+02   2.867225e+01
  -3.820557e+02  -6.019068e+02
   7.814406e+01  -8.507688e+02
   4.058611e+02  -2.110804e+02
   3.081136e+02   5.225407e+02
  -1.343317e+02   7.038126e+02
  -4.843469e+02   2.284486e+01
  -2.042265e+02  -5.598968e+02
   2.561155e+02  -5.859058e+02
   4.959702e+02  -1.601463e+02
   3.395229e+02   2.534077e+02
   8.600489e+01   3.933712e+02
  -1.943603e+02   2.200116e+02
  -1.968863e+02   4.996254e+01
   1.867548e+02  -3.273281e+01
   2.956772e+02   1.618884e+02
   3.750281e+01   3.419731e+02
  -4.693588e+02   2.668252e+02
  -6.207338e+02  -1.876752e+02
  -1.768676e+02  -4.167447e+02
   3.303666e+02  -3.112735e+02
   5.890449e+02   1.272170e+02
   2.930982e+02   4.022351e+02
  -2.345832e+02   4.167568e+02
  -5.176384e+02   1.417588e+02
  -3.922145e+02  -1.765371e+02
  -8.500777e+01  -3.867463e+02
   1.734744e+02  -2.165003e+02
   8.716336e+01   1.419176e+02
  -2.548700e+02   3.267691e+02
  -3.063807e+02  -5.799294e+01
  -8.857027e+01  -5.465541e+02
   2.773073e+02  -5.511919e+02
   3.913687e+02   8.229087e+00
   1.069618e+02   4.154955e+02
  -1.958873e+02   2.278861e+02
  -2.468869e+02  -2.653236e+02
   8.020803e+01  -4.559693e+02
   4.783533e+02  -8.426042e+01
   5.330608e+02   3.323045e+02
   1.971263e+02   5.218617e+02
  -3.089273e+02   2.972304e+02
  -5.802461e+02  -9.194541e+01
  -3.356441e+02  -2.851099e+02
   1.015028e+02  -2.405064e+02
   3.067175e+02  -4.431122e+01
   2.021942e+02   5.967984e+01
  -1.023528e+02  -1.003381e+01
  -8.559453e+01  -9.201904e+01
   1.490342e+02  -9.547479e+01
   2.651917e+02   5.415589e+01
   1.131252e+02   2.461481e+02
  -1.788618e+02   2.293122e+02
  -3.250837e+02   1.582910e+02
  -2.523336e+02  -1.190971e+02
   8.056745e+00  -3.320646e+02
   2.498144e+02  -3.238597e+02
   3.760117e+02  -2.122488e+02
   2.219283e+02   2.076829e+02
   9.058937e+01   4.133706e+02
  -5.857770e+01   2.902297e+02
  -1.839047e+01   1.509387e+02
  -5.811205e+00   7.351979e+01
  -1.245961e+02   9.771081e+01
  -2.740089e+02   4.732631e+01
  -2.738824e+02  -1.294902e+02
  -1.040936e+02  -2.670556e+02
   1.296250e+02  -2.518387e+02
   1.976621e+02   2.396296e+01
   1.647929e+02   2.301894e+02
  -2.528095e+00   3.081152e+02
  -2.372264e+02   1.032701e+02
  -2.914683e+02  -1.415356e+02
  -2.181433e+02  -2.533802e+02
   3.480532e+01  -2.272193e+02
   1.916166e+02  -1.164585e+02
   1.978379e+02  -4.605373e+01
   1.216793e+02  -7.128920e+01
   2.474946e+02  -7.371986e+01
   3.903351e+02   9.162196e+01
   2.926246e+02   3.179234e+02
  -1.706591e+01   3.990925e+02
  -3.714758e+02   3.969294e+02
  -4.763755e+02   1.889209e+02
  -2.973090e+02  -4.872964e+01
  -9.139469e+00  -2.949104e+02
   8.098208e+01  -2.263258e+02
  -1.701181e+01  -3.129563e+01
  -1.371690e+02   9.051875e+01
  -1.276791e+02  -3.503924e+00
   1.000727e+01  -1.528390e+02
   1.495233e+02  -1.162182e+02
   1.547418e+02   2.987713e+01
  -2.538087e+01   1.441739e+02
  -1.986060e+02   4.654168e+01
  -1.707318e+02  -2.926027e+02
   1.187070e+01  -3.653854e+02
   2.395798e+02  -2.024690e+02
   3.270048e+02   1.037279e+02
   2.993142e+02   3.038412e+02
   6.655201e+01   2.815029e+02
  -1.723922e+02   1.595197e+02
  -1.687779e+02  -5.707402e+01
  -8.958469e+01  -6.446910e+00
   3.886921e+01   6.932806e+01
   1.894970e+01   1.344459e+02
  -9.045105e+01   8.155810e+01
  -1.017888e+02  -7.255706e+01
  -2.882842e+01  -8.897930e+01
   1.059878e+02  -1.951651e+01
   2.127668e+01   6.125525e+01
  -1.511655e+02   8.606259e+01
  -3.006966e+02  -3.943456e+01
  -2.903037e+02  -1.838883e+02
  -1.898093e+01  -2.349845e+02
   2.517825e+02  -2.813180e+02
   3.092266e+02  -9.516573e+01
   1.710769e+02   6.930669e+01
  -4.816440e+01   7.236868e+01
  -4.755369e+01  -1.029282e+01
   4.810399e+01  -7.362810e+01
   1.907116e+02  -1.202797e+01
   1.809792e+02   9.372046e+01
   6.560230e+01   1.731143e+02
  -4.218692e+01   1.428942e+02
  -1.267526e+02  -3.889803e+01
  -5.918625e+01  -6.388301e+01
   4.863567e+01   6.159618e+00
   4.076976e+01   1.324650e+02
  -5.664009e+01   1.109462e+02
  -2.031720e+02  -9.102680e-01
  -1.702202e+02  -1.252273e+02
  -2.382633e+01  -2.499505e+02
   1.887449e+02  -1.758494e+02
   1.594215e+02  -5.973941e-01
   1.012948e+02   9.717435e+01
  -3.236788e+00   6.920195e+01
  -5.735384e+01   1.439473e+01
  -1.537239e+01  -2.867183e+01
   1.463884e+01   2.084137e+01
   1.043924e+01   5.524179e+01
  -7.068203e+01   2.479485e+01
  -8.168007e+01  -1.120893e+02
  -3.889935e+01  -1.801746e+02
   1.815972e+02  -1.374545e+02
   2.373733e+02   7.704372e+00
   1.942648e+02   1.637970e+02
   3.531564e+01   2.014222e+02
  -7.154858e+01   2.090114e+02
  -1.171825e+02   4.204696e+01
  -6.991742e+01  -6.623545e+01
  -2.266979e+01  -4.797423e+01
  -7.750701e+01  -2.104826e+01
  -9.978429e+01  -6.688473e+00
  -3.204611e+01  -5.711274e+01
   4.193998e+01  -1.137235e+02
   1.211301e+02  -5.069330e+01
   1.253431e+02   2.554359e+01
  -5.929746e+01   1.401908e+02
  -1.459079e+02   5.642060e+01
  -2.421459e+02  -1.333497e+02
  -8.959259e+01  -2.230303e+02
   1.062797e+02  -2.109059e+02
   3.432991e+02  -5.617150e+01
   2.558277e+02   1.036473e+02
   8.993510e+01   1.908424e+02
  -3.369139e+01   1.314841e+02
  -8.862461e+01   1.094686e+02
  -6.925420e+01   4.109063e+01
  -1.428802e+02   1.135902e+02
  -8.944867e+01   1.121454e+02
  -8.819604e+01  -3.741678e+01
  -1.069235e+02  -1.537609e+02
  -4.937456e+01  -2.020500e+02
   9.646642e+01  -1.604360e+02
   1.691253e+02  -9.484037e+00
   1.209159e+02   1.678287e+02
  -2.613122e+01   1.596137e+02
  -1.140556e+02   8.430790e+01
  -3.118190e+01  -5.098832e+01
   1.377609e+01  -1.008920e+02
   8.138264e+01  -2.634478e+01
  -2.031062e+01  -2.330352e+01
  -8.792367e+01  -2.137833e+01
  -5.679953e+01  -2.650834e+01
   7.903931e+01  -1.741506e+01
   1.807778e+02   3.497078e+01
   1.262636e+02   1.396040e+02
  -1.176242e+01   1.418410e+02
  -1.516901e+02   4.024397e+01
  -1.359762e+02  -3.396098e+01
  -4.495442e+01  -1.126072e+02
   8.116527e+01  -2.298776e+01
   1.030540e+02   4.269514e+01
  -1.317928e+01   9.322979e+01
  -4.673427e+01   6.255732e+01
   1.905001e+01  -2.475123e+01
  -3.663634e+01  -6.829613e+01
  -5.383257e+01  -5.471724e+01
  -4.791609e+01   3.539265e+01
  -7.056134e+01   4.900857e+01
  -4.278833e+01  -6.512064e+01
   5.940486e+01  -1.538245e+02
   1.805972e+02  -1.585916e+02
   1.820347e+02  -7.818700e+01
   1.263763e+02   1.087844e+02
  -7.183106e+00   1.167300e+02
  -1.199277e+02   3.589428e+01
  -9.454653e+01  -1.313161e+00
   5.755428e+01   4.503584e+00
   1.401915e+02   4.587552e+01
   5.572692e+01   8.538518e+01
  -8.601627e+01   1.040179e+02
  -1.814994e+02   7.011453e+01
  -1.245902e+02  -1.389800e+01
  -2.495103e+01  -6.181797e+01
   3.822941e+01  -1.570761e+01
   4.429104e+01   3.537850e+01
  -7.326057e+01   7.792932e+01
  -1.111307e+02  -4.145492e+01
  -1.646833e+01  -1.807325e+02
   3.472893e+01  -1.535894e+02
   1.496175e+02  -5.726957e+01
   9.365088e+01   1.395126e+02
   3.185166e+01   2.426600e+02
  -8.464776e+01   1.845106e+02
  -1.432112e+02   1.005008e+00
  -6.999969e+01  -1.192743e+02
  -1.537860e+00  -1.302118e+02
   1.899210e+01  -5.471446e+01
   3.983593e+01   3.267958e+00
   2.113503e+00   1.359793e+01
   2.955701e+01  -5.422291e+01
   4.881818e+00   1.420858e+01
   9.290228e+01   1.313197e+02
   7.732387e+01   1.419018e+02
  -7.364329e+01   6.641774e+01
  -1.313898e+02  -7.060930e+01
  -1.090562e+02  -3.572786e+01
  -2.381502e+01  -3.312660e+01
   1.040654e+02   2.314692e+01
   9.221973e+01   3.833077e+01
  -1.712736e+01   1.261610e+01
  -6.991539e+01  -9.611112e+00
  -2.072388e+01  -2.297804e+01
   2.125071e+01  -1.214585e+00
   3.071493e+00  -6.284247e+00
  -8.475080e+01   2.816993e+01
  -6.169097e+01   5.034826e+01
  -1.556152e+01  -7.110458e+01
   1.048669e+02  -1.346678e+02
   2.065244e+02  -7.635318e+01
   1.234864e+02   5.064247e+01
  -3.677608e+01   2.015579e+02
  -1.086690e+02   1.307652e+02
  -1.397267e+02   4.143018e+01
  -4.333094e+01  -3.815829e+00
   1.033147e+01  -8.499926e+01
  -6.478238e+00   6.066711e+00
  -3.556540e+01  -1.885221e+01
  -2.425259e+01  -5.095117e+01
  -1.869576e+01  -5.531582e+01
   5.334624e+01  -3.951077e+01
   1.520712e+02   6.035630e+01
   7.488413e+01   1.383186e+02
  -2.166511e+01   8.957488e+01
  -7.450980e+01  -3.645335e+00
  -9.817933e+01  -7.687487e+01
  -2.864935e+01  -1.209071e+02
   3.454845e+01  -6.234523e+01
   5.844722e+01   6.489989e-02
   3.392645e+01   6.902143e+01
  -6.170974e+01   4.984928e+01
  -4.516494e+01   1.671501e+01
   4.344281e+01  -3.291224e+01
   8.879727e+01  -9.463476e+00
   2.558842e+01   1.380419e+01
  -7.393968e+01   8.963034e+01
  -1.015532e+02   2.772182e+01
  -6.388847e+01  -2.841351e+01
   3.879597e+01  -6.230639e+01
   6.581067e+01  -8.514837e+01
   1.068366e+01   7.991393e+00
  -2.334117e+01   3.575890e+01
  -3.851161e+01   6.220605e+01
  -1.411924e+01  -3.712237e+01
  -3.693840e+01   5.569285e+00
  -3.018633e+01   2.391100e+01
   3.559686e+01  -3.432908e-01
   2.604289e+01  -5.689048e+00
  -7.688630e+00   2.873836e+01
   3.063289e+01   1.517536e+01
   1.096830e+01   1.864146e+01
  -3.297492e+01   1.149529e+01
  -3.982769e+00   4.111160e+01
   1.013752e+01   5.171903e+01
   4.734424e-01  -2.195534e+01
   7.392055e-01  -5.206891e+01
   4.245364e+01  -1.469346e+00
   6.370738e+01   4.723472e+01
  -5.214649e+00   5.170194e+01
  -5.531062e+01   5.118205e+01
  -8.367390e+01   2.367615e+01
  -3.473723e+01  -3.844202e+01
   6.242059e+00  -9.369668e+01
   7.346850e+01  -2.321871e+01
   2.333459e+01  -1.061687e+01
  -1.164920e+01  -3.465908e+01
  -5.183114e+01   1.438062e+01
   3.130469e+01  -3.588784e+01
   8.140192e+01  -3.309020e+01
