
 $NMID
 id='ANONYMOUS ', fmtdat='(2E16.6)'
 volume=1.0
 tramp=1.0
 $END
  -3.859825e+03  -2.729083e+02
  -2.197441e+03  -2.053512e+03
   5.864910e+02  -2.400643e+03
   1.684063e+03  -1.245027e+03
   7.970962e+02   1.460749e+02
  -2.350223e+02   1.256713e+02
  -6.643714e+02  -2.580120e+02
   7.643640e+01  -7.453382e+02
   6.997896e+02  -7.218659e+02
   8.290864e+02  -1.064333e+02
   4.553626e+02   6.075547e+02
  -1.509500e+01   7.068389e+02
  -4.900483e+02   1.076240e+02
  -2.838465e+02  -5.817264e+02
   2.302439e+02  -5.341101e+02
   4.581305e+02   8.591906e+00
   3.328738e+02   5.229111e+02
  -2.169662e+02   6.095784e+02
  -4.473696e+02   2.463810e+02
  -3.347513e+02  -1.891909e+02
  -1.179549e+02  -4.002089e+02
   1.394006e+02  -3.599669e+02
   1.644069e+02  -1.759277e+02
  -1.036780e+02   4.345277e+01
  -2.962712e+02  -1.335109e+02
  -6.987784e+01  -3.135316e+02
   3.572208e+02  -3.152634e+02
   6.692333e+02   1.317372e+02
   2.972930e+02   4.073957e+02
  -3.103692e+02   3.432435e+02
  -6.468083e+02  -4.444212e+01
  -2.748983e+02  -3.973792e+02
   2.946899e+02  -4.459235e+02
   5.362498e+02  -1.944261e+02
   4.069924e+02   1.295820e+02
   9.718337e+01   3.566980e+02
  -7.645919e+01   2.281488e+02
  -5.419827e+01  -1.330320e+02
   1.816282e+02  -3.266064e+02
   3.560286e+02   8.088405e+01
   2.064917e+02   5.711145e+02
  -2.447678e+02   5.654427e+02
  -4.597037e+02   1.726058e+01
  -1.856012e+02  -4.091162e+02
   1.905045e+02  -2.488611e+02
   2.681332e+02   2.992884e+02
  -1.185693e+02   5.073199e+02
  -4.576266e+02   6.125212e+01
  -5.037122e+02  -3.919814e+02
  -1.346779e+02  -5.239737e+02
   3.661982e+02  -2.611173e+02
   5.318625e+02   7.691047e+01
   3.681245e+02   2.989266e+02
  -5.642791e+01   3.143699e+02
  -3.600695e+02   8.471787e+01
  -2.334179e+02  -1.177721e+02
   3.345704e+01  -5.387928e+01
   3.410814e+01   1.013785e+02
  -1.632260e+02   1.429283e+02
  -2.781906e+02  -4.726906e+01
  -1.003326e+02  -2.736432e+02
   1.749967e+02  -2.456979e+02
   3.697128e+02  -6.943599e+01
   2.361772e+02   7.389504e+01
   4.102001e+00   1.955480e+02
  -2.408980e+02   3.064983e+02
  -3.454768e+02   1.689001e+02
  -2.214509e+02  -1.525510e+02
  -4.925152e+01  -4.137656e+02
   1.023202e+02  -3.887259e+02
   1.272502e+02  -1.419643e+02
   4.903497e+00  -1.284430e+01
   6.025707e+01  -5.411008e+01
   1.748340e+02  -7.033911e+01
   2.633733e+02   6.149417e+01
   1.459761e+02   2.530809e+02
  -4.638422e+01   1.618918e+02
  -1.979272e+02  -9.376127e+00
  -2.013735e+02  -2.026805e+02
   1.099455e+00  -3.188267e+02
   2.537337e+02  -1.633533e+02
   3.716217e+02   1.847215e+02
   1.760629e+02   3.524811e+02
  -8.328249e+01   3.160741e+02
  -2.263140e+02   1.889548e+02
  -1.247171e+02   2.037521e+01
  -1.129774e+02  -2.320232e+01
  -2.111449e+02   3.127860e+01
  -3.844594e+02  -8.044729e+01
  -2.561044e+02  -2.830737e+02
   5.622341e+01  -4.461780e+02
   3.440789e+02  -4.060842e+02
   4.692859e+02  -1.528913e+02
   3.187632e+02   1.298754e+02
   1.848055e+01   3.199357e+02
  -1.362296e+02   2.301881e+02
  -4.457669e+01   5.382203e+01
   1.137605e+02  -1.052866e+02
   1.455733e+02  -1.348233e+01
   3.808112e+01   1.634801e+02
  -1.219585e+02   1.603727e+02
  -1.820867e+02  -3.911363e+01
  -2.582699e+01  -1.691066e+02
   1.572445e+02  -2.584543e+01
   1.968910e+02   2.316397e+02
   1.705661e+01   3.002349e+02
  -2.230967e+02   2.263156e+02
  -3.278842e+02  -4.471694e+01
  -3.150970e+02  -2.386807e+02
  -7.195853e+01  -2.528616e+02
   1.114297e+02  -1.758919e+02
   1.825501e+02  -4.977588e+01
   8.419874e+01   3.131111e+01
  -7.036369e+01  -3.604102e+01
  -7.363668e+01  -1.355600e+02
   8.252620e+01  -1.059413e+02
   1.434532e+02   6.905812e+01
   7.266818e+01   6.250301e+01
  -3.291845e+01  -2.678785e+01
  -2.471685e+01  -1.039951e+02
   1.495525e+02  -5.768664e+01
   2.394896e+02   1.678043e+01
   2.206256e+02   1.661890e+02
   6.575717e+01   2.534708e+02
  -1.725329e+02   2.057101e+02
  -2.748137e+02   1.132775e+02
  -2.110960e+02   1.814062e+00
   8.970473e+00  -7.390389e+01
   5.687154e+01  -1.720410e+01
  -4.615507e+01   9.667236e+01
  -2.117231e+02   4.755726e+01
  -2.458331e+02  -6.913250e+01
  -7.756372e+01  -2.461995e+02
   7.025947e+01  -1.915624e+02
   1.863950e+02  -6.817950e+00
   1.019268e+02   4.328379e+01
  -2.865637e+01  -5.641485e+00
  -3.714029e+01  -8.776072e+01
   7.890176e+01  -1.158605e+02
   1.831902e+02  -3.851884e+01
   1.615506e+02   1.259624e+02
   2.824170e+01   2.226185e+02
  -1.779788e+02   2.182246e+02
  -1.438932e+02  -1.079123e+01
  -4.985857e+01  -1.202468e+02
   5.611040e+01  -1.235421e+02
   9.764888e+01  -1.500862e+01
   1.265716e+01   6.304696e+00
   1.743635e-01   4.305252e+01
   5.457701e+01   1.740470e+01
   8.688414e+01  -1.376183e+01
   9.598909e+01   5.464178e+01
  -1.183392e+01   1.549801e+02
  -1.202761e+02   1.546607e+02
  -1.715173e+02   1.837025e+01
  -1.823796e+02  -2.030397e+02
  -6.015346e+01  -2.025308e+02
   9.471469e+01  -1.930214e+02
   1.480348e+02  -2.165608e+01
   4.307731e+01   1.415857e+02
   4.029133e+01   4.593106e+01
   1.036893e+02  -7.047882e+00
   7.531747e+01  -7.681253e+00
   5.804533e+01   4.017737e+01
  -5.865461e+01   1.106431e+02
  -6.473271e+01   4.240806e+01
  -6.043192e+01  -2.229580e+01
   3.581230e+01  -9.572047e+01
   1.283168e+02  -1.285765e+02
   1.903523e+02   6.550166e+01
   8.547588e+01   1.570893e+02
  -6.971120e+01   2.124576e+02
  -2.923788e+02   9.536628e+01
  -2.595898e+02  -9.096244e+01
  -8.559492e+01  -1.888878e+02
   2.351532e+01  -1.720219e+02
   9.382849e+01  -9.338810e+01
   9.194129e+01  -1.050123e+02
   1.274639e+02  -9.844782e+01
   1.140141e+02  -1.227637e+02
   9.273704e+01   6.201065e+01
   8.285722e+01   1.765917e+02
  -4.484797e+01   2.118237e+02
  -7.455104e+01   1.512488e+02
  -9.167918e+01  -3.085899e+01
  -9.189497e+01  -9.184460e+01
  -3.650640e+01  -1.221628e+02
   5.705461e+01  -3.736481e+01
   3.193975e+01  -3.781524e+01
   1.674133e+01   8.877957e+01
   1.832616e+01   1.060006e+01
   6.532865e+01   4.433449e+01
   1.067197e+02   9.670566e+01
   4.301157e+01   8.042196e+01
  -7.888360e+01   2.532093e+01
  -1.840524e+02  -5.075332e+01
  -1.539333e+02  -4.990030e+01
   3.427998e+01  -1.535090e+02
   1.365929e+02  -3.402911e+01
   1.869347e+02  -4.291505e+01
   8.124024e+01   5.529700e+01
  -1.115908e+02  -5.460277e+00
  -6.229424e+01  -1.455845e+01
  -2.241918e+00  -3.960013e+01
   2.939045e+01  -2.662610e+01
   3.026877e+01   9.976624e+00
   4.396774e+01   6.177467e+01
   6.072956e+01   8.765369e+01
   5.166051e+01  -1.017793e+01
   2.918693e+01  -3.504976e+01
   3.152807e+01   2.193089e+01
  -1.938164e+01   1.154487e+02
  -8.941835e+01   9.940907e+01
  -1.738152e+02   1.481616e+01
  -1.198502e+02  -7.305956e+01
  -1.405570e+01  -1.260656e+02
   4.341455e+01  -9.036272e+01
   4.121941e+01  -1.603819e+01
   4.797017e+00  -1.933518e+01
  -8.090975e+01  -1.213707e+01
  -3.370037e+01  -1.302889e+02
   1.152013e+02  -1.084407e+02
   2.359811e+02  -2.706035e+00
   1.945938e+02   1.337796e+01
   3.704775e+00   5.209594e+01
  -7.947528e+01   3.726954e+01
  -6.317738e+01  -1.582147e+01
   4.520317e+01   2.139923e+01
   7.073285e+01   3.842578e+00
   6.360083e+00   1.187765e+02
  -1.111303e+02   1.604619e+02
  -1.861909e+02   9.654568e+01
  -1.454213e+02  -6.972008e+01
   4.206515e+01  -2.379624e+02
   7.781157e+01  -1.146313e+02
   8.568948e+01   1.081906e+01
   3.853913e+01   9.032876e+01
  -1.815122e+01   9.050543e+01
  -4.160666e+01   1.916588e+01
  -6.226339e+01  -7.163819e+01
   9.659732e+00  -3.370689e+01
  -1.660173e+01   2.971414e+01
  -2.689936e+01  -3.251439e+01
  -4.792409e+00  -7.714417e+01
  -3.007181e+00  -8.254271e+01
   6.570046e+01  -3.275650e+01
   1.037583e+02   7.846739e+01
   1.336169e+02   1.114034e+02
   3.887535e+01   6.048759e+01
  -8.992933e+01   4.154204e+01
  -1.045639e+02   5.659464e+00
  -5.427360e+01  -6.331837e+00
   5.440661e+01  -3.375684e+01
  -2.938051e+01  -3.413338e+01
  -3.418228e+01  -7.506926e+01
   2.330098e+01  -6.266815e+00
   7.155506e+01  -1.134136e+00
   1.106917e+02   1.347214e+01
   4.099198e+00   7.766094e+01
  -1.090501e+02   1.025407e+02
  -2.070448e+02   3.017386e+01
  -1.335130e+02  -1.079391e+02
  -9.128775e+00  -1.788975e+02
   8.323788e+01  -1.107944e+02
   1.257489e+02  -3.660755e+01
   7.122741e+01   1.377901e+01
   4.967861e+00   5.759935e+01
   3.664610e+01  -1.393870e+01
  -7.283175e+00   6.139030e+00
   1.959248e+01   5.008275e+01
  -3.471775e+01   1.040058e+02
  -2.092527e+01   1.021474e+02
  -5.692083e+01  -5.091408e+01
  -7.161918e+01  -7.936926e+01
   1.657242e+01  -1.094577e+02
   7.765904e+01  -3.040599e+01
   1.166207e+02   5.151887e+01
   1.574700e+01   1.146261e+02
  -9.122552e+01   5.500327e+01
  -1.091701e+02   6.923568e+00
  -5.653627e+01  -4.788193e+01
  -3.492441e+00  -8.078947e+01
   1.242703e+01  -1.023894e+02
  -2.241914e+00  -3.799349e+01
  -7.466309e+01   5.501981e+00
   3.483363e+00  -5.516904e+01
   6.944353e+01  -3.933286e+01
   1.348914e+02  -9.098174e+01
   1.014618e+02   4.218601e+01
   7.070689e+01   9.179273e+01
  -8.072651e+01   9.704981e+01
  -6.397005e+01   3.884902e+01
   3.349948e+00  -4.983910e+01
   4.488945e+01  -4.310521e+01
   3.604596e+01   2.302863e+01
   2.288559e+01   6.073399e+01
   8.860017e+00   7.317000e+00
  -1.142926e+01  -8.215560e+00
  -4.762383e+01  -6.705411e+00
  -6.658908e+01  -1.242667e+01
   7.340175e+00   1.433008e+01
   2.980498e+01   1.697051e+01
   7.867388e+00  -2.254240e+01
  -1.883311e+01  -5.304018e+01
   2.072370e+01   1.603177e+01
   5.752669e+01   2.912896e+01
   2.296769e+01   3.834911e+01
  -5.065687e+01   1.961992e+01
  -3.902940e+01  -2.731967e+01
  -1.959677e+01  -6.589512e+01
   8.962887e+00  -3.404714e+01
   6.696457e+01   2.982852e+01
   1.969740e+01   4.884041e+00
   1.289807e+01   1.454214e+01
  -4.998098e+01  -1.770945e+01
  -5.868452e+00   4.820008e+01
   2.891928e+00  -1.907101e+01
   2.864036e+01  -9.518267e+00
  -2.335199e+01   5.399949e+01
  -8.718660e+01  -1.120463e+01
