
 $NMID
 id='ANONYMOUS ', fmtdat='(2E16.6)'
 volume=1.0
 tramp=1.0
 $END
   3.205344e+03   4.583584e+02
   1.792087e+03   1.709498e+03
  -3.023335e+02   1.943369e+03
  -1.454356e+03   1.061224e+03
  -8.244180e+02  -1.070974e+02
   2.811476e+02  -1.768150e+02
   4.797424e+02   1.929564e+02
   5.996433e-01   6.668894e+02
  -6.036020e+02   6.407594e+02
  -6.617580e+02  -8.339671e+01
  -3.674405e+02  -6.694639e+02
   1.024123e+02  -6.819621e+02
   3.551449e+02  -6.962113e+01
   1.789198e+02   4.743209e+02
  -7.223252e+01   5.321612e+02
  -3.915719e+02   3.165586e+01
  -1.854867e+02  -3.974844e+02
   1.613888e+02  -5.478753e+02
   4.105055e+02  -1.923082e+02
   3.681826e+02   2.138586e+02
   7.523473e+01   3.120829e+02
  -1.887619e+02   1.330470e+02
  -7.978010e+01   1.343773e+02
   1.406155e+02   6.206253e+01
   2.104299e+02   2.369863e+02
   5.913292e+01   3.236030e+02
  -3.990764e+02   1.789554e+02
  -6.686567e+02  -7.713369e+01
  -3.319410e+02  -3.595475e+02
   2.568974e+02  -2.203288e+02
   5.539212e+02   1.549723e+02
   1.834051e+02   3.629657e+02
  -3.442557e+02   3.976923e+02
  -5.109191e+02   1.031316e+02
  -4.021970e+02  -2.058049e+02
  -4.923233e+01  -3.553638e+02
   6.260412e+01  -1.897331e+02
   5.513851e+01   1.468224e+02
  -1.839289e+02   1.944558e+02
  -2.818494e+02  -1.610720e+02
  -1.144361e+02  -4.640640e+02
   2.291823e+02  -4.774744e+02
   3.418349e+02  -1.471248e+01
   1.651068e+02   3.073479e+02
  -1.489128e+02   1.564050e+02
  -2.042295e+02  -2.102288e+02
   1.184069e+02  -3.753564e+02
   4.691314e+02  -9.035513e+01
   4.665015e+02   3.205052e+02
   1.667747e+02   4.553208e+02
  -3.112591e+02   2.645273e+02
  -5.347053e+02  -7.564281e+01
  -3.492140e+02  -2.161359e+02
   5.406498e+01  -2.618842e+02
   3.093512e+02  -8.744323e+01
   1.933605e+02   5.785008e+01
  -6.058060e+01   6.615452e+01
  -5.452395e+01  -1.086158e+02
   1.438258e+02  -1.104991e+02
   2.550081e+02   7.854346e+01
   1.251982e+02   2.554055e+02
  -1.365312e+02   2.573305e+02
  -2.797177e+02   1.247407e+02
  -2.347818e+02  -3.142728e+01
   2.319117e+01  -2.790154e+02
   2.390425e+02  -3.541410e+02
   3.402476e+02  -2.133212e+02
   2.170374e+02   1.297923e+02
   6.479088e+01   3.576128e+02
  -2.711233e+01   3.073192e+02
  -4.350692e+01   1.431332e+02
  -6.441347e+01   5.086520e+01
  -7.845230e+01   8.973429e+01
  -2.391968e+02   5.613866e+01
  -2.243984e+02  -8.388215e+01
  -1.095582e+02  -2.372127e+02
   4.473997e+01  -1.887773e+02
   2.106459e+02   1.567228e+01
   1.349403e+02   2.081948e+02
  -6.863714e+01   2.435117e+02
  -2.353484e+02   8.346565e+01
  -3.129725e+02  -1.424737e+02
  -1.404107e+02  -3.056099e+02
   7.201937e+01  -2.265583e+02
   1.878117e+02  -1.740680e+02
   1.374671e+02  -4.952075e+01
   1.140504e+02  -7.884190e+00
   2.552919e+02  -2.934287e+01
   3.845580e+02   1.324756e+02
   2.927847e+02   2.753635e+02
  -5.642042e+01   3.847951e+02
  -3.701397e+02   3.266170e+02
  -4.363715e+02   1.334817e+02
  -3.072236e+02  -7.284780e+01
  -3.679182e+01  -2.335444e+02
   4.809539e+01  -1.677258e+02
   4.866983e+00  -1.574227e+01
  -1.195573e+02   3.678230e+01
  -1.385250e+02  -5.565384e+00
  -2.373683e+01  -1.433070e+02
   6.479838e+01  -8.308412e+01
   1.134483e+02   3.512643e+01
  -5.228454e+01   1.029204e+02
  -1.949101e+02  -3.185260e+01
  -1.192092e+02  -2.542279e+02
   2.618685e+01  -2.961174e+02
   2.395355e+02  -1.824496e+02
   3.430617e+02   5.154801e+01
   2.585207e+02   1.939529e+02
   5.105972e+01   2.277075e+02
  -1.071079e+02   1.305633e+02
  -1.405614e+02  -1.825007e+01
  -1.570322e+01  -3.572064e+01
   7.605836e+01   5.342942e+01
  -3.075210e+01   1.320462e+02
  -9.435487e+01   1.036645e+02
  -1.539394e+02  -2.311649e+01
   1.790225e+01  -3.059271e+01
   8.551194e+01  -3.937235e+00
   2.733336e+01   4.561170e+01
  -2.066905e+02   6.329172e+01
  -2.515933e+02  -5.150614e+01
  -1.859301e+02  -1.760641e+02
  -1.425361e+00  -1.995158e+02
   2.168031e+02  -2.060525e+02
   2.293653e+02  -6.623937e+01
   1.012021e+02   7.451921e+01
  -5.693587e+01   7.355594e+01
  -1.053751e+02   2.311016e+00
   3.746421e+01  -9.622337e+01
   1.384243e+02  -3.128816e+01
   1.831679e+02   6.703262e+01
   1.032796e+02   1.672977e+02
  -3.498863e+01   9.611998e+01
  -1.199145e+02   1.439987e+01
  -4.504096e+01  -6.357846e+00
   4.932913e+01   2.994696e+01
   4.583537e+01   1.343198e+02
  -1.039199e+02   1.343148e+02
  -2.272556e+02   1.127957e+01
  -1.919409e+02  -1.167306e+02
  -4.168769e+00  -2.295330e+02
   1.408457e+02  -1.713348e+02
   1.706431e+02  -2.705807e+00
   4.735844e+01   7.616120e+01
  -6.939539e+01   7.843687e+01
  -1.051361e+02   3.108794e+01
   2.207208e+00  -3.223327e+01
   2.502679e+00  -1.226662e+01
  -8.207800e+01  -8.425314e+00
  -9.729951e+01  -3.201357e+00
  -9.906925e+01  -1.122507e+02
  -1.031465e+01  -1.879305e+02
   1.775909e+02  -1.378571e+02
   2.047372e+02  -1.611700e+01
   1.693882e+02   1.505363e+02
   8.148379e+01   2.094652e+02
  -9.276194e+01   1.471190e+02
  -9.064874e+01   3.900447e+01
  -6.265929e+01  -5.911987e+01
  -3.440922e+01  -2.749054e+01
  -8.679450e+01  -1.594673e+01
  -1.006586e+02  -2.231058e+01
  -8.678095e+00  -5.023154e+01
   7.069982e+01  -8.333648e+01
   1.575086e+02  -6.814138e+01
   9.393946e+01   9.410236e+01
   1.843086e+01   1.369221e+02
  -1.852865e+02   6.837417e+01
  -2.779449e+02  -5.736870e+01
  -9.943806e+01  -1.949366e+02
   6.959154e+01  -2.420541e+02
   2.367763e+02  -9.372560e+01
   2.500007e+02   6.037953e+01
   5.542440e+01   1.423109e+02
  -3.219809e+01   1.539799e+02
  -5.753513e+01   7.152505e+01
  -5.591210e+01   2.561478e+01
  -5.163485e+01   5.826499e+01
  -8.621962e+01   1.870201e+01
  -9.018556e+01   2.424799e+01
  -1.127208e+02  -1.293311e+02
  -4.052072e+01  -2.213765e+02
   6.752216e+01  -1.623237e+02
   1.934956e+02  -8.935630e+00
   1.417758e+02   1.098821e+02
   1.579271e+01   1.673189e+02
  -6.172376e+01   6.480370e+01
  -5.072585e+01  -8.861508e+00
  -2.749910e+01  -4.140634e+01
   3.139613e+01  -2.082447e+00
  -4.394518e+01  -7.231670e+01
  -7.585188e+01   5.957085e+00
  -4.995774e+01  -3.985126e+01
   9.464563e+01  -3.733144e+01
   1.597512e+02   2.925844e+01
   1.521135e+02   7.666792e+01
   2.046462e+01   9.707370e+01
  -1.018029e+02   8.535435e+01
  -1.718316e+02  -2.948537e+01
  -2.210754e+01  -6.669143e+01
   3.564848e+01  -8.650761e+01
   8.044645e+01   3.944635e+01
   1.686567e+01   4.094633e+01
  -1.262451e+01   6.989402e+01
  -7.029697e+01   2.466081e+01
  -1.377950e+01  -7.554031e+01
   1.080546e+01  -5.046099e+01
  -8.069016e+01  -1.635740e+01
  -4.294706e+01   1.674984e+01
  -3.677381e+01  -5.518617e+01
   5.824912e+01  -9.816930e+01
   1.310283e+02  -1.443400e+02
   1.466413e+02  -3.622843e+01
   1.294917e+02   8.453614e+01
  -1.056163e+01   1.215647e+02
  -6.712584e+01   5.418749e+01
  -5.056500e+01  -1.585441e+01
   7.309886e+01  -7.058227e+01
   1.099290e+02   5.288277e+01
   5.681904e+01   8.901851e+01
  -6.496788e+01   8.399162e+01
  -1.776779e+02   7.037080e+01
  -1.453914e+02  -3.158110e+01
  -2.851581e+01  -3.720325e+01
   5.054670e+01  -5.973441e+01
   5.896769e+01  -2.335889e+01
  -4.191308e+01   2.982807e+01
  -8.115653e+01  -5.804758e+01
  -5.322382e+01  -1.370216e+02
   8.551737e+01  -1.325822e+02
   1.816827e+02  -7.105537e+01
   1.714317e+02   6.360979e+01
   2.474933e+01   1.919057e+02
  -7.437198e+01   1.445888e+02
  -1.033558e+02   7.979505e+00
  -1.786193e+01  -8.519183e+01
   1.694806e+01  -1.017241e+02
   1.037677e+01  -1.972096e+01
   3.503194e+01   4.846810e+01
  -2.052260e+01   1.116072e+01
  -1.477958e+01  -1.253691e+00
   5.831158e+01   1.012855e+01
   4.808488e+01   5.956008e+01
   4.564205e+01   9.837414e+01
  -4.727191e+01   3.427924e+01
  -1.161098e+02  -1.182825e+01
  -9.606720e+01  -5.273624e+01
  -1.106561e+01  -6.400780e+01
   8.296227e+01   2.805403e+01
   8.088095e+01   8.984432e+00
   2.995174e+01  -2.233014e+01
  -4.779502e+00   6.099555e+00
  -2.139207e+00   1.967280e+01
   9.438649e+00   1.277419e+01
   1.063694e+01   3.777487e+01
  -1.025684e+02  -4.527652e+01
  -7.924768e+01  -3.228034e+01
  -7.999575e+00  -3.871647e+01
   1.373437e+02  -1.128654e+02
   1.629216e+02  -6.930822e+01
   1.602435e+02   5.952700e+01
   2.276116e+01   1.551232e+02
  -8.853742e+01   1.225347e+02
  -1.391938e+02   6.357839e+01
  -4.395194e+01   2.693032e+01
  -1.802023e+01  -4.979049e+01
  -1.665751e+01   7.207294e+00
  -1.235997e+01   5.530695e-01
  -7.023723e+01  -4.081235e+01
  -3.852838e+01  -8.986710e+01
   4.842605e+01  -8.687907e+01
   7.684206e+01   2.347333e+01
   6.515603e+01   9.563014e+01
   4.626247e+01   1.381748e+02
  -7.800091e+01   1.910421e+01
  -8.052163e+01  -8.475481e+01
  -3.561578e+01  -1.093686e+02
   6.776772e+01  -7.849521e+01
   1.217536e+02   4.284092e+01
   9.119778e+01   4.850493e+00
  -1.045488e+01   3.780788e+01
  -3.113007e+01   4.920170e+01
   2.172031e+01  -7.704495e-01
   5.007097e+01  -1.969933e+01
   1.153590e+01   3.280941e+01
  -7.685639e+01   4.125082e+01
  -1.400479e+02   5.384577e+01
  -6.430368e+01  -2.043009e+01
   5.091287e+01  -8.648187e+01
   8.630530e+01  -6.722717e+01
   7.348106e+01  -2.101265e+01
  -3.358244e+01   5.015800e+01
  -2.902830e+01   3.244732e+01
  -4.698075e+01   1.003344e+00
   5.952046e+00  -9.208765e+01
   1.429661e+01  -4.829350e+01
   3.979059e+01   5.440332e+00
   2.824774e+01   3.170589e+01
  -1.824122e+00  -1.120894e+01
  -1.380207e+01  -2.346620e+01
  -5.755153e+00  -1.991422e+01
   2.580267e+01   2.480359e+01
  -2.002858e+01   5.352958e+01
  -5.195760e+01   2.650851e+01
  -1.773528e+01  -5.941360e+01
  -2.585713e+01  -4.199875e+01
   2.772783e+01   8.293962e+00
   7.697164e+01   2.737073e+01
   4.970484e+01   5.321632e+01
  -4.843525e+01   2.827809e+01
  -9.076322e+01  -2.528425e+00
  -5.326743e+01  -4.131475e+01
   1.850235e+00  -1.352306e+01
   1.169545e+01  -2.073290e+01
  -5.127034e-01  -3.935873e+01
  -4.485660e+01   3.316797e-01
  -3.971639e+01   3.791571e+01
   1.796295e+01  -2.602759e+01
   1.109979e+02   2.429390e+01
