
 $NMID
 id='ANONYMOUS ', fmtdat='(2E16.6)'
 volume=1.0
 tramp=1.0
 $END
   4.609181e+03  -9.184795e+01
   2.858945e+03   3.101073e+03
  -8.916408e+02   3.130173e+03
  -2.330566e+03   1.011201e+03
  -1.089812e+03  -7.938632e+02
   7.735529e+02  -6.268506e+02
   9.418579e+02   5.005266e+02
   7.149573e+01   1.070729e+03
  -8.898934e+02   8.865428e+02
  -1.043224e+03  -8.618411e+01
  -5.916646e+02  -9.608471e+02
   2.169368e+02  -1.036920e+03
   8.164746e+02  -1.548728e+02
   4.694647e+02   7.425526e+02
  -2.459508e+02   7.776911e+02
  -6.359934e+02  -5.259484e+01
  -3.108101e+02  -7.198095e+02
   3.458034e+02  -7.204826e+02
   6.071407e+02  -1.567774e+01
   3.862171e+02   2.869458e+02
  -1.858947e+01   5.014354e+02
  -2.476277e+02   2.446964e+02
  -2.409526e+02   6.789332e+01
   1.788598e+02  -1.812775e+02
   4.510729e+02   1.840310e+02
   2.450971e+02   5.294497e+02
  -5.250645e+02   4.877479e+02
  -8.799643e+02  -4.558884e+00
  -4.329089e+02  -5.847137e+02
   4.346622e+02  -4.632473e+02
   7.871238e+02   1.465001e+02
   3.358432e+02   5.584530e+02
  -3.150563e+02   5.304324e+02
  -5.838883e+02   2.230705e+02
  -3.934317e+02  -2.486701e+02
  -7.245724e+01  -5.260507e+02
   2.426436e+02  -3.513212e+02
   1.851323e+02   2.174658e+02
  -1.385662e+02   5.043294e+02
  -4.917224e+02  -1.364590e+01
  -2.683406e+02  -7.081908e+02
   3.173264e+02  -8.236273e+02
   6.355828e+02  -1.327195e+01
   3.019890e+02   6.306140e+02
  -2.631085e+02   3.209503e+02
  -4.053695e+02  -3.748933e+02
   7.155857e+01  -6.209933e+02
   6.126951e+02  -8.290202e+01
   6.195123e+02   4.389759e+02
   1.755596e+02   6.121756e+02
  -3.979922e+02   3.521221e+02
  -6.398447e+02  -1.239249e+02
  -4.277128e+02  -3.967915e+02
   1.329626e+02  -4.076894e+02
   4.770365e+02  -8.363805e+01
   2.838018e+02   1.740222e+02
  -1.549186e+02   1.310138e+02
  -1.588490e+02  -1.497736e+02
   1.535872e+02  -1.870412e+02
   3.576471e+02   1.267022e+02
   1.365026e+02   2.723124e+02
  -2.160646e+02   2.339330e+02
  -3.489122e+02   7.792003e+01
  -1.571780e+02  -8.962772e+01
   1.018182e+02  -2.398113e+02
   1.936775e+02  -3.473419e+02
   3.035025e+02  -2.222031e+02
   3.007337e+02   1.396515e+02
   9.698946e+01   4.742791e+02
  -1.304871e+02   3.928525e+02
  -1.679912e+02   1.214803e+02
  -4.226959e+01  -7.854372e+01
   1.349038e+01   2.156576e+01
  -1.668467e+02   1.405007e+02
  -3.035412e+02  -6.572917e+01
  -1.614014e+02  -2.616244e+02
   7.898060e+01  -2.612680e+02
   2.676633e+02   4.884445e+00
   2.125359e+02   2.415072e+02
  -3.451325e+01   2.985459e+02
  -3.155497e+02   7.704018e+01
  -4.069082e+02  -1.441165e+02
  -1.739315e+02  -3.900766e+02
   1.235791e+02  -2.917489e+02
   2.472861e+02  -1.367003e+02
   1.507511e+02   4.555390e+01
   1.140204e+02  -4.200765e+01
   2.188563e+02  -6.817683e+01
   4.104407e+02   5.908573e+01
   3.451084e+02   3.020003e+02
  -1.839573e+01   4.459319e+02
  -3.248161e+02   4.239981e+02
  -4.565238e+02   2.763386e+02
  -3.485398e+02  -1.009804e+02
  -9.892081e+00  -3.291399e+02
   1.402369e+02  -2.759382e+02
   1.197102e+02  -6.364714e+01
  -1.213451e+02   9.849229e+01
  -2.075630e+02   1.806985e+01
  -9.170645e+01  -1.708554e+02
   1.633070e+02  -1.443228e+02
   1.963300e+02   6.813180e+01
   5.863979e+01   1.473312e+02
  -1.121352e+02   4.837921e+01
  -1.283133e+02  -2.913825e+02
   1.380021e+01  -3.061254e+02
   2.708976e+02  -1.555401e+02
   3.703239e+02   1.402589e+02
   2.705061e+02   2.550394e+02
   1.011855e+02   2.548975e+02
  -1.370084e+02   2.009433e+02
  -2.149375e+02   2.657035e+01
  -4.852207e+01  -3.171600e+01
   8.619360e+01   4.674547e+01
   5.045931e+01   1.563383e+02
  -8.023084e+01   1.096730e+02
  -1.288737e+02  -3.431713e+01
  -5.099128e+01  -5.633094e+01
   1.225157e+02  -6.150306e+01
   1.205120e+02   7.476464e+01
  -1.331476e+02   4.995961e+01
  -2.703802e+02  -2.913568e+01
  -2.810666e+02  -1.413769e+02
  -8.086034e+01  -2.349051e+02
   1.834972e+02  -2.861653e+02
   2.959378e+02  -1.457170e+02
   1.239626e+02   5.720163e+01
  -6.068539e+01   6.529173e+01
  -7.795813e+01   1.477816e+01
   6.188305e+00  -7.762657e+01
   2.540257e+02  -1.187463e+01
   1.936442e+02   1.168124e+02
   6.046089e+01   2.246819e+02
  -7.700370e+01   1.632386e+02
  -1.523853e+02   1.288164e+01
  -8.462840e+01  -3.717433e+01
   1.888613e+01  -7.585804e+01
   8.562972e+01   5.573315e+01
  -4.425544e+01   1.359431e+02
  -1.944832e+02   6.931658e+01
  -1.660209e+02  -1.341192e+02
  -3.575453e+00  -2.396415e+02
   1.774731e+02  -1.764173e+02
   1.981259e+02   1.517705e+01
   4.357043e+01   1.688885e+02
  -1.230014e+02   1.493818e+02
  -8.061502e+01   3.895740e+01
  -5.366661e-01   2.532748e+01
   8.560723e+00  -9.976304e+00
  -1.915716e+01  -4.547721e+01
  -8.321558e+01  -5.332307e+01
  -8.546095e+01  -7.136476e+01
   5.199565e+01  -1.488328e+02
   2.000770e+02  -1.643659e+02
   2.615947e+02   1.779751e+01
   2.832825e+02   1.158628e+02
   5.704297e+01   2.817338e+02
  -1.161601e+02   1.626732e+02
  -1.265948e+02   4.912141e+01
  -6.488668e+01  -5.382940e+01
  -3.270037e+01  -4.200370e+01
  -1.254648e+02   2.513452e+01
  -6.405755e+01  -9.573195e+00
  -1.829069e+00  -3.565702e+01
   5.723086e+01  -7.246163e+01
   9.074592e+01  -1.028940e+02
   1.711965e+01   5.264531e+00
  -3.530985e+01   1.696307e+02
  -1.455937e+02   6.423354e+01
  -1.903534e+02  -4.253911e+01
  -6.811889e+01  -2.048241e+02
   1.106281e+02  -2.549497e+02
   2.369121e+02  -1.135486e+02
   2.977847e+02   7.923665e+01
   1.234332e+02   1.480655e+02
  -7.984882e+01   1.518481e+02
  -1.541194e+02   7.794087e+01
  -7.512538e+01   8.700384e+01
  -2.870421e+01   6.324391e+01
  -7.521547e+01   4.688235e+01
  -1.445552e+02  -5.129902e+01
  -1.364706e+02  -1.746334e+02
  -1.150519e+01  -1.916513e+02
   1.076275e+02  -1.724081e+02
   1.569890e+02  -4.006998e+01
   1.219562e+02   1.056762e+02
   6.013216e+00   1.462496e+02
  -7.458761e+01   8.589436e+01
  -2.496837e+01   6.991507e+00
   1.452411e+01   9.514446e+00
  -6.444686e+00   1.312650e+01
  -4.423347e+01   1.140701e+01
  -7.298738e+01  -1.161348e+01
  -5.928831e+01  -2.125043e+01
   3.955886e+01  -6.968957e+01
   1.384037e+02   9.420265e-01
   1.000642e+02   4.626256e+01
   1.091083e+01   1.284850e+02
  -1.167477e+02   9.065988e+01
  -1.926566e+02   4.416070e+01
  -3.793700e+01  -8.474721e+01
   1.061951e+02  -4.912546e+01
   1.069512e+02   3.801559e+01
   4.809097e+01   4.567462e+01
  -4.578939e+01   1.593053e+01
  -2.710114e+01  -1.478510e+01
  -8.069351e+01  -4.029251e+01
  -6.441680e+01  -8.432403e+01
  -2.688474e+01   3.488213e+01
  -8.534720e+01   9.380263e+01
  -6.158539e+01  -5.391151e+01
   4.121029e+01  -1.230419e+02
   1.645075e+02  -1.589663e+02
   2.039335e+02  -2.631707e+01
   1.205639e+02   7.443602e+01
  -7.641624e+00   1.660031e+02
  -8.335294e+01   6.086432e+01
  -6.462742e+01  -2.668404e+01
   1.027045e+02  -4.737474e+01
   1.386040e+02   2.448844e+01
   3.619493e+01   1.195383e+02
  -4.013623e+01   1.538873e+02
  -1.769709e+02   1.041619e+02
  -1.732035e+02  -6.698436e+01
  -3.299413e+01  -1.397934e+02
   9.092793e+01  -9.823565e+01
   3.431224e+01  -1.924668e+00
  -5.386741e+01   2.942588e+01
  -6.449932e+01   3.318461e+00
  -8.004094e+01  -1.010875e+02
   6.134060e+01  -1.651640e+02
   2.314231e+02  -5.264891e+01
   1.754156e+02   1.393609e+02
   7.077923e+00   2.538139e+02
  -5.277487e+01   1.451232e+02
  -9.080223e+01  -1.296098e+01
  -7.986301e+01  -1.264854e+02
  -8.809258e+00  -1.049900e+02
   4.393266e+01  -6.835337e+00
   6.210291e+01   5.919571e+01
   2.089745e+01   2.833930e+00
   4.911603e+01  -2.490204e+01
   2.571195e+00  -6.076243e+00
   7.084175e+01   7.777019e+01
   6.142936e+01   1.323977e+02
  -4.498789e+01   6.264008e+01
  -1.055160e+02   1.656288e+01
  -9.864484e+01  -2.138543e+01
  -5.320188e+01  -2.579280e+01
   8.352302e+01  -3.993482e+00
   9.278288e+01  -3.068628e+01
  -1.184747e+01  -3.055787e+01
  -9.614504e+01   9.509152e+00
  -3.868342e+01   1.981987e+01
  -5.837754e+00   6.314732e+01
  -2.335679e+01   1.150332e+01
  -9.864619e+01  -2.018721e+01
  -1.198914e+02  -3.932444e+01
  -3.870720e+01  -1.150789e+02
   1.018868e+02  -1.244496e+02
   2.082218e+02  -8.938240e+01
   1.157383e+02   7.516559e+01
   3.848763e+01   1.075513e+02
  -4.609651e+01   1.374228e+02
  -1.188632e+02   4.748877e+01
  -7.365196e+01  -2.531811e+01
  -5.968080e+00  -3.363621e+01
   1.724166e+01  -1.723304e+01
   1.025680e+01   1.844047e+01
  -1.473298e+01  -8.923270e+01
  -1.372143e+01  -1.351139e+02
   1.109909e+01  -5.383594e+01
   1.075072e+02   1.376197e+01
   1.369762e+02   9.703720e+01
  -3.524915e+01   1.135138e+02
  -1.255940e+02   1.846611e+01
  -1.190220e+02  -9.016986e+01
   2.378178e+01  -1.090793e+02
   8.092431e+01  -3.718854e+01
   1.122492e+02   1.866090e+00
  -7.833919e+00   3.607053e+01
  -5.148566e+01   3.280222e+01
  -2.721311e+01   5.380249e+00
   3.452277e+00   3.060301e+00
   5.743488e+01   1.324386e+01
   2.518313e+01   1.076926e+01
  -7.707411e+01   7.428592e+01
  -1.139156e+02   6.243650e+01
  -7.997506e+01  -3.704555e+01
   1.845257e+01  -6.407116e+01
   6.802946e+01  -3.441038e+01
   4.298970e+01  -6.307906e+00
  -3.857455e+01   1.075726e+01
  -5.316242e+01   3.764993e+00
  -2.021187e+01  -1.628702e+01
   2.245403e+00  -6.315067e+01
  -2.627260e+01  -5.230618e+01
   4.049928e+01   4.195190e+01
   7.696774e+01   7.832925e+01
   6.321191e+01  -7.269019e+00
   5.151997e+00  -1.405508e+01
  -3.713212e+00  -1.051639e+01
   4.197612e+00   2.897614e+01
  -2.926460e+01   5.844228e+01
  -4.831663e+01   2.040530e+01
  -3.527348e+01  -6.353446e+01
   1.289713e+01  -1.392593e+01
   3.024271e+01   4.132300e+00
   1.907611e+01   6.701232e+01
   2.116724e+01   2.813085e+01
  -4.565130e+01  -1.602735e+01
  -4.749498e+01   1.067114e+00
  -2.423294e+01  -4.824849e+01
  -9.715620e+00  -1.928264e+01
   9.323313e+01  -6.537855e+00
   4.340036e+01  -3.302143e+01
  -4.314470e+01  -6.566707e+00
  -2.740952e+01  -4.892745e-01
   4.112617e+01  -1.307762e+01
   8.685608e+01  -5.622869e+01
