
 $NMID
 id='ANONYMOUS ', fmtdat='(2E16.6)'
 volume=1.0
 tramp=1.0
 $END
   3.026437e+03   3.571143e+02
   2.186882e+03   1.665650e+03
   1.332812e+02   1.989167e+03
  -1.034240e+03   1.266021e+03
  -8.718590e+02   2.263726e+02
   1.792362e+01  -1.075834e+02
   3.417653e+02   2.244068e+02
   1.853936e+01   5.189780e+02
  -3.638919e+02   5.026090e+02
  -6.739715e+02   8.775283e+01
  -3.732026e+02  -5.802048e+02
  -2.657669e+01  -7.280007e+02
   3.321027e+02  -2.376154e+02
   2.260676e+02   5.101438e+02
  -1.391006e+02   5.706897e+02
  -3.271945e+02   5.697094e+01
  -2.236366e+02  -5.677973e+02
   1.047786e+02  -7.022061e+02
   4.296756e+02  -2.173422e+02
   4.688151e+02   1.633316e+02
   2.106964e+02   3.367403e+02
  -8.652475e+01   2.925271e+02
   3.947107e+00   1.318864e+02
   1.345132e+02   1.125147e+02
   2.250250e+02   2.114227e+02
  -2.962316e+01   3.671006e+02
  -4.774347e+02   1.335824e+02
  -5.735236e+02  -1.593366e+02
  -2.858665e+02  -3.965696e+02
   3.806131e+02  -2.192675e+02
   5.300635e+02   1.571700e+02
   2.307609e+02   3.596189e+02
  -2.399072e+02   4.109379e+02
  -4.773715e+02   4.200973e+01
  -3.137126e+02  -1.810156e+02
  -8.035918e+01  -2.844815e+02
   1.062776e+01  -1.444884e+02
  -4.555817e+01   9.002107e+01
  -1.769413e+02   1.677939e+02
  -1.914150e+02  -1.100755e+02
   4.037828e+01  -5.166167e+02
   2.684771e+02  -3.989688e+02
   3.135147e+02   2.877232e+01
   6.489989e+01   3.304298e+02
  -1.596567e+02   1.016373e+02
  -1.405455e+02  -2.896426e+02
   1.853032e+02  -3.826109e+02
   4.177285e+02  -7.537999e+00
   4.957040e+02   4.346477e+02
   1.127315e+02   5.092345e+02
  -3.316665e+02   2.808531e+02
  -5.356780e+02  -7.491532e+01
  -3.451154e+02  -3.114967e+02
   3.714402e+01  -2.508615e+02
   2.382568e+02  -4.868896e+01
   2.047149e+02   3.420058e+01
   1.300386e+01   3.573019e+01
  -4.444317e+01  -5.253162e+01
   1.344199e+02  -9.605241e+01
   2.052585e+02  -1.685339e+01
   1.420189e+02   2.169048e+02
  -1.528570e+02   2.844059e+02
  -3.290313e+02   1.919182e+02
  -2.840033e+02  -1.258466e+02
  -8.763590e+00  -3.435869e+02
   2.476858e+02  -4.111618e+02
   3.279520e+02  -1.772292e+02
   2.530287e+02   1.582941e+02
   3.939538e+01   4.020154e+02
  -3.858897e+01   3.602147e+02
  -8.369451e+01   1.173926e+02
  -6.932745e+01   6.896699e+01
  -1.168337e+02   6.718981e+01
  -2.133894e+02   2.163594e+01
  -2.093149e+02  -1.371108e+02
  -8.029293e+01  -2.770100e+02
   8.813743e+01  -1.655866e+02
   2.076463e+02   6.893768e+01
   1.223726e+02   2.713520e+02
   1.787636e-01   2.555945e+02
  -2.832646e+02   6.479452e+01
  -3.174530e+02  -1.282206e+02
  -1.936751e+02  -2.980531e+02
   3.242758e+00  -2.773594e+02
   1.693218e+02  -1.704101e+02
   1.728383e+02  -1.469626e+02
   1.749261e+02  -9.440462e+01
   3.220538e+02  -1.681844e+01
   3.305646e+02   1.201546e+02
   2.944236e+02   2.998777e+02
  -4.213427e+01   4.091052e+02
  -3.744528e+02   3.647619e+02
  -4.816252e+02   1.776332e+02
  -3.137482e+02  -7.245783e+01
  -3.592836e+01  -3.149190e+02
   7.877344e+01  -2.481419e+02
   6.216239e+01  -6.557273e+01
  -9.995376e+01   1.320680e+01
  -1.156355e+02  -4.078044e+01
   9.025293e+00  -1.131709e+02
   1.082439e+02  -8.179578e+01
   1.276701e+02   8.571440e+01
  -3.638232e+01   1.121739e+02
  -1.372213e+02   2.761520e+01
  -1.341106e+02  -2.402577e+02
   1.678903e+00  -3.355828e+02
   2.040905e+02  -1.837621e+02
   3.412842e+02   7.883503e+01
   2.447402e+02   2.727622e+02
   4.151329e+01   2.632217e+02
  -1.174588e+02   1.390443e+02
  -1.412266e+02  -3.627154e+01
  -6.338416e+01  -7.066927e+01
   4.495356e+01   4.089219e+01
   4.019305e+00   1.587063e+02
  -9.403828e+01   5.579445e+01
  -1.280226e+02  -1.326529e+01
  -2.410649e+01  -4.577088e+01
   8.367048e+01  -4.509831e+01
  -1.649966e+01   1.272058e+02
  -1.604732e+02   6.524937e+01
  -3.185663e+02  -2.198203e+01
  -2.134047e+02  -1.375989e+02
  -4.289736e+01  -2.437077e+02
   1.879020e+02  -2.392071e+02
   2.355513e+02  -8.795208e+01
   1.142151e+02   3.211568e+01
   1.222111e+01   4.419644e+01
  -2.879319e+01   9.816807e+00
   5.563887e+01  -7.280228e+01
   1.502994e+02  -5.871557e+01
   1.534776e+02   1.398279e+02
   4.983098e+01   1.611958e+02
  -8.904490e+01   9.889977e+01
  -1.363183e+02   3.684631e+01
  -4.469806e+01  -9.485037e+01
   6.292788e+01   3.996651e+01
   1.099219e+01   1.280811e+02
  -1.139221e+02   1.319536e+02
  -2.323076e+02  -3.393776e+01
  -1.885139e+02  -1.382522e+02
   1.662661e+01  -2.253470e+02
   1.559352e+02  -1.666610e+02
   1.977120e+02  -2.721373e+01
   9.072509e+01   7.018093e+01
  -6.644610e+01   1.322686e+02
  -6.571798e+01   4.588450e+01
   2.515285e+00  -2.259459e+01
   4.627742e+01   5.440239e+00
  -4.796923e+01   4.754539e+01
  -9.040428e+01  -1.180516e+00
  -1.186024e+02  -9.176099e+01
  -1.582080e+01  -1.243611e+02
   1.175022e+02  -1.443645e+02
   2.216473e+02  -3.172879e+01
   2.107588e+02   1.615910e+02
   6.317736e+01   2.386215e+02
  -7.205254e+01   1.468114e+02
  -1.280719e+02   5.594447e+01
  -4.409202e+01  -1.646484e+01
  -5.143349e+01  -3.436631e+00
  -8.744673e+01   2.201889e+01
  -7.320129e+01   5.183265e+00
  -4.935960e+01  -2.159354e+01
   2.600104e+01  -7.564856e+01
   9.882229e+01  -8.030017e+01
   9.303453e+01   9.011535e+00
  -3.187425e+01   1.283041e+02
  -1.780035e+02   1.140697e+02
  -2.219257e+02  -9.137529e+01
  -8.791059e+01  -2.091408e+02
   1.538118e+02  -1.560331e+02
   2.534308e+02  -7.150346e+01
   2.559506e+02   5.026729e+01
   4.508891e+01   1.644323e+02
  -8.460973e+01   1.445419e+02
  -8.631462e+01   6.990265e+01
  -6.288525e+01   7.798341e+01
  -7.483246e+01   1.297869e+02
  -1.342422e+02   6.812115e+01
  -1.546974e+02  -4.391688e+01
  -1.114268e+02  -1.274855e+02
  -4.147635e+01  -2.116454e+02
   7.054131e+01  -1.545845e+02
   1.061099e+02  -4.115031e+01
   1.242788e+02   1.161306e+02
   5.627733e+00   1.228373e+02
  -5.816260e+01   5.116622e+01
  -1.628652e+01  -1.000075e+01
   6.001578e-01  -4.090528e+01
   1.533837e+01  -2.522620e+01
  -3.788088e+01   7.737385e+00
  -7.060517e+01  -3.459761e+01
  -7.047523e+01  -5.756733e+01
   7.361714e+01  -6.555324e+01
   1.372807e+02   6.574838e-01
   1.295979e+02   1.137305e+02
   2.526286e+01   7.847918e+01
  -1.444988e+02   8.748482e+01
  -1.469226e+02  -1.538174e+01
  -4.246041e+01  -4.821661e+01
   4.946610e+01  -2.492218e+00
   7.852408e+01  -1.700326e+01
   1.472043e+00   1.012678e+02
  -4.851658e+01   7.365448e+01
  -5.532699e+01  -1.402328e+01
  -5.068504e+01  -6.619792e+01
  -6.230837e+01  -8.969981e+01
  -3.918298e+01   1.868049e+01
  -5.740846e+01   4.966242e+00
  -2.751410e+01  -5.271278e+01
   7.432004e+01  -1.888916e+02
   1.225211e+02  -1.518581e+02
   1.858071e+02  -4.303195e+01
   9.331556e+01   1.428423e+02
   1.555547e+01   1.720986e+02
  -1.296837e+02   9.905759e+01
  -8.105661e+01  -1.585606e+01
  -4.404734e-01  -3.241318e+01
   7.909719e+01  -1.810678e+01
   5.118966e+00   7.557027e+01
  -1.139179e+02   7.860963e+01
  -1.511793e+02   3.825457e+01
  -1.399528e+02  -5.439892e+01
  -2.022148e+01  -6.895559e+01
   9.160970e+01  -9.124080e+01
   6.513836e+01  -8.878018e+00
  -4.817066e+01   6.036713e+01
  -1.500648e+02  -1.388705e+01
  -8.291725e+01  -8.621867e+01
   7.915843e+01  -1.664774e+02
   1.979413e+02  -8.446027e+01
   1.474747e+02   7.154520e+01
   3.601036e+01   2.270071e+02
  -6.467842e+01   1.292855e+02
  -7.033236e+01   3.461136e+01
  -6.076350e+01  -1.066448e+02
  -4.041816e+01  -7.228949e+01
  -4.732945e+00  -3.212003e+01
   3.142634e+01  -7.211269e+00
   2.143537e+01  -3.149758e+01
   2.074866e+01  -9.712576e+00
   4.328742e+01   2.110299e+01
   7.655838e+01   1.171353e+02
   1.762842e+01   8.811602e+01
  -9.492974e+01   5.198907e+01
  -1.483306e+02  -1.100691e+01
  -9.733441e+01  -8.583919e+01
   2.696292e+01   4.983173e-01
   2.174565e+01  -5.765634e+00
   7.372973e+01   2.857729e+01
  -5.649559e+01   7.673585e+01
  -6.166671e+01  -1.403200e+01
  -2.582929e+01   6.078248e+00
  -1.123989e+01  -2.655305e+01
   1.645000e+01   2.550055e+01
  -4.175192e+01   3.790835e+01
  -9.880743e+01   1.224353e+01
  -3.121460e+01  -5.038752e+01
   5.325227e+01  -9.105891e+01
   1.815934e+02  -6.855076e+01
   1.222327e+02   6.019970e+01
   3.746793e+01   1.092061e+02
  -5.235727e+01   1.822534e+02
  -9.980600e+01   6.225333e+01
  -9.828298e+01  -2.839689e+01
  -4.607380e+01  -6.683663e+01
  -7.393831e+00  -5.530988e+01
  -1.209434e+01  -1.207951e+01
  -4.118091e+01  -1.807190e+01
  -3.460790e+01  -5.741143e+01
   1.632361e+01  -1.328334e+02
   7.898810e+01  -8.347490e+00
   9.389385e+01   2.577479e+01
   1.375877e+01   7.911831e+01
  -5.205074e+01   4.614387e+01
  -1.336058e+02  -7.612956e+01
  -1.739446e+01  -5.908587e+01
   7.148653e+01  -5.401528e+01
   1.100215e+02   2.932019e-01
   7.359165e+00   6.112166e+01
  -3.665587e+01   5.583898e+01
  -1.874772e+01   1.689216e+01
   2.810273e+01  -3.943264e+01
   7.811173e+01   2.363969e+01
   7.786970e+00   3.868493e+01
  -5.427060e+01   5.314974e+01
  -8.803494e+01   8.454542e+01
  -5.936256e+01   1.214870e+01
   3.412102e+01  -4.585326e+01
   5.191947e+01  -1.011962e+02
   4.271322e+01  -3.001327e+01
   6.144555e+00   3.686659e+01
  -2.768459e+01   2.986079e+01
   1.182478e+00  -2.591021e+01
  -1.136695e+01  -5.788066e+01
  -1.689771e+01  -4.410237e+01
   1.907104e+01  -4.283353e+01
   3.260018e+01   3.800795e+01
  -3.275235e+00  -7.040905e+00
   1.385633e+01  -3.997159e+01
   5.442611e+00   7.980299e+00
   1.768212e+01   2.843438e+01
   4.097083e+01   6.372243e+01
  -3.583498e+01  -9.835650e+00
  -2.191267e+01  -4.481477e+01
  -6.188556e+00  -4.713423e+01
   3.023681e+01  -5.952905e+01
   9.231324e+01   1.406274e+01
  -3.814834e+00   6.424289e+01
  -2.310556e+01   1.375861e+01
  -1.019621e+02  -3.896916e+01
  -3.807791e+01  -4.620199e+01
   1.630062e+01  -4.777217e+01
   9.224267e+01   1.137515e+01
   4.009688e+01   2.229330e+00
  -3.135791e+01   7.698636e+01
  -3.069901e+01   2.317206e+01
   6.844273e+01  -3.524615e+01
   5.354250e+01  -3.347550e+01
