
 $NMID
 id='ANONYMOUS ', fmtdat='(2E16.6)'
 volume=1.0
 tramp=1.0
 $END
  -4.148493e+03  -7.546942e+00
  -2.432742e+03  -2.356965e+03
   4.451029e+02  -2.583527e+03
   1.633365e+03  -1.178972e+03
   9.234570e+02   1.104946e+02
  -2.363717e+02   2.970918e+02
  -6.284356e+02  -2.582090e+02
  -6.133145e+01  -8.059370e+02
   6.640463e+02  -6.970925e+02
   8.251057e+02   4.278854e+01
   5.480992e+02   6.732265e+02
  -2.156855e+02   8.844234e+02
  -4.679018e+02   1.612840e+02
  -2.838827e+02  -5.606850e+02
   1.750032e+02  -6.563614e+02
   4.730934e+02  -6.879493e+01
   2.516437e+02   5.916583e+02
  -1.843051e+02   6.364151e+02
  -5.660115e+02   1.093362e+02
  -3.879495e+02  -2.948673e+02
  -1.020994e+02  -4.373904e+02
   1.515040e+02  -2.254545e+02
   1.160763e+02  -7.225717e+01
  -1.732781e+02  -5.415072e+01
  -3.481935e+02  -2.091292e+02
  -9.667015e+01  -5.101338e+02
   4.108063e+02  -2.483371e+02
   7.671310e+02   1.670146e+02
   3.998970e+02   4.233446e+02
  -2.983068e+02   3.264380e+02
  -6.702923e+02  -2.993785e+01
  -2.190392e+02  -4.177674e+02
   3.164647e+02  -4.521879e+02
   4.438872e+02  -1.881159e+02
   3.838276e+02   2.437887e+02
   5.585908e+01   4.058279e+02
  -8.923906e+01   2.450953e+02
  -4.063904e+01  -7.112200e+01
   1.389297e+02  -2.526366e+02
   2.933295e+02   1.059174e+02
   1.529865e+02   6.145654e+02
  -2.161771e+02   6.043313e+02
  -4.999388e+02   2.357728e+01
  -2.573042e+02  -4.754865e+02
   1.673062e+02  -3.060289e+02
   2.879715e+02   2.763880e+02
  -7.530208e+01   4.575024e+02
  -5.116739e+02   1.110823e+02
  -5.568488e+02  -3.740315e+02
  -1.813700e+02  -5.335744e+02
   3.324746e+02  -3.199756e+02
   5.948212e+02   6.174730e+00
   3.883115e+02   2.600908e+02
  -4.936652e+01   3.175223e+02
  -3.430966e+02   1.498277e+02
  -2.311949e+02  -6.317000e+01
   1.140521e+01  -9.048010e+01
   6.187685e+01   3.998720e+01
  -1.366907e+02   1.249777e+02
  -3.122877e+02  -6.676803e+01
  -1.827936e+02  -2.867117e+02
   2.054113e+02  -2.755970e+02
   4.227972e+02  -1.238432e+02
   2.682800e+02   1.107720e+02
  -9.292238e+01   2.852279e+02
  -3.466394e+02   3.430889e+02
  -3.868943e+02   1.861658e+02
  -2.899615e+02  -1.833800e+02
  -4.539792e+01  -4.566706e+02
   7.615696e+01  -4.388911e+02
   5.092646e+01  -1.665561e+02
   8.398963e+01  -4.916459e+01
   1.413473e+02  -1.040618e+02
   2.393511e+02  -7.492307e+01
   3.004905e+02   1.222090e+02
   1.472241e+02   3.221735e+02
  -5.906630e+01   1.922119e+02
  -2.313077e+02  -2.552954e+01
  -1.761702e+02  -2.433093e+02
   6.724000e+00  -2.758550e+02
   2.000780e+02  -4.670823e+01
   3.606584e+02   1.577304e+02
   2.096117e+02   3.120045e+02
  -2.841062e+01   2.932711e+02
  -1.975716e+02   1.525543e+02
  -1.911849e+02   9.399563e+01
  -1.714891e+02   3.204459e+01
  -2.594797e+02   3.778885e+01
  -4.073514e+02  -7.605312e+01
  -3.628276e+02  -2.989190e+02
   1.611210e+01  -4.542387e+02
   4.174552e+02  -4.273148e+02
   5.005535e+02  -1.899121e+02
   3.040889e+02   7.027578e+01
   2.924443e+01   2.611616e+02
  -6.079810e+01   2.454005e+02
  -2.152936e+01   4.505495e+01
   7.242555e+01  -8.647349e+01
   1.327723e+02   3.603357e+01
   6.587269e-01   1.045034e+02
  -9.449565e+01   1.306298e+02
  -8.594439e+01  -5.185707e+01
   2.176323e+01  -1.606678e+02
   1.712531e+02   1.781377e+01
   1.787825e+02   2.023068e+02
   1.380543e+01   2.974683e+02
  -2.344421e+02   1.870726e+02
  -3.255908e+02  -8.796505e+01
  -2.904120e+02  -2.004355e+02
  -8.396086e+01  -2.204556e+02
   1.056185e+02  -1.240484e+02
   1.196111e+02  -2.286350e+01
   3.090549e+01   2.659230e+01
  -3.229977e+01  -6.137254e+01
  -1.499494e+01  -1.228258e+02
   1.617045e+02  -6.161201e+01
   1.698061e+02   9.848964e+00
   1.635930e+01   7.046863e+01
  -7.905734e+01   2.357785e-02
  -5.928122e+01  -8.754254e+01
   1.379231e+02  -1.038425e+02
   3.360080e+02  -2.197292e+01
   2.657513e+02   1.784903e+02
   5.289097e+01   2.772642e+02
  -1.569471e+02   2.089491e+02
  -2.735321e+02   7.446044e+01
  -1.496092e+02  -6.601225e+01
   1.479469e+01  -1.109269e+02
   9.467941e+01   6.113974e+01
  -3.180876e+01   8.411891e+01
  -1.402894e+02   5.023400e+01
  -2.073913e+02  -9.568174e+01
  -5.994903e+01  -2.099899e+02
   6.063769e+01  -1.573416e+02
   1.341059e+02  -3.522396e+01
   4.551208e+01   6.950834e+01
  -4.900507e+01  -2.038509e+01
  -5.126496e+01  -5.053458e+01
   1.126410e+02  -1.413173e+02
   1.918688e+02  -5.360189e+01
   2.289055e+02   9.259819e+01
   1.562743e+00   2.146773e+02
  -1.455649e+02   1.461385e+02
  -1.907551e+02   8.227136e+00
  -2.128069e+01  -1.018012e+02
   9.141650e+01  -1.174942e+02
   1.041693e+02  -3.469332e+01
   2.854097e+01   2.233049e+01
  -3.964347e+01  -2.810063e+01
  -4.984429e+01  -3.468538e+01
   2.928143e+01   1.394055e+01
   9.161626e+01   9.524898e+01
  -1.199803e+01   1.502063e+02
  -1.442571e+02   1.475119e+02
  -2.348345e+02   3.134428e+00
  -2.033183e+02  -1.657142e+02
  -6.788105e+01  -2.419516e+02
   1.354391e+02  -1.825206e+02
   1.108291e+02  -2.813487e+01
   8.641982e+01   4.178967e+01
   4.980542e+01  -1.313001e+01
  -1.905895e+01   2.034885e+01
   8.891460e+01  -1.631351e+01
   1.008295e+02   4.902558e+01
   1.250880e+00   1.063292e+02
  -8.889365e+01   9.360469e+01
  -9.247136e+01  -3.010983e+01
  -3.207267e+01  -9.014060e+01
   1.600000e+02  -6.720436e+01
   2.154184e+02   5.121614e+01
   1.114990e+02   2.127654e+02
  -1.411195e+02   1.806825e+02
  -2.800401e+02   8.273592e+01
  -2.283766e+02  -1.075623e+02
  -8.460760e+01  -1.794336e+02
   4.304438e+01  -9.678475e+01
   7.158812e+01  -8.097638e+00
   7.034335e+01  -4.891794e+01
   1.124297e+01  -1.155375e+02
   7.335126e+01  -8.766508e+01
   1.025272e+02  -2.401343e+01
   1.455397e+02   1.357835e+02
   7.154998e+01   2.230984e+02
  -6.279701e+01   1.415986e+02
  -1.745174e+02   1.353164e+01
  -1.191489e+02  -1.245145e+02
   1.814724e+01  -1.625267e+02
   9.172600e+01  -7.060698e+01
   1.084950e+02  -6.103653e+00
  -1.336736e+00   4.144280e+01
  -6.864408e+01   5.541774e+00
   5.932220e+01  -3.684689e+00
   8.190678e+01   1.548975e+01
   4.115291e+01   7.671052e+01
  -7.469547e+01   5.298672e+01
  -1.861842e+02  -1.956097e-01
  -1.245153e+02  -3.763961e+01
   4.501720e+01  -8.274747e+01
   1.074857e+02  -8.343394e+01
   1.194068e+02   3.143842e+01
   4.238450e+01   5.404857e+01
  -8.187082e+01  -4.548798e+00
  -1.363555e+02  -4.396526e+01
   5.904394e+00  -1.214612e+02
   9.051062e+01  -9.568702e+01
   9.383229e+01  -2.371073e+01
   8.934471e+01   7.321070e+01
   7.704876e+00   5.408829e+01
   8.806636e+01  -4.890841e-01
   6.145593e+01   7.721852e+00
   3.927895e+01   5.078030e+01
   1.598367e+01   1.643245e+02
  -1.352957e+02   1.647228e+02
  -1.828611e+02   6.161791e+01
  -1.790366e+02  -6.130380e+01
  -5.642204e+00  -1.164935e+02
   7.055326e+01  -7.672437e+01
   1.323097e+02   2.015286e+01
  -4.120847e+01   2.793208e+01
  -1.708553e+02  -5.662961e+01
  -1.205124e+02  -5.057715e+01
   9.477870e+01  -1.178534e+02
   1.764902e+02  -3.020837e+01
   1.981357e+02   4.089225e+01
   4.428496e+01   6.080334e+01
  -5.603381e+01   7.435547e+01
  -5.475670e+01  -1.142245e+01
   2.311999e+01  -1.696999e+01
   8.099301e+01   7.960186e+01
   3.175777e+01   1.493067e+02
  -7.160425e+01   1.165181e+02
  -1.841049e+02   5.023075e+01
  -1.412715e+02  -1.185811e+02
  -2.950540e+01  -2.224056e+02
   1.002193e+02  -1.580082e+02
   1.013138e+02   2.080257e+01
   3.083735e+01   1.342480e+02
  -4.028481e+01   7.132413e+01
  -4.562015e+01   4.924737e+01
   2.383555e+01  -1.619693e+01
   5.066642e+01  -1.780094e+01
   9.515505e-01   2.023413e+01
  -2.509368e+01  -1.952774e+01
  -6.610211e+01  -8.399167e+01
  -6.185773e+01  -1.206431e+02
   4.923006e+01   6.996562e+00
   1.262474e+02   4.109395e+01
   1.458647e+02   6.456440e+01
  -2.397179e+01   6.349251e+01
  -1.181786e+02  -5.050536e+01
  -1.290006e+02  -3.552033e+01
  -1.644493e+01  -3.158611e+01
   6.977839e+01   3.578944e-01
   6.526293e+01  -1.996593e+01
  -2.102471e+01   2.971474e+01
  -2.708146e+01  -9.307431e+00
   8.079584e+01  -4.336941e+01
   7.888147e+01   2.002451e+01
   1.890251e+01   1.113941e+02
  -9.015384e+01   1.113221e+02
  -1.947565e+02   4.042002e+01
  -2.125005e+02  -5.554020e+01
  -2.019778e+01  -1.553989e+02
   1.160188e+02  -1.861045e+02
   1.190029e+02  -4.241888e+01
   1.214838e+02   4.738426e+01
  -5.756526e+00   5.345979e+01
   2.642558e+01  -4.440655e+00
   1.277993e+01   3.270826e+00
   3.267400e+01   2.393669e+01
   4.144573e+01   1.274838e+02
  -2.808039e+01   5.652765e+01
  -1.325480e+02   1.372371e+01
  -9.197148e+01  -1.029197e+02
  -6.614517e+01  -1.092940e+02
   4.776193e+01  -3.143899e+01
   8.493470e+01   8.224660e+01
   4.115328e+01   9.144798e+01
  -4.293751e+01   8.456353e+01
  -1.438618e+02   6.270410e+00
  -3.258886e+01  -7.757883e+01
   4.484557e+01  -1.281608e+02
   4.275885e+01  -6.510275e+01
   4.221507e+00  -1.616957e+01
  -5.232330e+01   3.719363e+00
  -6.063751e+00  -3.945892e+01
   8.279548e+01  -5.395694e+01
   1.015214e+02  -5.709214e+01
   5.717533e+01   3.814712e+01
  -4.300053e+01   6.934264e+01
  -1.113296e+02   1.132045e+02
  -6.743695e+01   2.966354e+01
   5.546471e+00  -4.689815e+01
   3.545094e+01  -5.350406e+01
   5.818579e+00  -8.370601e+00
   3.462769e+01   3.896356e+01
  -9.605136e+00   4.156831e+01
  -5.347604e+01  -1.515471e+01
  -8.251009e+01  -1.573615e+01
  -3.481503e+01   3.663861e+01
   2.558158e+01   1.959363e+01
  -2.582133e+01   1.225593e+00
  -2.100349e+01  -2.060119e+01
  -2.895283e+01  -6.570877e+01
   9.726365e-01  -1.852644e+01
   3.556582e+01   5.059265e+01
  -6.871395e+00   2.617288e+01
  -4.573513e+01   3.682829e+01
  -5.553641e+01  -2.333034e+01
  -5.615648e+01  -7.344367e+01
   6.635704e+01  -7.593414e+01
   1.485507e+02  -2.401452e+01
   5.756117e+01   3.372383e+01
  -5.823780e+01  -1.616040e+00
  -9.369995e+01   3.070091e+01
  -3.292184e+01   3.875633e+01
   3.465523e+01  -1.171570e+01
   2.595422e+01   2.442445e+01
   1.362879e+00   6.334554e+01
  -9.331226e+01   4.668856e+01
