
 $NMID
 id='ANONYMOUS ', fmtdat='(2E16.6)'
 volume=1.0
 tramp=1.0
 $END
  -4.813396e+03  -2.709789e+02
  -2.629912e+03  -2.645392e+03
   8.522234e+02  -2.817143e+03
   2.311009e+03  -8.323063e+02
   1.005656e+03   6.238311e+02
  -7.469406e+02   7.007730e+02
  -1.036696e+03  -4.314132e+02
  -2.633983e+01  -1.208195e+03
   8.643218e+02  -7.907053e+02
   9.613199e+02  -2.785121e+00
   4.333642e+02   9.104402e+02
  -1.677968e+02   9.906013e+02
  -6.531470e+02   5.186165e+01
  -4.216960e+02  -7.202215e+02
   2.089990e+02  -7.018060e+02
   5.411359e+02  -5.820733e+00
   3.101209e+02   7.037046e+02
  -3.437400e+02   5.913357e+02
  -6.485768e+02   5.268881e+01
  -4.373147e+02  -3.919665e+02
  -1.550492e+01  -5.010947e+02
   3.402431e+02  -3.190188e+02
   1.934716e+02  -2.047077e+01
  -1.265667e+02   1.709743e+02
  -4.391620e+02  -9.640318e+01
  -1.927318e+02  -3.855005e+02
   4.870232e+02  -4.696118e+02
   8.628714e+02   9.329019e+00
   4.450819e+02   5.428716e+02
  -4.392041e+02   5.376746e+02
  -8.031335e+02   2.870013e+00
  -3.464161e+02  -5.018231e+02
   3.362104e+02  -5.394037e+02
   5.938986e+02  -1.967972e+02
   3.892716e+02   2.283947e+02
   4.355443e+01   5.656050e+02
  -2.242990e+02   3.808466e+02
  -2.212589e+02  -2.234105e+02
   1.182475e+02  -4.888342e+02
   4.525637e+02  -3.226977e+01
   2.490041e+02   6.618226e+02
  -2.672979e+02   7.357136e+02
  -5.779966e+02   4.547900e+01
  -2.914823e+02  -5.739336e+02
   3.233500e+02  -3.142928e+02
   4.229942e+02   3.632889e+02
  -2.455928e+01   6.059692e+02
  -5.555626e+02   2.114590e+02
  -5.845072e+02  -4.205491e+02
  -2.024160e+02  -5.262338e+02
   3.421022e+02  -3.396770e+02
   6.001954e+02   1.113817e+02
   3.536075e+02   3.787116e+02
  -1.722630e+02   3.887400e+02
  -4.840775e+02   1.794391e+00
  -1.518419e+02  -2.134354e+02
   1.600330e+02  -1.258958e+02
   1.270232e+02   1.516589e+02
  -1.860459e+02   2.350044e+02
  -3.990191e+02  -5.824187e+01
  -1.605648e+02  -2.757958e+02
   2.434266e+02  -2.618710e+02
   3.651315e+02  -3.766527e+01
   2.336861e+02   7.408425e+01
   1.293302e+01   2.228836e+02
  -2.106016e+02   3.492897e+02
  -3.546589e+02   3.142518e+02
  -3.832801e+02  -6.336781e+01
  -1.055741e+02  -4.760198e+02
   1.295555e+02  -4.161763e+02
   2.041933e+02  -1.326761e+02
   8.747673e+00   2.910624e+01
  -2.488212e+01  -8.322605e+01
   1.261465e+02  -1.040737e+02
   2.928464e+02   3.825182e+01
   2.475065e+02   2.479657e+02
  -1.272716e+01   2.972806e+02
  -2.258835e+02   8.850986e+01
  -2.777918e+02  -2.092811e+02
  -6.165817e+01  -2.954059e+02
   2.179806e+02  -1.800814e+02
   3.840407e+02   1.778210e+02
   1.995061e+02   3.196162e+02
  -9.361300e+01   2.947962e+02
  -1.860312e+02   1.192000e+02
  -1.119218e+02  -2.434221e+01
  -7.411564e+01   2.111946e+01
  -2.057771e+02   1.045287e+02
  -4.106578e+02  -7.847588e+01
  -3.237939e+02  -2.605825e+02
   7.271711e+00  -4.083255e+02
   3.775113e+02  -3.973335e+02
   4.687410e+02  -1.846109e+02
   3.101361e+02   8.806522e+01
   1.804184e+01   2.903058e+02
  -1.697772e+02   2.405210e+02
  -1.097381e+02   2.786520e+01
   1.694002e+02  -9.187428e+01
   2.415062e+02  -2.030714e+01
   6.139415e+01   1.903105e+02
  -2.224204e+02   2.198430e+02
  -1.974681e+02  -4.683952e+01
   3.352561e+01  -2.574094e+02
   1.742646e+02  -7.793957e+01
   1.508297e+02   2.757887e+02
   4.541108e+01   3.692293e+02
  -1.735496e+02   1.682002e+02
  -3.027858e+02  -6.055608e+01
  -3.233324e+02  -1.894869e+02
  -1.128273e+02  -2.670178e+02
   9.565598e+01  -1.877084e+02
   1.824114e+02  -5.458732e+01
   1.271818e+02   4.292271e+01
  -1.113688e+02   1.889434e+00
  -5.044753e+01  -1.292047e+02
   7.287829e+01  -1.064266e+02
   1.492185e+02  -2.639927e+00
   6.664963e+01   1.265414e+02
  -8.450740e+01   3.232823e+01
  -4.355670e+01  -8.588988e+01
   4.742960e+01  -9.797277e+01
   2.914823e+02  -2.376985e+00
   2.578108e+02   1.534103e+02
   7.419445e+01   2.192541e+02
  -1.866885e+02   2.624609e+02
  -3.340981e+02   1.229075e+02
  -1.943351e+02  -3.661121e+00
   1.804211e+01  -1.350583e+02
   1.236882e+02  -4.212610e+01
  -7.124280e+00   1.449687e+01
  -1.722792e+02   3.500187e+01
  -1.999692e+02  -8.738876e+01
  -4.577246e+01  -1.384016e+02
   8.113290e+01  -1.642632e+02
   1.098136e+02  -1.372156e+01
   8.038029e+01   2.736531e+00
  -3.925523e+01  -1.441390e+01
  -5.545479e+01  -8.434091e+01
   9.122853e+01  -3.643206e+01
   1.800278e+02  -1.289986e+01
   1.673912e+02   1.522913e+02
   2.227653e+01   2.173617e+02
  -1.881355e+02   1.587348e+02
  -1.912535e+02   5.015301e+01
  -5.109875e+01  -8.364705e+01
   5.986677e+01  -1.158187e+02
   5.543156e+01   1.334346e+01
   1.027866e+01   3.929222e+01
  -2.678484e+01   9.205676e+00
   3.099100e+01  -1.493909e+01
   5.477060e+01   2.435658e+01
   4.647468e+01   8.643456e+01
   3.621793e+00   1.123623e+02
  -1.523989e+02   1.066918e+02
  -2.226763e+02   5.270238e+01
  -1.853259e+02  -1.366839e+02
  -8.586762e+01  -2.697744e+02
   7.540960e+01  -1.779457e+02
   1.368945e+02  -6.302966e+01
   7.188445e+01   5.565839e+01
   8.414777e+01  -8.498298e+00
   3.713472e+01   9.843865e+00
   8.012631e+01   4.024478e+00
  -5.396295e-01   6.128839e+01
  -8.766217e+01   7.373215e+01
  -1.172169e+02   4.885722e+01
  -5.165187e+01  -2.960834e+01
   1.041308e+01  -1.044700e+02
   1.538968e+02  -6.680513e+01
   2.226022e+02   4.144132e+01
   8.229627e+01   1.860052e+02
  -1.088418e+02   1.968109e+02
  -2.499924e+02   6.862922e+01
  -2.563078e+02  -8.823578e+01
  -7.214182e+01  -1.439739e+02
  -6.421421e+00  -1.410162e+02
   1.036970e+02  -5.666682e+01
   5.527291e+01  -8.089530e+01
   6.398970e+01  -8.543180e+01
   1.025859e+02  -1.167698e+02
   7.197188e+01   9.711756e+00
   1.211477e+02   1.482708e+02
   6.595211e+01   2.256999e+02
  -8.840972e+01   1.544484e+02
  -1.362451e+02   2.019898e+01
  -9.517384e+01  -1.756039e+02
  -2.261251e+01  -1.393267e+02
   7.521807e+01  -1.249608e+02
   9.518906e+01   3.930854e+01
   2.824482e+01   8.883062e+01
  -2.697844e+01   3.257723e+01
  -1.188989e+01   4.023639e+01
   1.549365e+02   6.938739e+00
   2.328673e+01   1.238183e+01
  -6.591768e+01   7.396752e+00
  -1.804810e+02  -3.554817e+01
  -1.698035e+02  -5.874388e+01
  -7.199439e-01  -5.111501e+01
   1.179371e+02  -8.343048e+01
   1.679708e+02   1.314082e+01
   4.320362e+01  -4.162932e+00
  -3.605686e+01   6.814113e+01
  -1.077765e+02  -1.546668e+01
  -5.414729e+01   7.600709e+00
   5.662911e+01  -6.633167e+01
   6.757718e+01  -2.949946e+01
   4.531331e+01   3.648094e+01
   7.667565e+01   5.404472e+01
   6.802073e+01   2.239733e+01
   6.463663e+01   1.050115e+01
   2.491634e+01   4.038570e+01
  -9.913980e+00   1.736443e+02
  -1.081383e+02   1.591488e+02
  -1.511762e+02   6.396586e+01
  -1.265467e+02  -6.474498e+01
   1.384141e+00  -1.227862e+02
   6.556229e+01  -4.883376e+01
   6.541556e+00   1.335700e+01
  -4.421494e+01   4.662747e+01
  -1.300240e+02  -4.166286e+01
  -8.772249e+01  -9.186284e+01
   3.259695e+01  -1.491457e+02
   1.670664e+02  -5.493342e+01
   1.821141e+02   3.746041e+01
   2.560799e+01   6.652530e+01
  -3.328950e+01   4.827356e+01
  -2.329864e+01  -2.895394e+01
   5.525567e+01   2.726665e+01
   9.208185e+01   3.342852e+01
  -1.681671e+01   1.219626e+02
  -7.788307e+01   1.852106e+02
  -1.615203e+02   5.768732e+01
  -1.165842e+02  -9.954293e+01
  -1.545483e+01  -2.042674e+02
   5.563268e+01  -1.615741e+02
   1.510595e+02   2.340554e+01
   4.181475e+01   1.196535e+02
  -3.549984e+01   1.483747e+02
  -3.723902e+01  -2.326775e+01
  -4.727690e+01  -2.588841e+01
  -9.939124e+00  -2.763938e+01
   3.325575e+00   5.708252e+01
  -1.385839e+01   4.478113e+00
  -1.761842e+01  -8.447946e+01
  -4.759854e+01  -9.461485e+01
   3.403324e+01   1.870796e+01
   1.113903e+02   3.219683e+01
   1.147398e+02   7.839684e+01
   3.322422e+01   2.497284e+01
  -9.566181e+01   3.180714e+01
  -1.054080e+02   2.443612e+00
  -1.989757e+01  -2.264276e+01
   4.890760e+01  -3.906972e+01
   3.234581e+00  -5.822692e+01
  -6.857810e+01  -3.917245e+01
   2.344666e+01  -1.896070e+01
   1.263139e+02   1.289826e+01
   1.553056e+02   5.929983e+01
   9.012791e+00   5.095887e+01
  -9.335595e+01   1.286895e+02
  -1.898783e+02   2.828572e+01
  -9.975328e+01  -9.612353e+01
  -1.948103e+01  -1.490710e+02
   6.996252e+01  -9.633072e+01
   1.479098e+02  -1.745053e+01
   3.213006e+01   8.553330e+00
  -1.021065e+01  -2.361389e+01
  -4.790983e+01  -1.672796e+00
   4.894455e+00  -1.706418e+01
   3.342308e+01   4.518779e+01
  -2.417476e+00   8.730852e+01
  -8.884245e+00   4.013564e+01
  -5.204120e+01   3.339650e+00
  -9.726478e+01  -1.247686e+02
   5.306235e+00  -9.339839e+01
   6.338165e+01  -2.782608e+01
   1.079860e+02   8.555428e+01
   4.749540e+01   9.611640e+01
  -3.294722e+01   4.831805e+01
  -1.031410e+02  -6.351596e+01
  -3.415288e+00  -7.089849e+01
   5.092578e+01  -1.948809e+01
   4.291623e+00  -4.185739e+01
  -1.686114e+01   3.163224e+01
  -3.588743e+01   2.860086e+01
  -6.130424e+01   2.717164e+01
   6.503987e+01  -5.105772e+01
   9.787233e+01  -3.003969e+01
   5.454101e+01   2.449198e+01
  -2.715976e+01   7.799938e+01
  -4.038025e+01   7.664600e+01
  -6.842705e+01  -8.361976e+00
   7.159057e-02  -9.122679e+01
  -2.087920e+01  -6.654078e+01
  -6.427003e+00  -3.590589e-01
   5.433395e+01   1.062063e+01
  -1.513104e+01   2.736353e+01
  -6.679894e+01  -3.077064e+01
  -6.836855e+01  -3.919381e+00
  -4.028181e+01  -1.627882e+01
  -7.705045e+00   2.465910e+01
  -2.055045e+01  -1.096332e+01
   1.518438e+01  -3.836674e+01
   2.331740e+01  -2.149485e+01
   2.904233e+01  -4.291099e+00
   7.699847e+01   4.265205e+00
   1.070887e+01   9.409446e+01
  -3.884771e+01  -2.303371e+00
  -6.012626e+01  -2.589967e+01
  -5.119086e+01  -7.828611e+01
   4.030390e+01  -6.492470e+01
   5.420737e+01   2.207120e+01
   3.099409e+01   1.523270e+01
  -6.953755e+01  -3.249673e-01
  -6.911757e+01   1.182868e+01
  -1.756051e+01   1.552550e+01
   7.309429e+00   1.626616e+01
   8.417474e+01   2.346430e+01
  -2.687949e+01   5.834017e+01
  -1.069897e+02   1.515685e+00
