
 $NMID
 id='ANONYMOUS ', fmtdat='(2E16.6)'
 volume=1.0
 tramp=1.0
 $END
   4.872451e+03  -9.813304e+01
   2.504896e+03   2.772792e+03
  -8.576916e+02   3.114663e+03
  -2.361814e+03   1.040168e+03
  -9.685000e+02  -1.030534e+03
   8.234326e+02  -6.181655e+02
   1.013848e+03   5.946746e+02
  -5.023777e+01   1.162191e+03
  -9.093188e+02   8.812592e+02
  -1.075453e+03  -6.902934e+01
  -4.964963e+02  -9.464734e+02
   3.297732e+02  -1.089605e+03
   6.805565e+02  -2.126930e+02
   4.280562e+02   8.530559e+02
  -2.793449e+02   8.412461e+02
  -7.200628e+02  -1.382585e+01
  -2.598608e+02  -6.788183e+02
   4.049476e+02  -7.590935e+02
   6.562179e+02  -7.940303e+01
   4.267013e+02   3.272226e+02
  -2.429754e+01   4.804715e+02
  -2.042800e+02   3.943668e+02
  -2.584919e+02   1.752866e+01
   8.698467e+01  -1.383170e+02
   4.739030e+02   1.702656e+02
   2.668129e+02   5.396070e+02
  -4.805073e+02   5.229985e+02
  -8.899433e+02  -6.978933e+01
  -4.506151e+02  -5.492365e+02
   3.677214e+02  -5.414899e+02
   7.977436e+02   2.057227e+01
   3.510553e+02   5.247819e+02
  -3.265125e+02   5.726322e+02
  -5.355840e+02   2.107637e+02
  -4.297763e+02  -2.087976e+02
   6.241099e+00  -5.025012e+02
   2.087325e+02  -2.632320e+02
   2.041990e+02   2.341736e+02
  -1.681763e+02   4.991619e+02
  -5.299589e+02  -7.221444e+01
  -2.879649e+02  -7.446576e+02
   3.678610e+02  -7.033822e+02
   7.165249e+02   2.622787e+01
   2.421503e+02   6.615101e+02
  -3.767148e+02   2.956896e+02
  -5.088451e+02  -4.170068e+02
   8.904220e+01  -5.973184e+02
   5.959520e+02  -1.172883e+02
   6.219285e+02   4.369353e+02
   1.727793e+02   5.791091e+02
  -4.162443e+02   3.711776e+02
  -6.638860e+02  -5.705791e+01
  -4.071331e+02  -3.996947e+02
   1.193238e+02  -3.863909e+02
   5.151063e+02  -4.894784e+01
   2.367437e+02   1.844825e+02
  -1.558848e+02   1.018853e+02
  -1.461573e+02  -1.496822e+02
   1.872844e+02  -2.034818e+02
   3.459918e+02   1.175702e+02
   1.820096e+02   2.660953e+02
  -1.862856e+02   1.921235e+02
  -3.603829e+02   4.097847e+01
  -2.022692e+02  -5.797780e+01
   6.353660e+00  -1.930827e+02
   3.202953e+02  -3.952049e+02
   4.016488e+02  -2.063739e+02
   2.704958e+02   1.243000e+02
   9.900053e+00   4.515285e+02
  -1.935229e+02   4.253099e+02
  -1.270869e+02   9.553655e+01
   2.662279e+00  -3.395550e+01
  -4.549448e+01   1.441527e+02
  -2.050068e+02   1.335752e+02
  -3.604312e+02  -6.452714e+01
  -1.680843e+02  -2.904851e+02
   5.037156e+01  -2.426415e+02
   2.478337e+02  -4.903152e+01
   2.599122e+02   2.762413e+02
   4.801586e+00   3.179693e+02
  -3.028999e+02   1.605614e+02
  -4.492462e+02  -1.572209e+02
  -1.710962e+02  -3.953594e+02
   1.824385e+02  -3.491566e+02
   2.529544e+02  -1.213235e+02
   1.434671e+02   2.588596e+01
   7.278553e+01  -3.667645e+01
   2.414418e+02  -9.357343e+01
   4.577589e+02  -9.167658e+00
   3.589884e+02   3.240609e+02
  -2.435960e+01   4.270558e+02
  -3.253619e+02   4.253276e+02
  -5.359332e+02   2.031929e+02
  -3.124807e+02  -7.781034e+01
  -2.235073e+01  -2.721594e+02
   9.849022e+01  -2.465219e+02
   4.634463e+01  -5.735791e+01
  -1.185763e+02   1.527546e+02
  -2.142216e+02  -1.010355e+01
  -6.655246e+01  -2.627605e+02
   2.053168e+02  -1.714345e+02
   2.504249e+02   8.011315e+01
  -9.889239e+01   2.268502e+02
  -1.863547e+02   6.707599e+01
  -1.486192e+02  -2.908774e+02
   1.103044e+02  -4.191020e+02
   2.607799e+02  -1.703361e+02
   3.690708e+02   3.540321e+01
   3.036104e+02   2.136838e+02
   6.220141e+01   2.740135e+02
  -8.015324e+01   1.354830e+02
  -1.962639e+02   3.534032e+01
  -5.215780e+01  -5.130635e+01
   1.322564e+02   7.633083e+01
   4.080453e+01   1.251300e+02
  -1.222245e+02   1.214270e+02
  -1.852033e+02   1.312158e+01
  -7.096949e+01  -1.009138e+02
   6.003317e+01  -4.887582e+01
   1.120439e+02   9.976773e+01
  -1.072875e+02   1.132564e+02
  -3.025311e+02   1.434350e+01
  -2.530578e+02  -1.508008e+02
  -7.229609e+01  -2.838081e+02
   1.851759e+02  -2.791759e+02
   2.874327e+02  -1.047832e+02
   2.006173e+02   2.818456e+01
  -2.927363e+01   1.050720e+02
  -1.024973e+02   3.330945e+01
   6.786963e+01  -1.096713e+02
   2.377388e+02  -8.441933e+01
   2.678722e+02   1.629822e+02
   5.686159e+01   2.150956e+02
  -1.221454e+02   1.827207e+02
  -1.695044e+02   6.816249e+01
  -9.179833e+01  -4.154901e+00
  -1.644442e+01   1.287600e+01
   3.160972e+01   7.224174e+01
  -8.494375e+01   7.868008e+01
  -2.202758e+02   2.048138e+01
  -1.843663e+02  -1.078440e+02
  -1.139918e+01  -2.247336e+02
   1.914976e+02  -1.808566e+02
   2.178651e+02   4.746080e+01
   5.536828e+01   1.726964e+02
  -6.512201e+01   1.715812e+02
  -6.481070e+01   3.926775e+01
   7.018130e+00  -5.575652e+01
   6.268268e+01  -2.064764e+01
  -7.345585e-01   5.861912e+01
  -1.193257e+02   2.793851e+01
  -1.093325e+02  -8.158857e+01
   8.005586e-02  -1.452491e+02
   1.036413e+02  -1.537668e+02
   2.939764e+02  -3.880461e+01
   2.010516e+02   1.349407e+02
   4.938907e+01   2.349901e+02
  -9.121478e+01   1.816067e+02
  -1.644419e+02  -8.786252e+00
  -8.624045e+01  -7.878027e+01
  -5.209847e+00  -2.911671e+01
  -5.048182e+01   1.145935e+01
  -7.709390e+01   2.648602e+01
  -5.532073e+01  -8.304763e+01
   5.382476e+01  -9.398187e+01
   1.310951e+02  -8.990634e+01
   8.016045e+01  -2.270297e-01
  -7.591472e+00   1.259117e+02
  -1.238658e+02   5.317191e+01
  -1.702160e+02  -1.511416e+01
  -1.288435e+02  -2.000506e+02
   1.287893e+02  -2.243640e+02
   3.369235e+02  -1.293340e+02
   2.541096e+02   3.556256e+01
   1.056850e+02   2.426018e+02
  -3.347218e+00   1.480693e+02
  -1.688486e+02   9.191765e+01
  -9.171317e+01   1.342008e+02
  -6.816433e+01   9.419869e+01
  -1.160763e+02   8.413010e+01
  -1.466300e+02  -3.414086e+01
  -1.330579e+02  -1.544921e+02
  -7.557279e+01  -2.401202e+02
   1.113748e+02  -1.894541e+02
   2.132348e+02  -8.159117e+01
   1.282846e+02   1.158557e+02
   6.741225e+01   1.489153e+02
  -1.609329e+01   7.753282e+01
  -6.124194e+01   3.659004e+01
  -7.563021e+00  -1.994337e+01
  -1.248480e+01  -2.232860e+01
  -1.151490e+02  -2.861979e+01
  -7.774850e+01  -4.162366e+01
  -3.665019e+00  -4.677686e+01
   8.463324e+01  -4.941932e+01
   1.890149e+02   2.043316e+01
   1.918270e+02   4.586673e+01
  -2.387739e+01   1.571478e+02
  -8.677631e+01   4.600481e+01
  -1.368223e+02   5.579926e+01
  -1.300084e+02  -8.142020e+01
   5.819340e+01  -8.330900e+01
   8.860263e+01  -3.281902e+01
   3.173682e+00   2.051261e+01
  -8.146932e+01   4.938482e+01
  -3.113507e+01   1.560071e+01
  -1.514231e+01  -9.422809e+01
  -6.653704e+01  -5.913724e+01
  -6.356458e+01   1.796023e+01
  -5.917860e+01   1.632551e+01
  -4.223573e+01  -1.133255e+02
   2.736611e+01  -1.373082e+02
   1.249803e+02  -1.037118e+02
   2.219315e+02  -7.302091e+01
   1.338670e+02   7.627711e+01
   5.607802e+00   1.056442e+02
  -7.376973e+01   9.818484e+01
  -8.832345e+01   2.497804e+01
   4.755156e+01  -5.821069e+01
   7.869060e+01   5.871236e+01
   7.575931e+01   1.176562e+02
  -1.379566e+02   1.195357e+02
  -1.632589e+02   3.597540e+01
  -1.391493e+02  -2.635159e+01
  -6.085960e+01  -1.342172e+02
   3.823270e+01  -1.029244e+02
   5.024212e+01  -1.203065e+01
  -1.044981e+01   6.909103e+01
  -6.567520e+00  -4.173322e+01
  -5.199688e+01  -1.085767e+02
   5.669331e+01  -1.359883e+02
   1.223234e+02  -1.007672e+02
   8.287103e+01   1.308624e+02
   2.631888e+01   2.223041e+02
  -9.720126e+01   1.290911e+02
  -1.059651e+02  -4.313816e+01
  -7.624664e+01  -1.335807e+02
   4.609079e+00  -1.060136e+02
   3.906943e+01  -5.181990e+01
   3.534543e+01  -1.290056e+01
   6.489404e+01  -6.631303e+00
   4.403384e+01   1.279605e+01
   2.256991e+01   5.366425e+01
   3.879776e+01   7.967063e+01
   2.782685e+01   1.006452e+02
  -1.002781e+02   6.474965e+01
  -1.064486e+02   1.522588e+01
  -1.294911e+02  -7.634841e+01
  -1.255935e+01  -8.344767e+01
   7.406454e+01  -1.819396e+01
   1.424718e+02   3.995607e+01
  -1.525645e+01   1.621236e+01
  -4.431923e+01   3.513268e+01
  -2.934886e+01   4.812964e+01
   2.952657e-01   5.092212e+00
  -1.026826e+01  -7.028395e+01
  -7.739147e+01  -4.885127e+00
  -6.863148e+01  -4.736722e+01
  -3.245131e+00  -1.347259e+02
   5.922882e+01  -1.259819e+02
   2.243032e+02  -7.693163e+01
   1.975723e+02   6.113562e+01
   8.320999e+01   1.430755e+02
  -1.473323e+02   1.832378e+02
  -1.089458e+02   5.743539e+01
  -9.229221e+01  -5.004425e+00
  -1.724318e+00  -8.098240e+01
   5.964143e+00  -5.473300e+00
  -2.504403e+01   1.645235e+01
  -2.768090e+01  -7.350634e+01
  -3.228000e+01  -9.073796e+01
   4.461884e+01  -7.955637e+01
   1.148322e+02   6.616066e+00
   1.082506e+02   7.960239e+01
  -5.431722e+01   1.116325e+02
  -1.351350e+02   4.320729e+01
  -6.289412e+01  -1.137137e+02
  -2.079149e+01  -1.081212e+02
   1.140270e+02  -5.546465e+01
   6.897064e+01  -1.654756e+01
   3.047082e+01   4.061782e+01
  -2.582916e+01   4.257877e+01
  -2.643437e+00   2.725673e+01
   5.920309e+01  -1.100310e+01
   6.601463e+01   2.741287e+01
  -1.921001e+01   4.015895e+01
  -9.222168e+01   7.421080e+01
  -1.821565e+02   5.472347e+01
  -8.556949e+01  -3.473297e+01
   3.749525e+01  -9.177800e+01
   5.709174e+01  -9.390896e+01
   9.848587e+01  -1.009189e+00
  -3.882208e+01   4.740444e+01
  -1.696908e+01   3.684302e+01
   9.689038e+00  -6.063530e+01
  -1.648034e+01  -3.957450e+01
   3.524737e+00  -5.660668e+00
   5.480617e+01  -3.190155e+00
   3.610125e+01   2.459936e+01
   2.659030e+01  -1.799265e+00
  -2.406676e+00   5.717697e-01
   2.215546e+01   1.078687e+01
  -3.903127e+01   3.159454e+01
   2.616896e+01   6.387873e+01
  -2.525840e+01   5.571427e+01
  -1.474974e+01  -4.493365e+01
   8.120429e+00  -4.760607e+01
   3.742525e+01  -1.761116e+01
   1.150957e+01   5.784599e+01
   1.244807e-01   4.638806e+01
  -8.456986e+01   4.692815e+01
  -1.081033e+02  -3.255711e+01
  -7.609999e+01  -5.232642e+01
   1.081156e+01  -7.843317e+01
   1.108560e+02  -6.387675e+01
   3.611924e+01   2.198996e+01
   5.716316e+00  -1.190948e+01
  -5.151555e+01  -2.737849e+01
   3.558938e+01  -4.633041e+01
   9.850671e+01   2.398283e+01
