
 $NMID
 id='ANONYMOUS ', fmtdat='(2E16.6)'
 volume=1.0
 tramp=1.0
 $END
   4.022608e+03   4.114067e+01
   2.492445e+03   2.507464e+03
  -5.823161e+02   2.510603e+03
  -1.695975e+03   1.300287e+03
  -1.012160e+03  -6.561393e+01
   3.118380e+02  -3.627025e+02
   6.817574e+02   3.087172e+02
   4.278230e+01   9.161743e+02
  -6.760976e+02   7.362136e+02
  -8.376021e+02   1.636654e+01
  -4.780914e+02  -7.491714e+02
   1.500802e+02  -8.203654e+02
   5.910906e+02  -1.340230e+02
   3.659213e+02   5.705678e+02
  -2.484989e+02   6.546655e+02
  -5.179001e+02  -3.292367e+01
  -2.995559e+02  -6.485855e+02
   2.217485e+02  -7.031148e+02
   6.077155e+02  -1.365780e+02
   4.725452e+02   3.214539e+02
   9.493540e+01   4.371115e+02
  -2.107131e+02   2.897055e+02
  -1.266735e+02   7.717447e+01
   1.354240e+02   1.255224e+02
   3.930940e+02   2.734819e+02
   1.452385e+02   3.679913e+02
  -4.831001e+02   2.774213e+02
  -7.665411e+02  -1.802794e+02
  -3.548346e+02  -5.197207e+02
   4.143700e+02  -3.214229e+02
   6.661649e+02   9.982435e+01
   3.433049e+02   3.747184e+02
  -2.151110e+02   4.853154e+02
  -4.951993e+02   2.068094e+02
  -4.063197e+02  -1.711063e+02
  -7.750284e+01  -4.212685e+02
   1.940754e+02  -2.552729e+02
   9.344998e+01   1.649191e+02
  -1.511497e+02   4.003386e+02
  -3.267209e+02  -8.508700e+01
  -1.705728e+02  -6.128303e+02
   2.601704e+02  -6.067980e+02
   4.417490e+02  -2.063680e+01
   1.937584e+02   4.365150e+02
  -1.940189e+02   2.506015e+02
  -3.170951e+02  -3.867471e+02
   8.278137e+01  -4.973552e+02
   5.679339e+02  -1.103247e+02
   6.021823e+02   4.120865e+02
   1.665068e+02   5.412948e+02
  -3.829683e+02   3.559510e+02
  -6.591303e+02  -1.098901e+02
  -3.870411e+02  -3.785240e+02
   1.480149e+02  -3.335122e+02
   4.361315e+02  -8.613998e+01
   2.444903e+02   6.902639e+01
  -7.793745e+01   3.088451e+01
  -6.378833e+01  -1.240891e+02
   1.559788e+02  -1.042618e+02
   3.122719e+02   9.530268e+01
   1.497515e+02   2.306677e+02
  -1.813307e+02   2.626163e+02
  -3.784788e+02   9.569513e+01
  -2.496819e+02  -9.504084e+01
   1.953115e+01  -3.056999e+02
   3.345035e+02  -3.521651e+02
   3.762298e+02  -1.703230e+02
   2.961462e+02   1.806052e+02
   8.810719e+01   3.963700e+02
  -6.134459e+01   4.004584e+02
  -1.046710e+02   1.693766e+02
  -8.194765e+01   6.415233e+01
  -8.643616e+01   7.250232e+01
  -2.335927e+02   5.957841e+01
  -2.689503e+02  -8.969934e+01
  -1.517321e+02  -2.662900e+02
   9.041739e+01  -2.345516e+02
   2.208624e+02  -1.147805e+01
   1.912398e+02   2.310564e+02
  -1.094827e+02   3.007952e+02
  -3.126957e+02   8.172216e+01
  -3.747813e+02  -2.243460e+02
  -1.496646e+02  -3.615707e+02
   8.222340e+01  -2.898861e+02
   2.152438e+02  -1.459330e+02
   1.653809e+02  -5.997935e+01
   1.484643e+02  -5.970274e+01
   2.549176e+02  -4.692990e+01
   4.508457e+02   1.077852e+02
   3.979698e+02   2.833250e+02
   9.610872e+00   4.990574e+02
  -4.224646e+02   3.806279e+02
  -5.634799e+02   2.016639e+02
  -3.998473e+02  -1.425552e+02
  -3.355572e+01  -2.920073e+02
   1.637318e+02  -2.461712e+02
   6.741306e+01  -8.729394e+01
  -1.299421e+02   8.913815e+01
  -1.805479e+02  -6.364826e+01
  -3.032716e+01  -1.636418e+02
   1.198658e+02  -1.636712e+02
   1.270314e+02   3.966650e+01
  -1.013158e+01   1.278521e+02
  -1.752452e+02   2.943252e+01
  -1.400152e+02  -2.433577e+02
   6.120469e+01  -3.871742e+02
   2.817009e+02  -2.925402e+02
   3.839517e+02   5.258344e+01
   3.466490e+02   2.916819e+02
   1.134275e+02   3.096496e+02
  -1.387102e+02   1.859952e+02
  -2.047876e+02  -3.121911e+00
  -2.615157e+01  -3.234397e+01
   3.380720e+01   1.636085e+01
   3.534791e+01   1.075874e+02
  -1.415159e+02   9.226338e+01
  -1.940908e+02   2.539380e+00
  -5.750239e+01  -7.986813e+01
   4.385739e+01   2.259849e+00
   1.028041e+02   9.481530e+01
  -9.895118e+01   8.316831e+01
  -2.687839e+02  -3.275032e+01
  -3.027364e+02  -1.614485e+02
  -5.712076e+01  -2.584670e+02
   1.620516e+02  -2.687685e+02
   2.828107e+02  -1.425826e+02
   1.631276e+02   8.285044e+01
  -2.323142e+01   9.316954e+01
  -7.985837e+01  -3.915678e+01
   9.986307e+00  -1.482972e+02
   2.226284e+02  -7.854503e+01
   2.117469e+02   8.677481e+01
   6.408914e+01   2.187586e+02
  -1.256453e+02   1.735403e+02
  -1.355441e+02   7.732203e+01
  -7.774302e+01  -1.595443e+01
   2.916402e+01  -1.243906e+00
   1.581542e+01   8.157982e+01
  -9.004734e+01   1.179829e+02
  -1.932028e+02  -2.284331e+01
  -1.813900e+02  -1.715685e+02
   1.745775e+01  -2.314323e+02
   2.309307e+02  -1.643911e+02
   1.943168e+02  -1.894108e+01
   5.834191e+01   8.753429e+01
  -8.476777e+01   1.261869e+02
  -1.245360e+02   2.399820e+01
  -4.659302e+01  -3.443224e+01
   1.331678e+01   5.930685e+00
   1.053449e+01   2.375091e+01
  -3.569281e+01  -8.944444e+00
  -1.099053e+02  -1.166573e+02
  -1.924278e+01  -2.030763e+02
   1.458212e+02  -1.225014e+02
   2.518197e+02   8.252224e-01
   1.844653e+02   1.991336e+02
   1.167227e+01   2.683312e+02
  -1.757098e+02   1.581189e+02
  -1.593514e+02   3.408489e+01
  -5.893111e+01  -9.240098e+01
  -2.324417e+01  -7.214383e+01
   3.107636e-01   1.413755e+01
  -8.193601e+01   3.742524e+01
  -9.686229e+01  -4.093445e+01
   2.732386e+01  -1.136112e+02
   8.786982e+01  -1.109047e+02
   1.331911e+02  -9.892500e+00
   1.172365e+01   9.703951e+01
  -2.199962e+02   5.327899e+01
  -2.304000e+02  -7.726262e+01
  -9.437066e+01  -2.142183e+02
   1.109291e+02  -2.184143e+02
   3.151528e+02  -6.861546e+01
   2.910691e+02   1.250944e+02
   1.101438e+02   1.567310e+02
  -2.135977e+01   1.767030e+02
  -9.452229e+01   1.052516e+02
  -9.375846e+01   7.299934e+01
  -1.279313e+02   9.281989e+01
  -1.328509e+02   6.051347e+01
  -1.112845e+02  -6.679697e+01
  -1.295111e+02  -2.189453e+02
   3.882002e+00  -2.860859e+02
   1.179483e+02  -1.795507e+02
   2.171563e+02  -1.943388e+01
   1.508116e+02   1.276841e+02
  -1.209012e+01   1.389096e+02
  -1.191320e+02   9.221249e+01
  -9.428124e+01   2.133964e-02
   2.393233e+01  -4.581720e+01
   5.547986e+01  -7.747835e+00
   8.894832e+00   3.965811e+01
  -9.935686e+01  -2.852326e+01
  -8.437457e+01   1.821852e+00
   8.829639e+01  -4.603186e+00
   1.829028e+02   1.984914e+01
   1.297829e+02   1.886930e+01
  -1.331950e+01   8.053251e+01
  -1.489732e+02   1.181952e+02
  -1.729955e+02   2.590509e+01
  -1.516649e+01  -3.618222e+01
   9.066237e+01  -3.956903e+01
   8.285642e+01   1.278832e+01
   3.340701e+01   4.773926e+01
  -7.012777e+01   7.549609e+01
  -4.992886e+01   3.495340e-01
  -6.867750e+01  -2.988471e+01
  -6.262821e+01  -7.696891e+01
  -3.221203e+01  -1.889045e+01
  -6.111442e+01  -3.844468e+01
  -5.904301e+01  -9.062689e+01
   3.297328e+01  -1.693407e+02
   1.075660e+02  -1.597153e+02
   1.313336e+02   1.755322e+00
   9.880350e+01   1.219293e+02
   2.702638e+01   1.185544e+02
  -7.215312e+01   8.620310e+01
  -9.043708e+01   2.188233e+01
   8.726001e+01  -6.741526e+00
   1.571927e+02   8.517416e+01
   6.970017e+01   7.267651e+01
  -7.082079e+01   8.735248e+01
  -1.961396e+02   4.957891e+01
  -1.912105e+02  -4.522224e+01
  -5.672379e+01  -8.438526e+01
   1.180901e+02  -7.285170e+01
   6.900989e+01  -1.074928e+01
  -3.286368e+01   5.476304e+00
  -1.262548e+02  -2.796641e+01
   1.201482e+00  -1.044535e+02
   1.039648e+02  -1.643887e+02
   1.573912e+02  -7.691761e+01
   1.291364e+02   1.215646e+02
   1.767548e+01   1.931912e+02
  -6.846958e+01   1.376233e+02
  -1.453604e+02   5.435140e+00
  -9.948625e+01  -1.338377e+02
  -2.233492e+01  -8.631560e+01
   2.351453e+01  -1.568849e+01
   8.806301e+00   6.697269e+01
   6.557733e+01  -2.925897e+01
   1.971411e+01  -5.044723e+01
   2.158371e+01   4.514591e+01
   7.011729e+01   9.270819e+01
  -2.196734e+01   1.051675e+02
  -5.803828e+01   4.266031e+01
  -1.290190e+02  -5.834175e+01
  -1.172668e+02  -6.614119e+01
  -2.789114e+01  -6.471880e+01
   7.606701e+01  -3.242982e+00
   6.604385e+01  -1.161114e+01
  -6.886093e+00  -6.735524e+01
  -2.512591e+01   1.783821e+01
  -3.517267e+01   2.068520e+00
   4.184323e+01  -3.935651e-01
   7.935026e+00   8.209670e+00
  -4.009984e+01   2.119741e+01
  -7.776085e+01  -1.136351e+01
  -3.589152e+00  -9.875055e+01
   1.090693e+02  -1.473203e+02
   1.910963e+02  -3.907534e+01
   1.449461e+02   6.939325e+01
   4.793072e+01   1.588032e+02
  -9.361556e+01   1.532361e+02
  -9.443711e+01   6.078931e+01
  -3.655084e+01   1.653672e+01
  -4.485490e+01  -3.892670e+01
  -6.732703e+01  -2.868275e+01
  -3.192286e+01   1.917738e+01
  -2.817110e+01  -7.511914e+01
  -1.378077e+01  -1.536866e+02
   5.894136e+01  -7.253523e+01
   1.319662e+02   4.477693e+01
   7.546368e+01   7.880727e+01
  -3.551254e+01   8.036901e+01
  -7.428935e+01   9.983832e+00
  -9.073600e+01  -7.866537e+01
  -4.775106e+01  -7.713154e+01
   9.147305e+01  -7.106676e+00
   8.990325e+01   1.730063e-01
   4.616282e+01   5.750642e+01
  -4.957693e+01   3.777698e+00
   1.541882e+01  -3.346544e+01
   8.449148e+01  -3.036233e+01
   7.905576e+01   2.159478e+01
   1.964794e+01   3.430257e+01
  -6.898792e+01   1.142443e+02
  -8.557283e+01   5.296735e+01
  -6.684440e+01  -3.124700e+01
   4.035211e+01  -6.981235e+01
   6.179567e+01  -1.178801e+02
   2.570453e+01   3.534107e+00
  -4.078214e+01   6.269107e+01
  -1.667552e+00   5.268775e+01
  -2.932118e+01  -3.701380e+01
  -7.360273e+00  -8.195177e+01
   1.811469e+01   4.775243e-01
   5.790780e+01   2.265494e+00
   3.470186e+01   3.603830e+01
   1.319139e+01  -1.653135e+01
  -4.638174e+00  -2.825228e+01
   2.080848e+01   3.593582e+01
   1.837061e+01   7.546676e+01
  -3.408644e+01   4.240605e+01
  -3.783414e+01  -7.042040e+00
  -7.157575e+01  -7.134186e+01
  -2.052845e+01  -6.760418e+01
   6.208215e+01  -1.228459e+01
   5.338381e+01   4.717699e+01
  -4.883891e+01   2.949665e+01
  -6.321194e+01   6.251141e+00
  -1.039043e+02  -3.636292e+01
  -4.922126e+01  -3.581369e+01
   3.423421e+01  -3.487672e+01
   8.584113e+01   1.493727e+00
   4.481079e+00  -2.003727e+01
  -3.442552e+01  -1.508773e-01
  -6.013739e+01  -7.787967e+00
  -1.029432e+01  -3.000991e+01
   1.060703e+02  -1.873742e+01
