
 $NMID
 id='ANONYMOUS ', fmtdat='(2E16.6)'
 volume=1.0
 tramp=1.0
 $END
   4.151926e+03   7.748699e+01
   2.531428e+03   2.471192e+03
  -4.794067e+02   2.554195e+03
  -1.693138e+03   1.118011e+03
  -1.119374e+03  -2.253450e+02
   2.999709e+02  -4.174816e+02
   8.394367e+02   3.445890e+02
   5.627494e+01   9.850040e+02
  -6.490788e+02   7.608145e+02
  -8.111241e+02   7.808104e+00
  -5.461747e+02  -7.301548e+02
   3.857243e+01  -8.594835e+02
   4.854510e+02  -1.445332e+02
   3.415686e+02   5.790684e+02
  -2.082563e+02   6.531484e+02
  -4.894622e+02   6.278878e+01
  -3.510118e+02  -5.818444e+02
   2.797942e+02  -7.107154e+02
   5.932711e+02  -2.163890e+02
   4.525855e+02   3.228182e+02
   8.711633e+01   4.097317e+02
  -2.252147e+02   2.605363e+02
  -1.963938e+02   6.452261e+01
   1.534559e+02   1.652432e+01
   3.602948e+02   2.208030e+02
   1.237506e+02   3.722495e+02
  -5.199469e+02   3.041651e+02
  -8.479991e+02  -1.667175e+02
  -3.703685e+02  -4.426208e+02
   3.739416e+02  -3.888526e+02
   6.798512e+02   2.082130e+01
   2.739447e+02   3.552650e+02
  -2.638850e+02   4.631965e+02
  -4.995027e+02   1.903127e+02
  -3.670126e+02  -1.380994e+02
  -9.649891e+01  -3.924231e+02
   1.585818e+02  -1.963802e+02
   6.817976e+01   1.870106e+02
  -1.875129e+02   3.137554e+02
  -3.925707e+02  -1.895026e+02
  -9.445595e+01  -6.659049e+02
   3.239040e+02  -6.056890e+02
   5.464721e+02   3.947600e+01
   1.994281e+02   4.244327e+02
  -1.882745e+02   1.861247e+02
  -2.536387e+02  -3.290453e+02
   1.578309e+02  -4.515227e+02
   4.921145e+02  -8.847303e+01
   5.025926e+02   3.612507e+02
   1.318791e+02   5.059126e+02
  -3.427118e+02   2.733618e+02
  -5.767298e+02  -1.182531e+02
  -2.892318e+02  -3.752360e+02
   1.351046e+02  -3.525827e+02
   3.907452e+02  -3.160223e+01
   2.350271e+02   1.393591e+02
  -6.763308e+01   7.338406e+01
  -6.137137e+01  -1.123569e+02
   1.935852e+02  -1.367215e+02
   3.291179e+02   5.104820e+01
   1.675457e+02   2.824958e+02
  -1.827094e+02   2.641196e+02
  -3.406826e+02   1.555907e+02
  -2.610300e+02  -9.617168e+01
   2.590783e+01  -2.785853e+02
   2.810894e+02  -4.034606e+02
   4.043524e+02  -2.182400e+02
   2.592700e+02   1.384904e+02
   9.881967e+01   4.244503e+02
  -4.789306e+01   3.309833e+02
  -2.721271e+01   1.259220e+02
  -1.407580e+01   9.066735e+01
  -8.061029e+01   1.458343e+02
  -2.620614e+02   1.137772e+02
  -2.583202e+02  -1.139154e+02
  -6.616501e+01  -2.808434e+02
   1.281820e+02  -2.408198e+02
   2.231151e+02   6.530984e+01
   1.274704e+02   2.400584e+02
  -4.231636e+01   2.504863e+02
  -2.450336e+02   8.966811e+01
  -2.855802e+02  -1.659561e+02
  -1.709142e+02  -2.733555e+02
   7.666843e+01  -2.432549e+02
   1.924280e+02  -7.638100e+01
   1.613873e+02  -2.844200e+01
   1.532373e+02  -2.469852e+00
   2.618097e+02  -8.915605e+01
   4.502145e+02   7.760261e+01
   2.786335e+02   3.120495e+02
  -5.092447e+01   4.477135e+02
  -3.805345e+02   3.861560e+02
  -4.954944e+02   1.991469e+02
  -2.816340e+02  -8.635144e+01
  -5.840001e+01  -2.177916e+02
   7.930765e+01  -1.980051e+02
   3.707639e+01  -1.975384e+01
  -1.667304e+02   5.335809e+01
  -1.735923e+02  -5.329895e+01
   7.550287e+00  -1.492453e+02
   1.555188e+02  -1.225139e+02
   1.512363e+02   7.469363e+01
  -3.398155e+01   1.504722e+02
  -1.894422e+02  -2.110883e+01
  -2.057305e+02  -2.451240e+02
   4.492322e+01  -3.506396e+02
   1.883380e+02  -1.690087e+02
   3.343284e+02   8.545370e+01
   3.175196e+02   2.198714e+02
   8.818165e+01   2.243563e+02
  -1.389473e+02   1.220084e+02
  -1.800193e+02   5.854061e+00
  -6.994666e+01   2.833846e+01
   5.216792e+01   3.024709e+01
   2.848500e+01   9.454957e+01
  -1.488097e+02   7.307934e+01
  -1.347956e+02  -3.909400e+00
  -2.880528e+01  -7.859753e+01
   8.446368e+01  -1.239520e+01
   2.751047e+01   8.528173e+01
  -1.683296e+02   1.588303e+01
  -2.736468e+02   6.484905e+00
  -2.376964e+02  -1.535537e+02
   2.243620e+01  -2.542287e+02
   2.205780e+02  -2.212649e+02
   3.041868e+02  -8.186018e+01
   1.525563e+02   3.099955e+01
  -4.161586e+01   1.038962e+02
  -8.893600e+01  -4.986748e+01
   4.486629e+01  -1.022362e+02
   1.882911e+02  -4.440082e+01
   1.873054e+02   1.189681e+02
   4.136269e+01   1.906230e+02
  -6.263720e+01   1.716072e+02
  -1.487340e+02   2.807016e+01
  -7.804879e+01  -5.654657e+01
   5.080254e+01   3.716685e+01
  -7.043875e+00   1.127264e+02
  -1.070421e+02   7.782033e+01
  -1.955690e+02   1.674867e+01
  -2.036052e+02  -1.631391e+02
  -9.563393e+00  -2.042754e+02
   1.596959e+02  -1.423301e+02
   1.881004e+02  -7.663435e+00
   6.259396e+01   9.267006e+01
  -4.075962e+01   9.666166e+01
  -1.244281e+02   2.696029e+01
   5.979949e+00  -5.173236e+01
   3.036484e+01  -2.166232e+01
   2.634888e+01   1.817822e+01
  -2.848030e+01   2.440625e+01
  -1.013854e+02  -3.596867e+01
  -1.439697e+01  -1.558786e+02
   1.087311e+02  -1.537376e+02
   1.611504e+02  -9.845379e-01
   1.637509e+02   1.634885e+02
   5.998405e+01   2.153759e+02
  -1.207766e+02   1.746558e+02
  -1.160033e+02   3.027642e+01
  -5.374798e+01  -8.640928e+00
  -2.420165e+01  -5.622060e+01
  -3.350422e+01   3.146994e+01
  -7.269325e+01  -1.042817e+01
  -2.371850e+01  -1.245930e+01
   5.133590e+01  -8.509969e+01
   9.420299e+01  -3.772759e+01
   6.621774e+01   3.941999e+01
  -8.057885e+01   8.691244e+01
  -1.672093e+02   3.414949e+01
  -2.015755e+02  -7.836734e+01
  -5.414187e+01  -1.906415e+02
   1.079844e+02  -1.539939e+02
   2.929064e+02  -6.285096e+01
   2.731906e+02   1.297718e+02
   8.384074e+01   2.174607e+02
  -1.113295e+02   1.535477e+02
  -1.277954e+02   1.034229e+02
  -1.016522e+02   5.069712e+01
  -8.378752e+01   7.145067e+01
  -1.250730e+02   3.845103e+01
  -9.906236e+01  -3.368972e+01
  -1.156500e+02  -1.585815e+02
  -5.086307e+01  -2.254583e+02
   1.168520e+02  -1.455322e+02
   1.817857e+02  -6.441777e+00
   1.345367e+02   9.087259e+01
   5.671108e+01   1.567246e+02
  -4.525725e+01   9.528463e+01
  -4.259885e+01  -2.124610e+00
  -2.374554e+01  -8.687510e+01
  -1.807872e+01  -3.772907e+01
  -6.096766e+01  -1.883334e+01
  -1.033916e+02  -5.724138e+01
  -3.648172e+01  -5.992454e+01
   6.448718e+01  -2.934764e+01
   1.760895e+02   7.931186e+00
   1.137584e+02   4.619636e+01
   3.406880e+01   1.327347e+02
  -1.465457e+02   1.162083e+02
  -1.217282e+02  -5.218293e+00
  -9.589464e+01  -1.658540e+00
  -1.986630e+01  -6.732459e+01
   4.492316e+01   2.387289e+01
   8.641483e+00   4.972024e+01
  -3.178689e+01   2.273573e+01
  -1.663296e+01  -2.718815e+01
  -4.555212e+00  -1.181271e+01
  -2.581453e+01  -3.927624e+01
  -3.523587e+01  -1.411624e+01
  -8.854309e+01   2.591287e+01
   5.477450e+00  -2.609270e+01
   3.734571e+01  -1.274197e+02
   1.141922e+02  -1.691904e+02
   2.122348e+02  -2.239730e+01
   1.214401e+02   8.020471e+01
   4.694897e+01   1.174678e+02
  -6.833959e+01   8.236059e+01
  -7.742027e+01  -9.314331e+00
   5.306015e+01  -3.140654e+01
   9.184813e+01   3.261621e+01
   3.550629e+01   9.747753e+01
  -1.238597e+02   9.844631e+01
  -2.036224e+02   4.831304e+01
  -1.696006e+02  -2.824919e+01
  -3.714456e+01  -4.784642e+01
   2.963502e+01  -4.251737e+01
   4.162187e+01  -2.542633e+01
   1.095752e+00   3.755818e+01
  -6.198435e+01  -5.212141e+01
  -1.640453e+01  -1.209140e+02
   1.040864e+02  -1.182088e+02
   1.464722e+02  -5.818303e+01
   1.160162e+02   9.477439e+01
  -9.483814e+00   1.874697e+02
  -1.026567e+02   1.230316e+02
  -9.779396e+01  -6.319886e+01
  -6.188666e+01  -1.611442e+02
  -3.808377e+00  -1.603637e+02
   6.993700e+01  -2.733740e+01
   3.769774e+01   5.972039e-01
   6.605870e+00   3.019988e+01
  -1.355571e+01  -5.921435e+01
   1.578484e+01  -2.617719e+00
   5.134466e+01   5.139204e+01
   1.926184e+01   6.895612e+01
  -7.858351e+01   1.641486e+01
  -1.121388e+02  -7.540643e+01
  -1.127039e+02  -5.987263e+01
   8.199474e+00  -5.456096e+01
   1.187646e+02  -1.542165e+01
   1.039475e+02   1.232396e+00
   1.577005e+01  -1.381545e+01
  -2.605152e+01  -1.354322e+01
  -1.501018e+01   1.381490e+01
   3.407737e+00   4.510842e+01
  -3.886895e+01   2.354959e+01
  -8.465558e+01  -2.715082e+01
  -1.294728e+02  -3.574605e+01
  -1.909623e+01  -8.609949e+01
   9.042764e+01  -1.154913e+02
   1.419983e+02  -2.310155e+01
   1.324471e+02   9.490499e+01
   2.307399e+01   1.742855e+02
  -1.121958e+02   1.269109e+02
  -1.323538e+02   4.561743e+01
  -6.527397e+01  -5.279570e+01
  -2.112267e+01  -4.041789e+01
   3.579112e+01  -3.012605e+01
  -1.982173e+01   1.136503e+01
  -2.463955e+01  -3.651703e+01
   3.505678e+00  -1.306098e+02
   6.332536e+01  -9.118623e+01
   1.309271e+02   3.852497e+00
   6.923121e+01   1.022880e+02
   2.074128e+01   1.285953e+02
  -9.695001e+01   4.294201e+01
  -7.519111e+01  -8.240618e+01
  -2.868485e+00  -6.564032e+01
   1.346204e+02  -4.705085e+01
   1.529673e+02  -2.630165e+00
   4.367184e+01   6.645089e+01
  -2.120271e+01   1.151927e+02
  -8.626158e+01   2.591365e+01
   7.237811e-01   9.543332e+00
   6.872737e+01   1.385333e+01
   1.418219e+01   2.285620e+01
  -6.413172e+01   4.207582e+01
  -1.257896e+02   6.260612e+01
  -1.108071e+02   6.772208e+00
   1.380588e+01  -1.081390e+02
   6.579020e+01  -1.254411e+02
   6.201590e+01  -3.286864e+01
  -1.295657e+01   5.720387e+01
  -8.837193e+00   4.526906e+01
   1.884354e+01   1.181265e+01
  -7.686778e+00  -6.954650e+01
   8.799084e+00  -4.092982e+01
   5.444323e+01  -1.919644e+01
   4.632321e+01   2.947840e+01
   4.702591e+01   1.937806e+01
   8.809191e+00  -2.103908e+01
  -1.553478e+01   4.339750e+00
  -6.413833e+00   1.605952e+01
  -2.350834e+01  -1.947384e+01
  -3.060117e+01  -4.006718e+01
  -3.987510e+01  -4.440889e+01
   2.197253e+01  -9.566060e+01
   5.956516e+00  -2.757988e+01
   3.597518e+01   1.463374e+01
   7.332699e+00   8.180330e+01
  -7.767218e+01   2.310434e+01
  -9.543688e+01  -9.361257e+00
  -6.515444e+01  -6.834589e+01
   1.988679e+01  -6.481891e+00
   9.063812e+01  -5.293010e+01
  -2.124386e+01   1.454002e+01
  -1.167352e+00   1.164561e+01
  -5.328348e+01  -8.681936e-01
   2.250578e+01  -6.265186e+01
   8.425262e+01  -1.751314e+00
