
 $NMID
 id='ANONYMOUS ', fmtdat='(2E16.6)'
 volume=1.0
 tramp=1.0
 $END
  -5.096076e+03  -6.447412e+01
  -3.004682e+03  -2.897932e+03
   7.511489e+02  -2.979205e+03
   2.534244e+03  -9.291346e+02
   1.111759e+03   8.762586e+02
  -7.858210e+02   7.557097e+02
  -1.086040e+03  -4.235605e+02
  -2.674657e+01  -1.229400e+03
   8.668083e+02  -8.531771e+02
   1.015648e+03   1.753537e+02
   5.439486e+02   8.525488e+02
  -1.903334e+02   9.767556e+02
  -7.028184e+02   1.660350e+02
  -4.066328e+02  -7.361114e+02
   1.827310e+02  -8.704836e+02
   6.982323e+02  -2.777658e+01
   3.514547e+02   7.697547e+02
  -3.759799e+02   5.829775e+02
  -6.097867e+02   4.428203e+01
  -4.403822e+02  -4.800727e+02
   6.470739e+01  -4.778990e+02
   3.396788e+02  -3.529755e+02
   2.700982e+02   7.906994e+00
  -1.951448e+02   1.221601e+02
  -5.036579e+02  -1.013438e+02
  -2.081114e+02  -4.408832e+02
   5.155495e+02  -5.048701e+02
   8.648790e+02   7.207619e+01
   4.512324e+02   6.696049e+02
  -4.261605e+02   4.829094e+02
  -7.990101e+02  -3.146785e+01
  -3.969807e+02  -4.949921e+02
   2.426107e+02  -6.238148e+02
   6.454911e+02  -1.915565e+02
   5.090269e+02   3.387314e+02
   8.077140e+01   5.347102e+02
  -2.635267e+02   2.882435e+02
  -2.549310e+02  -2.713375e+02
   1.701379e+02  -5.178652e+02
   4.840487e+02   4.682437e+01
   3.198114e+02   8.194513e+02
  -3.267492e+02   8.012088e+02
  -6.833544e+02   2.306445e+01
  -2.787214e+02  -6.387753e+02
   3.295761e+02  -3.888162e+02
   4.799182e+02   3.916792e+02
  -2.798829e+01   6.421698e+02
  -6.143922e+02   1.472189e+02
  -6.417308e+02  -4.374461e+02
  -1.908929e+02  -6.306952e+02
   4.356236e+02  -3.810229e+02
   6.364754e+02   8.067364e+01
   3.891355e+02   4.410200e+02
  -1.667157e+02   4.091261e+02
  -5.072769e+02   8.421444e+01
  -2.774077e+02  -2.457334e+02
   8.418267e+01  -1.638729e+02
   1.676849e+02   1.606128e+02
  -1.633381e+02   2.097243e+02
  -3.529054e+02  -1.042619e+02
  -1.449709e+02  -3.106623e+02
   2.160720e+02  -2.747491e+02
   3.702245e+02  -6.181785e+01
   2.433549e+02   9.208976e+01
   1.351414e+00   2.513966e+02
  -2.272772e+02   3.518927e+02
  -4.148468e+02   3.013744e+02
  -3.425570e+02  -1.338710e+02
  -1.293118e+02  -5.606531e+02
   1.558596e+02  -4.460291e+02
   1.409147e+02  -1.627905e+02
   6.625492e+01   2.706461e+01
   3.483066e+01  -6.050134e+01
   1.426206e+02  -1.608452e+02
   3.144656e+02  -2.965652e+01
   1.647495e+02   2.668122e+02
  -4.838620e+01   2.698096e+02
  -2.422955e+02   2.577919e+01
  -1.857765e+02  -2.321117e+02
   3.740745e+01  -3.059804e+02
   2.863410e+02  -1.147443e+02
   4.121796e+02   1.503649e+02
   2.371641e+02   3.531677e+02
  -1.304398e+02   3.883377e+02
  -2.732368e+02   1.939149e+02
  -1.822295e+02   3.456923e+01
  -1.342726e+02  -2.474025e+01
  -2.673096e+02   4.089902e+01
  -4.046651e+02  -5.627226e+01
  -3.271196e+02  -2.744966e+02
   1.598454e+01  -4.476904e+02
   3.817477e+02  -4.440654e+02
   5.252285e+02  -1.786084e+02
   3.444731e+02   1.092806e+02
   8.460223e+01   2.993608e+02
  -1.962801e+02   3.074245e+02
  -7.235165e+01   6.778620e+01
   1.160254e+02  -1.067911e+02
   2.538539e+02  -2.888422e+01
   6.975824e+01   1.634098e+02
  -2.096030e+02   1.979412e+02
  -2.474213e+02  -6.239041e+01
  -3.411325e+01  -2.101996e+02
   1.970608e+02  -6.828715e+01
   1.711205e+02   2.671453e+02
  -5.962884e+01   3.685793e+02
  -2.155253e+02   2.061739e+02
  -3.127835e+02  -1.122465e+02
  -2.657581e+02  -2.940252e+02
  -1.307435e+02  -2.622326e+02
   1.282208e+02  -1.471596e+02
   2.077142e+02   2.014398e+01
   9.134066e+01   9.117133e+01
  -3.030790e+01  -3.526981e+01
  -2.114388e+01  -1.156700e+02
   9.977139e+01  -1.550433e+02
   1.863590e+02   4.657184e+01
   5.383398e+01   1.203959e+02
  -9.476456e+01  -1.947871e+01
  -3.268698e+01  -9.585370e+01
   1.448704e+02  -9.477663e+01
   3.206259e+02  -6.856304e+01
   2.706384e+02   1.765543e+02
   1.312772e+01   1.960284e+02
  -1.692067e+02   2.662971e+02
  -2.956044e+02   1.980487e+02
  -1.643481e+02  -2.013229e+01
   9.180236e+01  -7.933072e+01
   8.757605e+01   2.760458e+01
  -9.155420e+01   1.254046e+02
  -2.290741e+02   5.869340e+01
  -2.955997e+02  -9.826116e+01
  -4.936085e+01  -2.673918e+02
   8.686480e+01  -2.024673e+02
   1.739024e+02  -6.523349e+01
   1.151763e+02   3.783893e+01
  -1.811893e+01  -7.304762e+00
  -4.763436e+00  -1.149278e+02
   7.252116e+01  -7.440418e+01
   2.225721e+02   2.349079e-01
   2.163697e+02   1.619444e+02
   2.168407e+01   2.414203e+02
  -2.181394e+02   1.310323e+02
  -2.296869e+02  -8.082840e+00
  -6.587094e+01  -1.800292e+02
   1.241760e+02  -9.676096e+01
   1.045947e+02  -4.663436e+01
   4.692092e+01   3.671373e+01
  -4.446987e+01   8.550127e+00
   8.188439e+00   5.111680e+00
   5.765618e+01  -1.716710e+01
   7.479111e+01   1.114382e+02
   6.878292e+00   1.849837e+02
  -1.365681e+02   1.257464e+02
  -2.173013e+02   5.027146e+01
  -2.132855e+02  -1.574083e+02
  -5.296619e+01  -2.377014e+02
   9.833629e+01  -1.822676e+02
   1.183387e+02   1.269150e+01
   7.073195e+01   5.730274e+01
   6.967606e+01   7.411676e+01
   9.509488e+01  -1.959219e+01
   8.414737e+01   1.296313e+01
  -5.434927e-01   4.310316e+01
  -9.314780e+01   7.467336e+01
  -9.197225e+01   3.175193e+01
  -5.806231e+01  -4.666263e+01
   6.937286e+01  -1.318149e+02
   1.451870e+02  -4.683232e+01
   1.974340e+02   7.451544e+01
   1.261768e+02   1.944046e+02
  -7.550107e+01   2.317102e+02
  -2.740359e+02   8.762440e+01
  -2.503089e+02  -8.544223e+01
  -1.148007e+02  -1.530892e+02
   3.759023e+01  -1.104882e+02
   8.452061e+01  -6.951152e+01
   8.534053e+01  -9.363941e+01
   8.455730e+01  -1.436235e+02
   8.251634e+01  -7.376425e+01
   1.564415e+02   1.413541e+01
   1.132957e+02   1.757769e+02
  -8.565600e+00   2.526186e+02
  -3.534045e+01   1.781497e+02
  -1.656565e+02   3.026351e+01
  -1.219368e+02  -1.336004e+02
  -2.596797e+01  -1.654828e+02
  -3.997612e-01  -9.002936e+01
   2.397357e+01  -9.532781e+00
   4.681675e+01   2.681692e+01
   2.918990e+01   2.863199e+01
   7.356899e+01   3.316828e+00
   1.441056e+02   3.826027e+01
   4.699458e+01   2.020290e+01
  -7.401585e+01  -9.589199e+00
  -1.025609e+02  -3.226829e+01
  -1.215389e+02  -4.470995e+01
  -2.981075e-01  -7.516622e+01
   1.134188e+02  -4.869752e+01
   1.081650e+02   2.265320e+00
   3.980194e+01   3.848065e+01
  -4.348633e+01  -2.754259e+00
  -1.004161e+02  -3.807345e+01
  -5.905937e+01  -6.344019e+01
   8.702703e+01  -1.018877e+01
   3.982721e+01  -3.296733e+01
   2.325689e+01   6.287123e+01
   3.516256e+01   3.699331e+01
   7.147813e+01   2.136626e+01
   8.616940e+01   5.072173e+01
   5.667974e+01   9.575486e+00
  -2.986579e+01   9.816594e+01
  -8.880274e+01   1.433625e+02
  -1.370879e+02   8.889471e+01
  -1.002716e+02  -4.598077e+01
  -4.509477e+01  -1.714802e+02
   8.775686e+01  -3.802260e+01
  -1.883823e+00   4.254894e+01
  -8.565362e+01   3.743405e+01
  -1.390348e+02  -3.869763e+01
  -6.762791e+01  -1.000290e+02
   1.111034e+02  -1.372328e+02
   2.241907e+02  -7.819818e+01
   2.205198e+02   3.531010e+01
   4.972951e+01   7.924435e+01
  -8.237334e+01   4.494775e+01
  -3.199674e+01  -4.781664e+01
   6.711551e+00  -2.149329e+01
   5.467429e+01   2.965079e+01
   7.571169e+01   1.354551e+02
  -9.977792e+01   1.814482e+02
  -1.816519e+02   8.438987e+01
  -1.329999e+02  -1.186521e+02
  -1.306810e+01  -1.734250e+02
   8.150385e+01  -1.812060e+02
   1.276600e+02  -5.251098e+00
   4.848452e+01   1.162883e+02
  -3.905859e+01   1.508031e+02
  -7.437460e+01   1.233407e+00
  -5.137278e+01   7.326348e+00
  -5.147482e+01  -2.790941e+01
  -2.592052e+01   3.567237e+01
  -1.663332e+01  -2.660885e+00
  -9.090967e+01  -1.344098e+02
  -4.681913e+01  -1.378561e+02
   9.876258e+01  -5.652202e+01
   1.905583e+02   6.011305e+01
   1.485629e+02   3.199686e+01
   2.848606e+01   2.803427e+01
  -1.049059e+02   4.634390e+00
  -1.214228e+02  -1.849866e+00
   6.228146e+00   2.536527e+01
   4.042300e+01  -2.282600e+00
   4.140877e+01  -1.627261e+01
   5.763907e+00  -2.131761e+01
   2.688664e+01   1.164384e+01
   1.103482e+02   3.721538e+01
   1.247854e+02   3.240951e+01
  -2.419714e+01   1.232539e+02
  -1.871333e+02   1.280323e+02
  -1.926523e+02   4.930917e+01
  -1.394916e+02  -9.222061e+00
  -1.893355e+01  -1.704737e+02
   5.876933e+01  -1.775841e+02
   1.175056e+02  -6.817337e+01
   8.290478e+01   3.178769e+01
   7.003832e+00   1.244539e+01
  -4.161830e+01   2.505692e+00
   3.590888e+01   6.760750e+00
   7.867785e+01   5.460997e+01
   8.161097e+01   8.477302e+01
  -5.071332e-01   1.337723e+02
  -1.209987e+02  -3.577155e+01
  -5.989199e+01  -1.287912e+02
   8.645971e+00  -9.359422e+01
   1.028979e+02  -1.841925e+01
   1.504970e+02   1.157105e+02
   7.013339e+01   1.088526e+02
  -9.030404e+01   4.603605e+01
  -1.173960e+02   2.284031e+01
  -4.080871e+01  -4.768518e+01
  -1.924672e+01  -3.498683e+01
  -2.715551e-01  -1.164094e+01
  -5.361237e+01   1.683273e+00
  -7.919671e+01  -2.369645e+00
  -7.156815e+00  -5.081656e+01
   8.758887e+01  -9.900104e+01
   1.117390e+02  -2.284555e+01
   4.693889e+01   1.039652e+01
  -1.832661e+01   5.323683e+01
  -8.216109e+01   4.157801e+01
  -3.221085e+01  -5.819265e+01
   3.756906e+01  -9.602776e+01
   2.748696e+01  -7.440238e+01
   4.715349e+01   8.136428e+00
   2.324358e+01   8.561462e+01
   3.530499e-02   1.509679e+01
  -1.541001e+01  -3.518812e+01
  -4.895924e+01  -6.064053e+00
   1.613711e+00   1.869119e+01
   2.185058e+01   2.329410e+01
   5.455641e+01  -1.458890e+01
  -4.741613e+01   9.454890e+00
  -2.046163e+01  -1.899076e+00
  -7.089842e+00   5.331588e+01
  -3.288616e+01  -2.137195e+00
  -2.026870e+01   4.373293e+01
  -5.209157e+01  -3.368511e+01
  -4.514578e+01  -3.625430e+01
  -3.031412e+01  -8.245534e+01
   4.060984e+01  -6.234857e+01
   9.116671e+01   2.174048e+01
   3.869098e+01  -1.047120e+01
   1.578929e+01   7.390162e+00
  -4.731851e+01   2.380180e+01
   1.019732e+01  -1.927443e+01
   3.425466e+01  -2.039993e+01
   5.667173e+01   3.444887e+01
   1.083428e+01   2.550186e+01
  -6.191470e+01   5.244689e+01
