
 $NMID
 id='ANONYMOUS ', fmtdat='(2E16.6)'
 volume=1.0
 tramp=1.0
 $END
  -1.743870e+03  -8.625245e+01
  -9.330433e+02  -1.029013e+03
   2.860191e+02  -1.188308e+03
   8.195438e+02  -3.712545e+02
   3.512684e+02   2.579390e+02
  -2.348038e+02   2.169412e+02
  -2.677008e+02  -1.985676e+02
   3.084121e+01  -3.784572e+02
   3.467824e+02  -2.248262e+02
   3.646591e+02   6.350835e+01
   1.517699e+02   3.265891e+02
  -1.189454e+02   3.128972e+02
  -1.560196e+02   1.420633e+01
  -1.732626e+02  -1.950098e+02
   4.640238e+01  -2.884608e+02
   2.136492e+02  -6.488332e+01
  -2.866104e+00   1.925086e+02
  -7.562206e+01   2.744270e+02
  -2.152137e+02   3.132315e+01
  -1.371401e+02  -1.722136e+02
   1.471537e+01  -1.943633e+02
   7.824027e+01  -1.242894e+02
   7.500888e+01   3.551556e+00
  -7.045862e+01   1.441863e+01
  -1.949306e+02  -9.445531e+01
  -1.406755e+01  -2.537664e+02
   1.875814e+02  -1.641348e+02
   3.229794e+02  -2.151619e+01
   1.697199e+02   2.205926e+02
  -1.344981e+02   1.799010e+02
  -3.322792e+02  -1.969512e+01
  -8.790148e+01  -2.112859e+02
   1.176673e+02  -1.340359e+02
   1.516529e+02  -7.438671e+01
   9.391092e+01   9.160676e+01
   3.776992e+01   1.634248e+02
  -6.133815e+01   7.431686e+01
  -5.483711e+01  -1.036027e+02
   1.178867e+02  -1.288140e+02
   1.568320e+02   4.722768e+01
   5.188053e+01   2.892034e+02
  -1.434843e+02   2.236812e+02
  -2.184595e+02  -3.303390e+01
  -5.804524e+01  -2.616216e+02
   1.445425e+02  -1.246112e+02
   1.434786e+02   1.791272e+02
  -5.169624e+01   2.617048e+02
  -2.541008e+02   8.223649e+01
  -2.345286e+02  -1.650793e+02
  -7.154908e+01  -2.414276e+02
   1.507930e+02  -1.095490e+02
   2.429773e+02   7.887539e+01
   9.610829e+01   1.861616e+02
  -6.776191e+01   1.056614e+02
  -1.665709e+02  -2.434284e+00
  -1.018900e+02  -3.709968e+01
   4.732330e+01  -2.586032e+01
   5.032659e+01   5.422087e+01
  -8.370947e+01   2.298143e+01
  -1.259541e+02  -8.185449e+01
  -4.287663e+01  -1.144436e+02
   1.501134e+02  -8.964952e+01
   1.609927e+02  -1.747858e+01
   7.264331e+01   6.166533e+01
  -3.541443e+01   1.205912e+02
  -1.386974e+02   1.224492e+02
  -1.165467e+02   7.990329e+01
  -1.335107e+02  -4.506135e+01
  -2.686042e+01  -1.901245e+02
   3.806518e+01  -2.239087e+02
   7.227035e+01  -5.959632e+01
   2.915900e+01   3.864558e+01
  -3.292256e+01  -3.428106e+01
   1.093718e+02  -7.708076e+01
   1.277841e+02   6.493137e+01
   6.335265e+01   1.509241e+02
  -6.463620e+01   1.381797e+02
  -9.537561e+01  -8.550725e+00
  -1.019147e+02  -1.025058e+02
  -1.183580e+01  -1.181015e+02
   5.196760e+01  -5.294547e+01
   1.319453e+02   9.988808e+01
   5.336595e+01   9.694123e+01
  -2.679128e+01   1.080241e+02
  -5.340634e+01   1.903240e+01
  -5.065108e+01  -5.768736e+01
  -4.937509e+01  -1.012610e+01
  -9.580998e+01   9.969355e+00
  -1.283514e+02   1.298796e+00
  -1.268723e+02  -9.418626e+01
   2.001807e+00  -1.903405e+02
   1.969228e+02  -1.752941e+02
   1.663332e+02  -6.984116e+01
   1.166440e+02   6.697941e+01
   2.119603e+00   1.535893e+02
  -6.992656e+01   1.018149e+02
  -4.887212e+01  -4.034685e+00
   7.606918e+01  -9.878020e+01
   1.026350e+02  -6.027349e+00
   5.901745e+01   6.661776e+01
  -6.904157e+01   1.147031e+02
  -6.836906e+01  -4.083570e+01
   1.511495e+01  -1.294508e+02
   9.072206e+01   3.924594e+01
   3.144148e+01   1.302987e+02
  -4.448998e-01   1.240882e+02
  -1.168443e+02   6.312824e+01
  -1.282129e+02  -6.520721e+01
  -1.056554e+02  -1.064870e+02
  -3.771402e+01  -8.302155e+01
   2.871999e+01  -2.501435e+01
   1.074552e+02   1.949196e+01
  -6.215122e+00  -2.780847e+00
  -5.459562e+01   5.186169e+00
   1.626641e+01  -4.950558e+01
   3.601290e+01  -1.931014e+01
   7.795051e+01   2.018764e+01
   6.058251e+00   8.215553e+00
  -5.390736e+00   1.820326e+01
  -2.633632e+01  -3.273262e+01
   4.908146e+01  -2.087986e+00
   1.417410e+02   3.068354e+00
   9.422576e+01   4.954270e+01
   5.364646e+01   1.197424e+02
  -7.613395e+01   1.025138e+02
  -1.197184e+02   3.311552e+01
  -4.966156e+01  -1.289440e+01
   1.264259e+01  -3.968821e+01
   3.401758e+01  -7.363220e+00
  -2.630736e+01   9.956690e+00
  -7.791517e+01   3.045296e+01
  -6.504579e+01  -3.303892e+01
  -5.462239e+01  -7.812437e+01
   7.538006e+01  -2.578672e+01
   6.653075e+01   9.242033e+00
  -3.370220e+01   5.621455e+00
  -2.531222e+01  -3.893761e+01
  -5.185287e+01  -6.154466e+01
   8.325537e+01  -2.109151e+01
   7.995587e+01   2.901362e+01
   5.523255e+01   7.478754e+01
   1.681444e+01   8.141613e+01
  -4.143395e+01   6.595964e+01
  -5.304818e+01  -6.991613e-01
  -3.351861e+00  -1.543550e+01
   1.968505e+01  -4.343832e+01
   2.052346e+01   3.254283e+00
  -2.686071e+01   2.099178e+01
  -5.803543e+00   9.403657e+00
  -9.736992e+00  -4.609997e-01
   2.298984e+01  -2.515064e+01
   3.032431e+01  -1.136569e+00
  -8.120378e+00   6.108682e+01
  -6.436185e+01   8.617200e+01
  -8.759564e+01  -3.616829e+01
  -3.768219e+01  -1.027414e+02
  -3.283472e+00  -8.311962e+01
   2.070653e+01  -7.087275e+01
   6.395290e+01  -4.489277e+00
   6.990893e+01   3.294071e+01
   9.127183e+00   4.321454e+01
   5.589280e+01   1.238042e+01
   4.032776e+01   2.011884e+01
   5.924235e+01   2.763522e+01
  -2.508337e+01   2.936077e+01
  -7.029795e+01   5.000169e+00
  -7.373850e+01  -1.960047e+01
   7.816368e-01  -3.115494e+01
   8.523133e+01  -2.181266e+01
   5.634392e+01   4.393912e+01
   2.828394e+01   8.977503e+01
  -3.187271e+01   6.925115e+01
  -1.170545e+02   2.253196e+01
  -9.492927e+01  -6.954170e+01
  -1.422737e+01  -6.201384e+01
   3.365624e+01  -3.207089e+01
   3.072304e+01  -1.836668e+01
  -1.017786e+01  -4.566449e+01
   5.969225e+01  -2.685049e+01
   3.666467e+01  -3.484988e+01
   1.144980e+00   4.329970e+01
   3.813871e+01   4.028965e+01
   6.617902e+00   7.745588e+01
  -5.900588e+01   7.096930e+01
  -5.677245e+01  -3.316266e+01
  -5.498419e+01  -5.587281e+01
   2.638997e+01  -3.234476e+01
   1.124446e+01  -1.154722e+01
   5.735097e+01  -1.399144e+01
   3.730235e+00   2.051368e+01
  -2.531095e+01   9.492410e+00
   1.934449e+01  -1.154525e+01
   3.202484e+01  -2.027424e+01
   2.142359e+01   7.441379e+00
  -4.259035e+01   1.689024e+01
  -7.330739e+01  -8.113192e+00
  -4.005573e+01  -1.910046e+01
  -4.027919e+00  -3.113027e+01
   2.807129e+01   5.540329e+00
   1.972192e+01   1.205847e+01
   5.258990e+01   5.532797e+01
  -7.115313e+00  -3.654407e+00
  -5.061273e+01   1.764341e+01
  -1.987316e+01  -4.128593e+01
   3.661289e+01  -6.965721e+00
   1.744817e+01   2.145430e+01
   3.191448e+01   8.926782e+00
   9.657139e+00   1.491677e-01
   5.354671e+01  -2.321095e+01
   9.292566e+01   1.143066e+01
   4.917777e+01   5.721636e+01
   9.410836e+00   5.512131e+01
  -5.066796e+01   5.970119e+01
  -4.736466e+01   2.417892e+01
  -7.930874e+01  -5.028440e+01
  -3.245744e+00  -5.009376e+01
   5.430547e+01   9.979521e+00
   1.682800e+01   2.753236e+01
  -2.918393e+01  -1.554770e+01
  -7.449995e+01  -2.553615e+01
  -7.128038e+00  -4.007503e+01
   3.378529e+01  -4.766732e+01
   8.657267e+01  -4.076014e+01
   6.494094e+01   4.144436e+01
  -5.357407e+00   5.423497e+01
  -2.907737e+01   2.863707e+01
  -4.939318e+01   1.251947e+01
   2.307267e+01  -1.238423e+01
   1.930492e+01  -9.825090e-01
  -1.242138e+01   4.708053e+01
  -5.311171e+01   5.020753e+01
  -1.024428e+02   6.447254e+00
  -6.205817e+01  -8.034768e+01
   1.314124e+01  -1.084811e+02
   7.792954e+01  -3.656660e+01
   8.478935e+01  -1.174510e+01
   4.506260e+01   6.269372e+01
   1.153932e+01   5.180585e+01
   1.505478e+01  -2.514364e+01
  -7.607235e+00  -1.662458e+00
  -1.069437e+01  -1.745928e+01
   2.467898e+01   1.518567e+01
   1.108387e+01  -2.872948e+01
  -3.302459e+01  -2.668664e+01
  -2.691872e+01  -5.715380e+01
   4.568233e+01  -5.484850e+00
   4.533890e+01   2.419543e+01
   3.072063e+01   4.425295e+01
   1.054229e+00   1.625544e+01
  -3.984253e+01   1.440513e+01
  -2.174024e+01   3.091939e+01
  -2.426305e+01   1.853519e+01
   5.862481e+00   1.825177e+01
  -9.117900e+00  -5.291730e+00
   1.179657e+01  -9.214399e+00
   3.567429e+01   1.778913e+01
   9.118399e-01   5.166239e+01
   2.057051e+01   2.998974e+01
  -1.339558e+01   4.873180e+01
  -5.599924e+01   3.616414e+01
  -6.602017e+01  -3.476794e+00
  -4.524974e+01  -9.538259e+00
  -1.051435e+01  -4.889276e+01
   6.980744e+01  -4.181417e+01
   2.918448e+01  -9.505943e+00
  -1.330179e+01  -5.481960e+00
  -6.241089e-01  -1.763040e+01
   2.011370e+01   4.289246e+01
   2.650341e+01   2.321601e+01
   2.856563e+01   2.380560e+01
   6.254350e+00   6.239223e+01
  -5.349747e+01   2.226171e+01
  -4.310266e+01  -3.660127e+01
  -1.947209e+01  -4.329724e+01
  -4.344221e+00  -3.313633e+01
   7.725801e+01   2.552237e+00
   8.036082e+01   5.771560e+01
   2.851977e+01   5.591591e+01
   3.820345e+00   1.234937e+00
  -6.748107e+01   2.214913e+00
  -3.340086e+01  -4.398916e+01
   3.687871e+01  -4.948000e+01
   8.915589e+00   5.567085e+00
  -3.805016e+01  -2.335412e+01
  -1.599404e+01  -2.744629e+01
  -8.034087e+00  -3.396004e+01
   4.075614e+01  -1.350157e+01
   6.030503e+01  -3.975861e+00
   1.987063e+01   4.292828e+01
   1.170529e-01  -5.122318e+00
  -2.079793e+01   3.840035e+01
   1.090044e+01  -4.339545e+00
  -2.168549e+01  -1.415432e+01
   1.305241e+01   3.513454e+00
  -1.389147e+01  -6.827495e+00
  -1.052465e+01   1.536867e+01
   6.911689e-01  -1.015708e+01
   2.111021e+01  -3.596724e+01
   2.458776e+01   1.465405e+01
  -4.740864e+00   1.148830e+01
   7.384542e+00   6.359014e+01
  -2.795299e+01   3.211075e+01
   5.301305e+01  -5.369501e+01
  -9.940870e+00   9.809269e+00
  -3.255297e+01   7.695630e+00
   2.872073e+01   4.832222e+01
   3.348797e+01   4.391059e+01
  -3.420058e-01   2.360993e+01
   7.553707e-01  -9.183361e+00
   1.589117e+00   2.894592e+00
   4.822214e+00  -1.082420e+01
   1.263789e+01   9.841692e-01
   1.188886e+01   1.732180e+01
  -9.131778e+00  -6.515353e+00
  -2.840048e+01   1.822422e+01
  -2.887060e+01  -1.446858e+01
   2.050665e+01   6.026416e+00
   4.883351e+01   2.299093e+01
  -9.816584e+00  -2.786778e+00
  -3.025479e+01  -1.723336e+00
