
 $NMID
 id='ANONYMOUS ', fmtdat='(2E16.6)'
 volume=1.0
 tramp=1.0
 $END
   4.699128e+03  -2.151260e+02
   2.533879e+03   2.737655e+03
  -8.014501e+02   2.941733e+03
  -2.376472e+03   1.005799e+03
  -1.151828e+03  -9.698220e+02
   8.730854e+02  -6.994982e+02
   9.933481e+02   4.695674e+02
   7.072999e+01   1.230193e+03
  -8.933802e+02   8.703968e+02
  -1.061079e+03  -1.752865e+02
  -3.914399e+02  -9.802063e+02
   2.570652e+02  -9.915374e+02
   6.368377e+02  -7.100742e+01
   4.292695e+02   7.622134e+02
  -3.727550e+02   8.247688e+02
  -7.233661e+02  -2.796649e+01
  -9.686485e+01  -7.247442e+02
   4.019078e+02  -6.220076e+02
   6.100826e+02  -4.463742e+01
   4.448234e+02   3.952502e+02
   3.243532e+00   5.058115e+02
  -2.991388e+02   3.011780e+02
  -1.780960e+02   6.814577e+00
   1.110452e+02  -2.235082e+02
   5.015392e+02   7.143443e+01
   2.382672e+02   4.643517e+02
  -4.636474e+02   4.872773e+02
  -9.276788e+02  -2.714813e+01
  -5.474021e+02  -5.858368e+02
   4.780977e+02  -5.308720e+02
   8.067907e+02   3.729013e+01
   4.039241e+02   5.286510e+02
  -3.124889e+02   5.552588e+02
  -6.398546e+02   1.997005e+02
  -3.886866e+02  -2.032042e+02
  -1.028341e+02  -5.107407e+02
   1.908843e+02  -3.304812e+02
   2.582871e+02   1.948567e+02
  -1.436311e+02   5.143528e+02
  -4.615864e+02   1.526127e+01
  -2.707568e+02  -7.456828e+02
   3.487907e+02  -7.532265e+02
   6.514594e+02  -1.380628e+01
   3.502889e+02   6.296121e+02
  -2.665741e+02   3.716021e+02
  -4.252857e+02  -2.725194e+02
   3.007582e+01  -6.176746e+02
   5.423088e+02  -2.188188e+02
   5.984710e+02   4.655767e+02
   1.900883e+02   5.968122e+02
  -4.122676e+02   3.443436e+02
  -6.376379e+02  -5.965605e+01
  -3.779869e+02  -3.666984e+02
   1.426108e+02  -3.909357e+02
   4.470141e+02  -5.109236e+00
   2.198158e+02   2.200711e+02
  -1.458944e+02   9.401381e+01
  -1.205832e+02  -1.682482e+02
   2.424133e+02  -2.528423e+02
   3.858047e+02   8.587481e+01
   1.446314e+02   3.248944e+02
  -2.042325e+02   2.455558e+02
  -3.009803e+02   4.751744e+01
  -1.434995e+02  -6.327851e+01
   3.525378e+01  -1.822577e+02
   1.651654e+02  -3.339597e+02
   2.728591e+02  -1.624753e+02
   3.117409e+02   1.637216e+02
   8.823223e+01   4.152843e+02
  -1.937684e+02   4.095900e+02
  -1.680913e+02   5.306685e+01
  -8.503717e+01  -4.825767e+01
  -2.684528e+01   4.047973e+01
  -1.422321e+02   1.234787e+02
  -2.412804e+02  -5.580147e+01
  -1.838641e+02  -3.241203e+02
   5.785031e+01  -3.117211e+02
   2.520134e+02  -2.336223e+01
   2.672019e+02   3.036734e+02
   5.422260e+01   3.511454e+02
  -2.798404e+02   1.347882e+02
  -3.613968e+02  -2.010786e+02
  -1.970827e+02  -3.674180e+02
   7.989495e+01  -3.046327e+02
   2.443557e+02  -1.393310e+02
   1.315331e+02  -2.323854e+01
   8.356962e+01  -4.742569e+01
   2.480480e+02  -7.981500e+01
   3.845296e+02   8.141779e+01
   3.238157e+02   2.435901e+02
   9.280647e+00   4.327862e+02
  -2.962848e+02   4.116086e+02
  -4.536460e+02   2.226713e+02
  -3.533986e+02  -6.380136e+01
  -7.213004e+01  -3.124759e+02
   9.892261e+01  -2.811428e+02
   1.843970e+01  -5.859563e+01
  -6.659890e+01   1.197935e+02
  -1.675903e+02   6.078321e+01
  -2.226494e+01  -1.880460e+02
   2.139867e+02  -1.856624e+02
   1.764230e+02   3.852241e+01
   1.898543e+01   2.097576e+02
  -2.106983e+02   8.804567e+01
  -1.696014e+02  -2.340325e+02
  -6.485379e+00  -3.222271e+02
   2.113667e+02  -1.478611e+02
   3.205647e+02   2.637119e+01
   3.103328e+02   2.051304e+02
   1.188824e+02   2.662600e+02
  -1.659775e+02   1.736176e+02
  -2.188027e+02   2.317840e+01
  -1.167148e+02  -4.953994e+01
   4.697644e+01  -7.861281e+00
   4.624626e+01   1.815157e+02
  -1.227917e+02   7.016848e+01
  -1.954194e+02  -7.478991e+00
  -7.023223e+01  -1.278259e+02
   7.935594e+01  -4.956471e+01
   5.153974e+01   5.555476e+01
  -1.364274e+02   1.617142e+02
  -2.294201e+02   8.076740e+00
  -2.844626e+02  -6.699615e+01
  -7.549857e+01  -2.835684e+02
   1.569718e+02  -3.196845e+02
   2.475691e+02  -1.345775e+02
   1.653055e+02   7.141943e+01
  -2.217310e+01   1.295361e+02
  -6.503891e+01  -2.170423e+01
   1.531674e+01  -1.172148e+02
   2.140539e+02  -6.782001e+01
   2.125785e+02   1.416393e+02
   8.082015e+01   2.122080e+02
  -9.802781e+01   1.967907e+02
  -1.571269e+02   2.356893e+01
  -7.324796e+01  -5.034082e+01
  -1.488883e+01  -6.598947e+00
   6.617633e+01   6.735330e+01
  -5.245120e+01   8.251719e+01
  -1.884381e+02   3.490199e+01
  -1.813011e+02  -1.407408e+02
  -3.585735e+01  -2.399643e+02
   1.683026e+02  -1.782825e+02
   2.685072e+02  -1.722303e+01
   1.360561e+02   1.531653e+02
  -7.854246e+01   9.144856e+01
  -9.697063e+01   2.844764e+01
  -2.363801e+01  -6.328876e+01
   1.759499e+01  -2.528340e+00
  -1.896917e+00  -1.132265e+01
  -1.432069e+01   5.231421e-01
  -7.777708e+01  -5.933948e+01
  -3.588914e+01  -1.751160e+02
   9.614252e+01  -1.541528e+02
   2.606851e+02  -1.832566e+00
   2.149422e+02   1.864393e+02
   3.337526e+01   2.534235e+02
  -1.494834e+02   1.870226e+02
  -1.393139e+02   5.937670e+01
  -9.998058e+01  -7.406592e+01
  -1.299950e+01  -3.989728e+01
  -9.830251e+01   8.103290e+00
  -9.467258e+01   2.521490e+00
  -3.919221e+01  -4.350548e+01
   6.601666e+01  -2.007589e+01
   1.080228e+02  -5.678879e+01
   1.036318e+02   3.402167e+01
  -2.742025e+01   1.696061e+02
  -1.370027e+02   8.125162e+01
  -2.078451e+02  -4.668308e+01
  -1.037255e+02  -2.101914e+02
   1.125250e+02  -2.561982e+02
   2.806895e+02  -1.148103e+02
   2.489591e+02   7.325324e+01
   1.602553e+02   1.483110e+02
  -9.501530e+01   1.581073e+02
  -1.063669e+02   9.870042e+01
  -1.265177e+02   6.399627e+01
  -6.810944e+01   7.800828e+01
  -9.594799e+01   5.376828e+01
  -1.185208e+02  -1.095451e+01
  -1.099062e+02  -1.328849e+02
  -6.806679e+01  -1.768813e+02
   4.018701e+01  -1.868591e+02
   2.029731e+02  -1.658583e+01
   1.738581e+02   1.413275e+02
   4.420229e+01   1.725765e+02
  -5.535195e+01   1.101610e+02
  -8.965550e+01   4.775132e+00
  -5.392015e+00  -4.503134e+01
  -2.244442e+00   8.306599e-01
  -6.496433e+01  -1.520464e+01
  -9.773280e+01  -4.474247e+01
  -6.349551e+01  -5.887698e+01
   1.149972e+02  -9.910665e+00
   1.407379e+02   9.232947e+00
   1.378505e+02   5.860756e+01
   1.925885e+01   8.220612e+01
  -1.171452e+02   7.584607e+01
  -1.518678e+02   2.562221e+01
   9.363369e+00  -4.231832e+01
   4.481297e+01  -4.315320e+01
   6.479010e+01  -1.502458e+01
   8.307959e+00   7.151119e+01
  -4.051247e+00   2.430684e+01
  -5.705388e+01  -2.477190e+00
  -2.081595e+01  -1.546412e+01
  -5.558721e+01   6.225837e+00
  -7.513237e+01   3.627891e+01
  -1.155569e+02  -2.983255e+01
  -1.961250e+01  -1.038343e+02
   3.234047e+01  -1.410464e+02
   1.208465e+02  -1.357536e+02
   1.573367e+02  -5.377241e+01
   1.193466e+02   9.893693e+01
   3.684293e+01   1.474555e+02
  -6.962331e+01   7.759749e+01
  -5.033625e+01  -4.686655e+01
   7.283266e+01  -2.452180e+01
   1.752287e+02   8.892774e+01
   6.479165e+01   1.126313e+02
  -9.355514e+01   8.492039e+01
  -1.470717e+02   3.980551e+01
  -1.765105e+02  -2.511932e+01
  -5.693749e+01  -5.294521e+01
   3.349488e+01  -9.025866e+01
   2.820872e+00  -6.719774e+01
   1.304886e+00   2.713224e+01
  -6.875123e+01  -4.227014e+01
  -3.349331e+01  -1.028380e+02
   8.137327e+01  -9.978685e+01
   1.662107e+02  -7.748200e+01
   1.561559e+02   9.322330e+01
  -2.844384e+01   2.289407e+02
  -7.878086e+01   1.293870e+02
  -1.444170e+02  -3.249599e+01
  -9.039148e+01  -1.051763e+02
  -3.857897e+01  -1.210398e+02
   1.647611e+01  -2.961755e+01
   3.133791e+01   3.543601e+01
   2.714597e+01   1.187252e+01
  -2.810818e+00  -7.599973e+01
   6.046673e+00   1.838381e+01
   5.986170e+01   1.145739e+02
   3.319568e+01   9.256584e+01
  -3.066051e+01   4.220758e+01
  -1.056937e+02  -5.547825e+01
  -9.339572e+01  -3.643473e+01
   1.803540e+01  -1.036599e+02
   9.451639e+01  -7.683463e+01
   9.532882e+01  -1.930640e+01
   2.380233e+01  -5.966359e+00
   1.794563e+01   3.797018e+00
  -2.063225e+01   4.185148e+01
   3.909888e+01   7.619489e+01
  -2.143011e+01  -2.111759e+00
  -1.046849e+02  -4.252663e+01
  -1.173735e+02  -5.825551e+01
  -6.168368e+00  -1.063126e+02
   1.697442e+02  -9.878363e+01
   1.593832e+02  -5.888429e+01
   1.508554e+02   9.350775e+01
   2.730520e+00   1.405071e+02
  -4.981066e+01   1.715687e+02
  -1.100558e+02   4.373160e+01
  -1.244883e+02  -3.589837e+01
  -1.316086e+01  -2.944508e+01
  -2.198304e+01  -3.556009e+00
  -4.772976e+00   2.894250e+01
  -9.724708e+00  -3.455099e+01
   1.363082e+01  -5.480554e+01
   7.015672e+00  -9.357124e+01
   8.149102e+01   1.501986e+01
   7.166898e+01   1.341697e+02
  -2.852932e+01   7.646873e+01
  -6.221668e+01  -2.486458e+00
  -9.395081e+01  -1.078510e+02
  -6.689010e+00  -1.379734e+02
   5.642888e+01  -3.508275e+01
   1.080764e+02   4.883203e+01
   2.110376e+01   5.962868e+01
  -3.098925e+01   5.363503e+01
  -5.841601e+01   4.339650e+01
   5.828305e+01  -4.386165e+00
   1.015646e+02  -1.221214e+01
   3.210142e+01  -1.084768e+01
  -4.788666e+01   9.203652e+01
  -9.385698e+01   3.797785e+01
  -3.803465e+01  -2.718456e+00
   5.964486e+01  -7.638095e+01
   7.830428e+01  -7.753007e+01
   3.622597e+01   1.406496e+01
  -5.668338e+01   2.931803e+01
  -5.781886e+01   3.203302e+01
  -4.514861e+01   2.136754e+01
  -3.725445e+01  -7.730977e+01
   1.952772e+01  -5.836417e+01
  -1.559656e-01   4.608652e+01
   2.317704e+01  -1.812637e+01
  -1.008753e+01  -1.331582e+01
   2.965307e+01  -7.754002e+01
  -5.915629e+01   1.084000e+01
  -5.418124e+01   1.459348e+01
  -2.777612e+01   3.163986e+01
  -2.785704e+01   1.342583e+01
   1.194422e+01  -2.032478e+01
  -7.985204e-01  -6.949362e+01
   6.871530e+01   1.184223e+01
   1.713418e+01   3.576197e+01
  -6.460281e+00   8.045276e+01
  -5.323598e+01   5.410120e+01
  -2.950884e+01  -1.533209e+01
  -4.828584e+01  -1.844174e+01
   2.461875e+01  -4.734144e+01
   5.755102e+01  -4.183421e+01
   3.806228e+01   1.233750e+01
  -3.941134e+01   3.953197e+01
  -4.217334e+01  -5.565624e+00
   4.267012e+01  -8.474652e+00
   7.152703e+01  -1.462321e+01
