
 $NMID
 id='ANONYMOUS ', fmtdat='(2E16.6)'
 volume=1.0
 tramp=1.0
 $END
  -3.118460e+03  -3.623086e+02
  -1.892568e+03  -1.756391e+03
   3.272853e+02  -1.958231e+03
   1.353695e+03  -9.886025e+02
   7.611078e+02   1.604788e+02
  -2.665371e+02   3.413226e+02
  -5.501265e+02  -2.504483e+02
  -5.040191e+01  -7.165942e+02
   6.079261e+02  -5.562294e+02
   6.330198e+02   4.593923e+01
   2.860199e+02   5.483721e+02
  -2.128534e+02   5.673260e+02
  -4.191301e+02  -6.396217e+00
  -2.986324e+02  -4.612405e+02
   1.205454e+02  -5.358847e+02
   4.102926e+02  -2.696483e+01
   3.015664e+02   4.874840e+02
  -1.097290e+02   4.552256e+02
  -3.665626e+02   1.370583e+02
  -3.070442e+02  -2.343504e+02
  -9.650607e+01  -3.485725e+02
   9.429061e+01  -1.830853e+02
   1.115156e+02  -2.771645e+01
  -5.740669e+01  -5.573503e+01
  -2.829590e+02  -1.499142e+02
  -8.647713e+01  -3.569827e+02
   3.396024e+02  -2.287660e+02
   5.709751e+02   9.148749e+01
   2.820443e+02   3.663386e+02
  -3.105000e+02   2.246650e+02
  -5.747465e+02  -7.430742e+01
  -1.839753e+02  -3.307926e+02
   2.199802e+02  -2.564134e+02
   3.282493e+02  -1.087473e+02
   2.345838e+02   1.227221e+02
   7.197917e+01   2.870546e+02
  -1.027181e+02   2.407713e+02
  -1.061067e+01  -7.956670e+01
   1.048895e+02  -2.099735e+02
   2.242977e+02   6.852462e+01
   9.965399e+01   4.543611e+02
  -2.094815e+02   4.830111e+02
  -3.751867e+02   3.159954e+01
  -1.606386e+02  -3.395198e+02
   1.668757e+02  -1.858625e+02
   2.328223e+02   2.007510e+02
  -1.030539e+02   3.474684e+02
  -3.880528e+02   5.285499e+01
  -4.132021e+02  -2.744733e+02
  -1.261674e+02  -4.633718e+02
   2.939958e+02  -2.106294e+02
   4.589623e+02   3.954185e+01
   2.643394e+02   2.373103e+02
  -8.203815e+01   2.506860e+02
  -2.707899e+02   7.841805e+01
  -2.255841e+02  -9.503261e+01
   4.087933e+01  -5.896031e+01
   4.132342e+01   4.931679e+01
  -8.751425e+01   9.758084e+01
  -1.784885e+02  -5.955110e+01
  -1.102270e+02  -1.844233e+02
   1.258580e+02  -1.873596e+02
   2.486102e+02  -5.697295e+01
   1.687291e+02   1.063115e+02
  -6.550858e+00   1.913088e+02
  -1.339676e+02   2.723159e+02
  -3.014667e+02   1.631340e+02
  -1.939254e+02  -7.418720e+01
  -6.748521e+01  -3.161454e+02
   1.120664e+02  -2.418231e+02
   9.958854e+01  -5.050086e+01
   3.840079e+01   3.578009e+01
   8.448802e+01  -4.789659e+01
   1.742887e+02  -7.074684e+01
   2.024314e+02   4.771460e+01
   6.895239e+01   2.318488e+02
  -8.481786e+01   1.683104e+02
  -1.503589e+02  -1.048372e+02
  -8.338564e+01  -1.917661e+02
   8.939574e+01  -2.056992e+02
   2.210151e+02  -5.975422e+01
   2.241559e+02   1.784938e+02
   1.342174e+02   2.183843e+02
  -1.028157e+02   2.061231e+02
  -1.586819e+02   1.112535e+02
  -1.570257e+02   7.126478e+01
  -1.680175e+02   5.904768e+01
  -1.903066e+02   2.024223e+01
  -3.555456e+02  -9.305053e+01
  -2.562561e+02  -2.666786e+02
   7.006141e+00  -3.473277e+02
   2.849774e+02  -2.771595e+02
   4.217498e+02  -7.063079e+01
   2.444247e+02   1.115565e+02
  -1.995690e+01   2.356905e+02
  -1.130930e+02   1.829313e+02
  -4.274140e+01   5.865445e+01
   9.227457e+01  -5.927948e+01
   1.005322e+02   3.476964e+01
   1.599695e+01   1.288281e+02
  -9.059575e+01   1.331752e+02
  -1.334009e+02  -6.491432e+01
   4.993954e+01  -1.173157e+02
   1.857706e+02   4.907128e+01
   1.528469e+02   2.345774e+02
  -5.091570e+01   3.230029e+02
  -1.999462e+02   1.513587e+02
  -2.824746e+02  -8.347833e+01
  -2.225646e+02  -1.830095e+02
  -1.520662e+01  -2.067354e+02
   8.269540e+01  -1.085947e+02
   1.122397e+02   3.998055e+00
   3.513589e+01   2.363235e+01
  -2.907067e+00  -8.938180e+01
   4.426016e-01  -6.670771e+01
   8.556192e+01  -6.832221e+01
   9.261350e+01   6.626498e+01
   1.858070e+01   5.985483e+01
  -1.095460e+02   1.117170e+01
  -2.112744e+01  -5.545818e+01
   1.382863e+02  -7.326015e+01
   2.268391e+02   2.392764e+01
   1.995304e+02   1.310162e+02
   2.218531e+01   2.029485e+02
  -1.607972e+02   1.943196e+02
  -2.289056e+02   8.861230e+01
  -1.703684e+02  -2.722095e+01
   5.559087e+01  -9.855181e+01
   7.125752e+01  -3.112625e-01
  -3.975367e+01   7.795608e+01
  -1.422388e+02   4.101893e+00
  -1.281620e+02  -7.116833e+01
  -3.975514e+01  -1.361921e+02
   9.884928e+01  -7.336606e+01
   1.369225e+02   8.315981e+00
   4.289074e+01   5.626623e+01
  -5.213925e+01  -1.342139e+01
   1.512153e+01  -1.320318e+02
   1.111229e+02  -8.100648e+01
   1.599317e+02   4.629796e+01
   1.262660e+02   6.227711e+01
  -1.495370e+01   1.874587e+02
  -1.210275e+02   1.105962e+02
  -1.565008e+02  -3.676851e+01
  -4.545865e+01  -1.061141e+02
   6.359638e+01  -1.303170e+02
   3.363767e+01   2.312366e+00
  -4.614023e+00   1.877772e+01
  -2.392526e+01  -1.833809e+01
   1.095072e+01   2.162085e+00
   8.903142e+01  -4.357979e+01
   7.775822e+01   6.598150e+01
   1.650204e+01   1.645767e+02
  -1.666010e+02   1.410770e+02
  -2.341287e+02  -3.799139e+00
  -1.573379e+02  -1.220306e+02
  -6.969659e+00  -1.756921e+02
   9.919761e+01  -1.347290e+02
   9.978900e+01   2.535618e+01
   4.741797e+01   1.827357e+01
   2.022557e+01   3.950000e+00
   7.414114e+01   7.220793e+00
   5.727393e+01   2.862934e+01
   3.621425e+01   6.912793e+01
  -6.185255e+01   5.268030e+01
  -8.833848e+01   3.827617e+00
  -3.648490e+01  -6.894182e+00
   1.531538e+01  -1.206727e+02
   1.557338e+02  -9.309604e+01
   2.159049e+02   3.896971e+01
   1.294534e+02   1.848530e+02
  -9.127912e+01   1.898336e+02
  -2.058272e+02   5.290372e+01
  -2.234513e+02  -6.268047e+01
  -9.819966e+01  -1.409958e+02
   6.269290e+01  -9.330862e+01
   8.219537e+01  -8.906975e+01
   4.524819e+01  -3.717906e+01
   1.109356e+01  -1.105033e+02
   5.962963e+01  -7.170180e+01
   1.215955e+02   5.668766e+01
   8.073279e+01   1.467219e+02
   1.311058e+01   1.516011e+02
  -8.904927e+01   1.184262e+02
  -1.668021e+02   1.498052e+01
  -1.064603e+02  -1.307220e+02
  -2.890567e+01  -1.367554e+02
   1.116801e+02  -8.147657e+01
   4.405964e+01  -1.646170e+01
   8.349542e+00  -1.702908e+01
   1.210920e+01   3.777363e+01
   3.916503e+01   3.333001e+01
   6.322182e+01   9.119717e+01
   6.054912e+01   5.035655e+01
  -2.789711e+01   6.530941e+01
  -1.306756e+02   1.176139e+01
  -1.093056e+02  -5.277649e+01
   1.591022e+01  -4.289559e+01
   9.720556e+01  -3.089226e+01
   8.998130e+01   3.529625e+01
   3.085910e+01   3.107479e+01
  -5.263871e+01   2.251362e+00
  -2.809458e+00  -1.005140e+01
  -3.241886e+01  -4.496196e+01
   2.217081e+01  -3.395993e+01
   5.726761e+01  -4.705983e+01
   2.976458e+01   1.163283e+01
   6.375415e+01   2.733547e+01
   1.886875e+01  -3.860436e+00
   5.832443e+01   1.921562e+01
   1.304170e+01   1.694185e+01
  -1.793817e+01   1.546790e+02
  -5.178017e+01   1.009793e+02
  -1.914622e+02  -4.069832e+01
  -1.524751e+02  -8.537959e+01
  -1.509647e+01  -1.191518e+02
   9.113648e+01  -9.061752e+01
   9.967301e+01   7.995281e-01
  -2.979791e+01   2.862085e+01
  -6.701579e+01  -5.297884e+01
  -5.162746e+01  -9.805119e+01
   1.098980e+02  -6.268749e+01
   7.675618e+01  -3.815903e+01
   1.296005e+02   4.956576e+01
   1.393628e+01   7.096403e+01
  -3.843147e+01   8.753668e+01
  -1.405360e+01   3.392537e+01
   5.981516e+01   7.263485e-01
   2.738182e+01   8.908123e+00
   2.887896e+01   1.765156e+01
  -5.023273e+01   9.384599e+01
  -1.438175e+02   5.324553e+01
  -6.529123e+01  -4.583359e+01
   3.230431e+01  -1.358166e+02
   8.155248e+01  -1.112915e+02
   1.198942e+02  -1.427661e-01
   2.605261e+01   7.439689e+01
  -5.855233e+01   1.005042e+02
  -2.525127e+01   1.211807e+01
  -2.424604e+01  -1.655772e+01
  -1.194963e-01  -1.807471e+01
  -1.965666e+01   2.341941e+01
  -1.560496e+01   4.087392e+01
  -6.216073e+01  -8.017246e+01
  -5.409309e+01  -9.599632e+01
   2.843908e+01  -2.518187e+01
   6.036292e+01   3.335161e+01
   9.745686e+01   1.180944e+00
   1.299770e+01   2.453899e+00
  -7.546612e+01   2.798507e+01
  -6.744011e+01   3.050293e+01
   4.241859e+01   4.850755e+01
   1.822643e+01  -3.605720e+01
   1.850795e+00  -2.816683e+01
  -5.256865e+01  -4.620729e+01
  -2.364260e+00   2.102903e+01
   8.715531e+01   1.052794e+01
   7.251708e+01   2.650267e+01
  -1.104976e+01   7.962645e+01
  -8.975947e+01   7.277549e+01
  -1.245742e+02   3.293672e+01
  -1.403878e+02  -5.431424e+01
  -1.326963e+01  -9.280257e+01
   1.260454e+02  -1.314470e+02
   8.219959e+01  -5.701807e+01
   4.521312e+01  -6.596067e+00
   1.488894e+01   2.751899e+01
   3.562277e+01   1.032448e+01
   5.175851e+01   2.977786e+01
  -2.337031e+01   6.324194e+01
  -2.325030e+00   7.704872e+01
  -2.455044e+01   7.065905e+01
  -6.400826e+01  -2.793019e+01
  -3.990197e+01  -8.589885e+01
   1.273312e+01  -9.225941e+01
   5.760131e+01  -5.059772e+01
   1.085954e+02   7.150052e+01
   4.056279e+01   8.582708e+01
  -1.084172e+02   4.281263e+01
  -1.403548e+02  -1.050845e+01
  -3.621535e+01  -1.932139e+01
   4.179402e+01  -3.469853e+01
   2.303047e+01  -2.829007e+01
  -1.941714e+01   3.909859e+01
  -5.093100e+01   7.125614e-01
  -2.140482e+01  -2.095029e+01
   7.890282e+01  -4.524945e+01
   9.365660e+01  -5.788466e+01
   3.851361e+01  -3.322698e+01
   1.960487e+00   8.719302e+01
  -1.769104e+01   7.369035e+01
  -3.921895e+01   4.349309e+01
  -5.081231e+01  -4.349881e+01
  -5.227089e+00  -9.429937e+01
   1.087186e+01  -4.657766e+00
   2.075535e+01   2.313687e+01
   3.920688e+01   1.350528e+01
  -5.507692e+00   5.007156e+01
  -2.388050e+01   3.437833e+01
  -2.330669e+01   2.301417e+01
   2.178501e+01  -1.515449e-01
  -3.443309e+01  -4.922333e-01
   6.392543e-01  -2.034843e+01
  -3.586855e+01  -4.702753e+01
   6.656595e+01  -2.220245e+01
   2.751967e+01  -1.020580e+00
  -1.008807e+01   6.801026e+01
  -7.942182e+01   4.276602e+00
  -7.698760e+01  -2.465365e+01
  -1.950345e+01  -3.476158e+01
   3.103604e+01  -3.350459e+01
   9.102704e+01  -1.827936e+01
   1.732820e+00   4.747337e+01
   2.209018e+01   2.778813e+01
  -3.952658e+01  -1.044966e+00
  -2.406866e+01   1.875097e+01
   1.626426e+01  -9.387868e+00
  -5.778823e+00  -2.987416e+00
   6.195519e+00   3.670678e+01
  -6.625772e+01  -5.663384e+00
