
 $NMID
 id='ANONYMOUS ', fmtdat='(2E16.6)'
 volume=1.0
 tramp=1.0
 $END
  -4.548493e+03   9.494929e+00
  -2.481964e+03  -2.711892e+03
   9.257791e+02  -2.685036e+03
   2.271084e+03  -5.195015e+02
   7.876677e+02   9.629066e+02
  -7.550107e+02   5.217200e+02
  -8.902165e+02  -5.635912e+02
   1.502754e+02  -1.041775e+03
   9.205488e+02  -6.602529e+02
   9.366447e+02   1.407806e+02
   3.386727e+02   9.604932e+02
  -3.373927e+02   9.080925e+02
  -6.275728e+02   7.595278e+01
  -3.462564e+02  -7.147672e+02
   2.704654e+02  -7.529891e+02
   5.519290e+02   6.181349e+01
   2.551969e+02   7.271533e+02
  -3.398110e+02   5.395215e+02
  -5.381846e+02  -5.007652e+01
  -2.818558e+02  -3.987275e+02
   1.660660e+01  -4.547855e+02
   3.414164e+02  -2.137305e+02
   2.241443e+02   4.157233e+01
  -2.117088e+02   7.781602e+01
  -4.166350e+02  -1.336088e+02
  -1.412134e+02  -4.613262e+02
   5.624095e+02  -4.104656e+02
   8.592665e+02   1.171232e+02
   3.594750e+02   5.448266e+02
  -4.689046e+02   4.620093e+02
  -7.884687e+02  -1.208676e+02
  -2.914935e+02  -5.181876e+02
   3.300191e+02  -4.905004e+02
   5.771790e+02  -1.846660e+02
   4.325162e+02   2.769149e+02
  -1.522478e+01   5.498580e+02
  -2.674466e+02   2.745223e+02
  -1.794695e+02  -2.692363e+02
   2.047969e+02  -4.612735e+02
   4.506323e+02   3.691988e+01
   1.716010e+02   7.490095e+02
  -4.280049e+02   6.658078e+02
  -6.112726e+02  -7.025246e+01
  -1.801689e+02  -6.438768e+02
   3.491040e+02  -3.749808e+02
   4.111437e+02   3.215243e+02
  -4.999846e+01   5.685174e+02
  -4.940329e+02   1.449893e+02
  -5.978891e+02  -3.812958e+02
  -1.697014e+02  -5.852673e+02
   4.025737e+02  -3.228078e+02
   6.090157e+02   1.028680e+02
   3.054977e+02   4.206087e+02
  -2.041949e+02   3.677472e+02
  -4.440662e+02   4.690754e-01
  -2.328753e+02  -2.657772e+02
   1.149852e+02  -1.522816e+02
   1.308148e+02   1.441296e+02
  -1.926122e+02   1.553353e+02
  -3.179700e+02  -9.412933e+01
  -1.299573e+02  -2.706845e+02
   1.879328e+02  -2.414085e+02
   2.844837e+02  -5.269755e+01
   1.756165e+02   6.670316e+01
  -2.116141e+01   1.969390e+02
  -2.041138e+02   3.099561e+02
  -3.155762e+02   2.341793e+02
  -3.009559e+02  -1.316813e+02
  -1.007235e+02  -4.445944e+02
   1.263928e+02  -3.962738e+02
   1.228885e+02  -1.120968e+02
   4.683796e+00   2.386000e+01
   4.118497e+01  -1.286488e+02
   1.877720e+02  -1.241348e+02
   3.226802e+02   6.638681e+01
   1.942708e+02   2.706893e+02
  -7.310275e+01   2.717459e+02
  -2.329607e+02  -2.506564e+01
  -2.130269e+02  -2.970996e+02
   3.564977e+01  -2.798515e+02
   3.099571e+02  -7.897125e+01
   3.684667e+02   1.984586e+02
   1.418571e+02   4.108201e+02
  -1.157367e+02   3.575849e+02
  -2.415685e+02   1.553217e+02
  -1.845064e+02  -6.411452e+01
  -1.056668e+02  -4.382033e+01
  -2.346223e+02   5.401437e+01
  -3.321879e+02  -6.182885e+01
  -2.463924e+02  -2.803165e+02
   7.807726e+01  -4.129021e+02
   3.426936e+02  -3.573142e+02
   4.637500e+02  -1.445862e+02
   3.633556e+02   1.746155e+02
   2.338389e+01   3.414261e+02
  -2.268050e+02   2.271898e+02
  -1.522034e+02  -2.747513e+01
   7.864861e+01  -1.249515e+02
   2.323049e+02  -2.096695e+01
   1.374349e+02   1.680870e+02
  -1.601819e+02   1.890516e+02
  -2.167270e+02  -1.119570e+02
   1.049943e+01  -2.462762e+02
   1.612846e+02  -2.048613e+01
   1.933464e+02   2.287835e+02
  -7.757915e-02   3.457853e+02
  -2.361654e+02   2.186126e+02
  -3.009460e+02  -2.603566e+01
  -2.314898e+02  -2.333052e+02
  -6.696991e+01  -2.843572e+02
   7.660517e+01  -1.397085e+02
   1.603415e+02   1.217395e+00
   4.920495e+01   4.188668e+01
  -6.195355e+01  -2.990342e+01
  -9.098288e+00  -1.337899e+02
   1.111331e+02  -1.342435e+02
   1.249826e+02  -2.474203e-01
   5.663831e+01   7.803623e+01
  -7.060887e+01   2.180005e+01
  -3.560945e+00  -5.167962e+01
   1.503669e+02  -9.224492e+01
   3.129484e+02   1.044597e+01
   2.328408e+02   1.299596e+02
   2.672787e+01   2.372128e+02
  -1.802886e+02   2.578167e+02
  -3.181467e+02   1.617625e+02
  -1.804077e+02  -5.356991e+01
   3.108557e+01  -1.072633e+02
   7.969543e+01  -4.566184e+01
  -3.199803e+01   5.792387e+01
  -1.994569e+02   2.649684e+01
  -1.915633e+02  -1.066788e+02
  -4.409451e+01  -1.312667e+02
   1.062793e+02  -1.167101e+02
   1.821489e+02  -5.145428e+01
   9.170101e+01   2.746176e+01
  -2.908958e+00   2.263912e+01
  -3.029493e-01  -7.304778e+01
   5.070920e+01  -1.317011e+02
   1.154794e+02  -2.617349e+01
   1.686544e+02   9.711376e+01
   1.265199e+01   2.256159e+02
  -1.691358e+02   1.685914e+02
  -2.277048e+02   2.189580e+01
  -6.075900e+01  -1.650501e+02
   7.439933e+01  -1.152562e+02
   7.020358e+01  -3.062974e+01
   6.286695e+00   1.927006e+01
  -1.128525e+01   3.760285e+01
   1.284485e+00  -1.737973e-01
   7.182124e+01   1.169188e+01
   8.942922e+01   8.909109e+01
   1.758016e+01   1.638648e+02
  -1.301297e+02   1.861747e+02
  -2.590740e+02   4.392614e+01
  -1.970765e+02  -9.113088e+01
  -7.520675e+01  -2.630136e+02
   1.245655e+02  -1.761287e+02
   1.556401e+02  -3.805012e+01
   7.056060e+01   1.048307e+02
  -3.055333e+01   7.108707e+01
  -9.707755e+00  -3.612793e+01
   6.491952e+01  -3.838720e+01
   6.689688e+01   7.259965e+01
  -1.784302e+01   1.188176e+02
  -6.893593e+01   7.204004e+01
  -7.215972e+01   1.799291e+01
  -2.864074e+01  -7.298807e+01
   1.095902e+02  -6.378056e+01
   1.675473e+02   5.718088e+01
   6.895323e+01   1.408596e+02
  -6.015081e+01   1.835205e+02
  -2.450958e+02   4.971706e+01
  -2.530047e+02  -1.077184e+02
  -1.235368e+02  -1.429853e+02
   6.963212e+01  -1.477092e+02
   1.004638e+02  -6.983962e+01
   1.114461e+02  -5.693663e+01
   1.028689e+02  -9.340799e+01
   8.865085e+01  -1.027510e+02
   1.243364e+02   2.018458e+01
   1.281456e+02   1.188990e+02
   6.644394e+01   2.165076e+02
  -7.560943e+01   1.250629e+02
  -1.796473e+02   1.458051e+01
  -1.400804e+02  -1.392843e+02
  -1.113826e-01  -1.384370e+02
   5.413832e+01  -1.247700e+02
   9.345468e+01   4.192321e+01
  -1.077236e+01   5.402540e+01
  -8.340865e+00   8.038214e+01
   9.931956e+01   4.164328e+01
   1.202070e+02   7.197519e+00
   7.254766e+01   2.744672e+01
  -5.828987e+01  -5.132676e+00
  -1.559521e+02   1.850834e+00
  -1.319700e+02  -3.361934e+01
   2.435536e+01  -6.751091e+01
   1.047167e+02  -5.165776e+01
   1.287680e+02   4.963224e+01
   8.208062e+01   4.877688e+01
  -5.710078e+01   3.003560e+01
  -9.744465e+01  -5.791645e+01
  -1.553135e+01  -9.500299e+01
   7.410503e+01  -4.417622e+01
   1.004721e+02   1.525849e+01
   7.354470e+01   3.278897e+01
   8.376631e+01   7.417924e+01
   6.743527e+01   1.643967e+01
   1.527307e+01   4.577799e+01
   3.114240e+01   5.586141e+01
  -4.854828e+01   1.394676e+02
  -1.001095e+02   1.225109e+02
  -1.438058e+02   5.160408e+01
  -9.601997e+01  -9.008830e+01
  -6.855937e+00  -1.271195e+02
   4.781224e+01  -7.685026e+01
   4.581864e+01   1.187379e+01
  -5.385272e+01  -1.326116e-01
  -1.027980e+02  -4.639848e+01
  -9.373417e+01  -9.121851e+01
   7.060453e+01  -1.222053e+02
   1.754476e+02  -5.763962e+01
   1.757687e+02  -7.232590e+00
   4.321746e+01   5.931127e+01
  -5.630656e+01   3.563513e+01
  -9.472424e+01   3.616744e+01
  -2.227054e+00   9.710931e+00
   4.322175e+01   2.363245e+01
   5.102750e+01   1.178847e+02
  -9.006572e+01   1.102467e+02
  -1.568800e+02   2.459924e+01
  -1.065154e+02  -1.269864e+02
  -1.096612e+00  -1.745613e+02
   8.313104e+01  -9.620483e+01
   9.752572e+01   5.049406e+01
   3.847824e+01   1.001406e+02
  -3.540591e+01   6.724678e+01
  -2.877505e+01   2.294258e+01
  -2.630582e+01  -4.477339e+01
  -4.353088e+01   2.857097e+01
  -1.874539e+01   8.135587e+01
  -6.217325e+01   2.585393e+00
  -6.980859e+01  -1.091839e+02
  -5.651699e+01  -1.283278e+02
   7.600626e+01  -1.006822e+02
   1.323735e+02   1.108104e+01
   1.402879e+02   8.394993e+01
  -1.516202e+00   5.998130e+01
  -1.273268e+02   1.582806e+01
  -4.451352e+01   3.258111e+01
  -2.361636e+01  -3.648121e+01
   7.976531e+01  -8.190775e+00
   5.261012e+01   7.989371e+00
  -3.944382e+01   2.679053e+01
  -1.013465e+01   3.553378e+01
   2.492511e+01   1.195087e+01
   5.516733e+01   1.439860e+01
  -3.474791e+01   7.643484e+01
  -8.582540e+01   9.848387e+01
  -1.474836e+02   5.930591e+01
  -1.357448e+02  -1.238403e+02
  -3.092161e+01  -1.354118e+02
   7.122066e+01  -1.027667e+02
   1.069073e+02  -7.058686e+01
   7.467158e+01  -9.639713e+00
   1.936924e+01   2.687813e+01
   7.736974e+00   2.471073e+01
  -2.407157e+01  -1.158125e+01
   5.057725e+00   3.465771e+01
   1.495882e+01   7.468722e+01
  -7.256308e+01   4.046365e+01
  -1.082427e+02  -3.554441e+01
  -9.585573e+01  -1.165888e+02
  -2.190189e+00  -1.293123e+02
   4.097339e+01  -9.068509e+01
   7.423866e+01   4.234868e+01
   1.473402e+01   1.362102e+02
  -1.122871e+02   6.546235e+01
  -6.995222e+01  -2.820862e+01
  -1.035776e+01  -3.250440e+01
   3.062856e+01  -3.001460e+01
   8.623143e-01  -9.325654e+00
  -5.671316e+01  -5.784903e+00
  -5.851234e+01   1.928188e+00
  -1.665293e+01  -2.288848e+00
   5.579079e+01  -5.047978e+01
   1.174703e+02  -9.016935e+01
   5.302844e+01   2.802670e+01
  -2.442684e+00   4.561703e+01
  -2.322591e+01   3.734577e+01
  -4.162657e+01   2.126940e+01
   2.750604e+01  -6.367855e+01
   3.817666e+01  -5.386912e+01
   6.098482e+01  -1.089496e+01
   4.479513e+01   5.671932e+01
  -3.670247e+01  -1.187841e+01
  -2.285027e+01  -1.028803e+01
  -3.635567e+01  -8.608794e+00
  -3.406726e+01   3.106336e+01
  -1.063031e+01  -1.468747e+01
   1.712244e+01  -2.238544e+01
  -2.464533e+01  -2.386532e-01
   2.688772e+00  -8.589104e+01
   2.055858e+01   9.920132e+00
   1.927753e+01   7.968874e+01
   1.899879e+01   6.694445e+01
  -1.361303e+01   1.929953e+01
  -4.578564e+01  -5.757946e+01
  -4.746325e+00  -6.417774e+01
   4.930800e+01  -5.084204e+01
   1.267589e+02   3.587123e+01
   5.848508e+01   3.025384e+01
  -1.796535e+01   6.511529e+01
  -5.502131e+01   3.585381e+01
  -4.233058e+01  -2.142628e+01
   2.855957e+00  -2.288095e+01
   2.105892e+01   1.066838e+01
  -8.103365e+01   4.279636e+01
  -6.796187e+01   1.426700e+01
