
 $NMID
 id='ANONYMOUS ', fmtdat='(2E16.6)'
 volume=1.0
 tramp=1.0
 $END
   5.122896e+02   2.367437e+01
   7.971372e+01   6.608946e+01
  -6.182632e+00  -1.492248e+01
   1.982223e+01   2.775371e+01
   2.778130e+01   4.463381e+01
   2.453757e+01   2.085156e+01
   2.739189e+01   1.290081e+01
   5.907456e+01   1.181571e+00
   2.866523e+01   1.581850e+01
   8.584915e+01  -2.699824e+01
   5.002855e+01  -1.649212e+01
  -3.569097e+01   1.805910e+01
  -3.832304e+01  -1.699945e+01
  -4.613796e+00   1.658836e+01
   2.193377e+01   1.709746e+01
   7.417664e+00  -6.143805e+01
  -3.337550e+01  -1.235414e+01
  -2.149703e+01   7.196141e+01
  -3.583736e+01  -3.149361e+01
  -3.275141e+01  -2.339404e+01
  -1.584783e+01   1.741898e+01
  -2.119728e+01   1.430244e+01
   6.450620e-02   5.301108e+01
   2.726056e+01   3.940138e+00
  -3.461847e+01   4.516061e+01
  -2.677829e+01   6.030686e+01
   1.319692e+01  -7.810961e+00
  -1.191638e+01  -5.767807e+01
  -4.491546e+00   3.216538e+01
  -6.118306e+00   2.221349e+01
  -4.934947e+01   1.002078e+01
  -6.878655e+00  -3.510779e+01
   7.784077e+00  -2.069726e+01
   1.589636e+01   1.944468e+01
   2.542188e+01   2.289495e+01
   4.461435e-01   6.060832e+00
  -2.269478e+01   1.831105e+01
  -1.204158e+01  -1.597151e+01
   4.515173e+00  -3.461514e+01
   1.375134e+01  -2.963517e+00
   3.122146e+01   2.325079e+01
  -1.727131e+01   1.063730e+01
  -2.629356e+01  -3.113274e+00
   7.125196e+00  -2.876131e+01
  -8.328291e+00  -3.762874e+00
   2.864437e+01  -3.523126e+00
   8.394199e+00   2.459316e+01
  -3.145968e+01   2.210137e+01
  -1.273483e+01   1.918009e+01
   2.823534e-01  -3.288004e+01
   2.683820e+00  -1.568072e+01
   1.590216e+01   1.673453e+01
   1.700925e+01  -3.165851e+00
  -2.423695e+00   1.217209e+01
   2.602019e+00   1.674071e+01
   2.923012e+01   2.053422e+00
   6.333496e+00  -4.137890e+00
   3.223715e+01  -1.632791e+01
   1.000246e+01   5.513524e+00
  -5.665118e-01   1.395821e+01
  -3.727154e+01   1.784798e+01
  -5.029542e+00  -8.727467e+00
  -9.306271e+00   9.290941e+00
   2.598293e+01   1.882200e+01
   3.047521e+00  -7.174718e-01
  -1.505110e+01   2.050099e+01
  -2.753367e+00  -1.833874e+00
  -1.971620e+01  -9.990111e+00
  -1.587074e+01   7.615648e+00
   1.045347e+01   1.356543e+01
  -1.715525e+01   2.902695e+01
   1.526380e+01   4.514591e+00
  -1.954303e+01   1.453877e+00
   8.429176e+00   8.779952e+00
   1.280907e+01  -3.972857e+01
   6.857781e+00  -5.302655e+00
   8.446741e+00  -3.681161e+00
  -1.698797e+01   2.439969e+01
   2.010928e+00   1.267266e+01
   2.958573e+01   4.608979e+00
   1.723315e+01  -5.636420e+00
   1.659815e+01   1.914921e+01
  -2.569278e+01  -2.650947e+01
  -1.580883e+01  -4.677503e+01
   6.937533e+00  -2.030363e+01
   1.343272e+01  -1.526037e+01
   9.100346e+00   6.592946e+01
   4.169001e+00   1.684331e+01
   1.421836e+01   6.353555e+00
   5.792334e+00   5.224638e+00
  -2.747992e+00  -2.525000e+01
  -4.721938e-01  -1.130552e+01
  -1.055959e+01   1.693665e+00
  -2.821394e+01   4.819260e+01
   2.217037e+01  -7.163742e+00
  -3.905360e+01  -9.352941e+00
  -7.185565e+00   1.671552e+01
  -1.583303e+01  -4.766024e+01
   1.204183e+01  -2.053570e+00
   7.911889e+00  -1.531178e+01
   2.708811e+01  -9.464388e+00
   1.907410e+01  -8.336723e+00
   8.629691e+00   6.894994e+00
   1.083153e+01   1.123305e+01
  -1.598235e+01  -4.167110e+00
  -8.748162e+00   4.510371e+00
   1.361337e+01  -8.244184e+00
   1.863269e+01   3.908178e+01
   4.333126e+00   1.313389e+01
   2.314191e+01   4.994037e+01
  -1.153492e+01   1.803837e+01
   7.656276e+00   1.263344e+01
   8.529229e+00   1.289666e+01
  -4.046941e+01  -2.982246e+00
  -5.388146e+01   3.566403e+01
  -1.936287e+01   7.354530e+00
   3.415020e+01  -2.080523e+01
  -3.055076e+01  -4.535241e+00
   1.295682e+00   3.106392e+00
  -2.172077e+01  -3.425051e+00
  -1.893714e+01   3.823280e+00
  -9.303762e+00  -1.041659e+01
   1.192685e+01  -1.345536e+01
   2.868686e+01  -3.026075e+00
   9.075413e+00   5.284203e+00
   1.728533e+01   1.603785e+00
   3.518128e+01  -6.911686e+00
  -2.978217e+01  -1.396631e+01
  -1.143892e+01   2.305986e+01
  -2.627363e+01  -1.056642e+01
   2.476434e+01   3.051177e+00
  -1.737170e+01  -3.500470e+00
  -1.089621e+01   5.253448e+00
   5.321333e+01  -3.345671e+00
  -1.662858e+01  -3.526298e+01
  -5.859481e+00  -7.217441e+00
  -2.163220e+01   2.028460e+00
  -5.641771e+00  -2.961691e+01
  -2.667314e+00  -4.427293e+01
  -1.212620e-01  -3.600193e+01
   1.545379e+01   3.195085e+00
   7.424844e+00   1.008478e+01
  -5.905808e+00   2.218045e+01
  -1.930611e+00  -2.034369e+00
   4.382024e+00  -2.362799e+01
  -4.893211e+01  -1.725904e+01
  -1.566466e+01   7.798087e+00
   1.789936e+01   3.634568e+00
   5.029239e+00   1.363388e-01
  -2.795826e+00  -1.344949e+01
  -1.875897e+01  -1.592971e+01
  -2.238823e+00  -2.199563e+01
  -1.347066e+01   8.255969e-01
   2.503189e+01  -2.261733e+01
  -1.299139e+01   2.467902e+01
  -1.009581e+01   5.210171e-01
   4.825218e-01  -1.138326e+01
  -1.679445e+01   1.008035e+01
   3.329547e+01   1.999209e+01
   2.916906e+00   1.131676e+01
   1.160914e+01   1.189443e+01
   4.868542e+00   7.099914e+00
  -3.745489e+00  -9.949800e+00
  -8.897203e+00   4.605157e+00
  -3.846349e+00  -9.243426e+00
  -2.815885e+01  -6.395981e+00
  -1.351379e+00  -1.339961e+01
   2.776488e+00   2.530236e+01
  -6.620414e+00   1.372975e+01
  -3.300058e+00  -2.331007e+01
   2.485419e+00   5.479467e+00
   2.954178e+00  -2.563620e+01
  -1.471553e+01   3.556690e+01
   3.864866e+01   5.264301e+00
   1.130733e+01  -1.498506e+01
   3.610709e+01  -1.126003e+01
  -1.169825e+01  -1.254743e+01
  -6.179816e+00   2.693651e+00
  -2.221645e+01   1.166955e+01
   1.278270e+00   2.490007e+01
  -1.490104e+01  -2.853770e+01
   1.232109e+01   1.750999e+01
   2.373193e+01  -6.268455e+00
  -2.579366e+00   7.189447e+00
  -2.553484e+01   1.613364e+01
   8.924519e+00  -1.565258e+00
  -1.840044e+01  -2.059619e+01
  -1.401304e+00  -1.351314e+01
   2.662374e+01  -2.975747e+01
  -1.771621e+01  -1.059556e+01
   4.703391e+00  -3.470088e+00
   1.250713e+01  -1.618070e+01
  -1.017496e+00   9.300697e+00
   5.419578e+00   1.558065e+01
   6.784703e+00   2.884289e+01
  -5.555907e+00  -8.201771e+00
   6.234362e-01   9.855416e+00
   2.802590e+01  -2.493826e+01
  -4.506094e+00   6.315424e+00
  -4.398195e-01   3.844587e+01
  -3.158396e+00   1.323550e+01
   1.991654e+00   7.091818e+00
  -1.394089e+01  -2.614933e+01
  -6.666590e+00  -8.232546e-01
  -1.104158e+01  -3.830980e+00
  -1.778864e+01   1.155787e+01
  -4.780996e+00   8.599504e+00
  -1.435458e+01   1.600894e+01
  -9.864314e+00   1.416262e+01
   2.598842e+01  -4.239093e+01
  -1.134046e+01  -1.213640e+00
   1.818851e+01   8.045017e+00
   3.102875e+00   4.040490e+00
  -4.383898e+00  -4.016752e+00
   2.029606e+01   1.130342e+00
   3.776848e+00   1.713613e+00
   1.837376e+00   1.972582e+01
   9.456361e+00   1.078510e+01
   1.132629e+01   1.135707e+00
   8.514995e+00   3.508254e+01
   7.823350e+00   1.728315e+01
  -2.264524e+01   2.746553e+01
  -3.375519e+00  -9.094049e+00
   1.617800e+01  -2.486597e+01
  -3.205448e+01  -3.351408e+00
   1.786566e+00   9.630409e+00
   1.173427e+01  -1.440220e+00
  -2.504143e+01  -6.736736e+00
  -4.280929e+01   2.839154e+01
  -3.093610e+01  -1.588433e+01
  -2.334444e+00   4.853094e+00
   7.030760e+00  -1.386601e+01
   6.378070e+00  -9.158442e+00
  -4.047475e+00   2.860894e+01
   2.176614e-01   4.577809e+01
   7.234153e+00  -8.305914e+00
  -1.187612e+01  -5.449156e+00
   1.084634e+01   1.728062e+01
   5.501043e+00  -2.026989e+01
  -4.300165e+00   1.663427e-01
   2.220138e+01  -2.699435e-02
  -2.385558e+00  -6.860423e+00
  -2.500197e+01   2.883611e+01
   1.920863e+00   1.940519e+00
   8.081678e+00   9.068342e+00
   4.650242e+01  -1.569047e+01
   2.142484e+01   1.876842e+01
  -1.104425e+01  -7.637593e+00
  -3.627283e+01  -2.032307e+00
   1.488373e+00  -1.830013e+01
  -7.640104e+00  -3.108541e+01
  -2.441054e+01  -9.402677e+00
  -4.649622e+00   3.298560e+00
  -4.466810e+01  -2.489563e+01
  -2.993177e+01   1.334569e+01
   7.078807e+00   3.291985e-01
  -6.025673e-01  -9.132313e+00
  -1.396263e+01  -1.440997e+01
   1.479115e+01  -1.852942e+01
  -4.996920e+00   7.621613e+00
   1.867595e+01  -1.308637e+01
   6.002410e+00  -1.692734e+01
   1.938962e+01  -9.513991e+00
  -1.736658e+00  -5.261061e+00
   5.771935e+00  -4.134957e-01
   1.636611e+00   8.819425e+00
  -4.429835e+00   1.068044e+01
   5.768935e+01  -6.899025e-02
  -1.327362e+00   1.383368e-01
   3.613955e+01   1.939233e+01
   2.995505e+00   1.192325e+00
   1.088599e+01   1.182477e+01
  -2.694960e+01  -2.030127e+01
  -5.967428e+00  -3.387822e+01
   9.368466e+00  -1.441092e+01
  -1.474570e+01  -2.770337e+00
  -2.062264e+01  -2.454906e+00
  -2.432495e+01  -1.529024e+01
  -2.325146e+01   1.276287e+01
  -2.923745e+01  -1.175287e+01
  -9.531164e+00   1.102259e+01
  -8.855929e+00   2.108028e+01
   8.077913e+00   2.039056e+01
   2.129831e+01  -3.968581e+00
  -1.185846e+00   3.433310e+01
  -1.056567e+00  -2.460073e+00
  -3.027013e+01  -3.988054e+00
  -6.669643e+00   1.215075e+01
  -2.517236e+01   7.110207e+00
   1.071632e+01  -3.888492e-01
   2.735118e+01  -5.312590e+00
  -2.137004e+01   2.927394e+01
  -1.691780e+01  -1.039231e+01
   4.605616e+00   1.911259e+01
  -1.503940e+00   1.942689e+01
  -1.243859e+00   2.523525e+01
  -3.947196e+00  -3.204972e+01
   5.489273e+00  -1.094626e+01
   3.269802e+00  -1.063261e+01
  -7.586191e+00  -2.167363e+01
  -3.711198e+01  -5.562525e+00
  -3.454149e+01  -1.777187e+01
   3.081843e+00   1.743623e+00
  -1.948032e+01   8.387569e+00
   2.661937e+01   1.400907e+01
  -3.137925e+01  -2.425587e+01
  -4.161390e+00  -1.319298e+01
   3.353588e+00   3.837720e+01
  -1.997302e+01   5.226254e-01
   3.130300e+00  -4.053110e+00
   1.248366e+01  -1.631997e+01
   2.857182e+01  -9.302384e+00
  -1.170016e+01   1.788980e+01
  -5.852495e+00  -1.999949e+01
   1.158303e+01   2.888343e+01
  -2.370206e+01  -1.945861e+01
  -8.557911e+00   5.519003e+00
   3.468287e+01  -1.467798e+01
   4.163991e+00   8.505258e+00
   5.863922e+00  -1.730858e+00
