
 $NMID
 id='ANONYMOUS ', fmtdat='(2E16.6)'
 volume=1.0
 tramp=1.0
 $END
  -4.513562e+03   9.460315e-01
  -2.640781e+03  -2.651307e+03
   6.558288e+02  -2.996404e+03
   2.324899e+03  -8.693167e+02
   9.360141e+02   7.028272e+02
  -7.793981e+02   6.266168e+02
  -8.679851e+02  -5.251559e+02
   4.095777e+01  -1.170863e+03
   8.987633e+02  -7.551896e+02
   1.065761e+03   7.405829e+01
   4.635619e+02   9.557558e+02
  -2.452255e+02   9.995985e+02
  -6.957225e+02   1.116620e+02
  -3.488547e+02  -7.783929e+02
   3.432533e+02  -8.499115e+02
   6.704867e+02  -3.439712e+01
   2.528582e+02   6.383240e+02
  -3.007881e+02   6.905104e+02
  -6.057309e+02   1.430917e+02
  -3.800802e+02  -4.345635e+02
   4.572650e+01  -4.487563e+02
   3.052667e+02  -2.864240e+02
   2.537177e+02   4.164168e+01
  -1.280089e+02   4.283724e+01
  -4.526345e+02  -4.771027e+01
  -2.391860e+02  -3.898653e+02
   3.647196e+02  -4.344253e+02
   9.571312e+02   6.294399e+01
   4.337211e+02   5.050887e+02
  -4.255709e+02   4.814721e+02
  -7.567890e+02  -6.520405e+01
  -4.229249e+02  -5.318023e+02
   2.316498e+02  -5.153399e+02
   5.387739e+02  -2.513827e+02
   4.301631e+02   2.213418e+02
   9.616507e+01   5.469623e+02
  -1.280463e+02   3.478792e+02
  -2.194490e+02  -2.078643e+02
   1.622562e+02  -4.967195e+02
   4.679493e+02  -1.138244e+01
   2.487755e+02   8.005331e+02
  -3.214338e+02   7.979304e+02
  -6.726805e+02   3.340305e+01
  -2.946867e+02  -6.223954e+02
   3.085085e+02  -3.679169e+02
   4.385391e+02   3.271452e+02
   1.018459e+01   5.728476e+02
  -5.884656e+02   1.389305e+02
  -6.273644e+02  -3.596829e+02
  -2.215767e+02  -6.424949e+02
   3.946734e+02  -3.187798e+02
   6.937797e+02   8.532540e+01
   3.653616e+02   4.823586e+02
  -1.633774e+02   3.636239e+02
  -5.165083e+02   2.904960e+01
  -2.580697e+02  -1.896616e+02
   8.292273e+01  -1.500568e+02
   1.146637e+02   1.637936e+02
  -1.712056e+02   1.821235e+02
  -3.404979e+02  -1.209119e+02
  -1.610194e+02  -3.427780e+02
   2.141791e+02  -3.281888e+02
   3.162565e+02  -9.334795e+01
   2.022897e+02   4.919943e+01
  -6.737056e+01   2.015243e+02
  -1.913424e+02   3.349723e+02
  -2.904307e+02   2.368040e+02
  -2.949112e+02  -1.342585e+02
  -5.854956e+01  -4.135174e+02
   8.218875e+01  -3.824665e+02
   1.307295e+02  -1.222510e+02
   3.176925e+01   4.250637e+01
  -2.316449e+01  -5.899193e+01
   1.435409e+02  -1.136793e+02
   2.360309e+02   2.678968e+01
   1.992453e+02   2.744156e+02
  -7.285733e+01   2.696399e+02
  -2.419212e+02   1.941253e+01
  -2.068944e+02  -2.083496e+02
   1.095327e+01  -2.523954e+02
   2.610274e+02  -9.888419e+01
   3.662905e+02   1.408173e+02
   1.925780e+02   3.573087e+02
  -1.165233e+02   2.850597e+02
  -1.949745e+02   1.437068e+02
  -2.022305e+02   2.520029e+01
  -1.391717e+02  -1.736807e+01
  -2.451728e+02   1.625656e+00
  -3.856895e+02  -1.107228e+01
  -3.701837e+02  -2.265000e+02
  -1.784953e+01  -4.049533e+02
   3.415529e+02  -4.429780e+02
   4.502119e+02  -2.169189e+02
   3.374708e+02   1.314439e+02
  -1.356461e+01   3.195993e+02
  -1.805469e+02   2.407803e+02
  -1.115756e+02  -2.148625e+01
   1.302133e+02  -2.068517e+02
   2.937508e+02  -1.578541e+01
   8.875908e+01   1.809893e+02
  -1.252433e+02   2.206581e+02
  -2.258571e+02  -5.259194e+01
  -4.027120e+01  -2.443471e+02
   2.127357e+02  -8.943303e+01
   2.069679e+02   1.863057e+02
   1.350742e+01   3.344128e+02
  -1.995142e+02   1.945468e+02
  -3.399213e+02  -4.671522e+01
  -3.238360e+02  -2.220538e+02
  -1.331678e+02  -2.732543e+02
   1.446198e+02  -1.799033e+02
   1.972033e+02  -4.350773e+01
   7.110589e+01   3.000908e+01
  -1.026843e+02  -3.416363e+01
  -1.025556e+02  -1.249801e+02
   1.146590e+02  -1.215782e+02
   2.078713e+02  -2.052889e-01
   8.870414e+01   6.215408e+01
  -5.620548e+01  -1.508214e+01
  -6.012777e+01  -9.404085e+01
   9.715074e+01  -1.096687e+02
   2.846403e+02  -2.563115e+01
   2.835405e+02   1.345336e+02
   6.870007e+01   2.399992e+02
  -1.671994e+02   2.541037e+02
  -2.724808e+02   1.761793e+02
  -1.953140e+02  -3.538359e+01
   6.454520e+00  -1.440901e+02
   6.600322e+01  -2.087486e+01
  -5.332665e+01   1.327055e+02
  -2.566403e+02   7.362464e+01
  -1.937523e+02  -1.113509e+02
  -6.717859e+01  -1.751674e+02
   8.659988e+01  -1.696063e+02
   1.167406e+02  -3.977529e+01
   8.138304e+01   3.970599e+01
  -6.979878e+01   1.911282e+01
  -6.234374e+01  -5.771062e+01
   2.571591e+01  -1.178521e+02
   1.873413e+02  -1.053946e+02
   2.131010e+02   9.826631e+01
   2.722705e+01   1.792896e+02
  -1.700923e+02   1.743683e+02
  -2.107732e+02   1.380491e+01
  -4.980614e+01  -1.179309e+02
   6.879897e+01  -9.675833e+01
   7.904061e+01  -5.143214e+01
   4.174736e+01  -2.060234e+00
  -3.497062e+00   2.829748e+01
  -5.173875e+00   4.705929e+00
   5.391648e+01  -3.271843e-02
   1.176772e+02   6.733530e+01
   2.425931e+01   1.546897e+02
  -1.457825e+02   1.483911e+02
  -2.435296e+02   6.226119e+01
  -2.318839e+02  -1.869006e+02
  -8.850628e+01  -2.914135e+02
   8.298544e+01  -2.358242e+02
   1.569756e+02  -1.347767e+01
   3.321505e+01   8.527242e+01
  -8.905950e+00   3.602256e+01
   3.636234e+01  -2.928205e+01
   9.042582e+01  -3.069930e+01
   7.047991e+01   5.202992e+01
  -2.999414e+01   8.948229e+01
  -1.139232e+02   7.673072e+01
  -1.181083e+02  -2.028247e+01
  -3.171329e+01  -9.742016e+01
   1.134252e+02  -1.137041e+02
   2.361673e+02   2.584362e+00
   1.313146e+02   2.057710e+02
  -6.978238e+01   2.438974e+02
  -2.407101e+02   1.142325e+02
  -2.205609e+02  -8.560177e+01
  -1.203737e+02  -1.495518e+02
  -2.301441e+01  -1.483816e+02
   8.012129e+01  -8.457865e+01
   6.444280e+01  -5.419137e+01
   5.627679e+01  -5.259299e+01
   1.638643e+01  -4.874139e+01
   6.351408e+01  -4.940656e+01
   1.457298e+02   1.508918e+02
   6.709053e+01   1.980671e+02
  -7.078154e+01   2.162602e+02
  -1.945863e+02   4.189857e+01
  -1.407216e+02  -1.580461e+02
  -4.751287e+01  -1.426710e+02
   6.011912e+01  -1.481602e+02
   9.348868e+01  -1.550056e+01
  -3.331982e+01   3.078668e+01
   2.997933e+01   8.240363e+00
   3.817447e+01   3.762108e+01
   8.174141e+01  -2.006993e+01
   4.494428e+01   3.985192e+01
  -5.586854e+01   5.849820e+01
  -1.294317e+02  -1.094828e+01
  -1.629743e+02  -6.351456e+01
  -7.501109e+01  -4.984015e+01
   7.236064e+01  -7.230315e+01
   1.700682e+02  -7.316835e+01
   3.699769e+01  -4.282814e+00
  -4.853450e+01   5.051508e+01
  -8.154243e+01   3.622451e+00
  -3.346149e+01  -6.226551e+01
   6.593746e+01  -4.099082e+01
   4.535594e+01   3.003425e+01
   6.500877e+01   7.924368e+01
   3.395854e+01   5.288265e+01
   4.424686e+01  -2.072870e+01
   5.228446e+01   4.674277e+00
   3.690916e+01   2.533128e+01
  -2.038178e+01   1.362394e+02
  -1.022643e+02   1.146138e+02
  -1.203016e+02   6.616927e+01
  -1.365100e+02  -4.265322e+01
  -3.714430e+01  -6.177803e+01
   1.101561e+02  -6.276778e-01
   2.152499e+01  -1.205503e+01
  -3.186987e+01   3.230222e+00
  -1.541449e+02  -4.029855e+01
  -1.015154e+02  -8.599242e+01
   3.781564e+01  -7.920224e+01
   1.813385e+02  -9.733558e+01
   1.789687e+02   5.342907e+01
   7.776333e+01   7.757913e+01
  -3.462560e+01   2.675411e+01
  -2.625147e+01  -1.334427e+01
   5.285884e+01  -6.620961e+01
   5.918602e+01   7.126395e+00
   3.758844e+01   1.131645e+02
  -7.037350e+01   1.554912e+02
  -1.288762e+02   1.014979e+02
  -8.595536e+01  -8.503893e+01
   5.484844e+00  -2.206842e+02
   1.013384e+02  -1.639476e+02
   1.198403e+02   3.148459e-01
   2.741779e+01   1.205210e+02
  -1.824378e+01   1.137203e+02
  -2.267669e+01   2.073038e+01
  -3.184123e+01   8.492587e+00
  -3.609725e+01   6.334853e+00
   2.219949e+01  -2.594117e-01
  -1.229391e+01   1.726298e+01
  -6.436149e+01  -9.711235e+01
  -7.915223e+01  -9.726686e+01
   1.296014e+01  -7.444070e+01
   1.564574e+02  -9.909499e+00
   1.628671e+02   6.575111e+01
   7.206973e+01   2.046883e+01
  -1.057861e+02   5.224856e+01
  -1.184918e+02  -1.766295e+01
  -3.036768e+01   1.568816e+01
   2.652271e+01   1.044756e+01
   6.316316e+01   1.108917e+01
   1.440819e+01   2.582227e+01
   2.332061e+01   2.178817e+01
   1.009382e+02   2.364054e+01
   1.262609e+02   2.023802e+01
   9.319252e+00   1.055940e+02
  -1.249943e+02   8.441921e+01
  -1.506627e+02   2.357346e+01
  -1.250106e+02  -3.371564e+01
  -2.252268e+01  -1.405540e+02
   6.932239e+01  -1.835429e+02
   8.823772e+01  -3.804149e+01
   6.811658e+01   2.362601e+01
  -1.750055e+01   1.969891e+01
  -8.878266e+00  -5.897325e-01
  -3.663119e+01  -8.479531e+00
   7.805907e+01   2.885948e+01
   5.246161e+01   8.753667e+01
  -7.355627e+00   9.374334e+01
  -5.549665e+01   1.487373e+01
  -1.171917e+02  -1.236964e+02
  -8.768636e+01  -5.139258e+01
   4.677049e+01  -4.264189e+01
   1.104720e+02   6.398082e+01
   7.762711e+01   1.001830e+02
  -4.546909e+01   8.371367e+01
  -8.728788e+01   7.939726e+00
  -3.957290e+01  -4.036831e+01
   9.888851e+00  -4.067077e+01
   8.904141e+01  -5.200673e+01
  -5.190121e+01  -5.934242e+00
  -7.826277e+01   3.593033e+01
  -4.063052e+01  -3.127123e+00
   9.159839e+01  -5.568923e+01
   1.058641e+02  -6.367826e+01
   5.165016e+01  -4.419275e+01
   2.179870e+00   5.831063e+01
  -6.492287e+01   6.569542e+01
  -7.709238e+01   5.328608e+00
  -5.214742e+00  -2.899913e+01
   5.038505e+01  -5.889091e+01
   7.943107e+01   2.067871e+01
   3.587919e+01   5.796000e+01
   4.337193e+01   4.258606e+01
  -2.349650e+01  -2.245632e+01
  -3.684385e+01  -1.968830e+01
  -1.718750e+01  -2.095040e+01
  -1.493651e+01  -1.047202e+01
  -4.251336e+01   1.203900e+01
   3.733887e+01  -1.673366e+01
   5.148673e+00  -1.804651e+01
   2.963596e+01  -3.796879e+01
   1.916227e+01   1.228342e+01
   1.699427e+01   4.707417e+01
  -5.002781e+01   7.381226e+00
  -5.828056e+01  -7.792578e+01
  -2.462545e+01  -4.569216e+01
   2.972434e+01  -4.925267e+01
   1.043163e+02   1.523563e+01
   7.994811e+01   1.667843e+01
  -4.978324e+00   6.652179e+01
  -8.176809e+01   5.895194e+01
  -3.367287e+01   4.118000e+01
   6.395381e+00   6.403274e+01
   3.456030e+01   3.167497e+01
  -2.540728e+01   6.688031e+01
  -9.258495e+01   4.571547e+01
