
 $NMID
 id='ANONYMOUS ', fmtdat='(2E16.6)'
 volume=1.0
 tramp=1.0
 $END
   1.626760e+03  -9.589016e+01
   8.522123e+02   6.216899e+02
  -2.013309e+02   7.683688e+02
  -7.818061e+02   3.195245e+02
  -3.943479e+02  -1.228062e+02
   1.472521e+02  -3.036759e+02
   2.208383e+02   5.426765e+01
   1.100376e+02   3.581362e+02
  -1.976327e+02   2.902644e+02
  -3.645652e+02  -1.407679e+01
  -1.360470e+02  -3.571514e+02
   4.415925e+01  -3.332889e+02
   2.385752e+02  -1.502040e+01
   1.942763e+02   2.287989e+02
  -7.780341e+01   3.216576e+02
  -1.958381e+02  -1.451234e+01
  -6.132660e+01  -2.219332e+02
   1.841582e+02  -2.394047e+02
   2.508476e+02  -2.428736e+01
   1.590499e+02   1.356777e+02
  -1.743680e+01   1.850608e+02
  -1.467854e+02   1.457905e+02
  -6.468604e+01   2.257662e+01
   9.351042e+01  -1.893800e+01
   1.501300e+02   5.925849e+01
   1.884912e+01   1.687667e+02
  -1.671281e+02   1.475348e+02
  -3.016999e+02  -6.440255e+01
  -1.770039e+02  -1.839378e+02
   8.363637e+01  -1.450905e+02
   2.692248e+02   3.996813e+01
   1.950561e+02   1.743657e+02
  -9.010256e+01   1.423529e+02
  -2.102163e+02   5.433802e+01
  -1.840396e+02  -1.230806e+02
  -4.682458e+00  -1.416313e+02
   9.982263e+01  -5.928251e+01
   6.407173e+00   9.230992e+01
  -8.438229e+01   1.416541e+02
  -1.393157e+02  -2.977065e+01
  -6.804671e+01  -2.580644e+02
   9.657616e+01  -2.824066e+02
   1.728171e+02  -1.930168e+01
   8.286673e+01   2.149876e+02
  -1.389163e+02   1.027818e+02
  -1.456138e+02  -9.806465e+01
   6.343667e+01  -2.127395e+02
   2.071961e+02  -6.068389e+01
   2.477211e+02   1.742837e+02
   5.337006e+01   2.583996e+02
  -1.588504e+02   1.263849e+02
  -2.709411e+02  -1.179293e+02
  -1.526260e+02  -1.663900e+02
   8.339364e+01  -1.375605e+02
   1.875935e+02  -4.153156e+01
   1.208980e+02   8.118438e+01
  -4.111672e+01   5.076164e+01
  -5.226993e+01  -6.559623e+01
   4.143226e+01  -8.772975e+01
   1.270443e+02   1.896748e+01
   6.425022e+01   7.825016e+01
  -8.838413e+01   6.505817e+01
  -1.140051e+02   2.233172e+01
  -4.743004e+01  -4.055186e+01
   2.325880e+01  -1.112879e+02
   1.225083e+02  -1.180480e+02
   1.346689e+02  -7.165594e+01
   1.029548e+02   6.918348e+01
   2.252221e+01   1.484491e+02
  -3.923616e+01   1.496891e+02
  -1.896664e+01   7.095700e+01
   1.935769e+01  -6.181202e+01
   3.550779e+00   6.474132e+00
  -1.143794e+02  -6.256329e+00
  -7.476432e+01  -6.675516e+01
  -1.453898e+01  -1.178113e+02
   3.232782e+01  -5.962397e+01
   1.131283e+02   2.345454e+01
   7.316092e+01   9.075924e+01
  -1.479956e+01   1.036392e+02
  -9.680923e+01   7.053431e+01
  -1.235400e+02  -5.534603e+01
  -4.218195e+01  -1.569506e+02
   4.628120e+01  -1.499269e+02
   8.775101e+01  -6.497473e+01
   9.085417e+01  -1.322476e+01
   6.176993e+01  -6.340567e+01
   7.930381e+01  -2.012500e+01
   1.566999e+02   1.502631e+01
   1.338557e+02   1.428777e+02
   1.123123e+01   1.999861e+02
  -1.699227e+02   1.405578e+02
  -1.700999e+02   6.432224e+01
  -1.131826e+02  -3.335463e+01
   4.811201e+00  -1.245929e+02
   5.579024e+01  -7.961926e+01
   5.971258e+01  -5.239447e+01
  -6.233743e+01   4.561543e+01
  -1.015196e+02  -1.695052e+01
  -6.175197e+00  -1.047448e+02
   9.320598e+01  -6.985027e+01
   1.298413e+02   3.374792e+01
  -3.329976e+00   1.061804e+02
  -7.660571e+01  -1.421629e+01
  -3.319111e+01  -8.039547e+01
  -1.313563e-01  -1.198915e+02
   9.800499e+01  -6.661401e+01
   1.182565e+02   4.280371e+01
   1.469118e+02   9.215347e+01
   2.518732e+01   7.851970e+01
  -5.681267e+01   9.015759e+01
  -6.846814e+01  -2.231271e+01
   1.237893e+01  -2.020960e+01
   3.698312e+01   4.007924e+01
   4.646280e+01   4.176194e+01
  -3.410338e+01   2.847192e+01
  -5.201496e+01  -1.518189e+01
   4.014349e+00  -5.047794e+01
   5.465041e+01   2.089705e+01
  -1.506852e+00   7.121042e+01
  -6.375824e+01   4.595612e+01
  -7.401348e+01  -2.667020e+00
  -4.689535e+01  -9.306194e+01
  -4.095613e+01  -1.034421e+02
   9.611463e+01  -7.755739e+01
   1.353015e+02  -4.081436e+01
   6.638048e+01   1.745702e+01
  -1.981755e+01   6.262429e+00
  -4.052078e+01  -1.564136e+01
  -8.737975e+00   2.032299e+01
   9.674648e+01  -1.857007e+01
   1.157021e+02  -2.951476e+00
   4.192008e+01   8.763714e+01
  -6.261335e+01   7.386215e+01
  -3.184608e+01   3.690901e+01
   1.415442e+01  -2.516268e+01
  -2.954165e+00  -1.745302e+01
   9.064264e+00   1.448771e+01
  -1.256906e+00   3.407618e+01
  -6.388637e+01  -1.013830e+01
  -7.249029e+01  -5.146876e+01
   4.693840e+01  -5.672690e+01
   7.003965e+01  -6.016773e+01
   6.431960e+01   6.404268e+01
   1.045951e+01   9.844948e+01
   6.234113e-02   9.455142e+01
  -5.864271e+01  -3.223338e+01
   5.394638e+00  -3.340751e+01
   1.565516e+01   1.303154e+01
  -2.586795e+01   2.927085e+01
  -3.238595e+01  -1.669771e+01
  -2.343091e+01  -4.428113e+01
  -1.426243e+01  -1.010688e+02
   4.037149e+01  -7.407492e+01
   1.084514e+02  -2.093173e+01
   1.079448e+02   4.559336e+01
  -7.138899e+00   7.118425e+01
  -4.251880e+01   6.882778e+01
  -5.125716e+01  -1.429927e-01
   3.074446e+01  -4.526889e+01
   4.866308e+01  -3.448884e+01
  -5.105780e+01   2.429045e+01
  -1.880929e+01   4.657244e+01
  -2.229492e+01   2.140978e+00
  -6.718725e+00  -1.136060e+01
   3.301620e+01   3.495527e+01
   1.006647e+01   5.497361e+01
  -2.064364e+01   6.155168e+01
  -6.933827e+01   1.283004e+01
  -5.444601e+01  -4.945569e+00
  -5.034050e+00  -4.685911e+01
   1.942775e+01  -6.368918e+01
   9.602195e+01  -4.092880e+01
   9.382772e+01   2.761089e+01
   1.804058e+01   6.766753e+01
  -2.689366e+01   4.938022e+01
  -6.787723e+01   2.518792e+01
  -8.981482e+00   2.136038e+01
  -4.899632e+01   1.047649e+01
  -3.124923e+01   3.099423e+01
  -7.578553e+01  -8.421218e+00
  -4.446104e+01  -6.692766e+01
   3.061433e+01  -9.724008e+01
   3.315407e+01  -4.587750e+01
   5.130413e+01   1.605101e+01
   6.124781e+01   4.652903e+01
  -2.411048e+01   8.296911e+01
  -3.511591e+01   3.132387e+01
  -3.167224e+01  -1.475569e+01
   4.544008e+01   1.499365e+01
   7.768837e+00   3.301510e+01
  -1.805999e+01  -1.333912e+01
  -1.800734e+01  -2.552179e+01
  -2.273676e+01   1.115579e+01
   2.216399e+01  -5.217557e+00
   5.309981e+01   1.386205e+01
   3.296089e+01   1.182584e+01
  -2.493277e+00   2.173197e+01
  -3.846108e+01   1.335889e+01
  -8.999784e+01   1.481730e+01
  -3.232384e+01   5.256277e+00
   5.392341e+01  -1.977291e+01
   8.993123e+00   9.476749e+00
  -1.941656e+01   6.958733e+01
  -6.001212e+00   5.878486e+00
  -3.324018e+01  -2.608550e+01
  -6.478503e+00  -5.480035e+01
  -3.955875e+01  -3.402204e+01
  -6.550109e+00  -3.231836e+01
  -2.750690e+01   3.749099e+01
  -2.907892e+01  -1.882205e+01
   2.869372e+01  -1.066345e+02
   5.518537e+01  -3.366557e+01
   8.229886e+01   3.883777e+00
   6.093196e+01   7.004077e+01
  -2.526416e+00   8.679885e+01
  -3.160271e+01   1.039485e+01
  -7.236674e+00   4.435667e-01
   5.255642e+01  -2.491661e+01
   5.007986e+01   4.657635e+01
   2.036144e+01   3.158791e+01
  -2.326316e+01   2.771258e+01
  -1.217471e+02   5.649291e+01
  -1.563367e+01   2.710527e+01
  -9.034779e+01  -9.037245e+00
   1.182466e+01  -4.883438e+01
   2.633393e+01   6.103401e+00
  -1.328065e+01   1.386825e+01
  -6.807807e+01  -2.857624e+01
  -2.502131e+01  -5.275268e+01
   6.696829e+01  -4.188792e+01
   5.900912e+01   2.843821e+01
   8.261691e+00   5.385605e+01
  -4.510627e+01   6.437440e+01
  -3.102747e+01   6.187205e+01
  -3.711283e+01  -4.204818e+01
  -2.344052e+01  -7.395931e+01
   1.792551e+01  -4.853454e+01
   4.530206e+00  -7.168169e+00
   9.706062e+00   5.327301e+00
   4.095839e+01  -2.227509e+00
  -2.283682e+00  -5.776270e-01
  -3.399550e+00   1.926190e+01
   1.418334e+01   4.263140e+01
   1.303792e+01   7.098370e+01
  -5.498287e+01  -2.844746e+01
  -5.206529e+01  -2.347815e+01
  -2.818105e+01   2.009779e+01
  -1.325776e+01   2.846297e+01
   2.650510e+01  -9.267381e+00
  -1.575632e+00  -3.433877e+01
   8.262697e+00  -2.040103e+01
  -1.748397e+01  -9.311030e+00
  -5.732934e+00  -2.597011e+01
   1.787368e+01   1.904637e+01
   1.261195e+01   1.683334e+01
  -2.557427e+01   2.825449e+01
  -5.236178e+01   1.564728e+01
  -3.245302e+01  -3.797416e+01
   4.182750e+01  -6.013849e+01
   8.936866e+01  -2.566754e+00
   5.191218e+01   5.864323e+01
  -1.161721e+01   8.686577e+01
  -7.147793e+01   2.654411e+01
  -2.832951e+01   4.366811e+00
  -5.910559e+00  -1.305921e+01
   7.577554e+00  -4.366755e+01
  -1.716383e+01  -6.390721e+00
   9.176614e+00   3.993952e+01
  -5.485035e+01  -3.872275e+01
   5.681060e+00  -2.889568e+01
   1.964137e+01   1.004854e+01
   8.382847e+01   4.256613e+00
  -1.510683e+01   3.794088e+01
  -6.254082e+01   1.990872e+01
  -5.302816e+01  -3.741741e+00
  -5.173395e+01  -6.874253e+01
  -2.654873e+01  -5.111522e+01
   2.543384e+01  -3.913740e+01
   2.642739e+01   2.302456e+01
   2.242097e+01   3.184851e+01
  -3.646555e+00  -2.486323e+01
  -3.647034e+01   3.665607e+00
   1.576421e+01   6.781522e+00
   5.503194e+01   1.518654e+01
   1.689280e+01   2.096632e+01
  -3.982119e+01   2.683952e+01
  -4.031404e+01   4.172950e+01
  -5.314794e+01  -1.484535e+01
  -3.978567e+00  -5.541429e+01
   1.709532e+01  -8.042012e+01
   1.204734e+01   8.397102e+00
  -2.816618e+00   4.963906e+01
  -2.272193e+01   2.680078e+01
  -2.825085e+01   7.147826e+00
   1.348491e+01  -2.314366e+01
  -2.669028e+01  -5.639931e+01
  -2.860410e+01   1.506099e+01
   2.477872e+01   8.515467e+00
   1.894011e+01   1.765527e+01
   1.844751e+01  -2.834294e+01
  -1.712939e+01  -2.716065e+00
  -1.286255e+01   4.387818e+01
  -1.417169e+01   1.815543e+01
  -2.330761e+01   3.843318e+01
  -1.522878e+01  -3.706679e+01
  -7.462672e+00  -4.288430e+01
   1.505722e+01  -8.714705e+01
   4.697621e+01   2.052241e+01
   1.341727e+00   6.970771e+01
  -3.288539e+01   4.515413e+01
  -4.795856e+01  -3.153987e+00
  -3.018247e+01   1.622155e+01
   4.594468e+00  -3.131354e+00
   3.849836e+01  -3.890218e+01
  -8.743328e-01  -1.892057e+01
  -2.007184e+01  -4.128765e+01
   3.771621e+00  -1.527038e+01
   2.367512e+01  -1.009373e+01
   6.214082e+01  -1.123848e+01
