
 $NMID
 id='ANONYMOUS ', fmtdat='(2E16.6)'
 volume=1.0
 tramp=1.0
 $END
  -1.905325e+03   1.186178e+02
  -1.241775e+03  -1.094917e+03
   7.128896e+01  -1.313079e+03
   8.847278e+02  -6.768006e+02
   5.656289e+02   1.520654e+01
  -1.367280e+02   1.893922e+02
  -4.303970e+02  -5.160762e+01
  -4.914837e+01  -3.837105e+02
   3.591813e+02  -4.655196e+02
   4.384099e+02  -1.382747e+01
   2.269478e+02   3.668450e+02
  -5.031627e+01   3.720398e+02
  -2.559749e+02   1.082146e+02
  -1.606723e+02  -2.894851e+02
   6.165898e+01  -3.566270e+02
   2.456401e+02  -1.594519e+02
   2.243802e+02   2.193572e+02
  -8.684708e+01   3.278560e+02
  -2.516445e+02   1.352571e+02
  -2.144016e+02  -1.937365e+02
  -2.947423e+01  -1.897777e+02
   1.401388e+02  -1.332102e+02
   8.579855e+01   7.266646e+01
  -7.438344e+01   1.490807e+01
  -2.676642e+02  -1.053595e+02
  -3.481786e+01  -3.127217e+02
   3.271405e+02  -1.312382e+02
   4.658947e+02   1.286553e+02
   1.551673e+02   2.945687e+02
  -1.967080e+02   2.340253e+02
  -3.387380e+02  -6.985307e+01
  -1.309993e+02  -2.477725e+02
   1.685398e+02  -2.447003e+02
   3.084258e+02  -7.880373e+01
   2.117479e+02   8.953017e+01
   4.285826e+00   2.277003e+02
  -3.041234e+01   1.063495e+02
   1.336553e+01  -9.585672e+01
   1.759241e+02  -1.532780e+02
   2.037556e+02   7.842182e+01
   6.156197e+01   3.924970e+02
  -1.694544e+02   3.182906e+02
  -2.745709e+02   1.667951e+01
  -8.093088e+01  -2.791184e+02
   1.512575e+02  -1.306165e+02
   1.766571e+02   1.914037e+02
  -6.474963e+01   2.923882e+02
  -3.034206e+02   7.170924e+01
  -3.079142e+02  -2.688935e+02
  -8.194237e+01  -3.236487e+02
   2.396330e+02  -1.521350e+02
   3.326519e+02   8.971292e+01
   1.878845e+02   1.799667e+02
  -8.607812e+01   1.588326e+02
  -2.398129e+02   2.494626e+01
  -1.391459e+02  -9.212822e+01
   6.616909e+01  -4.851313e+01
   7.657402e+01   3.362714e+01
  -6.918900e+01   7.615168e+01
  -1.746529e+02   3.869017e+00
  -8.467006e+01  -1.178834e+02
   1.019962e+02  -1.621978e+02
   2.429225e+02  -8.079591e+01
   1.529530e+02   9.392702e+01
   1.159019e+01   2.280722e+02
  -2.053769e+02   1.922641e+02
  -2.460639e+02   8.874012e+01
  -1.311916e+02  -1.250968e+02
   3.474929e+00  -2.532625e+02
   5.506646e+01  -1.728487e+02
   3.707878e+01  -6.814937e+01
   3.014571e+01  -3.623608e+01
   6.570989e+01  -6.872493e+01
   1.374142e+02  -4.344481e+01
   1.505810e+02   7.101360e+01
   2.570540e+01   1.474557e+02
  -3.838623e+01   9.683195e+01
  -1.142280e+02  -2.298434e+01
  -1.154809e+02  -1.421539e+02
   1.435828e+01  -1.883965e+02
   1.498193e+02  -7.997831e+01
   2.281731e+02   9.997278e+01
   9.276323e+01   1.422202e+02
  -1.534636e+01   1.663538e+02
  -9.952570e+01   5.961344e+01
  -4.349458e+01   3.787989e+01
  -5.263857e+01   7.035597e+01
  -1.463615e+02   3.293159e+01
  -2.340421e+02  -9.370205e+01
  -2.329807e+02  -1.670884e+02
   3.683130e+01  -2.647262e+02
   2.533468e+02  -2.187466e+02
   3.061539e+02  -1.352414e+02
   1.901143e+02   9.075488e+01
   2.841929e+00   1.551043e+02
  -8.104340e+01   1.258512e+02
   1.240691e+01   4.457033e+00
   8.780524e+01  -4.757545e+01
   1.331073e+02   6.037176e+01
  -4.001437e+00   1.480009e+02
  -1.196644e+02   1.373910e+02
  -1.091120e+02  -1.863642e+01
  -1.274208e+01  -1.425789e+02
   9.088709e+01  -3.444953e+01
   7.901185e+01   1.127740e+02
  -2.215183e+01   2.072328e+02
  -1.089718e+02   1.614517e+02
  -1.984376e+02  -4.907114e+01
  -1.662748e+02  -1.670679e+02
  -5.787870e+01  -1.869090e+02
   5.655661e+01  -6.052966e+01
   8.534249e+01  -5.976196e+00
   6.685859e+00   1.263292e+01
  -3.373701e+01  -5.519328e+01
   2.169504e+01  -7.319791e+01
   4.819672e+01  -2.577130e+01
   8.286721e+01   4.892541e+01
  -7.248834e+00   1.613641e+01
  -4.541527e+01  -1.495173e+01
  -1.049086e+00  -5.463516e+01
   7.243378e+01  -3.985419e+01
   1.943880e+02   6.114039e+01
   1.587570e+02   9.153302e+01
  -1.620970e+01   1.416064e+02
  -9.088846e+01   1.039017e+02
  -1.789274e+02   7.782381e+01
  -4.938062e+01  -1.572049e+01
   6.770037e+01  -4.317148e+01
   2.842896e+01   6.749762e+00
  -3.745451e+01   8.598327e+01
  -1.299526e+02   2.385610e+00
  -1.148016e+02  -7.932913e+01
  -1.486244e+01  -1.514222e+02
   6.861194e+01  -8.019549e+01
   9.095528e+01  -3.844220e+00
   4.597637e+01   4.284402e+01
  -1.265106e+01   8.364178e+00
  -1.410024e+00  -6.758794e+01
   1.055553e+02  -7.352222e+01
   1.683014e+02  -3.843568e+01
   1.203618e+02   8.549986e+01
  -1.289517e+01   1.079381e+02
  -9.699700e+01   1.017439e+02
  -9.064816e+01  -1.098421e+01
  -6.041300e+00  -5.122008e+01
   4.879243e+01  -8.090573e+01
   5.769957e+01   3.609204e+01
  -5.266347e+00   2.556052e+01
  -4.756427e+01   5.919680e+00
  -1.640815e+01  -2.966938e+01
   5.207297e+01   8.685023e+00
   6.384094e+01   5.260409e+01
   1.462938e+01   1.240586e+02
  -1.059363e+02   8.971656e+01
  -1.808906e+02   1.557493e+01
  -1.582533e+02  -7.099005e+01
   4.225086e+00  -1.432575e+02
   4.570296e+01  -1.144909e+02
   7.397325e+01  -5.223245e+00
  -1.244181e+00   6.282505e+01
   3.010514e+01   1.631078e+01
   5.807846e+01  -2.824236e+01
   5.329593e+01  -5.250808e+01
   5.943721e+01   2.042086e+01
  -2.866573e+01   1.022687e+02
  -9.080676e+01   4.846438e+01
  -2.925849e+01  -6.815388e+00
  -2.491643e+01  -1.149327e+02
   6.987848e+01  -3.716571e+01
   1.442447e+02   1.371111e+01
   2.440785e+01   9.651981e+01
  -6.123374e+01   1.390646e+02
  -1.304289e+02   3.094243e+01
  -1.755374e+02  -2.647071e+01
  -1.457759e+01  -7.304322e+01
   2.007538e+01  -7.594848e+01
   8.971977e+01  -4.268646e+01
   5.044859e+01  -6.136979e+01
   6.025060e+01  -5.816605e+01
   5.864369e+01  -8.808166e+01
   2.486974e+01   4.697312e+01
   6.653035e+01   6.519136e+01
   2.866805e+01   9.590935e+01
  -6.508104e+01   8.770138e+01
  -5.834010e+01  -2.607317e+01
  -3.402980e+01  -5.880649e+01
   1.583830e+01  -6.630377e+01
   7.910368e+01  -7.288436e+01
   2.557842e+01  -2.545456e+01
   8.679644e+00   4.418841e+01
  -4.345413e+00   5.458060e+01
   5.519031e+01   3.190235e+01
   6.174462e+01   3.077187e+01
   3.030120e+01   3.128450e+01
  -4.378521e+01   5.261437e+01
  -1.027317e+02   1.016725e+01
  -8.587803e+01  -9.424230e+00
  -4.464507e+01  -7.940285e+01
   4.812442e+01  -3.426676e+00
   9.321975e+01   4.947792e-01
  -1.098472e+01   1.794508e+01
  -1.148729e+01  -1.669569e+01
  -3.867786e+01   3.645758e+01
  -2.086667e+01  -1.879385e+01
   4.946891e+01  -5.162874e+01
   4.387045e+01  -1.766257e+01
   1.706103e+01   4.494962e+01
   1.107392e+01   4.094233e+01
   3.057215e+01   1.224287e+01
   4.102176e+01  -3.496821e+01
   4.760580e+01   5.714207e+01
  -3.758734e+01   1.128045e+02
  -6.911851e+01   1.354456e+02
  -1.257080e+02   5.620549e-01
  -6.582993e+01  -6.162210e+01
   2.646628e+01  -8.655894e+01
   4.451076e+01  -9.704047e+01
   4.647018e+01   1.028757e+00
  -4.780655e+01   2.012968e+01
  -5.456107e+01  -3.762873e+01
  -3.058508e+01  -5.254800e+01
   6.882546e+01  -7.924317e+01
   1.261538e+02  -2.326392e+01
   7.067686e+01   1.041994e+01
   6.865859e+00   2.877865e+01
  -3.447798e+01   2.827069e+01
  -3.991280e+01  -2.269641e+01
   1.190439e+01  -3.156869e+01
   3.096416e+01   1.805480e+01
   2.621628e+01   8.164146e+01
  -7.886599e+01   7.301502e+01
  -1.106063e+02   1.878583e+01
  -5.928204e+01  -4.923521e+01
   2.628291e+01  -8.730249e+01
   6.420292e+01  -8.425721e+01
   4.695202e+01   1.803280e+01
  -2.700638e+01   6.422436e+01
  -1.359827e+01   7.309696e+01
  -3.815788e+00   1.542716e+01
  -3.831833e+01  -7.334786e+01
  -1.640887e+01  -3.620913e+01
  -3.872924e+00   3.865365e+01
  -3.778554e+01  -5.210620e+01
  -1.355283e+01  -6.791437e+01
   1.672989e+00  -7.160004e+01
  -8.523204e+00  -3.782415e+01
   6.930176e+01  -1.202547e+01
   8.089936e+01   5.554474e+01
   1.306449e+01   5.441828e+01
  -3.782816e+01   7.790010e+00
  -2.366940e+01  -3.374239e+01
   7.372902e+00  -5.245461e+00
   4.323371e+01  -1.738338e+01
   1.381743e+01   4.595924e+01
  -1.395047e+01  -2.307000e+01
  -1.755765e+01   4.022219e+01
   3.577568e+01   4.541982e+01
   4.838625e+01   2.581865e+01
   2.477030e+01   2.601751e+00
  -3.751489e+01   6.219340e+01
  -1.255741e+02   1.947853e+01
  -6.567449e+01  -3.681610e+01
   8.898444e+00  -1.137745e+02
   7.163658e+01  -4.856169e+01
   4.873468e+01  -3.107206e+01
   3.545254e+01   2.355782e+01
  -3.308171e+00   6.785672e+01
  -9.237381e+00   1.090691e+01
   7.222266e+00   5.465927e+01
  -1.824294e+01   7.835203e+01
  -8.344397e+00   5.135767e+01
  -5.934767e+01   6.817950e+01
  -8.626709e+01   1.551675e+01
  -5.547853e+01  -5.680063e+01
  -2.253665e+01  -8.361137e+01
   8.064828e+01  -4.387395e+01
   5.567384e+01   1.647782e+01
   9.376702e-01   6.274217e+01
  -5.440747e+01   3.284020e+01
  -3.577430e+01   2.766843e+01
  -5.893789e+01  -8.738860e+00
   8.091375e+00  -4.190698e+01
   7.735237e+00  -4.579400e+01
  -3.335628e+01   4.045499e+01
  -6.556297e+01  -1.051461e+01
  -1.981695e+01  -2.003991e+01
   2.957295e+01  -6.621877e+00
   1.005082e+02  -5.872787e+01
   4.733773e+01  -1.616628e+01
   7.935912e+00   7.356768e+01
  -1.118526e+01   3.222160e+01
   2.748157e+01  -1.049190e+01
   2.477239e+01  -2.804643e+01
  -2.020460e+01  -3.565419e+01
   2.691788e+01   7.024306e+00
   4.326631e+01   2.396827e+01
   1.287854e+01  -1.679436e+01
   7.017037e-01   5.353309e+00
  -7.199723e+01   1.528683e+01
   5.280561e+00  -3.309024e+00
   3.822475e+01  -2.176589e+01
   2.167903e+01  -1.073362e+01
  -2.417814e+01   4.254456e+00
  -6.231904e+00  -3.399115e+01
   1.086696e+01  -3.373070e+01
   4.625432e+01   1.215674e+01
  -5.064076e+01   1.882286e+01
  -8.255160e+00  -1.119274e+01
  -3.240251e+01  -4.091558e+01
   1.374160e+01  -3.520401e+01
   5.966945e+01  -4.726981e+01
   8.859129e+01   2.257721e+01
   3.454394e+01  -1.049305e+01
   3.407146e+01   2.681444e+01
  -5.866793e+01   2.990686e+01
  -2.038865e+01   5.224583e+01
  -7.272069e+00  -2.221908e+01
   2.977353e+00   1.121243e+01
   9.224686e+00  -2.478054e+01
  -4.231525e+01   1.625815e+01
