
 $NMID
 id='ANONYMOUS ', fmtdat='(2E16.6)'
 volume=1.0
 tramp=1.0
 $END
  -4.256760e+03   1.696203e+02
  -2.819083e+03  -2.508721e+03
   3.450847e+02  -2.685475e+03
   1.690764e+03  -1.210967e+03
   9.969856e+02   5.319983e+00
  -3.022533e+02   3.725463e+02
  -7.156800e+02  -2.398469e+02
  -6.833928e+01  -8.828390e+02
   7.182736e+02  -8.906995e+02
   7.991009e+02  -1.139461e+02
   5.346682e+02   7.190722e+02
  -4.576574e+01   9.187076e+02
  -4.501726e+02   9.049188e+01
  -3.418378e+02  -6.731017e+02
   2.595961e+02  -7.496176e+02
   5.985781e+02  -1.639043e+02
   2.870713e+02   6.480376e+02
  -2.274247e+02   6.726683e+02
  -4.909544e+02   1.592617e+02
  -3.423755e+02  -2.436365e+02
  -5.823019e+01  -4.480311e+02
   8.811850e+01  -2.018710e+02
   9.551534e+01  -4.873499e+01
  -1.007248e+02  -9.459512e+00
  -4.708219e+02  -2.157076e+02
  -8.507692e+01  -4.191160e+02
   4.690998e+02  -3.013365e+02
   8.437425e+02   5.012588e+01
   4.457257e+02   4.387668e+02
  -3.823343e+02   3.749600e+02
  -7.252198e+02  -8.608984e+01
  -2.798248e+02  -4.505201e+02
   3.053202e+02  -4.044139e+02
   4.940328e+02  -1.577130e+02
   3.970114e+02   1.823218e+02
   9.109436e+01   4.084787e+02
  -1.269067e+02   2.569656e+02
  -6.144327e+01  -1.628620e+02
   1.656648e+02  -3.045059e+02
   3.106020e+02   7.892372e+01
   2.401559e+02   6.208627e+02
  -2.537490e+02   6.553284e+02
  -5.213511e+02   1.178509e+01
  -1.540818e+02  -4.061041e+02
   3.110552e+02  -2.422066e+02
   3.709904e+02   3.079702e+02
  -8.472033e+01   5.596350e+02
  -5.142062e+02   1.466375e+02
  -5.672578e+02  -3.864877e+02
  -2.053931e+02  -5.501828e+02
   3.415403e+02  -3.186323e+02
   6.413609e+02   1.206600e+01
   3.957697e+02   3.184602e+02
  -8.869840e+01   2.953180e+02
  -3.674086e+02   9.542538e+01
  -3.047332e+02  -3.845653e+01
   5.046131e+01  -7.497804e+01
   1.839516e+02   8.259325e+01
  -1.278901e+02   1.919733e+02
  -4.240124e+02  -2.160091e+01
  -1.767068e+02  -2.555254e+02
   1.705985e+02  -3.218053e+02
   3.615971e+02  -1.687171e+02
   3.210226e+02   8.760300e+01
  -2.995392e+00   2.489993e+02
  -2.974947e+02   3.668370e+02
  -3.279054e+02   2.054236e+02
  -2.851946e+02  -8.977879e+01
  -8.264623e+01  -3.792596e+02
   1.663447e+01  -3.325657e+02
  -7.994595e+00  -1.240768e+02
   5.389822e+00  -8.472049e+01
   7.543147e+01  -1.393702e+02
   1.766857e+02  -1.303784e+02
   2.587750e+02   7.410243e+01
   8.671637e+01   2.818076e+02
  -9.498037e+01   1.972455e+02
  -2.055957e+02  -2.703720e+01
  -2.212410e+02  -2.970424e+02
   1.994860e+01  -3.072173e+02
   3.037990e+02  -1.233408e+02
   3.823544e+02   1.709890e+02
   1.717644e+02   3.452367e+02
  -1.155166e+02   3.507139e+02
  -2.016492e+02   1.665182e+02
  -1.217151e+02   1.240461e+01
  -1.009310e+02   3.463473e+01
  -2.357481e+02   5.901181e+01
  -4.584643e+02  -4.868155e+01
  -3.378879e+02  -2.611733e+02
  -7.673316e+00  -4.301869e+02
   3.664501e+02  -4.246703e+02
   5.213215e+02  -2.459076e+02
   3.480909e+02   8.325426e+01
   4.576134e+01   3.014448e+02
  -7.946412e+01   1.934201e+02
  -2.132314e+01   3.142649e+01
   1.151158e+02  -1.475506e+02
   2.331283e+02   4.894883e+01
   5.830853e+01   2.166960e+02
  -1.382246e+02   1.961951e+02
  -1.975135e+02  -4.812241e+01
  -2.158346e+01  -1.926700e+02
   1.345447e+02  -7.115821e+01
   1.496604e+02   2.309630e+02
  -1.608691e+01   3.615646e+02
  -2.051345e+02   2.048317e+02
  -3.724174e+02  -8.965090e+01
  -2.926820e+02  -2.830117e+02
  -6.403416e+01  -2.660618e+02
   1.805477e+02  -1.392357e+02
   1.585729e+02   2.742890e+00
   1.731570e+01   3.469954e+01
  -1.105598e+02  -9.049078e+01
  -3.227972e+01  -1.964672e+02
   1.471791e+02  -1.185116e+02
   1.364394e+02  -1.567621e+01
   4.977371e+01   6.899300e+01
  -9.603858e+01   1.516596e+01
  -5.693991e+01  -5.781918e+01
   1.477256e+02  -1.058831e+02
   2.908132e+02  -5.199735e+00
   2.655422e+02   1.793058e+02
   4.784401e+01   2.363459e+02
  -1.987895e+02   2.862141e+02
  -2.673789e+02   1.052527e+02
  -1.737712e+02  -8.148437e+01
   7.312377e+01  -1.018989e+02
   1.093526e+02   1.755602e+01
  -5.861104e+00   9.906500e+01
  -1.625760e+02   4.129896e+01
  -2.261488e+02  -8.067622e+01
  -7.096402e+01  -1.434923e+02
   4.314899e+01  -1.151555e+02
   9.716056e+01  -4.665366e+01
   4.912792e+01   3.770509e+01
  -2.399155e+01  -2.426321e+01
  -1.280242e+01  -1.198517e+02
   7.948153e+01  -1.161582e+02
   2.231644e+02  -2.624793e+01
   1.933635e+02   1.071581e+02
   3.777384e+01   2.270222e+02
  -1.767893e+02   1.565452e+02
  -2.108583e+02   5.205387e+01
  -6.985285e+01  -1.196438e+02
   7.808558e+01  -7.865299e+01
   7.683162e+01  -5.349439e+01
  -2.933985e+01   7.479820e-01
  -6.705591e-01   4.145492e+01
   5.663789e+01  -2.033631e+01
   1.006312e+02   1.042750e+01
   8.015347e+01   6.052067e+01
   5.420754e+01   1.403161e+02
  -1.323522e+02   1.346070e+02
  -2.118618e+02   4.853265e+01
  -2.150946e+02  -1.395627e+02
  -7.307362e+01  -3.051322e+02
   9.353198e+01  -1.417757e+02
   1.626432e+02  -6.901039e+00
   1.037364e+02   5.957007e+01
   6.808648e+01   2.608522e+01
   2.473754e+01  -1.703343e+01
   4.427979e+01  -4.203857e+01
   6.628760e+01   5.934867e+01
  -3.233375e+01   5.918123e+01
  -1.081794e+02   6.288193e+01
  -1.024772e+02  -3.618782e+01
   2.285752e+01  -7.964560e+01
   1.176549e+02  -6.831655e+01
   2.077941e+02   9.022971e+01
   1.103183e+02   2.099628e+02
  -1.140074e+02   2.807168e+02
  -3.044285e+02   1.238639e+02
  -2.977313e+02  -7.737702e+01
  -1.447943e+02  -2.168115e+02
   5.906460e+01  -2.042881e+02
   8.734563e+01  -7.302212e+01
   6.654788e+01  -3.335667e+01
   2.453672e+01  -6.733102e+01
   1.024341e+02  -1.305884e+02
   1.305107e+02  -9.872548e+00
   1.725122e+02   1.523661e+02
   4.780461e+01   2.516986e+02
  -9.230161e+01   1.650729e+02
  -1.498418e+02   4.102604e+01
  -1.525002e+02  -1.425652e+02
  -4.479979e+01  -2.103535e+02
   6.683371e+01  -5.987088e+01
   7.110520e+01  -3.261958e+01
   3.700328e+01   4.990499e+01
  -2.203915e+01   7.596241e+01
   2.719155e+01   6.444425e+01
   8.615049e+01  -3.147226e+00
   1.070273e+02   6.811206e+01
  -5.664329e+01   5.308742e+01
  -1.541822e+02   3.440550e+01
  -1.321920e+02  -7.100189e+01
   1.704453e+01  -1.171786e+02
   1.418966e+02  -1.174629e+02
   1.693773e+02   5.439672e+00
   5.169878e+01   5.336950e+01
  -5.760462e+01   3.539371e+01
  -7.429747e+01   3.063474e+01
   7.446161e+00  -3.738208e+01
   6.974703e+01  -5.670590e+01
   6.401407e+01   2.742842e+01
   8.579125e+00   1.024015e+02
   3.696390e+01   9.470769e+01
   4.802241e+01   3.126871e+01
  -4.808057e+00  -5.722771e+00
   2.438056e+01   6.958513e+01
  -5.017408e+00   1.302935e+02
  -1.129454e+02   1.634663e+02
  -1.465231e+02  -8.192886e+00
  -1.274574e+02  -1.426193e+02
  -2.613444e+01  -1.460412e+02
   8.944142e+01  -9.019445e+01
   4.424320e+01  -6.947554e+00
  -6.996872e+01  -4.770217e+00
  -1.570481e+02  -4.220875e+01
  -1.184444e+02  -9.316333e+01
   1.265236e+02  -9.879989e+01
   1.756923e+02  -5.352439e+01
   1.982755e+02   4.607801e+01
   6.929615e+00   1.273460e+02
  -8.630739e+01   5.896082e+01
  -3.327685e+01  -3.804847e+01
   7.088606e+00  -5.800995e+01
   1.051197e+02  -1.097919e+01
   3.876056e+01   1.025178e+02
  -7.533487e+01   1.383309e+02
  -1.807324e+02   1.084440e+02
  -1.082850e+02  -1.023590e+02
   2.666321e+01  -1.358071e+02
   7.227194e+01  -1.439462e+02
   9.133599e+01   3.258425e+01
   9.746645e+01   1.632789e+02
  -2.087639e+01   7.547127e+01
  -4.664770e+01   6.298081e+01
  -5.689760e+01  -2.158443e+01
  -2.332404e+01   4.285459e+00
   1.825871e+01   6.820000e+00
  -1.700854e+01  -3.624563e+01
  -6.222748e+01  -1.320988e+02
  -1.606452e+01  -1.133201e+02
   1.058142e+02  -6.721572e+00
   1.409131e+02   3.434456e+01
   1.575939e+02   5.505648e+01
   6.214180e+01   2.231957e+01
  -5.541682e+01  -4.973160e+00
  -8.528515e+01   7.608493e+00
   7.499656e+00  -1.872175e+01
   4.298359e+01  -4.008199e+01
   1.393773e+01   2.903134e+01
  -9.059953e+01   3.712522e+01
  -7.235543e+00  -8.224679e+00
   8.757252e+01   1.390300e+01
   1.097364e+02  -1.897031e+01
   1.678741e+01   7.549613e+01
  -1.094574e+02   1.140491e+02
  -1.801199e+02   7.157107e+01
  -1.886060e+02  -3.636974e+01
  -1.675150e+01  -1.857192e+02
   1.026387e+02  -1.633409e+02
   8.899017e+01  -8.191002e+01
   4.265593e+01  -1.303139e+01
   3.679345e+01  -2.537822e+01
  -3.274819e+00   8.486724e+00
   7.941401e+00   3.912975e+01
   1.455682e+01   3.931801e+01
   5.001203e+01   9.552610e+01
  -1.631740e+01   4.091743e+01
  -9.468668e+01   1.927460e+01
  -1.082890e+02  -1.412363e+02
  -7.706698e+00  -8.754712e+01
   1.279320e+02  -6.065528e+00
   1.095423e+02   8.622541e+01
   2.780408e+01   1.011789e+02
  -7.686507e+01   6.173316e+01
  -6.408256e+01   2.592500e+01
  -4.256489e+01  -5.197601e+01
   1.387581e+01  -4.049539e+01
  -5.570397e+00  -6.432289e+01
  -3.501207e+01  -4.170835e+00
  -1.826864e+00  -2.673424e+01
   1.565089e+01  -8.225956e+00
   8.129901e+01  -6.560274e+01
   6.782674e+01  -2.799157e+01
   6.973630e+01   4.787123e+01
   1.029434e+01   9.764249e+01
  -2.707492e+01   1.139510e+02
  -8.661529e+01   2.317625e+01
  -2.689343e+01  -3.718151e+01
   6.074854e+00  -5.644734e+01
   4.788458e+01   1.982842e+01
   5.762275e+01   7.933879e+01
   5.366667e+01   1.187431e+01
   1.390644e+01  -2.928999e+01
  -6.257939e+01   3.012329e+00
  -4.369395e+01   8.291744e+00
   4.288921e+00   4.903263e-01
  -1.879791e+01  -6.286796e+01
   3.176245e+01  -9.860708e+01
   1.721629e+01  -9.767705e+00
   3.782661e+00  -2.385541e+01
   4.705830e+01   6.020112e+01
   3.453583e+01   7.949471e+01
  -3.829193e+01   2.531423e+01
  -8.774982e+01  -2.336089e+01
   8.867471e-01  -1.019540e+02
   5.534667e+01  -3.580114e+01
   1.190221e+02  -3.483972e+01
  -2.828724e+01   3.527318e+01
  -3.732460e+01   6.191954e+01
  -8.290275e+01   3.085656e+01
   1.256249e-01   1.160689e+00
   2.937425e+01   7.072812e+00
   8.276919e+00  -2.085810e+01
  -6.196813e+01   2.750549e+01
  -8.024195e+01   2.909816e+00
