
 $NMID
 id='ANONYMOUS ', fmtdat='(2E16.6)'
 volume=1.0
 tramp=1.0
 $END
  -3.121921e+03  -3.210102e+02
  -2.120654e+03  -1.863943e+03
   1.752974e+02  -2.107463e+03
   1.346866e+03  -1.073718e+03
   7.971831e+02   3.500203e+01
  -1.818745e+02   2.429670e+02
  -5.513930e+02  -2.650455e+02
   1.952849e+01  -7.642174e+02
   6.144810e+02  -4.890732e+02
   6.435532e+02   2.799712e+01
   4.338739e+02   5.453768e+02
  -3.679853e+01   7.119589e+02
  -3.778648e+02   1.903193e+02
  -2.683167e+02  -4.364308e+02
   1.487653e+02  -5.912638e+02
   3.966918e+02   4.310913e+00
   2.101071e+02   4.742561e+02
  -1.495842e+02   5.306672e+02
  -3.938973e+02   2.196442e+02
  -4.585255e+02  -1.257948e+02
  -1.625340e+02  -4.275103e+02
   1.910593e+02  -1.697838e+02
   1.740705e+02  -4.414342e+01
  -2.110404e+02  -1.724570e+01
  -4.244854e+02  -2.279744e+02
  -5.897572e+01  -3.652745e+02
   4.413223e+02  -3.140934e+02
   6.812419e+02   1.306714e+02
   2.544674e+02   3.967983e+02
  -3.653875e+02   2.506997e+02
  -6.164717e+02  -1.074467e+02
  -1.953214e+02  -4.118156e+02
   3.182469e+02  -3.792804e+02
   4.311909e+02  -1.510559e+02
   3.222111e+02   2.034851e+02
   4.273187e+01   3.223708e+02
  -1.117245e+02   2.034328e+02
   3.388130e+01  -1.286293e+02
   1.880720e+02  -2.423118e+02
   2.570889e+02   9.455828e+01
   8.263180e+01   5.127107e+02
  -2.721482e+02   4.779972e+02
  -4.135825e+02   2.290627e+01
  -1.371683e+02  -3.683162e+02
   2.501171e+02  -1.817192e+02
   2.624676e+02   3.126414e+02
  -1.828305e+01   4.476297e+02
  -4.882148e+02   1.084551e+02
  -5.293738e+02  -3.840464e+02
  -1.483864e+02  -4.921792e+02
   2.690178e+02  -2.714262e+02
   5.435519e+02   1.055371e+02
   3.261791e+02   3.020670e+02
  -1.201082e+02   2.450289e+02
  -3.474895e+02   4.387530e+01
  -1.979815e+02  -1.171406e+02
   2.304610e+01  -5.052507e+01
   9.760297e+01   1.162143e+02
  -1.192419e+02   8.881098e+01
  -2.932872e+02  -2.643645e+01
  -1.465478e+02  -2.076218e+02
   1.953396e+02  -2.544573e+02
   2.910352e+02  -1.479325e+02
   2.647350e+02   8.540251e+01
  -2.908103e+01   2.670623e+02
  -2.989609e+02   3.130299e+02
  -3.363317e+02   1.953737e+02
  -1.939070e+02  -1.712866e+02
  -1.490923e+01  -3.820655e+02
   7.834978e+01  -3.260208e+02
   8.388419e+01  -1.433181e+02
   6.292894e+01  -4.556354e+01
   1.102542e+02  -9.702838e+01
   1.988110e+02  -5.976899e+01
   2.480596e+02   8.534157e+01
   1.601593e+02   2.721185e+02
  -7.918037e+01   2.030574e+02
  -1.939457e+02  -1.150506e+01
  -2.145184e+02  -2.388688e+02
   2.004408e+01  -2.395441e+02
   2.467454e+02  -8.475966e+01
   2.888904e+02   1.812215e+02
   1.504940e+02   3.055687e+02
  -5.711746e+01   2.350342e+02
  -1.835861e+02   1.481044e+02
  -1.365946e+02   7.153174e+01
  -1.666205e+02   4.875583e+01
  -2.616837e+02   7.623197e+01
  -3.625673e+02  -4.642391e+01
  -3.516294e+02  -2.464769e+02
  -4.155064e+01  -4.081439e+02
   3.431290e+02  -3.887034e+02
   3.882441e+02  -2.025214e+02
   2.959822e+02   7.851150e+01
   7.337379e+01   2.112753e+02
  -1.147728e+02   2.252486e+02
   9.458778e-01  -9.246491e+00
   9.093709e+01  -4.896852e+01
   1.050706e+02  -8.842314e+00
   1.071137e+01   1.174030e+02
  -1.009795e+02   8.517330e+01
  -6.767751e+01  -8.608056e+01
   7.704014e+01  -1.607095e+02
   1.785196e+02   6.267706e+00
   1.571873e+02   2.110682e+02
  -1.193399e+01   3.518103e+02
  -1.930230e+02   1.723167e+02
  -3.423839e+02  -3.356394e+01
  -2.908973e+02  -2.357243e+02
  -8.291575e+01  -2.786892e+02
   1.327683e+02  -1.115295e+02
   1.553249e+02   3.240081e-01
   5.974647e+01   3.262703e+01
  -8.099051e+01  -4.167857e+01
  -2.342303e+01  -8.215421e+01
   1.149541e+02  -8.725031e+01
   1.559886e+02   1.569369e+01
   5.339645e+01   1.938940e+01
  -8.693914e+01  -4.312747e+01
  -5.771162e+01  -7.263742e+01
   1.200137e+02  -1.033904e+02
   3.306905e+02   4.589985e+01
   3.072967e+02   1.364843e+02
   4.356710e+01   2.228842e+02
  -1.825153e+02   2.581082e+02
  -2.803378e+02   1.472629e+02
  -1.587630e+02  -9.321618e+00
   4.464612e+01  -9.360321e+01
   9.136230e+01   7.976466e+00
  -2.695872e+01   1.203339e+02
  -1.638215e+02   3.606362e+01
  -1.699550e+02  -9.604257e+01
  -3.554066e+01  -2.059884e+02
   8.197237e+01  -1.333613e+02
   7.838126e+01  -6.009584e+01
   5.116465e+01  -2.934971e-01
  -5.693758e+01  -7.896071e+00
   3.773521e+00  -9.278610e+01
   1.202700e+02  -1.132207e+02
   2.363933e+02  -4.174900e+01
   2.055398e+02   1.394995e+02
   5.357003e+01   1.960985e+02
  -1.565457e+02   1.512129e+02
  -1.906110e+02   2.447628e+01
  -6.181608e+01  -9.296328e+01
   2.574924e+01  -9.657541e+01
   4.815742e+01  -5.558810e+01
   1.263136e+01   2.572718e+01
  -4.588533e+00  -8.046363e+00
   3.570352e+01  -3.851326e+01
   7.779820e+01  -3.657386e+01
   1.163627e+02   9.642336e+01
   3.730448e+01   1.569991e+02
  -1.205281e+02   1.694810e+02
  -2.378026e+02   5.239566e+00
  -1.727749e+02  -1.390158e+02
  -3.424846e+01  -2.541414e+02
   1.052124e+02  -1.281485e+02
   1.122944e+02  -1.379943e+01
   6.646231e+01   5.482406e+01
   3.431139e+01   4.340403e+01
   7.963542e+01  -2.037871e+01
   1.023057e+02  -1.739206e+01
   6.239548e+01   7.282998e+01
  -1.175276e+00   1.256294e+02
  -6.649048e+01   8.879676e+01
  -4.124999e+01  -2.146756e+01
  -1.832218e+01  -1.404729e+02
   9.920977e+01  -8.326650e+01
   2.112776e+02   5.447585e+01
   1.572477e+02   2.273894e+02
  -4.811244e+01   2.539889e+02
  -1.848372e+02   7.640826e+01
  -2.463901e+02  -6.712827e+01
  -1.369015e+02  -1.844953e+02
   7.387225e+00  -1.274198e+02
   8.651361e+01  -9.625083e+01
   1.032461e+02  -7.760399e+01
   6.490314e+01  -1.086277e+02
   4.608264e+01  -1.018333e+02
   1.442416e+02   5.645194e+00
   1.449930e+02   1.458360e+02
   2.812378e+01   2.320042e+02
  -1.140611e+02   1.780515e+02
  -1.718503e+02   4.642171e+00
  -1.165268e+02  -9.353574e+01
  -6.579589e+01  -1.229841e+02
   8.269904e+01  -7.955581e+01
   6.906619e+01  -1.006493e+01
   8.619241e+00   1.614000e+01
   2.446342e+01   3.849074e+01
   1.889120e+01   3.038403e+01
   4.968137e+01   1.791772e+01
   5.128174e+01   2.115926e+01
  -6.946975e+01   4.610233e+01
  -1.150930e+02  -3.526251e+01
  -1.423681e+02  -7.369822e+01
   7.253785e+00  -6.758549e+01
   1.600058e+02  -1.073904e+02
   1.358761e+02   1.597236e+01
   8.010464e+01   3.910745e+01
  -7.102894e+01   7.273239e+01
  -6.483621e+01  -3.479711e+01
  -4.701830e+01  -6.103331e+01
   5.589972e+01  -4.650114e+01
   4.103869e+01  -1.284073e+01
   1.975764e+01   1.649085e+01
   5.901368e+01   4.005478e+01
   8.689129e+01   2.761046e+01
   7.070850e+01  -9.491308e+00
   8.982647e+01   7.691937e+01
   3.991444e+00   1.310701e+02
  -1.052539e+02   1.705048e+02
  -1.360821e+02   7.221173e+01
  -1.384673e+02  -5.877674e+01
  -3.536812e+01  -1.390979e+02
   6.586805e+01  -8.803594e+01
   4.843383e+01   5.157371e+00
  -7.850744e+01   4.042713e+01
  -9.200237e+01  -2.095678e+01
  -8.983526e+01  -6.718994e+01
   8.811682e+01  -1.226614e+02
   1.694359e+02  -4.672454e+01
   1.623497e+02   1.506418e+01
   3.823333e+01   6.471028e+01
  -5.898288e+01   9.891411e+01
  -1.916824e+01  -9.173627e+00
   5.076540e+01  -1.989519e+01
   1.245816e+02  -2.849272e+01
   4.341745e+01   7.345603e+01
  -9.549299e+01   1.666807e+02
  -1.624328e+02   4.948487e+01
  -9.548649e+01  -7.601136e+01
  -4.861052e+00  -1.413348e+02
   1.203850e+02  -1.388480e+02
   1.384678e+02   2.409438e+01
   5.347141e+01   1.198063e+02
   1.316324e+01   1.290345e+02
  -5.350867e+01   2.584755e+01
  -6.819500e+01  -3.028333e+01
  -4.377868e+00  -7.019014e+00
   7.595840e+00   9.482759e+00
  -3.277425e+01   2.026219e+00
  -7.560223e+01  -7.087306e+01
  -4.640042e+01  -8.174380e+01
   6.157644e+01  -7.251778e+01
   1.130699e+02   2.559125e+01
   1.114290e+02   5.285387e+01
  -4.355959e+01   8.586019e+01
  -8.324570e+01   6.582099e+01
  -1.146507e+02  -2.783854e+01
  -1.123682e+01  -6.519026e+00
   5.009675e+01  -5.409524e+01
   7.524479e+01  -3.897041e+01
  -1.742289e+01   4.289921e+01
   1.343896e+01   8.739355e+00
   8.341642e+01  -1.343966e+01
   1.081888e+02   4.397405e+01
   4.044340e+01   7.556828e+01
  -7.467517e+01   1.348105e+02
  -1.812258e+02   1.175086e+02
  -1.395207e+02   1.785172e+01
  -5.511088e+01  -1.275125e+02
   5.486149e+01  -1.714958e+02
   8.475653e+01  -1.311703e+02
   7.147423e+01   1.547007e+01
   6.984470e+01   1.171650e+01
  -1.843880e+01   3.800603e+00
  -2.315299e+01   6.639133e+01
   3.691116e+01   4.384874e+01
   2.616335e+01   1.160627e+02
  -1.444261e+01  -5.944732e+00
  -7.550130e+01  -2.869588e+01
  -6.105482e+01  -6.966371e+01
  -1.373696e+01  -7.372647e+01
   1.081015e+02   8.771073e+00
   9.991967e+01  -4.156375e+00
   4.790195e+01   9.453489e+01
  -7.661800e+01   1.403166e+01
  -5.196990e+01  -9.983924e+00
  -2.463111e+01  -7.342204e+01
   3.185464e+01  -3.536277e+01
   4.071214e+01  -2.546798e+01
  -2.419054e+01   4.538789e+01
  -8.541172e+01   5.880101e+00
  -3.183277e+01   1.069930e+01
   5.620480e+01  -1.101560e+02
   1.133043e+02  -4.950568e+01
   3.829445e+01  -2.317846e+01
   3.165694e+01   8.778651e+01
  -4.470928e+01   6.730484e+01
  -3.406831e+01   1.851209e+01
  -1.146449e+01  -2.085090e+01
   5.491589e+00  -3.113607e+01
   2.604821e+01   5.587993e+01
  -5.447690e+00   6.052070e+01
   2.057890e+00   3.963801e+01
  -6.109931e+01  -2.349445e+01
  -2.451371e+01  -1.850577e+01
  -3.591053e+01   2.611448e+00
   3.912127e+00   2.806876e+01
   2.441541e+00   1.025779e+01
   2.705442e+01  -3.600886e+01
  -2.097902e+00  -2.787864e+01
   4.079562e+01  -5.139842e+01
   6.046578e+01   4.856194e+01
  -2.379755e+00   7.646557e+01
  -8.269372e+01   1.469808e+01
  -5.244760e+01  -8.133028e+01
  -3.949879e+01  -5.096182e+01
   1.914919e+01  -2.561624e+01
   1.193355e+02   2.004644e+01
   3.639954e+01   6.813587e+01
   2.784772e+01   3.191332e+01
  -8.500330e+01  -2.527922e+00
   7.317962e+00   2.226452e+01
   4.881546e+00  -1.282283e+01
   4.189673e+01   2.447432e+01
   1.365942e-01   3.147168e+01
  -1.025198e+02   2.429754e+01
