
 $NMID
 id='ANONYMOUS ', fmtdat='(2E16.6)'
 volume=1.0
 tramp=1.0
 $END
   3.459371e+03   2.015037e+02
   2.206442e+03   2.159492e+03
  -4.942215e+02   2.285737e+03
  -1.573950e+03   8.922559e+02
  -9.241121e+02  -2.533381e+02
   1.735802e+02  -3.932131e+02
   4.197634e+02   1.656749e+02
   5.327364e+01   6.545018e+02
  -5.924968e+02   6.361012e+02
  -7.510177e+02  -2.938484e+01
  -3.850328e+02  -6.065053e+02
   1.126831e+02  -7.087648e+02
   3.835397e+02  -1.961120e+02
   2.255887e+02   5.292769e+02
  -1.693659e+02   6.409814e+02
  -4.989830e+02   3.306114e+01
  -2.818318e+02  -5.572287e+02
   2.784911e+02  -6.827238e+02
   5.497856e+02  -1.802160e+02
   4.379322e+02   2.558279e+02
   1.081322e+02   3.680787e+02
  -9.373327e+01   3.136788e+02
  -1.103960e+02   1.542414e+02
   1.430571e+02   1.311345e+02
   2.975656e+02   2.912033e+02
   1.537215e+00   4.011633e+02
  -4.624518e+02   1.735374e+02
  -6.546514e+02  -1.243532e+02
  -3.193866e+02  -4.093892e+02
   3.856075e+02  -2.444070e+02
   6.056605e+02   1.372532e+02
   2.242124e+02   4.652631e+02
  -2.559873e+02   3.884555e+02
  -4.904706e+02   1.400400e+02
  -3.329982e+02  -2.081807e+02
  -9.367834e+01  -3.622832e+02
   1.115253e+02  -2.455950e+02
   1.386961e+01   1.330153e+02
  -1.357830e+02   2.389182e+02
  -2.371505e+02  -1.292413e+02
  -1.031803e+02  -5.381164e+02
   2.621453e+02  -4.966200e+02
   3.988551e+02  -1.525039e+01
   1.860342e+02   3.336710e+02
  -1.916107e+02   1.499098e+02
  -2.211179e+02  -3.132492e+02
   1.215894e+02  -3.924487e+02
   4.920684e+02  -2.169239e+01
   5.323875e+02   4.117121e+02
   1.280465e+02   5.133189e+02
  -3.176470e+02   2.516199e+02
  -5.359217e+02  -7.735184e+01
  -3.413218e+02  -2.470253e+02
   9.757741e+01  -2.305742e+02
   3.365242e+02  -4.245655e+01
   2.980233e+02   7.279688e+01
   2.266120e+00   1.180390e+01
  -7.820945e+01  -7.194459e+01
   1.237237e+02  -1.146415e+02
   2.872385e+02   1.225618e+02
   1.625347e+02   2.372380e+02
  -1.591558e+02   2.402026e+02
  -3.347296e+02   9.884571e+01
  -2.329506e+02  -1.407445e+02
   4.275588e+01  -2.914448e+02
   2.870071e+02  -3.444591e+02
   3.691099e+02  -1.503226e+02
   2.578092e+02   1.631954e+02
   4.748460e+01   4.268213e+02
  -5.182856e+01   3.539091e+02
  -6.282516e+01   1.338637e+02
  -2.842140e+01   3.899130e+01
  -9.527569e+01   5.584972e+01
  -2.487933e+02   5.740910e+01
  -2.320176e+02  -9.933519e+01
  -1.256696e+02  -2.535983e+02
   7.628846e+01  -2.078487e+02
   2.124931e+02   2.255369e+01
   1.599640e+02   2.013968e+02
  -4.336787e+01   2.654593e+02
  -3.068571e+02   3.969175e+01
  -3.320878e+02  -1.922936e+02
  -1.538492e+02  -3.428069e+02
   8.686803e+01  -3.133856e+02
   2.108128e+02  -1.475511e+02
   1.945217e+02  -6.072172e+01
   1.874773e+02  -5.635095e+00
   2.884076e+02  -3.288061e+01
   4.472705e+02   1.281735e+02
   3.150709e+02   3.399154e+02
  -3.263536e+01   4.720937e+02
  -4.019940e+02   4.197101e+02
  -4.824000e+02   1.898699e+02
  -3.564563e+02  -1.312685e+02
  -1.019476e+02  -2.700432e+02
   1.283429e+02  -2.135383e+02
   2.982016e+01  -1.447414e+01
  -9.680620e+01   7.192621e+01
  -1.697436e+02  -4.572514e+01
  -5.348781e+01  -1.958238e+02
   5.419519e+01  -1.651265e+02
   1.224917e+02   7.970835e+00
   3.368044e+01   9.391031e+01
  -1.237327e+02   1.312184e+01
  -7.114107e+01  -2.328093e+02
   9.938016e+01  -3.014710e+02
   2.574006e+02  -1.520310e+02
   3.335795e+02   1.303813e+02
   2.504894e+02   2.865720e+02
   5.258837e+01   2.989970e+02
  -1.280748e+02   1.273771e+02
  -2.015929e+02   3.686915e+01
  -5.344317e+01  -1.585193e+01
   5.208390e+01   2.150800e+01
  -3.181608e+01   8.203378e+01
  -1.180709e+02   7.102682e+01
  -1.660704e+02  -2.537221e+01
  -4.827722e+01  -7.901313e+01
   9.258074e+01   1.600034e+01
   4.270046e+01   7.300323e+01
  -1.369324e+02   1.157277e+02
  -2.778467e+02  -1.217770e+01
  -2.504265e+02  -1.732277e+02
  -2.763992e+01  -2.859920e+02
   2.144558e+02  -2.571382e+02
   3.187471e+02  -1.162298e+02
   1.782212e+02   7.672443e+01
  -2.953539e+01   1.115490e+02
  -6.555452e+01  -2.683103e+01
   2.836451e+01  -4.630374e+01
   1.407791e+02  -2.422464e+01
   1.782472e+02   1.337307e+02
   2.837693e+01   2.004054e+02
  -1.119955e+02   1.076091e+02
  -1.196609e+02  -1.482523e+01
  -4.040293e+01  -7.002685e+01
   5.201816e+01  -2.881026e+01
   5.530868e+00   9.408286e+01
  -1.088218e+02   9.916376e+01
  -1.604576e+02   3.838238e+01
  -1.783542e+02  -1.456514e+02
  -3.734631e+01  -2.138452e+02
   1.363373e+02  -1.474446e+02
   1.515208e+02   1.443426e+01
   3.670707e+01   1.227452e+02
  -5.066306e+01   8.355228e+01
  -2.507440e+01   3.665632e+01
   1.546658e+01  -2.762020e+01
   7.459604e+01  -1.031058e+01
  -3.147802e+01  -1.561481e+00
  -1.223602e+02   3.081866e+01
  -8.595385e+01  -1.409038e+02
   1.672228e+00  -1.685089e+02
   1.630167e+02  -1.207292e+02
   1.724674e+02   2.219515e-01
   1.486478e+02   1.628571e+02
   3.567853e+00   2.208109e+02
  -1.214701e+02   1.538439e+02
  -1.271462e+02   4.062646e+01
  -8.427508e+01  -5.185361e+01
  -3.777620e+01  -4.755494e+01
  -4.308579e+01   2.174166e+01
  -7.246287e+01  -3.311814e+01
  -1.572466e+01  -7.500409e+01
   7.818048e+01  -1.168419e+02
   9.987011e+01  -4.684095e+01
   1.215848e+02   4.727632e+01
  -4.405382e+01   1.390220e+02
  -1.670626e+02   9.173415e+01
  -2.085684e+02  -5.643241e+01
  -1.020085e+02  -2.024275e+02
   1.005585e+02  -2.666714e+02
   2.935396e+02  -1.117146e+02
   2.455134e+02   8.817172e+01
   6.385852e+01   1.152196e+02
  -3.622977e+01   1.673269e+02
  -6.536679e+01   5.447896e+01
  -1.788525e+01   5.285704e+01
   7.470694e-01   8.178552e+01
  -1.046556e+02   1.012294e+02
  -1.578219e+02  -4.456677e+00
  -1.102913e+02  -1.465944e+02
  -1.491570e+00  -2.342251e+02
   1.224768e+02  -1.674658e+02
   1.911487e+02   6.300795e+01
   8.061323e+01   1.699695e+02
   1.218066e+00   1.939756e+02
  -8.606737e+01   7.071509e+01
  -7.485421e+01  -4.774566e+01
  -4.224470e+00  -6.461840e+01
   4.487916e+01  -4.254575e+01
  -6.812821e+00  -1.757415e+01
  -5.903203e+01  -3.703649e+01
  -2.203886e+01  -2.883548e+01
   7.603147e+01  -4.200495e+01
   1.853358e+02   5.422855e+01
   1.117512e+02   8.588298e+01
  -2.047154e+01   1.088289e+02
  -1.324595e+02   4.424867e+01
  -1.524778e+02  -1.132631e+01
  -4.154902e+01  -4.133506e+01
   7.787007e+01  -3.185286e+01
   6.277233e+01   1.107026e+01
  -5.039181e+01   6.031047e+01
  -8.080827e+01   3.798808e+01
  -7.668670e+01  -4.647705e+01
  -7.261403e+01  -6.740634e+01
  -5.463331e+00  -5.495927e+01
  -7.498005e+01  -4.062275e+01
  -4.103931e+01  -5.665223e+01
  -4.545134e+01  -1.139386e+02
   4.248815e+01  -1.293357e+02
   1.377222e+02  -1.382550e+02
   1.909597e+02   1.073117e+00
   1.312409e+02   1.347372e+02
  -3.639688e+01   1.476533e+02
  -1.219091e+02   9.489041e+01
  -7.687229e+01  -2.616545e+01
   3.970864e+01  -3.308590e+01
   1.363087e+02   3.498142e+01
   9.618313e+01   1.178259e+02
  -1.023557e+02   1.022475e+02
  -1.597207e+02   4.966959e+01
  -1.906554e+02  -4.448342e+01
  -1.435172e+01  -7.771617e+01
   9.272595e+01  -4.844792e+01
   2.498388e+01  -1.023221e+01
  -4.664871e+01   1.473767e+01
  -9.472910e+01  -7.148392e+01
  -4.501058e+01  -1.625787e+02
   1.420986e+02  -1.376684e+02
   1.778515e+02  -4.211240e+01
   1.189534e+02   9.464106e+01
  -1.882695e+01   2.067953e+02
  -1.383443e+02   1.634702e+02
  -1.211339e+02  -2.848606e+01
  -7.849787e+01  -9.794186e+01
   6.212679e+00  -1.314311e+02
   2.379183e+01   2.025933e+00
   6.569573e+01   4.645978e+01
  -2.051274e+00   2.431818e+00
   1.222993e+01  -8.992371e+00
   3.313265e+01   1.961810e+01
   3.584972e+01   8.315411e+01
   3.629925e+01   1.050124e+02
  -8.618324e+01   6.508188e+01
  -1.278973e+02  -2.165044e+01
  -1.253712e+02  -1.008975e+02
  -2.426179e+01  -5.658832e+01
   6.283081e+01  -1.825554e+01
   9.493331e+01  -3.442871e+01
   1.991633e+01  -1.410104e+01
  -9.680115e+00  -6.171176e+00
   2.113020e+00   1.832024e+01
  -1.866646e+01  -6.797740e+00
  -5.829431e-01  -2.219833e+01
  -5.514099e+01   2.602453e+01
  -1.104168e+02  -3.779544e+01
   5.244289e+00  -1.159286e+02
   8.218497e+01  -9.919891e+01
   1.955669e+02  -5.103981e+01
   1.314891e+02   9.124997e+00
   1.462146e+00   1.073401e+02
  -8.557311e+01   1.399032e+02
  -1.061115e+02   1.878076e+01
  -2.980090e+01  -4.851783e+01
   2.485135e+01  -3.436581e+01
   4.454035e+01   2.491151e+01
  -5.321425e+00   2.350620e+01
  -6.954872e+00  -5.427598e+01
  -1.194965e+01  -8.595187e+01
   3.210072e+01  -4.733424e+01
   5.531446e+01   4.126910e+01
   8.720252e+01   1.359350e+02
   1.080371e+01   1.161131e+02
  -1.017403e+02   1.474880e+01
  -9.468970e+01  -7.130918e+01
  -1.238770e+01  -9.574983e+01
   9.834304e+01  -2.672422e+01
   9.394976e+01   7.043077e+00
   3.876971e+01   6.905114e+01
  -3.159189e+01   5.752685e+01
  -4.179472e+01   1.397933e+00
   3.665929e+01   1.554976e+00
   8.166036e+01   1.056736e+00
   8.144723e+01   5.300226e+01
  -5.157594e+01   9.060290e+01
  -1.161731e+02   7.264998e+01
  -3.135054e+01  -1.177086e+01
  -1.467391e+01  -8.672199e+01
   3.402333e+01  -7.344421e+01
   1.837925e+01  -3.143113e+01
  -3.311220e+01   4.240632e+01
  -2.032917e+01   3.794810e+01
  -3.142654e+01  -2.369167e+01
   1.224776e+01  -8.400473e+01
  -2.508980e+00  -1.069282e+02
   3.917561e+01   7.443896e-01
   9.661904e+00  -2.829728e+00
   6.983392e+01   1.585650e+01
  -2.115704e+01   2.011130e+00
  -2.684093e+01  -1.169937e+01
  -1.402492e+01   6.152738e+01
  -4.444722e+01   6.118435e+01
  -3.719305e+01   4.668532e+00
  -1.642382e-01  -5.703420e+01
  -7.250496e+00  -3.155013e+01
   5.986438e+01  -2.737652e+00
   3.046422e+01   2.632367e+01
   2.110677e+01   5.536736e+01
  -6.537243e+01   3.305880e+01
  -6.758306e+01  -1.715039e+01
  -5.501087e+01  -7.881581e+01
   5.459124e+01  -5.361910e+01
   9.566640e+01   2.052703e+01
   9.263232e+00   4.867123e+01
  -5.545397e+01   4.566230e+01
  -8.935760e+01  -2.601681e+01
   1.486925e+01  -5.072152e+01
   1.162669e+02   1.371712e+01
