
 $NMID
 id='ANONYMOUS ', fmtdat='(2E16.6)'
 volume=1.0
 tramp=1.0
 $END
  -1.729494e+03  -3.196090e-01
  -9.376387e+02  -9.897758e+02
   1.568858e+02  -1.072834e+03
   6.852446e+02  -4.496303e+02
   3.399514e+02   3.385511e+01
  -2.085080e+01   1.373221e+02
  -2.077942e+02  -5.821537e+01
  -1.888372e+01  -3.502396e+02
   3.145149e+02  -3.104420e+02
   3.846717e+02   3.909790e+01
   2.417037e+02   3.624425e+02
  -4.187961e+01   3.900875e+02
  -2.055688e+02   1.795226e+01
  -1.305983e+02  -2.493154e+02
   6.254666e+01  -2.625179e+02
   1.857610e+02  -1.201729e+02
   1.563182e+02   2.979227e+02
  -1.771626e+02   3.439631e+02
  -2.305308e+02   6.574570e+01
  -1.766200e+02  -1.383962e+02
  -8.902800e+01  -1.849348e+02
   2.593141e+01  -1.516986e+02
   1.124322e+02  -4.230893e+01
  -8.232514e+01  -7.880746e+01
  -1.267003e+02  -1.303365e+02
  -8.478910e+00  -1.311980e+02
   2.388226e+02  -1.384100e+02
   2.902439e+02   4.268439e+01
   1.745414e+02   2.269980e+02
  -1.273817e+02   1.509888e+02
  -2.914798e+02  -5.970586e+01
  -1.371539e+02  -1.600520e+02
   1.082293e+02  -2.090763e+02
   2.159782e+02  -8.129298e+01
   1.809478e+02   4.512746e+01
   4.477972e+01   1.095496e+02
  -9.404899e+00   8.141010e+01
  -7.673944e+00  -5.624301e+01
   1.117483e+02  -1.120355e+02
   1.239898e+02   5.306751e+01
   4.029441e+01   2.376989e+02
  -8.863196e+01   2.249419e+02
  -1.730758e+02   3.587948e+01
  -4.100100e+01  -1.293886e+02
   1.087865e+02  -1.017961e+02
   7.112452e+01   1.255341e+02
  -8.045933e+01   1.793931e+02
  -1.981606e+02   1.563862e+01
  -2.393757e+02  -1.555829e+02
  -2.132669e+01  -2.915798e+02
   1.936960e+02  -1.418096e+02
   2.590260e+02   4.179926e+01
   1.698617e+02   1.556416e+02
  -4.178979e+01   1.684200e+02
  -1.618629e+02   1.014882e+00
  -1.187143e+02  -8.134771e+01
   2.136262e+01  -4.989086e+01
   7.168351e+01   4.497511e+01
  -5.594961e+01   5.375984e+01
  -1.365092e+02   3.994682e+01
  -6.438274e+01  -1.085855e+02
   1.266825e+02  -1.200118e+02
   1.575935e+02  -4.882407e+00
   1.205793e+02   8.580162e+01
  -1.273485e+01   1.272745e+02
  -1.598201e+02   1.380359e+02
  -1.876686e+02   4.916508e+01
  -9.566544e+01  -8.969981e+01
  -2.995376e+01  -2.010625e+02
   5.422755e+01  -1.651086e+02
   4.323220e+01  -4.749037e+01
  -1.349487e+01  -4.626805e+01
   1.392028e+01  -3.020877e+01
   1.144387e+02  -3.727824e+01
   1.024380e+02   7.212703e+01
   1.631929e+01   1.281819e+02
  -8.288090e+01   1.171795e+02
  -1.128811e+02  -1.655582e+01
  -7.890826e+01  -1.524375e+02
   3.124750e+01  -1.301779e+02
   1.598175e+02   9.680736e+00
   1.487639e+02   1.288750e+02
   9.410862e+01   1.695374e+02
  -1.630097e+01   1.198922e+02
  -5.008243e+01   5.014111e+01
  -8.934203e+01   3.695348e+01
  -1.120629e+02   3.916809e+01
  -1.523352e+02   4.178884e+01
  -1.693850e+02  -3.537992e+01
  -1.553285e+02  -1.576310e+02
   3.077425e+00  -2.686397e+02
   1.659072e+02  -1.838884e+02
   2.228155e+02  -7.147901e+01
   1.505107e+02   3.220850e+01
   1.077209e+01   1.450626e+02
  -6.022872e+01   1.014705e+02
   1.844934e+01   3.497693e+01
   3.204520e+01   5.216958e+00
   1.042512e+02   1.870241e+01
  -1.449489e+01   7.316343e+01
  -2.818906e+01   5.697760e+01
  -4.246877e+01   1.881473e+01
   2.175406e+01  -5.234297e+01
   6.030131e+01   4.336084e+01
   3.200124e+01   1.012710e+02
  -2.488502e+01   1.749389e+02
  -1.118916e+02   6.965993e+01
  -1.435073e+02   4.762915e+00
  -1.481123e+02  -1.564382e+02
  -6.186769e+01  -1.199457e+02
   7.058863e+01  -1.005836e+02
   9.542142e+01  -3.445933e+01
   3.632990e+01   1.323070e-01
  -4.320592e+01   1.431016e+01
   1.029983e+01  -6.647994e+01
   8.523448e+00   2.068362e+00
  -3.557642e+00   1.889853e+01
   3.234393e+01   1.487957e+01
  -2.019751e+00  -2.152027e+01
   1.101352e+01  -4.393955e+01
   9.216291e+01  -2.251900e+01
   1.290948e+02  -4.852165e+00
   9.692183e+01   7.382365e+01
   1.963244e+01   1.112765e+02
  -9.506481e+01   1.424222e+02
  -1.016784e+02   2.740813e+01
  -3.694671e+01  -4.213892e+01
  -8.680819e+00   7.951911e+00
   1.470187e+00  -1.472177e+01
  -1.675810e+01   2.686015e+01
  -1.027221e+02   2.077352e+01
  -6.738417e+01  -3.658134e+01
  -6.086118e+01  -7.557686e+01
   4.926338e+01  -4.462177e+01
   5.314099e+01  -1.742019e+01
  -1.087932e+01   4.792900e+00
  -3.588387e+01  -2.389279e+01
  -1.038166e+01  -8.553363e+01
   5.192646e+01  -7.357597e+01
   1.451807e+02  -5.889851e+00
   7.300026e+01   7.390746e+01
  -1.681662e+01   1.013275e+02
  -8.312158e+01   7.442584e+01
  -1.029967e+02   1.916663e+01
  -7.170929e+01  -1.052215e+02
   3.930168e+01  -5.147278e+01
   9.714550e+00  -6.488284e+00
   5.696120e+01   9.327509e+00
   1.896828e+01   4.884708e+01
   4.011418e+01   4.134647e+01
   4.389820e+01   3.074279e+01
   3.882608e+01   5.661667e+01
  -1.687587e+01   1.100125e+02
  -7.285177e+01   7.999152e+01
  -1.217415e+02   1.279449e+01
  -9.247200e+01  -9.653739e+01
  -3.125116e+01  -1.426417e+02
   4.836992e+01  -6.613589e+01
   8.205066e+01  -2.361858e+01
   5.361873e+01  -2.302015e+01
   2.039664e+01  -4.601923e+00
   5.578570e+01   1.099688e+00
   4.664379e+01   2.452202e+01
   4.438782e+01   2.901073e+01
  -3.686741e+01   4.294916e+01
  -7.741181e+01   1.594353e+01
  -6.320400e+01  -7.513988e+01
   3.183282e+01  -8.542050e+01
   9.678800e+01  -7.242772e+01
   1.517321e+02   4.293714e+01
   8.632182e+01   8.024526e+01
  -4.161900e+01   1.182152e+02
  -1.335458e+02   5.068886e+01
  -1.317818e+02  -6.288207e+01
  -7.972735e+01  -1.209225e+02
   3.955283e+01  -8.051229e+01
   4.526348e+01  -5.759899e+01
   4.873169e+01  -7.814565e+01
   5.826703e+01  -8.706275e+01
   5.786047e+01  -2.932271e+01
   5.982095e+01  -6.717139e+00
   3.381853e+01   6.581986e+01
   2.824624e+01   8.467658e+01
  -3.274929e+01   6.445548e+01
  -8.911273e+01  -1.332355e+01
  -9.155715e+00  -6.789387e+01
   4.176259e+01  -7.210300e+01
   3.269886e+00  -3.178520e+01
   2.804410e+01   1.525924e+00
  -3.433272e+01  -1.873027e+00
  -6.110917e+00  -2.878468e+01
   8.903685e+00  -1.640376e+01
   6.074208e+01   1.559182e+01
   4.737667e+01   5.318011e+01
  -3.115889e+01   3.207247e+01
  -8.288484e+01  -1.422874e+01
  -7.040522e+01  -8.409133e+01
   4.623479e+01  -6.071240e+01
   2.553790e+01  -4.676957e+01
   1.035251e+02   2.776746e+01
   2.712181e+01   2.940092e+01
   4.935839e+00   5.737626e+01
  -2.340951e+01   2.428521e+00
   1.959935e+00  -5.602270e+01
   3.816006e+01  -4.356440e+01
   7.534545e+01  -1.026896e+01
   3.413146e+01   2.316250e+01
   1.876459e+01  -1.071957e+01
   4.419112e+01  -7.702500e+00
   4.095071e+01   4.759387e+01
   4.815363e+01   4.042862e+01
  -3.202374e+01   7.218832e+01
  -5.610278e+01   1.148972e+02
  -7.163042e+01   2.444909e+01
  -6.511354e+01  -5.318990e+01
  -3.259977e+01  -5.157484e+01
   5.737125e+00  -4.133663e+01
  -1.569651e+01   2.472571e+01
  -3.807254e+01   2.418459e+01
  -5.338345e+01  -5.448826e+01
  -1.000773e+01  -6.398267e+01
   6.017455e+01  -7.283709e+01
   8.334601e+01  -1.003497e+01
   8.503936e+01  -1.168186e+01
   3.241102e+01   5.464720e+01
  -2.350049e+01   1.665346e+01
   3.388924e+01   3.047332e+01
   3.498351e+01   2.230603e+01
   4.047604e+01   3.549089e+01
   5.499248e+00   8.082941e+01
  -4.690023e+01   8.481706e+01
  -8.380228e+01   2.995024e+01
  -7.242681e+01  -4.094214e+01
   3.513174e+00  -7.024621e+01
   5.418200e+01  -8.082010e+01
   4.977700e+01  -2.250985e+01
   4.545284e+01   6.506291e+01
   6.828958e-01   3.894746e+01
  -1.416608e+01   2.717795e+00
  -1.885723e+01  -1.967531e+01
   8.650564e+00   1.320748e+01
   6.925082e+00   1.442317e+01
  -1.049870e+01   5.359948e+00
  -2.146547e+01  -4.282666e+01
   2.060648e+01  -7.295988e+01
   1.973943e+01  -1.854588e+01
   8.427741e+01   3.470913e+01
   2.407057e+01   4.750570e+01
   4.361865e+00   3.267355e+01
  -6.932726e+01  -7.736777e+00
  -2.162391e+01  -7.349473e+00
  -1.888964e+01  -2.108540e+01
   5.146426e+01  -2.025091e+01
  -1.122066e+01  -8.069926e+00
   1.534982e+01  -3.012455e+01
   3.142915e+01  -2.363447e+01
   7.059427e+01   3.068142e+01
   2.445580e+01   3.698071e+01
  -1.388122e+01   5.333685e+01
  -7.889733e+01   4.052515e+01
  -9.257212e+01   9.706437e+00
  -9.015461e+01  -6.027317e+01
  -4.093300e+01  -7.590251e+01
   2.816647e+01  -4.640635e+01
   7.225034e+01  -8.692707e+01
   4.966295e+01  -2.689678e+01
   4.814316e+00  -1.232879e+01
   1.552021e+01   6.288131e+01
  -4.900474e+01   3.793904e+00
  -7.789197e+00   4.158218e+01
  -3.624746e+01   3.490452e+01
  -1.226701e+01   3.367849e+01
  -4.708531e+00  -1.544786e+01
  -6.382266e+01  -6.090411e+01
  -4.833049e-01  -5.024254e+01
   5.926468e+01  -3.792994e+01
   9.205643e+00   3.266837e+01
   2.269234e+01   6.759167e+01
  -1.569993e+01   2.166685e+01
  -5.071783e+01  -2.860046e+01
  -3.098134e+01  -4.664409e+01
   4.393682e+00  -3.392882e+01
   2.025097e+01   4.649327e+00
  -3.531905e+01  -2.456260e+01
  -7.446245e+00  -1.153597e+00
   2.508816e+01  -4.769848e+00
   4.171389e+01  -3.266867e+01
   5.525243e+01  -1.366780e+01
   5.861243e+01   1.632725e+01
  -7.280194e+00  -1.547147e+01
  -2.419748e+01   9.792455e+00
  -9.952559e+00  -1.000625e+01
  -2.573668e+00  -4.761401e+01
   5.024176e+01  -1.194428e+01
   2.013098e+01   5.309603e+00
   6.886753e+00   3.443056e+01
   2.043814e+01   6.749868e+01
  -1.446115e+01   2.486851e+01
  -5.772213e+01   9.513376e+00
  -4.324377e+01   2.772919e+01
   6.220774e+00   2.566425e+00
   1.917832e+01   5.355710e+00
   3.151687e+01  -3.360184e+01
   2.092578e+01  -3.459557e+01
   1.626047e+01   1.635669e+01
   6.735386e+01   5.834551e+01
   1.877037e+01   3.903585e+01
  -1.311387e+01   2.921149e+01
   1.697197e+01  -9.012294e+00
   7.334614e+00  -3.308069e+01
   2.802759e+01  -2.294588e+01
   1.883314e+01   1.378083e+01
   1.623766e+01   2.442824e+01
  -8.037913e+01   4.523896e+01
  -5.749872e+01  -2.712540e+01
  -2.101299e+01   5.189431e+00
  -6.796806e+00   4.681271e+00
  -9.955963e+00   2.361989e+01
  -7.723529e+00  -9.133331e+00
  -3.951872e+01  -1.106068e+01
