
 $NMID
 id='ANONYMOUS ', fmtdat='(2E16.6)'
 volume=1.0
 tramp=1.0
 $END
   3.486032e+03  -9.061789e+01
   2.293093e+03   1.882102e+03
  -1.997365e+02   2.332864e+03
  -1.570303e+03   9.949576e+02
  -8.443393e+02   1.465079e+01
   2.405845e+02  -3.830307e+02
   5.697775e+02   4.281455e+02
  -6.217671e+01   7.761947e+02
  -6.768992e+02   6.560687e+02
  -7.658547e+02   2.793597e+01
  -4.514037e+02  -5.909917e+02
   6.776741e+01  -7.238837e+02
   4.224012e+02  -1.536203e+02
   2.866411e+02   5.232092e+02
  -2.241316e+02   6.631933e+02
  -5.042646e+02  -3.859878e+01
  -2.751198e+02  -6.046686e+02
   1.158198e+02  -5.733689e+02
   4.718410e+02  -1.726856e+02
   4.534905e+02   2.267960e+02
   1.134986e+02   3.744718e+02
  -2.010637e+02   3.335398e+02
  -1.380955e+02   3.865439e+01
   1.819610e+02  -8.586419e+01
   3.574900e+02   2.610893e+02
   1.089325e+02   4.485715e+02
  -4.862603e+02   2.723909e+02
  -7.003238e+02  -1.777394e+02
  -2.734385e+02  -4.829069e+02
   3.601857e+02  -3.054236e+02
   5.939278e+02   1.176574e+02
   2.246715e+02   4.439915e+02
  -3.212920e+02   3.895127e+02
  -5.331306e+02   1.399152e+02
  -3.192223e+02  -1.568007e+02
  -5.634387e+01  -3.701340e+02
   1.121104e+02  -2.334281e+02
   3.570658e+01   2.049369e+02
  -2.159178e+02   2.990320e+02
  -3.082804e+02  -1.021538e+02
  -9.008919e+01  -6.237269e+02
   3.236683e+02  -6.073393e+02
   3.992154e+02   2.498673e+01
   1.422365e+02   4.720686e+02
  -1.508932e+02   2.193245e+02
  -2.199758e+02  -3.359584e+02
   8.446511e+01  -4.495780e+02
   5.067796e+02  -6.034421e+01
   5.641617e+02   4.336077e+02
   1.781358e+02   5.567615e+02
  -3.938931e+02   2.978024e+02
  -6.203166e+02  -5.392136e+01
  -4.023828e+02  -2.618356e+02
   7.734803e+01  -1.964019e+02
   3.631898e+02  -5.909357e+01
   1.858375e+02   9.490144e+01
  -1.046603e+02   4.367378e+01
  -8.638763e+01  -7.097039e+01
   1.393418e+02  -9.288753e+01
   2.462607e+02   1.073139e+01
   8.684180e+01   1.983819e+02
  -2.009944e+02   1.940072e+02
  -3.458814e+02   1.516700e+02
  -2.244038e+02  -8.083249e+01
   2.673424e+01  -2.848591e+02
   2.993088e+02  -4.226325e+02
   3.537251e+02  -1.595713e+02
   2.440532e+02   1.997291e+02
   5.796165e+01   3.793198e+02
  -4.893060e+01   3.220994e+02
  -5.905947e+01   1.136027e+02
  -1.873903e+01   8.908881e+01
  -9.986085e+01   8.523407e+01
  -2.340509e+02   9.189170e+01
  -2.270352e+02  -1.500916e+02
  -1.369381e+02  -2.487414e+02
   6.167730e+01  -1.991109e+02
   1.961495e+02   3.721864e+01
   2.208728e+02   2.819332e+02
  -5.602189e+01   3.061556e+02
  -2.479185e+02   1.138829e+02
  -3.414645e+02  -1.908087e+02
  -1.583322e+02  -3.023677e+02
   9.994254e+01  -3.074385e+02
   1.595547e+02  -8.741673e+01
   1.417225e+02  -2.470764e+01
   1.574710e+02  -7.831359e+01
   2.265533e+02  -3.754441e+01
   4.191287e+02   9.093514e+01
   3.752873e+02   2.916932e+02
   2.280751e+00   5.444371e+02
  -4.029937e+02   4.670050e+02
  -5.313044e+02   1.298665e+02
  -3.540563e+02  -1.021341e+02
  -4.000925e+01  -2.738021e+02
   1.109979e+02  -2.079721e+02
   3.315026e+01  -3.979463e+01
  -1.289600e+02   3.144059e+00
  -1.764516e+02  -4.452778e+01
  -1.134379e+01  -1.567659e+02
   1.700726e+02  -1.605609e+02
   1.647733e+02   8.737303e+01
   1.367449e+01   2.158490e+02
  -2.102867e+02   1.522839e+01
  -1.294269e+02  -2.055576e+02
   1.480112e+01  -3.832699e+02
   2.192009e+02  -2.366609e+02
   3.564163e+02   4.878247e+01
   3.070433e+02   2.761551e+02
   5.199971e+01   3.239847e+02
  -1.579679e+02   1.822261e+02
  -1.710529e+02  -6.360037e+00
  -6.424511e+01  -6.593071e+01
   9.036761e+01   1.817902e+01
   2.187898e-01   9.815919e+01
  -1.401294e+02   1.047301e+02
  -1.585482e+02  -4.005844e+01
  -4.285120e+01  -1.967298e+01
   1.105231e+02  -2.009259e+01
   4.608608e+01   9.595612e+01
  -1.579887e+02   9.902420e+01
  -3.142263e+02  -6.233553e+01
  -2.922997e+02  -2.080510e+02
   3.280443e+00  -2.428036e+02
   1.715710e+02  -2.624127e+02
   2.698897e+02  -1.212609e+02
   1.130005e+02   3.247958e+01
  -4.264599e+00   4.203477e+01
  -5.531116e+01  -4.361563e+01
   5.518167e+01  -1.209918e+02
   2.273658e+02  -3.650081e+01
   2.216655e+02   9.648072e+01
   7.323746e+00   1.828589e+02
  -3.753239e+01   8.830980e+01
  -1.032933e+02   2.313967e+00
  -4.628866e+01   8.492612e+00
   8.040369e+00  -3.970603e+01
   2.984507e+01   9.334730e+01
  -1.320936e+02   1.398624e+02
  -2.404441e+02   9.672334e+01
  -2.166733e+02  -1.174152e+02
  -2.903731e+01  -1.821945e+02
   1.886276e+02  -1.908044e+02
   2.097461e+02  -2.066816e+01
   9.060029e+01   9.342315e+01
  -5.628819e+01   1.247768e+02
  -1.365983e+02   3.803647e+01
   2.750575e+00  -9.975069e+01
   6.345512e+01  -4.553057e+01
   1.831667e+01   6.901715e+01
  -7.443916e+01   4.059917e+00
  -1.404314e+02  -5.512741e+01
  -2.215521e+01  -1.476781e+02
   1.143075e+02  -1.604075e+02
   2.781314e+02   7.266486e+00
   2.255785e+02   1.587155e+02
   3.296280e+01   2.692428e+02
  -1.405758e+02   1.821605e+02
  -1.626383e+02   2.899871e+01
  -1.640929e+01  -1.133450e+02
  -2.047293e+01  -8.528212e+01
  -1.182924e+01   1.447624e+01
  -7.008019e+01   3.734539e+01
  -1.008699e+02  -1.200361e+01
   1.009179e+01  -8.416644e+01
   1.247796e+02  -9.271602e+01
   1.051552e+02   6.334158e+01
  -1.750916e+01   1.124716e+02
  -1.163680e+02   5.552327e+01
  -2.016845e+02  -6.767900e+01
  -1.353679e+02  -2.052529e+02
   1.089221e+02  -2.249593e+02
   3.452473e+02  -1.006783e+02
   3.119124e+02   8.835388e+01
   1.449359e+02   1.893299e+02
  -7.214560e+01   1.414175e+02
  -5.583579e+01   1.015027e+02
  -7.524936e+01   6.397274e+01
  -4.225909e+01   7.181288e+01
  -1.068851e+02   8.472542e+01
  -1.181407e+02  -2.483885e+01
  -1.277694e+02  -1.606849e+02
  -3.082605e+01  -2.363914e+02
   1.112001e+02  -2.362645e+02
   1.855348e+02  -3.735414e+01
   1.669201e+02   7.589817e+01
   5.911323e+00   2.097951e+02
  -9.870605e+01   1.293646e+02
  -7.100832e+01  -3.691383e-01
   5.182386e+01  -7.040886e+01
   1.806456e+01  -1.714852e+01
  -4.228403e+01   1.870315e+01
  -1.119577e+02  -1.355064e+01
  -2.314353e+01  -5.376870e+01
   3.635228e+01  -6.385921e+01
   1.749718e+02  -4.300086e+01
   1.659499e+02   3.849541e+01
   3.395868e+01   1.147042e+02
  -1.293475e+02   1.234400e+02
  -1.647936e+02   7.316411e+01
  -3.617855e+01  -4.993119e+01
   6.232445e+01  -5.938322e+01
   4.866939e+01  -3.458459e+01
   3.276879e+01   8.419201e+01
  -6.808406e+00   3.725523e+01
  -7.894262e+01  -3.125205e-01
  -2.231461e+01  -6.097337e+01
  -4.958862e+01  -4.096160e+01
  -4.632171e+01  -3.470339e+00
  -4.169975e+01   7.082386e+00
  -5.203665e+01  -7.777924e+01
   8.831032e+00  -7.150787e+01
   9.335169e+01  -1.304839e+02
   1.824985e+02  -5.409617e+01
   1.151311e+02   5.138147e+01
   4.573285e+00   1.045290e+02
  -9.568569e+01   5.925810e+01
  -1.063078e+02   5.006071e+01
   4.177434e+01  -2.310709e+01
   1.260556e+02   6.569937e+01
   8.860341e+01   1.113299e+02
  -9.994282e+01   1.305033e+02
  -2.279321e+02   1.136117e+02
  -1.853076e+02  -6.275642e+01
  -7.212559e+01  -1.090302e+02
   5.166444e+01  -1.354640e+02
   1.630551e+01  -1.495445e+01
  -4.617926e-01  -4.735752e+00
  -7.846908e+01  -3.624236e+01
  -3.881550e+00  -9.658174e+01
   1.072333e+02  -1.456009e+02
   1.799285e+02  -4.708330e+01
   1.410604e+02   1.257749e+02
   6.496641e+00   1.585252e+02
  -1.040048e+02   1.406771e+02
  -1.356619e+02  -8.074732e+00
  -9.486163e+01  -1.206266e+02
  -8.596488e+00  -7.904462e+01
   3.629771e+01  -1.679065e+01
   2.252184e+00   1.660001e+01
   1.246500e+01  -7.944225e+00
  -3.487695e+01  -5.925439e+01
   3.269735e+01   6.518800e+00
   4.267372e+01   8.263679e+01
   2.875822e+01   7.759350e+01
  -6.742512e+01   2.296793e+01
  -1.740729e+02  -2.995882e+01
  -1.238458e+02  -1.173753e+02
  -7.409302e+00  -9.334353e+01
   1.319776e+02  -2.527819e+01
   7.734011e+01   1.087878e+01
   2.519921e+01   6.909397e+01
  -3.879406e+01   4.439287e+01
  -3.772130e+00   1.973942e+01
   3.938081e+01   8.515222e+00
  -2.668645e+01   2.804425e+01
  -4.660105e+01  -9.196154e-01
  -1.195352e+02   1.178614e+00
  -2.691005e+01  -1.130173e+02
   8.882553e+01  -1.266398e+02
   1.996325e+02  -9.158739e+01
   1.691662e+02   1.838862e+01
   3.805363e+01   1.496926e+02
  -4.021397e+01   1.699274e+02
  -1.204067e+02   8.945461e+01
  -1.108653e+02  -5.151513e+01
  -4.961267e+01  -5.675737e+01
  -5.344535e+01  -9.929880e+00
   8.681676e-01  -4.069322e+00
  -3.135275e+01  -5.717014e+01
  -1.802015e+01  -1.043367e+02
   4.300673e+01  -8.706960e+01
   9.899397e+01  -2.857034e+00
   1.128869e+02   6.193439e+01
   2.327973e+01   6.489542e+01
  -4.158726e+01   4.592950e+01
  -9.153074e+01  -6.009577e+01
  -7.074759e+01  -7.585003e+01
   6.296585e+01  -5.048458e+01
   1.034251e+02   2.103313e+01
   5.070558e+01   3.787384e+01
  -1.702492e+01   6.453101e+01
  -3.804589e+01   6.122027e+01
   6.284271e+01  -5.066600e+00
   6.009120e+01  -5.941157e+01
   4.153878e+01   2.140826e+01
  -1.174128e+02   6.250929e+01
  -1.051625e+02   6.478633e+01
  -1.039726e+02  -2.323603e+01
  -1.676119e+01  -9.438915e+01
   6.659109e+01  -1.049625e+02
   1.440319e+01  -3.539070e+01
   2.346074e+01   2.509485e+01
  -5.189719e+01   2.225675e+01
   4.107134e+01  -3.840429e+01
  -4.070579e+00  -7.104876e+01
   2.262506e+01  -3.277010e+00
   3.118015e+01   5.071115e+01
   3.331701e+01   8.376287e+00
   1.061802e+00  -4.335798e-01
  -2.123560e+01   1.549003e+01
   1.675437e+00  -3.158202e+01
   1.527286e+01   5.572771e+01
   3.971841e+01   8.025945e+01
  -4.188131e+01   4.777094e+01
  -6.674300e+01  -2.780963e+01
  -2.065395e+01  -1.861604e+01
   2.344136e+01  -3.163976e+01
   7.211541e+01   2.580462e+01
   1.402617e+01   9.776116e+00
  -5.258780e+01   5.466331e+01
  -1.118346e+02  -1.643457e+01
  -9.921370e+01  -7.859308e+00
   3.539341e+01  -6.890557e+01
   5.771046e+01  -7.869689e+01
   2.663133e+01   1.051641e+01
  -5.078105e+01   2.120689e+01
  -1.689748e+01   5.918544e+01
  -3.077321e+00  -1.287288e+01
   8.362953e+01  -9.495479e+00
