
 $NMID
 id='ANONYMOUS ', fmtdat='(2E16.6)'
 volume=1.0
 tramp=1.0
 $END
  -3.926990e+03  -2.097322e+02
  -2.729771e+03  -2.042013e+03
   2.807299e+02  -2.375275e+03
   1.618185e+03  -1.329988e+03
   1.049567e+03  -1.107406e+02
   1.050728e+01   2.036770e+02
  -4.626383e+02  -1.750335e+02
  -8.318987e+00  -6.237488e+02
   5.404845e+02  -6.752160e+02
   7.585348e+02  -6.509966e+01
   4.380248e+02   6.188901e+02
  -2.240846e+00   8.327981e+02
  -3.923933e+02   2.435091e+02
  -2.757803e+02  -4.946343e+02
   7.748295e+01  -6.142891e+02
   4.819127e+02  -1.158043e+02
   3.386893e+02   5.352172e+02
  -2.114205e+02   7.108898e+02
  -4.242687e+02   2.792493e+02
  -4.778069e+02  -1.863108e+02
  -1.793321e+02  -3.376241e+02
   1.557283e+02  -1.925572e+02
   1.636851e+02  -1.440075e+02
  -1.129986e+02  -1.683998e+02
  -1.949817e+02  -2.892167e+02
  -4.046652e+00  -2.821300e+02
   4.288062e+02  -1.180019e+02
   6.435073e+02   1.329422e+02
   2.849117e+02   3.649167e+02
  -3.045974e+02   2.306226e+02
  -5.217475e+02  -9.755770e+01
  -2.377423e+02  -3.332853e+02
   2.420242e+02  -3.697570e+02
   4.551810e+02  -1.387078e+02
   3.456300e+02   1.298404e+02
   9.309148e+01   3.234187e+02
  -5.308107e+01   2.654339e+02
  -1.768438e+01  -8.272424e+01
   1.656591e+02  -2.431381e+02
   2.572455e+02   2.973068e+01
   8.507761e+01   4.985346e+02
  -1.750252e+02   5.198482e+02
  -3.277854e+02   1.918032e+01
  -1.632893e+02  -3.431914e+02
   1.400219e+02  -2.031419e+02
   1.842205e+02   2.576476e+02
  -1.420190e+02   4.061449e+02
  -4.576606e+02   4.848455e+01
  -4.776331e+02  -4.408981e+02
  -1.602469e+02  -5.244832e+02
   3.154682e+02  -2.704139e+02
   5.632793e+02   8.848301e+01
   3.534120e+02   2.611391e+02
  -5.716842e+01   1.960957e+02
  -3.363894e+02   4.972553e+01
  -2.275369e+02  -3.392365e+01
   6.147430e+00  -2.256532e+01
   1.160099e+02   4.520175e+01
  -1.150585e+02   7.868232e+01
  -2.986361e+02  -8.653249e+01
  -1.682648e+02  -2.407655e+02
   1.507101e+02  -2.312080e+02
   3.474392e+02  -1.191071e+02
   2.027541e+02   7.986884e+01
  -2.631272e+01   2.924045e+02
  -2.570548e+02   3.602372e+02
  -2.871201e+02   1.484867e+02
  -2.141014e+02  -1.668223e+02
  -8.476857e+01  -3.825837e+02
   2.738349e+01  -3.509629e+02
   1.495187e+01  -2.089918e+02
   4.676612e+01  -1.001683e+02
   7.634057e+01  -8.397822e+01
   2.065734e+02  -6.726395e+01
   2.451857e+02   5.901147e+01
   7.047122e+01   2.404206e+02
  -7.680053e+01   1.809622e+02
  -1.736354e+02  -8.870995e+01
  -1.798458e+02  -2.783065e+02
   5.315295e+01  -2.835255e+02
   2.766115e+02  -6.880374e+01
   3.550682e+02   1.705016e+02
   1.943573e+02   3.551799e+02
  -6.052045e+01   3.043436e+02
  -1.780068e+02   1.820014e+02
  -1.306993e+02   9.411947e+01
  -1.488527e+02   7.432085e+01
  -3.028929e+02   7.541018e+01
  -4.402593e+02  -7.928429e+01
  -3.321633e+02  -2.577194e+02
   3.361672e+01  -4.320269e+02
   4.167210e+02  -3.576340e+02
   5.256721e+02  -1.847643e+02
   3.004364e+02   1.036782e+02
   2.333205e+01   2.474438e+02
  -9.423489e+01   2.268421e+02
  -2.420339e+01   8.424682e+01
   9.709310e+01  -6.712242e+01
   1.573646e+02   4.997552e+01
  -4.761475e+00   1.909738e+02
  -1.457016e+02   1.477775e+02
  -1.375876e+02  -3.898884e+01
   5.819297e+01  -1.297800e+02
   2.025378e+02  -4.043779e+00
   1.570643e+02   2.793272e+02
  -4.495473e+01   3.062453e+02
  -2.400889e+02   1.348553e+02
  -3.219724e+02  -7.096076e+01
  -2.975634e+02  -2.854292e+02
  -1.120473e+02  -2.443780e+02
   1.375549e+02  -1.512239e+02
   1.227959e+02  -7.741233e+00
   6.057187e+01  -3.559766e+01
  -3.427210e+01  -7.421049e+01
  -1.310367e+01  -1.230089e+02
   1.508736e+02  -6.398524e+01
   1.669616e+02  -7.208539e+00
   1.846501e+01   5.569670e+01
  -9.953942e+01  -1.139414e+01
  -3.436171e+01  -1.143747e+02
   1.727421e+02  -6.694623e+01
   3.254223e+02  -5.516836e+00
   2.937468e+02   1.462154e+02
   5.110494e+01   2.587669e+02
  -1.852298e+02   3.102204e+02
  -2.701752e+02   1.279017e+02
  -1.282817e+02  -6.859207e+01
   3.380416e+01  -7.742718e+01
   1.216846e+01   1.046548e+01
  -6.638926e+01   7.461407e+01
  -2.169661e+02   2.609252e+01
  -1.703511e+02  -1.084474e+02
  -5.698097e+01  -1.807907e+02
   8.462574e+01  -1.284226e+02
   1.091712e+02  -1.521250e+01
   6.689433e+01   2.016485e+01
  -5.192464e+01  -4.994362e+01
  -4.655077e+01  -6.963640e+01
   1.236075e+02  -8.288374e+01
   1.861036e+02  -1.132472e+01
   1.731431e+02   1.771869e+02
  -5.845732e+01   2.400326e+02
  -2.055373e+02   1.245732e+02
  -1.890548e+02  -1.523215e+01
  -3.167873e+01  -7.088433e+01
   1.104126e+02  -1.016099e+02
   7.644068e+01  -6.325781e+01
   1.472919e-01   6.415146e+00
   3.882564e+00  -1.800444e+01
  -8.301198e+00  -2.650061e+01
   1.065252e+02   7.840980e+01
   1.066071e+02   9.449184e+01
   2.909398e+01   1.978369e+02
  -1.996978e+02   1.543217e+02
  -2.814276e+02   2.083900e+01
  -2.015602e+02  -1.458268e+02
  -4.537654e+01  -2.408949e+02
   9.263472e+01  -1.951372e+02
   1.007183e+02  -1.523391e+01
   4.221456e+01   4.186084e+01
   5.542298e+01   5.528384e+00
   6.671113e+01  -2.046542e+01
   4.118378e+01   3.457234e+00
   3.831405e+01   5.478767e+01
  -5.024509e+01   1.241296e+02
  -8.815805e+01   1.391345e+01
  -8.993960e+01  -6.766050e+01
   1.764043e+01  -1.498552e+02
   1.941001e+02  -7.268270e+01
   2.696922e+02   1.446355e+02
   6.305109e+01   2.199201e+02
  -1.586429e+02   1.876576e+02
  -3.096792e+02   3.083757e+01
  -2.709841e+02  -1.041536e+02
  -9.338307e+01  -1.717083e+02
   4.619764e+01  -1.490414e+02
   6.704225e+01  -9.723043e+01
   6.770297e+01  -9.399136e+01
   2.099999e+01  -7.697399e+01
   1.079369e+02  -1.046959e+02
   1.427460e+02  -9.816905e+00
   1.017318e+02   1.641091e+02
   3.816548e+01   1.996067e+02
  -1.102250e+02   1.760798e+02
  -1.524487e+02   2.843055e+00
  -1.143228e+02  -1.235045e+02
  -2.753544e+01  -1.329958e+02
   7.783180e+01  -1.081238e+02
   5.349430e+01  -1.305300e+01
   1.226456e+01   8.124136e+01
  -5.672236e+01   1.633847e+01
   3.262052e+01   1.372645e+01
   4.326698e+01   1.395751e-01
   2.680041e+01   6.038564e+01
  -9.448749e+01  -4.888292e+00
  -1.549705e+02   5.499645e+00
  -1.420505e+02  -8.109663e+01
   1.574418e+01  -1.376984e+02
   1.095426e+02  -8.851498e+01
   1.592438e+02  -8.897230e+00
   4.891985e+01   8.475976e+01
  -1.039252e+02   3.745444e+01
  -1.096252e+02  -2.886631e+01
  -3.193072e+01  -9.143747e+01
   9.506563e+01  -1.133842e+02
   9.528185e+01  -3.138376e+01
   6.393542e+01   2.819720e+01
   5.125517e+01   3.821029e+01
   5.515616e+01  -8.431537e+00
   9.615579e+01   4.266274e+01
   2.927328e+01   1.198499e+02
  -1.197089e+00   1.691244e+02
  -1.518256e+02   1.412483e+02
  -1.751579e+02   1.761459e+01
  -1.452826e+02  -6.675961e+01
   1.598347e+01  -7.693120e+01
   5.375725e+01  -1.101801e+02
   9.723788e+01   3.595514e+01
  -2.461149e+01  -3.159585e+01
  -1.720406e+02  -3.927466e+01
  -7.471118e+01  -1.116928e+02
   8.628436e+01  -9.254741e+01
   1.587346e+02  -4.912318e+01
   1.364354e+02   7.071292e+01
  -1.375952e+01   3.501825e+01
  -6.188279e+01   3.597996e+01
  -4.998948e+01   7.846407e+00
   4.169811e+01   1.119622e+01
   1.336707e+02  -4.950533e+01
   3.227220e+01   9.600414e+01
  -6.338006e+01   1.719112e+02
  -1.921854e+02   9.074742e+01
  -1.489048e+02  -7.335337e+01
  -3.093269e+01  -1.985754e+02
   1.155573e+02  -1.234700e+02
   5.849766e+01   2.685105e+01
   3.195406e+01   7.465991e+01
   1.167413e+01   8.886302e+01
  -3.797040e+01   1.357241e+01
  -4.085687e+01  -2.591462e+01
  -9.682969e+00   1.751982e+01
   1.840681e+01   2.630412e+01
  -6.120857e+00  -4.690563e+01
  -3.990693e+01  -1.036503e+02
  -4.925527e+01  -1.109729e+02
   1.151985e+02  -6.014051e+01
   1.298200e+02   7.008813e+01
   4.941569e+01   8.377192e+01
  -1.063554e+01   2.175751e+01
  -6.246593e+01  -2.336245e+01
  -3.957343e+01  -7.451556e-01
   7.595877e+01   2.270692e+01
   6.384771e+01  -4.205081e+01
   4.620549e+00  -1.167167e+01
  -5.418139e+01  -1.476266e+01
  -2.657874e+01   4.077467e+01
   3.806370e+00  -1.629317e+01
   8.468280e+01   2.309051e+01
   2.320732e+01   7.820005e+01
  -9.985729e+01   8.105486e+01
  -1.999689e+02   8.411924e+01
  -1.476426e+02  -3.649924e+01
  -4.347026e+01  -1.558931e+02
   8.579023e+01  -1.296407e+02
   1.399319e+02  -7.273328e+01
   1.048138e+02  -5.863748e+00
   7.927978e+01   3.407147e+01
  -6.348574e-01   2.151483e+01
   4.569794e+01   3.580374e+01
   1.613541e+01   5.033111e+01
  -5.891461e+00   8.536012e+01
  -5.237851e+01   5.163530e+01
  -9.545322e+01  -3.206378e+01
  -7.690301e+01  -1.324262e+02
  -1.930312e+01  -8.926662e+01
   8.405447e+01   5.519213e+00
   1.210058e+02   6.360067e+01
   3.680165e+01   5.924223e+01
  -7.389713e+01   5.280820e+01
  -9.711114e+01  -4.589379e+01
  -2.187519e+01  -6.157202e+01
   5.053975e+01  -5.425068e+01
   7.162524e+01  -2.522020e+01
  -1.911232e+01  -3.009900e+01
  -9.925606e+01   1.330161e+01
  -3.568841e+01  -2.692180e+01
   7.496478e+01  -9.755902e+01
   1.439838e+02  -5.939770e+01
   1.067440e+02   2.918898e+01
   3.708808e+01   6.183393e+01
  -3.960766e+01   8.632807e+01
  -3.587683e+01   8.835230e+00
  -6.749667e+00  -3.430273e+01
  -8.794296e+00  -3.693802e+01
   7.245856e+01   6.670241e+01
   4.071124e+01   1.942679e+01
  -3.439824e+01   3.834055e+01
  -4.645278e+01  -1.043959e+01
  -6.757975e+01  -3.830034e+01
  -3.766080e+01   3.022379e+01
   2.115002e+01  -2.652892e+01
   6.306282e+01  -2.838374e+01
   3.743645e+01  -4.575554e+01
   1.528830e+01  -6.175262e+01
  -8.124255e+00  -4.761348e+01
   1.888981e+01   1.505955e+01
   4.164552e+01   7.184471e+01
  -9.061607e+00   4.470149e+01
  -5.949462e+01  -1.608576e+01
  -4.671268e+01  -3.065088e+01
   1.577106e+00  -7.990510e+01
   9.092554e+01   7.391468e+01
   6.033267e+01   7.538256e+01
  -1.832743e+01   5.165053e+01
  -9.816526e+01   9.884741e+00
  -7.723552e+01   5.365064e+01
  -1.361171e+00   2.983720e-01
   2.929463e+01  -2.175761e+01
  -2.975720e+01   3.146267e+01
  -1.096025e+02   8.124943e+01
