
 $NMID
 id='ANONYMOUS ', fmtdat='(2E16.6)'
 volume=1.0
 tramp=1.0
 $END
  -3.268727e+03   1.857589e+02
  -1.885103e+03  -1.596557e+03
   2.198693e+02  -1.884588e+03
   1.197421e+03  -9.954824e+02
   8.539085e+02   3.557431e+01
  -9.295181e+01   2.212406e+02
  -3.160867e+02  -1.587168e+02
   8.322402e+01  -5.158471e+02
   4.034095e+02  -5.063975e+02
   5.838887e+02   1.504424e+01
   3.681021e+02   5.186410e+02
  -5.192981e+01   6.741595e+02
  -3.164172e+02   1.108187e+02
  -2.789347e+02  -5.581974e+02
   1.455357e+02  -6.051015e+02
   4.600079e+02  -8.436901e+01
   2.639158e+02   4.865159e+02
  -1.339827e+02   5.985904e+02
  -4.206567e+02   3.173022e+02
  -4.636928e+02  -1.440276e+02
  -9.075224e+01  -3.307759e+02
   1.134385e+02  -2.769254e+02
   1.030337e+02  -1.640331e+01
  -2.139366e+02  -1.268625e+02
  -2.652558e+02  -2.497767e+02
  -1.642710e+01  -3.909489e+02
   4.616928e+02  -2.051089e+02
   5.858810e+02   1.687334e+02
   2.201495e+02   4.024222e+02
  -2.961005e+02   2.256399e+02
  -5.406057e+02  -1.171994e+02
  -2.427125e+02  -3.949879e+02
   2.679489e+02  -4.440247e+02
   5.099298e+02  -1.161863e+02
   3.414731e+02   2.543476e+02
  -3.548165e+00   3.128414e+02
  -1.230385e+02   1.252525e+02
   2.885242e+01  -1.257269e+02
   2.099379e+02  -1.929410e+02
   2.560585e+02   1.314775e+02
   5.975681e+01   5.696782e+02
  -2.170681e+02   4.436233e+02
  -3.175731e+02  -3.079943e+01
  -1.339874e+02  -3.408492e+02
   1.338281e+02  -1.449687e+02
   1.954999e+02   2.529871e+02
  -7.516408e+01   4.020495e+02
  -3.967588e+02   1.034603e+02
  -4.905180e+02  -3.447970e+02
  -1.856751e+02  -5.015836e+02
   2.874468e+02  -2.893155e+02
   5.370560e+02   4.503514e+01
   3.582999e+02   2.741877e+02
  -8.336868e+01   2.489415e+02
  -3.222923e+02   6.848972e+01
  -1.859980e+02  -3.871586e+01
   1.132711e+01  -2.807274e+01
   9.610862e+00   5.402138e+01
  -1.592358e+02   5.865888e+01
  -2.290058e+02  -6.505103e+01
  -9.428291e+01  -2.321664e+02
   1.725646e+02  -2.384128e+02
   3.414866e+02  -1.223567e+02
   2.407499e+02   9.686001e+01
   1.334622e+00   3.118106e+02
  -2.984472e+02   4.015154e+02
  -3.568307e+02   2.001054e+02
  -2.865111e+02  -1.621464e+02
  -6.405287e+01  -3.634872e+02
   2.313838e+01  -3.614136e+02
   5.715137e+01  -2.057122e+02
   1.246007e+01  -6.041755e+01
   1.456847e+02  -9.116503e+01
   2.656958e+02  -5.767496e+01
   2.764892e+02   1.070899e+02
   1.090309e+02   3.299884e+02
  -8.623286e+01   2.294461e+02
  -2.303635e+02  -2.790825e+01
  -2.085283e+02  -2.392941e+02
   2.266538e+01  -3.058826e+02
   2.194163e+02  -6.557294e+01
   3.372676e+02   1.467812e+02
   1.624418e+02   3.026384e+02
  -6.401662e+01   2.927653e+02
  -1.481443e+02   1.549298e+02
  -1.582180e+02   4.470649e+01
  -1.671199e+02   2.446407e+01
  -2.419868e+02   8.622534e+01
  -3.932922e+02  -8.517781e+01
  -3.259071e+02  -2.946244e+02
  -4.026279e+00  -4.299805e+02
   3.502348e+02  -3.868404e+02
   4.578407e+02  -1.953586e+02
   3.245428e+02   8.389574e+01
   1.969460e+01   2.488870e+02
  -9.799003e+01   2.323821e+02
  -1.689905e+01  -1.445679e+01
   1.307812e+02  -3.287923e+01
   1.126217e+02   1.249247e+01
  -1.127246e+01   1.196969e+02
  -9.896407e+01   1.066867e+02
  -1.062048e+02  -7.745356e+01
   1.983279e+01  -1.736195e+02
   1.500378e+02   1.855906e+01
   1.595820e+02   2.182350e+02
   7.981415e+00   3.463837e+02
  -1.999938e+02   2.296024e+02
  -3.133559e+02  -5.893793e+01
  -2.416806e+02  -2.673887e+02
  -4.883838e+01  -2.718101e+02
   1.140339e+02  -1.158054e+02
   1.364387e+02   3.800391e+01
   2.579321e+01   2.552644e+01
  -6.262217e+01  -7.553456e+01
  -6.410209e+01  -1.341170e+02
   1.328108e+02  -1.082300e+02
   1.530509e+02   4.147498e+01
   2.767263e+01   7.025212e+01
  -5.896197e+01   8.645331e-01
  -2.334044e+01  -1.114621e+02
   1.277618e+02  -7.465763e+01
   2.770904e+02  -1.986277e+00
   2.536090e+02   1.911686e+02
   2.098102e+01   3.113215e+02
  -2.184401e+02   2.784538e+02
  -2.742064e+02   4.322461e+01
  -1.069150e+02  -7.236600e+01
   8.475356e+01  -8.643657e+01
   1.107930e+02   9.814878e+00
  -6.264704e+01   1.090363e+02
  -1.572714e+02   3.390035e+01
  -2.075887e+02  -8.682436e+01
  -5.110648e+01  -2.178488e+02
   8.848885e+01  -1.577323e+02
   1.475927e+02  -2.558923e+01
   3.601220e+01   7.667598e+01
   3.669420e+00  -2.674102e+00
  -1.176917e+01  -1.077407e+02
   1.054211e+02  -1.197080e+02
   2.265201e+02  -1.932666e+01
   1.492964e+02   1.289058e+02
  -9.367994e+00   2.467139e+02
  -1.618027e+02   1.744795e+02
  -1.915344e+02  -5.264777e+00
  -5.461684e+01  -1.194023e+02
   9.699664e+01  -7.637883e+01
   9.083745e+01  -1.022608e+01
  -1.003671e+01  -4.243179e+00
  -5.255463e+01  -1.559509e+01
   3.940874e+01  -1.397981e+01
   7.775209e+01  -1.333597e+01
   8.340408e+01   1.177705e+02
   2.687585e+01   1.837684e+02
  -1.450583e+02   2.061111e+02
  -2.635570e+02   2.198304e+01
  -1.851245e+02  -1.648258e+02
  -5.822670e+01  -2.251204e+02
   1.094147e+02  -1.445715e+02
   1.406503e+02  -8.150709e+00
   3.745862e+01   6.400495e+01
   4.202337e+01   3.394842e+01
   6.005052e+01   4.600716e+01
   7.261074e+01   5.357878e+00
   7.125798e+01   5.586575e+01
   7.600309e+00   1.417124e+02
  -1.394057e+02   6.175496e+01
  -7.066532e+01  -1.187273e+01
   4.582986e+01  -1.487962e+02
   1.392925e+02  -7.729593e+01
   2.367824e+02   1.228558e+02
   6.247012e+01   2.050504e+02
  -1.383459e+02   2.183960e+02
  -3.394911e+02   7.745531e+01
  -2.570126e+02  -9.703573e+01
  -1.033670e+02  -1.860755e+02
   4.315261e+01  -1.119080e+02
   8.384663e+01  -7.090783e+01
   7.454812e+01  -8.060453e+01
   6.886026e+01  -1.056281e+02
   8.585853e+01  -8.421256e+01
   1.300576e+02   2.712351e+01
   1.047818e+02   1.312616e+02
   1.337148e+01   2.434292e+02
  -1.136022e+02   1.926281e+02
  -1.670929e+02   6.914640e+00
  -1.218151e+02  -1.214540e+02
  -7.760349e+00  -2.044358e+02
   7.881713e+01  -1.018405e+02
   6.378839e+01   1.140981e+01
  -8.640576e+00   3.571138e+01
   5.539712e+00   6.425183e+01
   9.581191e+00   2.799775e+00
   7.112856e+01   3.145235e+01
   3.713020e+01   6.903806e+01
  -5.324282e+01   4.251748e+01
  -1.517297e+02   7.076821e+01
  -1.838247e+02  -5.098566e+01
  -5.010153e+01  -7.552622e+01
   1.137577e+02  -3.888170e+01
   1.456464e+02  -1.348531e+01
   4.939838e+01   7.929816e+01
  -4.833936e+01   4.215409e+01
  -1.027266e+02  -3.495814e+01
  -5.104564e+01  -8.810583e+01
   9.527351e+00  -6.650143e+01
   4.661937e+01  -3.397904e+01
   8.016813e+01   3.683622e+01
   5.583204e+01  -4.476693e+00
   7.918725e+01   6.605980e+00
   8.532009e+01  -6.374740e+00
   6.248772e+01   6.380209e+01
  -6.455636e+00   1.664530e+02
  -1.532320e+02   1.901018e+02
  -2.046032e+02   4.022130e+01
  -1.519821e+02  -8.639634e+01
  -9.884018e+00  -1.550001e+02
   1.005490e+02  -7.620251e+01
   7.240363e+01   2.744547e+01
  -8.863893e+01   2.850540e+01
  -1.378925e+02  -5.567272e+01
  -1.126452e+02  -1.320121e+02
   5.692749e+01  -1.150729e+02
   1.962517e+02  -1.355864e+01
   1.050633e+02  -1.132097e+01
   2.686608e+01   1.108050e+02
  -4.877149e+01   2.353473e+01
  -5.313778e+01  -3.356531e+00
   6.553177e+01  -1.068060e+01
   5.375074e+01  -3.238878e+01
   4.409737e+01   1.110062e+02
  -7.254208e+01   1.154684e+02
  -1.954172e+02   6.915627e+01
  -1.320473e+02  -8.135582e+01
  -4.388210e+01  -1.852607e+02
   1.185165e+02  -1.544211e+02
   7.915744e+01   1.251553e+01
   4.735985e+01   1.155346e+02
   1.526809e+01   1.436162e+02
  -1.680218e+01   1.695898e+01
  -8.856211e+01  -3.483673e+00
   1.722869e+01  -4.682582e+01
   1.416501e+01   2.935954e+01
  -1.796848e+01  -3.566260e+01
  -7.057254e+01  -6.845369e+01
  -6.704428e+01  -1.236937e+02
   3.844624e+01  -2.280727e+01
   1.316997e+02   1.576393e+01
   1.262183e+02   7.419450e+01
   2.036335e+01   4.647599e+01
  -8.819164e+01   2.309463e+01
  -8.658998e+01   2.124146e+01
  -3.303573e+01  -1.654483e+01
   2.440128e+00  -2.934358e+01
   3.249208e+00   3.070015e+01
  -6.136314e+01   2.310185e+01
  -6.662172e-01   1.170197e+01
   1.060123e+02  -1.308579e+01
   1.055340e+02  -2.660673e+01
   5.692205e+00   6.822621e+01
  -1.385682e+02   1.473773e+02
  -2.190584e+02   2.477703e+01
  -1.210653e+02  -3.174346e+01
  -1.211292e+01  -1.631913e+02
   1.266098e+02  -1.272198e+02
   1.290324e+02  -1.906413e+01
   7.441323e+01   1.081945e+01
  -1.297537e+01   3.432101e+01
  -9.044623e+00  -1.341731e+01
  -6.096101e+00   4.971098e+01
   1.657061e+01   7.070003e+01
  -2.201752e+01   9.396364e+01
   7.641886e+00   4.655881e+01
  -7.045915e+01   1.020593e+01
  -9.417318e+01  -1.147283e+02
  -4.549606e+01  -1.482105e+02
   8.887798e+01  -2.295616e+01
   1.157624e+02   6.718512e+01
   4.252789e+01   9.773354e+01
  -5.633051e+01   5.109076e+01
  -1.053727e+02   1.013141e+01
  -8.537589e+01  -2.640064e+01
   3.951379e+01  -7.362263e+01
   4.671890e-02  -8.918583e+01
  -4.491587e+01  -2.539673e+01
  -2.569479e+01   2.692873e+01
   3.102739e+00   9.420470e-01
   9.364392e+01  -9.829221e+01
   9.460700e+01  -3.025069e+01
   3.015434e+01  -3.044117e+00
  -2.115285e+01   8.617875e+01
  -7.950391e+01   4.887513e+01
  -4.939283e+01   8.349538e+00
   2.422131e+01  -2.398234e+01
   3.896190e+01  -9.929557e+01
   1.059035e+01  -3.820479e+00
   4.925040e+01   6.535355e+01
   3.352885e+01   5.403114e+01
  -2.760079e+01  -4.218057e+01
  -9.982672e+00  -4.551132e+01
  -3.647523e+01   3.433276e+01
  -8.216067e+00  -5.979240e+00
  -5.791131e+00   1.891494e+01
  -4.293466e+01  -6.196294e+01
  -1.734989e+01  -6.954541e+01
   4.493990e+00  -1.310127e+01
   3.514720e+01  -5.266846e+00
   9.479172e-01   1.021438e+02
  -3.299206e+01   6.376107e+00
  -8.179933e+01  -2.155545e+01
  -2.005912e+01  -9.314508e+01
   7.758689e+01  -2.171365e+01
   7.984111e+01   4.682049e+01
   9.025214e+01   7.820100e+01
  -2.896808e+01   3.227530e+01
  -9.910157e+01   2.781206e+01
   3.444096e+00   3.972368e+00
   2.137522e+01  -3.135553e+01
   2.475105e+01  -2.079685e+01
  -9.359487e+00   9.706632e+00
  -6.485640e+01   2.548840e+01
