
 $NMID
 id='ANONYMOUS ', fmtdat='(2E16.6)'
 volume=1.0
 tramp=1.0
 $END
   3.641011e+03   7.091760e+01
   2.077445e+03   1.578684e+03
  -2.369211e+02   2.209228e+03
  -1.407876e+03   1.068463e+03
  -7.839232e+02  -1.043444e+02
   2.602916e+02  -3.836662e+02
   5.571452e+02   2.199430e+02
   9.852976e+00   7.135806e+02
  -6.054744e+02   6.784351e+02
  -6.888537e+02   6.879763e+01
  -4.044781e+02  -5.376140e+02
   1.037068e+02  -7.114191e+02
   4.037583e+02  -1.376979e+02
   2.802503e+02   5.800533e+02
  -1.406912e+02   5.454635e+02
  -4.766203e+02   1.048719e+02
  -2.444629e+02  -5.272778e+02
   1.708935e+02  -5.955530e+02
   5.243529e+02  -1.109795e+02
   4.018966e+02   2.706465e+02
   5.663997e+01   3.973951e+02
  -1.980452e+02   3.049791e+02
  -1.248999e+02   1.116668e+02
   1.281260e+02  -6.131762e+01
   3.068318e+02   2.050073e+02
   3.311551e+01   4.349542e+02
  -4.327038e+02   1.562712e+02
  -5.680619e+02  -7.026645e+01
  -2.891260e+02  -4.348416e+02
   3.108142e+02  -2.437755e+02
   5.159563e+02   8.390824e+01
   1.939543e+02   3.200794e+02
  -3.024579e+02   4.236632e+02
  -4.833500e+02   1.611003e+02
  -3.418228e+02  -1.733563e+02
  -1.429684e+02  -3.482778e+02
   1.292379e+02  -2.925330e+02
   5.766570e+01   1.187720e+02
  -1.738624e+02   2.522289e+02
  -2.683985e+02  -5.434269e+01
  -1.423112e+02  -5.125902e+02
   1.969354e+02  -5.676445e+02
   4.144201e+02  -1.782788e+01
   1.988609e+02   4.031626e+02
  -2.072306e+02   2.022557e+02
  -2.731098e+02  -3.239752e+02
   3.851701e+01  -4.925703e+02
   4.281171e+02  -1.010853e+02
   5.073983e+02   3.707609e+02
   1.889045e+02   4.905993e+02
  -3.029165e+02   2.794447e+02
  -5.132576e+02  -7.601510e+01
  -2.947861e+02  -2.756395e+02
   9.753281e+01  -2.381212e+02
   3.401840e+02  -4.516622e+01
   1.841947e+02   7.568457e+01
  -8.516401e+01   4.711549e+01
  -1.091269e+02  -4.027171e+01
   1.280081e+02  -8.063933e+01
   2.440403e+02   1.015187e+02
   9.926381e+01   2.250081e+02
  -1.380507e+02   1.895145e+02
  -3.113878e+02   8.366736e+01
  -2.248396e+02  -9.644187e+01
  -3.641684e+01  -2.303740e+02
   3.021698e+02  -3.047900e+02
   3.460170e+02  -1.410499e+02
   2.605148e+02   1.354230e+02
   3.982127e+01   3.791225e+02
  -1.356068e+01   3.177835e+02
  -4.537937e+01   9.993652e+01
  -1.334238e+01   4.515126e+01
  -1.149760e+02   7.622682e+01
  -2.020015e+02   1.268754e+02
  -2.259673e+02  -7.588036e+01
  -7.170030e+01  -2.083604e+02
   3.814162e+01  -2.086513e+02
   1.503014e+02  -1.820108e+01
   1.206801e+02   1.769256e+02
  -7.019094e+01   2.170385e+02
  -2.685851e+02   3.403226e+01
  -3.168171e+02  -1.525383e+02
  -1.659203e+02  -2.978242e+02
   7.525838e+01  -2.796966e+02
   1.928805e+02  -1.844833e+02
   1.674425e+02  -8.652805e+01
   1.375744e+02  -8.217577e+01
   2.654967e+02  -7.338625e+01
   3.860828e+02   1.231507e+02
   3.291921e+02   3.324101e+02
  -2.165962e+01   4.723050e+02
  -3.577610e+02   3.699191e+02
  -4.708024e+02   1.964380e+02
  -2.900097e+02  -1.121192e+02
  -4.701747e+01  -2.227083e+02
   9.936469e+01  -2.012709e+02
  -6.273194e+00   6.043316e+00
  -8.500082e+01   8.492825e+01
  -1.261321e+02  -2.269137e+01
  -6.916952e+00  -1.599522e+02
   6.595400e+01  -1.281734e+02
   1.296148e+02   3.584830e+01
  -6.656685e+01   1.251509e+02
  -1.269816e+02   1.048892e+01
  -1.013568e+02  -2.161443e+02
   3.336294e+01  -3.286832e+02
   2.001477e+02  -2.193683e+02
   3.266399e+02   1.171978e+02
   2.239025e+02   2.541426e+02
   9.006468e+01   2.541557e+02
  -1.289592e+02   1.098378e+02
  -1.160864e+02  -9.391504e+00
  -6.607651e+00  -3.024174e+01
   3.595196e+01   5.527044e+01
   4.501269e+00   7.053126e+01
  -1.470736e+02   6.385642e+01
  -1.425986e+02  -2.836030e+01
  -2.346581e+01  -6.406661e+01
   1.071867e+02  -1.774049e+01
   8.920638e+01   7.486710e+01
  -9.472725e+01   2.754949e+01
  -3.120649e+02   3.166430e+01
  -2.704659e+02  -1.402145e+02
  -2.724431e+01  -2.700558e+02
   1.644026e+02  -2.233590e+02
   2.448999e+02  -1.096973e+02
   1.526493e+02   4.867442e+01
  -3.308011e+01   7.599868e+01
  -6.533817e+01  -4.294063e+00
   4.946601e+01  -1.051577e+02
   1.654249e+02  -4.220129e+01
   1.721051e+02   9.629896e+01
   6.546770e+01   2.202524e+02
  -8.007116e+01   1.458764e+02
  -1.159102e+02   5.050973e+01
  -3.511864e+01  -1.299243e+01
   1.242963e+01   3.217444e+00
   1.971393e+01   8.873279e+01
  -1.292984e+02   9.881107e+01
  -2.237539e+02   9.160201e+00
  -1.523877e+02  -1.201112e+02
  -7.324053e+00  -1.494273e+02
   1.974952e+02  -1.309678e+02
   1.756738e+02   1.883021e+01
   4.573006e+01   5.795457e+01
  -4.844911e+01   1.272783e+02
  -4.957780e+01   2.753132e+01
   4.524915e+01  -3.805221e+01
   5.601907e+00  -1.499280e+01
  -5.130925e+01   1.343050e+01
  -7.295053e+01  -2.050281e+01
  -7.909885e+01  -8.397561e+01
  -1.595753e+01  -1.846810e+02
   1.657624e+02  -1.012249e+02
   1.877384e+02   1.573623e+01
   1.509724e+02   1.558970e+02
  -5.452590e-01   2.313780e+02
  -1.053211e+02   1.566668e+02
  -1.271042e+02   8.702795e+00
  -7.562842e+01  -3.606230e+01
  -3.506682e+01  -5.217824e+01
  -9.181973e+01   9.688506e+00
  -8.811044e+01   9.397863e-01
  -6.328744e+01  -8.743806e+01
   3.459459e+01  -1.357618e+02
   7.573509e+01  -3.854683e+01
   9.579260e+01   1.595126e+01
   3.393763e+01   1.493609e+02
  -1.704111e+02   6.833512e+01
  -1.806598e+02  -8.484298e+01
  -6.499105e+01  -1.933230e+02
   1.462273e+02  -1.954850e+02
   2.825096e+02  -5.430776e+01
   2.081707e+02   9.586978e+01
   1.129959e+02   2.031682e+02
  -3.837020e+01   1.487268e+02
  -6.285331e+01   6.852016e+01
  -7.159285e+01   6.151396e+01
  -4.200150e+01   9.902542e+01
  -6.239020e+01   5.864968e+01
  -1.123030e+02  -1.811137e+01
  -8.471035e+01  -1.502559e+02
  -2.334700e+01  -1.873960e+02
   8.805114e+01  -1.297097e+02
   1.406469e+02   1.184848e+01
   1.312878e+02   1.218653e+02
   4.312614e+01   1.212306e+02
  -8.694230e+01   8.013720e+01
  -7.351356e+01  -4.556742e+00
   3.098186e+01  -2.338404e+01
   3.611463e+01  -2.416173e+01
  -2.676984e+01   1.032726e+01
  -6.461188e+01  -1.165912e+01
  -6.663256e+01  -5.089926e+01
   4.856419e+01  -4.549008e+01
   1.271440e+02   1.943965e+01
   1.307678e+02   6.385512e+01
   1.142492e+01   1.070385e+02
  -8.366976e+01   7.307162e+01
  -1.313844e+02   4.531717e+01
  -4.894335e+01  -3.688742e+01
   3.469972e+01  -5.134112e+01
   5.665396e+01  -1.492022e+01
   9.718631e+00   4.328016e+01
  -3.339081e+01   5.556150e+01
  -7.114261e+01   5.479588e+00
  -5.833381e+01  -2.575360e+01
  -1.280538e+01  -8.120311e+01
  -4.198322e+01   1.166159e+01
  -7.731672e+01  -1.816261e+01
  -2.120459e+01  -7.443076e+01
   2.169887e+01  -1.924185e+02
   1.059908e+02  -1.492382e+02
   2.024791e+02   3.956913e+01
   1.469204e+02   9.421862e+01
   2.603265e+01   1.183680e+02
  -1.000076e+02   4.208423e+01
  -6.341455e+01  -3.601611e+01
   8.023004e+01   1.602933e+00
   1.553898e+02   6.567751e+01
   1.123356e+02   1.210590e+02
  -1.016143e+02   1.326449e+02
  -2.172397e+02   4.042369e+01
  -1.244539e+02  -6.226856e+01
  -4.026001e+01  -9.728542e+01
   4.787190e+01  -4.130546e+01
   3.681544e+01   2.133109e+00
  -5.033087e+01   5.431891e+01
  -1.270013e+02   2.302293e+01
  -3.017958e+01  -6.779571e+01
   7.178294e+01  -1.120207e+02
   1.312546e+02  -2.544546e+01
   1.135556e+02   8.119805e+01
  -2.868650e+01   1.481337e+02
  -7.695054e+01   1.732740e+02
  -9.844694e+01  -1.185856e+01
  -8.511222e+01  -1.076655e+02
   9.472588e+00  -8.756076e+01
   2.172911e+01  -1.218468e+01
   8.263082e+01   5.090605e+01
   4.425203e+01   1.352293e+01
   3.040247e+01  -3.100578e+01
   4.568071e-01   2.792319e+01
   3.771359e+01   6.159190e+01
   2.723232e+01   9.410317e+01
  -4.214846e+01   6.448843e+01
  -8.818087e+01  -9.439007e-01
  -1.010008e+02  -2.439010e+01
  -7.757596e+00  -3.877331e+01
   8.592845e+01  -4.100886e+00
   8.376976e+01   5.460517e+00
   2.950929e+01  -4.990500e+00
  -3.933945e+01   2.309709e+00
  -3.603937e+01  -2.166500e+01
   7.037809e+01   5.103062e+01
  -2.694951e+01  -1.655535e+01
  -4.186091e+01   1.436670e+01
  -1.231003e+02  -3.666720e+01
  -2.569218e+00  -9.377414e+01
   6.867138e+01  -1.233450e+02
   1.901614e+02  -7.999117e+01
   1.150921e+02   6.802337e+01
  -2.997575e+00   1.786307e+02
  -7.070861e+01   1.396556e+02
  -9.465179e+01   1.951063e+01
  -2.164634e+01  -1.368042e+01
  -2.870944e+01  -2.720018e+01
  -1.989530e+01   2.254629e+01
  -3.051104e+00   4.300744e+01
  -1.937192e+01  -3.967091e+00
  -7.060031e+01  -8.678367e+01
   3.576214e+00  -5.291428e+01
   5.746185e+01   2.067531e+01
   9.583230e+01   7.901277e+01
   2.060413e+01   9.715988e+01
  -5.716670e+01   4.718587e+01
  -9.727648e+01  -5.922795e+01
  -4.095297e+01  -1.038586e+02
   2.941063e+01  -5.468735e+01
   1.350911e+02  -1.670363e+01
   6.694822e+01   9.578026e+00
  -4.274589e+01   2.532670e+01
  -4.582622e+01   5.025413e+01
   2.995496e+01   1.556048e+01
   9.269057e+01  -2.025625e+00
   7.089280e+01   1.036490e+01
  -8.459041e+01   6.021570e+01
  -9.657162e+01   1.029286e+02
  -8.745263e+01   3.625650e+01
   2.057603e+01  -9.866650e+01
   3.652087e+01  -9.280291e+01
   2.532859e+01  -2.043188e+01
   2.909718e+00   5.246105e+01
  -2.817879e+01   5.859244e+01
  -3.212186e+01  -6.150817e+01
   3.237293e+00  -5.329160e+01
   2.051211e+00  -4.006276e+01
   5.191192e+01  -3.126889e+01
   5.787886e+01   5.206793e+01
   2.081246e+01   4.104462e+01
   1.034223e+01   4.193122e+01
  -6.049363e+00   2.866365e+01
  -4.427647e+01   3.458429e+01
  -2.495308e+01   4.038053e+01
  -8.244008e+01   6.811858e+00
  -3.076182e+01  -3.639851e+01
   5.369292e+01  -6.535336e+01
  -6.338614e+00  -4.502195e+01
   5.132466e+01   1.424411e+01
   1.780604e+01   4.260419e+01
  -3.563289e+01   1.710625e+01
  -3.914472e+01  -6.704402e+01
  -5.502262e+01  -6.676208e+01
   5.319691e+01  -6.122709e+01
   8.445374e+01  -3.505597e-01
  -1.574418e+01  -5.904527e+01
  -7.217282e+01   8.951510e+00
  -2.335461e+01  -2.534091e+01
   3.400643e+01  -3.153149e+01
   8.261408e+01  -3.883484e+01
