
 $NMID
 id='ANONYMOUS ', fmtdat='(2E16.6)'
 volume=1.0
 tramp=1.0
 $END
  -3.711029e+03   3.154955e+02
  -2.490843e+03  -1.943411e+03
   2.962360e+02  -2.203413e+03
   1.502764e+03  -1.252331e+03
   1.035777e+03  -2.159359e+01
  -1.766183e+02   3.269700e+02
  -4.432194e+02  -2.786301e+02
  -5.731943e+00  -7.193030e+02
   6.954279e+02  -6.217906e+02
   7.313084e+02   3.979626e+00
   4.303476e+02   6.207727e+02
  -1.390594e+02   7.802840e+02
  -4.100264e+02   1.603575e+02
  -2.846307e+02  -4.502700e+02
   2.432153e+02  -6.756658e+02
   4.851674e+02  -3.409144e+00
   2.777649e+02   6.515629e+02
  -2.063524e+02   6.480694e+02
  -3.689925e+02   1.522041e+02
  -3.767071e+02  -2.465034e+02
  -1.311863e+02  -4.422958e+02
   1.382892e+02  -2.166215e+02
   1.126452e+02  -2.832341e+01
  -1.905173e+02  -9.433046e+01
  -2.503457e+02  -1.295259e+02
  -2.701776e+01  -2.894893e+02
   4.035998e+02  -2.896140e+02
   6.437116e+02   1.051602e+02
   2.707882e+02   3.881576e+02
  -3.483066e+02   3.177006e+02
  -6.351170e+02  -1.094966e+02
  -3.011264e+02  -4.266700e+02
   2.271595e+02  -4.150937e+02
   4.529563e+02  -1.530798e+02
   4.018162e+02   1.344474e+02
   9.983772e+01   3.779252e+02
  -8.924711e+01   2.036145e+02
  -1.408384e+01  -9.687583e+01
   2.149971e+02  -2.547984e+02
   3.335818e+02   6.973914e+01
   5.789663e+01   5.459849e+02
  -2.804597e+02   4.868521e+02
  -4.093170e+02   3.916766e+00
  -1.591234e+02  -3.483426e+02
   2.072847e+02  -1.834557e+02
   2.745242e+02   3.165087e+02
  -1.136972e+02   4.699324e+02
  -5.575385e+02   8.663892e+01
  -6.020402e+02  -4.158795e+02
  -1.883969e+02  -5.756771e+02
   3.282491e+02  -3.192295e+02
   5.990860e+02   8.800554e+01
   3.836266e+02   2.769209e+02
  -6.219526e+01   2.740731e+02
  -3.561933e+02   1.196510e+02
  -2.642408e+02  -6.270054e+01
   2.575664e+01  -3.176997e+01
   1.486353e+02   6.589891e+01
  -7.305625e+01   1.227079e+02
  -2.625220e+02  -2.219417e+01
  -1.843054e+02  -1.980856e+02
   1.639336e+02  -2.749378e+02
   3.790831e+02  -1.170183e+02
   2.760622e+02   1.267310e+02
   2.250929e+00   2.821748e+02
  -2.529737e+02   3.584440e+02
  -3.331619e+02   1.710668e+02
  -2.818095e+02  -1.132758e+02
  -8.125360e+01  -3.332501e+02
   9.763103e+00  -3.064030e+02
   5.459176e+01  -1.860569e+02
   4.418575e+01  -6.803786e+01
   1.172568e+02  -1.182391e+02
   2.615447e+02  -8.312324e+01
   2.506314e+02   1.010663e+02
   1.183591e+02   2.636555e+02
  -1.072821e+02   2.082069e+02
  -1.830186e+02   7.134118e+00
  -1.106230e+02  -2.050441e+02
   2.646173e+01  -2.911238e+02
   2.465234e+02  -8.662931e+01
   3.614319e+02   2.054271e+02
   2.068555e+02   3.173549e+02
  -5.725538e+01   2.646624e+02
  -1.899732e+02   1.295694e+02
  -1.262286e+02   3.585683e+01
  -9.927255e+01   5.181896e+01
  -2.731130e+02   1.166390e+02
  -3.941817e+02  -1.246012e+01
  -3.384359e+02  -2.454539e+02
  -4.212599e+01  -4.106529e+02
   3.352290e+02  -3.894631e+02
   4.601321e+02  -1.835533e+02
   2.575218e+02   1.023485e+02
   5.997345e+00   2.782906e+02
  -1.745607e+02   1.976313e+02
  -5.385989e+01  -1.429044e+01
   1.434378e+02  -7.754722e+01
   1.595390e+02  -3.217989e+00
   7.160016e+00   1.680561e+02
  -1.194880e+02   1.404446e+02
  -1.298487e+02  -7.051731e+01
   7.959809e-01  -1.118424e+02
   1.264791e+02  -7.376818e+00
   1.095934e+02   2.336906e+02
  -5.322703e+01   3.002084e+02
  -2.266447e+02   2.057267e+02
  -3.206684e+02  -9.001638e+01
  -2.888573e+02  -2.869624e+02
  -1.080436e+02  -2.746107e+02
   1.110555e+02  -1.552482e+02
   1.701980e+02   1.149885e+01
   8.427663e+01   4.180307e+01
  -2.748597e+01  -1.658207e+01
  -2.419593e-02  -8.783825e+01
   1.148971e+02  -2.933076e+00
   1.265100e+02   1.893819e+01
   3.792320e+01   5.216597e+01
  -1.152728e+02  -2.112938e+01
  -3.959413e+01  -1.198480e+02
   1.410847e+02  -8.220728e+01
   3.311608e+02   4.715760e+01
   2.954243e+02   1.624609e+02
   4.068344e+01   2.214605e+02
  -2.096869e+02   2.279138e+02
  -2.801978e+02   1.159833e+02
  -1.627262e+02  -1.718373e+01
  -4.781818e+00  -7.355178e+01
   7.062614e+01   5.332069e+01
  -2.074288e+01   6.390151e+01
  -1.720261e+02   1.572273e+01
  -2.290008e+02  -1.021405e+02
  -7.285204e+01  -1.590537e+02
   6.145464e+01  -1.223470e+02
   1.079742e+02  -3.247919e+01
   4.239427e+01   4.657035e+01
  -2.331764e+01  -2.800460e+01
   1.517007e+01  -9.411263e+01
   1.133240e+02  -1.415078e+02
   2.206250e+02  -2.407658e+01
   1.776748e+02   7.706076e+01
   2.634054e+01   2.026364e+02
  -1.446474e+02   1.710462e+02
  -1.537862e+02   6.612525e+01
  -2.083279e+01  -8.051825e+01
   5.801736e+01  -1.123849e+02
   6.719262e+01   4.628451e+01
  -4.763716e+01   3.984742e+01
  -1.078553e+02   3.285398e+01
  -4.555444e+01  -2.850782e+01
   3.980612e+01  -2.147050e+01
   9.915155e+01   1.894096e+01
   2.344272e+01   1.601693e+02
  -1.119122e+02   1.224585e+02
  -2.064700e+02  -5.322076e+00
  -1.770065e+02  -1.515508e+02
  -5.766575e+01  -2.618013e+02
   1.019759e+02  -1.518126e+02
   1.339649e+02  -3.800061e+01
   7.546030e+01   2.729803e+01
   4.929112e+01   1.778309e+01
   7.060761e+01  -4.089359e+01
   8.623303e+01   1.917387e+00
   6.269109e+01   8.445203e+01
  -1.991156e+01   1.097287e+02
  -1.247437e+02   6.318757e+01
  -5.264330e+01  -1.121290e+01
   9.744239e+00  -1.012639e+02
   1.130189e+02  -7.597071e+01
   1.882068e+02   1.177702e+02
   3.104604e+01   2.426912e+02
  -1.263690e+02   2.352203e+02
  -2.588679e+02   1.084651e+02
  -2.070146e+02  -8.395059e+01
  -7.584862e+01  -1.778232e+02
   2.829514e+01  -9.945221e+01
   7.125073e+01  -7.413047e+01
   8.017977e+01  -1.389451e+01
   6.805131e+01  -9.580002e+01
   4.663823e+01  -1.129350e+02
   7.750514e+01  -1.136245e+01
   1.099618e+02   1.393027e+02
   5.502759e+01   2.054283e+02
  -7.963526e+01   1.660633e+02
  -1.510863e+02  -1.351187e+01
  -8.269392e+01  -1.051416e+02
  -4.427994e+00  -1.255519e+02
   1.079174e+02  -1.001273e+02
   7.395339e+01   5.958192e+01
  -3.997299e+01   6.825285e+01
  -7.600523e+01   5.579676e+01
  -2.556270e+01   3.635801e+01
   7.794217e+01   3.471806e+01
   9.586971e+01   2.218857e+01
  -4.334211e+01   2.637668e+01
  -1.541156e+02  -1.574884e+00
  -1.766000e+02  -8.133549e+01
   8.519104e+00  -7.193903e+01
   1.919830e+02  -3.103008e+01
   1.568303e+02   4.958599e+01
   8.505871e+01   5.948795e+01
  -5.873569e+01   4.700357e+01
  -7.325431e+01  -3.933032e+01
  -8.178844e+00  -5.450580e+01
   4.222883e+01  -1.959728e+01
   6.830592e+01   2.151944e+01
   2.859068e+01   9.786190e+01
  -3.124578e+01   2.367511e+01
   5.823266e+01  -1.356019e+01
   1.148331e+02  -1.543783e+01
   4.914078e+01   9.031923e+01
  -3.736246e+01   1.395115e+02
  -1.476985e+02   1.445338e+02
  -1.612806e+02  -8.159898e-01
  -8.445983e+01  -9.309489e+01
   7.360903e+01  -1.159584e+02
   1.168369e+02  -6.628946e+01
   5.337625e+01  -3.574296e+01
  -7.724154e+01   2.763455e+01
  -1.581301e+02  -1.554110e+01
  -8.544351e+01  -1.179491e+02
   1.315633e+02  -1.217451e+02
   1.924533e+02  -2.536099e+01
   2.000202e+02   4.281603e+01
   9.334951e+01   7.510979e+01
  -5.597047e+01   1.022565e+02
  -1.810453e+01   2.406335e+01
   5.724924e+00  -3.931793e-01
   6.897362e+01   7.235372e+01
   2.144399e+01   1.379056e+02
  -6.089387e+01   1.899101e+02
  -1.526513e+02   6.346926e+01
  -1.333743e+02  -8.997932e+01
  -5.323688e+01  -1.883368e+02
   4.362956e+01  -1.624485e+02
   8.861460e+01   3.968336e+01
  -6.064110e-01   1.066215e+02
  -4.540926e+01   7.000523e+01
  -2.086980e+01   1.895485e+01
  -1.446864e+01  -9.807453e+01
   6.372963e+00  -3.422102e+01
   5.686034e+00  -6.313666e+00
  -3.472944e+01  -3.586829e+01
  -2.627843e+01  -5.665089e+01
  -6.170035e+01  -8.023566e+01
   7.873480e+01  -1.281379e+01
   1.238110e+02   6.418803e+00
   1.555222e+02   4.738437e+01
   6.279244e+01   5.732916e+01
  -7.839660e+01   3.275594e+01
  -9.377177e+01   2.987183e+01
   2.464971e+01  -6.918471e+00
   5.792487e+00  -2.967817e+00
   7.164496e+01  -2.190712e+01
  -4.174381e+00   3.760905e+01
   4.854439e+01   1.734299e+00
   9.635239e+01   3.007432e+01
   6.695125e+01   3.193360e+01
   1.088299e+01   5.512055e+01
  -9.353097e+01   1.477728e+02
  -1.795970e+02   7.822302e+01
  -1.597352e+02  -7.942331e+01
  -1.230831e+01  -1.882551e+02
   6.818157e+01  -1.663773e+02
   1.030137e+02  -6.282597e+01
   5.194671e+01   3.843637e+01
  -5.518127e+01   6.564629e+01
  -1.709344e+01   3.916136e+01
  -7.334380e-01   2.649727e+01
   3.519875e+01   5.790688e+01
   3.008213e+01   8.646347e+01
  -1.715489e+01   5.803131e+01
  -8.718169e+01  -7.214527e+00
  -1.362443e+02  -7.477592e+01
  -1.470885e+01  -8.258933e+01
   1.138743e+02   1.458407e+01
   1.060757e+02   5.783450e+01
   3.648631e+01   8.885972e+01
  -5.597092e+01   4.259299e+01
  -1.059345e+02  -4.206854e+01
  -5.033665e+01  -3.434505e+01
   3.027046e+01  -5.183922e+01
   8.856434e+01  -2.655475e+01
  -4.303805e+01  -1.560789e+01
  -7.025935e+01   3.511092e+01
  -1.865462e+01   1.028827e+01
   3.412179e+01  -2.365272e+01
   7.621749e+01  -5.920152e+01
   6.103867e+01   4.626279e+00
  -1.587830e+01   8.341049e+01
  -8.007345e+01   8.326152e+01
  -5.542728e+01   2.504924e+01
   3.057109e+00  -6.576203e+01
   7.821462e+01  -4.287340e+01
   1.774339e+01   3.584942e+01
   2.473586e+01   1.169744e+02
   4.263893e+01   5.013642e+01
  -5.180331e+01   1.421835e+01
  -1.599528e+01   8.655376e-01
  -3.710937e+01  -2.492913e+01
   6.756981e+00   1.998674e+01
   2.546507e+01   7.416905e+00
   4.363341e+00  -3.271198e+01
  -4.123535e+00  -3.241407e+01
   7.406852e+00   2.409087e+01
   2.750166e+01   7.382083e+01
   2.893681e+01   7.366498e+01
  -2.025524e+01   1.622093e+01
  -4.599777e+01  -4.165681e+01
  -5.220850e+01  -7.035789e+01
   1.723951e+01   4.429036e+00
   1.123356e+02   1.091321e+00
   5.690387e+01   7.051533e-01
  -1.160540e+01  -4.720190e+00
  -8.810131e+01   7.559326e+01
  -2.974997e+01   8.442157e+01
   2.724361e+01  -1.328994e+01
   4.743608e+01  -3.713528e+01
   5.903924e+01   2.923935e+01
  -9.075676e+01  -2.918316e+00
