
 $NMID
 id='ANONYMOUS ', fmtdat='(2E16.6)'
 volume=1.0
 tramp=1.0
 $END
   1.610143e+03   8.358718e+01
   9.592182e+02   7.635603e+02
  -2.077252e+01   9.196324e+02
  -5.792739e+02   6.383354e+02
  -4.539202e+02   1.460716e+02
   3.231644e+01  -1.308016e+02
   3.089078e+02  -3.497364e+01
   1.084756e+02   3.329348e+02
  -2.253567e+02   3.456089e+02
  -3.703146e+02   1.115608e+01
  -1.612508e+02  -2.579220e+02
   7.239210e+01  -3.170366e+02
   2.539259e+02  -1.263964e+02
   1.673564e+02   2.524701e+02
  -2.600428e+01   2.797936e+02
  -1.829932e+02   5.942992e+00
  -1.526407e+02  -2.990959e+02
   6.977500e+01  -2.529682e+02
   2.626117e+02  -1.057983e+02
   3.062729e+02   7.286126e+01
   5.099739e+01   1.159432e+02
  -8.809032e+01   5.721353e+01
  -3.400183e+00   6.611154e+01
   3.695669e+01   5.281157e+01
   1.122759e+02   1.865391e+02
  -4.414745e+01   1.556634e+02
  -2.124169e+02  -2.062029e+01
  -2.911040e+02  -8.629333e+01
  -1.348490e+02  -1.676152e+02
   1.456938e+02  -8.788003e+01
   2.333747e+02   3.125666e+01
   1.048390e+02   1.444243e+02
  -1.237884e+02   1.625517e+02
  -2.349166e+02   7.478771e+01
  -1.517595e+02  -9.580258e+01
  -1.934194e+01  -1.511357e+02
   3.376944e+01  -1.185435e+02
  -8.642532e+00   7.038972e+01
  -6.003653e+01   4.396395e+01
  -6.800920e+01  -7.430732e+01
   2.418470e+01  -2.039192e+02
   1.205404e+02  -2.066884e+02
   1.399051e+02  -4.019591e+00
   7.933365e+01   1.217317e+02
  -1.256647e+01   7.497400e+01
  -3.671808e+01  -1.286689e+02
   3.749912e+01  -2.136885e+02
   1.824796e+02  -3.519797e+01
   2.264020e+02   1.668732e+02
   6.904577e+01   2.492033e+02
  -1.333367e+02   1.404448e+02
  -2.398116e+02  -1.626930e+01
  -1.717605e+02  -1.283004e+02
   5.679418e+01  -9.955493e+01
   1.656929e+02  -2.256108e+01
   1.365192e+02   2.074945e+01
   2.497711e+01  -2.600282e+00
  -4.476166e+01  -7.339612e+00
   3.871597e+01  -2.125701e+01
   7.745743e+01   1.100986e+01
   8.777144e+01   9.021947e+01
  -6.806694e+01   8.487382e+01
  -1.633155e+02   5.199232e+01
  -1.177611e+02  -6.943641e+01
   2.583620e+00  -1.740581e+02
   1.435718e+02  -1.518370e+02
   1.950898e+02  -3.421186e+01
   1.019395e+02   9.845904e+01
   3.366132e+01   1.961089e+02
  -6.596411e+00   1.565962e+02
  -2.075755e+00   9.091028e+01
  -1.939717e+01   5.830449e+01
  -9.781212e+01   4.651644e+01
  -1.300506e+02   1.492538e+01
  -1.182068e+02  -7.661840e+01
  -3.880716e+01  -1.262460e+02
   4.935753e+01  -8.236107e+01
   7.433100e+01  -2.557717e+00
   1.050983e+02   1.134589e+02
  -2.691666e+01   1.067393e+02
  -1.140435e+02   5.134901e+00
  -1.434069e+02  -1.001935e+02
  -8.208875e+01  -9.806330e+01
   1.414981e+01  -1.125783e+02
   6.849600e+01  -8.231466e+01
   8.681598e+01  -8.436591e+01
   9.943992e+01  -3.514469e+01
   1.687653e+02   1.604084e+01
   1.766149e+02   1.143772e+02
   8.704488e+01   1.305031e+02
  -1.088819e+01   1.776644e+02
  -2.289624e+02   1.866058e+02
  -2.325514e+02   6.272866e+01
  -1.541529e+02  -4.420038e+01
  -2.681168e+01  -1.251068e+02
   9.519774e+00  -9.062776e+01
   1.963119e+01  -3.432627e+01
  -1.031835e+01   1.097666e+01
  -2.858892e+01  -2.274788e+00
   1.279629e+01  -4.966218e+01
   6.106810e+01  -2.944627e+01
   5.678268e+01   1.789184e+01
  -1.571957e+01   1.440317e+01
  -7.119447e+01   6.590062e+00
  -6.438255e+01  -1.106086e+02
   2.835916e+01  -1.278804e+02
   1.216942e+02  -1.058887e+02
   1.491349e+02   3.018837e+01
   1.035766e+02   1.076611e+02
   5.328097e+01   1.192755e+02
  -4.559935e+01   8.528783e+01
  -1.207152e+01  -1.193889e+01
  -3.076378e+01  -2.425495e+00
   4.116469e+00   3.291276e+01
   1.817558e+01   5.708645e+01
  -5.166297e+01   2.808444e+01
  -3.998874e+01  -2.312210e+01
  -4.673931e+01  -3.019863e+01
   2.808126e+01   3.594672e+01
   1.061141e+01  -9.960924e+00
  -8.004319e+01   1.913783e+01
  -1.125428e+02  -3.403146e+01
  -9.824463e+01  -4.101916e+01
  -2.288650e+01  -8.328170e+01
   1.194228e+02  -1.003984e+02
   1.387912e+02  -5.988272e+01
   4.353276e+01   3.433246e-01
  -2.966434e+01   7.815815e+00
  -1.479886e+01   1.421839e+01
   2.474665e+01  -1.857132e+01
   6.864056e+01  -3.188233e+01
   7.788250e+01   6.339152e+01
   4.300230e+01   9.631990e+01
  -3.473886e+01   5.665715e+01
  -7.374920e+01  -2.341280e+01
  -3.184314e+01  -2.703409e+01
   3.453741e+00   2.899692e+01
   1.843830e+00   7.096703e+01
  -6.480992e+01   3.711600e+01
  -8.215639e+01  -2.818090e+01
  -6.190799e+01  -5.618930e+01
  -1.572023e+00  -1.056213e+02
   7.287791e+01  -3.864317e+01
   9.695653e+01  -6.060432e+00
   2.368090e+01   5.801765e+01
  -2.099118e+01   4.224806e+01
  -9.355161e+00  -7.796893e+00
  -2.519722e+01   1.335535e+01
  -1.595200e+01   1.038274e+01
  -2.186903e+00  -1.337892e+00
  -3.442972e+01   1.949735e+01
  -3.827373e+01  -8.407438e+01
   3.592957e+01  -4.992312e+01
   8.570491e+01  -5.995444e+01
   1.180600e+02  -7.764426e+00
   4.816743e+01   4.365498e+01
   3.237170e+01   9.437743e+01
  -6.203507e+01   8.604364e+01
  -4.193516e+01   1.598365e+01
  -2.758459e+01  -3.922174e+01
  -3.970823e+01  -3.136724e+01
  -3.944981e+01  -1.409543e+01
  -3.990611e+01  -4.179104e+01
  -4.248857e+00  -5.364443e+01
   4.519291e+01  -6.130074e+01
   3.716707e+01   1.517897e+01
   2.990222e+01   4.593817e+01
  -1.532732e+01   3.501620e+01
  -1.648215e+01   1.637358e+01
  -8.989756e+01  -6.345731e+01
  -7.690067e+01  -1.056266e+02
   5.243849e+01  -9.190098e+01
   8.958369e+01  -1.780864e+01
   1.116402e+02   1.135084e+01
   4.897946e+01   6.924762e+01
  -6.009837e+00   6.392343e+01
  -5.425921e+01   1.956828e+01
  -7.692903e+00   1.961393e+01
  -4.403161e+01   4.547092e+01
  -4.714752e+01   4.036946e+01
  -2.143705e+01   5.986666e+00
  -2.515081e+01  -3.107893e+01
  -2.096626e+01  -8.243155e+01
   7.133002e+01  -9.298856e+01
   8.230880e+01  -1.889213e+01
   4.842133e+01   3.393163e+01
   3.409622e+01   5.315711e+01
  -2.548479e+01   5.183303e+01
  -4.371191e+01   2.291134e+01
  -2.353317e+01  -2.313116e+01
   1.986960e+01  -2.746713e+01
  -1.261447e+01  -7.139375e+00
  -3.140053e+01   7.153027e+00
  -1.293021e+01  -1.459868e+01
   3.689895e+01  -2.680397e+01
   7.294524e+01   1.914368e+01
   4.615046e+01   4.657216e+01
  -2.912425e+00   4.616823e+01
  -4.761539e+01   7.647501e+00
  -3.184704e+01  -1.052846e+01
  -5.613705e+00  -9.477625e+00
   1.884713e+01  -2.237679e+01
   2.755176e+01   3.177944e+01
   3.360177e+01   4.002352e+01
  -3.551600e+01   6.318504e+01
  -1.999360e+01  -2.279894e+01
   5.713105e+00  -3.201574e+01
  -6.078293e+01  -4.181995e+00
  -3.440665e+01  -1.909025e+01
  -5.306746e+01  -1.968811e+01
  -6.664754e+01  -6.995272e+01
   1.582087e+01  -5.867375e+01
   7.433450e+01  -1.117394e+02
   8.476623e+01   1.007943e+01
   3.912903e+01   4.889183e+01
   1.810134e+01   3.597919e+01
  -5.618200e+01   6.188519e+01
  -3.169784e+01  -3.472014e+01
   2.638919e+01  -9.289623e+00
   7.364890e+01   1.842262e+01
   2.749802e+01   3.161651e+01
  -3.119924e+01   2.975004e+01
  -1.066248e+02  -1.107928e+01
  -9.362206e+01  -2.047036e+01
  -2.402931e+01  -5.978374e+01
   3.840141e+00  -4.792784e+01
  -1.199891e+00   2.288273e+01
  -4.711490e+01  -1.865775e+01
  -5.113839e+01  -2.130031e+01
  -3.908968e+01  -6.654575e+01
  -3.975707e+00  -6.122819e+01
   9.113414e+01  -7.002544e+01
   6.952681e+01   5.044412e+01
   4.642229e+00   9.842170e+01
  -3.554449e+01   9.031508e+01
  -6.484474e+01   2.262853e+00
  -2.833910e+01  -5.489174e+01
  -1.592357e+01  -6.596889e+01
   9.196310e+00  -4.172965e+00
  -9.337446e+00   2.753625e+01
  -1.263645e+01   1.244046e+01
  -3.361309e+01   8.564157e+00
  -6.090419e-01  -1.493769e+01
   9.285448e+00   2.400940e+01
   5.565748e+01   4.192015e+01
  -2.645338e+01   3.034519e+01
  -9.214735e+01  -1.230474e+01
  -3.220175e+01   3.583114e+00
   7.175115e-01  -2.896322e+00
   3.209150e+01  -6.202243e+01
   7.107004e+01   2.035233e-01
  -4.064395e+01   1.191152e+01
  -6.130662e+01   6.390375e-01
  -2.652636e+01  -1.417946e+01
   6.254707e+00   3.226589e+01
   1.851448e+01   2.568232e+01
  -6.390098e+01   1.728818e+00
  -4.060760e+01  -1.616632e+01
  -1.129107e+01  -3.720072e+01
   7.125801e+01  -4.338487e+01
   7.474262e+01  -1.092352e+01
   2.872503e+01   5.903653e+01
   3.703322e+01   6.205684e+01
  -1.140579e+01   5.290268e+01
  -4.549749e+01   8.035847e+01
  -8.212314e+01  -5.963103e+00
  -5.299431e+00   2.182543e+01
   1.613507e+01  -4.896545e+00
   1.396263e+01   2.657510e+01
  -6.657748e+00  -2.374750e+01
   1.994528e+00  -2.183296e+01
   3.631737e+00  -1.592166e+01
   6.991297e+01  -2.385996e+01
   1.416996e+01   4.360648e+01
  -1.295549e+01   4.429640e+01
  -5.637117e+01   2.462031e+00
  -5.379946e+01  -3.594890e+01
  -1.288981e+01  -4.856846e+01
   1.697346e+01  -5.496626e+01
   5.426664e+01  -1.400431e+01
   3.744884e+01   2.342677e+01
  -1.714520e+01   4.267360e+01
  -1.973855e+01   4.055087e+01
   4.392888e+00   7.037580e+00
   1.198165e+01  -2.139807e+01
  -1.151409e+01  -5.189814e+00
  -1.415888e+01   1.920656e+01
  -5.083158e+01  -9.241321e+00
  -5.737511e+01  -3.306232e+01
   2.749568e+01  -7.731640e+01
   2.575234e+00  -1.628244e+01
   2.850903e+01   3.607410e-01
   1.947180e+01  -1.107850e+00
   2.573454e+01   5.459223e+00
  -2.954352e+01  -7.256593e+00
  -2.898031e-01  -4.287696e+01
   8.722716e+00  -1.531976e+01
   2.743062e+01   2.509801e+01
   3.873398e+01  -1.424143e+00
  -1.004238e+00   6.094855e+01
  -2.205837e+01   1.534850e+01
  -7.904809e+00   1.807035e+01
  -1.835455e+01   1.865591e+01
  -3.238524e+01   1.414075e+01
  -1.122635e+01   3.541505e+00
  -2.850969e+01  -9.273651e+00
   1.044765e+01  -6.907399e+00
   2.016708e+01  -7.765539e+00
   9.838997e+00   2.051601e+01
  -1.187366e+01   4.192522e+01
  -1.288174e+01   2.882196e+01
  -2.571421e+01   1.389936e+01
  -2.021976e+01  -4.391913e+01
   4.317782e+01   8.963153e+00
   6.747576e+01  -4.161539e-01
   2.389889e+01   1.447269e+01
  -1.918436e+01   1.002816e+01
  -4.706813e+00   1.730260e+01
   1.072990e+01  -8.967564e-01
   1.779556e+01   1.004538e+01
