
 $NMID
 id='ANONYMOUS ', fmtdat='(2E16.6)'
 volume=1.0
 tramp=1.0
 $END
  -2.794900e+03  -2.677150e+02
  -1.960346e+03  -1.465726e+03
  -1.680716e+02  -1.801154e+03
   1.044263e+03  -1.041702e+03
   8.634972e+02  -1.315939e+02
  -2.886722e+01   2.258294e+02
  -3.649980e+02  -4.890101e+01
  -5.807867e+01  -4.665591e+02
   3.511065e+02  -4.428140e+02
   4.935679e+02  -1.170367e+02
   4.003358e+02   4.174998e+02
   2.908498e+01   6.018578e+02
  -3.458569e+02   1.158087e+02
  -2.696789e+02  -3.453234e+02
   1.185298e+02  -4.076232e+02
   3.857459e+02  -6.804120e+01
   2.888538e+02   4.763534e+02
  -9.186585e+01   4.873766e+02
  -3.642540e+02   3.130492e+02
  -3.298432e+02  -1.207148e+02
  -6.187606e+01  -2.058810e+02
   8.752042e+01  -2.412534e+02
   6.270524e+01  -1.198365e+02
  -1.233997e+02  -4.797930e+01
  -2.510613e+02  -1.314921e+02
   1.109617e+01  -3.133136e+02
   3.859168e+02  -1.369494e+02
   5.322866e+02   8.911304e+01
   2.177904e+02   3.256617e+02
  -2.729268e+02   2.174346e+02
  -5.237933e+02  -1.551568e+02
  -1.615868e+02  -3.026185e+02
   2.181272e+02  -3.646536e+02
   3.336090e+02  -1.283125e+02
   3.140346e+02   1.300923e+02
   1.174630e+02   3.111743e+02
  -3.690638e+01   1.762101e+02
  -4.212986e+01  -1.004736e+02
   1.374497e+02  -1.279947e+02
   2.175624e+02   1.041182e+02
   1.038772e+02   4.218603e+02
  -2.014710e+02   3.848294e+02
  -3.205609e+02   3.607819e+01
  -9.441678e+01  -2.828783e+02
   1.795246e+02  -1.496650e+02
   1.850267e+02   2.459386e+02
  -3.643619e+01   3.339222e+02
  -3.433857e+02   5.807505e+01
  -3.635620e+02  -2.907309e+02
  -1.437256e+02  -3.557512e+02
   2.650335e+02  -1.783388e+02
   4.400941e+02   8.151612e+01
   2.742053e+02   2.567975e+02
  -9.334338e+01   2.304217e+02
  -3.191899e+02   7.457153e+01
  -1.998146e+02  -5.710341e+01
  -2.219012e+01  -1.432617e+01
   8.995763e+01   4.282236e+01
  -6.905986e+01   2.460327e+01
  -1.962603e+02  -3.813057e+01
  -1.265462e+02  -1.350065e+02
   9.740669e+01  -2.167466e+02
   2.690461e+02  -8.479748e+01
   2.432534e+02   6.327917e+01
   1.499712e+01   2.697979e+02
  -2.227856e+02   2.737793e+02
  -2.826925e+02   1.494890e+02
  -2.056033e+02  -1.471095e+02
  -5.082580e+01  -2.603745e+02
   3.119846e+01  -2.422379e+02
   5.724777e+00  -5.977476e+01
  -4.838613e+00  -4.419709e+01
   8.023132e+01  -1.362210e+02
   2.176227e+02  -2.809163e+01
   1.981250e+02   1.390191e+02
   3.930203e+01   2.427150e+02
  -8.968844e+01   1.664736e+02
  -1.877817e+02  -4.239301e+01
  -1.123751e+02  -1.812121e+02
   2.452753e+01  -2.746290e+02
   2.171087e+02  -1.006639e+02
   2.865547e+02   1.139775e+02
   1.510862e+02   2.603418e+02
  -7.860084e+01   2.065956e+02
  -1.117987e+02   1.486851e+02
  -1.277488e+02   8.248398e+01
  -1.129045e+02   6.308997e+01
  -2.074474e+02   2.522550e+01
  -2.783321e+02  -3.469524e+01
  -2.587081e+02  -2.235432e+02
  -1.185906e+01  -3.421365e+02
   3.392859e+02  -3.491794e+02
   3.876941e+02  -1.973610e+02
   2.382664e+02   1.023348e+02
   1.626619e+01   2.189343e+02
  -8.868808e+01   2.403195e+02
   1.258341e+01   7.303367e+01
   9.831657e+01  -3.614679e+01
   1.057927e+02   3.005375e+01
  -3.882130e+01   1.510391e+02
  -1.028436e+02   1.220386e+02
  -1.080530e+02  -1.969670e+01
   3.026251e+00  -1.600935e+02
   1.006556e+02   7.911354e-01
   9.277506e+01   1.789446e+02
  -3.467220e+01   2.230491e+02
  -1.836691e+02   1.295923e+02
  -2.883498e+02  -8.996201e+01
  -2.696751e+02  -2.267413e+02
  -3.827392e+01  -2.515333e+02
   1.380985e+02  -1.277393e+02
   1.635819e+02   2.305273e+01
   3.801232e+01   1.703096e+01
  -4.502598e+01  -5.639018e+01
  -3.958946e+01  -9.542674e+01
   9.983355e+01  -5.756074e+00
   1.347935e+02   1.032997e+01
   5.971025e+01   6.099850e+01
  -3.152775e+01   2.443320e+01
  -3.475587e+01  -5.858606e+01
   1.006188e+02  -3.610590e+01
   2.923980e+02  -1.646808e+01
   2.438169e+02   1.413891e+02
   4.841768e+01   1.999827e+02
  -2.014364e+02   2.675732e+02
  -2.722525e+02   1.369858e+02
  -1.291078e+02   2.531713e-01
  -2.858848e+01  -5.711455e+01
   3.610910e+01  -1.228340e+01
  -7.502918e+01   2.665385e+01
  -1.694422e+02   1.783141e+01
  -1.807919e+02  -1.029218e+02
  -7.000812e+01  -1.461936e+02
   9.161443e+01  -8.827903e+01
   1.555668e+02  -1.230519e+01
   5.789088e+01   2.794314e+00
  -3.817707e+01   4.680725e+00
  -3.795227e+01  -6.553227e+01
   9.080312e+01  -4.509778e+01
   1.644223e+02  -6.400225e+01
   1.898773e+02   5.664933e+01
   7.330376e+01   1.547170e+02
  -1.006834e+02   1.366696e+02
  -1.265429e+02   2.885518e+00
  -4.759630e+01  -1.104517e+02
   4.218102e+01  -6.638719e+01
   6.098043e+01  -4.599671e+01
  -4.551752e+01   2.052965e+01
  -4.974117e+01   2.834729e+01
  -6.682000e+00   2.832367e+01
   6.973203e+01   9.206315e+00
   1.140263e+02   6.582430e+01
   2.549939e+01   1.492235e+02
  -1.111970e+02   1.236106e+02
  -1.752369e+02   5.653939e+01
  -1.665986e+02  -1.004741e+02
  -1.055912e+01  -2.505976e+02
   6.742474e+01  -1.515439e+02
   9.654938e+01  -3.422442e+01
   6.321920e+01   4.761191e+01
   1.271416e+00   4.153292e+01
   5.038869e+01   1.501829e+01
   4.335043e+01  -2.932777e+00
   1.027406e+02   3.099990e+01
  -4.496605e+01   1.107275e+02
  -9.065380e+01   5.661755e+01
  -1.265446e+02  -2.908264e+01
   3.082909e+01  -1.012024e+02
   1.266897e+02  -6.618302e+01
   2.161993e+02   8.550549e+01
   9.289131e+01   2.049655e+02
  -1.118994e+02   2.147732e+02
  -2.457981e+02   7.258281e+01
  -2.043311e+02  -7.852519e+01
  -8.512749e+01  -1.361894e+02
   3.889152e+01  -1.213423e+02
   6.250840e+01  -5.590149e+01
   4.603753e+01  -7.220592e+01
   5.724713e+00  -1.013751e+02
   5.260209e+01  -8.323748e+01
   1.261378e+02   3.642162e+01
   9.427189e+01   1.424513e+02
   6.034917e+00   2.243920e+02
  -1.297798e+02   1.531188e+02
  -1.680752e+02   2.679872e+01
  -1.178427e+02  -1.037334e+02
  -8.950982e+00  -1.364381e+02
   7.291076e+01  -5.963863e+01
   4.404226e+01  -3.186790e+01
  -1.780972e-01   3.736304e+01
  -6.149116e+01   5.810806e+01
   9.247290e+00   1.172052e+01
   9.409957e+01  -1.074678e+01
   8.953460e+01   1.529684e+01
  -2.057781e+01   1.356563e+01
  -1.387160e+02   2.551424e+01
  -1.382656e+02  -6.134831e+01
   1.645278e+01  -7.944545e+01
   1.185209e+02  -8.376598e+01
   1.336385e+02  -3.515750e+00
   6.229320e+01   3.438901e+01
  -7.256906e+01   4.024683e+01
  -9.651784e+01  -6.761040e-01
  -3.995059e+01  -5.273847e+01
   2.031312e+00  -5.225378e+01
   5.962686e+01  -2.340396e+01
   3.332795e+01   2.980346e+01
   6.284798e+01   3.789117e+00
   5.819260e+01  -4.354740e+00
   6.845173e+01   1.325287e+01
   6.641921e+01   7.967131e+01
  -4.540840e+01   1.421785e+02
  -1.145685e+02   1.142593e+02
  -1.687728e+02   2.756905e+01
  -1.172082e+02  -7.043286e+01
   1.968137e+01  -1.019838e+02
   7.854760e+01  -7.745600e+01
   6.227332e+01   5.254823e+01
  -5.432386e+01   3.504204e+01
  -1.358014e+02  -4.673492e+01
  -6.456767e+01  -5.301431e+01
   6.374022e+01  -8.509618e+01
   1.945995e+02  -5.747411e+01
   1.406124e+02  -2.638083e+00
   7.246140e+01   7.969343e+01
  -3.574044e+01   7.516864e+01
  -2.966034e+01  -4.642661e+01
   4.713508e+01  -1.498778e+01
   9.190263e+01   2.233282e+01
   1.619545e+01   8.670492e+01
  -8.117351e+01   1.604875e+02
  -1.616707e+02   8.519393e+01
  -1.561636e+02  -7.517140e+01
  -4.763446e+00  -1.444112e+02
   9.211465e+01  -1.420198e+02
   1.576142e+02   2.446629e+01
   2.183733e+01   7.066370e+01
  -4.681432e+01   7.093715e+01
  -1.005217e+02  -2.382190e+01
  -5.203025e+01  -3.150317e+01
   5.477536e+01  -3.014402e+01
   3.624844e+01   1.666663e+01
  -2.107040e+01   5.851992e+00
  -7.891318e+01  -4.816199e+01
  -8.521314e+01  -1.243139e+02
   1.185352e+01  -1.438883e+01
   1.399729e+02   4.204418e+01
   1.527454e+02   8.224655e+01
   2.218153e+01   9.175081e+01
  -8.700024e+01   6.651844e+01
  -6.182091e+01   3.918280e+00
  -1.607961e+01  -7.395280e+00
   1.449802e+01  -1.053039e+01
   5.631300e+01  -1.863957e+01
  -4.849360e+00   2.620238e+01
  -8.191193e+00   1.301030e+01
   3.614753e+01   2.623367e+01
   8.830534e+01  -7.253830e+00
   7.775787e+00   3.985038e+01
  -8.485712e+01   6.367407e+01
  -1.524814e+02   6.302845e+01
  -1.332479e+02  -8.716427e+00
  -2.361496e+01  -8.339935e+01
   3.258525e+01  -1.011647e+02
   1.072801e+02  -9.827109e+01
   2.827697e+01  -1.455469e+00
  -1.336239e+01   2.532113e+01
   1.788221e+01   2.524066e+01
   9.651063e+00   2.113552e+00
   8.113623e+01   7.899091e+01
   1.245975e+01   7.170349e+01
   2.704137e+00   7.753208e+01
  -5.531679e+01  -3.210087e+01
  -5.518657e+01  -1.096199e+02
  -4.672722e-01  -7.367004e+01
   6.515082e+01  -7.800308e+00
   9.703538e+01   7.523475e+01
   1.534532e+01   5.928042e+01
  -7.152323e+01   3.478246e+01
  -8.703749e+01  -3.634711e+01
  -4.577359e+00  -1.004196e+02
   4.458373e+01  -6.310068e+01
   2.392142e+01  -3.677073e+01
  -4.356675e+01   1.827977e+01
  -4.737916e+01   3.200993e+01
  -4.500965e+01  -2.664919e+01
   8.191937e+01  -7.995851e+01
   1.334353e+02  -4.371344e+01
   7.352298e+01   3.339587e+01
   7.616148e-01   7.393504e+01
  -5.354214e+01   8.469233e+01
   8.251458e+00   2.600246e+01
   2.883614e+01  -5.517082e+01
   4.566932e+01   7.677877e+00
   1.439468e+01   4.060916e+01
  -5.628327e+00   4.248636e+00
  -7.655478e-01   2.094382e+01
  -1.891782e+01   4.899637e+00
  -1.875377e+01   1.443070e+01
   5.468031e+00  -1.216995e+01
   4.590299e+01   2.971248e+01
  -6.208512e+00   2.546331e+00
   2.050032e+01  -5.674957e+01
   1.780289e+01  -1.068522e+01
   3.607349e+01   1.710087e+01
   5.930509e+01   3.156914e+01
   1.152195e+01   5.776424e+01
  -4.806815e+01   9.640662e+00
  -7.108561e+01  -2.666709e+01
  -2.546113e+01  -9.662383e+01
   2.403805e+01  -2.849784e+01
   1.221747e+02   4.583564e+01
   4.300270e+01   1.970315e+01
  -2.078462e+01   3.650827e+01
  -2.319535e+01   1.973129e+01
   8.732769e+00   4.922768e+01
   4.497716e+01  -9.261608e+00
   4.375686e+01   3.629183e+00
   2.082545e+01   2.664945e+01
  -7.798558e+01   5.271469e+01
