
 $NMID
 id='ANONYMOUS ', fmtdat='(2E16.6)'
 volume=1.0
 tramp=1.0
 $END
   1.776086e+03  -2.555804e+02
   1.128299e+03   1.113472e+03
  -3.323791e+02   1.252364e+03
  -1.033182e+03   4.496389e+02
  -5.835085e+02  -4.081877e+02
   2.819677e+02  -4.764122e+02
   4.356798e+02   1.712073e+02
  -7.054250e+00   4.898109e+02
  -3.958754e+02   2.972874e+02
  -4.378692e+02  -6.669926e+01
  -2.119091e+02  -3.677063e+02
   6.962142e+01  -4.350613e+02
   3.247974e+02  -1.618432e+02
   2.145454e+02   3.036087e+02
  -1.556960e+02   3.325945e+02
  -3.702193e+02   7.730029e+00
  -1.503002e+02  -3.952660e+02
   1.439723e+02  -3.520621e+02
   3.340056e+02  -1.311084e+02
   1.911051e+02   1.798021e+02
   6.288528e+00   1.780213e+02
  -1.287128e+02   1.126565e+02
  -8.739089e+01  -3.428715e+01
   8.742910e+01  -3.660521e+01
   2.008248e+02   6.111973e+01
   1.199751e+02   2.394993e+02
  -2.069869e+02   2.182375e+02
  -4.727822e+02  -7.187074e+01
  -2.096099e+02  -2.672606e+02
   2.035391e+02  -2.997307e+02
   3.640729e+02   1.052257e+01
   2.046335e+02   2.464949e+02
  -8.633754e+01   2.407400e+02
  -2.199290e+02   1.015779e+02
  -1.945323e+02  -7.273226e+01
   1.142748e+01  -2.148450e+02
   1.049841e+02  -1.559218e+02
   1.098122e+02   9.923553e+01
  -5.474531e+01   2.348031e+02
  -2.463028e+02   3.490019e+01
  -1.376629e+02  -3.292364e+02
   1.489639e+02  -3.692895e+02
   3.301606e+02  -8.669706e+00
   1.480401e+02   2.855487e+02
  -1.330096e+02   1.934326e+02
  -2.175342e+02  -1.351130e+02
   2.417555e+01  -2.712159e+02
   2.795326e+02  -1.085976e+02
   2.920822e+02   1.879114e+02
   6.818415e+01   3.245753e+02
  -1.957100e+02   2.220296e+02
  -3.121723e+02  -2.619534e+01
  -1.895736e+02  -2.450673e+02
   8.659684e+01  -2.149845e+02
   2.443724e+02  -6.088770e+01
   1.549998e+02   1.050377e+02
  -2.642117e+01   6.298365e+01
  -5.651181e+01  -6.294457e+01
   7.968523e+01  -1.173384e+02
   1.295386e+02  -9.213103e+00
   1.022853e+02   1.209887e+02
  -7.607395e+01   1.311453e+02
  -1.833089e+02   9.955863e+01
  -1.232762e+02  -1.922307e+01
  -4.008951e+01  -1.250546e+02
   8.196057e+01  -1.926912e+02
   1.951783e+02  -1.206252e+02
   1.887987e+02   4.071759e+01
   9.264227e+01   1.906627e+02
  -4.109570e+01   1.523543e+02
  -5.925260e+01   1.847852e+01
  -2.059087e+01  -7.850696e+00
  -1.873745e+01   3.807895e+01
  -6.732400e+01   8.136563e+01
  -9.614484e+01  -1.796321e+01
  -6.889518e+01  -1.271864e+02
   4.616592e+00  -1.286972e+02
   8.272198e+01   2.910991e+00
   1.006952e+02   1.132336e+02
   1.184350e+01   1.449563e+02
  -1.353692e+02   7.592988e+01
  -1.763252e+02  -7.225356e+01
  -1.014835e+02  -1.974481e+02
   3.008823e+01  -1.865174e+02
   1.430617e+02  -5.460904e+01
   4.934459e+01  -2.556180e+01
   3.500125e+01   3.430611e+00
   9.293763e+01  -7.863998e+01
   2.051463e+02   1.142174e+01
   2.238839e+02   1.123985e+02
   6.397308e+01   2.371823e+02
  -1.724855e+02   2.138569e+02
  -2.316008e+02   9.958647e+01
  -1.547404e+02  -1.980364e+01
  -3.822921e+01  -1.120721e+02
   5.900928e+01  -9.551735e+01
  -1.158985e+01   5.094793e+00
  -8.184373e+01   9.514316e+00
  -4.942939e+01  -1.813202e+01
  -1.808251e+01  -1.221554e+02
   8.614514e+01  -8.927468e+01
   1.099752e+02   1.298948e+00
   9.349703e+00   1.164454e+02
  -8.110516e+01   2.970308e+01
  -6.577542e+01  -1.318531e+02
   1.099746e+01  -1.726705e+02
   1.330877e+02  -8.178433e+01
   1.524109e+02   1.404809e+01
   1.021802e+02   1.201932e+02
   3.878977e+01   1.625014e+02
  -2.929478e+01   1.033079e+02
  -6.869239e+01  -1.322216e+01
  -4.212031e+01   5.106612e+01
   3.592425e+01   6.403227e+00
   1.004434e+01   3.814338e+01
  -8.165687e+01   5.373878e+01
  -8.094967e+01  -4.502355e+01
  -1.118923e+01  -5.065864e+01
   5.822463e+01   7.688733e-01
   6.530153e+01   4.295129e+01
  -6.585427e+01   6.325353e+01
  -1.553840e+02   3.661756e+01
  -1.133787e+02  -5.737099e+01
  -2.643797e+01  -1.489995e+02
   1.021154e+02  -1.114471e+02
   1.241471e+02  -3.059347e+01
   7.493055e+01   3.042879e+01
  -2.969576e+01   4.137701e+01
  -4.868157e+01  -1.248791e+01
   2.836368e+01  -6.073995e+01
   1.324930e+02  -1.717594e+01
   1.228167e+02   5.218588e+01
   2.254031e+01   1.576642e+02
  -6.532113e+01   9.101702e+01
  -8.114642e+01   2.075540e+00
  -6.427049e+01  -7.718721e+00
  -1.079009e+01  -3.325829e+01
   1.958670e+01   4.737487e+01
  -7.324571e+01   3.632102e+01
  -9.463834e+01  -1.584578e+01
  -4.576196e+01  -4.183519e+01
   9.359394e+00  -1.007996e+02
   6.713398e+01  -7.300135e+01
   5.481877e+01   7.947375e+00
   2.945274e+00   1.004166e+02
  -6.285522e+01   2.383062e+01
  -4.330620e+01  -2.879470e+01
   6.604111e+00  -3.904959e+00
   4.724132e+01   2.795279e+00
   4.895732e-01  -8.498677e+00
  -2.245216e+01   4.702276e+00
  -5.958882e+01  -2.687359e+01
   7.624293e+00  -7.052613e+01
   7.930400e+01  -6.008785e+01
   1.014228e+02   1.555802e+01
   6.977798e+01   8.089452e+01
   4.246161e+01   1.069756e+02
  -4.602020e+01   8.609844e+01
  -3.324363e+01  -8.527592e+00
  -2.145477e+01   1.865417e+01
  -1.358928e+01   1.781639e+00
  -3.785152e+01   3.448893e+01
  -6.869776e+01   5.718833e+00
  -5.061482e+01  -2.996945e+01
  -8.962947e+00  -5.836831e+01
   7.038697e+01  -5.963487e+01
   5.752048e+01   1.307519e+01
  -2.672783e+01   8.716641e+01
  -8.741486e+01   4.927939e+01
  -1.230686e+02  -2.195321e+01
  -3.645012e+01  -1.159899e+02
   4.013963e+01  -1.311715e+02
   1.223349e+02  -5.017850e+01
   9.727456e+01   3.242963e+01
   2.608836e+01   5.019797e+01
  -1.954891e+01   3.847907e+01
  -3.850905e+01   2.779250e+01
  -4.523558e+01   4.908167e+01
  -2.416149e+01   2.921723e+01
  -3.204422e+00   7.877090e+01
  -9.750725e+01   3.974628e+01
  -5.935930e+01  -5.355945e+01
  -3.428283e+01  -9.192100e+01
   4.195069e+01  -1.404081e+02
   9.621538e+01  -2.855308e+01
   6.280543e+01   6.396892e+01
   1.812747e+01   5.858676e+01
  -1.778803e+01   8.124073e-01
  -3.406752e+01  -1.625518e+01
   3.044462e+01   8.423273e+00
   1.547344e+01  -3.021294e+01
   1.287129e+01  -1.588514e+00
  -5.771695e+01  -1.053246e+01
  -1.541225e+01  -2.756679e+01
   3.827726e+01  -2.570757e+01
   9.990028e+01   9.112307e-01
   6.214375e+01   3.593479e+01
  -4.849228e+00   5.063326e+01
  -6.523498e+00   1.853809e+01
  -3.854629e+01   3.816002e+01
  -1.912814e+01   6.007576e+00
   8.655778e+01   1.941419e+01
   2.024142e+01   5.338240e+01
  -1.354920e+01   3.117574e+01
  -1.733017e+01   2.627493e+01
  -3.543323e+01  -2.720573e+01
  -2.682873e+01  -2.839985e+01
   1.458132e+00  -7.119603e+00
  -6.153816e+00   1.255569e+01
  -2.531167e+01   2.820409e+01
  -2.083200e+01   4.021878e+00
  -1.810079e+01  -5.630385e+01
   2.369713e+01  -3.339990e+01
   9.281691e+01   5.384801e+00
   6.288835e+01   5.919697e+01
  -5.955494e+00   1.014491e+02
  -5.630203e+01   1.943790e+01
  -4.184233e+01  -3.794271e+01
   1.508546e+01  -3.742832e+01
   4.821388e+01   3.367407e+01
   6.109202e+01   2.410185e+01
  -2.960303e+01   8.152898e+01
  -1.173350e+02   2.802452e+01
  -6.608193e+01  -3.152410e+01
  -5.846021e+01  -5.039932e+01
   2.707667e+01  -2.911818e+01
   8.285183e+01  -1.684171e+01
  -1.563257e+01   3.549009e+01
  -5.153407e+01   3.045984e+01
  -1.328126e+01  -1.248191e+01
  -1.015893e+01  -4.767718e+01
   8.255549e+01  -1.408155e+01
   8.830117e+01   7.450703e-01
  -6.877132e+00   7.590670e+01
  -1.446992e+01   9.240600e+01
  -6.393541e+01   3.977048e+01
  -5.924947e+01  -2.184560e+01
   2.082512e+01  -6.515713e+01
   2.460965e+01   1.903002e+01
   2.918797e+01   1.030936e+01
  -1.848623e+01  -1.122217e+00
   6.457863e+00  -3.486802e+01
   2.321367e+01  -2.009465e+01
   3.950298e+01   6.148673e+01
   1.275703e+01   7.843459e+01
  -3.640220e+00  -2.370596e+00
  -4.299877e+01   1.433339e+01
  -3.050887e+00  -5.520912e+01
  -5.934079e+00  -8.433423e+00
   6.184687e+01   1.118570e+01
   3.050937e+01   3.006038e+01
   2.744928e+01   2.107745e+01
   8.529962e+00  -1.163456e+00
  -5.860869e+01   1.924174e+01
   1.304761e+01   1.658177e+01
  -3.701621e+01  -3.278463e+01
  -4.452219e+01  -1.155361e+01
  -3.403516e+01  -1.551789e+01
   3.161725e+00  -7.168203e+01
   8.550620e+01  -3.898954e+01
   9.768521e+01  -2.271703e+01
   5.080746e+01   4.927691e+00
   5.086768e+01   1.031762e+02
  -2.155236e+01   4.821939e+01
  -5.695490e+01   5.816348e+01
  -5.976129e+01  -2.030725e+01
   2.376449e+01   2.033457e+01
   4.165374e+01  -1.372160e+01
   3.575441e+01   2.651335e+01
  -3.247951e+01   2.211984e+01
  -1.471894e+01  -2.020802e+01
   4.818883e+01  -2.789911e+01
   2.115827e+01   1.083283e+01
   3.012368e+01   6.992056e+01
  -1.210019e+01   7.979700e+01
  -5.586580e+01  -2.670209e+01
  -1.267222e+01  -4.852206e+01
  -3.700648e+01  -8.273474e+01
   3.447645e+01  -2.551485e+01
   3.230341e+01   2.040540e+01
   3.040878e+01   1.058951e+01
  -6.344911e+00   3.313794e+01
   3.246656e+00   6.059837e-01
  -6.209076e+00  -2.550829e+00
   3.215384e+01  -1.072764e+01
  -3.280251e+01  -4.580432e+00
  -6.300094e+01   3.280631e+00
  -6.518323e+01  -7.066403e+00
  -3.357470e+01  -2.260518e+01
  -1.784008e+01  -8.371245e+01
   2.781989e+01  -7.873174e+01
   2.640896e+01  -6.617915e+01
   2.260824e+01   1.260982e+01
   4.347649e+01   4.147765e+00
   1.796567e+01   3.205829e+01
   8.300533e+00  -1.920452e+01
   6.877793e+01  -9.362941e+00
   1.369370e+01   2.381511e+01
  -2.849143e+01   2.116420e+01
   5.757303e+00   5.180417e+00
  -2.375128e+01  -2.852591e+01
  -1.497305e+00  -5.194612e+01
   1.424304e+01  -1.161131e+01
   9.161489e+00  -1.709242e+00
   3.888155e+01   1.355884e+01
  -6.079607e+01  -1.481102e+01
  -5.948697e+00  -5.260994e+01
   1.154544e+00  -1.587757e+01
   3.360634e+01  -3.322937e+00
   1.580969e+01   2.626114e+01
  -1.517357e+01   3.668541e+01
  -2.457181e+01   4.054422e-01
  -1.429048e+01   7.593180e+00
  -4.100633e+00  -2.078068e+01
   4.577969e+01  -1.730397e+01
  -4.789928e+01  -3.930155e+00
  -5.067125e+01  -8.560665e+00
  -3.386395e+01   4.249808e+00
   1.725910e+01   2.405441e+01
   1.575304e+01  -2.665555e+01
