
 $NMID
 id='ANONYMOUS ', fmtdat='(2E16.6)'
 volume=1.0
 tramp=1.0
 $END
  -3.097836e+03  -3.385185e+02
  -1.965619e+03  -1.503015e+03
  -2.656628e+02  -1.708054e+03
   8.592567e+02  -1.343320e+03
   8.769793e+02  -5.800250e+02
   2.050353e+02   5.757942e+01
  -3.084431e+02  -1.547956e+01
  -4.589211e+01  -4.219380e+02
   2.804018e+02  -4.600845e+02
   5.156901e+02  -9.026478e+01
   5.049860e+02   3.684971e+02
   9.655266e+01   5.609662e+02
  -2.279619e+02   2.001364e+02
  -2.598419e+02  -3.343806e+02
   6.225494e+01  -5.194815e+02
   3.520077e+02  -8.848582e+01
   3.036669e+02   3.737613e+02
  -5.723088e+01   5.937310e+02
  -4.404408e+02   3.227639e+02
  -4.088746e+02  -1.774459e+02
  -1.452799e+02  -3.539797e+02
   1.180258e+02  -2.040945e+02
   5.934224e+01  -1.786467e+02
  -1.577895e+02  -1.700549e+02
  -2.023271e+02  -3.150833e+02
   5.949100e+01  -3.258329e+02
   3.952740e+02  -4.857834e+01
   5.474667e+02   2.183041e+02
   2.110869e+02   2.131884e+02
  -2.725792e+02   1.538849e+02
  -4.242174e+02  -6.655240e+01
  -1.553297e+02  -3.265943e+02
   2.311294e+02  -2.850316e+02
   4.508898e+02  -1.173713e+02
   3.138237e+02   1.586811e+02
   7.299728e+01   3.106441e+02
   1.257508e+01   2.133616e+02
   1.127438e+02  -3.353396e+01
   2.115084e+02  -4.661760e+01
   1.549042e+02   1.630770e+02
   3.781570e-02   4.552329e+02
  -2.047873e+02   3.934837e+02
  -2.220143e+02   6.560374e+01
  -5.853348e+01  -2.095430e+02
   7.329431e+01  -5.701997e+01
   8.770474e+01   2.516930e+02
  -1.456396e+02   3.258581e+02
  -4.155220e+02   6.557097e+01
  -4.621604e+02  -3.078581e+02
  -1.700675e+02  -4.406184e+02
   2.487465e+02  -2.679333e+02
   4.710896e+02  -2.937229e+00
   3.141051e+02   1.480130e+02
  -2.197799e+01   1.866484e+02
  -1.992106e+02   1.087208e+02
  -1.913481e+02   5.595704e+01
  -3.763486e+01  -1.124470e+01
   2.651602e+01   1.275082e+01
  -9.503408e+01  -3.197942e+01
  -2.227290e+02  -1.620775e+01
  -8.729764e+01  -1.111143e+02
   1.449658e+02  -1.836892e+02
   2.822227e+02  -1.028873e+02
   2.027979e+02   1.397140e+02
  -8.100026e+01   2.843962e+02
  -3.245946e+02   3.230420e+02
  -3.453160e+02   9.766892e+01
  -2.292401e+02  -2.534502e+02
  -6.625557e+01  -3.824875e+02
   7.291114e+01  -3.165643e+02
   2.191509e+01  -2.065265e+02
   5.824494e+01  -1.360563e+02
   1.794760e+02  -8.635616e+01
   2.458639e+02  -4.549713e+01
   2.340012e+02   1.264818e+02
   3.126562e+01   2.674164e+02
  -8.481069e+01   1.567132e+02
  -2.225438e+02  -5.358960e+01
  -1.408595e+02  -2.059654e+02
   5.173000e+01  -2.096956e+02
   2.478527e+02  -7.072081e+01
   2.641878e+02   1.024032e+02
   1.573140e+02   2.551863e+02
  -2.266454e+01   2.375657e+02
  -1.072810e+02   1.400102e+02
  -1.668690e+02   1.206152e+02
  -1.733334e+02   4.888884e+01
  -2.928403e+02   2.110470e+01
  -3.892609e+02  -1.196465e+02
  -3.245392e+02  -2.838411e+02
   6.660916e+01  -4.040073e+02
   4.019618e+02  -3.813040e+02
   3.964525e+02  -1.749301e+02
   2.579893e+02   7.648746e+01
   4.587868e+01   2.430159e+02
  -6.454659e+01   2.066297e+02
   2.174566e+01   5.425833e+01
   9.563716e+01  -3.249416e+01
   1.205835e+02   3.451014e+01
  -1.183195e+01   1.219651e+02
  -1.319028e+02   8.894269e+01
  -1.116689e+02  -3.727496e+01
   3.611671e+01  -1.160861e+02
   1.622236e+02   2.622920e+01
   1.153625e+02   2.343708e+02
  -6.233453e+00   3.097268e+02
  -2.510232e+02   1.583944e+02
  -3.437173e+02  -4.958098e+01
  -2.829495e+02  -2.432214e+02
  -3.419717e+01  -2.702805e+02
   1.408331e+02  -1.339263e+02
   1.584743e+02   8.397485e-01
   1.784402e+01  -3.062052e+01
  -8.488942e+01  -5.922544e+01
  -2.626858e+01  -1.259102e+02
   1.366776e+02  -3.562398e+01
   1.668452e+02   5.908248e+01
   2.857227e+01   3.991781e+01
  -9.759326e+01  -1.933748e+01
  -6.655334e+01  -1.048865e+02
   1.587460e+02  -1.047716e+02
   2.732085e+02   3.023965e+01
   2.758190e+02   1.661544e+02
   4.601672e+01   2.762520e+02
  -1.943348e+02   2.398821e+02
  -2.503459e+02   1.101131e+02
  -1.707556e+02  -3.270896e+01
   1.917247e+01  -7.726730e+01
   6.475161e+01  -4.766004e+00
  -2.557414e+01   9.542557e+01
  -2.052330e+02   6.695216e+01
  -1.963598e+02  -7.046465e+01
  -5.458517e+01  -1.942578e+02
   8.242722e+01  -1.221230e+02
   7.321008e+01  -4.985774e+01
   5.292244e+01  -1.885557e+00
  -4.911765e+01  -4.075221e+01
   1.751373e+01  -1.141632e+02
   7.668303e+01  -1.100716e+02
   1.656746e+02   4.481324e-01
   1.698141e+02   1.129308e+02
  -6.948223e+00   1.967097e+02
  -1.481482e+02   1.232941e+02
  -1.867259e+02   2.605231e+01
  -4.834114e+01  -6.819555e+01
   5.832716e+01  -1.086464e+02
   4.269405e+01  -7.122951e+01
   4.241725e+01  -5.968382e+00
  -4.726383e+01  -1.643181e+01
   1.041288e+01  -4.704082e+01
   1.034263e+02   4.759514e+01
   8.687896e+01   1.242792e+02
   2.925829e+01   1.737160e+02
  -1.619106e+02   1.447018e+02
  -2.589936e+02  -4.500470e+01
  -1.854778e+02  -1.524333e+02
  -1.437584e+01  -1.982822e+02
   8.443487e+01  -1.671771e+02
   1.352111e+02  -5.314409e+01
   6.267097e+01   4.472106e+01
   7.881870e+01   2.427560e+01
   6.318365e+01  -1.673405e+01
   1.217939e+02  -1.300070e+01
   3.206868e+01   3.525229e+01
  -1.049660e+01   1.094772e+02
  -1.542311e+02   4.590941e+01
  -1.029057e+02  -4.011381e+01
  -1.524906e+01  -1.014942e+02
   1.684660e+02  -1.053512e+02
   2.312530e+02   8.741697e+01
   5.013391e+01   2.376247e+02
  -1.835784e+02   1.848539e+02
  -2.571687e+02   6.390768e+01
  -2.755052e+02  -7.290014e+01
  -6.145292e+01  -1.399766e+02
   7.399655e+01  -1.196800e+02
   1.050246e+02  -6.281859e+01
   5.752250e+01  -2.138787e+01
   2.271821e+01  -5.269790e+01
   8.575863e+01  -7.203270e+01
   1.077824e+02   2.394365e+01
   1.497274e+02   1.551664e+02
   5.015102e+01   1.917082e+02
  -9.035883e+01   1.382241e+02
  -1.680613e+02   4.462856e+01
  -1.479545e+02  -1.358052e+02
  -3.412920e+01  -1.257275e+02
   3.916423e+01  -8.700832e+01
   1.059845e+02   1.613215e+01
  -2.729033e+01   9.003222e+01
   1.708581e+00   7.561608e+01
   5.020706e+01   2.223844e+01
   5.600948e+01   3.293311e+01
   1.741841e+01   1.756299e-01
  -4.572426e+01   4.392542e+01
  -1.605571e+02  -2.108086e+01
  -1.394541e+02  -9.435604e+01
  -2.532716e+01  -6.972271e+01
   9.941801e+01  -4.672708e+01
   1.285806e+02  -1.407929e+01
   2.452797e+01   3.129986e+01
  -8.814612e+01   7.021643e+01
  -5.771426e+01   2.839375e+01
   1.467767e+01  -6.212688e+01
   3.096381e+01  -7.537317e+01
   9.431545e+01  -1.216092e+01
   2.483525e+01   4.363558e+01
   4.209770e+01   6.771153e+01
   5.830837e+01  -1.036841e+01
   5.225625e+01   1.064555e+01
   4.895863e+01   1.468407e+02
   4.553948e+01   1.724541e+02
  -1.154754e+02   1.677608e+02
  -1.579795e+02   2.898718e+01
  -1.060248e+02  -6.121173e+01
   2.602764e+01  -1.178491e+02
   1.001073e+02  -6.686430e+01
   7.579222e+01  -6.110955e+00
  -3.512117e+01   1.492381e+01
  -1.124197e+02  -9.820730e+01
  -5.875808e+01  -1.384851e+02
   5.178860e+01  -1.152369e+02
   1.251877e+02  -3.297814e+01
   1.907688e+02   4.056167e+01
   1.379449e+01   1.292798e+02
  -3.013647e+01   9.329887e+01
  -6.846548e+01  -3.679556e+01
   4.328484e+01   3.915919e+00
   8.803125e+01  -7.083988e+00
   5.971000e+01   1.189586e+02
  -1.039975e+02   1.941400e+02
  -1.517391e+02   8.284297e+01
  -1.481553e+02  -5.771129e+01
  -1.579232e+01  -1.480017e+02
   9.789097e+01  -1.322760e+02
   1.042122e+02   9.937389e+00
   4.538493e+01   1.439971e+02
   3.160904e+00   9.577525e+01
  -5.099345e+01   3.298389e+01
  -1.554061e+01   6.571104e+00
  -2.061795e+01  -2.622620e+00
   1.223486e+01   9.974124e+00
  -4.638936e+01  -3.571275e+01
  -4.618466e+01  -1.096524e+02
  -4.243701e+01  -8.241408e+01
   7.745656e+01  -6.386591e+01
   1.123194e+02   4.639167e+01
   1.134803e+02   8.362149e+01
   4.789987e+01   8.182362e+01
  -7.045011e+01   1.389499e+01
  -9.719052e+01   5.413154e+00
  -6.225834e+01  -7.242986e-01
  -4.086893e+01  -4.404280e+01
   1.551271e+01  -2.550758e+01
   2.853721e+01  -3.769512e+01
   4.741274e+00  -7.591416e+00
   1.440200e+01   1.419987e+01
   1.027669e+02  -1.091753e+01
   3.817352e+01   4.797384e+01
  -1.365292e+02   8.249415e+01
  -1.916261e+02   5.578303e+01
  -1.626980e+02  -4.404630e+01
  -5.065205e+00  -1.546486e+02
   5.991848e+01  -1.499289e+02
   1.407702e+02  -6.881865e+01
   7.183973e+01   3.049726e+01
   2.147047e+01   4.180903e+01
  -3.887732e+01  -1.103046e+01
   2.931899e+01   3.382641e+01
   2.877693e+01   5.613455e+01
   2.965327e+01   4.891538e+01
  -4.517499e+01   8.524016e+01
  -8.950278e+01  -6.100834e+01
  -6.686205e+01  -8.239816e+01
  -1.250343e+01  -1.390591e+02
   6.195998e+01  -1.839025e+01
   9.905926e+01   4.591287e+01
   5.143171e+01   1.187911e+02
  -3.086708e+01   1.063451e+02
  -1.161312e+02   2.032867e+01
  -3.152269e+01  -7.711531e+01
   4.741903e+01  -6.111376e+01
   2.987020e+00  -4.642547e+01
  -9.304115e+00   2.653694e+01
  -3.975879e+01   2.231309e+01
  -4.007693e+01   1.941398e+01
   8.515509e+01  -2.811360e+01
   1.207483e+02  -3.922623e+01
   7.230986e+01   3.191667e+01
   1.652879e+01   5.324809e+01
  -7.800331e+01   8.606838e+01
  -1.982343e+01   7.832683e+00
  -1.361297e+01  -3.353554e+01
  -1.959692e+01  -2.321142e+01
   2.313006e+01   3.713410e+01
   1.186367e+00   5.326566e+01
  -4.385199e+00   1.703948e+01
   3.699643e+00   1.575402e+00
  -3.094638e+01  -4.451755e+01
  -7.488792e+00  -5.062628e+01
  -4.108068e+01   1.721993e+01
  -2.694988e+01   2.298724e+01
  -2.986747e+01  -4.543692e+01
  -4.215369e+01  -5.981679e+01
   4.232689e+01  -3.792554e+01
   6.780214e+01   3.903019e+01
   2.160423e+01   3.515239e+01
  -7.888247e+01   1.190043e+01
  -7.137975e+01  -1.021988e+01
  -2.476739e+01  -4.356231e+01
   4.489422e+01  -9.513341e+00
   9.231483e+01   3.602204e+01
   7.379265e+01   2.680049e+01
  -2.443502e+01   8.332222e+01
  -4.992174e+01   1.522899e+01
  -2.623040e+01   3.893072e+01
   3.957654e+00   5.716812e+01
   7.457600e+01   2.778329e+01
  -3.497489e+01   1.719364e+01
  -9.882397e+01  -1.639939e+00
