
 $NMID
 id='ANONYMOUS ', fmtdat='(2E16.6)'
 volume=1.0
 tramp=1.0
 $END
   3.555101e+03  -2.283915e+02
   2.334276e+03   1.644731e+03
  -1.026185e+02   2.231359e+03
  -1.555962e+03   1.336068e+03
  -1.141285e+03   6.903677e+01
   8.850669e+01  -4.381976e+02
   4.295168e+02   1.732912e+02
   4.613188e+01   6.895972e+02
  -5.541073e+02   6.888021e+02
  -9.133055e+02  -5.147850e+01
  -4.839851e+02  -7.123516e+02
   4.498539e+01  -8.304159e+02
   4.424861e+02  -1.828820e+02
   2.814099e+02   4.997892e+02
  -1.214650e+02   6.953312e+02
  -5.436803e+02   4.386055e+01
  -3.687825e+02  -6.143915e+02
   1.604256e+02  -7.046650e+02
   5.257037e+02  -2.625573e+02
   4.459318e+02   2.879959e+02
   5.553666e+01   3.344969e+02
  -1.541321e+02   1.981993e+02
  -1.266869e+02   4.743069e+01
   8.398444e+01   7.858235e+00
   2.220145e+02   1.839789e+02
   1.063673e+01   3.972797e+02
  -5.105591e+02   2.008046e+02
  -6.928270e+02  -2.596528e+02
  -2.808338e+02  -5.531295e+02
   4.253632e+02  -2.929993e+02
   5.963669e+02   1.204336e+02
   2.757983e+02   4.390922e+02
  -2.587953e+02   4.009155e+02
  -5.350860e+02   1.354308e+02
  -3.862283e+02  -2.175894e+02
  -1.095198e+02  -4.009252e+02
   9.515866e+01  -2.187005e+02
   5.481686e+01   1.486737e+02
  -1.652171e+02   2.484127e+02
  -3.143436e+02  -8.903102e+01
  -1.213861e+02  -5.161509e+02
   2.905474e+02  -5.161566e+02
   4.536864e+02   4.259330e+01
   1.997638e+02   4.103290e+02
  -1.635844e+02   1.923732e+02
  -1.812322e+02  -2.917281e+02
   1.115898e+02  -4.233791e+02
   4.642190e+02  -4.868795e+01
   4.840501e+02   4.080416e+02
   1.210493e+02   5.183370e+02
  -3.233858e+02   3.098279e+02
  -5.733148e+02  -5.634666e+01
  -3.388157e+02  -2.850084e+02
   8.372842e+01  -3.157100e+02
   3.489993e+02  -1.102979e+02
   2.405462e+02   9.882535e+01
   1.817022e+01   8.033437e+01
  -9.180837e+01  -1.362869e+01
   1.286928e+02  -8.387165e+01
   2.403652e+02   2.124683e+01
   1.604015e+02   1.906752e+02
  -1.883989e+02   2.437018e+02
  -3.672113e+02   7.904784e+01
  -2.468013e+02  -9.216641e+01
   1.896895e+01  -3.155688e+02
   2.730078e+02  -3.998217e+02
   3.492605e+02  -1.566545e+02
   2.736756e+02   1.558052e+02
   8.848971e+01   3.702591e+02
  -1.770829e+01   3.245736e+02
  -5.133694e+01   1.672769e+02
  -1.298159e+01   1.157911e+02
  -1.388414e+02   1.363795e+02
  -2.489808e+02   6.402064e+01
  -2.660141e+02  -1.049652e+02
  -7.064263e+01  -2.620779e+02
   1.249500e+02  -1.712925e+02
   2.016871e+02   4.528906e+01
   1.419491e+02   2.616123e+02
  -2.542349e+01   2.913197e+02
  -2.896086e+02   1.034166e+02
  -3.304679e+02  -1.888742e+02
  -1.692434e+02  -3.521324e+02
   5.560036e+01  -2.957782e+02
   1.340175e+02  -1.794574e+02
   1.575072e+02  -6.241893e+01
   2.010643e+02  -4.498950e+01
   3.292095e+02  -3.013035e+01
   4.097173e+02   1.435268e+02
   2.599844e+02   3.344304e+02
  -4.532027e+01   4.798943e+02
  -4.105826e+02   4.255106e+02
  -4.869014e+02   1.657025e+02
  -3.285217e+02  -9.945061e+01
  -3.185708e+01  -2.718666e+02
   1.383760e+02  -2.411778e+02
   3.023324e+01  -3.894766e+01
  -9.277033e+01   6.304715e+01
  -1.537327e+02  -6.981149e+01
  -2.157202e+01  -1.724502e+02
   1.282947e+02  -1.461531e+02
   1.622885e+02   5.151428e+01
  -1.622999e+01   1.167749e+02
  -1.918278e+02  -5.771845e+00
  -2.070937e+02  -2.254938e+02
   4.920218e+01  -3.516900e+02
   2.838852e+02  -2.510829e+02
   3.813876e+02   7.032481e+01
   2.466591e+02   3.031091e+02
   4.125942e+01   3.220690e+02
  -1.763563e+02   1.343157e+02
  -1.760223e+02  -1.089412e+01
  -1.567455e+01  -5.281175e+01
   5.592562e+01   9.139437e+01
  -2.874720e+01   1.384343e+02
  -1.419939e+02   7.265875e+01
  -2.014403e+02  -7.129465e+01
  -5.372595e+01  -1.087802e+02
   7.791758e+01  -1.637312e+01
   5.187789e+01   6.649668e+01
  -1.372621e+02   1.067488e+02
  -2.829384e+02  -5.257338e+01
  -2.598830e+02  -2.143841e+02
  -6.696707e+01  -2.783974e+02
   1.985509e+02  -2.386036e+02
   3.239945e+02  -1.631112e+02
   1.748641e+02   5.049581e+01
  -3.826099e+01   5.924940e+01
  -5.422173e+01   7.455649e-01
   7.767683e+01  -1.042118e+02
   2.185830e+02  -2.269337e+01
   2.135619e+02   1.055835e+02
   2.953968e+01   2.648826e+02
  -1.073760e+02   1.177908e+02
  -1.206173e+02   2.157991e+01
  -7.196625e+00  -5.795683e+01
   5.205446e+01   4.262873e+01
   8.586304e+01   1.031841e+02
  -1.162880e+02   1.311373e+02
  -1.829780e+02  -2.552882e+00
  -2.300644e+02  -8.866904e+01
   7.674975e+00  -2.131272e+02
   1.908615e+02  -1.435044e+02
   1.932032e+02  -3.606179e+01
   3.572468e+01   1.145073e+02
  -1.223571e+02   1.054049e+02
  -9.501766e+01   1.174369e+01
   4.406761e+01  -3.106767e+01
   4.747405e+01   8.398691e+00
  -1.151633e+01   5.688658e+01
  -1.390840e+02   1.235990e+01
  -1.318332e+02  -8.138499e+01
   1.457438e+01  -2.234838e+02
   2.110857e+02  -1.594074e+02
   2.705525e+02  -6.395033e+00
   2.220130e+02   1.394073e+02
   4.705296e+01   2.764841e+02
  -1.287096e+02   1.871428e+02
  -1.662862e+02   5.611212e+01
  -7.155877e+01  -7.713490e+01
  -1.463332e+01  -2.384346e+01
  -4.935605e+01   2.259567e+01
  -8.907443e+01   6.558788e+01
  -4.498706e+01  -5.262573e+01
   2.433194e+01  -1.406612e+02
   1.746015e+02  -8.773252e+01
   1.124848e+02   3.271564e+01
   1.791988e+01   1.605906e+02
  -1.386642e+02   1.319779e+02
  -2.267053e+02  -5.977840e+01
  -5.929794e+01  -2.235375e+02
   1.268425e+02  -2.512678e+02
   2.906777e+02  -9.855924e+01
   2.634100e+02   1.552234e+02
   1.068342e+02   1.992253e+02
  -5.285970e+01   1.626307e+02
  -9.790724e+01   7.521223e+01
  -5.198137e+01   9.867741e+01
  -7.288361e+01   1.040904e+02
  -1.052713e+02   9.232632e+01
  -1.479552e+02  -1.258121e+01
  -1.699652e+02  -1.679867e+02
  -4.827552e+01  -2.326559e+02
   5.936591e+01  -1.444681e+02
   1.749156e+02  -1.060062e+01
   1.422738e+02   1.131435e+02
   2.006064e+01   2.012873e+02
  -7.586753e+01   7.727092e+01
  -8.068576e+01  -1.119181e+01
  -8.303744e+00  -4.676275e+01
   8.082774e+01  -2.240206e+01
  -4.057464e+01  -3.731326e+01
  -1.167476e+02  -1.316542e+01
  -9.154771e+01  -5.607701e+01
   6.729555e+01  -4.854346e+01
   1.786511e+02  -3.141891e+01
   1.685752e+02   6.594516e+01
  -1.021370e+01   1.225527e+02
  -1.692927e+02   7.631038e+01
  -1.643704e+02   4.560823e-01
  -5.620022e+01  -5.288401e+01
   6.606087e+01  -4.841870e+01
   7.897338e+01   3.929236e+01
   2.239199e+01   2.850905e+01
  -4.867764e+01   2.304836e+01
  -7.715032e+01  -1.936650e+01
  -6.308707e+01  -6.003942e+01
   1.687987e+01  -1.458204e+01
  -3.522726e+01  -1.999124e+01
  -9.421264e+01  -3.688883e+01
  -4.836020e+01  -1.231489e+02
   8.204151e+01  -1.667871e+02
   1.516671e+02  -1.577728e+02
   2.160085e+02  -1.249802e+01
   1.390222e+02   1.295749e+02
  -4.558651e+01   1.742750e+02
  -1.564609e+02   7.427155e+01
  -7.142378e+01  -1.692439e+01
   8.877254e+01  -4.253577e+01
   1.583667e+02   2.737350e+01
   9.973324e+01   1.302500e+02
  -1.488239e+02   6.346329e+01
  -2.027010e+02   4.391478e+01
  -1.322729e+02  -3.862575e+01
   1.580572e+01  -1.093079e+02
   7.434425e+01  -7.084174e+01
   4.597655e+01   5.224827e-01
  -4.036855e+01   2.485494e+01
  -8.078171e+01  -4.268176e+01
  -3.962761e+01  -1.322220e+02
   5.873183e+01  -1.543126e+02
   2.159770e+02  -9.676905e+01
   1.117892e+02   1.007569e+02
   2.983402e+01   2.237090e+02
  -1.266702e+02   1.304573e+02
  -1.393608e+02   2.967925e+01
  -8.036067e+01  -1.086861e+02
  -2.055263e+01  -1.077133e+02
   5.298583e+01  -2.147517e+01
   3.584341e+01   1.954516e+01
   2.640450e+01  -2.055041e+01
  -3.329739e+00  -3.022521e+01
   5.932118e+01   2.902369e+00
   7.977888e+01   1.165229e+02
   2.923826e+01   1.037569e+02
  -6.245049e+01   8.464228e+01
  -1.374169e+02  -4.002365e+01
  -1.190531e+02  -6.463761e+01
  -3.290421e+01  -8.506108e+01
   1.261539e+02  -7.585874e+01
   1.268547e+02  -1.200074e+01
   1.794828e+01   1.162693e+01
   2.230592e+01   5.255811e+01
  -1.808447e+01   4.539267e+01
   1.627716e+01   2.547407e+01
  -2.794169e+01   1.780043e+01
  -8.591951e+01  -7.159128e+00
  -1.002953e+02  -4.206057e+01
  -2.596150e+01  -7.799423e+01
   1.364770e+02  -1.107443e+02
   2.257687e+02  -9.471379e+01
   1.798274e+02   1.025056e+02
   5.114077e+01   1.691591e+02
  -6.396575e+01   1.984120e+02
  -1.503095e+02   1.043185e+02
  -7.676680e+01  -8.783669e+00
  -3.111184e+01  -1.433758e+01
  -2.260779e+01  -1.037419e+01
  -9.286855e+00  -2.397923e+01
  -6.637948e+01  -7.245825e+01
  -4.310640e+01  -1.195006e+02
   6.272402e+01  -7.683082e+01
   1.011147e+02   1.730725e+01
   7.698634e+01   1.181910e+02
   2.553504e+01   1.541486e+02
  -1.182612e+02   9.744758e+01
  -9.418988e+01  -6.747590e+01
  -5.797061e+01  -1.215808e+02
   1.094111e+02  -4.944506e+01
   1.362703e+02  -1.377179e+01
   6.767811e+01   4.610878e+01
  -2.809865e+01   4.358281e+01
  -7.418071e+01   5.045879e+01
   9.020414e+01   3.816754e+00
   1.046687e+02  -2.622819e+01
   2.515470e+01   2.366400e+01
  -1.050296e+02   7.691692e+01
  -8.692742e+01   3.511657e+01
  -1.042732e+02  -1.047306e+01
   3.244570e+00  -1.324412e+02
   2.701048e+01  -5.487315e+01
   1.065679e+02  -1.423721e+01
   6.227583e+01   6.303048e+01
  -2.260787e+01   4.663766e+01
  -6.023174e+01   1.116739e+01
  -3.864916e+01  -4.582776e+01
   1.276848e+01  -6.436558e+01
   2.676561e+01  -4.003350e+01
   5.230179e+01   2.600335e+01
   1.744304e+01   3.625526e+01
  -3.561280e+01  -1.178421e+01
   1.689249e+01  -8.726824e+00
  -1.810224e+01   5.643596e+01
  -2.450740e+01   6.594923e+01
  -2.281299e+01   1.944924e+01
  -4.337685e+01  -2.100718e+00
   7.320652e+00  -3.328290e+01
   2.890246e+01  -2.303516e+01
   2.910171e+01   4.622463e+01
  -2.172355e+01   6.507623e+01
  -7.701178e+01   8.107302e+01
  -1.188255e+02  -2.644932e+01
  -6.747048e+01  -2.093856e+01
  -2.235247e+01  -6.672870e+01
   5.668267e+01  -5.930675e+00
   4.314745e+01  -6.668741e+00
  -4.785778e+01   2.049806e-01
  -7.919023e+00  -2.717891e+01
   3.068526e+01  -2.453323e+01
   6.089279e+01   2.791725e+00
