
 $NMID
 id='ANONYMOUS ', fmtdat='(2E16.6)'
 volume=1.0
 tramp=1.0
 $END
  -1.639552e+03  -8.148037e+01
  -1.284292e+03  -8.021220e+02
  -2.086535e+02  -1.097702e+03
   6.694915e+02  -8.626758e+02
   6.205557e+02  -3.147037e+02
   2.157455e+02   8.085829e+01
  -1.129161e+02   5.011230e+01
  -3.491668e+01  -1.929942e+02
   1.917365e+02  -3.682008e+02
   3.909473e+02  -1.201014e+02
   3.383814e+02   3.036371e+02
   8.119052e+01   4.144340e+02
  -1.178110e+02   1.098324e+02
  -1.748445e+02  -1.747676e+02
   3.774873e+01  -2.974291e+02
   2.444522e+02  -3.544070e+01
   2.282922e+02   2.563259e+02
   1.016849e+01   4.167602e+02
  -2.139557e+02   2.337469e+02
  -2.292856e+02  -5.140339e+01
  -1.151214e+02  -1.980023e+02
   4.466824e+01  -1.678858e+02
   1.115425e+01  -6.648567e+01
  -7.083217e+01  -1.412900e+02
  -1.269340e+02  -1.950705e+02
   1.331427e+01  -1.655872e+02
   2.392325e+02  -8.346948e+01
   3.031096e+02   1.592322e+02
   1.648859e+01   1.378901e+02
  -1.974916e+02   5.717797e+01
  -2.582519e+02  -1.058492e+02
  -1.081283e+02  -2.165386e+02
   1.484451e+02  -2.544762e+02
   2.751118e+02  -1.111289e+02
   2.348059e+02   6.150131e+01
   9.124154e+01   1.968514e+02
   5.482637e+01   1.230398e+02
   9.639702e+01   2.852783e+01
   8.282879e+01  -1.410148e+01
   5.922232e+01   1.140167e+02
  -1.766987e+01   2.507065e+02
  -1.113536e+02   2.312710e+02
  -1.053333e+02   2.365384e+01
  -5.392247e+01  -9.492164e+01
   7.309440e+01  -4.687714e+00
   2.404151e+01   1.640232e+02
  -7.998016e+01   1.924331e+02
  -2.976298e+02  -2.725160e+01
  -2.748831e+02  -2.457908e+02
  -2.594621e+01  -2.907989e+02
   2.036686e+02  -1.317614e+02
   2.841105e+02   4.586437e+01
   2.142714e+02   1.458415e+02
  -6.309412e+00   1.591623e+02
  -1.420663e+02   9.280530e+01
  -1.376407e+02   3.125402e+01
  -6.545156e+01   1.824302e+01
   4.869459e+00   5.541032e+01
  -7.134504e+01   4.695788e+01
  -1.147957e+02   1.376261e+01
  -9.037382e+01  -9.193990e+01
   5.271761e+01  -1.805600e+02
   1.830177e+02  -1.092018e+02
   2.076152e+02   1.033469e+02
   2.734471e+01   2.957541e+02
  -2.052116e+02   2.627962e+02
  -2.642859e+02   8.297018e+01
  -1.551969e+02  -8.207601e+01
  -3.778783e+01  -1.985519e+02
   2.931779e+01  -1.664132e+02
   1.088645e+01  -5.583721e+01
   3.107529e+01  -5.466671e+01
   6.122801e+01  -8.037832e+01
   1.233427e+02  -2.032158e+01
   1.287048e+02   6.072199e+01
   5.482378e+01   1.389262e+02
  -5.630307e+01   1.067591e+02
  -1.269343e+02  -1.625635e+01
  -7.564504e+01  -1.268472e+02
  -3.995187e+00  -1.163949e+02
   1.358526e+02  -4.067644e+01
   1.839375e+02   1.076344e+02
   8.991073e+01   1.575495e+02
  -1.526389e+01   1.293881e+02
  -4.054226e+01   1.509008e+02
  -9.666857e+01   1.160029e+02
  -1.385412e+02   6.180371e+01
  -2.398342e+02   2.285948e+01
  -2.750688e+02  -8.977062e+01
  -2.274366e+02  -1.938800e+02
  -1.374180e+00  -3.055304e+02
   2.562724e+02  -2.398429e+02
   2.834713e+02  -1.034418e+02
   2.027445e+02   3.292754e+01
   9.569992e+00   1.421289e+02
  -4.810566e+01   9.388773e+01
  -2.095979e+01   2.996600e+00
   4.336867e+01  -3.355840e+01
   3.585392e+01  -1.819877e+00
   7.358469e+00   1.134473e+02
  -6.819721e+01   6.631209e+01
  -4.938656e+01  -3.127084e+01
   5.647187e+00  -8.573073e+01
   1.006351e+02   1.653580e-01
   8.435789e+01   1.719007e+02
  -2.602573e+00   2.538536e+02
  -1.527795e+02   1.280065e+02
  -2.484483e+02  -3.707096e+01
  -2.052166e+02  -1.827226e+02
  -2.476481e+01  -1.993041e+02
   9.058994e+01  -1.068764e+02
   8.208975e+01  -2.721442e+01
   2.102630e+01  -8.071488e+00
   2.584868e+01  -2.359988e+01
   1.913206e+01  -7.633627e+01
   9.596715e+01  -4.934293e+01
   8.066852e+01   8.027293e-01
   2.304763e+01   3.170749e+01
  -8.996510e+01  -6.152295e+00
  -3.076987e+01  -8.429556e+01
   1.081894e+02  -6.089827e+01
   1.905080e+02   8.592381e+00
   1.618821e+02   8.292861e+01
   3.394719e+01   2.205051e+02
  -1.082945e+02   1.805888e+02
  -1.984920e+02   6.175901e+01
  -9.111046e+01  -2.478231e+01
   1.907278e+01  -4.012311e+01
   7.716752e+01   1.442652e-01
  -1.507647e+01   8.004657e+01
  -9.221620e+01   1.894915e+01
  -8.020314e+01  -6.476362e+01
  -3.914866e+01  -1.138153e+02
   6.393566e+00  -9.809320e+01
   5.726191e+01   2.523799e+00
  -2.738860e+01   8.657942e+01
  -4.336586e+01   7.226751e+00
  -5.487308e+01  -7.945760e+01
   5.679841e+01  -8.366954e+01
   1.295461e+02  -4.879074e-01
   1.415655e+02   6.706359e+01
   7.042384e-01   6.722360e+01
  -1.198657e+02   4.539498e+01
  -9.569090e+01  -3.055223e+01
   1.412432e+01  -3.653512e+01
   4.874504e+01  -7.903329e+01
   2.164109e+01  -2.201371e+01
  -2.930141e+01  -2.716725e+01
  -7.530706e+00  -1.863907e+00
   5.402012e+01  -5.286850e+01
   9.107525e+01   2.824383e+01
   5.829639e+01   8.396832e+01
   7.293165e+00   1.239442e+02
  -9.736597e+01   6.891687e+01
  -1.403730e+02  -3.953697e+01
  -8.266208e+01  -1.270933e+02
  -2.658418e+01  -1.075157e+02
   8.715152e+01  -7.821772e+01
   6.459827e+01  -9.944708e+00
   5.736512e+01   3.049291e+01
   3.263191e+01  -1.450349e+00
   3.835570e+01  -1.219324e+01
   4.522648e+01  -1.136096e+01
   3.715405e+01   7.661690e+01
  -7.305147e+00   8.114585e+01
  -9.248333e+01   5.660093e+01
  -1.116483e+02  -3.713064e+01
  -5.767561e+00  -9.389456e+01
   1.440462e+02  -6.396718e+01
   1.545953e+02   3.253600e+01
   6.495640e+01   1.339895e+02
  -9.057924e+01   1.530824e+02
  -1.930121e+02   5.321817e+01
  -1.198562e+02  -6.053554e+01
  -1.741066e+01  -9.247885e+01
   6.704404e+01  -1.121048e+02
   4.390193e+01  -2.563597e+01
   1.968647e+01  -5.728635e+01
   1.696791e+01  -6.412884e+01
   5.032426e+01  -1.074272e+02
   6.458158e+01  -9.507012e+00
   1.120346e+02   1.032240e+02
   4.692877e+01   1.365471e+02
  -5.574867e+01   1.240331e+02
  -1.338336e+02  -1.693858e+01
  -7.609740e+01  -7.660334e+01
  -3.840197e+01  -1.221125e+02
   3.812931e+01  -3.689056e+01
   1.243016e+01  -9.049921e+00
  -1.708431e+01   1.081530e+01
  -1.444782e+01  -7.068922e+00
   2.158690e+01  -6.076898e+00
   5.073251e+01   1.640714e+00
   3.903491e+01   2.291089e+01
  -6.414268e+01   5.710113e+01
  -1.069933e+02   6.464033e+00
  -6.911471e+01  -5.894563e+01
   8.362890e+00  -7.454386e+01
   1.064972e+02  -1.853376e+01
   1.159064e+02   2.534527e+01
   5.143689e+01   1.427543e+01
  -5.966835e+01   3.444150e+01
  -4.105392e+01  -2.077857e+01
  -1.517281e+01  -1.761885e+01
   1.441530e+01  -4.608094e+01
   6.170712e+01  -1.844267e+01
   3.525021e+01   2.528755e+01
   4.191098e+01   2.065546e+01
   3.352461e+01  -2.625104e+01
   6.765404e+01   1.344546e+01
   3.645851e+01   4.777240e+01
  -3.043322e+01   6.959442e+01
  -8.077199e+01   1.168678e+02
  -1.130770e+02   2.725424e+01
  -1.009819e+02  -6.727397e+01
  -2.256977e+01  -7.350833e+01
   7.555025e+01  -7.941562e+00
  -2.736245e+01   1.887247e+01
  -6.420751e+01   3.556121e+01
  -1.029930e+02  -1.382700e+01
  -3.986172e+01  -7.895265e+01
   6.617300e+01  -4.719397e+01
   1.255988e+02  -4.090067e+01
   1.121196e+02   4.067621e+01
   2.201730e+01   5.117279e+01
  -5.579429e+01   1.973289e+01
  -4.630984e+01  -2.509421e+01
   3.622805e+01  -3.994221e+01
   5.536074e+01   2.410750e+00
  -5.031683e-01   5.203699e+01
  -6.520611e+01   7.826650e+01
  -1.329004e+02   2.039354e+01
  -1.103403e+02  -4.661936e+01
  -4.185229e+01  -1.257761e+02
   8.056632e+01  -9.747134e+01
   6.122218e+01   1.439882e+01
   5.759741e+01   8.270993e+01
  -9.805993e+00   7.584940e+01
  -2.419869e+01  -9.909143e+00
  -2.029689e+01  -2.928808e+01
  -5.334206e+00   1.198796e+01
   5.311983e+00   2.347288e+01
  -2.439315e+01  -1.341170e+01
  -3.433249e+01  -6.514076e+01
  -7.446508e+00  -4.398505e+01
   2.760257e+01  -5.283071e+01
   3.855709e+01   1.860100e+01
   3.643535e+01   1.511268e+01
  -4.039578e+01  -7.127259e+00
  -5.119684e+01  -5.691357e+00
  -4.229021e+01   4.544043e+00
  -4.798709e-01  -3.339810e+01
   6.693345e+01  -7.333139e+01
   3.681463e+01  -2.122775e+01
   6.583429e+00   2.099993e+01
   2.787909e+01   1.746263e+01
   7.361648e+01  -2.267872e+01
   5.524178e+01   5.435247e-01
   2.322231e+01  -1.196994e+00
  -5.309341e+01   6.967887e+01
  -1.604875e+02   3.579591e+01
  -5.711735e+01  -1.036726e+01
  -2.151044e+00  -9.329338e+01
   3.726399e+01  -8.134711e+01
   2.755944e+01  -6.228163e+01
   2.583083e+01   2.645659e+01
  -6.920358e+00   1.342791e+01
   2.024844e+01   2.192933e+01
   3.672919e+01   1.763676e+00
   8.578311e+00   1.615475e+01
  -5.074002e+00   5.509997e+01
   1.684576e+01   7.210912e+01
  -3.415267e+01  -9.768577e+00
  -3.267606e+01  -7.334620e+01
  -7.434255e+00  -4.592709e+01
   1.625885e-01   7.616513e+00
   4.661149e+01   1.392400e+01
   3.395194e+01   8.020951e+01
  -3.909360e+01   4.199559e+01
  -6.149909e+01   3.314236e+00
  -3.856792e+01  -3.840971e+01
   4.664841e+01  -8.790059e+00
   4.335392e+01  -5.941952e+00
  -1.617130e+01   9.263728e+00
  -7.695773e+01  -6.272499e-01
  -4.064159e+01  -1.126523e+01
   7.312055e+01  -7.085761e+01
   1.219801e+02  -5.819358e+01
   6.793613e+01   5.524326e+00
   9.511637e+00   9.029635e+01
  -3.878136e+01   9.470643e+01
  -3.910196e+01   2.354373e+01
  -2.287730e+01  -4.152517e+01
  -1.506539e+01  -2.012148e+01
   1.630598e+00  -3.477584e+01
   1.358736e+01   5.006665e+01
   7.671042e+00  -2.323511e+00
  -2.557581e+01  -9.002264e+00
  -3.247244e+01  -1.914725e+01
  -5.067908e+01  -4.314937e+00
   1.042272e+00   2.852220e+00
  -8.590693e+00   9.633927e+00
   2.388905e+00   1.031000e+01
  -2.348957e+01  -5.667918e+01
   2.478108e+01  -1.829037e+00
   1.876364e+01   3.432755e+01
   2.548376e+01   2.551009e+01
   8.453685e+00  -3.254654e+01
  -1.933468e+00  -5.346072e+01
  -3.694603e+01  -4.016978e+01
   5.917822e+01  -1.547266e+01
   1.291009e+02   1.958211e+01
   3.971358e+01   4.075521e+01
  -3.516299e+01   5.580107e+01
  -4.180856e+01   4.199689e+00
  -3.488969e+01   6.156238e+00
   4.126341e+01  -1.061720e+01
   5.996893e+00  -5.114995e+00
  -5.133171e+01   2.495327e+01
  -6.983687e+01   4.803795e+01
