
 $NMID
 id='ANONYMOUS ', fmtdat='(2E16.6)'
 volume=1.0
 tramp=1.0
 $END
   3.889717e+03  -8.434526e+01
   2.492176e+03   2.438144e+03
  -4.494725e+02   2.793777e+03
  -1.986570e+03   1.000675e+03
  -9.903534e+02  -4.939291e+02
   6.404670e+02  -5.032455e+02
   8.614280e+02   3.777649e+02
   2.048003e+01   1.094563e+03
  -7.324338e+02   8.590129e+02
  -9.235194e+02  -1.949825e+01
  -4.718013e+02  -7.768729e+02
   1.753332e+02  -9.124920e+02
   6.051936e+02  -1.929660e+02
   4.810369e+02   6.995444e+02
  -2.187106e+02   7.034925e+02
  -6.628302e+02   4.564900e+01
  -2.635043e+02  -7.471147e+02
   2.969583e+02  -7.030355e+02
   6.281052e+02  -1.347149e+02
   4.805345e+02   2.814781e+02
   1.846554e+01   4.083570e+02
  -1.949904e+02   2.574607e+02
  -2.027277e+02   2.696353e+01
   1.071507e+02  -5.450346e+01
   3.868849e+02   1.463393e+02
   2.160209e+02   4.410845e+02
  -4.215259e+02   4.255620e+02
  -8.835449e+02   2.592666e+01
  -4.170933e+02  -5.492705e+02
   3.752366e+02  -4.387735e+02
   6.870506e+02   8.570537e+01
   3.203095e+02   4.670378e+02
  -2.886120e+02   5.621603e+02
  -5.226931e+02   1.880842e+02
  -4.053606e+02  -2.082971e+02
  -6.821239e+01  -4.633332e+02
   1.676874e+02  -3.381924e+02
   1.956601e+02   1.289159e+02
  -8.413548e+01   3.865001e+02
  -4.005325e+02   2.995238e+00
  -3.103165e+02  -6.557459e+02
   2.851412e+02  -6.781504e+02
   5.728791e+02   1.434958e+01
   2.779778e+02   5.886378e+02
  -2.582112e+02   3.507906e+02
  -4.103383e+02  -3.111207e+02
   6.967301e+01  -5.761618e+02
   5.482017e+02  -1.589022e+02
   5.760772e+02   3.697817e+02
   1.413543e+02   5.831128e+02
  -3.584394e+02   3.235691e+02
  -5.822797e+02  -4.780813e+01
  -3.482088e+02  -3.512660e+02
   1.268727e+02  -3.497217e+02
   4.017934e+02  -7.335635e+01
   2.319427e+02   1.794567e+02
  -7.988080e+01   1.168013e+02
  -1.364245e+02  -1.221294e+02
   1.671166e+02  -1.734203e+02
   2.921633e+02   5.277743e+01
   1.187569e+02   2.664165e+02
  -1.686822e+02   2.185925e+02
  -2.978767e+02   5.155979e+01
  -1.815933e+02  -7.887040e+01
   1.400021e+00  -2.262595e+02
   2.263806e+02  -3.085997e+02
   3.542842e+02  -1.939189e+02
   2.879693e+02   1.548542e+02
   6.402196e+01   4.339507e+02
  -1.305395e+02   3.779547e+02
  -1.104722e+02   5.603284e+01
  -2.023424e+01   6.953300e+00
  -2.133876e+01   1.288323e+02
  -2.026519e+02   1.533896e+02
  -2.869630e+02  -3.468310e+01
  -1.395140e+02  -2.728427e+02
   6.060748e+01  -2.037261e+02
   2.103009e+02   1.938917e+01
   1.958244e+02   2.060211e+02
   2.331126e+01   2.950323e+02
  -2.250617e+02   1.401668e+02
  -3.336132e+02  -1.289511e+02
  -1.823182e+02  -3.322229e+02
   1.039681e+02  -3.148519e+02
   2.075387e+02  -8.912983e+01
   1.211588e+02   2.678964e+01
   3.762441e+01  -8.968512e+00
   1.810682e+02  -5.937308e+01
   3.541552e+02   7.681265e+01
   3.235084e+02   2.770838e+02
   2.774480e+00   4.142292e+02
  -3.276595e+02   4.027097e+02
  -5.092526e+02   1.875998e+02
  -3.270556e+02  -8.113332e+01
  -7.088103e+01  -2.882845e+02
   9.382205e+01  -2.577909e+02
   9.588339e+01  -8.553888e+01
  -4.640133e+01   7.975830e+01
  -1.890935e+02   2.695541e+01
  -4.798052e+01  -1.796408e+02
   1.652344e+02  -1.472913e+02
   1.890965e+02   3.497004e+01
  -8.008285e+00   2.106273e+02
  -2.115293e+02   5.896164e+01
  -1.647233e+02  -2.045913e+02
   2.984389e+01  -3.329886e+02
   1.763311e+02  -2.016408e+02
   3.282209e+02   2.949884e+01
   2.562723e+02   2.132868e+02
   6.445306e+01   2.801440e+02
  -1.228455e+02   1.336111e+02
  -1.825291e+02  -4.953181e+00
  -4.451865e+01  -2.817798e+01
   5.683857e+01   1.236099e+01
   3.594547e+01   1.483776e+02
  -1.052780e+02   1.403246e+02
  -1.426244e+02   3.007313e+01
  -4.081176e+01  -6.206117e+01
   5.094617e+01  -2.816311e+01
   6.595938e+01   8.871533e+01
  -1.055630e+02   1.099416e+02
  -2.572641e+02   5.971917e+01
  -2.607460e+02  -8.009004e+01
  -3.581002e+01  -1.625955e+02
   1.737451e+02  -2.752803e+02
   2.570123e+02  -1.506107e+02
   1.800106e+02   4.263352e+01
  -3.903267e+01   1.274478e+02
  -1.200367e+02   2.001810e+01
  -8.493433e+00  -1.304779e+02
   1.906096e+02  -6.914670e+01
   2.189066e+02   1.026666e+02
   7.604273e+01   1.953338e+02
  -5.769016e+01   1.198652e+02
  -1.512564e+02  -1.193894e+00
  -9.144669e+01  -4.594413e+01
   4.278856e+00  -2.004735e+01
   4.285451e+01   9.089607e+01
  -9.749260e+01   1.159813e+02
  -1.930151e+02   4.087012e+01
  -1.949843e+02  -1.085916e+02
  -2.027205e+01  -2.028110e+02
   1.838142e+02  -1.897171e+02
   1.856723e+02  -5.114134e+01
   6.014747e+01   1.346818e+02
  -8.650714e+01   1.315607e+02
  -1.069860e+02   1.452031e+01
  -3.437886e-01  -4.197013e+01
   2.704482e+01  -1.380991e+01
  -2.563595e+00   2.869991e+01
  -6.521304e+01  -1.236042e+01
  -7.758696e+01  -6.411683e+01
  -2.116494e+01  -1.075973e+02
   1.240067e+02  -1.402503e+02
   2.169383e+02  -5.085788e+01
   1.884048e+02   8.985425e+01
   7.088750e+01   2.122502e+02
  -5.950693e+01   1.845633e+02
  -9.654721e+01   7.096168e+01
  -4.833901e+01  -5.697729e+01
  -3.749713e+01  -7.007537e+00
  -4.720100e+01   3.704429e+01
  -1.021429e+02  -5.779239e+00
  -8.440562e+01  -7.410111e+00
   6.171449e+00  -9.849402e+01
   1.087400e+02  -1.296709e+01
   8.203095e+01  -3.269754e+01
   3.747862e+01   7.808831e+01
  -1.283662e+02   6.621817e+01
  -2.007782e+02   2.242684e+00
  -9.903016e+01  -1.845691e+02
   9.097817e+01  -2.063391e+02
   2.250753e+02  -8.481373e+01
   2.463906e+02   2.456619e+01
   9.648237e+01   1.630652e+02
  -2.843394e+01   2.065105e+02
  -1.193764e+02   1.114596e+02
  -1.025943e+02   5.453096e+01
  -9.033088e+01   6.023358e+01
  -7.185965e+01   4.018170e+01
  -1.471782e+02  -2.184209e+01
  -1.151840e+02  -1.366330e+02
  -9.502304e+01  -2.021975e+02
   6.600910e+01  -2.116681e+02
   1.582900e+02  -7.003119e+01
   1.295039e+02   9.722882e+01
   2.411647e+01   1.509208e+02
  -1.047969e+02   3.180993e+01
  -4.592585e+01  -2.309042e+00
  -1.957825e+01  -6.840026e+01
   3.353855e+00  -3.647053e+01
   1.106912e+01  -3.604144e+00
  -4.311164e+01  -3.327212e+01
  -7.007163e+01  -9.065073e+01
   3.465234e+01  -6.265442e+01
   1.982661e+02  -3.025285e+01
   1.978335e+02   1.993977e+01
   2.710988e+01   7.319767e+01
  -9.310789e+01   4.055149e+01
  -1.421372e+02   3.519985e+00
  -4.821576e+01  -3.845084e+01
   8.852381e+01  -5.724525e+01
   7.352979e+01  -4.241966e+01
   3.583281e+01   5.159949e+01
  -9.712754e+01   5.697863e+01
  -1.125599e+02   1.726829e+01
  -5.523836e+01  -6.053780e+01
  -2.182277e+01  -5.412590e+01
  -4.794189e+01  -4.858744e+01
  -7.223733e+01  -1.707076e+01
  -7.881764e+01  -5.735201e+01
   1.384826e+01  -1.406092e+02
   1.144864e+02  -1.742545e+02
   1.678748e+02  -5.334643e+01
   1.691000e+02   9.053629e+01
   3.637830e+01   9.695693e+01
  -7.085399e+01   8.033336e+01
  -5.028022e+01  -2.216633e+01
   5.009516e+01  -6.868027e+01
   1.530394e+02   4.384590e+01
   4.938850e+01   1.320139e+02
  -8.600480e+01   5.643988e+01
  -1.945079e+02   3.840437e+01
  -1.524875e+02  -4.385239e+01
  -2.425308e+01  -8.586352e+01
   5.968970e+01  -3.833364e+01
   4.330548e+01   1.387110e+01
  -5.616554e+01   5.741884e+01
  -1.231510e+02  -9.514645e+00
  -9.340191e+01  -1.155230e+02
   5.613748e+01  -1.378144e+02
   1.507058e+02  -7.079685e+01
   1.819658e+02   8.758337e+01
   3.759501e+01   1.913749e+02
  -1.069566e+02   1.539899e+02
  -1.309191e+02  -2.366693e+01
  -5.505636e+01  -1.136946e+02
   3.958878e+00  -1.190921e+02
   3.441544e+01  -3.565107e+01
   8.194822e+01   2.546824e+01
   1.926552e+01   3.535845e+01
  -2.660907e+01  -4.086565e+01
   5.662282e+01  -5.634487e+01
   7.028124e+01  -2.466160e+00
   3.574734e+01   5.599151e+01
  -5.891299e+01   2.756003e+01
  -1.211242e+02  -5.288019e+00
  -1.022679e+02  -3.326378e+01
  -2.731435e+01  -4.684680e+01
   4.714827e+01  -5.265279e+01
   1.063490e+02  -1.589364e+01
   4.347287e+01   1.786313e+01
  -1.101898e+01  -7.299910e+00
   1.511006e+01   3.318579e+01
   1.648513e+00   1.991601e+01
   1.052043e+01  -2.454469e+00
  -5.551810e+01  -3.300267e+00
  -1.222270e+02   4.459477e+01
  -2.025777e+01  -1.111814e+02
   1.276344e+02  -1.450044e+02
   1.954463e+02  -4.068167e+01
   1.923279e+02   7.996728e+01
   2.897939e+01   1.684375e+02
  -7.105766e+01   1.589139e+02
  -1.525629e+02   3.121799e+01
  -1.004764e+02   6.276691e+00
   1.537285e+01  -7.922435e+01
  -6.723249e+00  -1.737300e+01
   7.473609e+00  -4.269364e+01
  -5.206872e+01  -6.156849e+00
  -2.400469e+01  -4.921724e+01
   7.226011e+01  -9.958952e+01
   7.765826e+01  -9.708044e+00
   1.694662e+02   7.612717e+01
   5.365500e+01   1.147523e+02
  -3.026571e+01   1.384688e+01
  -6.915402e+01  -6.345550e+01
  -6.642020e+01  -1.345084e+02
   1.742205e+01  -3.484263e+01
   8.962216e+01   4.278087e+01
   2.079009e+01   5.150034e+01
  -1.455092e+01   6.278237e+01
  -1.879103e+01   1.685426e+01
   1.148170e+01  -2.027692e+01
   2.390197e+01  -4.353199e+01
   9.611506e+00   4.933329e+01
  -3.007105e+01   6.216306e+01
  -1.304926e+02   4.694300e+01
  -9.344633e+01  -5.594431e+01
   2.179645e+01  -8.912002e+01
   4.251679e+01  -9.564653e+01
   4.372861e+01   9.047636e+00
   5.637822e+00   3.416175e+01
  -7.558906e+00   4.432709e+01
  -2.425371e+01  -3.340541e+01
  -4.732813e+01  -5.027395e+01
  -8.911216e+00  -4.256798e+01
   4.425956e+01  -1.128136e+01
   3.897877e+01   2.511176e+01
   2.201969e+01   2.359511e+01
  -2.375444e+01   1.597195e+00
  -8.895208e+00  -2.037311e+00
   1.250852e+01   2.642088e+01
  -3.335293e+01   3.339591e+01
  -3.819349e+01   2.326390e+00
  -8.390483e+00  -6.054347e+01
   3.534565e+01  -6.422232e+01
   7.744453e+01   6.540898e-01
   4.536770e+01   6.304039e+01
   5.522586e+01   5.691613e+01
  -2.716225e+01   4.055128e+01
  -1.141114e+02  -1.701455e+01
  -5.189516e+01  -5.296727e+01
   1.901760e+01  -2.256256e+01
   6.763012e+01  -9.921121e+00
   1.311906e+00   8.727109e+00
  -5.666571e+01   2.328492e+01
  -1.753945e+01  -1.107934e+01
   4.112784e+01  -1.787086e+01
   1.057799e+02  -4.323199e+01
