
 $NMID
 id='ANONYMOUS ', fmtdat='(2E16.6)'
 volume=1.0
 tramp=1.0
 $END
   2.892461e+07   7.512956e+05
   1.806066e+07   1.514796e+07
  -1.669443e+06   1.833146e+07
  -1.285285e+07   1.038438e+07
  -9.521760e+06  -1.975045e+05
   1.080533e+05  -4.849541e+06
   5.413549e+06  -1.599474e+06
   3.422486e+06   4.597195e+06
  -1.806029e+06   6.886622e+06
  -5.158100e+06   2.762116e+06
  -4.334888e+06  -3.602234e+06
  -5.414367e+05  -5.596058e+06
   2.622240e+06  -1.277824e+06
   2.047745e+06   4.418337e+06
  -1.696795e+06   5.180849e+06
  -4.558805e+06   1.781175e+05
  -3.183685e+06  -5.551278e+06
   1.517603e+06  -6.852651e+06
   5.477885e+06  -3.271259e+06
   5.643230e+06   1.605720e+06
   2.607604e+06   4.145843e+06
  -3.891756e+05   3.592251e+06
  -6.572436e+05   1.971502e+06
   1.328729e+06   1.737975e+06
   2.271327e+06   3.221211e+06
  -3.958050e+05   4.276401e+06
  -5.092070e+06   2.781805e+06
  -7.183805e+06  -6.933074e+05
  -4.150513e+06  -3.337264e+06
   1.209372e+06  -3.128535e+06
   3.759554e+06  -7.245841e+05
   1.664835e+06   1.590392e+06
  -2.104513e+06   1.982209e+06
  -3.620018e+06   1.367674e+05
  -2.012831e+06  -2.581941e+06
   5.641962e+05  -3.753324e+06
   1.759293e+06  -1.942213e+06
   1.064304e+06   1.208447e+06
  -2.841751e+05   2.142781e+06
  -6.621049e+05  -3.175258e+05
   4.587136e+05  -2.978256e+06
   1.890418e+06  -2.105292e+06
   1.777536e+06   1.504735e+06
  -3.186726e+05   3.289876e+06
  -2.539073e+06   7.933735e+05
  -2.396836e+06  -3.204758e+06
   5.681651e+05  -4.230368e+06
   4.019822e+06  -1.311415e+06
   4.850671e+06   2.526908e+06
   2.080201e+06   3.994954e+06
  -2.090828e+06   2.479643e+06
  -4.146445e+06  -2.454802e+05
  -2.504522e+06  -1.955888e+06
   9.350577e+05  -1.591623e+06
   2.726097e+06   1.072936e+05
   1.469620e+06   1.297830e+06
  -8.788460e+05   8.411964e+05
  -1.493138e+06  -5.091702e+05
   3.587302e+04  -1.070618e+06
   1.481752e+06  -2.297684e+05
   8.257385e+05   1.005189e+06
  -1.402104e+06   1.284206e+06
  -2.805949e+06   1.578600e+05
  -1.683664e+06  -1.807259e+06
   1.352513e+06  -3.390211e+06
   4.028225e+06  -3.200041e+06
   4.442053e+06  -7.481492e+05
   2.631363e+06   2.567354e+06
   3.408129e+05   4.326029e+06
  -7.643988e+05   3.543684e+06
  -6.440603e+05   1.740404e+06
  -5.589546e+05   9.521882e+05
  -1.359863e+06   1.202293e+06
  -2.471408e+06   8.279590e+05
  -2.642350e+06  -9.077110e+05
  -1.355623e+06  -2.576296e+06
   6.645823e+05  -2.298647e+06
   2.047654e+06  -4.841168e+04
   1.737123e+06   2.248946e+06
  -2.114937e+05   2.657114e+06
  -2.421929e+06   9.480721e+05
  -3.114676e+06  -1.420417e+06
  -1.760217e+06  -2.726379e+06
   2.865231e+05  -2.424346e+06
   1.265169e+06  -1.385839e+06
   1.041552e+06  -7.977388e+05
   1.085516e+06  -8.782202e+05
   2.315867e+06  -7.784868e+05
   3.619697e+06   3.069956e+05
   3.051923e+06   2.139597e+06
   2.621235e+05   3.560638e+06
  -2.819746e+06   3.452213e+06
  -3.828479e+06   1.651885e+06
  -2.252840e+06  -7.665228e+05
   1.898596e+05  -2.123874e+06
   1.302839e+06  -1.514424e+06
   4.470134e+05   1.923871e+05
  -1.076940e+06   1.088541e+06
  -1.544922e+06   3.024883e+05
  -5.900857e+05  -9.757088e+05
   5.856177e+05  -9.962634e+05
   6.488414e+05   2.713997e+05
  -4.578448e+05   1.029146e+06
  -1.563697e+06  -9.321819e+04
  -1.455142e+06  -2.271978e+06
   9.908260e+04  -3.347294e+06
   2.198581e+06  -2.137362e+06
   3.410624e+06   4.507831e+05
   2.778187e+06   2.445483e+06
   7.013925e+05   2.622098e+06
  -1.192986e+06   1.380145e+06
  -1.489121e+06   1.418834e+05
  -4.369268e+05  -2.990287e+04
   3.408072e+05   6.490515e+05
  -2.441158e+05   1.069793e+06
  -1.459888e+06   5.147411e+05
  -1.690678e+06  -5.567696e+05
  -4.507425e+05  -1.079219e+06
   9.709737e+05  -5.814492e+05
   9.590342e+05   3.574652e+05
  -6.062530e+05   7.530963e+05
  -2.155801e+06   1.281864e+05
  -2.007415e+06  -1.121950e+06
  -6.537706e+04  -2.026041e+06
   2.037272e+06  -1.755687e+06
   2.496330e+06  -3.826941e+05
   1.074380e+06   9.937045e+05
  -7.200621e+05   1.178998e+06
  -1.186591e+06   1.430311e+05
  -8.517103e+04  -8.574499e+05
   1.293021e+06  -6.418480e+05
   1.548360e+06   5.619910e+05
   5.042875e+05   1.419986e+06
  -7.887220e+05   1.050017e+06
  -1.154179e+06  -3.490105e+04
  -3.801762e+05  -6.056593e+05
   6.090569e+05  -8.804652e+04
   6.336223e+05   9.015183e+05
  -5.319553e+05   1.256445e+06
  -1.798402e+06   4.665706e+05
  -1.801903e+06  -9.231158e+05
  -3.822899e+05  -1.803657e+06
   1.172310e+06  -1.480788e+06
   1.487597e+06  -2.923370e+05
   5.275954e+05   7.131091e+05
  -5.269684e+05   7.672172e+05
  -6.598339e+05   7.406178e+04
   5.266029e+03  -5.012239e+05
   5.695781e+05  -3.952992e+05
   4.098299e+05   8.652618e+04
  -2.340306e+05   1.904286e+05
  -5.571450e+05  -3.709361e+05
   4.463082e+03  -1.019248e+06
   1.150382e+06  -8.750566e+05
   1.864553e+06   2.858130e+05
   1.345368e+06   1.685020e+06
  -1.327526e+05   2.206121e+06
  -1.420048e+06   1.437030e+06
  -1.639166e+06   4.606414e+04
  -1.002217e+06  -8.836220e+05
  -3.896326e+05  -8.714668e+05
  -2.899633e+05  -3.833871e+05
  -3.756933e+05  -2.066056e+05
  -7.041772e+04  -5.578969e+05
   6.898347e+05  -8.657161e+05
   1.320032e+06  -4.462534e+05
   1.113459e+06   6.384244e+05
  -7.275005e+04   1.473317e+06
  -1.524382e+06   1.132878e+06
  -2.095734e+06  -3.335493e+05
  -1.165160e+06  -1.815856e+06
   6.982387e+05  -2.125690e+06
   2.132616e+06  -1.087914e+06
   2.185508e+06   3.639496e+05
   1.113674e+06   1.150345e+06
  -2.455676e+04   1.034987e+06
  -4.572401e+05   6.548087e+05
  -2.993645e+05   6.737889e+05
  -1.932894e+05   1.029610e+06
  -5.354744e+05   1.052117e+06
  -1.076424e+06   2.729210e+05
  -1.189412e+06  -9.563283e+05
  -5.237047e+05  -1.698803e+06
   5.481315e+05  -1.305721e+06
   1.168412e+06  -5.978922e+04
   7.981240e+05   1.057333e+06
  -1.992716e+05   1.241361e+06
  -8.865488e+05   5.226860e+05
  -7.134891e+05  -3.910405e+05
  -5.686053e+04  -8.370229e+05
   2.727437e+05  -7.281487e+05
  -1.525875e+04  -4.452964e+05
  -3.662138e+05  -3.329489e+05
  -4.372795e+04  -3.612238e+05
   9.578440e+05  -2.394468e+05
   1.766839e+06   2.124046e+05
   1.471678e+06   8.264668e+05
   1.088780e+05   1.194633e+06
  -1.266257e+06   1.013720e+06
  -1.581265e+06   3.734814e+05
  -7.917425e+05  -2.668989e+05
   1.633181e+05  -4.408631e+05
   4.125563e+05  -1.040882e+05
  -1.321403e+04   2.867522e+05
  -4.398598e+05   2.182670e+05
  -4.213046e+05  -2.983727e+05
  -1.339148e+05  -6.819680e+05
   8.832227e+03  -4.422181e+05
  -1.280010e+05   1.690334e+05
  -3.268530e+05   3.745390e+05
  -2.789499e+05  -1.877178e+05
   1.541202e+05  -9.356190e+05
   7.809058e+05  -9.614379e+05
   1.096492e+06  -1.068685e+05
   6.568041e+05   8.166031e+05
  -3.545984e+05   9.297722e+05
  -1.054434e+06   2.192563e+05
  -6.576778e+05  -5.356868e+05
   5.852787e+05  -6.207608e+05
   1.477899e+06  -1.856249e+04
   1.075544e+06   7.135358e+05
  -2.951695e+05   9.898869e+05
  -1.360651e+06   6.288593e+05
  -1.214769e+06  -5.326190e+04
  -1.931046e+05  -4.843245e+05
   5.645151e+05  -3.104333e+05
   3.156601e+05   2.256649e+05
  -5.736445e+05   4.347539e+05
  -1.066366e+06  -1.316864e+05
  -5.342804e+05  -1.103139e+06
   6.187765e+05  -1.517411e+06
   1.386131e+06  -7.605437e+05
   1.150672e+06   7.039897e+05
   2.059502e+05   1.650369e+06
  -6.463274e+05   1.251117e+06
  -8.634022e+05  -7.283937e+04
  -4.886454e+05  -1.064911e+06
   8.831916e+04  -9.356604e+05
   4.833315e+05  -1.255271e+05
   4.999761e+05   3.472941e+05
   2.254488e+05   1.423653e+05
   1.342996e+04  -1.083055e+05
   1.550849e+05   2.202025e+05
   4.439396e+05   8.522264e+05
   2.832118e+05   9.915540e+05
  -5.437577e+05   3.851430e+05
  -1.369951e+06  -3.964946e+05
  -1.267339e+06  -7.329600e+05
  -1.928364e+05  -6.158874e+05
   8.411581e+05  -3.955145e+05
   9.198521e+05  -2.146580e+05
   2.685516e+05   2.021663e+03
  -1.564367e+05   2.018093e+05
   5.691072e+04   2.239504e+05
   3.348581e+05   1.245701e+05
   1.491718e+04   1.291829e+05
  -6.955984e+05   1.978515e+05
  -9.447835e+05  -2.291015e+04
  -2.754646e+05  -6.174583e+05
   8.359268e+05  -1.035987e+06
   1.482563e+06  -6.439799e+05
   1.186578e+06   4.289837e+05
   2.357877e+05   1.293420e+06
  -6.594716e+05   1.233012e+06
  -9.510844e+05   4.459291e+05
  -6.156663e+05  -2.503628e+05
  -8.983701e+04  -3.263689e+05
   1.394473e+05  -1.625494e+04
  -4.321734e+04   7.183740e+04
  -3.160524e+05  -3.037490e+05
  -2.681256e+05  -7.311627e+05
   1.742149e+05  -6.036547e+05
   6.414419e+05   1.576311e+05
   6.374850e+05   9.152780e+05
   2.670832e+04   9.335808e+05
  -7.349878e+05   1.597751e+05
  -9.277605e+05  -7.169418e+05
  -2.771657e+05  -9.862156e+05
   6.575724e+05  -5.673213e+05
   9.817150e+05   8.067799e+04
   4.430765e+05   5.017305e+05
  -2.531538e+05   5.500081e+05
  -2.797070e+05   3.183299e+05
   2.957889e+05   2.781237e+04
   6.097837e+05  -3.297624e+04
   1.119836e+05   2.664608e+05
  -7.431216e+05   6.359819e+05
  -1.077016e+06   5.535193e+05
  -6.223163e+05  -1.027273e+05
   8.658270e+04  -7.641531e+05
   4.341857e+05  -7.522993e+05
   3.194197e+05  -9.755432e+04
   1.908806e+04   4.659622e+05
  -2.283599e+05   3.620263e+05
  -3.295203e+05  -1.912051e+05
  -2.273521e+05  -5.256361e+05
   6.388197e+04  -3.338572e+05
   3.550079e+05   6.421222e+04
   4.108290e+05   2.090164e+05
   2.183305e+05   4.663811e+04
   1.576759e+03  -9.000112e+04
  -6.834543e+04   6.143761e+04
  -6.902037e+04   3.664896e+05
  -1.659683e+05   4.406347e+05
  -3.338907e+05   9.164253e+04
  -3.429584e+05  -4.191461e+05
  -3.997336e+04  -6.043237e+05
   4.017085e+05  -2.614452e+05
   5.685540e+05   2.917076e+05
   2.062370e+05   5.464425e+05
  -4.405921e+05   3.269333e+05
  -7.690043e+05  -9.102687e+04
  -4.207859e+05  -3.422191e+05
   2.669098e+05  -3.203525e+05
   5.662488e+05  -1.550297e+05
   1.797716e+05  -6.000892e+03
  -3.848884e+05   1.950784e+04
  -4.017720e+05  -1.216125e+05
   2.031763e+05  -3.105335e+05
   7.642845e+05  -2.561611e+05
