
 $NMID
 id='ANONYMOUS ', fmtdat='(2E16.6)'
 volume=1.0
 tramp=1.0
 $END
  -3.104695e+07   1.420765e+06
  -2.122135e+07  -1.473019e+07
  -8.335342e+04  -2.016921e+07
   1.345079e+07  -1.273701e+07
   1.103893e+07  -6.435733e+05
   4.247546e+05   5.606557e+06
  -6.178817e+06   2.359292e+06
  -4.371687e+06  -5.013256e+06
   1.624931e+06  -8.067422e+06
   5.697586e+06  -3.544047e+06
   4.989125e+06   3.742006e+06
   8.268027e+05   6.178959e+06
  -2.797234e+06   1.500967e+06
  -2.375928e+06  -4.886235e+06
   1.707542e+06  -5.949589e+06
   5.104355e+06  -5.410934e+05
   3.881154e+06   5.929657e+06
  -1.238072e+06   7.639608e+06
  -5.744351e+06   3.882503e+06
  -6.111187e+06  -1.400034e+06
  -2.983113e+06  -4.168816e+06
   7.261997e+04  -3.690529e+06
   2.857245e+05  -2.224030e+06
  -1.693481e+06  -2.216780e+06
  -2.457383e+06  -3.790721e+06
   5.232432e+05  -4.732710e+06
   5.567807e+06  -3.033238e+06
   7.842183e+06   6.554889e+05
   4.600817e+06   3.482605e+06
  -1.250949e+06   3.311713e+06
  -4.065417e+06   7.306842e+05
  -1.686932e+06  -1.788787e+06
   2.545865e+06  -2.126011e+06
   4.103765e+06   2.758057e+04
   2.110172e+06   2.989568e+06
  -7.456854e+05   4.113943e+06
  -1.848682e+06   2.074238e+06
  -9.955328e+05  -1.242493e+06
   2.906630e+05  -2.161578e+06
   5.245021e+05   4.611117e+05
  -6.314444e+05   3.291439e+06
  -2.100412e+06   2.381228e+06
  -2.119371e+06  -1.572012e+06
   3.292840e+03  -3.755280e+06
   2.613654e+06  -1.276975e+06
   2.883337e+06   3.166064e+06
  -1.927741e+05   4.642898e+06
  -4.240943e+06   1.699665e+06
  -5.494565e+06  -2.579241e+06
  -2.500838e+06  -4.425157e+06
   2.284843e+06  -2.897548e+06
   4.731830e+06   1.417853e+05
   2.955251e+06   2.178143e+06
  -9.377143e+05   1.928284e+06
  -3.071916e+06   7.780169e+04
  -1.773808e+06  -1.378002e+06
   9.005272e+05  -1.014795e+06
   1.725646e+06   5.396880e+05
   8.589805e+03   1.352825e+06
  -1.818289e+06   4.476521e+05
  -1.242318e+06  -1.157995e+06
   1.358668e+06  -1.706885e+06
   3.173386e+06  -4.535991e+05
   2.040712e+06   1.883086e+06
  -1.371394e+06   3.730836e+06
  -4.367813e+06   3.541869e+06
  -4.816779e+06   8.939683e+05
  -2.881114e+06  -2.707202e+06
  -4.738493e+05  -4.725649e+06
   7.399917e+05  -4.026167e+06
   7.576138e+05  -2.076554e+06
   7.865456e+05  -1.066837e+06
   1.623697e+06  -1.198075e+06
   2.718176e+06  -7.746032e+05
   2.834870e+06   1.074959e+06
   1.414000e+06   2.871151e+06
  -8.062689e+05   2.529676e+06
  -2.315142e+06  -3.618038e+03
  -1.931197e+06  -2.552954e+06
   2.399379e+05  -2.957536e+06
   2.649543e+06  -1.046609e+06
   3.399177e+06   1.513473e+06
   1.969421e+06   2.900697e+06
  -2.000038e+05   2.609417e+06
  -1.268944e+06   1.563132e+06
  -1.090692e+06   9.672533e+05
  -1.206657e+06   1.047470e+06
  -2.596411e+06   9.224469e+05
  -4.056225e+06  -2.907662e+05
  -3.436397e+06  -2.360315e+06
  -3.218638e+05  -3.980071e+06
   3.132164e+06  -3.856899e+06
   4.253568e+06  -1.826468e+06
   2.477693e+06   8.579198e+05
  -2.397143e+05   2.336255e+06
  -1.452492e+06   1.659668e+06
  -4.922782e+05  -2.099841e+05
   1.190479e+06  -1.211008e+06
   1.716128e+06  -3.689327e+05
   6.706114e+05   1.059368e+06
  -6.552088e+05   1.119485e+06
  -7.584284e+05  -3.108491e+05
   5.087995e+05  -1.230855e+06
   1.844110e+06   1.528359e+04
   1.769340e+06   2.572026e+06
  -5.585548e+04   3.898369e+06
  -2.534612e+06   2.521707e+06
  -3.924524e+06  -5.033967e+05
  -3.152968e+06  -2.809982e+06
  -7.738870e+05  -2.975286e+06
   1.345888e+06  -1.536027e+06
   1.666538e+06  -1.475576e+05
   4.918585e+05   3.410682e+04
  -3.903204e+05  -7.211016e+05
   2.400536e+05  -1.202047e+06
   1.611231e+06  -6.136091e+05
   1.916544e+06   5.800734e+05
   5.489334e+05   1.205554e+06
  -1.075301e+06   6.783925e+05
  -1.090850e+06  -3.948334e+05
   6.825280e+05  -8.686296e+05
   2.450620e+06  -1.545853e+05
   2.277231e+06   1.283004e+06
   7.088552e+04   2.304719e+06
  -2.295511e+06   1.985731e+06
  -2.805675e+06   4.416125e+05
  -1.222898e+06  -1.099937e+06
   7.750473e+05  -1.326657e+06
   1.314942e+06  -1.894540e+05
   1.120497e+05   9.415348e+05
  -1.432854e+06   7.327175e+05
  -1.750487e+06  -6.111202e+05
  -5.934901e+05  -1.605305e+06
   8.820167e+05  -1.215598e+06
   1.323151e+06   1.398129e+04
   4.597612e+05   6.844167e+05
  -6.646388e+05   1.217216e+05
  -7.089671e+05  -9.854295e+05
   5.828140e+05  -1.390170e+06
   1.994735e+06  -5.216103e+05
   2.010220e+06   1.019959e+06
   4.408603e+05   2.012547e+06
  -1.299321e+06   1.672661e+06
  -1.675175e+06   3.456786e+05
  -6.136585e+05  -8.022611e+05
   5.816943e+05  -8.766309e+05
   7.469460e+05  -8.484783e+04
  -6.111769e+03   5.758555e+05
  -6.546338e+05   4.437885e+05
  -4.705521e+05  -1.212014e+05
   2.719645e+05  -2.391283e+05
   6.437419e+05   4.090932e+05
   8.028837e+03   1.147327e+06
  -1.282372e+06   9.857668e+05
  -2.084969e+06  -3.116337e+05
  -1.508525e+06  -1.876643e+06
   1.463112e+05  -2.472577e+06
   1.601520e+06  -1.623453e+06
   1.858572e+06  -5.018925e+04
   1.130253e+06   1.022070e+06
   4.129877e+05   1.011246e+06
   2.912422e+05   4.311579e+05
   4.069233e+05   2.069693e+05
   8.278423e+04   6.097754e+05
  -7.730282e+05   9.726947e+05
  -1.486350e+06   4.975641e+05
  -1.246815e+06  -7.331547e+05
   9.206348e+04  -1.666475e+06
   1.714265e+06  -1.271754e+06
   2.350054e+06   3.734723e+05
   1.319160e+06   2.031672e+06
  -7.583288e+05   2.391316e+06
  -2.381949e+06   1.244623e+06
  -2.470263e+06  -3.925960e+05
  -1.272213e+06  -1.305084e+06
   3.147133e+04  -1.186968e+06
   5.389160e+05  -7.360967e+05
   3.530851e+05  -7.293305e+05
   2.100345e+05  -1.128822e+06
   5.819510e+05  -1.173743e+06
   1.193136e+06  -3.128158e+05
   1.328579e+06   1.064216e+06
   5.885179e+05   1.897652e+06
  -6.105128e+05   1.460923e+06
  -1.310803e+06   7.363809e+04
  -9.068475e+05  -1.176421e+06
   2.068367e+05  -1.399154e+06
   9.897295e+05  -6.135491e+05
   8.165024e+05   4.132680e+05
   9.092795e+04   9.376829e+05
  -2.862278e+05   8.343872e+05
   1.943309e+04   5.137914e+05
   4.011574e+05   3.750788e+05
   4.272439e+04   4.038670e+05
  -1.066970e+06   2.750685e+05
  -1.968512e+06  -2.246871e+05
  -1.652140e+06  -9.141206e+05
  -1.454990e+05  -1.335192e+06
   1.395182e+06  -1.144547e+06
   1.771273e+06  -4.360034e+05
   9.054926e+05   2.836363e+05
  -1.697084e+05   4.911626e+05
  -4.627268e+05   1.263043e+05
   1.419270e+04  -3.084604e+05
   4.984344e+05  -2.368531e+05
   4.700755e+05   3.346128e+05
   1.338927e+05   7.582669e+05
  -2.161068e+04   4.870783e+05
   1.523911e+05  -1.946244e+05
   3.811496e+05  -4.193199e+05
   3.101013e+05   2.105968e+05
  -1.848091e+05   1.042291e+06
  -8.684820e+05   1.069575e+06
  -1.201175e+06   1.219785e+05
  -7.182513e+05  -9.008325e+05
   3.867543e+05  -1.027095e+06
   1.161386e+06  -2.393389e+05
   7.307026e+05   6.024903e+05
  -6.545937e+05   7.002125e+05
  -1.666188e+06   2.288641e+04
  -1.222490e+06  -8.093398e+05
   3.278080e+05  -1.128057e+06
   1.540594e+06  -7.184728e+05
   1.377728e+06   5.901994e+04
   2.206201e+05   5.500191e+05
  -6.339909e+05   3.560566e+05
  -3.526277e+05  -2.433306e+05
   6.411449e+05  -4.752116e+05
   1.183306e+06   1.546749e+05
   5.825173e+05   1.229431e+06
  -7.025986e+05   1.682635e+06
  -1.552318e+06   8.368637e+05
  -1.283637e+06  -7.940432e+05
  -2.245175e+05  -1.850219e+06
   7.307534e+05  -1.406709e+06
   9.747066e+05   7.636765e+04
   5.551295e+05   1.197256e+06
  -9.250479e+04   1.060545e+06
  -5.398244e+05   1.469774e+05
  -5.653677e+05  -3.960731e+05
  -2.592081e+05  -1.678572e+05
  -1.378768e+04   1.273014e+05
  -1.652107e+05  -2.305385e+05
  -4.942562e+05  -9.481130e+05
  -3.266628e+05  -1.120870e+06
   5.981692e+05  -4.424416e+05
   1.535831e+06   4.470515e+05
   1.428675e+06   8.299792e+05
   2.172565e+05   6.886033e+05
  -9.511357e+05   4.338276e+05
  -1.036009e+06   2.398900e+05
  -2.968516e+05   7.894980e+03
   1.783209e+05  -2.231214e+05
  -6.942278e+04  -2.645889e+05
  -3.802156e+05  -1.537375e+05
  -1.101548e+04  -1.406123e+05
   7.869076e+05  -2.062512e+05
   1.051946e+06   2.937342e+04
   2.914772e+05   6.768154e+05
  -9.426091e+05   1.142624e+06
  -1.645599e+06   7.143900e+05
  -1.307141e+06  -4.791238e+05
  -2.543888e+05  -1.445642e+06
   7.344421e+05  -1.374554e+06
   1.057619e+06  -4.879250e+05
   6.836626e+05   2.883231e+05
   9.471792e+04   3.601634e+05
  -1.605356e+05   3.778120e+03
   5.020562e+04  -9.028483e+04
   3.600349e+05   3.401019e+05
   3.033041e+05   8.200934e+05
  -1.953715e+05   6.702166e+05
  -7.128616e+05  -1.857821e+05
  -6.990475e+05  -1.026500e+06
  -1.676185e+04  -1.033940e+06
   8.213260e+05  -1.618580e+05
   1.024915e+06   8.112994e+05
   3.001680e+05   1.097559e+06
  -7.327643e+05   6.225803e+05
  -1.088757e+06  -9.245195e+04
  -4.921062e+05  -5.494092e+05
   2.763443e+05  -6.035098e+05
   3.016150e+05  -3.586801e+05
  -3.384466e+05  -4.323997e+04
  -6.828602e+05   3.116022e+04
  -1.219351e+05  -2.939638e+05
   8.332010e+05  -7.103578e+05
   1.201839e+06  -6.293917e+05
   6.909379e+05   1.018753e+05
  -9.687022e+04   8.495337e+05
  -4.759184e+05   8.415196e+05
  -3.424114e+05   1.073542e+05
  -1.162398e+04  -5.214721e+05
   2.547016e+05  -3.968972e+05
   3.621430e+05   2.242602e+05
   2.506895e+05   5.874431e+05
  -6.929593e+04   3.629811e+05
  -3.935250e+05  -7.634505e+04
  -4.597785e+05  -2.262626e+05
  -2.476762e+05  -4.725928e+04
  -1.702568e+03   9.017701e+04
   8.637113e+04  -8.320709e+04
   9.458990e+04  -4.066203e+05
   1.978698e+05  -4.700119e+05
   3.681146e+05  -8.107611e+04
   3.626804e+05   4.721856e+05
   2.553101e+04   6.659760e+05
  -4.513176e+05   2.829701e+05
  -6.238022e+05  -3.298869e+05
  -2.211437e+05  -6.114814e+05
   4.895767e+05  -3.639941e+05
   8.503776e+05   1.046715e+05
   4.661194e+05   3.819698e+05
  -2.944573e+05   3.503669e+05
  -6.251784e+05   1.649312e+05
  -1.931937e+05   9.336985e+03
   4.349778e+05  -6.991461e+03
   4.458897e+05   1.497345e+05
  -2.399621e+05   3.470491e+05
  -8.679187e+05   2.744839e+05
