
 $NMID
 id='ANONYMOUS ', fmtdat='(2E16.6)'
 volume=1.0
 tramp=1.0
 $END
  -3.256176e+07  -3.540835e+05
  -2.035289e+07  -1.787148e+07
   2.414624e+06  -2.118086e+07
   1.496567e+07  -1.090870e+07
   1.052874e+07   1.342985e+06
  -6.052812e+05   5.555349e+06
  -6.064016e+06   1.129215e+06
  -3.276473e+06  -5.368382e+06
   2.496410e+06  -7.159772e+06
   5.799305e+06  -2.587421e+06
   4.679257e+06   3.929048e+06
   5.787110e+05   5.951413e+06
  -2.776240e+06   1.510450e+06
  -2.087901e+06  -4.445224e+06
   1.999958e+06  -5.262550e+06
   4.994754e+06   7.054903e+04
   3.308906e+06   6.164483e+06
  -1.853183e+06   7.475969e+06
  -6.081962e+06   3.613485e+06
  -6.324074e+06  -1.612888e+06
  -3.215473e+06  -4.540711e+06
   1.425832e+05  -4.317899e+06
   9.805916e+05  -2.643465e+06
  -7.138181e+05  -1.910355e+06
  -1.926143e+06  -2.954684e+06
   3.059342e+05  -4.080630e+06
   4.947007e+06  -2.925114e+06
   7.330477e+06   4.675463e+05
   4.510522e+06   3.337753e+06
  -8.851833e+05   3.338248e+06
  -3.591796e+06   1.015829e+06
  -1.715864e+06  -1.243796e+06
   1.800132e+06  -1.691042e+06
   3.255486e+06  -1.351239e+05
   1.923414e+06   2.325477e+06
  -3.757201e+05   3.641900e+06
  -1.708783e+06   2.187861e+06
  -1.384334e+06  -9.594108e+05
  -8.390021e+04  -2.295443e+06
   6.138953e+05  -7.745609e+04
  -3.390372e+05   2.762568e+06
  -1.937818e+06   2.051487e+06
  -1.854476e+06  -1.751558e+06
   6.366320e+05  -3.698966e+06
   3.203347e+06  -8.654817e+05
   2.821848e+06   3.688520e+06
  -7.274078e+05   4.823711e+06
  -4.441984e+06   1.480256e+06
  -5.044757e+06  -2.762734e+06
  -1.966068e+06  -4.222275e+06
   2.273594e+06  -2.446309e+06
   4.217797e+06   4.699054e+05
   2.420964e+06   2.190113e+06
  -1.159582e+06   1.684481e+06
  -2.966919e+06  -2.244800e+05
  -1.531780e+06  -1.513917e+06
   9.860972e+05  -9.265577e+05
   1.498494e+06   5.900215e+05
  -2.607128e+05   1.044506e+06
  -1.648120e+06  -1.051781e+05
  -6.017443e+05  -1.424770e+06
   1.897836e+06  -1.394975e+06
   3.164469e+06   9.058524e+04
   1.752474e+06   2.121074e+06
  -1.390207e+06   3.578165e+06
  -4.062373e+06   3.333328e+06
  -4.573565e+06   8.723510e+05
  -2.854509e+06  -2.572275e+06
  -4.201539e+05  -4.488727e+06
   9.463399e+05  -3.649365e+06
   8.554954e+05  -1.603123e+06
   5.146324e+05  -6.862827e+05
   1.085631e+06  -1.069774e+06
   2.212503e+06  -9.232729e+05
   2.543689e+06   6.922202e+05
   1.395219e+06   2.371604e+06
  -5.385661e+05   2.180691e+06
  -1.891688e+06   5.687097e+04
  -1.652657e+06  -2.154870e+06
   1.809101e+05  -2.612303e+06
   2.394283e+06  -1.026089e+06
   3.223986e+06   1.337005e+06
   1.940350e+06   2.804176e+06
  -2.301050e+05   2.643960e+06
  -1.389730e+06   1.567065e+06
  -1.214544e+06   8.316460e+05
  -1.187184e+06   8.117356e+05
  -2.350271e+06   6.867253e+05
  -3.616797e+06  -3.978945e+05
  -3.006596e+06  -2.195208e+06
  -2.073521e+05  -3.536537e+06
   2.810101e+06  -3.385388e+06
   3.762823e+06  -1.645137e+06
   2.236538e+06   6.912765e+05
  -1.159725e+05   2.060894e+06
  -1.231930e+06   1.526938e+06
  -4.555349e+05  -1.553870e+05
   1.042610e+06  -1.085145e+06
   1.559237e+06  -3.105755e+05
   6.306519e+05   9.819380e+05
  -5.575888e+05   9.880504e+05
  -5.937617e+05  -2.826136e+05
   5.534835e+05  -9.452381e+05
   1.574795e+06   2.976227e+05
   1.263897e+06   2.428110e+06
  -3.834551e+05   3.269575e+06
  -2.323101e+06   1.880620e+06
  -3.287539e+06  -6.473785e+05
  -2.576314e+06  -2.455395e+06
  -6.076962e+05  -2.540290e+06
   1.174420e+06  -1.334734e+06
   1.457008e+06  -1.383850e+05
   4.337020e+05   3.653054e+04
  -3.307288e+05  -6.451198e+05
   2.649120e+05  -1.081837e+06
   1.489882e+06  -5.085282e+05
   1.699533e+06   5.989089e+05
   4.304918e+05   1.107345e+06
  -9.712924e+05   5.631088e+05
  -9.139516e+05  -3.616790e+05
   6.303166e+05  -6.789241e+05
   2.085906e+06  -2.614411e+04
   1.882072e+06   1.143519e+06
  -1.024118e+04   1.949335e+06
  -2.031110e+06   1.662851e+06
  -2.466947e+06   3.325770e+05
  -1.062670e+06  -1.016908e+06
   7.342060e+05  -1.197250e+06
   1.216186e+06  -1.460142e+05
   1.046352e+05   8.667675e+05
  -1.289991e+06   6.329755e+05
  -1.526716e+06  -5.896880e+05
  -4.532191e+05  -1.421631e+06
   8.241601e+05  -1.004969e+06
   1.140880e+06   8.540500e+04
   3.492687e+05   6.200322e+05
  -6.141279e+05   8.159229e+04
  -6.215868e+05  -8.924497e+05
   5.259120e+05  -1.231448e+06
   1.770294e+06  -4.491886e+05
   1.772225e+06   9.247747e+05
   3.581783e+05   1.792695e+06
  -1.190903e+06   1.454494e+06
  -1.487878e+06   2.597887e+05
  -5.080941e+05  -7.233606e+05
   5.346713e+05  -7.501756e+05
   6.352446e+05  -7.222991e+04
  -2.507370e+04   4.562502e+05
  -5.353490e+05   3.424264e+05
  -3.406718e+05  -8.284621e+04
   2.666362e+05  -1.315628e+05
   5.257267e+05   4.187131e+05
  -5.119359e+04   1.012621e+06
  -1.158692e+06   8.361414e+05
  -1.834129e+06  -3.143420e+05
  -1.305262e+06  -1.682683e+06
   1.619713e+05  -2.168661e+06
   1.421100e+06  -1.374304e+06
   1.596943e+06   1.678920e+03
   9.358295e+05   8.717570e+05
   3.519627e+05   8.129766e+05
   3.044516e+05   3.448785e+05
   4.015553e+05   2.194512e+05
   6.310930e+04   5.737546e+05
  -7.101193e+05   8.325570e+05
  -1.300639e+06   3.912567e+05
  -1.052442e+06  -6.461459e+05
   1.200982e+05  -1.418434e+06
   1.517037e+06  -1.065431e+06
   2.045473e+06   3.681958e+05
   1.105102e+06   1.811941e+06
  -7.433507e+05   2.089423e+06
  -2.139945e+06   1.026119e+06
  -2.140536e+06  -4.200479e+05
  -1.041918e+06  -1.156041e+06
   6.489578e+04  -9.869077e+05
   4.384424e+05  -6.027927e+05
   2.578332e+05  -6.593320e+05
   1.788258e+05  -1.039911e+06
   5.481014e+05  -1.053798e+06
   1.079065e+06  -2.638031e+05
   1.166800e+06   9.544598e+05
   4.983605e+05   1.678926e+06
  -5.521009e+05   1.280176e+06
  -1.149545e+06   3.913984e+04
  -7.660649e+05  -1.065851e+06
   2.343476e+05  -1.225380e+06
   9.081026e+05  -4.801415e+05
   7.039219e+05   4.343947e+05
   1.909201e+04   8.499814e+05
  -3.126807e+05   7.118266e+05
  -5.638368e+03   4.274928e+05
   3.605350e+05   3.271233e+05
   3.945550e+04   3.533272e+05
  -9.600079e+05   2.165453e+05
  -1.753606e+06  -2.419906e+05
  -1.439191e+06  -8.461060e+05
  -7.270722e+04  -1.194652e+06
   1.284657e+06  -9.907425e+05
   1.574494e+06  -3.333699e+05
   7.720656e+05   3.014304e+05
  -1.777323e+05   4.459124e+05
  -4.165104e+05   8.503651e+04
   9.928865e+03  -2.998048e+05
   4.306288e+05  -2.129976e+05
   4.151551e+05   3.013155e+05
   1.414510e+05   6.684987e+05
   4.370696e+03   4.338581e+05
   1.280709e+05  -1.488749e+05
   3.109190e+05  -3.435717e+05
   2.635517e+05   1.917174e+05
  -1.584834e+05   9.089239e+05
  -7.820853e+05   9.365545e+05
  -1.101475e+06   1.038114e+05
  -6.581797e+05  -8.105414e+05
   3.608535e+05  -9.292490e+05
   1.054691e+06  -2.212485e+05
   6.435277e+05   5.310123e+05
  -5.921048e+05   5.998450e+05
  -1.449032e+06  -1.580761e+04
  -1.021743e+06  -7.265318e+05
   3.276459e+05  -9.549481e+05
   1.345767e+06  -5.699371e+05
   1.177294e+06   8.613962e+04
   1.725104e+05   4.752901e+05
  -5.624660e+05   2.890463e+05
  -3.149715e+05  -2.310043e+05
   5.590894e+05  -4.294556e+05
   1.048596e+06   1.272739e+05
   5.302375e+05   1.083664e+06
  -6.064090e+05   1.493411e+06
  -1.364156e+06   7.448320e+05
  -1.125085e+06  -7.005328e+05
  -1.838521e+05  -1.622625e+06
   6.526100e+05  -1.211591e+06
   8.446979e+05   9.597320e+04
   4.530461e+05   1.055301e+06
  -1.155088e+05   9.088561e+05
  -4.808044e+05   1.098969e+05
  -4.739909e+05  -3.447094e+05
  -2.061473e+05  -1.380443e+05
  -2.004199e+04   1.029348e+05
  -1.696447e+05  -2.265937e+05
  -4.338631e+05  -8.471576e+05
  -2.500947e+05  -9.764697e+05
   5.585038e+05  -3.699256e+05
   1.339719e+06   4.069103e+05
   1.221172e+06   7.378459e+05
   1.792043e+05   6.114721e+05
  -8.189955e+05   3.790496e+05
  -9.022316e+05   1.937589e+05
  -2.757577e+05  -1.346531e+04
   1.510104e+05  -1.986094e+05
  -3.611463e+04  -2.141748e+05
  -3.091607e+05  -1.174394e+05
  -1.941542e+04  -1.246078e+05
   6.670977e+05  -1.918833e+05
   9.304784e+05   2.722119e+04
   2.897120e+05   6.118949e+05
  -8.165896e+05   1.020248e+06
  -1.476865e+06   6.311719e+05
  -1.183878e+06  -4.243513e+05
  -2.245534e+05  -1.271948e+06
   6.664033e+05  -1.211356e+06
   9.394811e+05  -4.397012e+05
   5.991634e+05   2.428644e+05
   9.224651e+04   3.209343e+05
  -1.216792e+05   2.359432e+04
   4.930361e+04  -5.870601e+04
   2.997484e+05   3.073143e+05
   2.498209e+05   7.217319e+05
  -1.727575e+05   5.956196e+05
  -6.251987e+05  -1.492673e+05
  -6.283626e+05  -8.945378e+05
  -3.634318e+04  -9.201694e+05
   7.142251e+05  -1.660155e+05
   9.111068e+05   6.995067e+05
   2.739365e+05   9.738167e+05
  -6.495302e+05   5.637040e+05
  -9.727683e+05  -8.392329e+04
  -4.405122e+05  -5.081114e+05
   2.544859e+05  -5.528102e+05
   2.904541e+05  -3.145988e+05
  -2.765519e+05  -2.587810e+04
  -5.962762e+05   2.824930e+04
  -1.125514e+05  -2.660716e+05
   7.376596e+05  -6.168251e+05
   1.078490e+06  -5.240958e+05
   6.269381e+05   1.180163e+05
  -9.081325e+04   7.573799e+05
  -4.472416e+05   7.429912e+05
  -3.294986e+05   1.040189e+05
  -2.165233e+04  -4.525247e+05
   2.252199e+05  -3.617779e+05
   3.210410e+05   1.785141e+05
   2.208229e+05   5.188869e+05
  -6.186142e+04   3.398493e+05
  -3.492135e+05  -6.050905e+04
  -4.077299e+05  -2.184172e+05
  -2.151297e+05  -5.633986e+04
   4.890752e+03   9.838260e+04
   6.918095e+04  -3.844087e+04
   5.323984e+04  -3.506615e+05
   1.405133e+05  -4.455632e+05
   3.200609e+05  -1.110287e+05
   3.507466e+05   3.990632e+05
   5.727162e+04   5.919549e+05
  -3.906958e+05   2.598441e+05
  -5.652574e+05  -2.829797e+05
  -2.044798e+05  -5.337808e+05
   4.404030e+05  -3.198491e+05
   7.635495e+05   8.989764e+04
   4.152029e+05   3.398790e+05
  -2.648338e+05   3.232298e+05
  -5.618686e+05   1.605048e+05
  -1.878194e+05   6.940676e+03
   3.636566e+05  -2.642450e+04
   3.882253e+05   1.081904e+05
  -1.907704e+05   2.945615e+05
  -7.347405e+05   2.454213e+05
