
 $NMID
 id='ANONYMOUS ', fmtdat='(2E16.6)'
 volume=1.0
 tramp=1.0
 $END
  -3.630280e+07   2.414612e+05
  -2.301667e+07  -2.006650e+07
   2.628335e+06  -2.395452e+07
   1.684963e+07  -1.202814e+07
   1.175363e+07   1.896634e+06
  -8.372889e+05   6.263131e+06
  -6.791235e+06   9.922750e+05
  -3.449458e+06  -6.092510e+06
   2.980380e+06  -7.765835e+06
   6.474848e+06  -2.700696e+06
   5.145396e+06   4.276826e+06
   6.660828e+05   6.449724e+06
  -2.976674e+06   1.718474e+06
  -2.215373e+06  -4.710397e+06
   2.267965e+06  -5.634913e+06
   5.533535e+06   1.541510e+05
   3.639810e+06   6.815905e+06
  -2.043372e+06   8.267474e+06
  -6.688418e+06   4.082601e+06
  -7.040133e+06  -1.612446e+06
  -3.769216e+06  -4.928332e+06
  -6.476706e+04  -4.913844e+06
   1.126067e+06  -3.175474e+06
  -4.651664e+05  -2.167657e+06
  -1.843079e+06  -3.019439e+06
   2.912850e+05  -4.208942e+06
   5.142863e+06  -3.158011e+06
   7.802704e+06   3.612491e+05
   4.945473e+06   3.490292e+06
  -7.575873e+05   3.594325e+06
  -3.682534e+06   1.193747e+06
  -1.800446e+06  -1.136179e+06
   1.776028e+06  -1.604975e+06
   3.249872e+06  -1.105489e+05
   1.964350e+06   2.317635e+06
  -2.962063e+05   3.758087e+06
  -1.738315e+06   2.434926e+06
  -1.595409e+06  -8.431142e+05
  -2.943407e+05  -2.463345e+06
   5.844298e+05  -2.837389e+05
  -3.142274e+05   2.796796e+06
  -2.073955e+06   2.151736e+06
  -2.022196e+06  -1.967915e+06
   8.004852e+05  -4.157769e+06
   3.730476e+06  -1.021732e+06
   3.259030e+06   4.115126e+06
  -7.911883e+05   5.437295e+06
  -4.905213e+06   1.703710e+06
  -5.467739e+06  -3.023225e+06
  -2.048385e+06  -4.593816e+06
   2.500197e+06  -2.584832e+06
   4.516464e+06   6.050403e+05
   2.534394e+06   2.434484e+06
  -1.335919e+06   1.837058e+06
  -3.267609e+06  -2.794095e+05
  -1.662895e+06  -1.699783e+06
   1.093558e+06  -1.026390e+06
   1.589022e+06   6.646365e+05
  -4.011833e+05   1.105572e+06
  -1.858755e+06  -2.744351e+05
  -5.520023e+05  -1.748100e+06
   2.258572e+06  -1.584095e+06
   3.557462e+06   1.834182e+05
   1.925179e+06   2.395663e+06
  -1.456902e+06   3.891278e+06
  -4.286219e+06   3.611976e+06
  -4.888846e+06   1.014771e+06
  -3.141705e+06  -2.690758e+06
  -5.116474e+05  -4.817083e+06
   1.074413e+06  -3.927217e+06
   1.016326e+06  -1.643929e+06
   5.371053e+05  -5.889527e+05
   1.015607e+06  -1.044766e+06
   2.200134e+06  -1.006752e+06
   2.621877e+06   6.285592e+05
   1.475394e+06   2.397184e+06
  -5.176900e+05   2.228583e+06
  -1.917207e+06   4.476943e+04
  -1.691325e+06  -2.238199e+06
   1.798812e+05  -2.732831e+06
   2.506995e+06  -1.123055e+06
   3.457796e+06   1.352761e+06
   2.159184e+06   2.979825e+06
  -1.831270e+05   2.902921e+06
  -1.508791e+06   1.769349e+06
  -1.366643e+06   9.214247e+05
  -1.313691e+06   8.392922e+05
  -2.514360e+06   6.878676e+05
  -3.837244e+06  -4.600384e+05
  -3.167768e+06  -2.348605e+06
  -1.941501e+05  -3.734200e+06
   2.968667e+06  -3.551937e+06
   3.941931e+06  -1.736194e+06
   2.346964e+06   6.917573e+05
  -8.977813e+04   2.138534e+06
  -1.261070e+06   1.610654e+06
  -4.782370e+05  -1.477458e+05
   1.087111e+06  -1.141179e+06
   1.654156e+06  -3.301387e+05
   6.852454e+05   1.037327e+06
  -5.779131e+05   1.031350e+06
  -5.982721e+05  -3.165950e+05
   6.492807e+05  -9.659801e+05
   1.697969e+06   4.234128e+05
   1.256947e+06   2.670022e+06
  -5.592574e+05   3.445810e+06
  -2.546324e+06   1.870708e+06
  -3.432478e+06  -7.920024e+05
  -2.622667e+06  -2.615353e+06
  -5.897738e+05  -2.651661e+06
   1.232526e+06  -1.388415e+06
   1.521302e+06  -1.438301e+05
   4.561589e+05   4.094218e+04
  -3.437160e+05  -6.827171e+05
   2.917878e+05  -1.153665e+06
   1.593546e+06  -5.366938e+05
   1.804677e+06   6.570393e+05
   4.423854e+05   1.188791e+06
  -1.034400e+06   5.829243e+05
  -9.442428e+05  -3.952026e+05
   6.909060e+05  -6.872849e+05
   2.185578e+06   2.979110e+04
   1.930902e+06   1.233310e+06
  -5.660671e+04   2.031226e+06
  -2.153091e+06   1.712431e+06
  -2.596939e+06   3.253154e+05
  -1.118673e+06  -1.086785e+06
   7.818127e+05  -1.275790e+06
   1.299605e+06  -1.579981e+05
   1.196351e+05   9.199861e+05
  -1.364844e+06   6.641674e+05
  -1.605836e+06  -6.407403e+05
  -4.512057e+05  -1.508876e+06
   8.961320e+05  -1.040468e+06
   1.203810e+06   1.214981e+05
   3.502533e+05   6.687757e+05
  -6.591402e+05   8.270064e+04
  -6.548746e+05  -9.446646e+05
   5.550330e+05  -1.294841e+06
   1.862249e+06  -4.681986e+05
   1.862566e+06   9.796667e+05
   3.675784e+05   1.892736e+06
  -1.269909e+06   1.527079e+06
  -1.574117e+06   2.580573e+05
  -5.245003e+05  -7.718259e+05
   5.736923e+05  -7.831999e+05
   6.584737e+05  -6.916733e+04
  -4.510657e+04   4.647053e+05
  -5.579101e+05   3.318915e+05
  -3.256333e+05  -9.569720e+04
   3.070589e+05  -1.161332e+05
   5.493221e+05   4.691664e+05
  -7.465493e+04   1.075014e+06
  -1.232551e+06   8.702757e+05
  -1.929790e+06  -3.458100e+05
  -1.364483e+06  -1.780320e+06
   1.857349e+05  -2.276714e+06
   1.507090e+06  -1.421689e+06
   1.670097e+06   2.867281e+04
   9.524793e+05   9.185083e+05
   3.459629e+05   8.282058e+05
   3.271721e+05   3.387240e+05
   4.438687e+05   2.334258e+05
   7.030384e+04   6.162245e+05
  -7.608697e+05   8.697641e+05
  -1.371099e+06   3.900069e+05
  -1.086094e+06  -6.890279e+05
   1.524667e+05  -1.477907e+06
   1.605836e+06  -1.097177e+06
   2.143363e+06   4.073832e+05
   1.141395e+06   1.920609e+06
  -8.111719e+05   2.199967e+06
  -2.274054e+06   1.058176e+06
  -2.247354e+06  -4.762941e+05
  -1.064821e+06  -1.232816e+06
   9.537667e+04  -1.022321e+06
   4.580121e+05  -6.070705e+05
   2.486457e+05  -6.842859e+05
   1.759682e+05  -1.103901e+06
   5.832445e+05  -1.118698e+06
   1.143438e+06  -2.776199e+05
   1.224314e+06   1.008139e+06
   5.151430e+05   1.766997e+06
  -5.864067e+05   1.341851e+06
  -1.208741e+06   2.973511e+04
  -7.970163e+05  -1.135419e+06
   2.665664e+05  -1.293277e+06
   9.784335e+05  -4.895831e+05
   7.479116e+05   4.837941e+05
   3.454915e+03   9.129271e+05
  -3.546326e+05   7.513794e+05
  -1.995447e+04   4.445205e+05
   3.791225e+05   3.404998e+05
   4.094510e+04   3.690566e+05
  -1.019086e+06   2.214579e+05
  -1.854096e+06  -2.663893e+05
  -1.510893e+06  -9.060447e+05
  -5.995410e+04  -1.270940e+06
   1.370475e+06  -1.043412e+06
   1.666779e+06  -3.333554e+05
   8.116729e+05   3.403393e+05
  -1.934936e+05   4.780800e+05
  -4.456160e+05   8.158966e+04
   3.533070e+03  -3.233100e+05
   4.477046e+05  -2.222907e+05
   4.365943e+05   3.183128e+05
   1.556644e+05   6.955906e+05
   1.325081e+04   4.510042e+05
   1.374215e+05  -1.466289e+05
   3.234766e+05  -3.450516e+05
   2.739163e+05   2.055580e+05
  -1.678379e+05   9.480526e+05
  -8.277686e+05   9.823559e+05
  -1.170065e+06   1.160794e+05
  -7.013917e+05  -8.501904e+05
   3.806005e+05  -9.863642e+05
   1.114036e+06  -2.413977e+05
   6.737750e+05   5.573626e+05
  -6.304055e+05   6.255923e+05
  -1.520235e+06  -3.492356e+04
  -1.053938e+06  -7.798025e+05
   3.667234e+05  -9.958276e+05
   1.421360e+06  -5.713921e+05
   1.228844e+06   1.116729e+05
   1.706097e+05   5.000533e+05
  -5.967007e+05   2.947035e+05
  -3.350894e+05  -2.471439e+05
   5.819096e+05  -4.518232e+05
   1.098784e+06   1.300422e+05
   5.604582e+05   1.132537e+06
  -6.303382e+05   1.565325e+06
  -1.427567e+06   7.808671e+05
  -1.176525e+06  -7.370878e+05
  -1.843452e+05  -1.701326e+06
   6.946372e+05  -1.261439e+06
   8.867947e+05   1.146091e+05
   4.612869e+05   1.114783e+06
  -1.395581e+05   9.512384e+05
  -5.102001e+05   1.090538e+05
  -4.870596e+05  -3.657714e+05
  -2.059973e+05  -1.465248e+05
  -2.593032e+04   1.064874e+05
  -1.911592e+05  -2.402606e+05
  -4.558975e+05  -8.927263e+05
  -2.455408e+05  -1.028370e+06
   6.010753e+05  -3.873729e+05
   1.401923e+06   4.354675e+05
   1.267529e+06   7.854282e+05
   1.839827e+05   6.454416e+05
  -8.529241e+05   3.909162e+05
  -9.461168e+05   1.935921e+05
  -2.985068e+05  -1.823590e+04
   1.559198e+05  -2.073125e+05
  -2.466692e+04  -2.236797e+05
  -3.108537e+05  -1.230702e+05
  -2.369950e+04  -1.286193e+05
   6.879830e+05  -1.978827e+05
   9.766535e+05   2.918587e+04
   3.178041e+05   6.394777e+05
  -8.490569e+05   1.069827e+06
  -1.557362e+06   6.665624e+05
  -1.251832e+06  -4.395042e+05
  -2.336530e+05  -1.332562e+06
   7.063328e+05  -1.273221e+06
   9.854555e+05  -4.648513e+05
   6.239911e+05   2.520571e+05
   1.001566e+05   3.356586e+05
  -1.161307e+05   2.707421e+04
   5.820988e+04  -5.543678e+04
   3.095092e+05   3.289901e+05
   2.548401e+05   7.602934e+05
  -1.807315e+05   6.259159e+05
  -6.507636e+05  -1.527875e+05
  -6.595978e+05  -9.319260e+05
  -4.660272e+04  -9.626608e+05
   7.401462e+05  -1.791300e+05
   9.533939e+05   7.269970e+05
   2.908039e+05   1.021068e+06
  -6.792512e+05   5.961481e+05
  -1.024570e+06  -8.682710e+04
  -4.689194e+05  -5.396842e+05
   2.663184e+05  -5.887933e+05
   3.135483e+05  -3.344873e+05
  -2.795963e+05  -2.814629e+04
  -6.229004e+05   2.798205e+04
  -1.210157e+05  -2.802484e+05
   7.770347e+05  -6.433127e+05
   1.144498e+06  -5.420275e+05
   6.695785e+05   1.299858e+05
  -9.587677e+04   7.979460e+05
  -4.788041e+05   7.850355e+05
  -3.528709e+05   1.181927e+05
  -2.453955e+04  -4.693067e+05
   2.339808e+05  -3.832339e+05
   3.326072e+05   1.804370e+05
   2.311229e+05   5.445077e+05
  -6.094440e+04   3.631774e+05
  -3.652395e+05  -6.090735e+04
  -4.322980e+05  -2.353197e+05
  -2.276694e+05  -6.505040e+04
   1.151124e+04   1.081728e+05
   7.807294e+04  -2.663694e+04
   4.754367e+04  -3.579951e+05
   1.289771e+05  -4.699592e+05
   3.251052e+05  -1.286684e+05
   3.740400e+05   4.056996e+05
   7.250769e+04   6.143391e+05
  -4.049663e+05   2.739290e+05
  -5.957202e+05  -2.910101e+05
  -2.158838e+05  -5.557325e+05
   4.652120e+05  -3.364662e+05
   8.045003e+05   9.101784e+04
   4.370726e+05   3.567792e+05
  -2.764653e+05   3.446860e+05
  -5.893845e+05   1.753295e+05
  -2.032090e+05   1.061243e+04
   3.698011e+05  -2.983816e+04
   3.997752e+05   1.066856e+05
  -1.956792e+05   2.999532e+05
  -7.591633e+05   2.508367e+05
