
 $NMID
 id='ANONYMOUS ', fmtdat='(2E16.6)'
 volume=1.0
 tramp=1.0
 $END
   1.720353e+07   1.097965e+05
   1.185739e+07   7.577247e+06
   5.118943e+05   1.082723e+07
  -7.366559e+06   7.943957e+06
  -6.710369e+06   1.356786e+06
  -7.231353e+05  -3.245924e+06
   3.732376e+06  -2.030414e+06
   3.117500e+06   2.809050e+06
  -6.337035e+05   5.318241e+06
  -3.399795e+06   2.508452e+06
  -2.967536e+06  -2.381585e+06
  -3.243720e+05  -3.917851e+06
   1.810246e+06  -7.111599e+05
   1.426172e+06   3.408760e+06
  -1.055166e+06   3.971080e+06
  -3.077535e+06   4.999754e+05
  -2.352860e+06  -3.528484e+06
   7.323848e+05  -4.524494e+06
   3.394826e+06  -2.095471e+06
   3.367556e+06   1.131005e+06
   1.246686e+06   2.458329e+06
  -3.657623e+05   1.692154e+06
   1.571366e+05   8.375105e+05
   1.728254e+06   1.501436e+06
   1.823673e+06   3.023310e+06
  -6.815971e+05   3.390255e+06
  -4.043776e+06   1.663324e+06
  -5.136091e+06  -9.768238e+05
  -2.640076e+06  -2.512048e+06
   1.281859e+06  -1.965909e+06
   2.944569e+06  -2.992236e+04
   9.831499e+05   1.642119e+06
  -2.198094e+06   1.613750e+06
  -3.194729e+06  -2.573075e+05
  -1.352427e+06  -2.449685e+06
   9.383424e+05  -2.887772e+06
   1.393804e+06  -1.058001e+06
   2.558380e+05   1.127774e+06
  -6.545713e+05   1.250185e+06
  -3.203860e+05  -7.704671e+05
   7.356676e+05  -2.430015e+06
   1.492905e+06  -1.592618e+06
   1.349992e+06   8.922173e+05
   2.716152e+05   2.180961e+06
  -1.096981e+06   8.091412e+05
  -1.467712e+06  -1.663534e+06
   3.011202e+04  -2.527788e+06
   2.460769e+06  -8.747517e+05
   3.464372e+06   1.685283e+06
   1.682939e+06   2.892709e+06
  -1.491996e+06   1.961184e+06
  -3.194585e+06  -3.564598e+04
  -2.065276e+06  -1.397452e+06
   4.674636e+05  -1.254489e+06
   1.882460e+06  -1.059756e+05
   1.145670e+06   7.933317e+05
  -5.245658e+05   6.066555e+05
  -1.178904e+06  -3.562735e+05
  -1.948129e+05  -1.014481e+06
   1.154460e+06  -6.315051e+05
   1.139673e+06   4.366143e+05
  -4.312364e+05   1.082377e+06
  -1.839722e+06   5.028321e+05
  -1.287897e+06  -1.020712e+06
   1.033973e+06  -2.273158e+06
   3.078561e+06  -2.066118e+06
   3.155326e+06  -2.766798e+05
   1.599409e+06   1.931373e+06
   5.479605e+04   3.061330e+06
  -4.765326e+05   2.640588e+06
  -4.236417e+05   1.564520e+06
  -6.916207e+05   9.523144e+05
  -1.471227e+06   8.232958e+05
  -2.130926e+06   2.631542e+05
  -1.949034e+06  -1.092507e+06
  -7.734792e+05  -2.229213e+06
   8.052550e+05  -1.808713e+06
   1.752761e+06   1.226159e+05
   1.298298e+06   1.937820e+06
  -3.239041e+05   2.059486e+06
  -1.871623e+06   5.189262e+05
  -2.123111e+06  -1.251602e+06
  -1.031523e+06  -1.954296e+06
   2.810652e+05  -1.523578e+06
   7.730842e+05  -8.266721e+05
   5.940722e+05  -5.930237e+05
   7.658502e+05  -7.446116e+05
   1.779027e+06  -6.211464e+05
   2.759203e+06   2.745087e+05
   2.292635e+06   1.702894e+06
   1.064843e+05   2.757457e+06
  -2.315594e+06   2.559403e+06
  -3.049735e+06   1.057754e+06
  -1.664984e+06  -7.725100e+05
   3.482416e+05  -1.640827e+06
   1.141552e+06  -1.054228e+06
   3.243460e+05   1.970930e+05
  -8.944097e+05   7.818484e+05
  -1.175853e+06   1.855240e+05
  -3.808712e+05  -7.392973e+05
   5.243160e+05  -7.580254e+05
   5.769373e+05   2.279916e+05
  -2.951950e+05   9.316625e+05
  -1.272373e+06   1.515137e+05
  -1.332521e+06  -1.684254e+06
  -9.573991e+04  -2.791309e+06
   1.740926e+06  -1.912345e+06
   2.819732e+06   3.243298e+05
   2.249726e+06   2.080032e+06
   4.871517e+05   2.165851e+06
  -1.014414e+06   1.032091e+06
  -1.183139e+06   2.498483e+04
  -3.409550e+05  -4.055400e+04
   2.504710e+05   5.107193e+05
  -1.811724e+05   8.011057e+05
  -1.090035e+06   3.710118e+05
  -1.289113e+06  -4.201371e+05
  -3.661950e+05  -8.203143e+05
   7.551691e+05  -4.519175e+05
   7.821057e+05   3.023227e+05
  -4.731364e+05   6.421873e+05
  -1.757358e+06   1.057678e+05
  -1.634970e+06  -9.608567e+05
  -2.445331e+04  -1.666360e+06
   1.667821e+06  -1.356947e+06
   1.974410e+06  -2.326121e+05
   8.095780e+05   7.813979e+05
  -5.642698e+05   8.607016e+05
  -8.772130e+05   8.027690e+04
  -2.516333e+04  -6.345756e+05
   1.009206e+06  -4.547295e+05
   1.200145e+06   4.591422e+05
   4.003355e+05   1.129187e+06
  -6.186308e+05   8.565409e+05
  -9.310488e+05  -2.783093e+03
  -3.345780e+05  -4.740290e+05
   4.411050e+05  -7.214946e+04
   4.503881e+05   6.987907e+05
  -4.589701e+05   9.381588e+05
  -1.404537e+06   2.832015e+05
  -1.354567e+06  -7.801371e+05
  -2.407223e+05  -1.404685e+06
   9.407327e+05  -1.119161e+06
   1.168439e+06  -2.021557e+05
   4.177483e+05   5.685488e+05
  -4.226775e+05   6.019373e+05
  -5.449076e+05   3.370044e+04
   2.176560e+03  -4.402756e+05
   5.006700e+05  -3.301935e+05
   3.890985e+05   1.093728e+05
  -1.618714e+05   2.141529e+05
  -4.535816e+05  -2.580285e+05
  -2.362365e+03  -7.887527e+05
   9.095089e+05  -6.531566e+05
   1.438079e+06   2.763965e+05
   9.856667e+05   1.349614e+06
  -1.822224e+05   1.723884e+06
  -1.172003e+06   1.108681e+06
  -1.325948e+06  -1.134804e+03
  -8.002059e+05  -7.764049e+05
  -2.694847e+05  -7.872993e+05
  -1.521148e+05  -3.528595e+05
  -2.321075e+05  -1.407667e+05
  -3.121294e+04  -3.975871e+05
   5.545938e+05  -6.595222e+05
   1.058294e+06  -3.223700e+05
   8.764499e+05   5.579612e+05
  -9.587821e+04   1.193559e+06
  -1.237569e+06   8.570976e+05
  -1.638979e+06  -3.273877e+05
  -8.754852e+05  -1.448841e+06
   5.699141e+05  -1.637713e+06
   1.672028e+06  -8.150175e+05
   1.724650e+06   3.150786e+05
   8.959361e+05   9.476324e+05
  -3.174230e+04   8.695563e+05
  -4.299321e+05   5.359544e+05
  -3.263307e+05   4.914321e+05
  -2.110785e+05   7.440501e+05
  -4.336418e+05   7.717528e+05
  -8.227845e+05   1.702081e+05
  -8.817820e+05  -7.880880e+05
  -3.431152e+05  -1.343032e+06
   4.781421e+05  -9.976063e+05
   9.190490e+05  -1.617675e+04
   6.034907e+05   8.315849e+05
  -1.618120e+05   9.647009e+05
  -6.769952e+05   4.279470e+05
  -5.510839e+05  -2.637564e+05
  -6.775607e+04  -6.275016e+05
   1.821239e+05  -5.777433e+05
  -1.484339e+04  -3.764064e+05
  -2.585102e+05  -2.842600e+05
  -1.083494e+04  -2.865897e+05
   7.363040e+05  -1.622566e+05
   1.341288e+06   2.116269e+05
   1.120055e+06   6.749961e+05
   8.516006e+04   9.135019e+05
  -9.765002e+05   7.420417e+05
  -1.236035e+06   2.658955e+05
  -6.315152e+05  -1.903860e+05
   1.197266e+05  -3.192152e+05
   3.164155e+05  -8.771592e+04
  -3.169747e+04   1.923127e+05
  -3.671600e+05   1.415133e+05
  -3.116568e+05  -2.497801e+05
  -4.032601e+04  -5.406269e+05
   5.707399e+04  -3.405551e+05
  -1.156593e+05   1.491652e+05
  -3.001302e+05   3.027828e+05
  -2.138687e+05  -1.536307e+05
   1.770845e+05  -7.288452e+05
   6.390262e+05  -7.105481e+05
   8.083479e+05  -2.641893e+04
   4.377687e+05   6.526903e+05
  -3.041015e+05   6.766510e+05
  -7.986232e+05   1.008257e+05
  -4.843658e+05  -4.534679e+05
   4.725408e+05  -4.715934e+05
   1.174419e+06   2.417632e+04
   8.619748e+05   5.975772e+05
  -2.390849e+05   7.984850e+05
  -1.105686e+06   4.887725e+05
  -9.839928e+05  -6.642495e+04
  -1.499781e+05  -3.975849e+05
   4.507685e+05  -2.406831e+05
   2.289392e+05   1.727196e+05
  -4.762010e+05   2.961942e+05
  -8.173490e+05  -1.691020e+05
  -3.387286e+05  -8.884770e+05
   5.784895e+05  -1.138985e+06
   1.127012e+06  -5.108835e+05
   8.670794e+05   6.101715e+05
   8.811154e+04   1.307088e+06
  -5.602989e+05   9.724975e+05
  -6.839178e+05  -6.983967e+04
  -3.650151e+05  -8.538788e+05
   7.801456e+04  -7.516630e+05
   3.755063e+05  -9.415379e+04
   3.987024e+05   3.004555e+05
   1.943718e+05   1.324024e+05
   6.860775e+03  -9.449949e+04
   8.050656e+04   1.538932e+05
   3.025957e+05   6.746862e+05
   2.124639e+05   7.997537e+05
  -4.076071e+05   2.930063e+05
  -1.062630e+06  -3.670347e+05
  -9.920755e+05  -6.304515e+05
  -1.305313e+05  -4.845926e+05
   6.994439e+05  -2.676996e+05
   7.401657e+05  -1.386314e+05
   1.918757e+05  -6.418679e+03
  -1.401065e+05   1.477368e+05
   6.145273e+04   1.987105e+05
   2.841597e+05   1.339184e+05
  -6.711171e+03   1.000776e+05
  -5.831521e+05   1.062773e+05
  -7.308922e+05  -6.668627e+04
  -1.432951e+05  -4.799141e+05
   7.240264e+05  -7.488360e+05
   1.160195e+06  -4.196500e+05
   8.654923e+05   3.976971e+05
   1.138181e+05   1.023602e+06
  -5.583647e+05   9.243000e+05
  -7.566441e+05   2.845808e+05
  -4.701364e+05  -2.404142e+05
  -4.226981e+04  -2.547362e+05
   1.329561e+05   1.726961e+04
  -3.059669e+04   7.718237e+04
  -2.496278e+05  -2.437393e+05
  -1.904893e+05  -5.839133e+05
   1.667207e+05  -4.556440e+05
   4.955782e+05   1.727642e+05
   4.350793e+05   7.594399e+05
  -5.386357e+04   7.205146e+05
  -5.941229e+05   5.928944e+04
  -6.771363e+05  -6.270769e+05
  -1.519787e+05  -7.770195e+05
   5.397848e+05  -3.894083e+05
   7.453920e+05   1.135738e+05
   3.090388e+05   3.872930e+05
  -2.150454e+05   3.898971e+05
  -2.058409e+05   2.335908e+05
   2.552560e+05   5.102887e+04
   4.834289e+05   8.048673e+03
   6.649534e+04   2.061053e+05
  -6.092428e+05   4.665918e+05
  -8.456841e+05   4.081655e+05
  -4.576914e+05  -8.207321e+04
   1.026472e+05  -5.812305e+05
   3.471409e+05  -5.602899e+05
   2.229569e+05  -4.631203e+04
  -2.307133e+04   3.732406e+05
  -1.974827e+05   2.559790e+05
  -2.455404e+05  -1.891436e+05
  -1.490251e+05  -4.207462e+05
   6.797688e+04  -2.338862e+05
   2.711040e+05   7.694165e+04
   3.053740e+05   1.632542e+05
   1.706369e+05   3.116720e+04
   1.437196e+04  -4.852569e+04
  -6.268048e+04   8.478905e+04
  -1.076303e+05   2.926321e+05
  -1.937819e+05   3.006578e+05
  -2.726856e+05   8.307945e+03
  -2.101964e+05  -3.667625e+05
   4.166759e+04  -4.696142e+05
   3.360396e+05  -1.705105e+05
   4.100860e+05   2.678911e+05
   1.205284e+05   4.434428e+05
  -3.507153e+05   2.316564e+05
  -5.785126e+05  -1.157191e+05
  -3.045579e+05  -2.858712e+05
   2.199016e+05  -2.187590e+05
   4.383999e+05  -7.273525e+04
   1.206133e+05   4.606028e+03
  -3.249331e+05  -2.717396e+04
  -3.139130e+05  -1.432441e+05
   1.980279e+05  -2.456370e+05
   6.447006e+05  -1.566684e+05
