
 $NMID
 id='ANONYMOUS ', fmtdat='(2E16.6)'
 volume=1.0
 tramp=1.0
 $END
  -5.530902e+07  -7.512378e+05
  -3.282112e+07  -3.450134e+07
   7.679114e+06  -3.722933e+07
   2.715441e+07  -1.418644e+07
   1.610877e+07   6.874113e+06
  -3.268413e+06   9.103700e+06
  -9.626371e+06  -1.181497e+06
  -2.721676e+06  -9.572849e+06
   6.089690e+06  -9.198553e+06
   9.486995e+06  -1.948520e+06
   6.841671e+06   6.189289e+06
   7.207537e+05   8.525412e+06
  -3.989569e+06   2.648371e+06
  -2.583684e+06  -5.458890e+06
   3.737254e+06  -6.485998e+06
   7.730944e+06   1.352118e+06
   4.292422e+06   1.008026e+07
  -3.823811e+06   1.157583e+07
  -1.000785e+07   5.692110e+06
  -1.060136e+07  -2.177248e+06
  -6.370913e+06  -7.460452e+06
  -5.222906e+05  -8.463201e+06
   2.900079e+06  -5.834082e+06
   1.718108e+06  -2.614102e+06
  -1.188575e+06  -2.230006e+06
  -2.011851e+05  -4.234150e+06
   5.483674e+06  -4.317321e+06
   9.637407e+06  -3.524067e+05
   6.920903e+06   4.200046e+06
   1.197718e+05   5.026536e+06
  -3.799404e+06   2.477271e+06
  -2.478287e+06  -1.019608e+05
   6.910660e+05  -1.031647e+06
   2.393812e+06  -4.847325e+05
   2.220396e+06   1.531332e+06
   6.055479e+05   3.988231e+06
  -1.866073e+06   3.774332e+06
  -3.155139e+06  -2.176113e+05
  -1.572956e+06  -3.623515e+06
   8.182486e+05  -1.805717e+06
   2.943944e+05   2.531003e+06
  -2.468595e+06   2.299134e+06
  -2.396631e+06  -3.150524e+06
   2.396430e+06  -5.989523e+06
   6.766614e+06  -9.170362e+05
   4.923852e+06   6.841534e+06
  -1.954691e+06   8.333333e+06
  -7.331505e+06   2.291702e+06
  -6.854495e+06  -4.451213e+06
  -1.821844e+06  -5.988281e+06
   3.453361e+06  -2.694294e+06
   5.233012e+06   1.511887e+06
   2.421954e+06   3.452578e+06
  -2.375136e+06   2.156453e+06
  -4.457283e+06  -9.328950e+05
  -1.912145e+06  -2.684864e+06
   1.701419e+06  -1.335070e+06
   1.735940e+06   1.022013e+06
  -1.260499e+06   9.191319e+05
  -2.413482e+06  -1.674971e+06
   5.780512e+05  -3.308708e+06
   4.497818e+06  -1.822421e+06
   5.184852e+06   1.337335e+06
   2.257476e+06   3.911019e+06
  -1.853798e+06   5.198008e+06
  -5.063296e+06   4.760267e+06
  -6.188347e+06   1.647408e+06
  -4.493286e+06  -3.214302e+06
  -8.590420e+05  -6.152737e+06
   1.861755e+06  -4.735156e+06
   1.719704e+06  -1.249222e+06
   1.787069e+05   1.745992e+05
   6.468014e+04  -1.024742e+06
   1.706283e+06  -1.756335e+06
   2.863084e+06  -1.520040e+05
   2.016599e+06   2.024712e+06
  -2.796597e+04   2.202567e+06
  -1.617144e+06   1.977576e+05
  -1.703526e+06  -2.133102e+06
   3.019460e+04  -2.971691e+06
   2.809092e+06  -1.617548e+06
   4.453128e+06   1.266842e+06
   3.145004e+06   3.789450e+06
  -9.968414e+04   4.182087e+06
  -2.279845e+06   2.650367e+06
  -2.204032e+06   1.106890e+06
  -1.819487e+06   6.867242e+05
  -2.955346e+06   4.799245e+05
  -4.371891e+06  -7.852263e+05
  -3.496880e+06  -2.808634e+06
  -1.046958e+05  -4.170563e+06
   3.277526e+06  -3.920772e+06
   4.254089e+06  -2.100688e+06
   2.685899e+06   4.723418e+05
   2.375627e+05   2.279973e+06
  -1.152372e+06   1.943438e+06
  -5.704103e+05  -5.045054e+04
   1.121071e+06  -1.316115e+06
   1.929570e+06  -3.842341e+05
   9.111740e+05   1.227207e+06
  -5.412547e+05   1.128405e+06
  -4.454557e+05  -3.913871e+05
   1.055674e+06  -7.148603e+05
   1.854114e+06   1.264712e+06
   6.615931e+05   3.484160e+06
  -1.569573e+06   3.444403e+06
  -3.148007e+06   1.152833e+06
  -3.354426e+06  -1.446103e+06
  -2.318490e+06  -2.810436e+06
  -4.537624e+05  -2.662550e+06
   1.275844e+06  -1.478999e+06
   1.608702e+06  -2.153004e+05
   5.000526e+05   5.075642e+04
  -3.577731e+05  -7.665035e+05
   4.291205e+05  -1.352557e+06
   1.934548e+06  -5.674978e+05
   2.051554e+06   9.138728e+05
   3.801200e+05   1.435965e+06
  -1.193688e+06   5.714469e+05
  -9.048228e+05  -4.680730e+05
   8.597361e+05  -5.282271e+05
   2.215401e+06   3.309390e+05
   1.773121e+06   1.387962e+06
  -2.598770e+05   2.005991e+06
  -2.358876e+06   1.667585e+06
  -2.822104e+06   2.557100e+05
  -1.223839e+06  -1.294988e+06
   9.482571e+05  -1.513215e+06
   1.583201e+06  -1.749494e+05
   1.904842e+05   1.099571e+06
  -1.549016e+06   7.343375e+05
  -1.739797e+06  -8.088293e+05
  -3.309802e+05  -1.681197e+06
   1.114701e+06  -9.846245e+05
   1.274014e+06   3.248018e+05
   2.441597e+05   7.941675e+05
  -8.090705e+05   4.741917e+04
  -7.393023e+05  -1.079207e+06
   5.999990e+05  -1.445094e+06
   2.049869e+06  -5.342527e+05
   2.063005e+06   1.087888e+06
   3.715750e+05   2.115118e+06
  -1.480116e+06   1.658017e+06
  -1.757787e+06   1.980949e+05
  -5.031369e+05  -8.877039e+05
   6.771517e+05  -8.115513e+05
   6.471476e+05  -7.328790e+04
  -1.201861e+05   3.671209e+05
  -5.011750e+05   2.125482e+05
  -1.289182e+05  -6.377415e+04
   4.491728e+05   8.141060e+04
   5.182125e+05   6.845568e+05
  -2.202430e+05   1.203110e+06
  -1.413820e+06   8.979167e+05
  -2.114492e+06  -4.401611e+05
  -1.473511e+06  -1.991401e+06
   2.413746e+05  -2.462562e+06
   1.654359e+06  -1.424598e+06
   1.717735e+06   1.404456e+05
   8.685016e+05   9.178209e+05
   3.226536e+05   6.683527e+05
   4.849119e+05   2.321457e+05
   6.318985e+05   3.267354e+05
   8.328867e+04   7.775160e+05
  -8.985742e+05   9.078481e+05
  -1.474915e+06   3.186061e+05
  -1.062894e+06  -7.422376e+05
   2.643846e+05  -1.482381e+06
   1.759841e+06  -1.076768e+06
   2.282941e+06   5.107865e+05
   1.134757e+06   2.145487e+06
  -1.048204e+06   2.395801e+06
  -2.594191e+06   1.025270e+06
  -2.383953e+06  -6.901421e+05
  -9.616193e+05  -1.367112e+06
   2.143521e+05  -9.593997e+05
   3.983452e+05  -5.190043e+05
   8.792074e+04  -7.699474e+05
   1.196838e+05  -1.330394e+06
   6.950654e+05  -1.304218e+06
   1.319566e+06  -3.118513e+05
   1.352606e+06   1.111261e+06
   5.511482e+05   1.933172e+06
  -6.448209e+05   1.458008e+06
  -1.307852e+06  -1.288424e+04
  -8.143765e+05  -1.312275e+06
   4.095612e+05  -1.415260e+06
   1.184054e+06  -4.003006e+05
   8.155163e+05   7.167612e+05
  -1.366903e+05   1.090748e+06
  -5.522588e+05   7.879333e+05
  -8.886886e+04   4.211639e+05
   4.392264e+05   3.456210e+05
   5.838124e+04   3.909065e+05
  -1.170506e+06   2.029796e+05
  -2.096608e+06  -3.569449e+05
  -1.636220e+06  -1.068782e+06
   5.262779e+04  -1.458551e+06
   1.628427e+06  -1.145736e+06
   1.865266e+06  -2.659248e+05
   8.412683e+05   5.103522e+05
  -2.721242e+05   5.765388e+05
  -5.202711e+05   2.879539e+04
  -2.693447e+04  -4.307934e+05
   4.524382e+05  -2.612457e+05
   4.882521e+05   3.517673e+05
   2.560252e+05   7.391636e+05
   9.697525e+04   4.902961e+05
   1.387446e+05  -9.387465e+04
   2.826071e+05  -2.949061e+05
   2.778423e+05   2.384548e+05
  -1.486274e+05   1.003185e+06
  -9.234084e+05   1.079625e+06
  -1.393231e+06   1.691519e+05
  -8.659963e+05  -9.390019e+05
   4.320229e+05  -1.161041e+06
   1.287633e+06  -3.382380e+05
   7.450102e+05   5.869439e+05
  -7.202900e+05   6.536986e+05
  -1.613012e+06  -1.112926e+05
  -1.010092e+06  -8.850192e+05
   5.038438e+05  -9.967522e+05
   1.525004e+06  -4.686119e+05
   1.247071e+06   2.061751e+05
   1.300988e+05   5.219724e+05
  -6.632537e+05   2.659681e+05
  -3.911032e+05  -3.051234e+05
   5.965226e+05  -5.339526e+05
   1.207995e+06   8.219186e+04
   6.879306e+05   1.205669e+06
  -5.991184e+05   1.739652e+06
  -1.512949e+06   9.052109e+05
  -1.279110e+06  -7.734078e+05
  -2.012388e+05  -1.825376e+06
   7.592371e+05  -1.310413e+06
   9.387396e+05   1.910852e+05
   4.257041e+05   1.216525e+06
  -2.378414e+05   9.787469e+05
  -5.756340e+05   7.773373e+04
  -4.657219e+05  -3.837213e+05
  -1.576224e+05  -1.362870e+05
  -5.298233e+04   9.343625e+04
  -2.959413e+05  -3.111743e+05
  -5.198627e+05  -9.910353e+05
  -1.785600e+05  -1.095943e+06
   7.432326e+05  -3.947523e+05
   1.499719e+06   4.793576e+05
   1.289916e+06   8.562509e+05
   1.838971e+05   7.151963e+05
  -8.608051e+05   4.278052e+05
  -9.992576e+05   1.787957e+05
  -3.761103e+05  -6.371709e+04
   1.447251e+05  -2.317185e+05
   4.984365e+04  -1.998066e+05
  -2.560370e+05  -8.614309e+04
  -5.777842e+04  -1.359416e+05
   6.593150e+05  -2.490884e+05
   1.071257e+06   7.379084e+03
   4.655708e+05   7.131713e+05
  -8.445479e+05   1.215139e+06
  -1.748498e+06   7.838559e+05
  -1.464152e+06  -4.326545e+05
  -2.895891e+05  -1.433512e+06
   7.876997e+05  -1.410654e+06
   1.073362e+06  -5.631494e+05
   6.684693e+05   2.257561e+05
   1.450928e+05   3.672754e+05
  -5.727590e+04   8.115816e+04
   8.717290e+04  -3.746406e+03
   2.977307e+05   3.797868e+05
   2.457949e+05   8.243215e+05
  -1.783439e+05   6.988534e+05
  -6.940284e+05  -1.077884e+05
  -7.714727e+05  -9.577589e+05
  -1.439109e+05  -1.058278e+06
   7.583378e+05  -2.773262e+05
   1.069071e+06   7.140741e+05
   3.739055e+05   1.114328e+06
  -7.240945e+05   7.109246e+05
  -1.153994e+06  -6.674161e+04
  -5.557022e+05  -6.389627e+05
   2.940404e+05  -7.127050e+05
   4.036267e+05  -3.798721e+05
  -2.347111e+05   1.315759e+03
  -6.587534e+05   4.666066e+04
  -1.573365e+05  -3.185546e+05
   8.403774e+05  -6.941178e+05
   1.299314e+06  -5.403002e+05
   7.971159e+05   1.956489e+05
  -9.377446e+04   8.965809e+05
  -5.784754e+05   8.832437e+05
  -4.554414e+05   1.795250e+05
  -6.882966e+04  -4.822338e+05
   2.395105e+05  -4.574612e+05
   3.613939e+05   1.302531e+05
   2.658414e+05   5.881165e+05
  -4.826811e+04   4.541622e+05
  -4.014697e+05  -3.529444e+04
  -4.926889e+05  -2.976118e+05
  -2.472920e+05  -1.087447e+05
   4.378644e+04   1.687185e+05
   8.192362e+04   7.395442e+04
  -4.162584e+04  -3.518239e+05
   1.259981e+04  -5.870065e+05
   3.161480e+05  -2.611611e+05
   4.984490e+05   3.644104e+05
   1.989501e+05   6.613196e+05
  -4.061510e+05   3.349787e+05
  -6.953842e+05  -2.691337e+05
  -2.745250e+05  -5.774115e+05
   5.222104e+05  -3.796350e+05
   9.153060e+05   6.286815e+04
   4.984697e+05   3.825127e+05
  -2.986968e+05   4.262823e+05
  -6.586743e+05   2.558748e+05
  -2.719071e+05   2.237200e+04
   3.327991e+05  -9.104302e+04
   4.106326e+05   3.835757e+04
  -1.499305e+05   2.872560e+05
  -7.276179e+05   2.873353e+05
