
 $NMID
 id='ANONYMOUS ', fmtdat='(2E16.6)'
 volume=1.0
 tramp=1.0
 $END
  -5.882062e+07  -1.402231e+06
  -3.425208e+07  -3.787587e+07
   9.246887e+06  -3.980611e+07
   2.942129e+07  -1.396809e+07
   1.676363e+07   8.407129e+06
  -4.017471e+06   9.608907e+06
  -1.012859e+07  -1.976987e+06
  -2.238451e+06  -1.033226e+07
   6.971918e+06  -9.155741e+06
   1.006670e+07  -1.486170e+06
   6.988407e+06   6.570775e+06
   6.082707e+05   8.765106e+06
  -4.126330e+06   2.783647e+06
  -2.477224e+06  -5.430171e+06
   4.137466e+06  -6.378559e+06
   8.073778e+06   1.770624e+06
   4.193714e+06   1.070387e+07
  -4.333753e+06   1.205808e+07
  -1.064478e+07   5.858393e+06
  -1.121884e+07  -2.316203e+06
  -6.875624e+06  -7.940822e+06
  -6.317875e+05  -9.221467e+06
   3.373883e+06  -6.455020e+06
   2.441413e+06  -2.671326e+06
  -7.970684e+05  -1.856404e+06
  -2.817953e+05  -3.963808e+06
   5.307250e+06  -4.372866e+06
   9.684365e+06  -4.695322e+05
   7.154372e+06   4.256778e+06
   3.890886e+05   5.201692e+06
  -3.602919e+06   2.717954e+06
  -2.525631e+06   2.586210e+05
   2.986642e+05  -6.989890e+05
   1.927963e+06  -5.053409e+05
   2.111058e+06   1.185461e+06
   8.234810e+05   3.799377e+06
  -1.818362e+06   3.994693e+06
  -3.496458e+06   2.423446e+04
  -1.915223e+06  -3.799493e+06
   8.254647e+05  -2.240629e+06
   4.342759e+05   2.257584e+06
  -2.500259e+06   2.175856e+06
  -2.369441e+06  -3.419077e+06
   2.874355e+06  -6.302608e+06
   7.474931e+06  -8.109786e+05
   5.198510e+06   7.440142e+06
  -2.306026e+06   8.878883e+06
  -7.781818e+06   2.314934e+06
  -6.902404e+06  -4.777203e+06
  -1.561901e+06  -6.171288e+06
   3.636848e+06  -2.536262e+06
   5.176384e+06   1.825533e+06
   2.202892e+06   3.663777e+06
  -2.636790e+06   2.134351e+06
  -4.622302e+06  -1.154140e+06
  -1.870901e+06  -2.905808e+06
   1.831405e+06  -1.355495e+06
   1.675953e+06   1.118185e+06
  -1.521645e+06   8.048212e+05
  -2.490422e+06  -2.106833e+06
   9.553607e+05  -3.707201e+06
   5.061007e+06  -1.798067e+06
   5.476659e+06   1.712421e+06
   2.221752e+06   4.252373e+06
  -1.935352e+06   5.329537e+06
  -5.081759e+06   4.811104e+06
  -6.284601e+06   1.702633e+06
  -4.662220e+06  -3.241019e+06
  -8.617617e+05  -6.260267e+06
   2.096356e+06  -4.730496e+06
   1.911696e+06  -1.022408e+06
   6.612146e+04   4.606459e+05
  -2.634330e+05  -9.121124e+05
   1.425001e+06  -1.864048e+06
   2.743254e+06  -3.779436e+05
   2.031093e+06   1.782139e+06
   1.056784e+05   2.035278e+06
  -1.405228e+06   1.953689e+05
  -1.554047e+06  -1.997003e+06
   2.486317e+04  -2.867384e+06
   2.757203e+06  -1.652141e+06
   4.509398e+06   1.206708e+06
   3.264747e+06   3.872271e+06
  -9.538064e+04   4.382631e+06
  -2.436539e+06   2.792082e+06
  -2.387106e+06   1.095536e+06
  -1.911277e+06   5.723679e+05
  -2.951059e+06   3.321342e+05
  -4.292643e+06  -9.224276e+05
  -3.361163e+06  -2.859982e+06
   1.863515e+03  -4.076484e+06
   3.251751e+06  -3.757150e+06
   4.131649e+06  -2.028514e+06
   2.623682e+06   4.041445e+05
   3.010297e+05   2.181063e+06
  -1.067318e+06   1.915783e+06
  -5.635392e+05  -1.964440e+04
   1.083485e+06  -1.276533e+06
   1.915734e+06  -3.521422e+05
   9.197424e+05   1.229373e+06
  -5.133737e+05   1.081218e+06
  -3.573628e+05  -4.097499e+05
   1.163215e+06  -5.745359e+05
   1.805218e+06   1.523876e+06
   3.664524e+05   3.602962e+06
  -1.910842e+06   3.240527e+06
  -3.225693e+06   7.805952e+05
  -3.115739e+06  -1.666918e+06
  -2.014295e+06  -2.767751e+06
  -3.216956e+05  -2.516414e+06
   1.239154e+06  -1.395720e+06
   1.542190e+06  -1.984914e+05
   4.844122e+05   5.965021e+04
  -3.284754e+05  -7.561552e+05
   4.718358e+05  -1.337954e+06
   1.948938e+06  -5.181341e+05
   2.006196e+06   9.823320e+05
   3.149241e+05   1.447236e+06
  -1.189677e+06   5.140754e+05
  -8.277576e+05  -4.856477e+05
   8.852871e+05  -4.268478e+05
   2.094525e+06   4.643839e+05
   1.583551e+06   1.401238e+06
  -3.600847e+05   1.875507e+06
  -2.323611e+06   1.507884e+06
  -2.737182e+06   1.659080e+05
  -1.168373e+06  -1.311190e+06
   9.710936e+05  -1.493294e+06
   1.591108e+06  -1.497063e+05
   1.894810e+05   1.097616e+06
  -1.532027e+06   6.902404e+05
  -1.671065e+06  -8.499226e+05
  -2.394362e+05  -1.651489e+06
   1.147640e+06  -8.895750e+05
   1.222437e+06   4.017741e+05
   1.794850e+05   7.999526e+05
  -8.157161e+05   2.134779e+04
  -7.075081e+05  -1.072721e+06
   6.025213e+05  -1.399493e+06
   1.999069e+06  -4.907667e+05
   1.990037e+06   1.093793e+06
   3.157971e+05   2.072276e+06
  -1.493397e+06   1.581208e+06
  -1.722246e+06   1.355804e+05
  -4.508846e+05  -8.860549e+05
   6.882062e+05  -7.620127e+05
   6.042209e+05  -5.656383e+04
  -1.516151e+05   3.094161e+05
  -4.587119e+05   1.432007e+05
  -4.661216e+04  -5.906471e+04
   4.796269e+05   1.516210e+05
   4.696083e+05   7.324900e+05
  -2.790260e+05   1.176611e+06
  -1.409392e+06   8.306828e+05
  -2.045351e+06  -4.830014e+05
  -1.389570e+06  -1.970410e+06
   2.895689e+05  -2.374787e+06
   1.634547e+06  -1.309431e+06
   1.630358e+06   2.057847e+05
   7.651842e+05   8.821322e+05
   2.736806e+05   5.764569e+05
   5.029184e+05   1.823915e+05
   6.582166e+05   3.455580e+05
   7.350131e+04   7.891254e+05
  -9.101102e+05   8.525814e+05
  -1.430739e+06   2.467073e+05
  -9.753615e+05  -7.385090e+05
   3.191405e+05  -1.391264e+06
   1.729735e+06  -9.726572e+05
   2.185860e+06   5.579233e+05
   1.027177e+06   2.117804e+06
  -1.110489e+06   2.306731e+06
  -2.572178e+06   9.097147e+05
  -2.280535e+06  -7.684515e+05
  -8.419515e+05  -1.355285e+06
   2.667110e+05  -8.775906e+05
   3.663306e+05  -4.440777e+05
   3.629325e+04  -7.447934e+05
   1.096988e+05  -1.325432e+06
   7.117013e+05  -1.281178e+06
   1.306757e+06  -2.851707e+05
   1.296802e+06   1.102308e+06
   4.972217e+05   1.883530e+06
  -6.512061e+05   1.398992e+06
  -1.264281e+06  -5.033424e+04
  -7.505647e+05  -1.311211e+06
   4.601769e+05  -1.369389e+06
   1.197345e+06  -3.272454e+05
   7.844942e+05   7.709671e+05
  -1.941860e+05   1.090790e+06
  -6.045341e+05   7.492418e+05
  -1.180447e+05   3.876214e+05
   4.269171e+05   3.326186e+05
   5.392500e+04   3.750934e+05
  -1.157926e+06   1.658624e+05
  -2.051157e+06  -4.008093e+05
  -1.565085e+06  -1.090111e+06
   1.124650e+05  -1.439887e+06
   1.640505e+06  -1.089120e+06
   1.830045e+06  -1.948369e+05
   7.964628e+05   5.565656e+05
  -2.915982e+05   5.742525e+05
  -5.179460e+05   2.124257e+02
  -3.191787e+04  -4.424561e+05
   4.299119e+05  -2.500897e+05
   4.709226e+05   3.500461e+05
   2.632063e+05   7.102877e+05
   1.129332e+05   4.726945e+05
   1.347759e+05  -6.606101e+04
   2.583802e+05  -2.508353e+05
   2.584352e+05   2.412025e+05
  -1.508487e+05   9.571267e+05
  -9.190823e+05   1.032948e+06
  -1.389175e+06   1.585317e+05
  -8.564604e+05  -9.240243e+05
   4.405558e+05  -1.145765e+06
   1.273820e+06  -3.331646e+05
   7.138573e+05   5.736930e+05
  -7.206051e+05   6.123067e+05
  -1.547640e+06  -1.615076e+05
  -9.176947e+05  -8.910375e+05
   5.429482e+05  -9.306406e+05
   1.482071e+06  -3.751181e+05
   1.176070e+06   2.526590e+05
   9.747909e+04   5.019441e+05
  -6.529793e+05   2.281659e+05
  -3.833424e+05  -3.129701e+05
   5.724044e+05  -5.190091e+05
   1.169088e+06   8.002108e+04
   6.698261e+05   1.166345e+06
  -5.791905e+05   1.681522e+06
  -1.463658e+06   8.666897e+05
  -1.222695e+06  -7.607362e+05
  -1.624819e+05  -1.760752e+06
   7.605939e+05  -1.234036e+06
   8.986674e+05   2.241959e+05
   3.655691e+05   1.188318e+06
  -2.778029e+05   9.272456e+05
  -5.666083e+05   5.240100e+04
  -4.219359e+05  -3.769215e+05
  -1.270439e+05  -1.293622e+05
  -6.199116e+04   8.294724e+04
  -3.122080e+05  -3.193735e+05
  -4.945757e+05  -9.733544e+05
  -1.234236e+05  -1.059023e+06
   7.566240e+05  -3.635857e+05
   1.434254e+06   4.923915e+05
   1.203415e+06   8.545329e+05
   1.606354e+05   6.999982e+05
  -8.175929e+05   3.972935e+05
  -9.609209e+05   1.439734e+05
  -3.815695e+05  -8.081069e+04
   1.354411e+05  -2.227891e+05
   7.893695e+04  -1.808338e+05
  -2.169252e+05  -7.493560e+04
  -6.407367e+04  -1.299302e+05
   6.110226e+05  -2.374755e+05
   1.038153e+06   1.711274e+04
   4.787785e+05   6.991702e+05
  -8.095260e+05   1.175040e+06
  -1.720815e+06   7.498403e+05
  -1.441341e+06  -4.246630e+05
  -2.666432e+05  -1.384967e+06
   7.917617e+05  -1.360299e+06
   1.046260e+06  -5.454995e+05
   6.374344e+05   2.141152e+05
   1.461729e+05   3.570986e+05
  -3.176008e+04   9.214266e+04
   9.451860e+04   1.585764e+04
   2.692851e+05   3.813133e+05
   2.129709e+05   8.019072e+05
  -1.777574e+05   6.782566e+05
  -6.626254e+05  -9.723348e+04
  -7.456617e+05  -9.189915e+05
  -1.525443e+05  -1.026334e+06
   7.195672e+05  -2.809638e+05
   1.029598e+06   6.823139e+05
   3.618578e+05   1.083382e+06
  -7.053676e+05   6.955113e+05
  -1.127267e+06  -7.368498e+04
  -5.437498e+05  -6.432469e+05
   2.954016e+05  -7.086297e+05
   4.172499e+05  -3.682452e+05
  -2.026697e+05   5.232635e+03
  -6.311289e+05   3.847639e+04
  -1.558100e+05  -3.144570e+05
   8.234743e+05  -6.548875e+05
   1.286212e+06  -4.858777e+05
   7.927456e+05   2.184815e+05
  -1.015501e+05   8.748263e+05
  -5.929276e+05   8.564120e+05
  -4.656206e+05   1.855631e+05
  -7.126123e+04  -4.566184e+05
   2.330086e+05  -4.513685e+05
   3.446845e+05   1.101956e+05
   2.516815e+05   5.715350e+05
  -4.623846e+04   4.575438e+05
  -3.879568e+05  -3.055773e+04
  -4.805554e+05  -3.094233e+05
  -2.386726e+05  -1.221540e+05
   5.184167e+04   1.798120e+05
   8.090443e+04   1.074384e+05
  -6.394186e+04  -3.249250e+05
  -2.324138e+04  -5.880476e+05
   2.931691e+05  -2.862268e+05
   5.035334e+05   3.319139e+05
   2.208909e+05   6.362368e+05
  -3.857663e+05   3.280805e+05
  -6.820359e+05  -2.546788e+05
  -2.678234e+05  -5.527091e+05
   5.165684e+05  -3.634028e+05
   8.963588e+05   6.298030e+04
   4.830737e+05   3.758585e+05
  -2.936390e+05   4.242804e+05
  -6.449398e+05   2.586027e+05
  -2.799882e+05   2.251583e+04
   2.980562e+05  -9.925323e+04
   3.854994e+05   1.915360e+04
  -1.304531e+05   2.598531e+05
  -6.754553e+05   2.665013e+05
