
 $NMID
 id='ANONYMOUS ', fmtdat='(2E16.6)'
 volume=1.0
 tramp=1.0
 $END
   3.151401e+07   2.652305e+05
   2.013407e+07   1.704420e+07
  -1.934017e+06   2.064079e+07
  -1.460951e+07   1.104220e+07
  -1.063719e+07  -1.037517e+06
   4.087695e+05  -5.558544e+06
   6.114226e+06  -1.315531e+06
   3.440234e+06   5.330366e+06
  -2.437581e+06   7.286634e+06
  -5.792023e+06   2.689553e+06
  -4.601410e+06  -3.899955e+06
  -5.000956e+05  -5.906019e+06
   2.735904e+06  -1.426609e+06
   1.978120e+06   4.513696e+06
  -2.050848e+06   5.307366e+06
  -4.971401e+06  -1.165713e+04
  -3.290212e+06  -6.078350e+06
   1.807518e+06  -7.372344e+06
   5.943821e+06  -3.520461e+06
   6.104691e+06   1.608031e+06
   3.035312e+06   4.355735e+06
  -1.169040e+05   4.047333e+06
  -7.645870e+05   2.540960e+06
   8.741837e+05   2.089595e+06
   1.844449e+06   3.205381e+06
  -5.184090e+05   4.107384e+06
  -5.044072e+06   2.701458e+06
  -7.235733e+06  -7.021528e+05
  -4.340692e+06  -3.375982e+06
   1.004873e+06  -3.179239e+06
   3.595550e+06  -7.928813e+05
   1.567656e+06   1.376446e+06
  -2.036526e+06   1.628619e+06
  -3.375504e+06  -8.497220e+04
  -1.793181e+06  -2.506402e+06
   5.942748e+05  -3.623116e+06
   1.730831e+06  -2.054494e+06
   1.195783e+06   9.826368e+05
  -3.778106e+04   2.151540e+06
  -5.024977e+05  -6.674119e+04
   5.289363e+05  -2.783656e+06
   2.012815e+06  -2.026056e+06
   1.871005e+06   1.726330e+06
  -5.228007e+05   3.686733e+06
  -3.029251e+06   9.724550e+05
  -2.763782e+06  -3.506422e+06
   6.294211e+05  -4.699305e+06
   4.323376e+06  -1.442511e+06
   5.000165e+06   2.791120e+06
   1.950661e+06   4.270236e+06
  -2.319311e+06   2.460465e+06
  -4.277996e+06  -5.133964e+05
  -2.465881e+06  -2.246513e+06
   1.127193e+06  -1.719902e+06
   2.953406e+06   2.002815e+05
   1.553299e+06   1.497360e+06
  -9.611374e+05   9.224413e+05
  -1.517944e+06  -6.165046e+05
   2.374685e+05  -1.132233e+06
   1.722156e+06   3.849269e+03
   7.710032e+05   1.409830e+06
  -1.768041e+06   1.477580e+06
  -3.154539e+06  -3.097036e+03
  -1.775048e+06  -2.073029e+06
   1.438995e+06  -3.500407e+06
   4.130084e+06  -3.182380e+06
   4.537561e+06  -7.353464e+05
   2.720073e+06   2.598162e+06
   3.091574e+05   4.449981e+06
  -9.846046e+05   3.666683e+06
  -9.039469e+05   1.686901e+06
  -6.427969e+05   7.225380e+05
  -1.238835e+06   9.790934e+05
  -2.282168e+06   7.474111e+05
  -2.486166e+06  -8.606523e+05
  -1.253509e+06  -2.467001e+06
   6.786209e+05  -2.169840e+06
   1.945242e+06   4.878065e+04
   1.591700e+06   2.268037e+06
  -2.833184e+05   2.623567e+06
  -2.419259e+06   9.278671e+05
  -3.137483e+06  -1.431013e+06
  -1.832424e+06  -2.796958e+06
   2.614298e+05  -2.566083e+06
   1.351849e+06  -1.514680e+06
   1.185402e+06  -8.381911e+05
   1.208126e+06  -8.266117e+05
   2.396280e+06  -6.529216e+05
   3.642494e+06   4.865851e+05
   2.976841e+06   2.294799e+06
   1.071180e+05   3.578201e+06
  -2.946483e+06   3.323449e+06
  -3.847756e+06   1.514175e+06
  -2.206748e+06  -7.888712e+05
   2.191641e+05  -2.059875e+06
   1.302651e+06  -1.471909e+06
   4.440422e+05   1.759262e+05
  -1.088350e+06   1.050960e+06
  -1.571682e+06   2.713338e+05
  -5.981879e+05  -9.916535e+05
   6.009729e+05  -9.758080e+05
   6.121048e+05   3.115407e+05
  -5.790992e+05   9.901500e+05
  -1.632627e+06  -2.784776e+05
  -1.299266e+06  -2.491009e+06
   4.293899e+05  -3.385716e+06
   2.436959e+06  -1.929196e+06
   3.377138e+06   7.388248e+05
   2.569041e+06   2.609691e+06
   5.304409e+05   2.621659e+06
  -1.241317e+06   1.308082e+06
  -1.478883e+06   8.275074e+04
  -4.381155e+05  -5.071204e+04
   3.158350e+05   6.608157e+05
  -2.856642e+05   1.082047e+06
  -1.503772e+06   4.801142e+05
  -1.703162e+06  -6.351829e+05
  -4.197840e+05  -1.125204e+06
   9.947736e+05  -5.475973e+05
   9.235217e+05   3.978807e+05
  -6.637947e+05   6.890852e+05
  -2.141761e+06  -2.896491e+04
  -1.895215e+06  -1.236641e+06
   7.171172e+04  -2.000852e+06
   2.120098e+06  -1.630974e+06
   2.511917e+06  -2.626096e+05
   1.048421e+06   1.052227e+06
  -7.633987e+05   1.181377e+06
  -1.218421e+06   1.197491e+05
  -7.935939e+04  -8.652389e+05
   1.316789e+06  -6.001967e+05
   1.531444e+06   6.360695e+05
   4.293384e+05   1.458570e+06
  -8.618996e+05   1.012130e+06
  -1.166028e+06  -1.068529e+05
  -3.511051e+05  -6.391065e+05
   6.144886e+05  -7.128728e+04
   5.964270e+05   9.146261e+05
  -5.714682e+05   1.220429e+06
  -1.799254e+06   3.917518e+05
  -1.757001e+06  -9.900727e+05
  -3.080579e+05  -1.820356e+06
   1.243401e+06  -1.437498e+06
   1.514776e+06  -2.246837e+05
   5.008681e+05   7.471938e+05
  -5.611874e+05   7.480443e+05
  -6.500785e+05   4.938462e+04
   4.255300e+04  -4.751098e+05
   5.702912e+05  -3.331970e+05
   3.577188e+05   1.132185e+05
  -2.776134e+05   1.485220e+05
  -5.347688e+05  -4.319098e+05
   7.286870e+04  -1.027665e+06
   1.196738e+06  -8.137743e+05
   1.845377e+06   3.740410e+05
   1.266054e+06   1.741047e+06
  -2.346348e+05   2.190911e+06
  -1.489643e+06   1.354063e+06
  -1.631289e+06  -5.189642e+04
  -9.280663e+05  -9.321950e+05
  -3.191032e+05  -8.601152e+05
  -2.753199e+05  -3.644985e+05
  -3.884296e+05  -2.203247e+05
  -4.880465e+04  -5.726486e+05
   7.440612e+05  -8.249771e+05
   1.337365e+06  -3.576493e+05
   1.051479e+06   6.995026e+05
  -1.704185e+05   1.447761e+06
  -1.576942e+06   1.035364e+06
  -2.063463e+06  -4.397292e+05
  -1.068288e+06  -1.870219e+06
   8.066744e+05  -2.096050e+06
   2.194215e+06  -9.836961e+05
   2.166015e+06   4.845639e+05
   1.034476e+06   1.213501e+06
  -9.805162e+04   1.016575e+06
  -4.819678e+05   6.015137e+05
  -2.986814e+05   6.441734e+05
  -2.147661e+05   1.028916e+06
  -5.787464e+05   1.042501e+06
  -1.092054e+06   2.338264e+05
  -1.145999e+06  -1.001780e+06
  -4.483755e+05  -1.713477e+06
   6.007094e+05  -1.275903e+06
   1.166354e+06  -4.633512e+03
   7.475827e+05   1.099086e+06
  -2.667071e+05   1.237077e+06
  -9.307484e+05   4.740953e+05
  -7.077526e+05  -4.451042e+05
  -9.279102e+03  -8.589348e+05
   3.262049e+05  -7.212877e+05
   1.725169e+04  -4.419645e+05
  -3.493609e+05  -3.445442e+05
  -2.537382e+04  -3.592562e+05
   9.748333e+05  -1.928251e+05
   1.760953e+06   2.944431e+05
   1.431327e+06   8.971778e+05
   4.829175e+04   1.209217e+06
  -1.318645e+06   9.644503e+05
  -1.603702e+06   2.959599e+05
  -7.823254e+05  -3.197782e+05
   1.859906e+05  -4.429660e+05
   4.242571e+05  -7.929196e+04
  -1.906660e+04   2.942499e+05
  -4.457119e+05   1.973080e+05
  -4.090534e+05  -3.179809e+05
  -1.109274e+05  -6.782069e+05
   1.818149e+04  -4.344229e+05
  -1.397988e+05   1.516218e+05
  -3.373114e+05   3.397280e+05
  -2.616853e+05  -2.034884e+05
   1.974523e+05  -9.142999e+05
   8.204723e+05  -9.193615e+05
   1.102962e+06  -6.894289e+04
   6.282179e+05   8.351823e+05
  -3.903039e+05   9.196217e+05
  -1.062832e+06   1.843884e+05
  -6.304865e+05  -5.604180e+05
   6.177226e+05  -5.910310e+05
   1.473198e+06   6.094970e+04
   1.023490e+06   7.741883e+05
  -3.592187e+05   9.688453e+05
  -1.391218e+06   5.435881e+05
  -1.200764e+06  -1.244674e+05
  -1.622552e+05  -4.916799e+05
   5.800155e+05  -2.791044e+05
   3.098332e+05   2.390483e+05
  -5.809611e+05   4.087068e+05
  -1.051143e+06  -1.695099e+05
  -4.901117e+05  -1.112005e+06
   6.704987e+05  -1.481265e+06
   1.405928e+06  -6.992357e+05
   1.112618e+06   7.497507e+05
   1.290195e+05   1.649890e+06
  -7.045890e+05   1.209122e+06
  -8.570050e+05  -1.211392e+05
  -4.293241e+05  -1.086381e+06
   1.427344e+05  -9.247781e+05
   4.899387e+05  -9.941857e+04
   4.726120e+05   3.695604e+05
   2.087259e+05   1.522234e+05
   2.251625e+04  -1.070386e+05
   1.579538e+05   2.252986e+05
   4.086391e+05   8.681462e+05
   2.270392e+05   1.002869e+06
  -5.701836e+05   3.624421e+05
  -1.343740e+06  -4.580527e+05
  -1.218392e+06  -7.926195e+05
  -1.624045e+05  -6.242457e+05
   8.476850e+05  -3.514682e+05
   9.236607e+05  -1.664413e+05
   2.758629e+05   1.617869e+04
  -1.614479e+05   1.939386e+05
   3.419287e+04   2.263815e+05
   3.136320e+05   1.384279e+05
   1.177337e+04   1.251405e+05
  -6.878894e+05   1.629375e+05
  -9.376490e+05  -6.127014e+04
  -2.614082e+05  -6.205077e+05
   8.654393e+05  -9.946498e+05
   1.506726e+06  -5.850746e+05
   1.170499e+06   4.686108e+05
   1.792020e+05   1.293708e+06
  -7.123297e+05   1.200604e+06
  -9.618587e+05   4.067259e+05
  -5.956822e+05  -2.714053e+05
  -7.872322e+04  -3.253605e+05
   1.276804e+05  -1.087845e+04
  -5.263892e+04   6.433726e+04
  -2.973727e+05  -3.209885e+05
  -2.307349e+05  -7.400760e+05
   1.956442e+05  -5.934824e+05
   6.250449e+05   1.785759e+05
   5.966414e+05   9.283304e+05
  -2.912686e+03   9.256618e+05
  -7.279883e+05   1.331493e+05
  -8.903582e+05  -7.441886e+05
  -2.383659e+05  -9.908121e+05
   6.743143e+05  -5.410123e+05
   9.755267e+05   1.188404e+05
   4.262561e+05   5.214641e+05
  -2.720828e+05   5.433742e+05
  -2.974344e+05   3.097922e+05
   2.839899e+05   4.243480e+04
   6.049641e+05  -5.447278e+03
   1.029292e+05   2.703254e+05
  -7.678447e+05   5.988543e+05
  -1.105965e+06   5.007818e+05
  -6.263104e+05  -1.319023e+05
   1.171691e+05  -7.595567e+05
   4.706377e+05  -7.363580e+05
   3.272498e+05  -9.277137e+04
   8.333197e+02   4.589260e+05
  -2.395217e+05   3.534428e+05
  -3.151291e+05  -1.979521e+05
  -2.039230e+05  -5.319676e+05
   7.279952e+04  -3.349346e+05
   3.490371e+05   7.585364e+04
   4.049438e+05   2.295915e+05
   2.177363e+05   6.072456e+04
  -1.268844e+03  -9.303471e+04
  -7.704176e+04   4.625534e+04
  -7.678933e+04   3.514373e+05
  -1.655682e+05   4.317432e+05
  -3.246667e+05   8.773777e+04
  -3.282105e+05  -4.181064e+05
  -2.573490e+04  -5.949282e+05
   4.053869e+05  -2.440011e+05
   5.548618e+05   3.076382e+05
   1.831782e+05   5.473168e+05
  -4.540803e+05   3.078713e+05
  -7.632699e+05  -1.184176e+05
  -4.057409e+05  -3.572124e+05
   2.762906e+05  -3.127927e+05
   5.685454e+05  -1.378618e+05
   1.848276e+05  -2.303785e+03
  -3.721174e+05   5.053038e+03
  -3.871346e+05  -1.313242e+05
   2.110167e+05  -2.917586e+05
   7.600549e+05  -2.165160e+05
