
 $NMID
 id='ANONYMOUS ', fmtdat='(2E16.6)'
 volume=1.0
 tramp=1.0
 $END
  -3.757086e+07   1.410735e+06
  -2.425927e+07  -2.093212e+07
   2.629411e+06  -2.526299e+07
   1.754782e+07  -1.216678e+07
   1.201972e+07   2.583127e+06
  -1.123516e+06   6.515057e+06
  -6.950868e+06   5.902264e+05
  -3.197464e+06  -6.373587e+06
   3.303407e+06  -7.579109e+06
   6.614615e+06  -2.492501e+06
   5.226061e+06   4.187186e+06
   8.044642e+05   6.333548e+06
  -2.865304e+06   1.877491e+06
  -2.179525e+06  -4.391468e+06
   2.311802e+06  -5.405676e+06
   5.617683e+06   2.585414e+05
   3.704084e+06   6.901488e+06
  -2.023890e+06   8.421077e+06
  -6.744277e+06   4.347749e+06
  -7.300151e+06  -1.325546e+06
  -4.248681e+06  -4.897951e+06
  -4.272637e+05  -5.296818e+06
   1.271717e+06  -3.648883e+06
   7.809609e+04  -2.200939e+06
  -1.477796e+06  -2.558329e+06
   1.057563e+05  -3.780134e+06
   4.632604e+06  -3.202298e+06
   7.461337e+06  -2.908996e+04
   5.031528e+06   3.162558e+06
  -3.424624e+05   3.552388e+06
  -3.260312e+06   1.437384e+06
  -1.739925e+06  -7.092474e+05
   1.353771e+06  -1.255883e+06
   2.700170e+06  -1.694113e+05
   1.815565e+06   1.868513e+06
   6.521567e+03   3.406337e+06
  -1.502097e+06   2.560729e+06
  -1.802975e+06  -4.959724e+05
  -6.770935e+05  -2.433471e+06
   4.921881e+05  -6.533991e+05
  -1.250112e+05   2.426372e+06
  -1.946249e+06   2.021768e+06
  -2.009171e+06  -2.030277e+06
   9.738391e+05  -4.310535e+06
   4.120380e+06  -1.108756e+06
   3.552290e+06   4.266072e+06
  -7.875606e+05   5.704116e+06
  -4.983953e+06   1.868787e+06
  -5.391935e+06  -2.957745e+06
  -1.915407e+06  -4.492513e+06
   2.464748e+06  -2.440925e+06
   4.316440e+06   6.889987e+05
   2.347531e+06   2.435836e+06
  -1.423431e+06   1.813444e+06
  -3.286587e+06  -3.117834e+05
  -1.641573e+06  -1.747300e+06
   1.107198e+06  -1.049311e+06
   1.499636e+06   6.641484e+05
  -5.736243e+05   1.005944e+06
  -1.901155e+06  -5.441639e+05
  -3.275916e+05  -2.025574e+06
   2.567676e+06  -1.641273e+06
   3.689463e+06   3.249830e+05
   1.932915e+06   2.505501e+06
  -1.306666e+06   3.878560e+06
  -3.970615e+06   3.632674e+06
  -4.696070e+06   1.192280e+06
  -3.229341e+06  -2.455292e+06
  -6.705411e+05  -4.660376e+06
   1.083347e+06  -3.807672e+06
   1.103684e+06  -1.441808e+06
   4.407720e+05  -3.280048e+05
   6.770835e+05  -8.892007e+05
   1.811637e+06  -1.081362e+06
   2.385038e+06   3.386341e+05
   1.464656e+06   2.026445e+06
  -3.265777e+05   1.980270e+06
  -1.645294e+06   7.786785e+04
  -1.543211e+06  -1.978256e+06
   8.628537e+04  -2.519633e+06
   2.299586e+06  -1.177370e+06
   3.378055e+06   1.111636e+06
   2.270585e+06   2.817219e+06
  -4.368303e+04   2.938914e+06
  -1.488998e+06   1.877601e+06
  -1.426326e+06   9.405170e+05
  -1.315995e+06   7.610518e+05
  -2.388204e+06   6.155876e+05
  -3.623023e+06  -4.345234e+05
  -2.990726e+06  -2.191320e+06
  -2.096368e+05  -3.485414e+06
   2.708111e+06  -3.342779e+06
   3.602754e+06  -1.710761e+06
   2.196790e+06   5.290556e+05
   2.718595e+04   1.947277e+06
  -1.076976e+06   1.542936e+06
  -4.494075e+05  -9.739699e+04
   9.688603e+05  -1.084438e+06
   1.554488e+06  -3.433206e+05
   6.957085e+05   9.630099e+05
  -4.952218e+05   9.582167e+05
  -5.072376e+05  -3.066787e+05
   6.933126e+05  -8.373580e+05
   1.623627e+06   5.694027e+05
   1.057091e+06   2.639304e+06
  -7.271816e+05   3.176815e+06
  -2.476965e+06   1.568144e+06
  -3.128252e+06  -8.543571e+05
  -2.328286e+06  -2.407539e+06
  -5.217842e+05  -2.401587e+06
   1.107840e+06  -1.290327e+06
   1.391100e+06  -1.666098e+05
   4.244651e+05   3.255478e+04
  -3.241331e+05  -6.330106e+05
   2.759254e+05  -1.100736e+06
   1.516383e+06  -5.257382e+05
   1.710896e+06   6.258245e+05
   4.093178e+05   1.132521e+06
  -9.671584e+05   5.402970e+05
  -8.479915e+05  -3.685501e+05
   6.708199e+05  -5.944125e+05
   1.998982e+06   8.402350e+04
   1.723106e+06   1.146283e+06
  -8.687667e+04   1.840358e+06
  -1.984325e+06   1.565423e+06
  -2.403165e+06   3.122322e+05
  -1.058781e+06  -1.016840e+06
   7.216015e+05  -1.227725e+06
   1.241320e+06  -1.757531e+05
   1.444141e+05   8.690501e+05
  -1.267751e+06   6.392823e+05
  -1.498430e+06  -5.983466e+05
  -4.011307e+05  -1.407880e+06
   8.566803e+05  -9.460033e+05
   1.116288e+06   1.448601e+05
   3.028415e+05   6.362332e+05
  -6.324359e+05   7.820098e+04
  -6.258976e+05  -8.767089e+05
   4.946324e+05  -1.212936e+06
   1.721338e+06  -4.642744e+05
   1.746404e+06   8.851810e+05
   3.618488e+05   1.761560e+06
  -1.178425e+06   1.435209e+06
  -1.468711e+06   2.435238e+05
  -4.825117e+05  -7.210885e+05
   5.340857e+05  -7.245813e+05
   5.894795e+05  -6.927380e+04
  -6.207272e+04   3.981470e+05
  -4.935071e+05   2.695480e+05
  -2.425223e+05  -8.768314e+04
   3.247410e+05  -6.534575e+04
   5.049702e+05   4.764428e+05
  -8.857011e+04   1.012983e+06
  -1.150978e+06   8.134446e+05
  -1.797945e+06  -3.100434e+05
  -1.286691e+06  -1.643881e+06
   1.516433e+05  -2.108272e+06
   1.385682e+06  -1.306745e+06
   1.527643e+06   3.637065e+04
   8.485015e+05   8.260816e+05
   3.059505e+05   7.069166e+05
   3.325164e+05   2.683436e+05
   4.553816e+05   2.209894e+05
   8.052221e+04   5.971628e+05
  -7.138252e+05   8.102214e+05
  -1.267163e+06   3.510657e+05
  -9.848342e+05  -6.297115e+05
   1.540319e+05  -1.344897e+06
   1.482543e+06  -1.007891e+06
   1.980854e+06   3.687860e+05
   1.057780e+06   1.782095e+06
  -7.628695e+05   2.055977e+06
  -2.127094e+06   9.846377e+05
  -2.080151e+06  -4.566376e+05
  -9.542256e+05  -1.143394e+06
   1.104724e+05  -9.149789e+05
   3.984182e+05  -5.271211e+05
   1.736823e+05  -6.331861e+05
   1.226960e+05  -1.052713e+06
   5.349356e+05  -1.068476e+06
   1.072837e+06  -2.789563e+05
   1.152554e+06   9.189462e+05
   4.987820e+05   1.631364e+06
  -5.262128e+05   1.249434e+06
  -1.118433e+06   3.202598e+04
  -7.434837e+05  -1.062123e+06
   2.588819e+05  -1.208824e+06
   9.359065e+05  -4.392060e+05
   7.091376e+05   4.856769e+05
  -1.485844e+04   8.768363e+05
  -3.616237e+05   7.012426e+05
  -3.240286e+04   3.993767e+05
   3.613247e+05   3.028454e+05
   4.573863e+04   3.382165e+05
  -9.584068e+05   2.122767e+05
  -1.743670e+06  -2.350030e+05
  -1.412894e+06  -8.398574e+05
  -4.643627e+04  -1.200377e+06
   1.288546e+06  -9.936451e+05
   1.556022e+06  -3.094646e+05
   7.523141e+05   3.413201e+05
  -1.854083e+05   4.626182e+05
  -4.235977e+05   6.817669e+04
  -1.303742e+04  -3.183361e+05
   4.019527e+05  -2.156483e+05
   4.125881e+05   2.894448e+05
   1.748217e+05   6.333642e+05
   3.936882e+04   4.131176e+05
   1.262066e+05  -1.205915e+05
   2.817598e+05  -2.994838e+05
   2.518454e+05   1.923931e+05
  -1.362444e+05   8.716187e+05
  -7.590745e+05   9.239869e+05
  -1.110059e+06   1.392816e+05
  -6.872583e+05  -7.763494e+05
   3.394471e+05  -9.413453e+05
   1.043646e+06  -2.613739e+05
   6.335493e+05   5.014403e+05
  -5.852352e+05   5.828412e+05
  -1.401488e+06  -3.219700e+04
  -9.537938e+05  -7.239825e+05
   3.569951e+05  -9.105508e+05
   1.310593e+06  -5.084869e+05
   1.120664e+06   1.128182e+05
   1.495380e+05   4.577932e+05
  -5.544721e+05   2.676291e+05
  -3.217341e+05  -2.320055e+05
   5.212812e+05  -4.347189e+05
   1.018961e+06   9.007554e+04
   5.525105e+05   1.030235e+06
  -5.385236e+05   1.462666e+06
  -1.298103e+06   7.545557e+05
  -1.097772e+06  -6.591638e+05
  -1.928014e+05  -1.566191e+06
   6.299753e+05  -1.161821e+06
   8.192363e+05   1.122901e+05
   4.228559e+05   1.030529e+06
  -1.410883e+05   8.722789e+05
  -4.780520e+05   9.817973e+04
  -4.386796e+05  -3.316643e+05
  -1.745020e+05  -1.301726e+05
  -2.980068e+04   9.449044e+04
  -2.048303e+05  -2.281520e+05
  -4.411174e+05  -8.239860e+05
  -2.177696e+05  -9.470283e+05
   5.750371e+05  -3.643207e+05
   1.297590e+06   3.867070e+05
   1.161658e+06   7.147497e+05
   1.755432e+05   5.992895e+05
  -7.672896e+05   3.709363e+05
  -8.672610e+05   1.824841e+05
  -2.918207e+05  -2.151957e+04
   1.347603e+05  -1.944492e+05
  -4.422266e+03  -1.995884e+05
  -2.661572e+05  -1.018160e+05
  -3.131678e+04  -1.162272e+05
   6.100973e+05  -1.965946e+05
   9.054739e+05   7.331396e+03
   3.340301e+05   5.863178e+05
  -7.489245e+05   1.011036e+06
  -1.443621e+06   6.557060e+05
  -1.188685e+06  -3.734671e+05
  -2.425314e+05  -1.224770e+06
   6.405292e+05  -1.195670e+06
   9.037013e+05  -4.580919e+05
   5.759663e+05   2.133302e+05
   1.062954e+05   3.081645e+05
  -8.717649e+04   3.629769e+04
   6.197068e+04  -3.890053e+04
   2.820516e+05   3.078762e+05
   2.379134e+05   7.010880e+05
  -1.533208e+05   5.853053e+05
  -5.979250e+05  -1.185685e+05
  -6.340593e+05  -8.368269e+05
  -8.042444e+04  -8.887220e+05
   6.668102e+05  -1.945518e+05
   8.968702e+05   6.390244e+05
   2.978412e+05   9.394885e+05
  -6.140457e+05   5.762230e+05
  -9.583682e+05  -5.768988e+04
  -4.553334e+05  -5.043258e+05
   2.363680e+05  -5.671003e+05
   3.008290e+05  -3.207506e+05
  -2.402134e+05  -1.741817e+04
  -5.708156e+05   3.747637e+04
  -1.230194e+05  -2.601158e+05
   7.096453e+05  -6.043963e+05
   1.068305e+06  -5.073862e+05
   6.417039e+05   1.216846e+05
  -7.384331e+04   7.467316e+05
  -4.458401e+05   7.434679e+05
  -3.408545e+05   1.305711e+05
  -3.842733e+04  -4.249824e+05
   2.057199e+05  -3.675644e+05
   3.071326e+05   1.458185e+05
   2.247933e+05   4.992231e+05
  -4.409284e+04   3.511831e+05
  -3.384907e+05  -4.335743e+04
  -4.110775e+05  -2.214391e+05
  -2.134212e+05  -6.678187e+04
   2.247263e+04   1.114137e+05
   7.610123e+04   5.432167e+02
   1.727787e+04  -3.180048e+05
   7.694959e+04  -4.499105e+05
   2.838690e+05  -1.525196e+05
   3.713380e+05   3.465692e+05
   1.055974e+05   5.602367e+05
  -3.607296e+05   2.668227e+05
  -5.651976e+05  -2.470803e+05
  -2.161033e+05  -5.028119e+05
   4.296173e+05  -3.219982e+05
   7.544544e+05   6.230592e+04
   4.150088e+05   3.218353e+05
  -2.482384e+05   3.357491e+05
  -5.445130e+05   1.877280e+05
  -2.004087e+05   1.785756e+04
   3.213735e+05  -4.415893e+04
   3.615990e+05   7.470732e+04
  -1.629332e+05   2.673376e+05
  -6.737145e+05   2.414628e+05
