
 $NMID
 id='ANONYMOUS ', fmtdat='(2E16.6)'
 volume=1.0
 tramp=1.0
 $END
   3.003239e+07   2.245436e+05
   1.941005e+07   1.607172e+07
  -1.613694e+06   1.970163e+07
  -1.395451e+07   1.078223e+07
  -1.034286e+07  -8.095898e+05
   3.156507e+05  -5.358925e+06
   5.965585e+06  -1.357911e+06
   3.415707e+06   5.158687e+06
  -2.347630e+06   7.139578e+06
  -5.614134e+06   2.657311e+06
  -4.399564e+06  -3.775181e+06
  -4.191992e+05  -5.692898e+06
   2.634778e+06  -1.304343e+06
   1.846101e+06   4.450673e+06
  -2.025927e+06   5.191823e+06
  -4.812403e+06   2.965042e+04
  -3.195169e+06  -5.841194e+06
   1.698956e+06  -7.092478e+06
   5.662495e+06  -3.373441e+06
   5.787853e+06   1.543477e+06
   2.837332e+06   4.112757e+06
  -1.069963e+05   3.761380e+06
  -6.136304e+05   2.381879e+06
   9.743071e+05   2.106720e+06
   1.786671e+06   3.259313e+06
  -6.134018e+05   4.032826e+06
  -4.980732e+06   2.515930e+06
  -7.000700e+06  -8.261684e+05
  -4.110288e+06  -3.324175e+06
   1.084271e+06  -3.003198e+06
   3.531616e+06  -6.238682e+05
   1.448445e+06   1.441283e+06
  -2.125699e+06   1.569637e+06
  -3.364791e+06  -1.934479e+05
  -1.677586e+06  -2.529159e+06
   6.975697e+05  -3.501544e+06
   1.685245e+06  -1.909301e+06
   1.036291e+06   9.802103e+05
  -1.259309e+05   2.012989e+06
  -4.368248e+05  -1.566690e+05
   6.168754e+05  -2.734254e+06
   1.991972e+06  -1.967059e+06
   1.819028e+06   1.658617e+06
  -4.460447e+05   3.572714e+06
  -2.840675e+06   9.987578e+05
  -2.649977e+06  -3.314038e+06
   5.560376e+05  -4.505078e+06
   4.141264e+06  -1.386060e+06
   4.851266e+06   2.726358e+06
   1.901063e+06   4.176998e+06
  -2.279386e+06   2.400198e+06
  -4.194405e+06  -5.185219e+05
  -2.414034e+06  -2.201405e+06
   1.087783e+06  -1.671956e+06
   2.857255e+06   1.933843e+05
   1.502189e+06   1.442561e+06
  -9.315479e+05   8.837704e+05
  -1.480960e+06  -6.163691e+05
   2.228588e+05  -1.143376e+06
   1.706874e+06  -5.125369e+04
   8.337347e+05   1.354990e+06
  -1.642418e+06   1.478944e+06
  -3.050196e+06   5.456189e+04
  -1.739319e+06  -1.977994e+06
   1.411336e+06  -3.362715e+06
   4.040560e+06  -3.024653e+06
   4.390245e+06  -6.507524e+05
   2.573147e+06   2.536464e+06
   2.426229e+05   4.300808e+06
  -9.671851e+05   3.566002e+06
  -8.837429e+05   1.683689e+06
  -6.770625e+05   7.360517e+05
  -1.290348e+06   9.255292e+05
  -2.277515e+06   6.448558e+05
  -2.406436e+06  -9.339386e+05
  -1.146452e+06  -2.467104e+06
   7.464414e+05  -2.114024e+06
   1.934003e+06   1.095141e+05
   1.519903e+06   2.278674e+06
  -3.353900e+05   2.563511e+06
  -2.372677e+06   8.469589e+05
  -3.006031e+06  -1.444424e+06
  -1.722170e+06  -2.711178e+06
   2.682676e+05  -2.445594e+06
   1.283722e+06  -1.441919e+06
   1.124711e+06  -8.229736e+05
   1.180202e+06  -8.209748e+05
   2.358678e+06  -6.296386e+05
   3.566840e+06   5.067075e+05
   2.892082e+06   2.278805e+06
   5.970027e+04   3.511515e+06
  -2.938028e+06   3.217102e+06
  -3.793751e+06   1.412066e+06
  -2.134357e+06  -8.250719e+05
   2.718556e+05  -2.011158e+06
   1.310343e+06  -1.399585e+06
   4.240678e+05   1.916617e+05
  -1.091553e+06   1.006924e+06
  -1.540481e+06   2.365133e+05
  -5.595130e+05  -9.751392e+05
   6.177973e+05  -9.390375e+05
   6.104129e+05   3.279670e+05
  -5.812220e+05   9.962497e+05
  -1.630741e+06  -2.543107e+05
  -1.297531e+06  -2.455377e+06
   4.300348e+05  -3.363461e+06
   2.427963e+06  -1.919000e+06
   3.340422e+06   7.526306e+05
   2.507782e+06   2.617137e+06
   4.838263e+05   2.599098e+06
  -1.240692e+06   1.263611e+06
  -1.450249e+06   5.189910e+04
  -4.270142e+05  -5.609198e+04
   3.007751e+05   6.554859e+05
  -2.914173e+05   1.057767e+06
  -1.476248e+06   4.523402e+05
  -1.662253e+06  -6.426557e+05
  -3.979163e+05  -1.110850e+06
   9.917120e+05  -5.257096e+05
   9.125603e+05   4.143634e+05
  -6.659123e+05   6.898602e+05
  -2.126604e+06  -4.665358e+04
  -1.864990e+06  -1.252751e+06
   9.686616e+04  -1.983609e+06
   2.112901e+06  -1.579935e+06
   2.471684e+06  -2.221530e+05
   1.011969e+06   1.043455e+06
  -7.612939e+05   1.141107e+06
  -1.187358e+06   9.940595e+04
  -6.021593e+04  -8.451813e+05
   1.301242e+06  -5.682452e+05
   1.496942e+06   6.456021e+05
   4.049710e+05   1.442739e+06
  -8.631802e+05   9.902272e+05
  -1.152161e+06  -1.191344e+05
  -3.402699e+05  -6.389778e+05
   6.080000e+05  -6.713328e+04
   5.773410e+05   9.072207e+05
  -5.778607e+05   1.193060e+06
  -1.772569e+06   3.599101e+05
  -1.709971e+06  -9.962664e+05
  -2.771332e+05  -1.789780e+06
   1.238082e+06  -1.393330e+06
   1.488319e+06  -1.994782e+05
   4.801302e+05   7.431780e+05
  -5.660821e+05   7.280719e+05
  -6.447581e+05   3.077151e+04
   5.213677e+04  -4.821985e+05
   5.809110e+05  -3.261113e+05
   3.650906e+05   1.289070e+05
  -2.746795e+05   1.627541e+05
  -5.321510e+05  -4.211171e+05
   7.371955e+04  -1.011080e+06
   1.182702e+06  -7.890585e+05
   1.808139e+06   3.885577e+05
   1.220336e+06   1.724222e+06
  -2.616493e+05   2.147380e+06
  -1.486044e+06   1.311435e+06
  -1.607672e+06  -7.408892e+04
  -8.993488e+05  -9.379788e+05
  -2.914547e+05  -8.608055e+05
  -2.517550e+05  -3.613513e+05
  -3.744681e+05  -2.090862e+05
  -4.735460e+04  -5.542559e+05
   7.353140e+05  -8.046740e+05
   1.320572e+06  -3.414806e+05
   1.029667e+06   7.022300e+05
  -1.843031e+05   1.428825e+06
  -1.564695e+06   1.003107e+06
  -2.024582e+06  -4.580331e+05
  -1.029901e+06  -1.853519e+06
   8.140485e+05  -2.053612e+06
   2.167587e+06  -9.445870e+05
   2.128537e+06   5.025412e+05
   1.007263e+06   1.214376e+06
  -1.130901e+05   1.009197e+06
  -4.934900e+05   5.857674e+05
  -3.110724e+05   6.172206e+05
  -2.240692e+05   9.949801e+05
  -5.761868e+05   1.011423e+06
  -1.070288e+06   2.158082e+05
  -1.108712e+06  -9.983710e+05
  -4.148118e+05  -1.687912e+06
   6.090258e+05  -1.243040e+06
   1.147833e+06   1.169323e+04
   7.239268e+05   1.088730e+06
  -2.736880e+05   1.215320e+06
  -9.211339e+05   4.642479e+05
  -6.979442e+05  -4.369145e+05
  -9.054293e+03  -8.451800e+05
   3.239724e+05  -7.136635e+05
   2.412601e+04  -4.397542e+05
  -3.348206e+05  -3.411631e+05
  -1.953726e+04  -3.513569e+05
   9.565877e+05  -1.813593e+05
   1.722404e+06   3.047056e+05
   1.396281e+06   8.968877e+05
   3.982365e+04   1.190844e+06
  -1.300458e+06   9.342311e+05
  -1.580175e+06   2.733920e+05
  -7.724881e+05  -3.213207e+05
   1.821643e+05  -4.322482e+05
   4.184227e+05  -7.704330e+04
  -1.909909e+04   2.807963e+05
  -4.385638e+05   1.828890e+05
  -3.948479e+05  -3.157324e+05
  -9.349921e+04  -6.607775e+05
   2.857052e+04  -4.202686e+05
  -1.426023e+05   1.496871e+05
  -3.438341e+05   3.298777e+05
  -2.578067e+05  -2.017554e+05
   2.073134e+05  -8.931599e+05
   8.150056e+05  -8.927755e+05
   1.074833e+06  -5.891866e+04
   6.006967e+05   8.205702e+05
  -3.891815e+05   8.931783e+05
  -1.035701e+06   1.667430e+05
  -6.077747e+05  -5.581341e+05
   6.134285e+05  -5.732681e+05
   1.448550e+06   7.973301e+04
   1.000823e+06   7.792003e+05
  -3.653026e+05   9.544872e+05
  -1.381259e+06   5.191740e+05
  -1.184964e+06  -1.403539e+05
  -1.533023e+05  -4.888628e+05
   5.760009e+05  -2.685637e+05
   3.016714e+05   2.362866e+05
  -5.751326e+05   3.886339e+05
  -1.024420e+06  -1.836673e+05
  -4.588857e+05  -1.093920e+06
   6.808566e+05  -1.434656e+06
   1.386215e+06  -6.591349e+05
   1.077106e+06   7.522734e+05
   1.006730e+05   1.619431e+06
  -7.115734e+05   1.177849e+06
  -8.437569e+05  -1.293083e+05
  -4.094260e+05  -1.075881e+06
   1.527068e+05  -9.134732e+05
   4.839250e+05  -9.430984e+04
   4.607208e+05   3.741029e+05
   2.044070e+05   1.582032e+05
   2.411432e+04  -1.069401e+05
   1.507199e+05   2.152792e+05
   3.877874e+05   8.547466e+05
   2.101223e+05   9.933198e+05
  -5.618122e+05   3.538384e+05
  -1.311660e+06  -4.700875e+05
  -1.186869e+06  -8.001184e+05
  -1.521018e+05  -6.143164e+05
   8.385441e+05  -3.276052e+05
   9.111126e+05  -1.494400e+05
   2.704559e+05   1.415824e+04
  -1.621048e+05   1.853609e+05
   3.113767e+04   2.288971e+05
   3.069322e+05   1.477163e+05
   8.618295e+03   1.213862e+05
  -6.787219e+05   1.427940e+05
  -9.165902e+05  -7.420456e+04
  -2.426963e+05  -6.034352e+05
   8.633413e+05  -9.545514e+05
   1.478774e+06  -5.521432e+05
   1.132314e+06   4.715467e+05
   1.542861e+05   1.268789e+06
  -7.125487e+05   1.166796e+06
  -9.448967e+05   3.827337e+05
  -5.779219e+05  -2.774685e+05
  -7.132975e+04  -3.180275e+05
   1.253162e+05  -2.119238e+03
  -5.503062e+04   6.670647e+04
  -2.904519e+05  -3.205057e+05
  -2.168746e+05  -7.315516e+05
   2.006167e+05  -5.772795e+05
   6.074998e+05   1.881258e+05
   5.649955e+05   9.183076e+05
  -2.048646e+04   9.006600e+05
  -7.123527e+05   1.125647e+05
  -8.549917e+05  -7.439952e+05
  -2.166830e+05  -9.704181e+05
   6.651401e+05  -5.165324e+05
   9.507985e+05   1.290858e+05
   4.119406e+05   5.118409e+05
  -2.693966e+05   5.259989e+05
  -2.924061e+05   3.031525e+05
   2.783937e+05   5.177918e+04
   5.927100e+05   5.134025e+03
   9.673816e+04   2.638740e+05
  -7.618956e+05   5.756403e+05
  -1.091949e+06   4.805958e+05
  -6.120920e+05  -1.312549e+05
   1.246507e+05  -7.405344e+05
   4.671946e+05  -7.171925e+05
   3.150990e+05  -8.862540e+04
  -9.703068e+03   4.481606e+05
  -2.376814e+05   3.399985e+05
  -3.014844e+05  -2.016209e+05
  -1.912118e+05  -5.234935e+05
   7.309307e+04  -3.231494e+05
   3.387087e+05   8.072080e+04
   3.951639e+05   2.275179e+05
   2.149465e+05   6.083771e+04
  -1.839877e+03  -8.679452e+04
  -8.318244e+04   4.891562e+04
  -8.740440e+04   3.389126e+05
  -1.696615e+05   4.084940e+05
  -3.131008e+05   7.283834e+04
  -3.059468e+05  -4.120868e+05
  -1.038670e+04  -5.756519e+05
   3.999098e+05  -2.292280e+05
   5.339345e+05   3.085005e+05
   1.680563e+05   5.376812e+05
  -4.477332e+05   2.957081e+05
  -7.420800e+05  -1.261193e+05
  -3.909954e+05  -3.547760e+05
   2.721378e+05  -2.998921e+05
   5.540352e+05  -1.246594e+05
   1.777496e+05  -2.339443e+03
  -3.644398e+05  -8.135307e+03
  -3.734071e+05  -1.399710e+05
   2.169262e+05  -2.805517e+05
   7.518901e+05  -1.937162e+05
