
 $NMID
 id='ANONYMOUS ', fmtdat='(2E16.6)'
 volume=1.0
 tramp=1.0
 $END
   4.475933e+07   6.559448e+05
   2.718062e+07   2.664997e+07
  -5.066534e+06   2.978977e+07
  -2.153618e+07   1.291271e+07
  -1.372746e+07  -4.118441e+06
   1.927841e+06  -7.532179e+06
   8.090329e+06  -3.932124e+04
   3.140985e+06   7.672756e+06
  -4.404726e+06   8.462926e+06
  -7.863503e+06   2.362195e+06
  -5.882128e+06  -5.210831e+06
  -6.155045e+05  -7.434869e+06
   3.474615e+06  -2.092740e+06
   2.351246e+06   5.138839e+06
  -2.982920e+06   6.063349e+06
  -6.533544e+06  -7.189737e+05
  -3.884156e+06  -8.327618e+06
   2.921867e+06  -9.747784e+06
   8.228688e+06  -4.724756e+06
   8.607437e+06   1.973530e+06
   4.833687e+06   6.111324e+06
   1.810992e+05   6.457855e+06
  -1.917201e+06   4.302176e+06
  -4.431308e+05   2.393323e+06
   1.576716e+06   2.779860e+06
  -1.495165e+05   4.300485e+06
  -5.426324e+06   3.627866e+06
  -8.703168e+06  -1.796704e+05
  -5.804468e+06  -3.916145e+06
   4.633428e+05  -4.243710e+06
   3.822622e+06  -1.695503e+06
   2.101582e+06   7.619050e+05
  -1.388970e+06   1.384665e+06
  -2.969304e+06   2.257654e+05
  -2.079696e+06  -2.071160e+06
  -1.486285e+04  -3.926617e+06
   1.860603e+06  -3.005906e+06
   2.253387e+06   6.306900e+05
   7.868201e+05   2.992111e+06
  -6.982091e+05   9.005565e+05
   1.075828e+05  -2.742212e+06
   2.303514e+06  -2.227336e+06
   2.188111e+06   2.515238e+06
  -1.521148e+06   4.972799e+06
  -5.052176e+06   9.464068e+05
  -3.944043e+06  -5.350143e+06
   1.353995e+06  -6.710645e+06
   6.012136e+06  -1.910000e+06
   6.099831e+06   3.735620e+06
   1.936433e+06   5.278039e+06
  -2.970972e+06   2.648266e+06
  -4.889404e+06  -1.044177e+06
  -2.507000e+06  -2.930402e+06
   1.809631e+06  -1.986736e+06
   3.813280e+06   5.939523e+05
   1.775138e+06   2.157298e+06
  -1.376330e+06   1.158760e+06
  -1.672325e+06  -8.439009e+05
   7.718716e+05  -1.046243e+06
   2.115942e+06   8.735768e+05
   7.932823e+04   2.422769e+06
  -3.234352e+06   1.679800e+06
  -4.285696e+06  -7.050215e+05
  -2.065070e+06  -3.084999e+06
   1.700190e+06  -4.480523e+06
   4.736708e+06  -4.094186e+06
   5.529296e+06  -1.226938e+06
   3.718680e+06   3.000610e+06
   5.988637e+05   5.464472e+06
  -1.468357e+06   4.319612e+06
  -1.343800e+06   1.501634e+06
  -4.085691e+05   2.830829e+05
  -6.619590e+05   1.045874e+06
  -2.056794e+06   1.305155e+06
  -2.766026e+06  -3.567052e+05
  -1.696223e+06  -2.313475e+06
   3.565310e+05  -2.257969e+06
   1.834972e+06  -8.514095e+04
   1.703029e+06   2.261664e+06
  -1.573108e+05   2.883381e+06
  -2.695637e+06   1.314736e+06
  -3.915135e+06  -1.391003e+06
  -2.563573e+06  -3.398665e+06
   1.929416e+05  -3.479146e+06
   1.877257e+06  -2.141715e+06
   1.746670e+06  -9.954610e+05
   1.555751e+06  -7.759610e+05
   2.751789e+06  -5.842996e+05
   4.124348e+06   6.511126e+05
   3.333995e+06   2.623385e+06
   1.136930e+05   3.988462e+06
  -3.199032e+06   3.734622e+06
  -4.170579e+06   1.868689e+06
  -2.524032e+06  -6.466745e+05
  -1.453703e+04  -2.238706e+06
   1.263574e+06  -1.763143e+06
   5.243964e+05   1.171393e+05
  -1.137187e+06   1.221926e+06
  -1.804026e+06   3.379540e+05
  -7.779532e+05  -1.144657e+06
   5.877953e+05  -1.085290e+06
   5.446322e+05   3.598719e+05
  -8.383842e+05   8.745387e+05
  -1.787912e+06  -7.948221e+05
  -1.004654e+06  -3.068640e+06
   1.024468e+06  -3.505111e+06
   2.863770e+06  -1.582911e+06
   3.457949e+06   1.117247e+06
   2.518079e+06   2.779782e+06
   5.127801e+05   2.716342e+06
  -1.292724e+06   1.437229e+06
  -1.589583e+06   1.562230e+05
  -4.827301e+05  -5.177312e+04
   3.477969e+05   7.346710e+05
  -3.680015e+05   1.253782e+06
  -1.770862e+06   5.396237e+05
  -1.932920e+06  -7.974818e+05
  -4.112527e+05  -1.318742e+06
   1.126781e+06  -5.773935e+05
   9.423640e+05   4.437127e+05
  -7.808371e+05   6.270653e+05
  -2.239769e+06  -1.800741e+05
  -1.889457e+06  -1.344403e+06
   1.656296e+05  -2.060309e+06
   2.301183e+06  -1.701003e+06
   2.744628e+06  -2.703679e+05
   1.169994e+06   1.207736e+06
  -8.817054e+05   1.388033e+06
  -1.443309e+06   1.512837e+05
  -1.392741e+05  -1.013232e+06
   1.475461e+06  -6.887838e+05
   1.684303e+06   7.421959e+05
   3.923884e+05   1.614773e+06
  -1.015801e+06   1.027392e+06
  -1.254881e+06  -2.213986e+05
  -3.061856e+05  -7.373017e+05
   7.336404e+05  -6.192597e+04
   6.900512e+05   1.025943e+06
  -6.006138e+05   1.374256e+06
  -1.981330e+06   4.805111e+05
  -1.968566e+06  -1.067005e+06
  -3.523012e+05  -2.025637e+06
   1.400364e+06  -1.594578e+06
   1.683821e+06  -2.186915e+05
   5.168857e+05   8.411964e+05
  -6.369293e+05   8.034779e+05
  -6.682626e+05   6.446151e+04
   8.147494e+04  -4.334298e+05
   5.493793e+05  -2.833787e+05
   2.510309e+05   8.779439e+04
  -3.715300e+05   3.361693e+04
  -5.407438e+05  -5.728623e+05
   1.493568e+05  -1.146880e+06
   1.341731e+06  -8.826085e+05
   2.038576e+06   4.158650e+05
   1.412945e+06   1.919077e+06
  -2.413274e+05   2.395381e+06
  -1.615191e+06   1.432134e+06
  -1.722471e+06  -9.590502e+04
  -9.259918e+05  -9.488491e+05
  -3.333156e+05  -7.846681e+05
  -3.935108e+05  -3.070237e+05
  -5.254974e+05  -2.820656e+05
  -6.835343e+04  -6.947318e+05
   8.432523e+05  -8.922296e+05
   1.445150e+06  -3.507779e+05
   1.089090e+06   7.382241e+05
  -2.198565e+05   1.506821e+06
  -1.714134e+06   1.089833e+06
  -2.237295e+06  -4.849831e+05
  -1.136789e+06  -2.064541e+06
   9.516298e+05  -2.312566e+06
   2.462673e+06  -1.036626e+06
   2.341414e+06   6.011824e+05
   1.028654e+06   1.325213e+06
  -1.581635e+05   1.015913e+06
  -4.504952e+05   5.779943e+05
  -1.974737e+05   7.300788e+05
  -1.713440e+05   1.215858e+06
  -6.549616e+05   1.208735e+06
  -1.241402e+06   2.821625e+05
  -1.287929e+06  -1.085997e+06
  -5.173933e+05  -1.876471e+06
   6.390700e+05  -1.408418e+06
   1.273469e+06   2.312477e+03
   8.053121e+05   1.239891e+06
  -3.464333e+05   1.364933e+06
  -1.087215e+06   4.504271e+05
  -7.834846e+05  -5.973858e+05
   6.520849e+04  -1.002837e+06
   4.512123e+05  -7.762312e+05
   5.372965e+04  -4.436686e+05
  -4.066197e+05  -3.545283e+05
  -4.392140e+04  -3.858840e+05
   1.103578e+06  -2.049426e+05
   1.985726e+06   3.326662e+05
   1.580043e+06   1.009533e+06
  -8.409234e+02   1.372730e+06
  -1.515799e+06   1.087735e+06
  -1.784725e+06   2.912675e+05
  -8.352768e+05  -4.261887e+05
   2.355532e+05  -5.247939e+05
   4.856306e+05  -5.598329e+04
   4.072010e+03   3.733481e+05
  -4.618207e+05   2.367538e+05
  -4.621541e+05  -3.441116e+05
  -1.902722e+05  -7.296580e+05
  -4.146432e+04  -4.764956e+05
  -1.424504e+05   1.264401e+05
  -3.175764e+05   3.277186e+05
  -2.780267e+05  -2.264131e+05
   1.758149e+05  -9.871855e+05
   8.957324e+05  -1.030485e+06
   1.285230e+06  -1.242551e+05
   7.708727e+05   9.126037e+05
  -4.221151e+05   1.071770e+06
  -1.210031e+06   2.706139e+05
  -7.089952e+05  -5.894262e+05
   6.875473e+05  -6.413155e+05
   1.587831e+06   8.611176e+04
   1.047302e+06   8.513360e+05
  -4.422120e+05   1.011239e+06
  -1.498897e+06   5.230794e+05
  -1.259329e+06  -1.676976e+05
  -1.513227e+05  -5.210504e+05
   6.392477e+05  -2.813759e+05
   3.611989e+05   2.798803e+05
  -6.054993e+05   4.867017e+05
  -1.163597e+06  -1.275739e+05
  -6.086924e+05  -1.192500e+06
   6.509469e+05  -1.659560e+06
   1.501349e+06  -8.285036e+05
   1.232351e+06   7.820103e+05
   1.728882e+05   1.788332e+06
  -7.509615e+05   1.297762e+06
  -9.239964e+05  -1.591935e+05
  -4.418237e+05  -1.184101e+06
   1.940829e+05  -9.794690e+05
   5.481152e+05  -9.196460e+04
   4.836271e+05   3.864537e+05
   1.888835e+05   1.477467e+05
   3.867684e+04  -1.030047e+05
   2.340057e+05   2.764828e+05
   4.793540e+05   9.564741e+05
   2.103345e+05   1.079401e+06
  -6.755177e+05   3.901444e+05
  -1.464193e+06  -4.800944e+05
  -1.292109e+06  -8.460688e+05
  -1.792250e+05  -6.889867e+05
   8.785328e+05  -4.028753e+05
   9.891458e+05  -1.793832e+05
   3.354464e+05   4.101271e+04
  -1.573036e+05   2.194781e+05
  -7.665288e+03   2.186788e+05
   2.935841e+05   1.143752e+05
   3.625938e+04   1.345175e+05
  -6.930358e+05   2.139131e+05
  -1.034297e+06  -3.364164e+04
  -3.754787e+05  -6.866966e+05
   8.785274e+05  -1.139432e+06
   1.674902e+06  -7.070105e+05
   1.357302e+06   4.622894e+05
   2.436989e+05   1.403474e+06
  -7.700689e+05   1.345196e+06
  -1.047069e+06   5.010993e+05
  -6.514384e+05  -2.545810e+05
  -1.159530e+05  -3.565775e+05
   9.526813e+04  -4.815138e+04
  -7.157769e+04   3.487484e+04
  -3.066909e+05  -3.599882e+05
  -2.465694e+05  -8.046841e+05
   1.915414e+05  -6.657649e+05
   6.796328e+05   1.460662e+05
   7.062632e+05   9.699727e+05
   7.429123e+04   1.021721e+06
  -7.651502e+05   2.129492e+05
  -1.010261e+06  -7.490436e+05
  -3.169451e+05  -1.083388e+06
   7.190841e+05  -6.457480e+05
   1.096491e+06   9.392471e+04
   5.062161e+05   5.968586e+05
  -2.907579e+05   6.471787e+05
  -3.605493e+05   3.552935e+05
   2.669656e+05   2.026839e+04
   6.504071e+05  -2.804007e+04
   1.344071e+05   3.030459e+05
  -8.266763e+05   6.668121e+05
  -1.237003e+06   5.373263e+05
  -7.327163e+05  -1.680255e+05
   1.074240e+05  -8.527287e+05
   5.389955e+05  -8.341535e+05
   4.030925e+05  -1.404578e+05
   3.688639e+04   4.845311e+05
  -2.460910e+05   4.179367e+05
  -3.488603e+05  -1.682098e+05
  -2.427575e+05  -5.761967e+05
   6.200063e+04  -4.064967e+05
   3.865936e+05   5.656789e+04
   4.622333e+05   2.708900e+05
   2.392276e+05   8.694362e+04
  -2.317285e+04  -1.350211e+05
  -8.118828e+04  -1.435856e+04
  -1.707625e+04   3.625079e+05
  -9.107009e+04   5.254778e+05
  -3.302238e+05   1.805976e+05
  -4.268002e+05  -4.024984e+05
  -1.169849e+05  -6.471358e+05
   4.173631e+05  -2.989593e+05
   6.443719e+05   2.960116e+05
   2.367804e+05   5.786925e+05
  -5.020415e+05   3.545949e+05
  -8.644429e+05  -9.209756e+04
  -4.660964e+05  -3.801461e+05
   2.956932e+05  -3.810112e+05
   6.318137e+05  -2.036626e+05
   2.352257e+05  -1.273373e+04
  -3.630080e+05   5.060064e+04
  -4.112025e+05  -8.640210e+04
   1.849518e+05  -2.986436e+05
   7.651944e+05  -2.611754e+05
