
 $NMID
 id='ANONYMOUS ', fmtdat='(2E16.6)'
 volume=1.0
 tramp=1.0
 $END
   5.347665e+07  -3.975324e+04
   3.264832e+07   3.243367e+07
  -6.361766e+06   3.610622e+07
  -2.604361e+07   1.476185e+07
  -1.614650e+07  -5.888903e+06
   2.743752e+06  -8.995216e+06
   9.566744e+06   6.332104e+05
   3.163123e+06   9.299819e+06
  -5.667693e+06   9.463280e+06
  -9.316764e+06   2.321776e+06
  -6.817215e+06  -6.005720e+06
  -7.679745e+05  -8.449314e+06
   3.903844e+06  -2.562677e+06
   2.582069e+06   5.570087e+06
  -3.611081e+06   6.665540e+06
  -7.658511e+06  -1.075260e+06
  -4.447712e+06  -9.809178e+06
   3.502686e+06  -1.143483e+07
   9.662658e+06  -5.690116e+06
   1.026944e+07   2.037298e+06
   6.127754e+06   7.107518e+06
   5.808752e+05   7.979085e+06
  -2.480099e+06   5.563702e+06
  -1.257298e+06   2.796270e+06
   1.313104e+06   2.633510e+06
   6.897272e+03   4.417752e+06
  -5.673517e+06   4.175480e+06
  -9.625701e+06   1.624847e+05
  -6.761724e+06  -4.200099e+06
   7.099429e+04  -4.847162e+06
   3.904235e+06  -2.213229e+06
   2.342309e+06   3.613716e+05
  -1.074475e+06   1.126331e+06
  -2.718395e+06   2.982005e+05
  -2.182901e+06  -1.830683e+06
  -3.599087e+05  -4.076059e+06
   1.884582e+06  -3.613107e+06
   2.866417e+06   3.099354e+05
   1.361218e+06   3.437622e+06
  -7.065150e+05   1.516862e+06
  -8.424363e+04  -2.688401e+06
   2.530629e+06  -2.373721e+06
   2.469968e+06   3.026490e+06
  -2.074344e+06   5.929553e+06
  -6.377982e+06   1.122336e+06
  -4.861921e+06  -6.462555e+06
   1.675735e+06  -8.101367e+06
   7.098179e+06  -2.331259e+06
   6.904285e+06   4.337198e+06
   1.983671e+06   6.005901e+06
  -3.433483e+06   2.825197e+06
  -5.376299e+06  -1.397298e+06
  -2.603112e+06  -3.426280e+06
   2.244878e+06  -2.227949e+06
   4.424270e+06   7.977550e+05
   1.982442e+06   2.584952e+06
  -1.633539e+06   1.342942e+06
  -1.800181e+06  -1.003082e+06
   1.140109e+06  -1.060994e+06
   2.484664e+06   1.404353e+06
  -2.521773e+05   3.167783e+06
  -4.180219e+06   1.962931e+06
  -5.119156e+06  -1.071120e+06
  -2.350093e+06  -3.746411e+06
   1.836322e+06  -5.144998e+06
   5.127291e+06  -4.698144e+06
   6.166151e+06  -1.571387e+06
   4.374814e+06   3.220973e+06
   8.174599e+05   6.126349e+06
  -1.775901e+06   4.814135e+06
  -1.684970e+06   1.447872e+06
  -3.409819e+05  -1.716046e+04
  -3.353910e+05   1.005618e+06
  -1.896571e+06   1.583319e+06
  -2.891585e+06  -7.516021e+04
  -1.914805e+06  -2.219936e+06
   1.985639e+05  -2.282345e+06
   1.768965e+06  -1.117266e+05
   1.740447e+06   2.304043e+06
  -1.053987e+05   3.054357e+06
  -2.869108e+06   1.550136e+06
  -4.405961e+06  -1.354252e+06
  -3.061169e+06  -3.759226e+06
   9.372188e+04  -4.070602e+06
   2.178699e+06  -2.592338e+06
   2.113333e+06  -1.151323e+06
   1.814425e+06  -7.728007e+05
   3.029249e+06  -5.410192e+05
   4.484712e+06   7.808657e+05
   3.588327e+06   2.879358e+06
   9.196080e+04   4.292809e+06
  -3.417526e+06   4.002531e+06
  -4.410680e+06   2.067674e+06
  -2.714221e+06  -5.747856e+05
  -1.353364e+05  -2.341670e+06
   1.248020e+06  -1.930518e+06
   5.654736e+05   8.065178e+04
  -1.182440e+06   1.321805e+06
  -1.962742e+06   3.768449e+05
  -8.937170e+05  -1.240769e+06
   5.911278e+05  -1.147596e+06
   5.044550e+05   4.157897e+05
  -1.044798e+06   8.299812e+05
  -1.961319e+06  -1.141843e+06
  -8.528789e+05  -3.526743e+06
   1.459915e+06  -3.685289e+06
   3.245792e+06  -1.390471e+06
   3.583797e+06   1.424447e+06
   2.485596e+06   2.979322e+06
   4.644260e+05   2.822738e+06
  -1.352771e+06   1.515978e+06
  -1.669900e+06   1.869525e+05
  -5.153705e+05  -5.583744e+04
   3.650965e+05   7.917933e+05
  -4.266479e+05   1.376847e+06
  -1.958635e+06   5.811693e+05
  -2.100742e+06  -9.151370e+05
  -4.081443e+05  -1.460286e+06
   1.228820e+06  -5.929572e+05
   9.585484e+05   4.969924e+05
  -8.891040e+05   5.951694e+05
  -2.347708e+06  -3.124884e+05
  -1.895547e+06  -1.470970e+06
   2.625542e+05  -2.132685e+06
   2.468182e+06  -1.741454e+06
   2.925936e+06  -2.537345e+05
   1.255346e+06   1.324028e+06
  -9.642725e+05   1.528774e+06
  -1.595970e+06   1.741984e+05
  -1.760690e+05  -1.109125e+06
   1.592635e+06  -7.410522e+05
   1.796772e+06   8.307469e+05
   3.616588e+05   1.742479e+06
  -1.141336e+06   1.047483e+06
  -1.333601e+06  -3.091396e+05
  -2.777390e+05  -8.172980e+05
   8.192594e+05  -5.396209e+04
   7.477710e+05   1.111964e+06
  -6.371500e+05   1.477844e+06
  -2.118068e+06   5.230453e+05
  -2.111719e+06  -1.141023e+06
  -3.695299e+05  -2.178413e+06
   1.525321e+06  -1.703244e+06
   1.812537e+06  -2.070834e+05
   5.274115e+05   9.153670e+05
  -6.998488e+05   8.419488e+05
  -6.840595e+05   6.193027e+04
   1.250460e+05  -4.155401e+05
   5.581288e+05  -2.387299e+05
   1.816503e+05   9.611269e+04
  -4.541607e+05  -3.108937e+04
  -5.610674e+05  -6.796136e+05
   2.064451e+05  -1.244943e+06
   1.459027e+06  -9.290078e+05
   2.181825e+06   4.638411e+05
   1.506160e+06   2.063420e+06
  -2.698453e+05   2.547686e+06
  -1.731270e+06   1.481760e+06
  -1.804152e+06  -1.469533e+05
  -9.195055e+05  -9.890608e+05
  -3.207428e+05  -7.513667e+05
  -4.587249e+05  -2.667897e+05
  -6.213326e+05  -3.169509e+05
  -8.482247e+04  -7.801748e+05
   9.256487e+05  -9.436593e+05
   1.541412e+06  -3.363880e+05
   1.118427e+06   7.905608e+05
  -2.770146e+05   1.566729e+06
  -1.838155e+06   1.121097e+06
  -2.370341e+06  -5.427635e+05
  -1.176157e+06  -2.225995e+06
   1.073382e+06  -2.475461e+06
   2.674532e+06  -1.066978e+06
   2.481941e+06   7.060737e+05
   1.024453e+06   1.432677e+06
  -2.191836e+05   1.032237e+06
  -4.514988e+05   5.563993e+05
  -1.396114e+05   7.744864e+05
  -1.453028e+05   1.337730e+06
  -7.124263e+05   1.323967e+06
  -1.348801e+06   3.104077e+05
  -1.380844e+06  -1.158976e+06
  -5.496861e+05  -2.001897e+06
   6.818576e+05  -1.499505e+06
   1.356058e+06   1.919149e+04
   8.438836e+05   1.352029e+06
  -4.118100e+05   1.464775e+06
  -1.211092e+06   4.390512e+05
  -8.487292e+05  -7.067294e+05
   1.144536e+05  -1.114217e+06
   5.444889e+05  -8.272326e+05
   8.626147e+04  -4.531993e+05
  -4.424447e+05  -3.655800e+05
  -5.236411e+04  -4.062361e+05
   1.201033e+06  -2.101270e+05
   2.150158e+06   3.715169e+05
   1.686556e+06   1.105248e+06
  -3.923547e+04   1.498545e+06
  -1.664187e+06   1.173094e+06
  -1.925737e+06   2.789145e+05
  -8.832768e+05  -5.086821e+05
   2.694855e+05  -5.847350e+05
   5.346564e+05  -4.022240e+04
   2.272692e+04   4.253853e+05
  -4.762316e+05   2.582831e+05
  -4.981191e+05  -3.662899e+05
  -2.357625e+05  -7.638101e+05
  -7.614808e+04  -5.012846e+05
  -1.519728e+05   1.097684e+05
  -3.178172e+05   3.144192e+05
  -2.909607e+05  -2.484228e+05
   1.746844e+05  -1.039653e+06
   9.613165e+05  -1.104884e+06
   1.412104e+06  -1.583453e+05
   8.623282e+05   9.694350e+05
  -4.489915e+05   1.176658e+06
  -1.311690e+06   3.239188e+05
  -7.591066e+05  -6.182147e+05
   7.458005e+05  -6.760995e+05
   1.680228e+06   1.196523e+05
   1.067420e+06   9.281136e+05
  -5.147924e+05   1.051979e+06
  -1.597690e+06   4.997954e+05
  -1.313036e+06  -2.151832e+05
  -1.392074e+05  -5.500507e+05
   6.894193e+05  -2.803238e+05
   3.972256e+05   3.098232e+05
  -6.276940e+05   5.324965e+05
  -1.239898e+06  -1.112759e+05
  -6.774439e+05  -1.253573e+06
   6.552905e+05  -1.775740e+06
   1.578009e+06  -9.026954e+05
   1.310871e+06   8.198044e+05
   1.853372e+05   1.893905e+06
  -8.032345e+05   1.359581e+06
  -9.788317e+05  -1.952720e+05
  -4.433151e+05  -1.267044e+06
   2.423188e+05  -1.027852e+06
   5.945272e+05  -8.432692e+04
   4.900592e+05   4.101401e+05
   1.741873e+05   1.530478e+05
   5.191803e+04  -1.027307e+05
   2.864128e+05   3.071129e+05
   5.219394e+05   1.023600e+06
   1.898866e+05   1.146137e+06
  -7.545539e+05   4.121519e+05
  -1.550157e+06  -5.129536e+05
  -1.343108e+06  -9.057568e+05
  -1.866622e+05  -7.395297e+05
   9.089757e+05  -4.266936e+05
   1.043707e+06  -1.782292e+05
   3.799225e+05   5.633315e+04
  -1.571009e+05   2.343592e+05
  -3.984289e+04   2.214522e+05
   2.783133e+05   1.091020e+05
   5.063163e+04   1.398312e+05
  -7.015105e+05   2.355299e+05
  -1.103057e+06  -2.469995e+04
  -4.476021e+05  -7.291198e+05
   9.000842e+05  -1.228391e+06
   1.798923e+06  -7.812035e+05
   1.481754e+06   4.658166e+05
   2.739394e+05   1.485413e+06
  -8.237518e+05   1.444648e+06
  -1.111025e+06   5.570615e+05
  -6.868592e+05  -2.526636e+05
  -1.377577e+05  -3.781067e+05
   7.160962e+04  -6.638569e+04
  -8.920628e+04   1.733569e+04
  -3.136895e+05  -3.940647e+05
  -2.511843e+05  -8.576935e+05
   1.951212e+05  -7.145423e+05
   7.144505e+05   1.335777e+05
   7.697414e+05   1.006753e+06
   1.167249e+05   1.085352e+06
  -7.906839e+05   2.559405e+05
  -1.083475e+06  -7.645104e+05
  -3.612390e+05  -1.150408e+06
   7.547501e+05  -7.114275e+05
   1.180856e+06   8.520355e+04
   5.608292e+05   6.516733e+05
  -3.055744e+05   7.174905e+05
  -4.064465e+05   3.890800e+05
   2.554858e+05   1.355317e+04
   6.842590e+05  -3.575557e+04
   1.543860e+05   3.259397e+05
  -8.777240e+05   7.085565e+05
  -1.340388e+06   5.586547e+05
  -8.103049e+05  -1.938115e+05
   1.071769e+05  -9.181303e+05
   5.926549e+05  -9.040289e+05
   4.528423e+05  -1.745979e+05
   5.418171e+04   5.021030e+05
  -2.528683e+05   4.598812e+05
  -3.669971e+05  -1.533325e+05
  -2.645242e+05  -6.105411e+05
   5.446556e+04  -4.542320e+05
   4.110870e+05   4.758544e+04
   5.038930e+05   3.021150e+05
   2.573029e+05   1.067153e+05
  -4.027900e+04  -1.611111e+05
  -9.239838e+04  -5.471719e+04
   1.538062e+04   3.651481e+05
  -4.217312e+04   5.797048e+05
  -3.285729e+05   2.364801e+05
  -4.846451e+05  -3.921709e+05
  -1.709118e+05  -6.778816e+05
   4.282573e+05  -3.307047e+05
   7.013739e+05   2.928581e+05
   2.662437e+05   6.027730e+05
  -5.393045e+05   3.846119e+05
  -9.333902e+05  -8.029311e+04
  -5.051614e+05  -4.003744e+05
   3.099653e+05  -4.254735e+05
   6.745009e+05  -2.437798e+05
   2.690201e+05  -2.163125e+04
  -3.557631e+05   7.182701e+04
  -4.231514e+05  -6.341357e+04
   1.751870e+05  -2.988478e+05
   7.757308e+05  -2.778145e+05
