
 $NMID
 id='ANONYMOUS ', fmtdat='(2E16.6)'
 volume=1.0
 tramp=1.0
 $END
  -3.375664e+07  -3.560675e+06
  -1.927745e+07  -1.985844e+07
   4.207624e+06  -2.129742e+07
   1.603409e+07  -1.030301e+07
   1.067748e+07   1.666943e+06
  -8.453637e+05   5.575484e+06
  -6.254345e+06   1.048687e+06
  -3.222940e+06  -5.610679e+06
   2.813236e+06  -7.444240e+06
   6.132556e+06  -2.475511e+06
   4.658311e+06   4.519371e+06
   1.735890e+05   6.429992e+06
  -3.136251e+06   1.339347e+06
  -2.024091e+06  -5.030283e+06
   2.356388e+06  -5.573366e+06
   5.183881e+06   3.388376e+05
   3.038714e+06   6.674606e+06
  -2.480496e+06   7.678005e+06
  -6.678819e+06   3.237640e+06
  -6.469272e+06  -2.363524e+06
  -2.785988e+06  -5.136705e+06
   7.670213e+05  -4.374466e+06
   1.216026e+06  -2.366883e+06
  -1.002167e+06  -1.908887e+06
  -2.211864e+06  -3.473838e+06
   6.063342e+05  -4.630713e+06
   5.771304e+06  -2.866943e+06
   8.037706e+06   1.143950e+06
   4.569239e+06   4.052308e+06
  -1.419572e+06   3.593305e+06
  -4.202102e+06   7.781077e+05
  -1.876067e+06  -1.700706e+06
   2.213641e+06  -2.015083e+06
   3.840620e+06  -3.105044e+04
   2.100368e+06   2.851004e+06
  -7.458032e+05   4.140812e+06
  -2.135324e+06   2.176177e+06
  -1.343610e+06  -1.388214e+06
   3.129792e+05  -2.541197e+06
   8.073445e+05   1.908350e+05
  -5.731565e+05   3.197694e+06
  -2.232995e+06   2.165000e+06
  -1.841070e+06  -1.918043e+06
   8.237197e+05  -3.713654e+06
   3.186718e+06  -5.533680e+05
   2.502204e+06   4.039572e+06
  -1.144271e+06   4.860421e+06
  -4.769206e+06   1.145538e+06
  -5.217377e+06  -3.264054e+06
  -1.924486e+06  -4.619267e+06
   2.542421e+06  -2.546412e+06
   4.539297e+06   6.548276e+05
   2.548440e+06   2.415695e+06
  -1.259364e+06   1.697956e+06
  -3.093633e+06  -4.050450e+05
  -1.525522e+06  -1.652877e+06
   1.092861e+06  -8.947418e+05
   1.605996e+06   6.940161e+05
  -1.951182e+05   1.110596e+06
  -1.635286e+06  -3.760374e+04
  -6.320177e+05  -1.291343e+06
   1.891195e+06  -1.235133e+06
   3.208927e+06   2.299052e+05
   1.683839e+06   2.276184e+06
  -1.796030e+06   3.737432e+06
  -4.725476e+06   3.327317e+06
  -5.062490e+06   5.562836e+05
  -2.848927e+06  -3.081416e+06
  -8.931174e+04  -4.913294e+06
   1.192505e+06  -3.874487e+06
   8.936459e+05  -1.759771e+06
   5.910362e+05  -8.993659e+05
   1.412863e+06  -1.251799e+06
   2.682793e+06  -8.760844e+05
   2.875771e+06   1.036075e+06
   1.420155e+06   2.845215e+06
  -7.772120e+05   2.485137e+06
  -2.195018e+06  -1.601294e+04
  -1.773549e+06  -2.521582e+06
   3.681500e+05  -2.915613e+06
   2.748456e+06  -9.449240e+05
   3.433456e+06   1.762499e+06
   1.834847e+06   3.223325e+06
  -5.150477e+05   2.787027e+06
  -1.607310e+06   1.497666e+06
  -1.299520e+06   7.742416e+05
  -1.284939e+06   8.355276e+05
  -2.595082e+06   6.562845e+05
  -3.948537e+06  -6.155363e+05
  -3.196685e+06  -2.574296e+06
  -4.458842e+04  -3.922860e+06
   3.311294e+06  -3.604491e+06
   4.305480e+06  -1.599402e+06
   2.460532e+06   9.464975e+05
  -2.870292e+05   2.328669e+06
  -1.506584e+06   1.626096e+06
  -5.019700e+05  -2.194987e+05
   1.236698e+06  -1.146583e+06
   1.736065e+06  -2.444895e+05
   6.141602e+05   1.129131e+06
  -6.885206e+05   1.077414e+06
  -6.722059e+05  -3.199642e+05
   5.822061e+05  -1.039022e+06
   1.657816e+06   2.963971e+05
   1.325437e+06   2.615908e+06
  -4.295451e+05   3.571750e+06
  -2.545433e+06   2.064299e+06
  -3.625788e+06  -7.736454e+05
  -2.819877e+06  -2.826711e+06
  -5.891426e+05  -2.876904e+06
   1.386861e+06  -1.433829e+06
   1.642695e+06  -7.076096e+04
   4.797465e+05   6.361209e+04
  -3.333735e+05  -7.312623e+05
   3.465453e+05  -1.164752e+06
   1.654917e+06  -4.681249e+05
   1.827202e+06   7.379700e+05
   4.203310e+05   1.225137e+06
  -1.095970e+06   5.770042e+05
  -1.012941e+06  -4.348528e+05
   7.010765e+05  -7.445773e+05
   2.319710e+06   2.302044e+04
   2.078845e+06   1.336477e+06
  -6.724698e+04   2.181610e+06
  -2.330432e+06   1.769470e+06
  -2.756042e+06   2.516439e+05
  -1.116037e+06  -1.173746e+06
   8.801876e+05  -1.264866e+06
   1.336980e+06  -7.943212e+04
   5.058374e+04   9.619877e+05
  -1.462450e+06   6.267647e+05
  -1.658265e+06  -7.220308e+05
  -4.476856e+05  -1.586057e+06
   9.368774e+05  -1.082812e+06
   1.252306e+06   1.246347e+05
   3.692341e+05   6.860684e+05
  -6.705326e+05   5.490474e+04
  -6.348513e+05  -1.022617e+06
   6.566330e+05  -1.337930e+06
   1.994752e+06  -3.982158e+05
   1.915798e+06   1.126236e+06
   3.004111e+05   2.004590e+06
  -1.389909e+06   1.545929e+06
  -1.655970e+06   2.165404e+05
  -5.318622e+05  -8.192597e+05
   6.242817e+05  -8.072124e+05
   7.215813e+05  -5.288513e+04
  -2.850121e+04   5.207923e+05
  -6.163070e+05   3.851124e+05
  -4.129255e+05  -9.482407e+04
   2.663673e+05  -1.522584e+05
   5.577892e+05   4.606676e+05
  -9.412115e+04   1.106265e+06
  -1.319871e+06   8.686546e+05
  -2.017002e+06  -4.412757e+05
  -1.358690e+06  -1.935325e+06
   2.906061e+05  -2.404535e+06
   1.642853e+06  -1.470281e+06
   1.782457e+06   6.226957e+04
   1.028052e+06   1.017282e+06
   3.787151e+05   9.540935e+05
   3.142886e+05   4.336489e+05
   4.057963e+05   2.697096e+05
   2.781233e+04   6.268675e+05
  -8.213710e+05   8.875918e+05
  -1.461777e+06   3.829529e+05
  -1.155708e+06  -7.659616e+05
   1.833774e+05  -1.582371e+06
   1.733747e+06  -1.120731e+06
   2.258708e+06   5.058771e+05
   1.143096e+06   2.058846e+06
  -9.163836e+05   2.269991e+06
  -2.408304e+06   1.033891e+06
  -2.353291e+06  -5.519843e+05
  -1.124672e+06  -1.320723e+06
   9.419834e+04  -1.107696e+06
   5.221364e+05  -6.785683e+05
   3.528331e+05  -7.342597e+05
   2.789624e+05  -1.135858e+06
   6.668962e+05  -1.124740e+06
   1.205531e+06  -2.264037e+05
   1.243087e+06   1.125985e+06
   4.642898e+05   1.894150e+06
  -6.830360e+05   1.395275e+06
  -1.278943e+06  -1.125738e+04
  -7.957297e+05  -1.211754e+06
   3.102247e+05  -1.338970e+06
   1.006400e+06  -4.936908e+05
   7.414987e+05   4.934329e+05
  -1.319817e+04   9.192075e+05
  -3.588897e+05   7.639589e+05
  -1.327869e+04   4.785721e+05
   3.821753e+05   3.901140e+05
   2.379195e+04   3.985244e+05
  -1.067780e+06   1.888454e+05
  -1.921227e+06  -3.621117e+05
  -1.549883e+06  -1.007000e+06
  -2.652726e+04  -1.311455e+06
   1.464681e+06  -1.018687e+06
   1.754181e+06  -2.953521e+05
   8.360469e+05   3.524131e+05
  -2.183119e+05   4.724495e+05
  -4.572484e+05   7.769960e+04
   3.958771e+04  -3.243961e+05
   4.981121e+05  -2.143009e+05
   4.434304e+05   3.584684e+05
   1.099972e+05   7.631376e+05
  -3.101773e+04   4.914546e+05
   1.458795e+05  -1.697843e+05
   3.674492e+05  -3.846530e+05
   2.847796e+05   2.235476e+05
  -2.280052e+05   1.011172e+06
  -9.192967e+05   9.967859e+05
  -1.218375e+06   3.782222e+04
  -6.722286e+05  -9.461858e+05
   4.580482e+05  -1.000310e+06
   1.182466e+06  -1.705280e+05
   6.879359e+05   6.302619e+05
  -6.840425e+05   6.365728e+05
  -1.611742e+06  -8.110497e+04
  -1.115380e+06  -8.455876e+05
   3.923772e+05  -1.048460e+06
   1.517798e+06  -5.868370e+05
   1.311610e+06   1.382380e+05
   1.768374e+05   5.365347e+05
  -6.346019e+05   2.982265e+05
  -3.307203e+05  -2.714815e+05
   6.555080e+05  -4.451478e+05
   1.164707e+06   2.086932e+05
   5.225734e+05   1.247079e+06
  -7.727959e+05   1.633090e+06
  -1.570888e+06   7.510453e+05
  -1.217798e+06  -8.452446e+05
  -1.191989e+05  -1.820768e+06
   7.858165e+05  -1.322803e+06
   9.328958e+05   1.401301e+05
   4.584103e+05   1.191758e+06
  -1.595054e+05   1.005921e+06
  -5.343291e+05   1.004842e+05
  -5.201873e+05  -4.054528e+05
  -2.343194e+05  -1.619208e+05
  -2.199995e+04   1.144846e+05
  -1.585864e+05  -2.626119e+05
  -4.317149e+05  -9.662459e+05
  -2.410919e+05  -1.095750e+06
   6.259854e+05  -3.769937e+05
   1.473108e+06   5.224060e+05
   1.333095e+06   8.788887e+05
   1.676191e+05   6.870951e+05
  -9.428651e+05   3.838773e+05
  -1.016624e+06   1.745855e+05
  -2.943716e+05  -2.833295e+04
   1.832673e+05  -2.144626e+05
  -4.436758e+04  -2.395230e+05
  -3.549147e+05  -1.467145e+05
  -1.046903e+04  -1.435444e+05
   7.699482e+05  -1.811409e+05
   1.035765e+06   8.524167e+04
   2.697751e+05   7.061267e+05
  -9.814959e+05   1.091882e+06
  -1.676374e+06   6.087540e+05
  -1.284419e+06  -5.534604e+05
  -1.774112e+05  -1.434457e+06
   8.073063e+05  -1.307154e+06
   1.075419e+06  -4.300161e+05
   6.603542e+05   3.091829e+05
   7.971562e+04   3.656018e+05
  -1.521817e+05   1.864179e+04
   4.900433e+04  -6.888231e+04
   3.208817e+05   3.513927e+05
   2.440848e+05   8.146318e+05
  -2.291601e+05   6.530097e+05
  -6.959157e+05  -2.075306e+05
  -6.486217e+05  -1.043871e+06
   2.446422e+04  -1.034067e+06
   8.193983e+05  -1.383407e+05
   9.793703e+05   8.429599e+05
   2.433105e+05   1.104332e+06
  -7.621392e+05   5.846243e+05
  -1.075506e+06  -1.541421e+05
  -4.511528e+05  -5.863464e+05
   3.197107e+05  -5.905801e+05
   3.326771e+05  -3.261290e+05
  -3.200796e+05  -4.183642e+04
  -6.699496e+05  -1.434769e+03
  -1.057401e+05  -3.028302e+05
   8.550537e+05  -6.482620e+05
   1.216449e+06  -5.273310e+05
   6.761668e+05   1.639218e+05
  -1.465184e+05   8.352265e+05
  -5.324877e+05   7.931687e+05
  -3.667658e+05   8.338436e+04
   3.975553e+03  -5.134406e+05
   2.765943e+05  -3.860459e+05
   3.543192e+05   2.260508e+05
   2.160450e+05   5.918258e+05
  -9.574723e+04   3.679848e+05
  -3.879895e+05  -9.135584e+04
  -4.347989e+05  -2.612493e+05
  -2.328771e+05  -6.865294e+04
  -9.538265e+03   1.052028e+05
   6.956934e+04  -5.480464e+04
   8.864498e+04  -4.023304e+05
   2.071506e+05  -4.895977e+05
   3.798397e+05  -9.174994e+04
   3.626978e+05   4.838410e+05
   1.436211e+04   6.750153e+05
  -4.579079e+05   2.659869e+05
  -6.116441e+05  -3.574646e+05
  -1.954771e+05  -6.134242e+05
   5.066578e+05  -3.287172e+05
   8.429045e+05   1.508003e+05
   4.410457e+05   4.040601e+05
  -3.177278e+05   3.380913e+05
  -6.380879e+05   1.368077e+05
  -2.029394e+05  -9.013768e+03
   4.225285e+05  -7.672888e+03
   4.376522e+05   1.508283e+05
  -2.340610e+05   3.296633e+05
  -8.476533e+05   2.408636e+05
