
 $NMID
 id='ANONYMOUS ', fmtdat='(2E16.6)'
 volume=1.0
 tramp=1.0
 $END
  -3.627841e+07  -2.505372e+05
  -2.306870e+07  -1.964927e+07
   2.310482e+06  -2.370734e+07
   1.673835e+07  -1.257769e+07
   1.208252e+07   1.252267e+06
  -5.261018e+05   6.327046e+06
  -6.952339e+06   1.445047e+06
  -3.875774e+06  -6.083777e+06
   2.786259e+06  -8.268827e+06
   6.598109e+06  -3.042648e+06
   5.273632e+06   4.444931e+06
   6.042435e+05   6.740844e+06
  -3.128039e+06   1.651285e+06
  -2.297449e+06  -5.125201e+06
   2.310690e+06  -6.043337e+06
   5.675066e+06   1.851021e+04
   3.775286e+06   6.945969e+06
  -2.048324e+06   8.440948e+06
  -6.803081e+06   4.061613e+06
  -7.030758e+06  -1.813486e+06
  -3.529550e+06  -5.013695e+06
   1.314385e+05  -4.699070e+06
   9.337433e+05  -2.926750e+06
  -9.565503e+05  -2.315958e+06
  -2.146246e+06  -3.567570e+06
   5.086509e+05  -4.680658e+06
   5.717138e+06  -3.169568e+06
   8.286736e+06   7.082907e+05
   5.009270e+06   3.830664e+06
  -1.108409e+06   3.679325e+06
  -4.104022e+06   9.800807e+05
  -1.840526e+06  -1.528482e+06
   2.243234e+06  -1.886014e+06
   3.811621e+06   1.382047e+04
   2.093872e+06   2.789905e+06
  -5.957365e+05   4.133687e+06
  -1.957213e+06   2.386945e+06
  -1.422168e+06  -1.111251e+06
   2.101846e+03  -2.500295e+06
   6.114881e+05   2.907892e+04
  -5.328607e+05   3.170956e+06
  -2.263340e+06   2.325946e+06
  -2.129753e+06  -1.971032e+06
   6.254335e+05  -4.209153e+06
   3.508811e+06  -1.080660e+06
   3.179760e+06   4.053496e+06
  -7.374283e+05   5.404078e+06
  -4.966654e+06   1.670260e+06
  -5.726986e+06  -3.160127e+06
  -2.242759e+06  -4.848266e+06
   2.623588e+06  -2.805991e+06
   4.859419e+06   5.601616e+05
   2.799242e+06   2.533600e+06
  -1.295220e+06   1.946778e+06
  -3.371096e+06  -2.327376e+05
  -1.762123e+06  -1.708340e+06
   1.105165e+06  -1.052694e+06
   1.724000e+06   6.914603e+05
  -2.781902e+05   1.260973e+06
  -1.937832e+06  -3.518659e+04
  -8.235834e+05  -1.610520e+06
   2.055410e+06  -1.662032e+06
   3.598206e+06   2.249383e+04
   2.022310e+06   2.372838e+06
  -1.611327e+06   4.021019e+06
  -4.674311e+06   3.692213e+06
  -5.182546e+06   8.985863e+05
  -3.153194e+06  -2.945054e+06
  -4.014420e+05  -5.084086e+06
   1.098311e+06  -4.174862e+06
   1.005326e+06  -1.896517e+06
   6.836423e+05  -8.158107e+05
   1.358649e+06  -1.154682e+06
   2.581205e+06  -9.198722e+05
   2.860326e+06   9.199441e+05
   1.483098e+06   2.781328e+06
  -7.245488e+05   2.480903e+06
  -2.203005e+06  -1.746993e+04
  -1.841165e+06  -2.547246e+06
   2.838163e+05  -2.989305e+06
   2.749013e+06  -1.095975e+06
   3.609838e+06   1.592427e+06
   2.132259e+06   3.185085e+06
  -2.798244e+05   2.950577e+06
  -1.547236e+06   1.747775e+06
  -1.356204e+06   9.580069e+05
  -1.367174e+06   9.428457e+05
  -2.716242e+06   7.647946e+05
  -4.148374e+06  -5.126035e+05
  -3.412826e+06  -2.574138e+06
  -1.666576e+05  -4.067736e+06
   3.305332e+06  -3.821576e+06
   4.355960e+06  -1.781920e+06
   2.528590e+06   8.626694e+05
  -2.111463e+05   2.351168e+06
  -1.459114e+06   1.698757e+06
  -5.099816e+05  -1.952225e+05
   1.225262e+06  -1.213011e+06
   1.788543e+06  -3.244583e+05
   6.939900e+05   1.127376e+06
  -6.710969e+05   1.116896e+06
  -6.937445e+05  -3.469563e+05
   6.511254e+05  -1.117674e+06
   1.846551e+06   3.190580e+05
   1.479167e+06   2.816520e+06
  -4.639622e+05   3.824696e+06
  -2.735698e+06   2.192882e+06
  -3.823988e+06  -8.004009e+05
  -2.940387e+06  -2.916739e+06
  -6.389816e+05  -2.961763e+06
   1.388908e+06  -1.504563e+06
   1.678370e+06  -1.167825e+05
   4.976855e+05   5.181271e+04
  -3.670464e+05  -7.486246e+05
   3.169092e+05  -1.235839e+06
   1.710540e+06  -5.606955e+05
   1.943246e+06   7.096697e+05
   4.834796e+05   1.277999e+06
  -1.128347e+06   6.322100e+05
  -1.053106e+06  -4.417124e+05
   7.448504e+05  -7.876410e+05
   2.426934e+06   6.826444e+03
   2.162937e+06   1.374498e+06
  -5.519229e+04   2.266701e+06
  -2.384404e+06   1.877828e+06
  -2.849291e+06   3.297762e+05
  -1.202512e+06  -1.185711e+06
   8.586502e+05  -1.354265e+06
   1.388481e+06  -1.474449e+05
   1.001281e+05   9.880410e+05
  -1.492592e+06   6.989437e+05
  -1.747259e+06  -7.067343e+05
  -5.007828e+05  -1.650828e+06
   9.691737e+05  -1.153998e+06
   1.322563e+06   1.131889e+05
   4.004458e+05   7.236160e+05
  -7.032558e+05   8.715986e+04
  -6.936398e+05  -1.035517e+06
   6.326414e+05  -1.399768e+06
   2.042560e+06  -4.728503e+05
   2.013100e+06   1.102224e+06
   3.734919e+05   2.066591e+06
  -1.396828e+06   1.648666e+06
  -1.717626e+06   2.713141e+05
  -5.742396e+05  -8.438266e+05
   6.309517e+05  -8.552939e+05
   7.372551e+05  -6.398161e+04
  -4.210909e+04   5.381929e+05
  -6.398089e+05   3.860424e+05
  -4.043981e+05  -1.189139e+05
   3.123831e+05  -1.667995e+05
   6.097242e+05   4.852193e+05
  -7.101851e+04   1.167811e+06
  -1.349281e+06   9.407278e+05
  -2.102986e+06  -4.000907e+05
  -1.463383e+06  -1.962243e+06
   2.365214e+05  -2.492067e+06
   1.672344e+06  -1.555302e+06
   1.849052e+06   3.779310e+04
   1.062783e+06   1.040066e+06
   3.761634e+05   9.635389e+05
   3.243594e+05   4.070257e+05
   4.489801e+05   2.482938e+05
   6.401036e+04   6.525620e+05
  -8.331671e+05   9.465742e+05
  -1.511569e+06   4.252957e+05
  -1.202650e+06  -7.752843e+05
   1.718472e+05  -1.642405e+06
   1.775012e+06  -1.197446e+06
   2.349644e+06   4.703455e+05
   1.237520e+06   2.111130e+06
  -8.923927e+05   2.392575e+06
  -2.482422e+06   1.143746e+06
  -2.464296e+06  -5.250148e+05
  -1.185925e+06  -1.362884e+06
   9.852644e+04  -1.150446e+06
   5.338879e+05  -6.874640e+05
   3.247425e+05  -7.396665e+05
   2.290586e+05  -1.177258e+06
   6.461725e+05  -1.194734e+06
   1.240456e+06  -2.804944e+05
   1.317280e+06   1.123131e+06
   5.334614e+05   1.941590e+06
  -6.651992e+05   1.458625e+06
  -1.325305e+06   2.016784e+04
  -8.629397e+05  -1.240760e+06
   2.895582e+05  -1.408762e+06
   1.053662e+06  -5.464657e+05
   8.089078e+05   5.018647e+05
   1.732856e+04   9.778004e+05
  -3.656879e+05   8.219948e+05
  -1.518476e+04   4.996470e+05
   4.031079e+05   3.851506e+05
   3.516703e+04   4.071303e+05
  -1.106132e+06   2.319156e+05
  -2.007486e+06  -3.111955e+05
  -1.638899e+06  -1.001546e+06
  -6.770446e+04  -1.375676e+06
   1.489666e+06  -1.114425e+06
   1.819245e+06  -3.552141e+05
   8.909872e+05   3.568798e+05
  -2.073395e+05   5.073624e+05
  -4.814252e+05   9.413643e+04
   1.665935e+04  -3.367054e+05
   5.016938e+05  -2.310347e+05
   4.691981e+05   3.552572e+05
   1.388833e+05   7.684007e+05
  -1.174484e+04   4.942969e+05
   1.552341e+05  -1.723951e+05
   3.753665e+05  -3.896636e+05
   3.006339e+05   2.267446e+05
  -2.083035e+05   1.041193e+06
  -9.193286e+05   1.058003e+06
  -1.257156e+06   9.600162e+04
  -7.298970e+05  -9.409049e+05
   4.311067e+05  -1.053716e+06
   1.207800e+06  -2.272017e+05
   7.248648e+05   6.267657e+05
  -6.939909e+05   6.790712e+05
  -1.672311e+06  -4.996977e+04
  -1.169169e+06  -8.645769e+05
   3.965670e+05  -1.102028e+06
   1.570698e+06  -6.329102e+05
   1.362582e+06   1.260579e+05
   1.897641e+05   5.552102e+05
  -6.554569e+05   3.235201e+05
  -3.564261e+05  -2.689590e+05
   6.534810e+05  -4.748793e+05
   1.198011e+06   1.754850e+05
   5.758660e+05   1.256162e+06
  -7.377405e+05   1.694373e+06
  -1.586037e+06   8.166887e+05
  -1.274755e+06  -8.346730e+05
  -1.705727e+05  -1.871461e+06
   7.826172e+05  -1.381723e+06
   9.742186e+05   1.271858e+05
   5.011476e+05   1.227879e+06
  -1.513662e+05   1.050842e+06
  -5.560098e+05   1.188931e+05
  -5.405446e+05  -4.123011e+05
  -2.373658e+05  -1.690637e+05
  -2.488710e+04   1.208853e+05
  -1.855903e+05  -2.559753e+05
  -4.774625e+05  -9.814591e+05
  -2.692579e+05  -1.135039e+06
   6.456418e+05  -4.185968e+05
   1.532306e+06   5.011441e+05
   1.392624e+06   8.824441e+05
   1.931172e+05   7.071033e+05
  -9.555041e+05   4.119862e+05
  -1.045774e+06   2.016171e+05
  -3.151682e+05  -1.602257e+04
   1.799305e+05  -2.227985e+05
  -3.973158e+04  -2.545553e+05
  -3.561066e+05  -1.505967e+05
  -1.666014e+04  -1.422467e+05
   7.763232e+05  -1.969524e+05
   1.066875e+06   5.519150e+04
   3.100877e+05   7.024605e+05
  -9.665061e+05   1.144720e+06
  -1.705542e+06   6.882624e+05
  -1.340298e+06  -5.142707e+05
  -2.237378e+05  -1.466755e+06
   7.924807e+05  -1.375374e+06
   1.087285e+06  -4.783833e+05
   6.809470e+05   2.979062e+05
   9.564172e+04   3.689893e+05
  -1.428183e+05   1.647502e+04
   5.939563e+04  -7.186860e+04
   3.412465e+05   3.609881e+05
   2.718938e+05   8.375796e+05
  -2.134018e+05   6.780882e+05
  -7.128617e+05  -1.919011e+05
  -6.934469e+05  -1.044724e+06
  -1.304348e+04  -1.052617e+06
   8.240009e+05  -1.647214e+05
   1.023698e+06   8.301713e+05
   2.871298e+05   1.122562e+06
  -7.579548e+05   6.266833e+05
  -1.111615e+06  -1.199643e+05
  -4.934366e+05  -5.882996e+05
   3.016245e+05  -6.240434e+05
   3.358804e+05  -3.567991e+05
  -3.207522e+05  -4.266842e+04
  -6.866102e+05   1.576432e+04
  -1.217359e+05  -3.061187e+05
   8.635301e+05  -6.912996e+05
   1.250972e+06  -5.830006e+05
   7.155571e+05   1.429717e+05
  -1.219629e+05   8.656347e+05
  -5.261225e+05   8.441463e+05
  -3.730574e+05   1.116587e+05
  -9.188332e+03  -5.205057e+05
   2.665534e+05  -4.064995e+05
   3.611051e+05   2.179848e+05
   2.399327e+05   6.013122e+05
  -7.746069e+04   3.836864e+05
  -3.979246e+05  -8.012485e+04
  -4.639627e+05  -2.565616e+05
  -2.480284e+05  -6.712169e+04
   3.675843e+03   1.076311e+05
   8.632645e+04  -5.012400e+04
   7.881079e+04  -3.994987e+05
   1.778015e+05  -4.960146e+05
   3.667689e+05  -1.086505e+05
   3.823573e+05   4.679904e+05
   4.203199e+04   6.757491e+05
  -4.559498e+05   2.845303e+05
  -6.366990e+05  -3.399534e+05
  -2.176196e+05  -6.183821e+05
   5.120040e+05  -3.568373e+05
   8.704669e+05   1.223607e+05
   4.669742e+05   3.998941e+05
  -3.095829e+05   3.611288e+05
  -6.448290e+05   1.669178e+05
  -2.116199e+05   5.400181e+03
   4.206812e+05  -1.332268e+04
   4.411935e+05   1.409678e+05
  -2.333161e+05   3.334586e+05
  -8.571225e+05   2.578156e+05
