
 $NMID
 id='ANONYMOUS ', fmtdat='(2E16.6)'
 volume=1.0
 tramp=1.0
 $END
  -5.496585e+07  -9.627957e+05
  -3.222907e+07  -3.450219e+07
   7.975796e+06  -3.685958e+07
   2.691207e+07  -1.374403e+07
   1.570145e+07   6.995006e+06
  -3.356627e+06   8.920231e+06
  -9.392734e+06  -1.301857e+06
  -2.535305e+06  -9.410894e+06
   6.022738e+06  -8.916427e+06
   9.308938e+06  -1.820782e+06
   6.756428e+06   6.107486e+06
   7.478654e+05   8.402623e+06
  -3.951266e+06   2.655434e+06
  -2.607741e+06  -5.307265e+06
   3.637966e+06  -6.319203e+06
   7.591699e+06   1.387426e+06
   4.193161e+06   9.958580e+06
  -3.820337e+06   1.141513e+07
  -9.936474e+06   5.616318e+06
  -1.055016e+07  -2.176432e+06
  -6.351996e+06  -7.472841e+06
  -4.643864e+05  -8.495374e+06
   3.017344e+06  -5.784219e+06
   1.805956e+06  -2.429914e+06
  -1.219466e+06  -2.012247e+06
  -3.386838e+05  -4.135081e+06
   5.319735e+06  -4.380931e+06
   9.522062e+06  -4.913559e+05
   6.903190e+06   4.107690e+06
   1.956708e+05   5.047595e+06
  -3.729033e+06   2.586506e+06
  -2.539868e+06  -9.592052e+03
   5.100846e+05  -1.059943e+06
   2.267971e+06  -6.293092e+05
   2.272299e+06   1.385740e+06
   7.385644e+05   3.937597e+06
  -1.831246e+06   3.795409e+06
  -3.233963e+06  -2.098176e+05
  -1.619981e+06  -3.663834e+06
   8.893836e+05  -1.869148e+06
   4.187280e+05   2.471176e+06
  -2.374355e+06   2.266809e+06
  -2.332251e+06  -3.112674e+06
   2.443240e+06  -5.871274e+06
   6.756295e+06  -8.019393e+05
   4.846595e+06   6.847772e+06
  -2.009575e+06   8.247296e+06
  -7.276827e+06   2.251060e+06
  -6.738900e+06  -4.360497e+06
  -1.782735e+06  -5.840928e+06
   3.358269e+06  -2.625968e+06
   5.085501e+06   1.460830e+06
   2.339615e+06   3.351873e+06
  -2.352183e+06   2.088230e+06
  -4.378314e+06  -9.386349e+05
  -1.858234e+06  -2.648633e+06
   1.685962e+06  -1.310328e+06
   1.688720e+06   9.854278e+05
  -1.248831e+06   8.369087e+05
  -2.307566e+06  -1.715478e+06
   6.919972e+05  -3.247395e+06
   4.502755e+06  -1.713087e+06
   5.085755e+06   1.387494e+06
   2.185805e+06   3.874883e+06
  -1.801483e+06   5.148009e+06
  -4.935861e+06   4.761660e+06
  -6.102060e+06   1.693971e+06
  -4.493609e+06  -3.149568e+06
  -9.048271e+05  -6.067250e+06
   1.810681e+06  -4.629543e+06
   1.656470e+06  -1.163894e+06
   8.706701e+04   1.956463e+05
  -3.989663e+04  -1.069303e+06
   1.629134e+06  -1.842449e+06
   2.849984e+06  -2.614835e+05
   2.076395e+06   1.923534e+06
   6.963343e+04   2.170836e+06
  -1.549175e+06   2.693345e+05
  -1.712678e+06  -2.014076e+06
  -3.837439e+04  -2.908256e+06
   2.742293e+06  -1.651026e+06
   4.427620e+06   1.188356e+06
   3.151016e+06   3.732916e+06
  -8.918540e+04   4.157895e+06
  -2.272709e+06   2.628885e+06
  -2.186494e+06   1.072770e+06
  -1.770962e+06   6.570273e+05
  -2.865744e+06   4.866456e+05
  -4.266460e+06  -7.189264e+05
  -3.443604e+06  -2.693171e+06
  -1.640376e+05  -4.060822e+06
   3.127484e+06  -3.881248e+06
   4.118729e+06  -2.143886e+06
   2.656395e+06   3.996206e+05
   3.019436e+05   2.238713e+06
  -1.084976e+06   1.945543e+06
  -5.688707e+05  -3.408723e+04
   1.068565e+06  -1.313362e+06
   1.884068e+06  -4.027415e+05
   9.154589e+05   1.198186e+06
  -5.002397e+05   1.116915e+06
  -4.230728e+05  -3.605292e+05
   1.014709e+06  -6.655899e+05
   1.769615e+06   1.255868e+06
   6.148611e+05   3.370594e+06
  -1.511319e+06   3.290561e+06
  -3.006146e+06   1.089599e+06
  -3.223471e+06  -1.360034e+06
  -2.275177e+06  -2.652056e+06
  -4.949124e+05  -2.555233e+06
   1.208372e+06  -1.467273e+06
   1.564448e+06  -2.475093e+05
   4.879959e+05   4.090086e+04
  -3.600028e+05  -7.404675e+05
   4.080141e+05  -1.324344e+06
   1.887291e+06  -5.728846e+05
   2.007319e+06   8.727902e+05
   3.794673e+05   1.394531e+06
  -1.152175e+06   5.696286e+05
  -8.785571e+05  -4.322362e+05
   8.186700e+05  -5.064288e+05
   2.129918e+06   2.903464e+05
   1.726059e+06   1.297559e+06
  -2.146095e+05   1.929342e+06
  -2.253319e+06   1.653295e+06
  -2.737035e+06   2.950096e+05
  -1.208651e+06  -1.247461e+06
   9.119890e+05  -1.493784e+06
   1.551725e+06  -1.876235e+05
   2.032441e+05   1.079359e+06
  -1.500800e+06   7.405093e+05
  -1.701208e+06  -7.628853e+05
  -3.394973e+05  -1.622536e+06
   1.066466e+06  -9.590994e+05
   1.230255e+06   3.036164e+05
   2.380958e+05   7.635309e+05
  -7.904420e+05   5.144984e+04
  -7.383341e+05  -1.043007e+06
   5.598817e+05  -1.421695e+06
   1.990434e+06  -5.586783e+05
   2.031024e+06   1.025624e+06
   3.952616e+05   2.055541e+06
  -1.417871e+06   1.635328e+06
  -1.705983e+06   2.165181e+05
  -4.985145e+05  -8.538445e+05
   6.451494e+05  -7.965445e+05
   6.240110e+05  -8.881661e+04
  -1.046770e+05   3.443598e+05
  -4.651739e+05   2.136873e+05
  -1.134443e+05  -3.961703e+04
   4.316399e+05   9.483858e+04
   4.985315e+05   6.638755e+05
  -2.048296e+05   1.167994e+06
  -1.362160e+06   8.919488e+05
  -2.064324e+06  -3.951552e+05
  -1.467679e+06  -1.915651e+06
   1.909939e+05  -2.399610e+06
   1.577021e+06  -1.408893e+06
   1.660756e+06   1.051823e+05
   8.573764e+05   8.595703e+05
   3.405257e+05   6.244568e+05
   4.962702e+05   2.171550e+05
   6.267783e+05   3.230861e+05
   8.782481e+04   7.641157e+05
  -8.608133e+05   8.929043e+05
  -1.421688e+06   3.312882e+05
  -1.041122e+06  -6.939086e+05
   2.276939e+05  -1.432498e+06
   1.686447e+06  -1.072236e+06
   2.224862e+06   4.562801e+05
   1.133545e+06   2.064857e+06
  -9.885261e+05   2.341135e+06
  -2.507243e+06   1.029081e+06
  -2.317997e+06  -6.355890e+05
  -9.462884e+05  -1.300889e+06
   1.872784e+05  -9.193254e+05
   3.605199e+05  -5.104639e+05
   6.013979e+04  -7.674097e+05
   9.646505e+04  -1.313093e+06
   6.637921e+05  -1.285256e+06
   1.285909e+06  -3.234015e+05
   1.338848e+06   1.059990e+06
   5.715240e+05   1.873124e+06
  -6.013322e+05   1.431817e+06
  -1.270415e+06   9.190446e+03
  -8.082333e+05  -1.264741e+06
   3.817948e+05  -1.377931e+06
   1.144566e+06  -3.935137e+05
   7.935019e+05   6.968475e+05
  -1.303004e+05   1.061477e+06
  -5.329721e+05   7.631450e+05
  -7.876746e+04   4.024271e+05
   4.380986e+05   3.288535e+05
   6.587717e+04   3.800470e+05
  -1.138098e+06   2.120645e+05
  -2.049731e+06  -3.196020e+05
  -1.607067e+06  -1.016101e+06
   3.824580e+04  -1.418335e+06
   1.575687e+06  -1.136838e+06
   1.808603e+06  -2.830098e+05
   8.154821e+05   4.883171e+05
  -2.630778e+05   5.660809e+05
  -5.042994e+05   3.073707e+04
  -3.036734e+04  -4.272125e+05
   4.350210e+05  -2.669471e+05
   4.827710e+05   3.350783e+05
   2.706682e+05   7.207483e+05
   1.095156e+05   4.821396e+05
   1.276878e+05  -9.013199e+04
   2.587204e+05  -2.920348e+05
   2.724151e+05   2.266751e+05
  -1.216557e+05   9.805856e+05
  -8.819411e+05   1.067908e+06
  -1.365915e+06   1.845676e+05
  -8.673665e+05  -9.075071e+05
   4.072616e+05  -1.144025e+06
   1.259309e+06  -3.530804e+05
   7.390692e+05   5.575153e+05
  -6.900069e+05   6.457260e+05
  -1.565063e+06  -8.055043e+04
  -9.880016e+05  -8.356746e+05
   4.732372e+05  -9.662888e+05
   1.463836e+06  -4.756163e+05
   1.205913e+06   1.768545e+05
   1.341887e+05   5.003010e+05
  -6.380308e+05   2.665202e+05
  -3.858379e+05  -2.945391e+05
   5.718013e+05  -5.370851e+05
   1.183785e+06   5.430487e+04
   7.002320e+05   1.165860e+06
  -5.479369e+05   1.715211e+06
  -1.458543e+06   9.170772e+05
  -1.262683e+06  -7.276132e+05
  -2.320063e+05  -1.772873e+06
   7.108392e+05  -1.286109e+06
   9.111882e+05   1.714412e+05
   4.316633e+05   1.171703e+06
  -2.153144e+05   9.473723e+05
  -5.576586e+05   8.195689e+04
  -4.573660e+05  -3.592400e+05
  -1.531371e+05  -1.230986e+05
  -4.992959e+04   8.855116e+04
  -2.965632e+05  -3.078838e+05
  -5.251191e+05  -9.590496e+05
  -1.898320e+05  -1.056014e+06
   7.210464e+05  -3.897202e+05
   1.467784e+06   4.375536e+05
   1.266159e+06   8.035300e+05
   1.902993e+05   6.930349e+05
  -8.261093e+05   4.380919e+05
  -9.656253e+05   1.928069e+05
  -3.679056e+05  -6.212353e+04
   1.353882e+05  -2.308048e+05
   4.698651e+04  -1.866635e+05
  -2.488172e+05  -6.948747e+04
  -6.138299e+04  -1.334860e+05
   6.339209e+05  -2.641258e+05
   1.046255e+06  -1.382243e+04
   4.740294e+05   6.965081e+05
  -7.984569e+05   1.209241e+06
  -1.697200e+06   7.962392e+05
  -1.445221e+06  -3.988444e+05
  -3.125428e+05  -1.392745e+06
   7.444761e+05  -1.389286e+06
   1.039678e+06  -5.725739e+05
   6.583766e+05   2.032538e+05
   1.505894e+05   3.579889e+05
  -5.331561e+04   8.906610e+04
   8.223493e+04   5.727021e+02
   2.926778e+05   3.630292e+05
   2.527942e+05   7.958826e+05
  -1.607779e+05   6.868299e+05
  -6.816047e+05  -8.685170e+04
  -7.775469e+05  -9.188301e+05
  -1.657013e+05  -1.036235e+06
   7.366055e+05  -2.937429e+05
   1.062956e+06   6.727580e+05
   3.888268e+05   1.083308e+06
  -6.959191e+05   7.116423e+05
  -1.130404e+06  -4.458812e+04
  -5.525402e+05  -6.193033e+05
   2.790063e+05  -7.045858e+05
   3.917895e+05  -3.739550e+05
  -2.261618e+05   1.320286e+04
  -6.408044e+05   6.029644e+04
  -1.599827e+05  -3.103558e+05
   8.050198e+05  -6.918493e+05
   1.255868e+06  -5.429224e+05
   7.809660e+05   1.848702e+05
  -7.609682e+04   8.780645e+05
  -5.534586e+05   8.689352e+05
  -4.493398e+05   1.815230e+05
  -8.117839e+04  -4.697393e+05
   2.268612e+05  -4.541536e+05
   3.595169e+05   1.154561e+05
   2.712809e+05   5.688168e+05
  -4.180263e+04   4.489307e+05
  -3.944434e+05  -2.502597e+04
  -4.839545e+05  -2.854377e+05
  -2.400217e+05  -1.040132e+05
   4.412433e+04   1.695621e+05
   7.311922e+04   7.760370e+04
  -5.660602e+04  -3.464388e+05
  -1.937173e+03  -5.872508e+05
   3.097343e+05  -2.717901e+05
   5.047676e+05   3.472730e+05
   2.151905e+05   6.492506e+05
  -3.898356e+05   3.391547e+05
  -6.894536e+05  -2.495057e+05
  -2.830806e+05  -5.585220e+05
   5.038732e+05  -3.793010e+05
   8.984971e+05   4.470890e+04
   4.948090e+05   3.647340e+05
  -2.868339e+05   4.246657e+05
  -6.431632e+05   2.648410e+05
  -2.689355e+05   2.374118e+04
   3.220637e+05  -1.043724e+05
   4.049856e+05   2.234638e+04
  -1.332601e+05   2.846834e+05
  -6.976507e+05   3.020117e+05
