
 $NMID
 id='ANONYMOUS ', fmtdat='(2E16.6)'
 volume=1.0
 tramp=1.0
 $END
  -4.665998e+07   1.417480e+06
  -2.939399e+07  -2.729793e+07
   4.486358e+06  -3.163237e+07
   2.229493e+07  -1.373432e+07
   1.433227e+07   4.554634e+06
  -2.066793e+06   7.970666e+06
  -8.406464e+06  -1.528598e+05
  -3.138809e+06  -8.019316e+06
   4.615380e+06  -8.548900e+06
   8.096321e+06  -2.378935e+06
   6.168301e+06   5.099881e+06
   9.008452e+05   7.446956e+06
  -3.391853e+06   2.350627e+06
  -2.461535e+06  -4.881920e+06
   2.955692e+06  -6.017085e+06
   6.741577e+06   6.921177e+05
   4.178982e+06   8.465864e+06
  -2.755793e+06   1.010749e+07
  -8.315798e+06   5.210922e+06
  -9.020864e+06  -1.560161e+06
  -5.483658e+06  -6.070061e+06
  -6.694650e+05  -6.908990e+06
   1.984548e+06  -4.866871e+06
   9.216962e+05  -2.495046e+06
  -1.289780e+06  -2.368718e+06
  -9.521815e+04  -3.958691e+06
   4.954692e+06  -3.822511e+06
   8.516713e+06  -3.546962e+05
   6.058982e+06   3.552430e+06
   1.158515e+04   4.279621e+06
  -3.446874e+06   2.026961e+06
  -2.083884e+06  -3.273403e+05
   9.976897e+05  -1.090815e+06
   2.492301e+06  -3.211437e+05
   1.991816e+06   1.652303e+06
   3.561437e+05   3.651787e+06
  -1.610577e+06   3.200108e+06
  -2.489318e+06  -2.657210e+05
  -1.222764e+06  -2.986309e+06
   5.880376e+05  -1.275967e+06
   1.099793e+05   2.431508e+06
  -2.181226e+06   2.180440e+06
  -2.268946e+06  -2.575484e+06
   1.597646e+06  -5.241324e+06
   5.479997e+06  -1.167923e+06
   4.406672e+06   5.483476e+06
  -1.217581e+06   7.098495e+06
  -6.135806e+06   2.225994e+06
  -6.202499e+06  -3.609458e+06
  -1.946983e+06  -5.234893e+06
   2.940470e+06  -2.619136e+06
   4.810062e+06   1.048529e+06
   2.433773e+06   2.944999e+06
  -1.886275e+06   2.049291e+06
  -3.915632e+06  -5.528646e+05
  -1.836269e+06  -2.210339e+06
   1.388198e+06  -1.235875e+06
   1.637322e+06   8.289305e+05
  -9.296777e+05   9.997310e+05
  -2.226028e+06  -1.095584e+06
   6.323738e+04  -2.737260e+06
   3.540729e+06  -1.844323e+06
   4.502399e+06   7.584194e+05
   2.173166e+06   3.197924e+06
  -1.498738e+06   4.566012e+06
  -4.434186e+06   4.257147e+06
  -5.404465e+06   1.515001e+06
  -3.911293e+06  -2.749743e+06
  -8.604869e+05  -5.389933e+06
   1.423258e+06  -4.310488e+06
   1.433295e+06  -1.364220e+06
   3.331811e+05  -3.835941e+04
   3.354222e+05  -9.095876e+05
   1.688314e+06  -1.423012e+06
   2.581101e+06   3.878120e+04
   1.748265e+06   1.966693e+06
  -1.444708e+05   2.063504e+06
  -1.607734e+06   1.472784e+05
  -1.630358e+06  -2.025306e+06
   2.052927e+04  -2.731837e+06
   2.516584e+06  -1.435717e+06
   3.923159e+06   1.110921e+06
   2.771471e+06   3.246259e+06
   5.098805e+03   3.568429e+06
  -1.843060e+06   2.313659e+06
  -1.811044e+06   1.064297e+06
  -1.570117e+06   7.445487e+05
  -2.666630e+06   5.759161e+05
  -3.998602e+06  -5.628743e+05
  -3.266079e+06  -2.457401e+06
  -2.013318e+05  -3.814846e+06
   2.936567e+06  -3.650782e+06
   3.881799e+06  -1.945254e+06
   2.432243e+06   4.583475e+05
   1.641574e+05   2.090650e+06
  -1.079598e+06   1.748751e+06
  -5.100239e+05  -6.106097e+04
   1.020347e+06  -1.209438e+06
   1.734787e+06  -3.918745e+05
   8.239907e+05   1.078216e+06
  -5.007228e+05   1.047830e+06
  -4.783147e+05  -3.459822e+05
   8.777125e+05  -7.889290e+05
   1.768320e+06   9.076679e+05
   8.942961e+05   3.076197e+06
  -1.139060e+06   3.337808e+06
  -2.825318e+06   1.378926e+06
  -3.252205e+06  -1.138897e+06
  -2.328642e+06  -2.592312e+06
  -5.012331e+05  -2.517188e+06
   1.171992e+06  -1.388012e+06
   1.489978e+06  -2.060582e+05
   4.619954e+05   3.718175e+04
  -3.493707e+05  -6.928262e+05
   3.333650e+05  -1.232063e+06
   1.716240e+06  -5.736947e+05
   1.894236e+06   7.435446e+05
   4.157508e+05   1.281724e+06
  -1.069920e+06   5.714136e+05
  -8.771768e+05  -4.064276e+05
   7.612796e+05  -5.638550e+05
   2.102956e+06   1.943939e+05
   1.747615e+06   1.252169e+06
  -1.614940e+05   1.917720e+06
  -2.150209e+06   1.630342e+06
  -2.602628e+06   3.104119e+05
  -1.155873e+06  -1.141335e+06
   8.128788e+05  -1.382858e+06
   1.409953e+06  -1.986738e+05
   1.857185e+05   9.787013e+05
  -1.394421e+06   7.046771e+05
  -1.625441e+06  -6.833135e+05
  -3.823303e+05  -1.541237e+06
   9.778478e+05  -9.771586e+05
   1.200695e+06   2.226648e+05
   2.841348e+05   7.146457e+05
  -7.163038e+05   7.575386e+04
  -6.920301e+05  -9.615151e+05
   5.261378e+05  -1.326537e+06
   1.868111e+06  -5.191238e+05
   1.907781e+06   9.588602e+05
   3.888671e+05   1.927666e+06
  -1.308440e+06   1.559395e+06
  -1.610089e+06   2.387313e+05
  -5.035224e+05  -7.998090e+05
   5.949715e+05  -7.754760e+05
   6.146533e+05  -7.882022e+04
  -8.911275e+04   3.794624e+05
  -4.916619e+05   2.391916e+05
  -1.782353e+05  -7.750207e+04
   3.931830e+05   7.014105e+03
   5.169672e+05   5.791098e+05
  -1.449432e+05   1.108141e+06
  -1.269677e+06   8.652776e+05
  -1.952308e+06  -3.529638e+05
  -1.394477e+06  -1.795167e+06
   1.721756e+05  -2.278761e+06
   1.503376e+06  -1.375301e+06
   1.619304e+06   7.612988e+04
   8.589527e+05   8.649342e+05
   3.113729e+05   6.808449e+05
   4.063645e+05   2.391107e+05
   5.472499e+05   2.635028e+05
   8.994550e+04   6.843162e+05
  -7.973380e+05   8.628910e+05
  -1.362995e+06   3.422770e+05
  -1.020977e+06  -6.768962e+05
   2.008419e+05  -1.408597e+06
   1.605807e+06  -1.050817e+06
   2.126648e+06   4.180416e+05
   1.112450e+06   1.946137e+06
  -8.787202e+05   2.230206e+06
  -2.344386e+06   1.028326e+06
  -2.233353e+06  -5.506806e+05
  -9.658854e+05  -1.245948e+06
   1.577386e+05  -9.360560e+05
   3.939650e+05  -5.196078e+05
   1.192166e+05  -6.945396e+05
   1.027941e+05  -1.187691e+06
   5.977444e+05  -1.191337e+06
   1.188525e+06  -3.097264e+05
   1.258867e+06   9.963900e+05
   5.425583e+05   1.768925e+06
  -5.678887e+05   1.354576e+06
  -1.208739e+06   2.268744e+04
  -7.901131e+05  -1.175469e+06
   3.195826e+05  -1.313500e+06
   1.055870e+06  -4.314666e+05
   7.707305e+05   5.924168e+05
  -6.366092e+04   9.852560e+05
  -4.492122e+05   7.505411e+05
  -5.830818e+04   4.108061e+05
   4.007655e+05   3.182640e+05
   5.448144e+04   3.618525e+05
  -1.059220e+06   2.183013e+05
  -1.916421e+06  -2.735700e+05
  -1.529698e+06  -9.346250e+05
  -1.270932e+04  -1.326911e+06
   1.441016e+06  -1.084409e+06
   1.703491e+06  -3.057677e+05
   8.017485e+05   4.175573e+05
  -2.214310e+05   5.218005e+05
  -4.713203e+05   5.331930e+04
  -2.518556e+04  -3.729366e+05
   4.233244e+05  -2.407388e+05
   4.522094e+05   3.151131e+05
   2.212075e+05   6.791465e+05
   7.315523e+04   4.470673e+05
   1.328187e+05  -1.066428e+05
   2.787286e+05  -2.953974e+05
   2.642013e+05   2.123174e+05
  -1.337947e+05   9.321729e+05
  -8.262808e+05   1.005232e+06
  -1.242743e+06   1.695843e+05
  -7.825090e+05  -8.427657e+05
   3.708609e+05  -1.051157e+06
   1.155883e+06  -3.126852e+05
   6.913586e+05   5.346306e+05
  -6.449855e+05   6.230618e+05
  -1.503503e+06  -5.805484e+04
  -9.856376e+05  -7.953299e+05
   4.224844e+05  -9.560544e+05
   1.410749e+06  -4.990033e+05
   1.181766e+06   1.496757e+05
   1.433291e+05   4.876050e+05
  -6.047198e+05   2.723411e+05
  -3.589312e+05  -2.625875e+05
   5.494675e+05  -4.871659e+05
   1.107658e+06   7.310214e+04
   6.289786e+05   1.104180e+06
  -5.483323e+05   1.598209e+06
  -1.389586e+06   8.401377e+05
  -1.190202e+06  -7.011960e+05
  -2.127478e+05  -1.686668e+06
   6.807570e+05  -1.237650e+06
   8.781882e+05   1.431241e+05
   4.335742e+05   1.116003e+06
  -1.806321e+05   9.249548e+05
  -5.242215e+05   9.329590e+04
  -4.530104e+05  -3.526824e+05
  -1.658867e+05  -1.321434e+05
  -4.097152e+04   9.477277e+04
  -2.538071e+05  -2.636690e+05
  -4.886949e+05  -8.980118e+05
  -2.072351e+05  -1.017352e+06
   6.534302e+05  -3.870784e+05
   1.397337e+06   4.174356e+05
   1.228243e+06   7.719118e+05
   1.856739e+05   6.530112e+05
  -8.062830e+05   4.041581e+05
  -9.280303e+05   1.884420e+05
  -3.342471e+05  -3.801914e+04
   1.367470e+05  -2.133158e+05
   2.229382e+04  -2.010833e+05
  -2.589344e+05  -9.254787e+04
  -4.556604e+04  -1.237241e+05
   6.281373e+05  -2.260613e+05
   9.833192e+05  -3.376918e+03
   4.057510e+05   6.397026e+05
  -7.801015e+05   1.114827e+06
  -1.580550e+06   7.348112e+05
  -1.324113e+06  -3.850328e+05
  -2.781455e+05  -1.319706e+06
   6.970765e+05  -1.305113e+06
   9.771698e+05  -5.185681e+05
   6.200875e+05   2.120246e+05
   1.288080e+05   3.336172e+05
  -6.950891e+04   5.756396e+04
   7.554679e+04  -2.227689e+04
   2.924403e+05   3.402593e+05
   2.486697e+05   7.573334e+05
  -1.574901e+05   6.406189e+05
  -6.426253e+05  -1.057159e+05
  -7.080533e+05  -8.842744e+05
  -1.226398e+05  -9.659436e+05
   7.048652e+05  -2.416036e+05
   9.840316e+05   6.624336e+05
   3.452589e+05   1.017657e+06
  -6.579828e+05   6.474474e+05
  -1.051530e+06  -5.003683e+04
  -5.105094e+05  -5.627780e+05
   2.555015e+05  -6.399226e+05
   3.465278e+05  -3.540400e+05
  -2.356634e+05  -7.464843e+03
  -6.111213e+05   4.759031e+04
  -1.428578e+05  -2.860985e+05
   7.651323e+05  -6.543365e+05
   1.174787e+06  -5.350229e+05
   7.196570e+05   1.490965e+05
  -7.420520e+04   8.189540e+05
  -5.011328e+05   8.166968e+05
  -3.938456e+05   1.603372e+05
  -5.740982e+04  -4.500008e+05
   2.164314e+05  -4.126960e+05
   3.325680e+05   1.338859e+05
   2.497429e+05   5.384403e+05
  -4.032061e+04   4.011723e+05
  -3.680772e+05  -3.508634e+04
  -4.538162e+05  -2.533354e+05
  -2.312545e+05  -8.524052e+04
   3.585918e+04   1.384520e+05
   8.163956e+04   3.672472e+04
  -1.500823e+04  -3.308823e+05
   3.688538e+04  -5.138353e+05
   2.935044e+05  -2.085712e+05
   4.351380e+05   3.469754e+05
   1.581104e+05   6.035900e+05
  -3.776767e+05   3.027505e+05
  -6.291245e+05  -2.492208e+05
  -2.491725e+05  -5.341037e+05
   4.699541e+05  -3.545489e+05
   8.311012e+05   5.259458e+04
   4.583601e+05   3.453336e+05
  -2.670383e+05   3.824127e+05
  -5.952575e+05   2.278319e+05
  -2.350256e+05   2.370580e+04
   3.232425e+05  -6.936979e+04
   3.831644e+05   5.253027e+04
  -1.535280e+05   2.760982e+05
  -6.942390e+05   2.681932e+05
