
 $NMID
 id='ANONYMOUS ', fmtdat='(2E16.6)'
 volume=1.0
 tramp=1.0
 $END
   5.286238e+07  -1.406045e+06
   3.284117e+07   3.152364e+07
  -5.701401e+06   3.586861e+07
  -2.539249e+07   1.485584e+07
  -1.584251e+07  -5.746366e+06
   2.646587e+06  -8.890836e+06
   9.325493e+06   5.984436e+05
   3.129814e+06   9.060718e+06
  -5.410809e+06   9.208739e+06
  -9.049688e+06   2.352315e+06
  -6.833364e+06  -5.691573e+06
  -1.012990e+06  -8.210595e+06
   3.744396e+06  -2.680718e+06
   2.696884e+06   5.229145e+06
  -3.343260e+06   6.468126e+06
  -7.498696e+06  -9.471540e+05
  -4.545733e+06  -9.515108e+06
   3.206380e+06  -1.128137e+07
   9.382449e+06  -5.837783e+06
   1.021815e+07   1.712720e+06
   6.324057e+06   6.887910e+06
   8.045227e+05   8.000199e+06
  -2.462105e+06   5.645952e+06
  -1.410416e+06   2.656415e+06
   1.267289e+06   2.266903e+06
   2.657137e+05   4.156491e+06
  -5.228341e+06   4.310949e+06
  -9.311067e+06   6.014759e+05
  -6.789647e+06  -3.826888e+06
  -2.273061e+05  -4.799757e+06
   3.626720e+06  -2.440585e+06
   2.355619e+06   1.039251e+05
  -7.708890e+05   1.059713e+06
  -2.422578e+06   4.832500e+05
  -2.192371e+06  -1.526349e+06
  -6.290496e+05  -3.885883e+06
   1.695048e+06  -3.662549e+06
   2.964440e+06   1.419722e+05
   1.569606e+06   3.389566e+06
  -6.918537e+05   1.668059e+06
  -2.939059e+05  -2.498876e+06
   2.336469e+06  -2.334428e+06
   2.455813e+06   2.922356e+06
  -1.995271e+06   5.850410e+06
  -6.369500e+06   1.187557e+06
  -4.967135e+06  -6.310870e+06
   1.510313e+06  -8.035292e+06
   6.928180e+06  -2.473881e+06
   6.796103e+06   4.033191e+06
   2.023084e+06   5.738359e+06
  -3.241228e+06   2.774925e+06
  -5.168269e+06  -1.240727e+06
  -2.533901e+06  -3.252099e+06
   2.170498e+06  -2.201378e+06
   4.333908e+06   6.959087e+05
   1.975461e+06   2.496689e+06
  -1.570991e+06   1.356561e+06
  -1.741976e+06  -9.206720e+05
   1.137125e+06  -9.864114e+05
   2.417084e+06   1.433997e+06
  -3.224434e+05   3.163652e+06
  -4.169626e+06   1.963264e+06
  -5.037547e+06  -1.023433e+06
  -2.348289e+06  -3.649396e+06
   1.620098e+06  -5.072989e+06
   4.772264e+06  -4.751387e+06
   5.929379e+06  -1.769531e+06
   4.412455e+06   2.967182e+06
   1.021842e+06   5.920527e+06
  -1.612343e+06   4.678929e+06
  -1.614014e+06   1.343552e+06
  -2.450888e+05  -1.049212e+05
  -1.309743e+05   9.834529e+05
  -1.660346e+06   1.690510e+06
  -2.774218e+06   1.603309e+05
  -1.984883e+06  -1.961959e+06
   1.107752e+04  -2.163959e+06
   1.613414e+06  -2.194659e+05
   1.737786e+06   2.066627e+06
   4.661108e+04   2.908803e+06
  -2.686511e+06   1.637578e+06
  -4.336951e+06  -1.109736e+06
  -3.140069e+06  -3.554797e+06
  -4.279919e+04  -4.012180e+06
   2.084775e+06  -2.618790e+06
   2.065661e+06  -1.158529e+06
   1.736508e+06  -7.549866e+05
   2.869645e+06  -5.840202e+05
   4.296756e+06   6.141727e+05
   3.510816e+06   2.628314e+06
   2.362993e+05   4.076622e+06
  -3.092121e+06   3.932709e+06
  -4.105263e+06   2.164003e+06
  -2.627615e+06  -4.026974e+05
  -2.708006e+05  -2.221582e+06
   1.084608e+06  -1.918832e+06
   5.536876e+05   3.696672e+04
  -1.060259e+06   1.314349e+06
  -1.865544e+06   4.381580e+05
  -9.194437e+05  -1.160395e+06
   5.000145e+05  -1.121065e+06
   4.656016e+05   3.672450e+05
  -9.884463e+05   7.676783e+05
  -1.870154e+06  -1.114069e+06
  -8.261208e+05  -3.362058e+06
   1.360035e+06  -3.473311e+06
   3.041195e+06  -1.308715e+06
   3.379956e+06   1.279126e+06
   2.401840e+06   2.704603e+06
   5.331176e+05   2.620730e+06
  -1.214829e+06   1.488272e+06
  -1.574163e+06   2.527654e+05
  -4.924583e+05  -3.423747e+04
   3.750438e+05   7.373986e+05
  -3.668633e+05   1.330684e+06
  -1.859489e+06   6.204241e+05
  -2.034124e+06  -8.119538e+05
  -4.301975e+05  -1.382743e+06
   1.143776e+06  -6.022702e+05
   9.090531e+05   4.284268e+05
  -8.226014e+05   5.604147e+05
  -2.199724e+06  -2.398698e+05
  -1.805804e+06  -1.312234e+06
   1.841194e+05  -1.994783e+06
   2.265647e+06  -1.720243e+06
   2.761076e+06  -3.428334e+05
   1.241362e+06   1.222086e+06
  -8.710903e+05   1.502998e+06
  -1.531096e+06   2.242694e+05
  -2.178919e+05  -1.059987e+06
   1.488381e+06  -7.660257e+05
   1.731733e+06   7.301071e+05
   3.905706e+05   1.637071e+06
  -1.052247e+06   1.014885e+06
  -1.264768e+06  -2.619915e+05
  -2.779065e+05  -7.653145e+05
   7.805470e+05  -7.471113e+04
   7.513325e+05   1.029190e+06
  -5.463170e+05   1.427063e+06
  -1.989293e+06   5.794510e+05
  -2.049506e+06  -1.003228e+06
  -4.299978e+05  -2.057161e+06
   1.392655e+06  -1.671536e+06
   1.715446e+06  -2.560985e+05
   5.286261e+05   8.507253e+05
  -6.332108e+05   8.201192e+05
  -6.365040e+05   9.177258e+04
   1.037252e+05  -3.736456e+05
   4.956404e+05  -2.311471e+05
   1.444554e+05   6.719353e+04
  -4.385517e+05  -4.836856e+04
  -5.376987e+05  -6.447769e+05
   1.701555e+05  -1.186006e+06
   1.355435e+06  -9.255916e+05
   2.084704e+06   3.652799e+05
   1.503376e+06   1.904812e+06
  -1.617666e+05   2.423209e+06
  -1.581190e+06   1.456419e+06
  -1.699703e+06  -7.973790e+04
  -8.927538e+05  -8.858066e+05
  -3.368187e+05  -6.686628e+05
  -4.680835e+05  -2.240838e+05
  -6.165200e+05  -2.939552e+05
  -1.039935e+05  -7.515965e+05
   8.515837e+05  -9.205400e+05
   1.441815e+06  -3.613678e+05
   1.072953e+06   7.027721e+05
  -2.123928e+05   1.474221e+06
  -1.696501e+06   1.115127e+06
  -2.257752e+06  -4.309890e+05
  -1.184062e+06  -2.066732e+06
   9.432393e+05  -2.380487e+06
   2.504187e+06  -1.093394e+06
   2.365293e+06   5.925592e+05
   1.000627e+06   1.312940e+06
  -1.750339e+05   9.620529e+05
  -3.869692e+05   5.309927e+05
  -7.958742e+04   7.518280e+05
  -8.250797e+04   1.295149e+06
  -6.363301e+05   1.292285e+06
  -1.277450e+06   3.445788e+05
  -1.356467e+06  -1.048199e+06
  -5.974730e+05  -1.877778e+06
   5.886764e+05  -1.447998e+06
   1.283081e+06  -2.951999e+04
   8.419465e+05   1.256302e+06
  -3.495456e+05   1.400168e+06
  -1.140202e+06   4.402541e+05
  -8.226606e+05  -6.621823e+05
   8.862606e+04  -1.066514e+06
   5.040589e+05  -7.930539e+05
   6.941524e+04  -4.220213e+05
  -4.380309e+05  -3.288417e+05
  -6.663246e+04  -3.830052e+05
   1.137388e+06  -2.365301e+05
   2.059680e+06   2.833787e+05
   1.636328e+06   9.933431e+05
   1.911108e+03   1.425376e+06
  -1.550594e+06   1.170741e+06
  -1.817251e+06   3.244711e+05
  -8.449377e+05  -4.635333e+05
   2.441038e+05  -5.689060e+05
   5.070795e+05  -4.886864e+04
   3.679350e+04   4.151239e+05
  -4.398052e+05   2.678256e+05
  -4.884922e+05  -3.305105e+05
  -2.645792e+05  -7.187067e+05
  -1.020472e+05  -4.772437e+05
  -1.356630e+05   1.016878e+05
  -2.759205e+05   3.027634e+05
  -2.802700e+05  -2.259985e+05
   1.217104e+05  -9.902140e+05
   8.728476e+05  -1.083246e+06
   1.349619e+06  -2.022353e+05
   8.665512e+05   8.936822e+05
  -3.879211e+05   1.142956e+06
  -1.245561e+06   3.625997e+05
  -7.464278e+05  -5.559189e+05
   6.848719e+05  -6.649021e+05
   1.589925e+06   5.645493e+04
   1.028826e+06   8.373477e+05
  -4.572353e+05   1.001241e+06
  -1.485767e+06   5.169440e+05
  -1.237684e+06  -1.597444e+05
  -1.473727e+05  -5.105907e+05
   6.415754e+05  -2.849863e+05
   3.899287e+05   2.839740e+05
  -5.721660e+05   5.361454e+05
  -1.184723e+06  -5.094929e+04
  -7.019959e+05  -1.163806e+06
   5.445555e+05  -1.719177e+06
   1.460697e+06  -9.262886e+05
   1.276865e+06   7.240569e+05
   2.499137e+05   1.786828e+06
  -7.070749e+05   1.312685e+06
  -9.289934e+05  -1.547100e+05
  -4.591741e+05  -1.180946e+06
   1.978617e+05  -9.719541e+05
   5.604670e+05  -9.627058e+04
   4.730326e+05   3.646290e+05
   1.640489e+05   1.314739e+05
   4.705838e+04  -9.552399e+04
   2.915628e+05   2.912667e+05
   5.365008e+05   9.545768e+05
   2.148155e+05   1.072131e+06
  -7.094515e+05   4.117715e+05
  -1.486951e+06  -4.263093e+05
  -1.297768e+06  -8.030351e+05
  -2.023928e+05  -6.951871e+05
   8.380106e+05  -4.436783e+05
   9.777622e+05  -2.067309e+05
   3.664645e+05   4.738072e+04
  -1.372335e+05   2.308586e+05
  -3.653704e+04   2.022191e+05
   2.602046e+05   8.220754e+04
   5.725737e+04   1.315722e+05
  -6.471099e+05   2.592476e+05
  -1.049470e+06   2.148407e+04
  -4.664253e+05  -6.833077e+05
   7.996739e+05  -1.210758e+06
   1.686633e+06  -8.143791e+05
   1.438839e+06   3.853688e+05
   3.219765e+05   1.398693e+06
  -7.300469e+05   1.403764e+06
  -1.035763e+06   5.776701e+05
  -6.622287e+05  -2.067018e+05
  -1.493407e+05  -3.553010e+05
   5.961126e+04  -7.586212e+04
  -8.372484e+04   1.140248e+04
  -3.064124e+05  -3.621689e+05
  -2.674858e+05  -8.014246e+05
   1.559811e+05  -6.883777e+05
   6.841078e+05   9.093652e+04
   7.788302e+05   9.212100e+05
   1.635993e+05   1.031788e+06
  -7.391232e+05   2.862272e+05
  -1.065632e+06  -6.759518e+05
  -3.937179e+05  -1.081271e+06
   6.905097e+05  -7.123287e+05
   1.129772e+06   3.448474e+04
   5.594131e+05   6.055507e+05
  -2.669868e+05   7.006536e+05
  -3.789126e+05   3.829043e+05
   2.364219e+05  -4.695051e+03
   6.463223e+05  -6.300935e+04
   1.612457e+05   3.065384e+05
  -8.045230e+05   7.054577e+05
  -1.253998e+06   5.722504e+05
  -7.816245e+05  -1.634156e+05
   6.669917e+04  -8.793307e+05
   5.363970e+05  -8.806979e+05
   4.347275e+05  -1.850955e+05
   7.741912e+04   4.732464e+05
  -2.228351e+05   4.517768e+05
  -3.577879e+05  -1.233062e+05
  -2.763313e+05  -5.693758e+05
   3.542960e+04  -4.413371e+05
   3.941107e+05   2.571748e+04
   4.900631e+05   2.736535e+05
   2.460247e+05   9.609835e+04
  -4.533793e+04  -1.593094e+05
  -8.349577e+04  -6.091055e+04
   4.234205e+04   3.464945e+05
  -6.292073e+03   5.683055e+05
  -3.050038e+05   2.541421e+05
  -4.906039e+05  -3.492127e+05
  -2.033500e+05  -6.425894e+05
   3.915071e+05  -3.366362e+05
   6.850966e+05   2.478627e+05
   2.820233e+05   5.605004e+05
  -4.996531e+05   3.861932e+05
  -8.955008e+05  -3.822800e+04
  -4.977481e+05  -3.610229e+05
   2.803385e+05  -4.220432e+05
   6.364571e+05  -2.643412e+05
   2.614782e+05  -2.927449e+04
  -3.293914e+05   9.321596e+04
  -4.054156e+05  -3.275293e+04
   1.445415e+05  -2.890462e+05
   7.138887e+05  -3.008592e+05
