
 $NMID
 id='ANONYMOUS ', fmtdat='(2E16.6)'
 volume=1.0
 tramp=1.0
 $END
   5.941489e+07  -1.274964e+06
   3.609305e+07   3.638396e+07
  -7.457033e+06   4.031001e+07
  -2.870240e+07   1.549433e+07
  -1.706922e+07  -7.423976e+06
   3.509021e+06  -9.745541e+06
   1.013698e+07   1.370290e+06
   2.810500e+06   1.012310e+07
  -6.354928e+06   9.552591e+06
  -9.946285e+06   2.077092e+06
  -7.425139e+06  -6.259355e+06
  -1.125329e+06  -8.861055e+06
   4.070680e+06  -3.039204e+06
   2.919913e+06   5.387478e+06
  -3.712389e+06   6.699842e+06
  -8.177801e+06  -1.321144e+06
  -4.798284e+06  -1.053874e+07
   3.722061e+06  -1.236556e+07
   1.045645e+07  -6.436627e+06
   1.146813e+07   1.837024e+06
   7.281592e+06   7.767553e+06
   9.552146e+05   9.281750e+06
  -3.148835e+06   6.534241e+06
  -2.185012e+06   2.640331e+06
   1.153293e+06   1.810585e+06
   6.127494e+05   4.140468e+06
  -5.229081e+06   4.870824e+06
  -9.936895e+06   1.053019e+06
  -7.537618e+06  -3.979758e+06
  -6.062229e+05  -5.362131e+06
   3.652312e+06  -3.026011e+06
   2.684809e+06  -3.246231e+05
  -2.430055e+05   9.452955e+05
  -2.062009e+06   7.920984e+05
  -2.382435e+06  -1.125576e+06
  -1.098744e+06  -3.962066e+06
   1.696151e+06  -4.178494e+06
   3.586489e+06  -7.635199e+04
   2.067237e+06   3.850552e+06
  -8.486635e+05   2.247739e+06
  -6.478346e+05  -2.399926e+06
   2.378633e+06  -2.410131e+06
   2.564648e+06   3.286390e+06
  -2.543052e+06   6.417713e+06
  -7.418910e+06   1.094872e+06
  -5.543311e+06  -7.257793e+06
   1.902937e+06  -9.014197e+06
   7.741875e+06  -2.714297e+06
   7.267219e+06   4.404112e+06
   1.994515e+06   6.104299e+06
  -3.475659e+06   2.808880e+06
  -5.336239e+06  -1.452819e+06
  -2.472876e+06  -3.496894e+06
   2.502853e+06  -2.274223e+06
   4.704007e+06   8.953565e+05
   2.038954e+06   2.797814e+06
  -1.770592e+06   1.458474e+06
  -1.772229e+06  -9.988907e+05
   1.412053e+06  -8.615307e+05
   2.526999e+06   1.929491e+06
  -7.909911e+05   3.646261e+06
  -4.940287e+06   1.984107e+06
  -5.535213e+06  -1.419305e+06
  -2.444350e+06  -4.130815e+06
   1.671605e+06  -5.534177e+06
   4.920997e+06  -5.242381e+06
   6.336740e+06  -2.101963e+06
   4.941963e+06   3.079584e+06
   1.245469e+06   6.344879e+06
  -1.794245e+06   4.909560e+06
  -1.775345e+06   1.158846e+06
  -2.666880e+04  -3.639085e+05
   2.897262e+05   1.056113e+06
  -1.446156e+06   2.072986e+06
  -2.895285e+06   5.493605e+05
  -2.275173e+06  -1.761728e+06
  -2.618935e+05  -2.165669e+06
   1.478628e+06  -3.606406e+05
   1.801783e+06   1.932899e+06
   1.898523e+05   2.970219e+06
  -2.748318e+06   1.879590e+06
  -4.711062e+06  -9.846952e+05
  -3.540582e+06  -3.786653e+06
  -1.127353e+05  -4.457817e+06
   2.333293e+06  -2.934581e+06
   2.333031e+06  -1.217599e+06
   1.865144e+06  -7.051120e+05
   2.959032e+06  -5.646525e+05
   4.436683e+06   6.148678e+05
   3.645753e+06   2.663743e+06
   3.135992e+05   4.169978e+06
  -3.049490e+06   4.109485e+06
  -4.115475e+06   2.402103e+06
  -2.755359e+06  -2.434449e+05
  -4.655294e+05  -2.263553e+06
   9.843508e+05  -2.068287e+06
   5.912931e+05  -1.020270e+04
  -1.026765e+06   1.400619e+06
  -1.936290e+06   4.946652e+05
  -1.018866e+06  -1.205809e+06
   4.494656e+05  -1.162103e+06
   4.073153e+05   3.647193e+05
  -1.085716e+06   6.605931e+05
  -1.874795e+06  -1.372418e+06
  -6.344268e+05  -3.547892e+06
   1.607285e+06  -3.380448e+06
   3.118111e+06  -1.067097e+06
   3.285112e+06   1.380987e+06
   2.328168e+06   2.620356e+06
   5.698112e+05   2.551884e+06
  -1.163466e+06   1.542773e+06
  -1.579702e+06   3.277803e+05
  -5.014280e+05  -2.311916e+04
   3.954186e+05   7.479590e+05
  -3.845995e+05   1.392366e+06
  -1.947589e+06   6.621203e+05
  -2.108943e+06  -8.499766e+05
  -4.261102e+05  -1.441157e+06
   1.170650e+06  -6.177799e+05
   8.927897e+05   4.164945e+05
  -8.417376e+05   5.100483e+05
  -2.163076e+06  -2.716158e+05
  -1.754291e+06  -1.270996e+06
   1.833094e+05  -1.944794e+06
   2.243685e+06  -1.744266e+06
   2.788189e+06  -3.934545e+05
   1.289621e+06   1.249095e+06
  -8.899186e+05   1.591048e+06
  -1.613031e+06   2.576884e+05
  -2.648191e+05  -1.114683e+06
   1.517856e+06  -8.215894e+05
   1.771242e+06   7.337134e+05
   3.816851e+05   1.656073e+06
  -1.082117e+06   9.968499e+05
  -1.266463e+06  -2.998610e+05
  -2.478813e+05  -7.870061e+05
   8.260879e+05  -7.773811e+04
   8.043287e+05   1.047088e+06
  -5.134468e+05   1.484809e+06
  -2.017860e+06   6.581739e+05
  -2.127031e+06  -9.701925e+05
  -4.831354e+05  -2.097991e+06
   1.403369e+06  -1.731010e+06
   1.746080e+06  -2.748090e+05
   5.313926e+05   8.637715e+05
  -6.391012e+05   8.335266e+05
  -6.210659e+05   1.142963e+05
   1.094888e+05  -3.306237e+05
   4.487656e+05  -2.067253e+05
   7.269462e+04   3.143279e+04
  -4.712514e+05  -1.184704e+05
  -5.241062e+05  -6.941386e+05
   1.886105e+05  -1.211835e+06
   1.371981e+06  -9.595414e+05
   2.131668e+06   3.323029e+05
   1.578091e+06   1.910510e+06
  -1.055435e+05   2.459790e+06
  -1.560321e+06   1.481066e+06
  -1.684643e+06  -6.315173e+04
  -8.770783e+05  -8.303259e+05
  -3.593530e+05  -5.790087e+05
  -5.400596e+05  -1.725089e+05
  -6.852371e+05  -3.168624e+05
  -1.244008e+05  -7.990079e+05
   8.582463e+05  -9.420071e+05
   1.438723e+06  -3.761194e+05
   1.069728e+06   6.671169e+05
  -1.955374e+05   1.451035e+06
  -1.685351e+06   1.142836e+06
  -2.285683e+06  -3.898980e+05
  -1.223324e+06  -2.078666e+06
   9.486234e+05  -2.438117e+06
   2.548479e+06  -1.131599e+06
   2.387286e+06   5.908840e+05
   9.819916e+05   1.300274e+06
  -1.785411e+05   9.192216e+05
  -3.302035e+05   5.070583e+05
   6.589466e+03   7.895436e+05
  -2.879050e+04   1.371547e+06
  -6.372148e+05   1.359881e+06
  -1.316953e+06   3.863432e+05
  -1.416945e+06  -1.032144e+06
  -6.592272e+05  -1.894877e+06
   5.581396e+05  -1.488729e+06
   1.298400e+06  -5.198758e+04
   8.690041e+05   1.276908e+06
  -3.580366e+05   1.428515e+06
  -1.180658e+06   4.247113e+05
  -8.435343e+05  -7.183055e+05
   1.163702e+05  -1.112765e+06
   5.477214e+05  -7.991799e+05
   7.864369e+04  -4.034152e+05
  -4.664530e+05  -3.129003e+05
  -8.561260e+04  -3.835711e+05
   1.168230e+06  -2.569290e+05
   2.126487e+06   2.551008e+05
   1.685107e+06   9.903596e+05
  -3.517252e+03   1.469469e+06
  -1.592533e+06   1.231499e+06
  -1.850254e+06   3.447030e+05
  -8.479662e+05  -4.949257e+05
   2.572876e+05  -6.020065e+05
   5.225802e+05  -4.068804e+04
   5.607837e+04   4.508118e+05
  -4.265730e+05   2.939898e+05
  -5.100678e+05  -3.237551e+05
  -3.232922e+05  -7.209686e+05
  -1.481611e+05  -4.871194e+05
  -1.257655e+05   8.415287e+04
  -2.402087e+05   2.921769e+05
  -2.843509e+05  -2.238314e+05
   7.777740e+04  -1.001712e+06
   8.627183e+05  -1.131057e+06
   1.412906e+06  -2.553712e+05
   9.451002e+05   8.937683e+05
  -3.718508e+05   1.204635e+06
  -1.287324e+06   4.290035e+05
  -7.806829e+05  -5.358631e+05
   6.866108e+05  -6.837504e+05
   1.596910e+06   3.378228e+04
   1.017926e+06   8.238803e+05
  -4.668767e+05   9.920028e+05
  -1.475981e+06   5.152926e+05
  -1.224070e+06  -1.500553e+05
  -1.461965e+05  -5.027465e+05
   6.454831e+05  -2.879284e+05
   4.126130e+05   2.923703e+05
  -5.549024e+05   5.805768e+05
  -1.214510e+06   4.851135e+03
  -7.789535e+05  -1.157186e+06
   4.724114e+05  -1.782403e+06
   1.445218e+06  -1.007882e+06
   1.320363e+06   6.868811e+05
   3.093653e+05   1.798504e+06
  -6.762181e+05   1.332025e+06
  -9.348564e+05  -1.518307e+05
  -4.742064e+05  -1.182800e+06
   1.997064e+05  -9.680616e+05
   5.718894e+05  -9.883011e+04
   4.694181e+05   3.470301e+05
   1.479682e+05   1.162362e+05
   5.281618e+04  -8.851442e+04
   3.343652e+05   3.112293e+05
   5.813150e+05   9.629969e+05
   2.190861e+05   1.069261e+06
  -7.398832e+05   4.242219e+05
  -1.513988e+06  -3.891471e+05
  -1.309949e+06  -7.719811e+05
  -2.199405e+05  -7.038763e+05
   8.134785e+05  -4.811158e+05
   9.742360e+05  -2.297485e+05
   3.898437e+05   5.636784e+04
  -1.239709e+05   2.423324e+05
  -5.652369e+04   1.853953e+05
   2.401133e+05   5.277739e+04
   7.462862e+04   1.327108e+05
  -6.191258e+05   3.012776e+05
  -1.070846e+06   6.189456e+04
  -5.375417e+05  -6.943986e+05
   7.505092e+05  -1.278193e+06
   1.713080e+06  -8.963266e+05
   1.514008e+06   3.379728e+05
   3.833450e+05   1.407753e+06
  -7.080305e+05   1.456750e+06
  -1.039193e+06   6.396361e+05
  -6.787907e+05  -1.714586e+05
  -1.759447e+05  -3.598180e+05
   3.617689e+04  -1.024370e+05
  -8.988503e+04  -8.114704e+03
  -3.067715e+05  -3.644000e+05
  -2.847084e+05  -8.037053e+05
   1.324735e+05  -7.123173e+05
   6.968930e+05   4.957990e+04
   8.425349e+05   8.958558e+05
   2.305845e+05   1.053593e+06
  -7.305317e+05   3.461441e+05
  -1.119591e+06  -6.287129e+05
  -4.534793e+05  -1.091723e+06
   6.785829e+05  -7.684642e+05
   1.165323e+06  -6.827628e+03
   6.004679e+05   6.203990e+05
  -2.561558e+05   7.465683e+05
  -3.977032e+05   4.027947e+05
   2.162449e+05  -2.792146e+04
   6.488282e+05  -9.078554e+04
   1.816863e+05   3.131402e+05
  -7.941708e+05   7.392015e+05
  -1.273959e+06   5.976073e+05
  -8.209482e+05  -1.668279e+05
   3.937553e+04  -9.066288e+05
   5.415539e+05  -9.181330e+05
   4.655462e+05  -2.154690e+05
   1.101467e+05   4.706691e+05
  -2.097237e+05   4.815916e+05
  -3.711382e+05  -9.017043e+04
  -3.034884e+05  -5.695514e+05
   1.976427e+04  -4.723403e+05
   4.047067e+05   3.226324e+03
   5.118142e+05   2.801032e+05
   2.503030e+05   1.041764e+05
  -5.921110e+04  -1.812902e+05
  -7.916042e+04  -9.703822e+04
   9.005343e+04   3.428223e+05
   5.285422e+04   6.134134e+05
  -2.960154e+05   3.141951e+05
  -5.473693e+05  -3.175317e+05
  -2.705052e+05  -6.516827e+05
   3.772926e+05  -3.695802e+05
   7.239450e+05   2.166695e+05
   3.198016e+05   5.535138e+05
  -5.028093e+05   4.115174e+05
  -9.281349e+05  -1.082892e+03
  -5.254475e+05  -3.512894e+05
   2.747040e+05  -4.562524e+05
   6.493114e+05  -3.104437e+05
   2.840320e+05  -3.831810e+04
  -3.101984e+05   1.303691e+05
  -4.088597e+05   8.778931e+03
   1.127785e+05  -2.876643e+05
   6.812543e+05  -3.385037e+05
