
 $NMID
 id='ANONYMOUS ', fmtdat='(2E16.6)'
 volume=1.0
 tramp=1.0
 $END
  -1.392881e+07  -6.009761e+05
  -8.512485e+06  -7.836645e+06
   1.240599e+06  -9.007424e+06
   6.525490e+06  -4.564026e+06
   4.537204e+06   6.180265e+05
  -2.892169e+05   2.379750e+06
  -2.636914e+06   4.657991e+05
  -1.393009e+06  -2.342323e+06
   1.136458e+06  -3.103105e+06
   2.533456e+06  -1.080580e+06
   1.968620e+06   1.761867e+06
   1.627788e+05   2.590306e+06
  -1.225908e+06   5.993904e+05
  -8.456477e+05  -1.986173e+06
   9.297279e+05  -2.283385e+06
   2.157316e+06   7.260886e+04
   1.360611e+06   2.695236e+06
  -8.813608e+05   3.199635e+06
  -2.657393e+06   1.471097e+06
  -2.682320e+06  -7.897762e+05
  -1.289496e+06  -1.988533e+06
   1.358298e+05  -1.814678e+06
   4.224587e+05  -1.087167e+06
  -3.483093e+05  -8.488217e+05
  -8.264952e+05  -1.362706e+06
   2.120309e+05  -1.804772e+06
   2.229885e+06  -1.190328e+06
   3.194308e+06   3.390448e+05
   1.894827e+06   1.530134e+06
  -4.695153e+05   1.426488e+06
  -1.606207e+06   3.575896e+05
  -7.215293e+05  -6.073644e+05
   8.562656e+05  -7.358451e+05
   1.468503e+06   2.423606e+03
   8.074223e+05   1.080427e+06
  -2.476175e+05   1.598755e+06
  -7.845071e+05   9.059785e+05
  -5.534199e+05  -4.613997e+05
   3.237855e+04  -9.854762e+05
   2.645571e+05   1.602882e+04
  -2.103666e+05   1.226428e+06
  -8.799374e+05   8.769390e+05
  -7.863187e+05  -7.733531e+05
   2.944441e+05  -1.585087e+06
   1.353409e+06  -3.426394e+05
   1.155178e+06   1.604660e+06
  -3.606810e+05   2.054230e+06
  -1.927633e+06   5.770459e+05
  -2.161283e+06  -1.263144e+06
  -8.154939e+05  -1.866532e+06
   1.021325e+06  -1.047896e+06
   1.845910e+06   2.490949e+05
   1.042791e+06   9.814198e+05
  -5.141376e+05   7.204838e+05
  -1.281512e+06  -1.278982e+05
  -6.486118e+05  -6.687841e+05
   4.365171e+05  -3.874730e+05
   6.513479e+05   2.759680e+05
  -1.107549e+05   4.654244e+05
  -7.170708e+05  -3.483807e+04
  -2.766662e+05  -6.024199e+05
   8.035068e+05  -5.873615e+05
   1.360137e+06   5.500493e+04
   7.383088e+05   9.261380e+05
  -6.575521e+05   1.530783e+06
  -1.828694e+06   1.386300e+06
  -2.005090e+06   3.020766e+05
  -1.190588e+06  -1.167833e+06
  -1.095732e+05  -1.959910e+06
   4.535649e+05  -1.582330e+06
   3.847940e+05  -7.085718e+05
   2.480707e+05  -3.163983e+05
   5.230297e+05  -4.577393e+05
   1.008527e+06  -3.552179e+05
   1.110685e+06   3.672891e+05
   5.665345e+05   1.083576e+06
  -2.872455e+05   9.588572e+05
  -8.485259e+05  -9.886665e+03
  -6.986212e+05  -9.854061e+05
   1.253167e+05  -1.149260e+06
   1.069225e+06  -4.045914e+05
   1.381922e+06   6.436589e+05
   7.917227e+05   1.249553e+06
  -1.426070e+05   1.133766e+06
  -6.173013e+05   6.510691e+05
  -5.276983e+05   3.469866e+05
  -5.254374e+05   3.472396e+05
  -1.041894e+06   2.752863e+05
  -1.584791e+06  -2.219751e+05
  -1.291963e+06  -1.006870e+06
  -4.060423e+04  -1.560685e+06
   1.289846e+06  -1.449419e+06
   1.685471e+06  -6.621921e+05
   9.716335e+05   3.472625e+05
  -9.245899e+04   9.082137e+05
  -5.729270e+05   6.482057e+05
  -1.967900e+05  -7.953303e+04
   4.789497e+05  -4.605450e+05
   6.894833e+05  -1.116266e+05
   2.581246e+05   4.404466e+05
  -2.647432e+05   4.262976e+05
  -2.636741e+05  -1.341219e+05
   2.506854e+05  -4.189568e+05
   6.926887e+05   1.335891e+05
   5.411247e+05   1.076224e+06
  -1.938240e+05   1.446603e+06
  -1.045008e+06   8.189862e+05
  -1.451384e+06  -3.202696e+05
  -1.113033e+06  -1.124221e+06
  -2.339256e+05  -1.136229e+06
   5.399761e+05  -5.714304e+05
   6.455854e+05  -3.678491e+04
   1.903674e+05   2.261907e+04
  -1.364968e+05  -2.894618e+05
   1.306644e+05  -4.711750e+05
   6.602238e+05  -2.020739e+05
   7.386325e+05   2.856280e+05
   1.751283e+05   4.922689e+05
  -4.366664e+05   2.353065e+05
  -4.018298e+05  -1.737611e+05
   2.861827e+05  -2.972436e+05
   9.264239e+05   1.197963e+04
   8.223915e+05   5.328103e+05
  -2.930879e+04   8.661650e+05
  -9.215992e+05   7.079478e+05
  -1.093558e+06   1.113313e+05
  -4.527541e+05  -4.620291e+05
   3.398234e+05  -5.134466e+05
   5.341616e+05  -4.542218e+04
   3.094814e+04   3.815902e+05
  -5.775440e+05   2.591468e+05
  -6.649650e+05  -2.809982e+05
  -1.820675e+05  -6.336612e+05
   3.761890e+05  -4.347549e+05
   5.036567e+05   5.079064e+04
   1.479589e+05   2.782437e+05
  -2.708248e+05   2.830736e+04
  -2.608968e+05  -4.022062e+05
   2.505828e+05  -5.350968e+05
   7.874395e+05  -1.710942e+05
   7.670455e+05   4.342988e+05
   1.314417e+05   7.949655e+05
  -5.451058e+05   6.235247e+05
  -6.590929e+05   9.361976e+04
  -2.143243e+05  -3.262057e+05
   2.467883e+05  -3.238924e+05
   2.836314e+05  -2.132071e+04
  -1.661522e+04   2.057702e+05
  -2.452646e+05   1.472266e+05
  -1.557277e+05  -4.360132e+04
   1.167717e+05  -6.066079e+04
   2.285047e+05   1.875641e+05
  -3.351939e+04   4.453476e+05
  -5.217045e+05   3.531256e+05
  -8.041986e+05  -1.644769e+05
  -5.508046e+05  -7.605560e+05
   1.034841e+05  -9.544853e+05
   6.478101e+05  -5.876273e+05
   7.071557e+05   2.255594e+04
   4.033040e+05   4.013331e+05
   1.431841e+05   3.700764e+05
   1.250040e+05   1.596543e+05
   1.701951e+05   1.000007e+05
   1.980628e+04   2.507172e+05
  -3.233982e+05   3.577970e+05
  -5.800292e+05   1.563308e+05
  -4.577950e+05  -3.008417e+05
   7.169285e+04  -6.274635e+05
   6.850237e+05  -4.505938e+05
   8.983005e+05   1.914721e+05
   4.632203e+05   8.150386e+05
  -3.551899e+05   9.111746e+05
  -9.568959e+05   4.239582e+05
  -9.400791e+05  -2.136286e+05
  -4.472435e+05  -5.259964e+05
   4.136109e+04  -4.389193e+05
   2.058097e+05  -2.625986e+05
   1.285683e+05  -2.853849e+05
   9.614660e+04  -4.520366e+05
   2.558301e+05  -4.542521e+05
   4.778829e+05  -9.995020e+04
   4.996126e+05   4.383001e+05
   1.945094e+05   7.479313e+05
  -2.629552e+05   5.563404e+05
  -5.081853e+05   8.595524e+02
  -3.235199e+05  -4.800474e+05
   1.187828e+05  -5.372847e+05
   4.053317e+05  -2.021175e+05
   3.048300e+05   1.971221e+05
  -1.852447e+02   3.732860e+05
  -1.444409e+05   3.109472e+05
  -7.621949e+03   1.904604e+05
   1.531473e+05   1.500279e+05
   1.175676e+04   1.564474e+05
  -4.250233e+05   8.242839e+04
  -7.679107e+05  -1.308126e+05
  -6.226344e+05  -3.927757e+05
  -1.754125e+04  -5.268121e+05
   5.779464e+05  -4.180177e+05
   6.986660e+05  -1.258466e+05
   3.378439e+05   1.412796e+05
  -8.312421e+04   1.927759e+05
  -1.843014e+05   3.304525e+04
   9.204792e+03  -1.295040e+05
   1.936957e+05  -8.647497e+04
   1.779863e+05   1.388421e+05
   4.977415e+04   2.966731e+05
  -6.917523e+03   1.908338e+05
   5.925398e+04  -6.543753e+04
   1.446164e+05  -1.487844e+05
   1.142299e+05   8.792705e+04
  -8.432875e+04   3.989335e+05
  -3.582156e+05   4.013284e+05
  -4.839176e+05   2.901433e+04
  -2.754435e+05  -3.663062e+05
   1.720930e+05  -4.021269e+05
   4.658508e+05  -8.008773e+04
   2.752077e+05   2.442798e+05
  -2.693636e+05   2.563682e+05
  -6.401033e+05  -2.723369e+04
  -4.433528e+05  -3.355975e+05
   1.565779e+05  -4.189774e+05
   6.034889e+05  -2.348817e+05
   5.207718e+05   5.408541e+04
   7.020574e+04   2.131471e+05
  -2.524863e+05   1.204680e+05
  -1.349989e+05  -1.056169e+05
   2.538112e+05  -1.796470e+05
   4.598517e+05   7.352760e+04
   2.151341e+05   4.861357e+05
  -2.921550e+05   6.477311e+05
  -6.134696e+05   3.058937e+05
  -4.851882e+05  -3.267169e+05
  -5.622260e+04  -7.188413e+05
   3.064184e+05  -5.259698e+05
   3.721437e+05   5.349201e+04
   1.858841e+05   4.726232e+05
  -6.277884e+04   4.012056e+05
  -2.134791e+05   4.250590e+04
  -2.054869e+05  -1.600162e+05
  -9.047645e+04  -6.514080e+04
  -9.933658e+03   4.580923e+04
  -6.939728e+04  -1.005900e+05
  -1.779282e+05  -3.795003e+05
  -9.758087e+04  -4.356235e+05
   2.497253e+05  -1.559449e+05
   5.852385e+05   1.998140e+05
   5.296210e+05   3.444215e+05
   7.030976e+04   2.720532e+05
  -3.685824e+05   1.541604e+05
  -4.017672e+05   7.240627e+04
  -1.203073e+05  -8.562479e+03
   7.026628e+04  -8.488653e+04
  -1.441179e+04  -9.659326e+04
  -1.364935e+05  -5.827513e+04
  -5.900583e+03  -5.517305e+04
   2.991962e+05  -7.304628e+04
   4.095357e+05   2.668676e+04
   1.154119e+05   2.729209e+05
  -3.773267e+05   4.355499e+05
  -6.589237e+05   2.546956e+05
  -5.125018e+05  -2.055417e+05
  -7.868472e+04  -5.643993e+05
   3.114539e+05  -5.235208e+05
   4.204830e+05  -1.782153e+05
   2.605434e+05   1.174964e+05
   3.493978e+04   1.426581e+05
  -5.549450e+04   6.746344e+03
   2.237910e+04  -2.682846e+04
   1.287507e+05   1.397466e+05
   1.000600e+05   3.224118e+05
  -8.563889e+04   2.594887e+05
  -2.734702e+05  -7.698476e+04
  -2.616795e+05  -4.051732e+05
   3.999570e+02  -4.053663e+05
   3.181354e+05  -5.979786e+04
   3.897042e+05   3.241009e+05
   1.045001e+05   4.330225e+05
  -2.948775e+05   2.369399e+05
  -4.264227e+05  -5.217880e+04
  -1.857544e+05  -2.290221e+05
   1.199343e+05  -2.380781e+05
   1.311193e+05  -1.344058e+05
  -1.230934e+05  -1.695129e+04
  -2.637105e+05   2.890468e+03
  -4.501506e+04  -1.184492e+05
   3.347948e+05  -2.608940e+05
   4.824107e+05  -2.164143e+05
   2.731844e+05   5.962500e+04
  -5.163812e+04   3.317275e+05
  -2.067267e+05   3.204414e+05
  -1.445694e+05   4.003523e+04
  -1.360418e+03  -2.002872e+05
   1.048742e+05  -1.549132e+05
   1.383695e+05   8.532551e+04
   8.908713e+04   2.321415e+05
  -3.248464e+04   1.472053e+05
  -1.527308e+05  -3.278845e+04
  -1.761594e+05  -1.012413e+05
  -9.426635e+04  -2.709306e+04
   2.047669e+02   4.188801e+04
   3.190351e+04  -1.861643e+04
   3.155909e+04  -1.541487e+05
   7.158708e+04  -1.913876e+05
   1.429330e+05  -4.058351e+04
   1.455922e+05   1.826738e+05
   1.302422e+04   2.611904e+05
  -1.768456e+05   1.074184e+05
  -2.433470e+05  -1.342491e+05
  -8.083854e+04  -2.388922e+05
   1.984974e+05  -1.341216e+05
   3.339908e+05   5.188571e+04
   1.772689e+05   1.561554e+05
  -1.213858e+05   1.371173e+05
  -2.492542e+05   6.060226e+04
  -8.145262e+04   2.648191e+02
   1.622211e+05  -4.047445e+03
   1.696247e+05   5.588286e+04
  -9.057853e+04   1.275831e+05
  -3.302257e+05   9.595259e+04
