
 $NMID
 id='ANONYMOUS ', fmtdat='(2E16.6)'
 volume=1.0
 tramp=1.0
 $END
  -3.289403e+07   2.401492e+06
  -2.308376e+07  -1.606727e+07
  -9.574698e+04  -2.208440e+07
   1.477856e+07  -1.321071e+07
   1.187880e+07   1.676557e+05
   1.080066e+05   6.137885e+06
  -6.721235e+06   1.954417e+06
  -4.245667e+06  -5.629913e+06
   2.233681e+06  -8.209761e+06
   6.160186e+06  -3.371041e+06
   5.110328e+06   3.853430e+06
   8.112597e+05   6.227610e+06
  -2.758917e+06   1.602843e+06
  -2.206061e+06  -4.790657e+06
   2.005945e+06  -5.887749e+06
   5.389910e+06  -3.755156e+05
   3.966059e+06   6.252895e+06
  -1.364330e+06   7.985237e+06
  -5.961973e+06   4.154903e+06
  -6.422619e+06  -1.201691e+06
  -3.446448e+06  -4.166351e+06
  -3.320011e+05  -4.057210e+06
   3.294652e+05  -2.799686e+06
  -1.170909e+06  -2.528516e+06
  -1.939547e+06  -3.618725e+06
   5.946618e+05  -4.380520e+06
   5.282207e+06  -2.886666e+06
   7.604481e+06   5.674026e+05
   4.646217e+06   3.338902e+06
  -9.671023e+05   3.214153e+06
  -3.714551e+06   7.700798e+05
  -1.503244e+06  -1.479245e+06
   2.367230e+06  -1.653731e+06
   3.664386e+06   2.393122e+05
   1.809900e+06   2.729531e+06
  -6.781239e+05   3.771216e+06
  -1.674204e+06   2.139003e+06
  -1.086990e+06  -8.933242e+05
  -2.170004e+04  -2.066840e+06
   3.168688e+05   1.506069e+05
  -6.551999e+05   2.949310e+06
  -2.129648e+06   2.238097e+06
  -2.157962e+06  -1.732906e+06
   2.026924e+05  -4.082121e+06
   3.078437e+06  -1.479327e+06
   3.249838e+06   3.375310e+06
  -1.990959e+05   5.046210e+06
  -4.428514e+06   1.855777e+06
  -5.514227e+06  -2.731178e+06
  -2.320397e+06  -4.556347e+06
   2.430395e+06  -2.784401e+06
   4.704987e+06   3.961312e+05
   2.811779e+06   2.373265e+06
  -1.108256e+06   1.974916e+06
  -3.200777e+06  -1.290975e+04
  -1.791469e+06  -1.516711e+06
   9.594333e+05  -1.056121e+06
   1.678842e+06   6.244702e+05
  -2.268240e+05   1.355824e+06
  -2.017896e+06   1.683211e+05
  -1.126306e+06  -1.573553e+06
   1.723527e+06  -1.892641e+06
   3.456927e+06  -3.046037e+05
   2.107329e+06   2.088670e+06
  -1.344788e+06   3.750051e+06
  -4.251971e+06   3.470930e+06
  -4.729374e+06   9.317581e+05
  -2.919047e+06  -2.586471e+06
  -4.927123e+05  -4.670482e+06
   8.977740e+05  -4.015960e+06
   9.784561e+05  -1.948752e+06
   8.215553e+05  -7.885919e+05
   1.411028e+06  -9.339695e+05
   2.406432e+06  -6.892334e+05
   2.569421e+06   9.567205e+05
   1.264389e+06   2.626252e+06
  -7.786121e+05   2.282892e+06
  -2.108391e+06  -1.100066e+05
  -1.704913e+06  -2.465490e+06
   2.885259e+05  -2.802206e+06
   2.530250e+06  -1.007726e+06
   3.311554e+06   1.419060e+06
   2.023275e+06   2.831585e+06
  -1.112887e+05   2.672177e+06
  -1.283288e+06   1.682872e+06
  -1.194690e+06   1.011479e+06
  -1.292063e+06   9.775531e+05
  -2.592924e+06   7.842815e+05
  -3.952157e+06  -4.281504e+05
  -3.263820e+06  -2.405652e+06
  -1.822253e+05  -3.856535e+06
   3.118064e+06  -3.615936e+06
   4.093587e+06  -1.655284e+06
   2.333359e+06   8.258227e+05
  -2.437462e+05   2.175338e+06
  -1.373813e+06   1.551290e+06
  -4.593914e+05  -1.883085e+05
   1.154981e+06  -1.129253e+06
   1.675760e+06  -3.239173e+05
   6.549174e+05   1.030690e+06
  -6.440459e+05   1.041507e+06
  -6.846863e+05  -3.576999e+05
   6.365213e+05  -1.148076e+06
   1.877395e+06   2.210269e+05
   1.563184e+06   2.723070e+06
  -3.945878e+05   3.806668e+06
  -2.696401e+06   2.223963e+06
  -3.752180e+06  -7.635207e+05
  -2.828930e+06  -2.853860e+06
  -5.849324e+05  -2.856975e+06
   1.327725e+06  -1.415369e+06
   1.583780e+06  -9.545229e+04
   4.716199e+05   4.824296e+04
  -3.521553e+05  -7.091217e+05
   2.739791e+05  -1.177604e+06
   1.601755e+06  -5.633133e+05
   1.861871e+06   6.389930e+05
   4.897697e+05   1.211940e+06
  -1.071811e+06   6.146681e+05
  -1.014877e+06  -4.351714e+05
   7.305267e+05  -7.846267e+05
   2.362102e+06   4.896221e+03
   2.086644e+06   1.351590e+06
  -6.741796e+04   2.198275e+06
  -2.288678e+06   1.797564e+06
  -2.713368e+06   3.188749e+05
  -1.154613e+06  -1.110807e+06
   7.836857e+05  -1.284072e+06
   1.296555e+06  -1.654307e+05
   1.036982e+05   9.153838e+05
  -1.404932e+06   6.692960e+05
  -1.671923e+06  -6.604067e+05
  -4.950641e+05  -1.584867e+06
   9.281284e+05  -1.128932e+06
   1.286529e+06   9.464491e+04
   4.029756e+05   7.007150e+05
  -6.633062e+05   1.010075e+05
  -6.611330e+05  -9.712456e+05
   5.946649e+05  -1.319954e+06
   1.927277e+06  -4.469222e+05
   1.904178e+06   1.036979e+06
   3.634921e+05   1.955258e+06
  -1.314158e+06   1.575435e+06
  -1.634743e+06   2.709202e+05
  -5.573157e+05  -8.052470e+05
   5.991943e+05  -8.215813e+05
   7.051507e+05  -4.876592e+04
  -5.572489e+04   5.349572e+05
  -6.408680e+05   3.626141e+05
  -3.989603e+05  -1.537129e+05
   3.179582e+05  -1.974072e+05
   6.130500e+05   4.550815e+05
  -4.875200e+04   1.124483e+06
  -1.278544e+06   9.059360e+05
  -1.998958e+06  -3.717590e+05
  -1.393188e+06  -1.854883e+06
   2.245608e+05  -2.366317e+06
   1.602647e+06  -1.485264e+06
   1.777875e+06   4.254103e+04
   1.008720e+06   1.020900e+06
   3.227853e+05   9.446469e+05
   2.713938e+05   3.784227e+05
   4.214602e+05   2.038460e+05
   7.671599e+04   6.057665e+05
  -7.885376e+05   9.105885e+05
  -1.450016e+06   4.091448e+05
  -1.148467e+06  -7.549907e+05
   1.745942e+05  -1.583143e+06
   1.698897e+06  -1.145656e+06
   2.239433e+06   4.485005e+05
   1.189238e+06   2.011056e+06
  -8.297331e+05   2.290376e+06
  -2.358942e+06   1.112478e+06
  -2.366041e+06  -4.917283e+05
  -1.145327e+06  -1.320423e+06
   1.079649e+05  -1.122251e+06
   5.390908e+05  -6.482753e+05
   3.224368e+05  -6.675176e+05
   2.041517e+05  -1.089246e+06
   5.924138e+05  -1.131179e+06
   1.165073e+06  -2.755940e+05
   1.245976e+06   1.059453e+06
   5.057628e+05   1.838601e+06
  -6.305891e+05   1.381223e+06
  -1.262471e+06   2.123845e+04
  -8.334353e+05  -1.175944e+06
   2.619378e+05  -1.351685e+06
   1.007178e+06  -5.490644e+05
   7.959067e+05   4.561793e+05
   4.555995e+04   9.384317e+05
  -3.348337e+05   8.076966e+05
  -1.818510e+04   4.901262e+05
   3.744465e+05   3.630815e+05
   2.979193e+04   3.842140e+05
  -1.047074e+06   2.323664e+05
  -1.902646e+06  -2.767181e+05
  -1.564515e+06  -9.423140e+05
  -8.703011e+04  -1.313593e+06
   1.395368e+06  -1.074638e+06
   1.732675e+06  -3.527190e+05
   8.699551e+05   3.312231e+05
  -1.813114e+05   4.843181e+05
  -4.619077e+05   1.004890e+05
   6.334306e+03  -3.056691e+05
   4.754009e+05  -2.106250e+05
   4.433077e+05   3.339622e+05
   1.191097e+05   7.151055e+05
  -1.999644e+04   4.544513e+05
   1.588492e+05  -1.679368e+05
   3.757658e+05  -3.653504e+05
   2.888121e+05   2.166913e+05
  -2.061600e+05   9.826540e+05
  -8.670729e+05   1.003149e+06
  -1.170857e+06   1.048793e+05
  -6.818227e+05  -8.731058e+05
   3.929248e+05  -9.909449e+05
   1.123441e+06  -2.185508e+05
   6.811216e+05   5.939204e+05
  -6.583674e+05   6.504081e+05
  -1.598827e+06  -4.807823e+04
  -1.125581e+06  -8.378791e+05
   3.798318e+05  -1.068507e+06
   1.514268e+06  -6.096005e+05
   1.312409e+06   1.266163e+05
   1.811240e+05   5.369312e+05
  -6.281401e+05   3.134041e+05
  -3.402934e+05  -2.469256e+05
   6.157791e+05  -4.386163e+05
   1.122830e+06   1.711851e+05
   5.316518e+05   1.179456e+06
  -7.026598e+05   1.585214e+06
  -1.496938e+06   7.593404e+05
  -1.201214e+06  -7.942196e+05
  -1.554757e+05  -1.773945e+06
   7.517400e+05  -1.313894e+06
   9.353939e+05   1.188038e+05
   4.814872e+05   1.174645e+06
  -1.446798e+05   1.014127e+06
  -5.309430e+05   1.194860e+05
  -5.154151e+05  -4.026185e+05
  -2.274707e+05  -1.733885e+05
  -2.480088e+04   1.206831e+05
  -1.746034e+05  -2.231210e+05
  -4.517881e+05  -9.234999e+05
  -2.590292e+05  -1.091251e+06
   6.067814e+05  -4.127984e+05
   1.453322e+06   4.793348e+05
   1.326573e+06   8.508214e+05
   1.858820e+05   6.707761e+05
  -9.111402e+05   3.778874e+05
  -9.982139e+05   1.881849e+05
  -3.002234e+05  -2.674403e+03
   1.720228e+05  -2.060310e+05
  -3.805763e+04  -2.578360e+05
  -3.374669e+05  -1.610607e+05
  -1.174590e+04  -1.298641e+05
   7.385006e+05  -1.677756e+05
   1.004890e+06   5.429347e+04
   2.835463e+05   6.439251e+05
  -9.155439e+05   1.064504e+06
  -1.599898e+06   6.526996e+05
  -1.250355e+06  -4.759949e+05
  -2.041745e+05  -1.384367e+06
   7.452782e+05  -1.301588e+06
   1.020102e+06  -4.461574e+05
   6.374082e+05   2.892036e+05
   8.685886e+04   3.432569e+05
  -1.337824e+05  -9.954700e+02
   6.306472e+04  -7.756629e+04
   3.301458e+05   3.461185e+05
   2.592744e+05   7.984137e+05
  -2.015667e+05   6.368149e+05
  -6.664496e+05  -1.904900e+05
  -6.407815e+05  -9.863929e+05
  -3.706198e+03  -9.800399e+05
   7.714051e+05  -1.391700e+05
   9.524266e+05   7.893058e+05
   2.654570e+05   1.053059e+06
  -7.093561e+05   5.837111e+05
  -1.043536e+06  -1.110020e+05
  -4.702920e+05  -5.446417e+05
   2.739179e+05  -5.837700e+05
   3.093278e+05  -3.459275e+05
  -3.053867e+05  -5.519945e+04
  -6.491651e+05   9.563583e+03
  -1.145590e+05  -2.842971e+05
   8.194082e+05  -6.532688e+05
   1.187118e+06  -5.644287e+05
   6.789963e+05   1.193464e+05
  -1.126867e+05   8.146032e+05
  -4.881927e+05   8.048830e+05
  -3.376842e+05   1.118071e+05
   6.571318e+02  -4.886817e+05
   2.476068e+05  -3.779539e+05
   3.308922e+05   2.134141e+05
   2.243799e+05   5.674525e+05
  -6.590444e+04   3.541770e+05
  -3.711056e+05  -7.867524e+04
  -4.433882e+05  -2.354215e+05
  -2.409037e+05  -5.998336e+04
   8.506526e+03   9.163229e+04
   9.878468e+04  -5.728518e+04
   9.053109e+04  -3.666862e+05
   1.693684e+05  -4.408889e+05
   3.313498e+05  -8.413202e+04
   3.396919e+05   4.362191e+05
   2.585885e+04   6.208292e+05
  -4.292943e+05   2.595446e+05
  -5.898141e+05  -3.194778e+05
  -1.969649e+05  -5.818033e+05
   4.811061e+05  -3.385036e+05
   8.138438e+05   1.137773e+05
   4.383697e+05   3.757716e+05
  -2.852309e+05   3.359849e+05
  -5.981261e+05   1.536287e+05
  -1.933968e+05   1.207982e+04
   3.956941e+05   5.011708e+03
   4.072788e+05   1.456479e+05
  -2.338626e+05   3.091157e+05
  -8.190937e+05   2.257792e+05
