
 $NMID
 id='ANONYMOUS ', fmtdat='(2E16.6)'
 volume=1.0
 tramp=1.0
 $END
   2.148814e+07  -6.587104e+05
   1.491084e+07   9.794025e+06
   4.522255e+05   1.384033e+07
  -9.279432e+06   9.412792e+06
  -8.055448e+06   1.023858e+06
  -5.847733e+05  -3.993252e+06
   4.495444e+06  -2.044650e+06
   3.440301e+06   3.521921e+06
  -9.983000e+05   6.093192e+06
  -4.106619e+06   2.773545e+06
  -3.571025e+06  -2.752537e+06
  -4.986013e+05  -4.543548e+06
   2.064982e+06  -9.685474e+05
   1.682397e+06   3.775354e+06
  -1.262820e+06   4.504604e+06
  -3.693130e+06   4.973001e+05
  -2.824297e+06  -4.243557e+06
   8.591497e+05  -5.470870e+06
   4.076867e+06  -2.686198e+06
   4.215437e+06   1.128871e+06
   1.860760e+06   2.928729e+06
  -1.834471e+05   2.343150e+06
   1.908157e+04   1.348373e+06
   1.610086e+06   1.736880e+06
   1.920632e+06   3.164059e+06
  -6.089925e+05   3.688425e+06
  -4.380978e+06   2.058676e+06
  -5.842543e+06  -8.100418e+05
  -3.218643e+06  -2.721650e+06
   1.189205e+06  -2.332890e+06
   3.175341e+06  -2.677771e+05
   1.159678e+06   1.599008e+06
  -2.224291e+06   1.675419e+06
  -3.342761e+06  -1.952414e+05
  -1.528330e+06  -2.513526e+06
   8.258423e+05  -3.157528e+06
   1.466774e+06  -1.373697e+06
   5.006506e+05   1.077463e+06
  -4.681643e+05   1.494822e+06
  -3.470285e+05  -6.051615e+05
   6.770002e+05  -2.597856e+06
   1.646581e+06  -1.794234e+06
   1.574796e+06   1.102742e+06
   1.612300e+05   2.681604e+06
  -1.620940e+06   9.811890e+05
  -1.952945e+06  -2.124958e+06
   6.448471e+04  -3.207236e+06
   2.993719e+06  -1.158453e+06
   4.044776e+06   1.933697e+06
   1.894618e+06   3.324468e+06
  -1.720514e+06   2.204263e+06
  -3.605590e+06  -8.951776e+04
  -2.286287e+06  -1.629042e+06
   6.244492e+05  -1.446420e+06
   2.234383e+06  -9.142011e+04
   1.324542e+06   9.726607e+05
  -6.374122e+05   7.295345e+05
  -1.318769e+06  -4.123791e+05
  -9.909674e+04  -1.097028e+06
   1.366810e+06  -5.217538e+05
   1.130846e+06   7.145356e+05
  -7.664979e+05   1.290269e+06
  -2.263494e+06   4.667306e+05
  -1.516579e+06  -1.294331e+06
   1.096174e+06  -2.694429e+06
   3.383908e+06  -2.497159e+06
   3.593808e+06  -4.938608e+05
   1.987679e+06   2.102079e+06
   2.098937e+05   3.508310e+06
  -5.554476e+05   3.020879e+06
  -5.431337e+05   1.675523e+06
  -7.055459e+05   9.295568e+05
  -1.449393e+06   8.912889e+05
  -2.219804e+06   4.171733e+05
  -2.149965e+06  -1.033946e+06
  -9.461546e+05  -2.339381e+06
   7.743705e+05  -1.960101e+06
   1.859013e+06   9.132141e+04
   1.443160e+06   2.068434e+06
  -2.864844e+05   2.273672e+06
  -2.052898e+06   6.783375e+05
  -2.471992e+06  -1.277406e+06
  -1.326612e+06  -2.190257e+06
   2.229916e+05  -1.843784e+06
   9.073440e+05  -1.066660e+06
   7.497763e+05  -7.115094e+05
   8.977016e+05  -8.191420e+05
   1.995099e+06  -6.923953e+05
   3.095121e+06   2.778735e+05
   2.587721e+06   1.866052e+06
   1.668399e+05   3.063408e+06
  -2.505259e+06   2.889633e+06
  -3.330628e+06   1.268664e+06
  -1.865338e+06  -7.675597e+05
   2.979327e+05  -1.800078e+06
   1.194943e+06  -1.210152e+06
   3.644983e+05   1.922388e+05
  -9.586599e+05   8.914726e+05
  -1.312314e+06   2.378645e+05
  -4.646604e+05  -8.168116e+05
   5.482573e+05  -8.439408e+05
   6.102220e+05   2.552036e+05
  -3.731076e+05   9.944505e+05
  -1.431831e+06   6.896904e+04
  -1.419854e+06  -1.945479e+06
  -8.110484e+03  -3.065923e+06
   1.969230e+06  -2.026891e+06
   3.082482e+06   3.976686e+05
   2.446770e+06   2.258352e+06
   5.499351e+05   2.352522e+06
  -1.087249e+06   1.155813e+06
  -1.295718e+06   6.220246e+04
  -3.778167e+05  -3.747497e+04
   2.856814e+05   5.630056e+05
  -1.971927e+05   9.074416e+05
  -1.227341e+06   4.373646e+05
  -1.452071e+06  -4.640032e+05
  -4.097223e+05  -9.228273e+05
   8.378011e+05  -5.064148e+05
   8.518455e+05   3.287963e+05
  -5.347354e+05   6.902514e+05
  -1.925186e+06   1.034688e+05
  -1.778018e+06  -1.044031e+06
  -2.583513e+04  -1.815234e+06
   1.820920e+06  -1.505894e+06
   2.177333e+06  -2.857603e+05
   9.156259e+05   8.613412e+05
  -6.146618e+05   9.849336e+05
  -9.921118e+05   1.140868e+05
  -5.370172e+04  -7.130542e+05
   1.114088e+06  -5.278684e+05
   1.337583e+06   4.983036e+05
   4.428326e+05   1.249118e+06
  -6.911304e+05   9.401900e+05
  -1.028325e+06  -1.476732e+04
  -3.591026e+05  -5.312415e+05
   5.030393e+05  -8.481794e+04
   5.193618e+05   7.706506e+05
  -4.849663e+05   1.053277e+06
  -1.548830e+06   3.492701e+05
  -1.520374e+06  -8.335534e+05
  -2.948017e+05  -1.555494e+06
   1.028933e+06  -1.259485e+06
   1.294517e+06  -2.379669e+05
   4.637230e+05   6.276540e+05
  -4.635985e+05   6.683500e+05
  -5.894464e+05   4.531044e+04
   1.025928e+04  -4.677872e+05
   5.357297e+05  -3.484827e+05
   3.958093e+05   1.150028e+05
  -2.003212e+05   2.128912e+05
  -5.019183e+05  -3.047644e+05
  -5.531675e+02  -8.822443e+05
   1.003153e+06  -7.378072e+05
   1.599785e+06   2.820137e+05
   1.119814e+06   1.477254e+06
  -1.685607e+05   1.906806e+06
  -1.275393e+06   1.231838e+06
  -1.452067e+06   8.318996e+03
  -8.716692e+05  -8.313902e+05
  -2.987569e+05  -8.274467e+05
  -1.919773e+05  -3.594098e+05
  -2.866958e+05  -1.561460e+05
  -4.970327e+04  -4.555076e+05
   6.094461e+05  -7.387201e+05
   1.163319e+06  -3.642513e+05
   9.630528e+05   5.988977e+05
  -9.805258e+04   1.304910e+06
  -1.353903e+06   9.578435e+05
  -1.812927e+06  -3.364825e+05
  -9.849322e+05  -1.593419e+06
   6.188612e+05  -1.828345e+06
   1.851909e+06  -9.223077e+05
   1.908057e+06   3.385000e+05
   9.801604e+05   1.037380e+06
  -3.867071e+04   9.405923e+05
  -4.517968e+05   5.754151e+05
  -3.189576e+05   5.473905e+05
  -1.997194e+05   8.442689e+05
  -4.675815e+05   8.781253e+05
  -9.163829e+05   2.110466e+05
  -9.954913e+05  -8.517610e+05
  -4.082656e+05  -1.477366e+06
   5.066043e+05  -1.112320e+06
   1.015097e+06  -3.092802e+04
   6.797296e+05   9.191404e+05
  -1.756775e+05   1.074818e+06
  -7.621844e+05   4.711463e+05
  -6.222353e+05  -3.093628e+05
  -7.022370e+04  -7.125646e+05
   2.161049e+05  -6.437781e+05
  -1.169400e+04  -4.075758e+05
  -2.957320e+05  -3.026227e+05
  -2.084281e+04  -3.140357e+05
   8.208813e+05  -1.927778e+05
   1.501963e+06   2.103895e+05
   1.254517e+06   7.335877e+05
   9.847252e+04   1.023945e+06
  -1.083478e+06   8.488059e+05
  -1.370818e+06   3.080107e+05
  -7.001416e+05  -2.202704e+05
   1.326309e+05  -3.668665e+05
   3.554952e+05  -9.592746e+04
  -2.199392e+04   2.246327e+05
  -3.952071e+05   1.667488e+05
  -3.522489e+05  -2.685843e+05
  -7.075501e+04  -5.895475e+05
   4.167530e+04  -3.739591e+05
  -1.249622e+05   1.565773e+05
  -3.166478e+05   3.258089e+05
  -2.378669e+05  -1.680324e+05
   1.738028e+05  -8.036761e+05
   6.929390e+05  -8.027269e+05
   9.106736e+05  -5.970602e+04
   5.161510e+05   7.091019e+05
  -3.197046e+05   7.695232e+05
  -8.889832e+05   1.453090e+05
  -5.465960e+05  -4.857181e+05
   5.173571e+05  -5.286454e+05
   1.293423e+06   1.285023e+04
   9.449409e+05   6.510435e+05
  -2.657621e+05   8.772625e+05
  -1.212062e+06   5.396271e+05
  -1.076833e+06  -6.792698e+04
  -1.648448e+05  -4.341421e+05
   4.967452e+05  -2.676121e+05
   2.624683e+05   1.906010e+05
  -5.116196e+05   3.436140e+05
  -9.063226e+05  -1.578348e+05
  -4.062804e+05  -9.659469e+05
   5.967803e+05  -1.273583e+06
   1.223680e+06  -5.977264e+05
   9.701865e+05   6.488663e+05
   1.267628e+05   1.436869e+06
  -5.990960e+05   1.076801e+06
  -7.552254e+05  -7.317922e+04
  -4.105024e+05  -9.381712e+05
   8.529000e+04  -8.261596e+05
   4.177257e+05  -1.067342e+05
   4.361787e+05   3.229271e+05
   2.057841e+05   1.407071e+05
   1.032623e+04  -1.016876e+05
   1.088799e+05   1.728674e+05
   3.543129e+05   7.403369e+05
   2.374608e+05   8.778431e+05
  -4.590650e+05   3.320222e+05
  -1.177781e+06  -3.826109e+05
  -1.095454e+06  -6.769492e+05
  -1.533187e+05  -5.348750e+05
   7.548915e+05  -3.096168e+05
   8.104153e+05  -1.638283e+05
   2.219532e+05  -6.402960e+03
  -1.468962e+05   1.662632e+05
   5.823951e+04   2.137732e+05
   3.016247e+05   1.368146e+05
   4.846925e+01   1.089716e+05
  -6.255695e+05   1.329623e+05
  -8.091783e+05  -5.245702e+04
  -1.897453e+05  -5.247850e+05
   7.671001e+05  -8.488552e+05
   1.277949e+06  -5.020212e+05
   9.799296e+05   4.074773e+05
   1.546389e+05   1.123556e+06
  -5.973195e+05   1.038669e+06
  -8.270100e+05   3.413738e+05
  -5.212332e+05  -2.471321e+05
  -5.859815e+04  -2.794092e+05
   1.338689e+05   1.017667e+04
  -3.818887e+04   7.760139e+04
  -2.757767e+05  -2.686014e+05
  -2.184498e+05  -6.412929e+05
   1.700392e+05  -5.091870e+05
   5.466587e+05   1.704243e+05
   5.045009e+05   8.172433e+05
  -2.711863e+04   7.948778e+05
  -6.436109e+05   9.085648e+04
  -7.643348e+05  -6.627898e+05
  -1.954498e+05  -8.527212e+05
   5.820614e+05  -4.522180e+05
   8.311608e+05   1.019991e+05
   3.598567e+05   4.273471e+05
  -2.263556e+05   4.477120e+05
  -2.317389e+05   2.678119e+05
   2.702236e+05   4.781149e+04
   5.302759e+05  -4.312378e+03
   8.303691e+04   2.272577e+05
  -6.613237e+05   5.281439e+05
  -9.352471e+05   4.642519e+05
  -5.207306e+05  -8.621824e+04
   9.702449e+04  -6.483869e+05
   3.786449e+05  -6.338106e+05
   2.548842e+05  -6.761125e+04
  -1.096738e+04   4.062882e+05
  -2.080001e+05   2.933596e+05
  -2.728070e+05  -1.922387e+05
  -1.765243e+05  -4.598558e+05
   6.430230e+04  -2.688578e+05
   3.005546e+05   7.342787e+04
   3.462867e+05   1.791697e+05
   1.905749e+05   3.671060e+04
   7.572166e+03  -6.111887e+04
  -7.085036e+04   7.797046e+04
  -9.818865e+04   3.156723e+05
  -1.829155e+05   3.438395e+05
  -2.898370e+05   3.397239e+04
  -2.525987e+05  -3.837318e+05
   1.558185e+04  -5.135444e+05
   3.599402e+05  -2.008157e+05
   4.649694e+05   2.765675e+05
   1.488560e+05   4.808243e+05
  -3.840231e+05   2.668430e+05
  -6.466706e+05  -1.068227e+05
  -3.464636e+05  -3.067734e+05
   2.353752e+05  -2.549825e+05
   4.826288e+05  -1.018571e+05
   1.411670e+05  -1.556899e+03
  -3.456104e+05  -1.568990e+04
  -3.427516e+05  -1.390919e+05
   2.041980e+05  -2.668055e+05
   6.914353e+05  -1.863216e+05
