
 $NMID
 id='ANONYMOUS ', fmtdat='(2E16.6)'
 volume=1.0
 tramp=1.0
 $END
  -1.771571e+07   6.060213e+05
  -1.190533e+07  -8.807623e+06
   3.199247e+05  -1.159184e+07
   7.888210e+06  -6.893214e+06
   6.192935e+06   2.399744e+04
   3.570320e+04   3.203682e+06
  -3.531343e+06   1.105346e+06
  -2.286744e+06  -2.943866e+06
   1.119338e+06  -4.424790e+06
   3.270633e+06  -1.823996e+06
   2.745848e+06   2.159106e+06
   3.896087e+05   3.442110e+06
  -1.579840e+06   8.317271e+05
  -1.264366e+06  -2.691449e+06
   1.042662e+06  -3.236974e+06
   2.869271e+06  -1.943542e+05
   2.082609e+06   3.380705e+06
  -8.045442e+05   4.260693e+06
  -3.272199e+06   2.126835e+06
  -3.448370e+06  -8.121779e+05
  -1.716977e+06  -2.376681e+06
   2.273470e+04  -2.168457e+06
   2.598303e+05  -1.346853e+06
  -7.583502e+05  -1.229911e+06
  -1.239449e+06  -1.994906e+06
   2.837501e+05  -2.522451e+06
   3.011678e+06  -1.652604e+06
   4.296671e+06   3.589749e+05
   2.556972e+06   1.939670e+06
  -6.432478e+05   1.854810e+06
  -2.194626e+06   4.400087e+05
  -9.293253e+05  -9.094808e+05
   1.320510e+06  -1.079248e+06
   2.139880e+06   3.417782e+04
   1.099845e+06   1.569424e+06
  -3.941557e+05   2.193730e+06
  -1.008476e+06   1.159588e+06
  -6.034993e+05  -6.364689e+05
   9.478101e+04  -1.216864e+06
   2.793016e+05   1.599241e+05
  -3.303291e+05   1.734221e+06
  -1.160760e+06   1.264333e+06
  -1.149012e+06  -9.293707e+05
   1.097256e+05  -2.132269e+06
   1.585683e+06  -6.828695e+05
   1.641107e+06   1.860115e+06
  -1.761079e+05   2.659845e+06
  -2.413832e+06   9.327363e+05
  -3.011018e+06  -1.489775e+06
  -1.299746e+06  -2.466853e+06
   1.304356e+06  -1.545301e+06
   2.580344e+06   1.640287e+05
   1.556079e+06   1.257263e+06
  -5.897872e+05   1.056240e+06
  -1.726313e+06  -1.761630e+04
  -9.558159e+05  -8.194537e+05
   5.311331e+05  -5.638555e+05
   9.314186e+05   3.285462e+05
  -6.416075e+04   7.265413e+05
  -1.025665e+06   1.441724e+05
  -6.031772e+05  -7.386729e+05
   8.683604e+05  -9.376255e+05
   1.801245e+06  -1.606970e+05
   1.104108e+06   1.107017e+06
  -7.740212e+05   2.052531e+06
  -2.392514e+06   1.920140e+06
  -2.644938e+06   4.821391e+05
  -1.594943e+06  -1.488491e+06
  -2.395548e+05  -2.602059e+06
   4.745337e+05  -2.194292e+06
   4.690207e+05  -1.076446e+06
   4.097954e+05  -5.064384e+05
   8.137994e+05  -6.165236e+05
   1.419720e+06  -4.378879e+05
   1.516367e+06   5.451730e+05
   7.641582e+05   1.522598e+06
  -4.253716e+05   1.345815e+06
  -1.225035e+06  -1.317470e+04
  -1.014976e+06  -1.378314e+06
   1.437235e+05  -1.595376e+06
   1.441364e+06  -5.687535e+05
   1.860097e+06   8.256049e+05
   1.087431e+06   1.604951e+06
  -1.163219e+05   1.462304e+06
  -7.268243e+05   8.764685e+05
  -6.335520e+05   5.209841e+05
  -6.801723e+05   5.440021e+05
  -1.418718e+06   4.656191e+05
  -2.194634e+06  -1.989380e+05
  -1.837439e+06  -1.310001e+06
  -1.399752e+05  -2.154144e+06
   1.715764e+06  -2.059270e+06
   2.301780e+06  -9.643530e+05
   1.337258e+06   4.653652e+05
  -1.267217e+05   1.254565e+06
  -7.856384e+05   8.936518e+05
  -2.708575e+05  -1.131957e+05
   6.481856e+05  -6.520601e+05
   9.415576e+05  -1.889583e+05
   3.660051e+05   5.852390e+05
  -3.623033e+05   6.029727e+05
  -4.017060e+05  -1.785594e+05
   3.060484e+05  -6.486839e+05
   1.004543e+06   6.403891e+04
   8.994336e+05   1.438466e+06
  -1.194103e+05   2.092037e+06
  -1.414157e+06   1.291437e+06
  -2.090605e+06  -3.396866e+05
  -1.643519e+06  -1.541373e+06
  -3.815140e+05  -1.597005e+06
   7.327802e+05  -8.132648e+05
   8.962750e+05  -6.766084e+04
   2.646326e+05   2.395382e+04
  -2.064403e+05  -3.940244e+05
   1.428304e+05  -6.561826e+05
   8.877724e+05  -3.222951e+05
   1.040910e+06   3.394956e+05
   2.847754e+05   6.693998e+05
  -5.923679e+05   3.610329e+05
  -5.848594e+05  -2.224881e+05
   3.771164e+05  -4.548958e+05
   1.313634e+06  -5.163179e+04
   1.200904e+06   7.110615e+05
   1.000217e+04   1.232956e+06
  -1.254148e+06   1.043131e+06
  -1.517194e+06   2.105085e+05
  -6.525364e+05  -6.114301e+05
   4.344513e+05  -7.196740e+05
   7.232926e+05  -9.302139e+04
   5.907503e+04   5.169692e+05
  -7.831927e+05   3.881643e+05
  -9.422673e+05  -3.496266e+05
  -2.994994e+05  -8.767615e+05
   4.968186e+05  -6.443855e+05
   7.174879e+05   2.920306e+04
   2.387886e+05   3.819051e+05
  -3.654215e+05   6.531972e+04
  -3.813502e+05  -5.350965e+05
   3.184626e+05  -7.474920e+05
   1.077288e+06  -2.712496e+05
   1.078444e+06   5.633052e+05
   2.222698e+05   1.091672e+06
  -7.195494e+05   8.930473e+05
  -9.111173e+05   1.674144e+05
  -3.222818e+05  -4.448252e+05
   3.255155e+05  -4.701495e+05
   4.036469e+05  -3.992150e+04
  -8.631056e+03   3.060143e+05
  -3.499502e+05   2.291519e+05
  -2.418323e+05  -6.579548e+04
   1.526453e+05  -1.166566e+05
   3.387991e+05   2.324747e+05
  -1.015898e+04   6.181805e+05
  -6.996231e+05   5.189926e+05
  -1.120688e+06  -1.848508e+05
  -7.985135e+05  -1.023363e+06
   1.001040e+05  -1.329874e+06
   8.782009e+05  -8.556439e+05
   9.973399e+05  -4.611218e+03
   5.890159e+05   5.585150e+05
   2.064174e+05   5.369961e+05
   1.566261e+05   2.250541e+05
   2.246146e+05   1.143303e+05
   4.098934e+04   3.309460e+05
  -4.255697e+05   5.135314e+05
  -7.997445e+05   2.505889e+05
  -6.560653e+05  -4.022738e+05
   6.779658e+04  -8.878907e+05
   9.310636e+05  -6.652885e+05
   1.259078e+06   2.211434e+05
   6.916847e+05   1.106950e+06
  -4.327425e+05   1.285035e+06
  -1.299552e+06   6.487347e+05
  -1.327444e+06  -2.395740e+05
  -6.662816e+05  -7.173663e+05
   3.354454e+04  -6.334132e+05
   2.928538e+05  -3.836537e+05
   1.864762e+05  -3.882934e+05
   1.167408e+05  -6.113445e+05
   3.242930e+05  -6.327066e+05
   6.483969e+05  -1.611025e+05
   7.087226e+05   5.833435e+05
   3.026744e+05   1.027094e+06
  -3.401457e+05   7.826913e+05
  -7.074788e+05   2.822608e+04
  -4.789575e+05  -6.444184e+05
   1.270750e+05  -7.543207e+05
   5.451720e+05  -3.193324e+05
   4.397666e+05   2.366516e+05
   3.760251e+04   5.120487e+05
  -1.677693e+05   4.490456e+05
   2.132088e+03   2.757078e+05
   2.124235e+05   2.029890e+05
   1.970130e+04   2.157746e+05
  -5.784087e+05   1.387883e+05
  -1.060645e+06  -1.367009e+05
  -8.833857e+05  -5.074883e+05
  -6.582538e+04  -7.253638e+05
   7.647120e+05  -6.090388e+05
   9.614376e+05  -2.181118e+05
   4.868146e+05   1.664022e+05
  -9.648486e+04   2.662172e+05
  -2.521589e+05   6.242843e+04
   8.309566e+03  -1.674438e+05
   2.686404e+05  -1.219614e+05
   2.499763e+05   1.843660e+05
   6.806345e+04   4.062022e+05
  -1.258528e+04   2.602760e+05
   8.385603e+04  -9.994101e+04
   2.057993e+05  -2.183457e+05
   1.636144e+05   1.145011e+05
  -1.059526e+05   5.552512e+05
  -4.740294e+05   5.693167e+05
  -6.493979e+05   6.173322e+04
  -3.835732e+05  -4.875640e+05
   2.143452e+05  -5.529383e+05
   6.273911e+05  -1.238715e+05
   3.878370e+05   3.289774e+05
  -3.598142e+05   3.706207e+05
  -8.959826e+05  -5.305482e+03
  -6.458998e+05  -4.491963e+05
   1.913911e+05  -6.022133e+05
   8.364219e+05  -3.675038e+05
   7.387084e+05   4.756240e+04
   1.117991e+05   2.979452e+05
  -3.458106e+05   1.852906e+05
  -1.903380e+05  -1.342601e+05
   3.458281e+05  -2.519702e+05
   6.347422e+05   8.940763e+04
   3.063108e+05   6.632219e+05
  -3.874719e+05   8.990976e+05
  -8.392561e+05   4.385814e+05
  -6.831956e+05  -4.368228e+05
  -1.049158e+05  -9.960276e+05
   4.058739e+05  -7.483518e+05
   5.239907e+05   5.172631e+04
   2.866330e+05   6.499119e+05
  -6.184545e+04   5.697738e+05
  -2.928068e+05   7.439440e+04
  -2.986239e+05  -2.179947e+05
  -1.356822e+05  -9.289721e+04
  -1.012628e+04   6.824387e+04
  -9.155588e+04  -1.249888e+05
  -2.599023e+05  -5.143520e+05
  -1.631798e+05  -6.072453e+05
   3.292675e+05  -2.344935e+05
   8.219005e+05   2.537404e+05
   7.585958e+05   4.600209e+05
   1.109412e+05   3.726120e+05
  -5.125802e+05   2.239674e+05
  -5.586929e+05   1.189157e+05
  -1.623591e+05   1.504705e+03
   9.707043e+04  -1.183468e+05
  -3.108998e+04  -1.429305e+05
  -1.992973e+05  -8.533709e+04
  -6.341775e+03  -7.439931e+04
   4.205794e+05  -1.039793e+05
   5.653896e+05   2.271338e+04
   1.561641e+05   3.641593e+05
  -5.122592e+05   6.072288e+05
  -8.914850e+05   3.744333e+05
  -7.016091e+05  -2.642608e+05
  -1.260481e+05  -7.780227e+05
   4.056869e+05  -7.345804e+05
   5.709217e+05  -2.562994e+05
   3.639427e+05   1.584754e+05
   4.985943e+04   1.934305e+05
  -8.252481e+04   1.107897e+03
   2.975607e+04  -4.670909e+04
   1.902181e+05   1.872185e+05
   1.559780e+05   4.441740e+05
  -1.090860e+05   3.596714e+05
  -3.804814e+05  -1.034372e+05
  -3.689045e+05  -5.546317e+05
  -4.302083e+03  -5.548556e+05
   4.397798e+05  -8.232136e+04
   5.441752e+05   4.413368e+05
   1.546616e+05   5.915129e+05
  -3.970475e+05   3.307147e+05
  -5.854161e+05  -5.636035e+04
  -2.632598e+05  -2.998035e+05
   1.514414e+05  -3.249943e+05
   1.666102e+05  -1.929798e+05
  -1.783863e+05  -2.687498e+04
  -3.662238e+05   1.141439e+04
  -6.431445e+04  -1.588366e+05
   4.538588e+05  -3.751324e+05
   6.545920e+05  -3.285377e+05
   3.744741e+05   6.068829e+04
  -5.798336e+04   4.570181e+05
  -2.640580e+05   4.511277e+05
  -1.861645e+05   5.834424e+04
  -2.741984e+03  -2.785437e+05
   1.386382e+05  -2.123233e+05
   1.912901e+05   1.213118e+05
   1.304950e+05   3.174339e+05
  -3.817331e+04   1.962494e+05
  -2.105500e+05  -4.307394e+04
  -2.473094e+05  -1.263553e+05
  -1.336604e+05  -2.879210e+04
   7.393230e+02   4.950063e+04
   4.945514e+04  -4.045525e+04
   5.180509e+04  -2.145243e+05
   1.041091e+05  -2.508529e+05
   1.945975e+05  -4.385304e+04
   1.925862e+05   2.521825e+05
   1.227910e+04   3.553146e+05
  -2.429063e+05   1.489728e+05
  -3.332675e+05  -1.796216e+05
  -1.147926e+05  -3.286494e+05
   2.663419e+05  -1.926785e+05
   4.570413e+05   6.083670e+04
   2.483630e+05   2.084492e+05
  -1.599765e+05   1.879046e+05
  -3.368450e+05   8.631573e+04
  -1.055053e+05   4.813607e+03
   2.304971e+05  -8.037557e+02
   2.361959e+05   8.213050e+04
  -1.306514e+05   1.821350e+05
  -4.654889e+05   1.389303e+05
