
 $NMID
 id='ANONYMOUS ', fmtdat='(2E16.6)'
 volume=1.0
 tramp=1.0
 $END
  -3.182081e+07   1.971642e+06
  -2.252272e+07  -1.516513e+07
  -4.577604e+05  -2.124026e+07
   1.426798e+07  -1.335490e+07
   1.189450e+07  -4.028061e+05
   3.970582e+05   6.049034e+06
  -6.705832e+06   2.302202e+06
  -4.515262e+06  -5.487285e+06
   2.025548e+06  -8.438501e+06
   6.114372e+06  -3.578329e+06
   5.066082e+06   3.887381e+06
   7.196000e+05   6.293307e+06
  -2.798145e+06   1.490604e+06
  -2.180207e+06  -5.014820e+06
   2.013677e+06  -6.072815e+06
   5.368686e+06  -4.813927e+05
   3.967220e+06   6.189090e+06
  -1.332528e+06   7.905729e+06
  -5.878909e+06   4.013360e+06
  -6.206073e+06  -1.330652e+06
  -3.131753e+06  -4.085177e+06
  -1.817899e+05  -3.724149e+06
   1.143970e+05  -2.520227e+06
  -1.559361e+06  -2.640849e+06
  -2.093836e+06  -4.028414e+06
   8.144693e+05  -4.643288e+06
   5.626577e+06  -2.756104e+06
   7.766422e+06   8.937092e+05
   4.534943e+06   3.533615e+06
  -1.245979e+06   3.154772e+06
  -3.946614e+06   5.210856e+05
  -1.451826e+06  -1.781020e+06
   2.738015e+06  -1.805265e+06
   4.040042e+06   3.982293e+05
   1.825342e+06   3.080226e+06
  -9.567115e+05   3.963545e+06
  -1.809818e+06   2.014508e+06
  -8.754857e+05  -1.081329e+06
   2.393144e+05  -2.003826e+06
   2.956299e+05   4.261617e+05
  -8.656146e+05   3.169430e+06
  -2.249711e+06   2.308750e+06
  -2.194200e+06  -1.690364e+06
   3.595980e+04  -4.024545e+06
   2.791213e+06  -1.519636e+06
   3.095535e+06   3.200719e+06
  -1.304126e+05   4.869159e+06
  -4.340994e+06   1.772257e+06
  -5.567905e+06  -2.787377e+06
  -2.404530e+06  -4.662207e+06
   2.484655e+06  -2.889867e+06
   4.874508e+06   3.712019e+05
   2.960087e+06   2.414020e+06
  -1.042906e+06   2.022908e+06
  -3.201826e+06   2.776435e+04
  -1.832023e+06  -1.484644e+06
   9.387076e+05  -1.049834e+06
   1.747928e+06   6.395475e+05
  -1.226163e+05   1.468148e+06
  -2.054268e+06   3.736688e+05
  -1.355306e+06  -1.430514e+06
   1.494534e+06  -1.931671e+06
   3.407716e+06  -4.417086e+05
   2.137929e+06   2.012583e+06
  -1.450054e+06   3.739101e+06
  -4.473409e+06   3.403518e+06
  -4.834629e+06   7.769513e+05
  -2.819035e+06  -2.730636e+06
  -3.608437e+05  -4.755364e+06
   9.109359e+05  -4.117055e+06
   9.654164e+05  -2.120436e+06
   9.542227e+05  -9.520997e+05
   1.685540e+06  -9.658910e+05
   2.660349e+06  -5.513456e+05
   2.671462e+06   1.208355e+06
   1.195574e+06   2.885400e+06
  -9.608325e+05   2.416283e+06
  -2.290905e+06  -1.884060e+05
  -1.757737e+06  -2.677600e+06
   3.937065e+05  -2.934555e+06
   2.663349e+06  -9.324333e+05
   3.323745e+06   1.598985e+06
   1.922414e+06   2.922328e+06
  -1.935297e+05   2.624826e+06
  -1.274110e+06   1.612225e+06
  -1.153035e+06   1.017258e+06
  -1.311154e+06   1.036398e+06
  -2.701363e+06   8.108730e+05
  -4.104568e+06  -4.899325e+05
  -3.362946e+06  -2.555267e+06
  -1.225539e+05  -4.033210e+06
   3.346632e+06  -3.714694e+06
   4.340234e+06  -1.608205e+06
   2.407204e+06   9.673376e+05
  -3.629644e+05   2.285189e+06
  -1.514202e+06   1.564666e+06
  -4.688557e+05  -2.257379e+05
   1.247402e+06  -1.145801e+06
   1.742435e+06  -2.990104e+05
   6.359227e+05   1.078162e+06
  -7.128477e+05   1.077767e+06
  -7.454013e+05  -3.814573e+05
   6.324260e+05  -1.248356e+06
   1.963395e+06   1.344716e+05
   1.702303e+06   2.792883e+06
  -3.323156e+05   4.040425e+06
  -2.815227e+06   2.427526e+06
  -3.988691e+06  -7.847779e+05
  -2.998912e+06  -3.066170e+06
  -5.820768e+05  -3.051108e+06
   1.437399e+06  -1.461436e+06
   1.673031e+06  -5.466150e+04
   4.936571e+05   6.000426e+04
  -3.562672e+05  -7.475908e+05
   2.942230e+05  -1.212165e+06
   1.657992e+06  -5.581536e+05
   1.924012e+06   6.767229e+05
   5.051418e+05   1.256802e+06
  -1.125302e+06   6.314362e+05
  -1.075344e+06  -4.721919e+05
   7.660507e+05  -8.438003e+05
   2.506993e+06   7.667963e+03
   2.216023e+06   1.458052e+06
  -8.621585e+04   2.341030e+06
  -2.439948e+06   1.868950e+06
  -2.855852e+06   2.909592e+05
  -1.186247e+06  -1.171812e+06
   8.336833e+05  -1.308386e+06
   1.334754e+06  -1.447077e+05
   7.812556e+04   9.451177e+05
  -1.477804e+06   6.686860e+05
  -1.740984e+06  -7.108262e+05
  -5.122936e+05  -1.667200e+06
   9.743171e+05  -1.189771e+06
   1.353786e+06   9.390344e+04
   4.312678e+05   7.316549e+05
  -6.812851e+05   9.752616e+04
  -6.658881e+05  -1.025285e+06
   6.554682e+05  -1.364676e+06
   2.028781e+06  -4.202369e+05
   1.968491e+06   1.127907e+06
   3.422959e+05   2.050625e+06
  -1.397496e+06   1.624734e+06
  -1.714130e+06   2.626826e+05
  -5.792266e+05  -8.485088e+05
   6.372103e+05  -8.556316e+05
   7.524711e+05  -3.630514e+04
  -5.841518e+04   5.831067e+05
  -6.988065e+05   3.909952e+05
  -4.536228e+05  -1.774694e+05
   3.188098e+05  -2.353773e+05
   6.468375e+05   4.621881e+05
  -5.322848e+04   1.173689e+06
  -1.350489e+06   9.300921e+05
  -2.087211e+06  -4.249226e+05
  -1.422065e+06  -1.969423e+06
   2.823765e+05  -2.481538e+06
   1.713107e+06  -1.544400e+06
   1.882755e+06   6.551216e+04
   1.065768e+06   1.108541e+06
   3.277117e+05   1.039672e+06
   2.543206e+05   4.277199e+05
   4.117219e+05   2.117144e+05
   6.499734e+04   6.197610e+05
  -8.369836e+05   9.448209e+05
  -1.535106e+06   4.143066e+05
  -1.209248e+06  -8.208188e+05
   2.026102e+05  -1.680071e+06
   1.807742e+06  -1.183978e+06
   2.349127e+06   5.103152e+05
   1.220954e+06   2.128099e+06
  -8.942588e+05   2.384390e+06
  -2.480206e+06   1.135886e+06
  -2.482786e+06  -5.395571e+05
  -1.206676e+06  -1.406898e+06
   1.191168e+05  -1.201888e+06
   5.976889e+05  -6.931604e+05
   3.853902e+05  -6.895017e+05
   2.516480e+05  -1.116635e+06
   6.371112e+05  -1.158874e+06
   1.216160e+06  -2.610639e+05
   1.280344e+06   1.137894e+06
   4.908828e+05   1.939541e+06
  -6.919097e+05   1.435885e+06
  -1.326644e+06   1.609517e+03
  -8.570436e+05  -1.239722e+06
   2.848490e+05  -1.411159e+06
   1.048481e+06  -5.760888e+05
   8.241517e+05   4.639820e+05
   5.050668e+04   9.687633e+05
  -3.408407e+05   8.446927e+05
  -1.815767e+04   5.246792e+05
   3.804927e+05   3.943641e+05
   2.010489e+04   4.062418e+05
  -1.093979e+06   2.264331e+05
  -1.977318e+06  -3.227171e+05
  -1.621958e+06  -1.010429e+06
  -8.153887e+04  -1.367119e+06
   1.465439e+06  -1.093961e+06
   1.817449e+06  -3.477149e+05
   9.123493e+05   3.428263e+05
  -1.909649e+05   4.943484e+05
  -4.809128e+05   1.052187e+05
   1.926380e+04  -3.075904e+05
   5.102085e+05  -2.075237e+05
   4.558286e+05   3.598334e+05
   9.406219e+04   7.572114e+05
  -4.549664e+04   4.771981e+05
   1.723555e+05  -1.841662e+05
   4.145905e+05  -3.890274e+05
   3.015208e+05   2.319588e+05
  -2.450046e+05   1.032304e+06
  -9.295939e+05   1.031195e+06
  -1.211089e+06   7.504009e+04
  -6.779916e+05  -9.304200e+05
   4.325049e+05  -1.016132e+06
   1.171916e+06  -1.904628e+05
   6.998059e+05   6.425035e+05
  -6.999246e+05   6.725850e+05
  -1.684474e+06  -7.375229e+04
  -1.186354e+06  -8.983282e+05
   4.045111e+05  -1.127900e+06
   1.606728e+06  -6.323358e+05
   1.390176e+06   1.476349e+05
   1.877147e+05   5.713553e+05
  -6.637314e+05   3.241526e+05
  -3.467230e+05  -2.607318e+05
   6.629996e+05  -4.392287e+05
   1.172998e+06   2.155664e+05
   5.180280e+05   1.255344e+06
  -7.887990e+05   1.642611e+06
  -1.596171e+06   7.540729e+05
  -1.243670e+06  -8.659787e+05
  -1.231804e+05  -1.870595e+06
   8.181177e+05  -1.373250e+06
   9.835556e+05   1.343501e+05
   4.919696e+05   1.243146e+06
  -1.597731e+05   1.070546e+06
  -5.563210e+05   1.201978e+05
  -5.430772e+05  -4.365106e+05
  -2.464279e+05  -1.907367e+05
  -2.428290e+04   1.299095e+05
  -1.626976e+05  -2.301123e+05
  -4.491836e+05  -9.764758e+05
  -2.627811e+05  -1.154933e+06
   6.307675e+05  -4.237507e+05
   1.519445e+06   5.350047e+05
   1.388986e+06   9.225283e+05
   1.826698e+05   7.062291e+05
  -9.768973e+05   3.761485e+05
  -1.057368e+06   1.806396e+05
  -3.060471e+05  -2.370777e+03
   1.895369e+05  -2.115613e+05
  -4.768539e+04  -2.787412e+05
  -3.650608e+05  -1.846023e+05
  -3.718437e+03  -1.374890e+05
   7.948470e+05  -1.540263e+05
   1.052410e+06   8.409617e+04
   2.622629e+05   6.802094e+05
  -9.993377e+05   1.088552e+06
  -1.685572e+06   6.386032e+05
  -1.284680e+06  -5.366071e+05
  -1.769818e+05  -1.461218e+06
   8.089284e+05  -1.345166e+06
   1.081350e+06  -4.352593e+05
   6.646829e+05   3.265045e+05
   7.703132e+04   3.621951e+05
  -1.527160e+05  -1.265294e+04
   6.352381e+04  -8.962612e+04
   3.453321e+05   3.668836e+05
   2.595024e+05   8.443603e+05
  -2.292857e+05   6.609324e+05
  -6.980520e+05  -2.251273e+05
  -6.414162e+05  -1.060096e+06
   3.442629e+04  -1.027691e+06
   8.216557e+05  -1.147322e+05
   9.771231e+05   8.637437e+05
   2.449152e+05   1.111454e+06
  -7.610111e+05   5.861218e+05
  -1.086522e+06  -1.452846e+05
  -4.731536e+05  -5.738637e+05
   3.006180e+05  -5.941469e+05
   3.218795e+05  -3.529195e+05
  -3.316965e+05  -6.991587e+04
  -6.852313e+05  -7.395099e+03
  -1.093180e+05  -2.989384e+05
   8.759455e+05  -6.683760e+05
   1.249501e+06  -5.739376e+05
   6.980188e+05   1.317285e+05
  -1.387253e+05   8.478903e+05
  -5.210470e+05   8.286422e+05
  -3.450850e+05   1.004789e+05
   1.884997e+04  -5.182775e+05
   2.714329e+05  -3.843342e+05
   3.431202e+05   2.429955e+05
   2.202729e+05   6.017271e+05
  -8.071688e+04   3.602950e+05
  -3.873383e+05  -9.636972e+04
  -4.560742e+05  -2.501523e+05
  -2.514299e+05  -6.186827e+04
   1.109525e+03   8.776552e+04
   1.048795e+05  -7.571947e+04
   1.192400e+05  -3.900432e+05
   2.103466e+05  -4.468157e+05
   3.570681e+05  -6.016047e+04
   3.314824e+05   4.795770e+05
  -7.605278e+03   6.544301e+05
  -4.628257e+05   2.566224e+05
  -6.041845e+05  -3.573326e+05
  -1.869176e+05  -6.203022e+05
   5.101403e+05  -3.420490e+05
   8.452211e+05   1.444177e+05
   4.478168e+05   4.055826e+05
  -3.077456e+05   3.374553e+05
  -6.288559e+05   1.364320e+05
  -1.946532e+05   6.152690e+03
   4.276655e+05   2.388574e+04
   4.290021e+05   1.753604e+05
  -2.631302e+05   3.263865e+05
  -8.821628e+05   2.166603e+05
