
 $NMID
 id='ANONYMOUS ', fmtdat='(2E16.6)'
 volume=1.0
 tramp=1.0
 $END
  -2.438891e+07   1.317146e+06
  -1.636199e+07  -1.189425e+07
   3.225692e+05  -1.585237e+07
   1.051000e+07  -9.453305e+06
   8.224146e+06  -6.009444e+04
   9.214738e+04   4.256457e+06
  -4.608191e+06   1.520606e+06
  -3.075814e+06  -3.838194e+06
   1.326846e+06  -5.876850e+06
   4.292321e+06  -2.520227e+06
   3.824674e+06   2.791645e+06
   7.318436e+05   4.630646e+06
  -2.097227e+06   1.243798e+06
  -1.873007e+06  -3.504441e+06
   1.230834e+06  -4.350077e+06
   3.851828e+06  -3.340498e+05
   2.935728e+06   4.520023e+06
  -9.558746e+05   5.833708e+06
  -4.424055e+06   3.048100e+06
  -4.820658e+06  -9.768037e+05
  -2.505556e+06  -3.264854e+06
  -1.685321e+04  -3.085815e+06
   4.346272e+05  -1.869514e+06
  -9.897459e+05  -1.510043e+06
  -1.814154e+06  -2.496988e+06
   1.566179e+05  -3.402040e+06
   3.940067e+06  -2.474474e+06
   5.852162e+06   1.773808e+05
   3.612326e+06   2.477519e+06
  -7.164724e+05   2.603780e+06
  -2.923146e+06   8.098225e+05
  -1.375503e+06  -1.109038e+06
   1.588328e+06  -1.557188e+06
   2.824433e+06  -1.873320e+05
   1.654196e+06   1.967259e+06
  -2.911493e+05   3.006970e+06
  -1.304734e+06   1.698993e+06
  -9.629341e+05  -8.215008e+05
   1.199808e+04  -1.731934e+06
   4.641551e+05   1.274755e+05
  -2.574024e+05   2.347430e+06
  -1.470238e+06   1.768694e+06
  -1.569445e+06  -1.208986e+06
   1.357943e+05  -2.852254e+06
   2.194651e+06  -8.876804e+05
   2.279692e+06   2.550590e+06
  -2.196495e+05   3.636246e+06
  -3.283135e+06   1.347008e+06
  -4.122895e+06  -1.876573e+06
  -1.852365e+06  -3.233920e+06
   1.653790e+06  -2.120305e+06
   3.432796e+06   8.213994e+04
   2.127645e+06   1.577483e+06
  -7.448498e+05   1.410696e+06
  -2.312108e+06   3.694898e+04
  -1.307571e+06  -1.054024e+06
   6.935401e+05  -7.715505e+05
   1.252693e+06   3.771984e+05
  -5.199239e+04   9.127273e+05
  -1.305723e+06   1.851953e+05
  -7.322296e+05  -9.445125e+05
   1.198549e+06  -1.219999e+06
   2.410932e+06  -2.317692e+05
   1.508179e+06   1.472830e+06
  -9.434339e+05   2.849748e+06
  -3.123662e+06   2.781586e+06
  -3.579067e+06   8.323566e+05
  -2.290792e+06  -1.938687e+06
  -4.935461e+05  -3.523962e+06
   5.187111e+05  -2.964993e+06
   5.472682e+05  -1.430418e+06
   4.561492e+05  -6.994721e+05
   9.958237e+05  -9.318476e+05
   1.869287e+06  -7.490645e+05
   2.105978e+06   5.815985e+05
   1.178896e+06   1.966400e+06
  -4.290298e+05   1.837869e+06
  -1.614477e+06   1.013422e+05
  -1.462005e+06  -1.740528e+06
   6.288215e+04  -2.146410e+06
   1.903792e+06  -8.836101e+05
   2.594633e+06   9.855634e+05
   1.593997e+06   2.130741e+06
  -8.602984e+04   2.025279e+06
  -9.751099e+05   1.239765e+06
  -8.546173e+05   7.210153e+05
  -8.826578e+05   7.498640e+05
  -1.865576e+06   7.014993e+05
  -2.951732e+06  -1.313663e+05
  -2.548551e+06  -1.634423e+06
  -3.343671e+05  -2.872617e+06
   2.152018e+06  -2.882594e+06
   3.016427e+06  -1.474121e+06
   1.839802e+06   5.124829e+05
  -5.764022e+04   1.697618e+06
  -9.759314e+05   1.273003e+06
  -3.717923e+05  -1.241497e+05
   8.170657e+05  -9.213772e+05
   1.245197e+06  -3.167635e+05
   5.341428e+05   7.626470e+05
  -4.282722e+05   8.312211e+05
  -5.285912e+05  -2.011363e+05
   3.649316e+05  -8.486164e+05
   1.306306e+06   6.051168e+04
   1.243228e+06   1.855506e+06
  -3.896082e+04   2.743908e+06
  -1.774020e+06   1.768302e+06
  -2.778210e+06  -3.095432e+05
  -2.290408e+06  -1.911148e+06
  -6.302384e+05  -2.088407e+06
   9.154484e+05  -1.146499e+06
   1.193821e+06  -1.654926e+05
   3.561626e+05   1.085958e+04
  -3.004894e+05  -5.112019e+05
   1.547717e+05  -8.837873e+05
   1.169920e+06  -4.826165e+05
   1.405578e+06   3.899104e+05
   4.145680e+05   8.690267e+05
  -7.625691e+05   5.116685e+05
  -7.820584e+05  -2.531339e+05
   4.731830e+05  -6.153309e+05
   1.732711e+06  -1.516250e+05
   1.637444e+06   8.527528e+05
   1.010893e+05   1.627838e+06
  -1.592502e+06   1.475644e+06
  -2.007539e+06   3.900549e+05
  -9.126009e+05  -7.719697e+05
   5.362673e+05  -9.937404e+05
   9.653842e+05  -1.710539e+05
   1.138461e+05   6.909365e+05
  -1.020670e+06   5.712529e+05
  -1.276930e+06  -4.027852e+05
  -4.542661e+05  -1.140645e+06
   6.135689e+05  -8.799806e+05
   9.445010e+05  -5.607016e+03
   3.324298e+05   4.845528e+05
  -4.865704e+05   9.958733e+04
  -5.431870e+05  -6.971050e+05
   3.791839e+05  -1.025415e+06
   1.427335e+06  -4.388516e+05
   1.485077e+06   6.795244e+05
   3.730196e+05   1.445229e+06
  -9.000713e+05   1.242243e+06
  -1.201631e+06   2.873322e+05
  -4.565222e+05  -5.647488e+05
   3.991255e+05  -6.431514e+05
   5.275175e+05  -8.559426e+04
   8.236366e+03   3.955167e+05
  -4.404089e+05   3.240927e+05
  -3.152011e+05  -6.072849e+04
   1.971880e+05  -1.499855e+05
   4.607196e+05   2.958096e+05
   2.112799e+04   8.273159e+05
  -9.034117e+05   7.409898e+05
  -1.513470e+06  -1.709825e+05
  -1.141527e+06  -1.315367e+06
   3.605847e+04  -1.785169e+06
   1.104851e+06  -1.202960e+06
   1.323022e+06  -8.084259e+04
   8.267748e+05   6.876398e+05
   3.285786e+05   6.852559e+05
   2.440772e+05   2.886620e+05
   3.167869e+05   1.512093e+05
   7.547913e+04   4.514215e+05
  -5.364013e+05   7.175652e+05
  -1.051654e+06   3.903602e+05
  -9.061760e+05  -4.866434e+05
   2.517696e+04  -1.185460e+06
   1.196403e+06  -9.533450e+05
   1.698120e+06   2.060819e+05
   9.970801e+05   1.430051e+06
  -4.968951e+05   1.743123e+06
  -1.692797e+06   9.493008e+05
  -1.780672e+06  -2.295612e+05
  -9.306462e+05  -9.005907e+05
  -3.379564e+03  -8.339739e+05
   3.492597e+05  -5.320236e+05
   2.099555e+05  -5.458696e+05
   1.124759e+05  -8.397967e+05
   3.952974e+05  -8.736852e+05
   8.615671e+05  -2.603677e+05
   9.926953e+05   7.304771e+05
   4.800022e+05   1.352574e+06
  -3.974779e+05   1.071914e+06
  -9.411817e+05   8.683986e+04
  -6.803233e+05  -8.298716e+05
   1.230183e+05  -1.012965e+06
   7.069972e+05  -4.514300e+05
   5.957121e+05   2.983996e+05
   7.245525e+04   6.819953e+05
  -2.021047e+05   6.015196e+05
   2.267153e+04   3.599122e+05
   3.048584e+05   2.561716e+05
   4.504118e+04   2.890911e+05
  -7.682775e+05   2.235674e+05
  -1.435053e+06  -1.142153e+05
  -1.215790e+06  -6.204341e+05
  -1.274274e+05  -9.650677e+05
   9.903599e+05  -8.646829e+05
   1.268555e+06  -3.535235e+05
   6.520052e+05   1.943215e+05
  -1.174559e+05   3.648018e+05
  -3.327374e+05   9.611148e+04
  -4.654021e+02  -2.341150e+05
   3.486306e+05  -1.893406e+05
   3.506668e+05   2.284657e+05
   1.310553e+05   5.434569e+05
   9.695162e+03   3.545966e+05
   1.006219e+05  -1.367847e+05
   2.508367e+05  -3.057263e+05
   2.269197e+05   1.438052e+05
  -9.673647e+04   7.548060e+05
  -5.976776e+05   7.983844e+05
  -8.797709e+05   1.258769e+05
  -5.580816e+05  -6.333562e+05
   2.532698e+05  -7.634005e+05
   8.428311e+05  -2.149036e+05
   5.473630e+05   4.106192e+05
  -4.548859e+05   5.202043e+05
  -1.193766e+06   5.823077e+04
  -8.873733e+05  -5.476963e+05
   2.135398e+05  -8.091197e+05
   1.082338e+06  -5.453781e+05
   9.814377e+05   9.401347e+03
   1.691681e+05   3.856028e+05
  -4.468416e+05   2.684006e+05
  -2.640401e+05  -1.704902e+05
   4.448770e+05  -3.687276e+05
   8.618314e+05   6.880075e+04
   4.680799e+05   8.685273e+05
  -4.463864e+05   1.242457e+06
  -1.091385e+06   6.587307e+05
  -9.506438e+05  -5.306853e+05
  -2.183091e+05  -1.324814e+06
   4.835451e+05  -1.028637e+06
   7.000352e+05   3.363751e+04
   4.264436e+05   8.451960e+05
  -4.427155e+04   7.579640e+05
  -3.864122e+05   1.163235e+05
  -4.119222e+05  -2.649288e+05
  -1.841889e+05  -1.082576e+05
  -8.648738e+03   8.858744e+04
  -1.359347e+05  -1.705473e+05
  -3.874875e+05  -6.725149e+05
  -2.585398e+05  -7.931597e+05
   4.290045e+05  -3.309023e+05
   1.117959e+06   2.764180e+05
   1.044019e+06   5.534013e+05
   1.748701e+05   4.914306e+05
  -6.645836e+05   3.439026e+05
  -7.353459e+05   2.009523e+05
  -2.191843e+05   7.321629e+03
   1.189531e+05  -1.678957e+05
  -4.944349e+04  -1.807726e+05
  -2.697884e+05  -9.074736e+04
  -1.645053e+04  -1.015769e+05
   5.510367e+05  -1.795554e+05
   7.616950e+05  -1.324677e+04
   2.455285e+05   4.855407e+05
  -6.371548e+05   8.617040e+05
  -1.174632e+06   5.706236e+05
  -9.720206e+05  -3.037846e+05
  -2.319459e+05  -1.034321e+06
   4.919108e+05  -1.016367e+06
   7.503120e+05  -3.911184e+05
   5.020416e+05   1.808930e+05
   8.376141e+04   2.583851e+05
  -1.083793e+05   1.638518e+04
   3.482476e+04  -5.858489e+04
   2.642277e+05   2.361678e+05
   2.394551e+05   5.812152e+05
  -1.190392e+05   4.922941e+05
  -5.199007e+05  -1.046494e+05
  -5.438396e+05  -7.140424e+05
  -5.479644e+04  -7.497732e+05
   5.842141e+05  -1.535150e+05
   7.702580e+05   5.456507e+05
   2.567822e+05   7.850715e+05
  -5.099997e+05   4.796438e+05
  -7.941897e+05  -3.169114e+04
  -3.757797e+05  -3.897147e+05
   1.840553e+05  -4.528742e+05
   2.154093e+05  -2.679492e+05
  -2.374753e+05  -1.477330e+04
  -4.897581e+05   4.564009e+04
  -9.966918e+04  -2.109827e+05
   5.789908e+05  -5.368756e+05
   8.536564e+05  -4.820331e+05
   5.087092e+05   6.193777e+04
  -4.395015e+04   6.198087e+05
  -3.264709e+05   6.233504e+05
  -2.546385e+05   9.206324e+04
  -3.034240e+04  -3.735123e+05
   1.711697e+05  -2.996740e+05
   2.699828e+05   1.423866e+05
   2.004620e+05   4.161859e+05
  -3.862174e+04   2.721392e+05
  -2.876967e+05  -3.940868e+04
  -3.400858e+05  -1.555290e+05
  -1.788628e+05  -3.156781e+04
   3.928883e+03   7.267834e+04
   5.621890e+04  -4.941147e+04
   4.281401e+04  -2.942386e+05
   1.145230e+05  -3.587885e+05
   2.620749e+05  -8.635266e+04
   2.900334e+05   3.226960e+05
   5.411594e+04   4.825316e+05
  -3.138180e+05   2.235240e+05
  -4.675125e+05  -2.146303e+05
  -1.838493e+05  -4.322358e+05
   3.447857e+05  -2.785317e+05
   6.229412e+05   4.659326e+04
   3.508768e+05   2.615834e+05
  -2.032652e+05   2.682949e+05
  -4.503839e+05   1.456001e+05
  -1.460046e+05   1.233039e+04
   3.064592e+05  -2.782868e+04
   3.254683e+05   8.386522e+04
  -1.533647e+05   2.544953e+05
  -6.056834e+05   2.289788e+05
