
 $NMID
 id='ANONYMOUS ', fmtdat='(2E16.6)'
 volume=1.0
 tramp=1.0
 $END
   3.840146e+07   2.878308e+05
   2.371447e+07   2.188822e+07
  -3.525771e+06   2.527262e+07
  -1.798424e+07   1.198836e+07
  -1.204238e+07  -2.544416e+06
   1.178880e+06  -6.486687e+06
   7.003912e+06  -6.803184e+05
   3.267375e+06   6.419918e+06
  -3.320007e+06   7.809080e+06
  -6.751262e+06   2.542357e+06
  -5.294277e+06  -4.506204e+06
  -6.515444e+05  -6.668882e+06
   3.107354e+06  -1.812367e+06
   2.269559e+06   4.774077e+06
  -2.411439e+06   5.677912e+06
  -5.727484e+06  -3.305227e+05
  -3.640085e+06  -7.169994e+06
   2.299411e+06  -8.579910e+06
   7.084687e+06  -4.192498e+06
   7.433949e+06   1.747847e+06
   4.013630e+06   5.281945e+06
   2.324743e+04   5.339511e+06
  -1.412256e+06   3.420058e+06
   2.056874e+05   2.116232e+06
   1.822835e+06   2.865733e+06
  -1.870736e+05   4.219504e+06
  -5.178877e+06   3.325685e+06
  -8.026664e+06  -2.679134e+05
  -5.170850e+06  -3.592231e+06
   6.713320e+05  -3.797204e+06
   3.723583e+06  -1.377381e+06
   1.930330e+06   1.016955e+06
  -1.597730e+06   1.594306e+06
  -3.148885e+06   2.256629e+05
  -2.045090e+06  -2.203684e+06
   1.562087e+05  -3.811753e+06
   1.776836e+06  -2.599408e+06
   1.811551e+06   8.130132e+05
   4.243270e+05   2.643557e+06
  -6.710406e+05   4.619199e+05
   1.988887e+05  -2.782890e+06
   2.096454e+06  -2.166741e+06
   2.030634e+06   2.096464e+06
  -1.021652e+06   4.303413e+06
  -4.065577e+06   9.177382e+05
  -3.376109e+06  -4.461880e+06
   9.912683e+05  -5.724035e+06
   5.184255e+06  -1.718494e+06
   5.585685e+06   3.182870e+06
   2.003841e+06   4.712189e+06
  -2.582063e+06   2.574590e+06
  -4.553437e+06  -6.935595e+05
  -2.494140e+06  -2.515485e+06
   1.449581e+06  -1.838723e+06
   3.373387e+06   3.720515e+05
   1.662952e+06   1.804235e+06
  -1.164499e+06   1.045538e+06
  -1.592499e+06  -6.942662e+05
   4.834407e+05  -1.047047e+06
   1.862379e+06   4.452133e+05
   3.671296e+05   1.875649e+06
  -2.512033e+06   1.536851e+06
  -3.692729e+06  -3.515514e+05
  -1.919705e+06  -2.561753e+06
   1.511965e+06  -4.032094e+06
   4.372281e+06  -3.749203e+06
   5.041587e+06  -1.084697e+06
   3.298691e+06   2.766212e+06
   5.468589e+05   4.967833e+06
  -1.156720e+06   3.987350e+06
  -1.062609e+06   1.571377e+06
  -4.534332e+05   5.157275e+05
  -8.853370e+05   1.089180e+06
  -2.153041e+06   1.137225e+06
  -2.680230e+06  -5.144749e+05
  -1.575863e+06  -2.350144e+06
   4.320873e+05  -2.242847e+06
   1.879702e+06  -9.589660e+04
   1.714455e+06   2.199438e+06
  -1.421270e+05   2.759097e+06
  -2.542313e+06   1.192146e+06
  -3.581962e+06  -1.341974e+06
  -2.267113e+06  -3.083698e+06
   1.949446e+05  -3.050714e+06
   1.613488e+06  -1.852135e+06
   1.459775e+06  -9.196911e+05
   1.353966e+06  -8.106010e+05
   2.541557e+06  -6.686598e+05
   3.877934e+06   4.786564e+05
   3.200868e+06   2.374666e+06
   2.042686e+05   3.766350e+06
  -2.971764e+06   3.601308e+06
  -3.960856e+06   1.802279e+06
  -2.395128e+06  -6.519143e+05
   3.324325e+04  -2.161925e+06
   1.239893e+06  -1.662308e+06
   4.930656e+05   1.343577e+05
  -1.082214e+06   1.167940e+06
  -1.679607e+06   3.413540e+05
  -7.127639e+05  -1.058324e+06
   5.644481e+05  -1.046615e+06
   5.778542e+05   3.117118e+05
  -6.748747e+05   9.220172e+05
  -1.679551e+06  -5.113065e+05
  -1.174982e+06  -2.719151e+06
   6.416486e+05  -3.395912e+06
   2.558689e+06  -1.779198e+06
   3.390798e+06   8.275319e+05
   2.595670e+06   2.587840e+06
   5.990193e+05   2.630674e+06
  -1.221869e+06   1.405259e+06
  -1.527308e+06   1.644275e+05
  -4.596542e+05  -3.892741e+04
   3.478438e+05   6.871036e+05
  -3.032319e+05   1.170492e+06
  -1.623967e+06   5.410017e+05
  -1.823589e+06  -6.765369e+05
  -4.354121e+05  -1.206629e+06
   1.042971e+06  -5.836230e+05
   9.370796e+05   3.908222e+05
  -6.945621e+05   6.659458e+05
  -2.168495e+06  -4.371478e+04
  -1.911217e+06  -1.219906e+06
   5.806280e+04  -2.012457e+06
   2.149324e+06  -1.714789e+06
   2.607517e+06  -3.339645e+05
   1.129794e+06   1.100062e+06
  -7.951548e+05   1.300710e+06
  -1.327656e+06   1.613501e+05
  -1.299219e+05  -9.397271e+05
   1.377588e+06  -6.768579e+05
   1.615505e+06   6.469747e+05
   4.438373e+05   1.513903e+06
  -9.055483e+05   1.030093e+06
  -1.200378e+06  -1.356416e+05
  -3.379607e+05  -6.731590e+05
   6.723710e+05  -7.891966e+04
   6.670372e+05   9.537828e+05
  -5.507320e+05   1.312030e+06
  -1.875389e+06   4.864220e+05
  -1.885402e+06  -9.773683e+05
  -3.775307e+05  -1.908372e+06
   1.279433e+06  -1.541625e+06
   1.584781e+06  -2.589109e+05
   5.231999e+05   7.763023e+05
  -5.768126e+05   7.853381e+05
  -6.540234e+05   7.680903e+04
   4.494901e+04  -4.486200e+05
   5.404735e+05  -3.246458e+05
   3.031605e+05   7.981818e+04
  -3.134297e+05   8.936804e+04
  -5.395100e+05  -4.859984e+05
   8.566308e+04  -1.080957e+06
   1.241386e+06  -8.758618e+05
   1.944273e+06   3.428780e+05
   1.382512e+06   1.788750e+06
  -1.751493e+05   2.289850e+06
  -1.503876e+06   1.426426e+06
  -1.664939e+06  -2.616187e+04
  -9.484680e+05  -9.011456e+05
  -3.572984e+05  -8.010539e+05
  -3.529265e+05  -3.276422e+05
  -4.633780e+05  -2.467983e+05
  -7.150872e+04  -6.329756e+05
   7.666883e+05  -8.733652e+05
   1.371071e+06  -3.903105e+05
   1.084262e+06   6.800944e+05
  -1.496590e+05   1.469660e+06
  -1.605507e+06   1.101248e+06
  -2.151868e+06  -4.011243e+05
  -1.147311e+06  -1.927734e+06
   8.212032e+05  -2.213770e+06
   2.291052e+06  -1.061036e+06
   2.251204e+06   4.818806e+05
   1.055812e+06   1.228517e+06
  -9.578950e+04   1.006842e+06
  -4.389053e+05   6.014919e+05
  -2.246155e+05   7.012647e+05
  -1.661720e+05   1.131046e+06
  -5.902117e+05   1.138206e+06
  -1.158629e+06   2.855179e+05
  -1.241438e+06  -1.008898e+06
  -5.293957e+05  -1.776113e+06
   5.816833e+05  -1.354420e+06
   1.213881e+06  -3.325026e+04
   8.007624e+05   1.144502e+06
  -2.740086e+05   1.299812e+06
  -9.904283e+05   4.788266e+05
  -7.486160e+05  -5.047584e+05
   1.106177e+04  -9.249016e+05
   3.705325e+05  -7.484317e+05
   2.246835e+04  -4.373242e+05
  -3.882929e+05  -3.382120e+05
  -4.593249e+04  -3.705145e+05
   1.030178e+06  -2.229749e+05
   1.875122e+06   2.665025e+05
   1.522997e+06   9.111750e+05
   5.194312e+04   1.283266e+06
  -1.389292e+06   1.055571e+06
  -1.677808e+06   3.334604e+05
  -8.086413e+05  -3.520540e+05
   2.011779e+05  -4.868596e+05
   4.497920e+05  -7.658265e+04
  -8.481191e+02   3.362511e+05
  -4.457378e+05   2.306686e+05
  -4.430904e+05  -3.185649e+05
  -1.727405e+05  -7.005898e+05
  -2.644681e+04  -4.572892e+05
  -1.332765e+05   1.411272e+05
  -3.115401e+05   3.428432e+05
  -2.741871e+05  -2.059227e+05
   1.569998e+05  -9.535732e+05
   8.295850e+05  -9.951257e+05
   1.193324e+06  -1.252762e+05
   7.238595e+05   8.568891e+05
  -3.820119e+05   1.005463e+06
  -1.131997e+06   2.568001e+05
  -6.844217e+05  -5.545012e+05
   6.332414e+05  -6.295160e+05
   1.522645e+06   3.160966e+04
   1.048494e+06   7.763467e+05
  -3.711956e+05   9.902650e+05
  -1.417915e+06   5.676536e+05
  -1.223512e+06  -1.102581e+05
  -1.694902e+05  -4.972408e+05
   5.980573e+05  -2.936945e+05
   3.407607e+05   2.519169e+05
  -5.799870e+05   4.655480e+05
  -1.111008e+06  -1.165897e+05
  -5.826479e+05  -1.136218e+06
   6.146537e+05  -1.588183e+06
   1.429073e+06  -8.044434e+05
   1.190604e+06   7.302795e+05
   1.986492e+05   1.708319e+06
  -6.882731e+05   1.267121e+06
  -8.876342e+05  -1.160590e+05
  -4.628765e+05  -1.116281e+06
   1.418424e+05  -9.482639e+05
   5.136320e+05  -1.075985e+05
   4.857516e+05   3.604329e+05
   2.013591e+05   1.405344e+05
   2.741418e+04  -1.036521e+05
   2.026513e+05   2.501548e+05
   4.672516e+05   8.988586e+05
   2.446692e+05   1.027096e+06
  -6.120137e+05   3.872669e+05
  -1.411025e+06  -4.281586e+05
  -1.270698e+06  -7.782984e+05
  -1.872501e+05  -6.493416e+05
   8.478876e+05  -4.025840e+05
   9.461333e+05  -1.989374e+05
   3.049906e+05   2.366209e+04
  -1.527671e+05   2.115540e+05
   1.897429e+04   2.165786e+05
   3.058898e+05   1.125649e+05
   2.878686e+04   1.301615e+05
  -6.818505e+05   2.117928e+05
  -9.854365e+05  -1.995401e+04
  -3.381103e+05  -6.485688e+05
   8.398058e+05  -1.092356e+06
   1.572016e+06  -6.867544e+05
   1.277445e+06   4.323978e+05
   2.494946e+05   1.339314e+06
  -7.054718e+05   1.288944e+06
  -9.912909e+05   4.817371e+05
  -6.306854e+05  -2.430944e+05
  -1.074490e+05  -3.389484e+05
   1.105420e+05  -3.715199e+04
  -5.873971e+04   4.842428e+04
  -3.082907e+05  -3.300335e+05
  -2.582080e+05  -7.619458e+05
   1.760941e+05  -6.342756e+05
   6.569212e+05   1.416363e+05
   6.793374e+05   9.289961e+05
   6.442505e+04   9.739268e+05
  -7.415901e+05   1.973724e+05
  -9.718561e+05  -7.172237e+05
  -3.066874e+05  -1.028629e+06
   6.803793e+05  -6.130098e+05
   1.037892e+06   7.850127e+04
   4.791817e+05   5.481127e+05
  -2.674588e+05   6.031015e+05
  -3.214824e+05   3.382649e+05
   2.746080e+05   1.965653e+04
   6.252487e+05  -3.527891e+04
   1.263169e+05   2.839699e+05
  -7.768642e+05   6.525654e+05
  -1.152806e+06   5.454880e+05
  -6.809750e+05  -1.355186e+05
   9.082850e+04  -8.077984e+05
   4.846209e+05  -7.947610e+05
   3.651062e+05  -1.246338e+05
   3.423860e+04   4.705905e+05
  -2.327119e+05   3.929305e+05
  -3.387626e+05  -1.713354e+05
  -2.383944e+05  -5.465958e+05
   5.907064e+04  -3.738778e+05
   3.698765e+05   5.519525e+04
   4.378047e+05   2.397881e+05
   2.280252e+05   6.843950e+04
  -1.400174e+04  -1.162489e+05
  -7.379116e+04   1.509853e+04
  -3.255966e+04   3.600413e+05
  -1.142979e+05   4.883856e+05
  -3.268563e+05   1.479401e+05
  -3.935722e+05  -4.002978e+05
  -9.204303e+04  -6.220375e+05
   4.031263e+05  -2.844684e+05
   6.093859e+05   2.850081e+05
   2.271220e+05   5.562887e+05
  -4.684491e+05   3.429462e+05
  -8.168195e+05  -8.328248e+04
  -4.454870e+05  -3.563621e+05
   2.777609e+05  -3.551812e+05
   5.968763e+05  -1.877466e+05
   2.110493e+05  -1.131042e+04
  -3.661150e+05   4.254998e+04
  -4.034742e+05  -9.424091e+04
   1.856928e+05  -3.012246e+05
   7.512328e+05  -2.636319e+05
