
 $NMID
 id='ANONYMOUS ', fmtdat='(2E16.6)'
 volume=1.0
 tramp=1.0
 $END
  -7.772447e+06   4.305270e+05
  -5.538243e+06  -2.743773e+06
  -7.263304e+05  -4.666048e+06
   2.846359e+06  -4.038877e+06
   2.964197e+06  -1.172080e+06
   5.804531e+05   1.418181e+06
  -1.586250e+06   1.282424e+06
  -1.689587e+06  -1.058579e+06
  -1.004370e+05  -2.588458e+06
   1.417787e+06  -1.422163e+06
   1.513538e+06   1.007344e+06
   3.228423e+05   1.888791e+06
  -8.754800e+05   3.972321e+05
  -9.013127e+05  -1.627448e+06
   2.498656e+05  -1.996780e+06
   1.386637e+06  -4.250756e+05
   1.261704e+06   1.511423e+06
  -1.316042e+05   2.110028e+06
  -1.490664e+06   1.062744e+06
  -1.577534e+06  -4.727786e+05
  -5.626717e+05  -1.137155e+06
   2.263820e+05  -7.233642e+05
  -1.224857e+05  -2.301964e+05
  -1.045497e+06  -5.626786e+05
  -1.155192e+06  -1.432232e+06
   1.636332e+05  -1.768826e+06
   1.965567e+06  -1.022690e+06
   2.601569e+06   2.748088e+05
   1.383289e+06   1.149890e+06
  -6.152046e+05   1.049936e+06
  -1.533854e+06   1.415966e+05
  -6.065096e+05  -8.413388e+05
   1.049045e+06  -1.014592e+06
   1.686784e+06  -6.797377e+04
   8.360094e+05   1.214617e+06
  -3.681115e+05   1.541634e+06
  -6.906438e+05   5.455625e+05
  -1.459396e+05  -6.462869e+05
   3.545353e+05  -6.642307e+05
   2.450013e+05   4.505793e+05
  -2.478895e+05   1.306591e+06
  -6.464489e+05   8.727220e+05
  -6.844083e+05  -3.318128e+05
  -2.915227e+05  -9.548012e+05
   3.569468e+05  -3.891091e+05
   6.827825e+05   6.711274e+05
   1.093887e+05   1.103289e+06
  -1.090868e+06   4.883440e+05
  -1.743805e+06  -6.157070e+05
  -9.927379e+05  -1.289182e+06
   5.992297e+05  -1.051485e+06
   1.561968e+06  -1.940342e+05
   1.103408e+06   5.427888e+05
  -1.289195e+05   6.289358e+05
  -8.797976e+05   1.618510e+05
  -5.903419e+05  -3.052395e+05
   2.126299e+05  -3.141556e+05
   6.055182e+05   1.008810e+05
   2.061235e+05   4.934286e+05
  -4.836528e+05   4.404547e+05
  -6.162339e+05  -4.898140e+04
   5.095575e+04  -4.963412e+05
   7.872625e+05  -3.667875e+05
   6.475312e+05   3.781838e+05
  -4.137170e+05   1.130286e+06
  -1.435699e+06   1.139862e+06
  -1.536070e+06   2.509472e+05
  -8.393881e+05  -9.019674e+05
  -1.465471e+05  -1.495974e+06
   7.875836e+04  -1.303408e+06
   8.308711e+04  -8.097540e+05
   2.896163e+05  -5.617931e+05
   7.361973e+05  -5.291315e+05
   1.103879e+06  -2.416405e+05
   1.063835e+06   4.772781e+05
   5.142227e+05   1.117772e+06
  -3.209270e+05   9.861200e+05
  -9.183164e+05   4.888817e+04
  -7.811606e+05  -9.105775e+05
   5.498198e+04  -1.059770e+06
   9.203801e+05  -3.430599e+05
   1.105126e+06   5.446876e+05
   5.625070e+05   9.228164e+05
  -1.000698e+05   7.284360e+05
  -3.347239e+05   3.932401e+05
  -2.305251e+05   2.951291e+05
  -3.123944e+05   4.114600e+05
  -8.325054e+05   4.165913e+05
  -1.372740e+06   2.490013e+04
  -1.228890e+06  -7.130209e+05
  -2.096846e+05  -1.364353e+06
   1.013925e+06  -1.404373e+06
   1.477468e+06  -6.890063e+05
   8.827677e+05   3.134086e+05
  -9.715629e+04   8.568421e+05
  -5.343859e+05   5.922904e+05
  -1.800504e+05  -8.761174e+04
   4.089655e+05  -4.437220e+05
   5.769063e+05  -1.565856e+05
   2.239023e+05   3.518787e+05
  -2.266956e+05   4.184478e+05
  -3.163771e+05  -6.909370e+04
   6.188068e+04  -4.926411e+05
   6.002881e+05  -1.949766e+05
   7.793434e+05   7.125421e+05
   2.648972e+05   1.377164e+06
  -7.146365e+05   1.088358e+06
  -1.428769e+06   3.579708e+04
  -1.270569e+06  -9.022244e+05
  -3.815018e+05  -1.062565e+06
   4.537794e+05  -5.755324e+05
   5.972249e+05  -7.525922e+04
   1.731644e+05   2.500221e+03
  -1.560458e+05  -2.394055e+05
   4.064689e+04  -4.040144e+05
   5.143932e+05  -2.441869e+05
   6.622725e+05   1.290658e+05
   2.350887e+05   3.823305e+05
  -3.457658e+05   2.758865e+05
  -4.175495e+05  -9.647843e+04
   1.818185e+05  -3.555266e+05
   8.684965e+05  -1.755427e+05
   8.879544e+05   3.731571e+05
   1.246872e+05   8.362460e+05
  -7.509377e+05   7.830606e+05
  -9.738941e+05   2.319445e+05
  -4.466507e+05  -3.423855e+05
   2.339977e+05  -4.553248e+05
   4.287895e+05  -8.432782e+04
   4.425136e+04   3.148956e+05
  -4.768190e+05   2.841102e+05
  -6.255493e+05  -1.556430e+05
  -2.730165e+05  -5.376729e+05
   2.497785e+05  -4.704740e+05
   4.653112e+05  -6.466181e+04
   2.041083e+05   2.116682e+05
  -2.072515e+05   6.466026e+04
  -2.622138e+05  -3.175225e+05
   1.748626e+05  -4.908288e+05
   6.832776e+05  -2.186833e+05
   7.179992e+05   3.134526e+05
   1.991347e+05   6.857663e+05
  -4.037669e+05   6.107011e+05
  -5.714240e+05   1.691633e+05
  -2.461739e+05  -2.591376e+05
   1.730882e+05  -3.293086e+05
   2.775622e+05  -5.264349e+04
   3.691230e+04   2.253518e+05
  -2.294150e+05   2.072884e+05
  -2.147809e+05  -2.408492e+04
   5.224944e+04  -1.216526e+05
   2.362756e+05   9.041349e+04
   5.081430e+04   3.847886e+05
  -4.112825e+05   3.755018e+05
  -7.298069e+05  -5.499645e+04
  -5.658172e+05  -6.160509e+05
  -6.469866e+03  -8.723325e+05
   5.211225e+05  -6.269091e+05
   6.665213e+05  -8.171676e+04
   4.558406e+05   3.457765e+05
   1.884435e+05   3.933041e+05
   9.094711e+04   1.816963e+05
   1.099911e+05   5.796072e+04
   3.084957e+04   1.889129e+05
  -2.358121e+05   3.568689e+05
  -5.058593e+05   2.236777e+05
  -4.726116e+05  -2.269119e+05
  -2.709278e+04  -6.035861e+05
   5.647704e+05  -5.012341e+05
   8.364586e+05   6.727693e+04
   5.229675e+05   6.677276e+05
  -1.827489e+05   8.443445e+05
  -7.788917e+05   5.044580e+05
  -8.788167e+05  -4.903862e+04
  -5.130365e+05  -4.164642e+05
  -4.487756e+04  -4.429351e+05
   1.869554e+05  -3.043255e+05
   1.490338e+05  -2.687168e+05
   7.425134e+04  -3.784879e+05
   1.739777e+05  -4.025867e+05
   3.978427e+05  -1.273330e+05
   4.829633e+05   3.453363e+05
   2.464372e+05   6.520114e+05
  -1.833414e+05   5.259555e+05
  -4.579660e+05   6.299156e+04
  -3.489661e+05  -3.751536e+05
   1.977512e+04  -4.867750e+05
   3.019917e+05  -2.563963e+05
   2.828727e+05   8.833736e+04
   7.461996e+04   2.980811e+05
  -4.616313e+04   2.950353e+05
   3.511255e+04   1.899547e+05
   1.428041e+05   1.312142e+05
   1.944679e+04   1.435173e+05
  -3.531265e+05   1.208057e+05
  -6.729135e+05  -3.095953e+04
  -5.943488e+05  -2.695023e+05
  -9.934683e+04  -4.420107e+05
   4.376374e+05  -4.191630e+05
   5.969867e+05  -2.063365e+05
   3.247912e+05   4.874074e+04
  -4.018708e+04   1.596350e+05
  -1.484933e+05   6.382091e+04
   1.188207e+04  -9.323161e+04
   1.804371e+05  -8.974297e+04
   1.680779e+05   1.090929e+05
   4.294007e+04   2.731686e+05
  -1.628949e+04   1.768756e+05
   4.809374e+04  -8.530456e+04
   1.345113e+05  -1.757620e+05
   1.142501e+05   6.237632e+04
  -5.096136e+04   3.754978e+05
  -2.781356e+05   3.871641e+05
  -3.936635e+05   4.964584e+04
  -2.456749e+05  -3.046851e+05
   1.169540e+05  -3.471773e+05
   3.908845e+05  -8.490550e+04
   2.664762e+05   2.027628e+05
  -2.076353e+05   2.620771e+05
  -5.892025e+05   5.801155e+04
  -4.718714e+05  -2.445508e+05
   6.575206e+04  -4.145040e+05
   5.223390e+05  -3.163484e+05
   4.990496e+05  -3.002225e+04
   1.016910e+05   1.902547e+05
  -2.091368e+05   1.490381e+05
  -1.209750e+05  -7.158898e+04
   2.257405e+05  -1.723493e+05
   4.191225e+05   4.450299e+04
   2.130222e+05   4.307482e+05
  -2.355613e+05   6.018466e+05
  -5.416418e+05   3.139358e+05
  -4.681210e+05  -2.608216e+05
  -1.155489e+05  -6.513615e+05
   2.250937e+05  -5.213796e+05
   3.451804e+05  -8.263599e+03
   2.346829e+05   4.037559e+05
   1.118256e+04   3.810124e+05
  -1.789294e+05   7.011423e+04
  -2.212095e+05  -1.267933e+05
  -1.107448e+05  -5.456753e+04
   4.332301e+03   4.870481e+04
  -4.000514e+04  -7.185164e+04
  -1.857582e+05  -3.204533e+05
  -1.578424e+05  -3.872769e+05
   1.800482e+05  -1.676435e+05
   5.535091e+05   1.246045e+05
   5.373492e+05   2.581318e+05
   9.207876e+04   2.335300e+05
  -3.408618e+05   1.739658e+05
  -3.637938e+05   1.130528e+05
  -8.980752e+04   1.499182e+04
   6.446899e+04  -8.227824e+04
  -4.878448e+04  -9.668825e+04
  -1.573318e+05  -5.175273e+04
   1.779681e+02  -5.135199e+04
   2.938226e+05  -8.545529e+04
   3.692792e+05  -4.403357e+03
   8.775111e+04   2.353409e+05
  -3.296612e+05   4.130700e+05
  -5.556446e+05   2.662841e+05
  -4.481499e+05  -1.595923e+05
  -1.101384e+05  -5.084051e+05
   2.284483e+05  -4.895311e+05
   3.645977e+05  -1.787260e+05
   2.505421e+05   9.772620e+04
   3.222307e+04   1.258685e+05
  -7.459093e+04  -2.888884e+03
   7.020712e+03  -4.372520e+04
   1.402827e+05   1.049125e+05
   1.299597e+05   2.804717e+05
  -6.027192e+04   2.364753e+05
  -2.606066e+05  -6.304582e+04
  -2.572002e+05  -3.625472e+05
  -4.641324e+03  -3.662820e+05
   3.009870e+05  -5.737492e+04
   3.733282e+05   2.843099e+05
   1.134393e+05   3.824147e+05
  -2.524452e+05   2.195989e+05
  -3.767551e+05  -2.002303e+04
  -1.699403e+05  -1.742512e+05
   8.849123e+04  -2.005643e+05
   8.550890e+04  -1.245343e+05
  -1.372789e+05  -1.191866e+04
  -2.441827e+05   2.147795e+04
  -4.173205e+04  -9.937931e+04
   2.796522e+05  -2.671644e+05
   3.947670e+05  -2.519945e+05
   2.259745e+05   1.462236e+04
  -2.174951e+04   2.946239e+05
  -1.398748e+05   2.945945e+05
  -1.052576e+05   2.835272e+04
  -6.326152e+03  -1.918382e+05
   8.768838e+04  -1.359794e+05
   1.355860e+05   8.662666e+04
   9.633823e+04   2.032616e+05
  -2.502808e+04   1.166722e+05
  -1.407205e+05  -2.636268e+04
  -1.583470e+05  -6.266908e+04
  -8.563351e+04  -3.397076e+03
  -8.917001e+03   2.213957e+04
   2.307265e+04  -5.409861e+04
   4.388932e+04  -1.588192e+05
   9.368975e+04  -1.598671e+05
   1.436815e+05  -1.076598e+04
   1.207594e+05   1.817640e+05
  -4.694667e+03   2.423529e+05
  -1.629972e+05   1.018248e+05
  -2.176158e+05  -1.173602e+05
  -8.216982e+04  -2.188449e+05
   1.620425e+05  -1.331209e+05
   2.938039e+05   3.086464e+04
   1.662945e+05   1.277803e+05
  -1.002567e+05   1.174847e+05
  -2.166255e+05   5.441888e+04
  -5.712063e+04   1.289795e+03
   1.718598e+05  -2.291788e+03
   1.699303e+05   5.981691e+04
  -8.914816e+04   1.393027e+05
  -3.224500e+05   1.161015e+05
