
 $NMID
 id='ANONYMOUS ', fmtdat='(2E16.6)'
 volume=1.0
 tramp=1.0
 $END
   5.480250e+07  -1.766703e+06
   3.430315e+07   3.292525e+07
  -5.938131e+06   3.749651e+07
  -2.660427e+07   1.524979e+07
  -1.651790e+07  -6.353480e+06
   2.939633e+06  -9.297288e+06
   9.792649e+06   9.034793e+05
   3.055504e+06   9.584221e+06
  -5.904287e+06   9.413552e+06
  -9.470308e+06   2.241238e+06
  -6.966131e+06  -5.882932e+06
  -9.622587e+05  -8.361161e+06
   3.796824e+06  -2.734533e+06
   2.608185e+06   5.298699e+06
  -3.603262e+06   6.535706e+06
  -7.779203e+06  -1.082219e+06
  -4.637430e+06  -9.861648e+06
   3.350010e+06  -1.163930e+07
   9.652425e+06  -6.054079e+06
   1.053687e+07   1.654379e+06
   6.655271e+06   7.009869e+06
   1.011362e+06   8.327395e+06
  -2.543363e+06   6.033809e+06
  -1.715441e+06   2.852550e+06
   1.014924e+06   2.213686e+06
   2.195589e+05   4.046446e+06
  -5.190366e+06   4.289887e+06
  -9.351000e+06   6.110177e+05
  -6.900575e+06  -3.857647e+06
  -3.362339e+05  -4.827752e+06
   3.528699e+06  -2.468414e+06
   2.295641e+06  -3.554859e+04
  -6.992310e+05   8.206586e+05
  -2.226432e+06   3.681896e+05
  -2.052787e+06  -1.404123e+06
  -6.609039e+05  -3.744984e+06
   1.629767e+06  -3.739465e+06
   3.045586e+06  -3.264897e+04
   1.741860e+06   3.399735e+06
  -5.991682e+05   1.861900e+06
  -2.767167e+05  -2.359123e+06
   2.396242e+06  -2.291217e+06
   2.498864e+06   3.070467e+06
  -2.168819e+06   6.126598e+06
  -6.743338e+06   1.293948e+06
  -5.233661e+06  -6.563737e+06
   1.569380e+06  -8.402999e+06
   7.166463e+06  -2.582352e+06
   6.919393e+06   4.213764e+06
   1.941265e+06   5.918292e+06
  -3.391752e+06   2.743293e+06
  -5.237231e+06  -1.426462e+06
  -2.471630e+06  -3.419065e+06
   2.326136e+06  -2.239427e+06
   4.474045e+06   7.899046e+05
   1.990009e+06   2.625471e+06
  -1.648462e+06   1.387883e+06
  -1.735679e+06  -9.956449e+05
   1.302065e+06  -9.959354e+05
   2.561012e+06   1.631170e+06
  -4.161751e+05   3.451010e+06
  -4.454760e+06   2.084667e+06
  -5.271850e+06  -1.139368e+06
  -2.412123e+06  -3.829372e+06
   1.639210e+06  -5.163794e+06
   4.793083e+06  -4.781972e+06
   5.983639e+06  -1.806712e+06
   4.498261e+06   2.961747e+06
   1.027664e+06   5.988396e+06
  -1.740966e+06   4.736890e+06
  -1.755123e+06   1.281780e+06
  -2.514152e+05  -2.578417e+05
  -1.418758e+04   8.679295e+05
  -1.532777e+06   1.677532e+06
  -2.687551e+06   2.167894e+05
  -1.929451e+06  -1.876532e+06
   1.323571e+04  -2.067906e+06
   1.534940e+06  -1.514737e+05
   1.633568e+06   2.069015e+06
   3.724159e+03   2.874744e+06
  -2.676236e+06   1.630628e+06
  -4.357625e+06  -1.093181e+06
  -3.208887e+06  -3.583770e+06
  -8.081677e+04  -4.109916e+06
   2.129809e+06  -2.721163e+06
   2.154076e+06  -1.198614e+06
   1.812376e+06  -7.282978e+05
   2.921202e+06  -5.147563e+05
   4.316199e+06   7.072013e+05
   3.472002e+06   2.706293e+06
   1.528214e+05   4.083507e+06
  -3.150018e+06   3.865127e+06
  -4.096095e+06   2.095421e+06
  -2.591857e+06  -4.060402e+05
  -2.621349e+05  -2.175621e+06
   1.070463e+06  -1.882904e+06
   5.433382e+05   3.637254e+04
  -1.070790e+06   1.289060e+06
  -1.881432e+06   4.066356e+05
  -9.174692e+05  -1.173006e+06
   5.163213e+05  -1.090739e+06
   4.350755e+05   4.110107e+05
  -1.085808e+06   7.376984e+05
  -1.927556e+06  -1.253317e+06
  -7.208976e+05  -3.508269e+06
   1.581643e+06  -3.480517e+06
   3.187647e+06  -1.161285e+06
   3.338473e+06   1.450548e+06
   2.256102e+06   2.780899e+06
   4.316711e+05   2.603427e+06
  -1.228048e+06   1.444152e+06
  -1.554159e+06   2.219191e+05
  -4.875577e+05  -4.431197e+04
   3.583150e+05   7.485711e+05
  -4.000143e+05   1.343113e+06
  -1.894288e+06   5.956484e+05
  -2.038192e+06  -8.730115e+05
  -3.939457e+05  -1.418880e+06
   1.174641e+06  -5.734977e+05
   8.882771e+05   4.694589e+05
  -8.676748e+05   5.315983e+05
  -2.196822e+06  -3.335247e+05
  -1.734747e+06  -1.380260e+06
   2.689516e+05  -1.975238e+06
   2.309273e+06  -1.642023e+06
   2.760039e+06  -2.710316e+05
   1.218208e+06   1.255372e+06
  -8.999944e+05   1.501545e+06
  -1.549004e+06   2.053716e+05
  -2.097812e+05  -1.068483e+06
   1.506418e+06  -7.390257e+05
   1.717798e+06   7.796304e+05
   3.342033e+05   1.658881e+06
  -1.105313e+06   9.800522e+05
  -1.268801e+06  -3.214597e+05
  -2.451841e+05  -7.959798e+05
   8.028279e+05  -6.494386e+04
   7.431491e+05   1.046085e+06
  -5.648222e+05   1.419821e+06
  -1.992400e+06   5.480867e+05
  -2.027839e+06  -1.035932e+06
  -3.889331e+05  -2.064749e+06
   1.431947e+06  -1.642440e+06
   1.723022e+06  -2.101437e+05
   4.989549e+05   8.729140e+05
  -6.630620e+05   8.018509e+05
  -6.282616e+05   6.558766e+04
   1.361406e+05  -3.654321e+05
   5.034394e+05  -1.933466e+05
   1.128750e+05   8.931853e+04
  -4.705617e+05  -6.665321e+04
  -5.327389e+05  -6.783095e+05
   2.021176e+05  -1.194911e+06
   1.377675e+06  -8.986991e+05
   2.075353e+06   4.071192e+05
   1.464167e+06   1.929475e+06
  -2.138328e+05   2.406276e+06
  -1.614605e+06   1.400015e+06
  -1.683844e+06  -1.382361e+05
  -8.347210e+05  -9.026213e+05
  -2.863550e+05  -6.418133e+05
  -4.631082e+05  -1.956762e+05
  -6.374387e+05  -2.939705e+05
  -1.062498e+05  -7.599283e+05
   8.720161e+05  -9.023323e+05
   1.445907e+06  -3.216134e+05
   1.037974e+06   7.245981e+05
  -2.612702e+05   1.454186e+06
  -1.718798e+06   1.065848e+06
  -2.237405e+06  -4.824773e+05
  -1.131163e+06  -2.097012e+06
   1.004997e+06  -2.369424e+06
   2.541301e+06  -1.035968e+06
   2.350444e+06   6.656946e+05
   9.440468e+05   1.350916e+06
  -2.257449e+05   9.445213e+05
  -3.968814e+05   4.890488e+05
  -6.487990e+04   7.273768e+05
  -8.171538e+04   1.293933e+06
  -6.551564e+05   1.290348e+06
  -1.285193e+06   3.281919e+05
  -1.332558e+06  -1.067009e+06
  -5.578131e+05  -1.880272e+06
   6.144921e+05  -1.428311e+06
   1.281125e+06   2.854400e+03
   8.153672e+05   1.282125e+06
  -3.896400e+05   1.400513e+06
  -1.174601e+06   4.121966e+05
  -8.291409e+05  -6.994359e+05
   1.152924e+05  -1.089137e+06
   5.429381e+05  -7.957716e+05
   9.497703e+04  -4.173319e+05
  -4.294415e+05  -3.260260e+05
  -6.094950e+04  -3.770346e+05
   1.146186e+06  -2.175472e+05
   2.060256e+06   3.167616e+05
   1.617285e+06   1.029506e+06
  -3.139193e+04   1.443347e+06
  -1.580760e+06   1.153872e+06
  -1.831288e+06   2.802463e+05
  -8.427465e+05  -5.023628e+05
   2.540371e+05  -5.762975e+05
   5.167684e+05  -3.569131e+04
   4.424564e+04   4.181290e+05
  -4.322065e+05   2.546420e+05
  -4.800740e+05  -3.353569e+05
  -2.592690e+05  -7.030149e+05
  -1.038111e+05  -4.643869e+05
  -1.423681e+05   8.812038e+04
  -2.800457e+05   2.771235e+05
  -2.756662e+05  -2.317728e+05
   1.346175e+05  -9.725637e+05
   8.871634e+05  -1.066943e+06
   1.356302e+06  -2.006062e+05
   8.618215e+05   8.911454e+05
  -3.964207e+05   1.143241e+06
  -1.243478e+06   3.584635e+05
  -7.295129e+05  -5.607048e+05
   7.000911e+05  -6.475803e+05
   1.580108e+06   1.010651e+05
   9.911322e+05   8.725170e+05
  -4.978422e+05   9.863801e+05
  -1.501115e+06   4.614380e+05
  -1.224473e+06  -2.049852e+05
  -1.260637e+05  -5.139825e+05
   6.524119e+05  -2.651077e+05
   3.912233e+05   2.917094e+05
  -5.675984e+05   5.238761e+05
  -1.170094e+06  -6.231770e+04
  -6.832643e+05  -1.154523e+06
   5.552591e+05  -1.689980e+06
   1.453519e+06  -8.944859e+05
   1.249362e+06   7.382720e+05
   2.114873e+05   1.773878e+06
  -7.347282e+05   1.281395e+06
  -9.247340e+05  -1.834294e+05
  -4.242219e+05  -1.191909e+06
   2.341959e+05  -9.660030e+05
   5.673889e+05  -8.303823e+04
   4.525247e+05   3.776213e+05
   1.481515e+05   1.399667e+05
   5.542323e+04  -9.379993e+04
   3.038020e+05   2.898571e+05
   5.209052e+05   9.576133e+05
   1.769255e+05   1.077563e+06
  -7.287214e+05   4.039592e+05
  -1.465071e+06  -4.552639e+05
  -1.260736e+06  -8.335218e+05
  -1.879366e+05  -6.975799e+05
   8.295983e+05  -4.159618e+05
   9.743864e+05  -1.786324e+05
   3.762428e+05   5.273611e+04
  -1.364087e+05   2.236035e+05
  -5.701989e+04   2.037393e+05
   2.391982e+05   9.061846e+04
   5.930983e+04   1.271282e+05
  -6.297200e+05   2.385840e+05
  -1.040672e+06   6.807801e+03
  -4.702060e+05  -6.730364e+05
   7.979887e+05  -1.183513e+06
   1.689024e+06  -7.931037e+05
   1.429391e+06   3.881764e+05
   2.968726e+05   1.386912e+06
  -7.493038e+05   1.386791e+06
  -1.031125e+06   5.636466e+05
  -6.461821e+05  -2.115793e+05
  -1.478033e+05  -3.512464e+05
   4.355960e+04  -7.245743e+04
  -9.450165e+04   5.094799e+03
  -2.953356e+05  -3.737753e+05
  -2.460920e+05  -8.052004e+05
   1.630022e+05  -6.811677e+05
   6.681249e+05   9.670452e+04
   7.561756e+05   9.140569e+05
   1.578042e+05   1.016118e+06
  -7.209802e+05   2.754927e+05
  -1.039027e+06  -6.753548e+05
  -3.796115e+05  -1.072959e+06
   6.875636e+05  -7.013293e+05
   1.122815e+06   4.527544e+04
   5.584999e+05   6.125811e+05
  -2.682701e+05   7.022150e+05
  -3.904331e+05   3.847143e+05
   2.197211e+05   4.767513e+03
   6.376109e+05  -5.070387e+04
   1.601108e+05   3.054123e+05
  -8.117845e+05   6.838490e+05
  -1.270145e+06   5.452659e+05
  -7.901767e+05  -1.749270e+05
   7.715909e+04  -8.741710e+05
   5.528648e+05  -8.764807e+05
   4.379363e+05  -1.931695e+05
   7.025849e+04   4.610358e+05
  -2.214582e+05   4.480844e+05
  -3.434556e+05  -1.194046e+05
  -2.653291e+05  -5.675840e+05
   3.241544e+04  -4.433915e+05
   3.870163e+05   2.788935e+04
   4.903827e+05   2.836744e+05
   2.475589e+05   1.054090e+05
  -5.375689e+04  -1.620853e+05
  -9.571336e+04  -7.725771e+04
   4.373144e+04   3.263041e+05
   1.214141e+04   5.569602e+05
  -2.850393e+05   2.586721e+05
  -4.828119e+05  -3.318238e+05
  -2.062993e+05  -6.236982e+05
   3.845873e+05  -3.274872e+05
   6.756843e+05   2.450386e+05
   2.717330e+05   5.520748e+05
  -5.034131e+05   3.785063e+05
  -8.890202e+05  -4.356750e+04
  -4.899691e+05  -3.636011e+05
   2.787626e+05  -4.208124e+05
   6.301082e+05  -2.621899e+05
   2.655991e+05  -3.274588e+04
  -3.108226e+05   8.491219e+04
  -3.874242e+05  -3.256982e+04
   1.455213e+05  -2.698753e+05
   6.981924e+05  -2.736050e+05
