
 $NMID
 id='ANONYMOUS ', fmtdat='(2E16.6)'
 volume=1.0
 tramp=1.0
 $END
   5.900404e+07   1.025070e+06
   3.452633e+07   3.758350e+07
  -8.943574e+06   3.983459e+07
  -2.923012e+07   1.428519e+07
  -1.678267e+07  -8.121710e+06
   3.885580e+06  -9.604638e+06
   1.009731e+07   1.797284e+06
   2.388954e+06   1.024620e+07
  -6.782677e+06   9.266229e+06
  -1.002337e+07   1.645366e+06
  -7.102412e+06  -6.527179e+06
  -7.239379e+05  -8.830689e+06
   4.146988e+06  -2.838318e+06
   2.615572e+06   5.468456e+06
  -4.021954e+06   6.493066e+06
  -8.095648e+06  -1.661073e+06
  -4.330113e+06  -1.068083e+07
   4.212807e+06  -1.213776e+07
   1.063607e+07  -5.968936e+06
   1.128982e+07   2.265058e+06
   6.925924e+06   7.957314e+06
   6.329777e+05   9.232770e+06
  -3.344714e+06   6.414392e+06
  -2.317346e+06   2.624214e+06
   9.655577e+05   1.882209e+06
   3.687011e+05   4.083671e+06
  -5.369480e+06   4.532050e+06
  -9.837403e+06   5.834530e+05
  -7.272937e+06  -4.248362e+06
  -3.910502e+05  -5.286253e+06
   3.694254e+06  -2.796494e+06
   2.608288e+06  -2.241325e+05
  -3.142819e+05   8.361376e+05
  -2.039824e+06   6.086027e+05
  -2.234175e+06  -1.220995e+06
  -8.786238e+05  -3.915255e+06
   1.833494e+06  -4.048850e+06
   3.524845e+06   2.388051e+04
   1.907707e+06   3.852171e+06
  -8.730005e+05   2.205639e+06
  -4.892211e+05  -2.358586e+06
   2.483599e+06  -2.262425e+06
   2.417373e+06   3.385175e+06
  -2.791191e+06   6.308737e+06
  -7.432493e+06   8.378935e+05
  -5.239804e+06  -7.415024e+06
   2.237360e+06  -8.893843e+06
   7.790702e+06  -2.385658e+06
   7.016935e+06   4.702022e+06
   1.692042e+06   6.171073e+06
  -3.599401e+06   2.627132e+06
  -5.243965e+06  -1.714803e+06
  -2.295917e+06  -3.616780e+06
   2.596144e+06  -2.167743e+06
   4.645339e+06   1.092184e+06
   1.913850e+06   2.877497e+06
  -1.820049e+06   1.378157e+06
  -1.713685e+06  -1.085030e+06
   1.468146e+06  -8.191167e+05
   2.477344e+06   2.037005e+06
  -9.105931e+05   3.646088e+06
  -5.006754e+06   1.813941e+06
  -5.473590e+06  -1.638401e+06
  -2.269394e+06  -4.218731e+06
   1.896058e+06  -5.402401e+06
   5.097622e+06  -4.944663e+06
   6.349013e+06  -1.791956e+06
   4.744613e+06   3.247237e+06
   9.456121e+05   6.325826e+06
  -2.018628e+06   4.797629e+06
  -1.856397e+06   1.077056e+06
  -4.993889e+04  -3.966333e+05
   2.372685e+05   9.942567e+05
  -1.489591e+06   1.936670e+06
  -2.837635e+06   3.991179e+05
  -2.122445e+06  -1.828302e+06
  -1.370849e+05  -2.116876e+06
   1.462955e+06  -2.513245e+05
   1.654709e+06   2.008126e+06
   3.006143e+04   2.932212e+06
  -2.791737e+06   1.718001e+06
  -4.595143e+06  -1.182082e+06
  -3.334673e+06  -3.889870e+06
   6.736094e+04  -4.415606e+06
   2.428288e+06  -2.819087e+06
   2.373258e+06  -1.119681e+06
   1.898249e+06  -6.148672e+05
   2.970057e+06  -4.065144e+05
   4.365472e+06   8.390440e+05
   3.470386e+06   2.826753e+06
   8.940490e+04   4.140540e+06
  -3.228955e+06   3.895098e+06
  -4.178678e+06   2.150098e+06
  -2.692036e+06  -3.766113e+05
  -3.398529e+05  -2.238728e+06
   1.068421e+06  -1.978678e+06
   5.785604e+05   1.669494e+04
  -1.083224e+06   1.324593e+06
  -1.938066e+06   3.924413e+05
  -9.492642e+05  -1.236485e+06
   5.040334e+05  -1.118137e+06
   3.820051e+05   3.940998e+05
  -1.131671e+06   6.089074e+05
  -1.823398e+06  -1.466922e+06
  -4.585533e+05  -3.586054e+06
   1.800604e+06  -3.302175e+06
   3.192750e+06  -8.944172e+05
   3.197136e+06   1.571416e+06
   2.146954e+06   2.743144e+06
   4.089156e+05   2.557379e+06
  -1.232662e+06   1.455752e+06
  -1.572956e+06   2.365750e+05
  -4.942524e+05  -4.972213e+04
   3.511471e+05   7.606562e+05
  -4.503076e+05   1.361372e+06
  -1.961606e+06   5.602953e+05
  -2.048776e+06  -9.498557e+05
  -3.502902e+05  -1.453081e+06
   1.192802e+06  -5.498604e+05
   8.588622e+05   4.664484e+05
  -8.726481e+05   4.606069e+05
  -2.135126e+06  -3.989323e+05
  -1.660611e+06  -1.368975e+06
   3.007221e+05  -1.918150e+06
   2.320275e+06  -1.598692e+06
   2.779016e+06  -2.365130e+05
   1.212536e+06   1.303570e+06
  -9.579539e+05   1.530153e+06
  -1.608297e+06   1.777122e+05
  -2.082497e+05  -1.112185e+06
   1.542422e+06  -7.331338e+05
   1.715158e+06   8.214915e+05
   2.877233e+05   1.665020e+06
  -1.132186e+06   9.318181e+05
  -1.244574e+06  -3.687377e+05
  -2.044521e+05  -7.987609e+05
   8.228366e+05  -3.685480e+04
   7.403757e+05   1.075752e+06
  -5.847506e+05   1.437673e+06
  -2.025840e+06   5.422638e+05
  -2.048750e+06  -1.070496e+06
  -3.666248e+05  -2.099235e+06
   1.480058e+06  -1.638720e+06
   1.743890e+06  -1.788160e+05
   4.801347e+05   8.856785e+05
  -6.785100e+05   7.908555e+05
  -6.181067e+05   7.560790e+04
   1.349267e+05  -3.221170e+05
   4.609244e+05  -1.712028e+05
   6.406927e+04   4.745922e+04
  -4.727058e+05  -1.390148e+05
  -4.886987e+05  -7.209000e+05
   2.519206e+05  -1.194551e+06
   1.410011e+06  -8.763950e+05
   2.089944e+06   4.432313e+05
   1.457442e+06   1.972363e+06
  -2.383114e+05   2.424364e+06
  -1.627348e+06   1.376907e+06
  -1.664480e+06  -1.605593e+05
  -8.139594e+05  -8.756360e+05
  -3.092616e+05  -5.908779e+05
  -5.176756e+05  -1.901169e+05
  -6.655185e+05  -3.423032e+05
  -8.572298e+04  -7.966828e+05
   9.015756e+05  -8.869644e+05
   1.446472e+06  -2.906943e+05
   1.017558e+06   7.234049e+05
  -2.803762e+05   1.425620e+06
  -1.732349e+06   1.035836e+06
  -2.238163e+06  -5.122217e+05
  -1.096879e+06  -2.124695e+06
   1.070133e+06  -2.364822e+06
   2.585479e+06  -9.845448e+05
   2.333573e+06   7.179812e+05
   8.978545e+05   1.348144e+06
  -2.362396e+05   9.018855e+05
  -3.600733e+05   4.748524e+05
  -3.202516e+04   7.694826e+05
  -9.389634e+04   1.349983e+06
  -6.981548e+05   1.312681e+06
  -1.321253e+06   3.147986e+05
  -1.344020e+06  -1.094237e+06
  -5.489404e+05  -1.906561e+06
   6.313892e+05  -1.439687e+06
   1.286816e+06   1.976273e+04
   7.924893e+05   1.311347e+06
  -4.317056e+05   1.397680e+06
  -1.197572e+06   3.604848e+05
  -8.047831e+05  -7.571526e+05
   1.713369e+05  -1.101520e+06
   5.878029e+05  -7.683610e+05
   1.038820e+05  -3.969375e+05
  -4.424859e+05  -3.322723e+05
  -6.329731e+04  -3.823741e+05
   1.170128e+06  -1.934526e+05
   2.090170e+06   3.631566e+05
   1.614432e+06   1.070144e+06
  -8.013206e+04   1.457973e+06
  -1.639702e+06   1.137558e+06
  -1.851171e+06   2.420392e+05
  -8.177021e+05  -5.385988e+05
   2.841335e+05  -5.846545e+05
   5.219789e+05  -1.309767e+04
   3.590266e+04   4.474946e+05
  -4.354785e+05   2.655386e+05
  -4.865874e+05  -3.464988e+05
  -2.804041e+05  -7.240322e+05
  -1.211042e+05  -4.841494e+05
  -1.323599e+05   7.471058e+04
  -2.565081e+05   2.702140e+05
  -2.689866e+05  -2.378089e+05
   1.322160e+05  -9.822272e+05
   9.124288e+05  -1.071128e+06
   1.407617e+06  -1.830574e+05
   8.867834e+05   9.276300e+05
  -4.273893e+05   1.171210e+06
  -1.290664e+06   3.592710e+05
  -7.407571e+05  -5.701921e+05
   7.167267e+05  -6.394725e+05
   1.578156e+06   1.229506e+05
   9.604869e+05   8.765734e+05
  -5.208875e+05   9.587935e+05
  -1.493218e+06   4.255631e+05
  -1.203718e+06  -2.205445e+05
  -1.151290e+05  -5.069964e+05
   6.559487e+05  -2.494009e+05
   3.938897e+05   3.098110e+05
  -5.761322e+05   5.415715e+05
  -1.195840e+06  -5.924641e+04
  -7.059905e+05  -1.179475e+06
   5.592588e+05  -1.729503e+06
   1.477306e+06  -9.153743e+05
   1.264663e+06   7.489831e+05
   2.068280e+05   1.791666e+06
  -7.430108e+05   1.277679e+06
  -9.179955e+05  -2.027786e+05
  -4.033298e+05  -1.197504e+06
   2.537917e+05  -9.488123e+05
   5.724062e+05  -6.721566e+04
   4.428724e+05   3.713259e+05
   1.375220e+05   1.261299e+05
   5.850970e+04  -8.563480e+04
   3.172714e+05   3.209627e+05
   5.232832e+05   9.808557e+05
   1.560387e+05   1.071973e+06
  -7.559774e+05   3.834924e+05
  -1.473426e+06  -4.673847e+05
  -1.250237e+06  -8.378359e+05
  -1.795765e+05  -7.077978e+05
   8.279230e+05  -4.272237e+05
   9.754662e+05  -1.720210e+05
   3.849735e+05   7.441460e+04
  -1.347417e+05   2.312211e+05
  -6.933826e+04   1.837278e+05
   2.302699e+05   6.906254e+04
   6.666509e+04   1.331312e+05
  -6.242530e+05   2.593425e+05
  -1.059080e+06   4.094778e+03
  -4.957524e+05  -7.079220e+05
   8.058359e+05  -1.217416e+06
   1.736818e+06  -7.961465e+05
   1.475089e+06   4.089722e+05
   3.019392e+05   1.408085e+06
  -7.764243e+05   1.401139e+06
  -1.057093e+06   5.760799e+05
  -6.578375e+05  -2.058336e+05
  -1.548268e+05  -3.626303e+05
   3.735255e+04  -9.594975e+04
  -9.182252e+04  -1.231092e+04
  -2.838047e+05  -3.787697e+05
  -2.370241e+05  -8.104036e+05
   1.679257e+05  -6.951499e+05
   6.816777e+05   8.653058e+04
   7.808634e+05   9.259242e+05
   1.726616e+05   1.047325e+06
  -7.344794e+05   3.007467e+05
  -1.067313e+06  -6.781861e+05
  -3.896726e+05  -1.098937e+06
   7.076117e+05  -7.219282e+05
   1.149629e+06   5.360310e+04
   5.627437e+05   6.429645e+05
  -2.891656e+05   7.243086e+05
  -4.142582e+05   3.798396e+05
   2.122342e+05  -1.239853e+04
   6.441922e+05  -5.370792e+04
   1.635539e+05   3.176667e+05
  -8.240989e+05   6.864247e+05
  -1.293336e+06   5.234867e+05
  -8.053774e+05  -2.058788e+05
   8.605900e+04  -8.926172e+05
   5.833044e+05  -8.807098e+05
   4.693054e+05  -1.922884e+05
   8.229046e+04   4.677871e+05
  -2.305438e+05   4.637667e+05
  -3.577539e+05  -1.081697e+05
  -2.687725e+05  -5.777278e+05
   4.143454e+04  -4.649838e+05
   3.976210e+05   2.436959e+04
   4.927522e+05   3.034347e+05
   2.435970e+05   1.169021e+05
  -5.197005e+04  -1.810832e+05
  -7.867060e+04  -1.016586e+05
   6.955320e+04   3.374677e+05
   2.510129e+04   6.022013e+05
  -3.018057e+05   2.937293e+05
  -5.200965e+05  -3.367602e+05
  -2.330924e+05  -6.510158e+05
   3.898282e+05  -3.430053e+05
   7.008814e+05   2.496536e+05
   2.847876e+05   5.610311e+05
  -5.180102e+05   3.801441e+05
  -9.146148e+05  -4.843133e+04
  -4.997000e+05  -3.737543e+05
   2.928639e+05  -4.361319e+05
   6.542646e+05  -2.732845e+05
   2.825518e+05  -2.551533e+04
  -3.089453e+05   1.088409e+05
  -3.993399e+05  -1.368390e+04
   1.281715e+05  -2.737653e+05
   6.885591e+05  -2.920127e+05
