
 $NMID
 id='ANONYMOUS ', fmtdat='(2E16.6)'
 volume=1.0
 tramp=1.0
 $END
   3.621844e+07   9.128155e+05
   2.164924e+07   2.221107e+07
  -4.679133e+06   2.422308e+07
  -1.774490e+07   9.866928e+06
  -1.094694e+07  -3.908618e+06
   1.843443e+06  -6.065263e+06
   6.510807e+06   3.466544e+05
   2.203445e+06   6.307123e+06
  -3.845250e+06   6.539127e+06
  -6.370657e+06   1.603472e+06
  -4.602486e+06  -4.226847e+06
  -3.958141e+05  -5.866351e+06
   2.754295e+06  -1.664108e+06
   1.742338e+06   3.982844e+06
  -2.522838e+06   4.645435e+06
  -5.220505e+06  -7.630926e+05
  -2.942700e+06  -6.746072e+06
   2.519369e+06  -7.763213e+06
   6.669291e+06  -3.712336e+06
   6.930403e+06   1.611326e+06
   3.949167e+06   4.949775e+06
   1.811868e+05   5.329232e+06
  -1.691734e+06   3.609386e+06
  -6.684807e+05   1.902195e+06
   1.022598e+06   2.013148e+06
  -1.141377e+05   3.209313e+06
  -4.143840e+06   2.797244e+06
  -6.754506e+06  -1.349161e+05
  -4.575557e+06  -3.080385e+06
   2.593875e+05  -3.348135e+06
   2.874360e+06  -1.387528e+06
   1.629689e+06   4.430984e+05
  -9.241310e+05   9.048134e+05
  -2.096393e+06   1.512083e+05
  -1.540037e+06  -1.466487e+06
  -8.061002e+04  -2.949305e+06
   1.426610e+06  -2.412679e+06
   1.881099e+06   3.813117e+05
   7.485161e+05   2.385055e+06
  -5.332979e+05   8.837469e+05
   4.700722e+04  -1.998668e+06
   1.814250e+06  -1.660196e+06
   1.677935e+06   2.077410e+06
  -1.403743e+06   3.996172e+06
  -4.231415e+06   6.836760e+05
  -3.165894e+06  -4.417696e+06
   1.220540e+06  -5.441345e+06
   4.863335e+06  -1.472322e+06
   4.736367e+06   3.068000e+06
   1.363748e+06   4.187591e+06
  -2.400825e+06   1.971430e+06
  -3.766596e+06  -9.746487e+05
  -1.836863e+06  -2.381582e+06
   1.526865e+06  -1.526044e+06
   3.028392e+06   5.722550e+05
   1.351530e+06   1.776876e+06
  -1.128232e+06   9.018730e+05
  -1.266769e+06  -7.065321e+05
   7.219762e+05  -7.639684e+05
   1.681874e+06   8.746006e+05
  -1.038674e+05   2.063614e+06
  -2.761530e+06   1.292153e+06
  -3.456002e+06  -7.225693e+05
  -1.579315e+06  -2.550713e+06
   1.371254e+06  -3.522034e+06
   3.696364e+06  -3.169356e+06
   4.329147e+06  -9.486546e+05
   2.938934e+06   2.349294e+06
   4.397160e+05   4.281586e+06
  -1.262308e+06   3.343166e+06
  -1.139445e+06   1.063778e+06
  -2.781484e+05   8.939971e+04
  -3.795207e+05   7.466326e+05
  -1.474395e+06   1.036580e+06
  -2.080179e+06  -1.975891e+05
  -1.298112e+06  -1.694556e+06
   2.364717e+05  -1.668105e+06
   1.328580e+06  -4.650336e+04
   1.235540e+06   1.706713e+06
  -1.392451e+05   2.185793e+06
  -2.070593e+06   1.016376e+06
  -3.046792e+06  -1.070035e+06
  -2.022557e+06  -2.677467e+06
   1.586537e+05  -2.780840e+06
   1.528458e+06  -1.716609e+06
   1.438414e+06  -7.638265e+05
   1.253461e+06  -5.462617e+05
   2.138264e+06  -3.729479e+05
   3.161617e+06   5.894113e+05
   2.510804e+06   2.077142e+06
   1.634909e+04   3.052509e+06
  -2.492779e+06   2.802909e+06
  -3.189184e+06   1.388767e+06
  -1.921139e+06  -4.870672e+05
  -2.295779e+04  -1.688174e+06
   9.515889e+05  -1.342883e+06
   4.005609e+05   8.063301e+04
  -8.726833e+05   9.209277e+05
  -1.393590e+06   2.366437e+05
  -5.994016e+05  -8.911622e+05
   4.506511e+05  -8.145769e+05
   3.812604e+05   2.935965e+05
  -7.069058e+05   6.148050e+05
  -1.368613e+06  -7.412923e+05
  -6.365552e+05  -2.444933e+06
   9.691323e+05  -2.631934e+06
   2.273937e+06  -1.050381e+06
   2.575695e+06   9.887204e+05
   1.800663e+06   2.158378e+06
   3.195014e+05   2.047370e+06
  -9.957241e+05   1.068585e+06
  -1.203146e+06   1.028209e+05
  -3.669229e+05  -4.697580e+04
   2.518853e+05   5.675730e+05
  -3.115318e+05   9.640255e+05
  -1.382577e+06   3.866638e+05
  -1.474642e+06  -6.601867e+05
  -2.822745e+05  -1.030600e+06
   8.765821e+05  -4.148773e+05
   6.939537e+05   3.601514e+05
  -6.238918e+05   4.382664e+05
  -1.686347e+06  -2.146876e+05
  -1.373748e+06  -1.064580e+06
   1.882683e+05  -1.541508e+06
   1.781965e+06  -1.233705e+06
   2.093018e+06  -1.521030e+05
   8.755420e+05   9.505753e+05
  -7.011698e+05   1.061885e+06
  -1.122616e+06   9.828422e+04
  -1.013545e+05  -7.845188e+05
   1.140760e+06  -5.050970e+05
   1.271525e+06   6.046842e+05
   2.535598e+05   1.242809e+06
  -8.102459e+05   7.491597e+05
  -9.504303e+05  -2.143627e+05
  -2.042092e+05  -5.775604e+05
   5.730632e+05  -3.218932e+04
   5.147925e+05   7.975106e+05
  -4.759002e+05   1.041806e+06
  -1.517084e+06   3.405853e+05
  -1.487369e+06  -8.425034e+05
  -2.358231e+05  -1.554076e+06
   1.101762e+06  -1.194083e+06
   1.291547e+06  -1.315108e+05
   3.722241e+05   6.551853e+05
  -5.045454e+05   5.969680e+05
  -4.993836e+05   3.687929e+04
   8.203253e+04  -3.113356e+05
   4.115603e+05  -1.843667e+05
   1.578167e+05   7.079822e+04
  -3.042724e+05  -5.206817e+03
  -3.967450e+05  -4.694348e+05
   1.483494e+05  -8.784736e+05
   1.044675e+06  -6.471646e+05
   1.548325e+06   3.543242e+05
   1.046742e+06   1.487980e+06
  -2.239747e+05   1.817256e+06
  -1.254049e+06   1.049208e+06
  -1.297455e+06  -1.152561e+05
  -6.654012e+05  -7.275346e+05
  -2.292194e+05  -5.704824e+05
  -3.095475e+05  -2.171240e+05
  -4.182519e+05  -2.285888e+05
  -4.586570e+04  -5.442165e+05
   6.648267e+05  -6.632888e+05
   1.104824e+06  -2.313685e+05
   8.016586e+05   5.790145e+05
  -2.054309e+05   1.128311e+06
  -1.324342e+06   7.886454e+05
  -1.689783e+06  -4.117639e+05
  -8.212502e+05  -1.597249e+06
   7.803664e+05  -1.749526e+06
   1.907829e+06  -7.381454e+05
   1.767714e+06   5.165127e+05
   7.364013e+05   1.031145e+06
  -1.540907e+05   7.518716e+05
  -3.405960e+05   4.110737e+05
  -1.348226e+05   5.514881e+05
  -1.347809e+05   9.383688e+05
  -5.218632e+05   9.233217e+05
  -9.584696e+05   1.998019e+05
  -9.670068e+05  -8.461472e+05
  -3.652341e+05  -1.436396e+06
   5.075120e+05  -1.061768e+06
   9.686242e+05   2.679952e+04
   5.890485e+05   9.667554e+05
  -2.996959e+05   1.037170e+06
  -8.533254e+05   3.113310e+05
  -5.922251e+05  -4.921657e+05
   8.125581e+04  -7.788428e+05
   3.783814e+05  -5.838407e+05
   5.819090e+04  -3.295373e+05
  -3.074042e+05  -2.713049e+05
  -2.966574e+04  -2.923498e+05
   8.519016e+05  -1.363344e+05
   1.518408e+06   2.890017e+05
   1.188210e+06   8.024851e+05
  -3.517883e+04   1.057628e+06
  -1.187603e+06   8.102374e+05
  -1.371175e+06   1.834301e+05
  -6.266712e+05  -3.568484e+05
   1.939146e+05  -4.051673e+05
   3.766137e+05  -2.813197e+04
   4.158944e+03   2.942723e+05
  -3.491367e+05   1.753634e+05
  -3.485342e+05  -2.686611e+05
  -1.460036e+05  -5.530046e+05
  -3.622493e+04  -3.608571e+05
  -1.102602e+05   8.478833e+04
  -2.387222e+05   2.318157e+05
  -2.060558e+05  -1.788667e+05
   1.437530e+05  -7.437721e+05
   6.992193e+05  -7.731647e+05
   9.953250e+05  -8.499296e+04
   5.880055e+05   7.047075e+05
  -3.368450e+05   8.219092e+05
  -9.329393e+05   2.009206e+05
  -5.319723e+05  -4.554291e+05
   5.375703e+05  -4.749646e+05
   1.202455e+06   9.953005e+04
   7.661541e+05   6.710222e+05
  -3.676133e+05   7.532589e+05
  -1.148331e+06   3.543696e+05
  -9.449513e+05  -1.597605e+05
  -9.925891e+04  -3.967660e+05
   4.936014e+05  -1.974177e+05
   2.752543e+05   2.225855e+05
  -4.614602e+05   3.664757e+05
  -8.834822e+05  -1.052506e+05
  -4.560435e+05  -9.101212e+05
   5.059162e+05  -1.255775e+06
   1.146709e+06  -6.153174e+05
   9.251545e+05   6.084579e+05
   1.052571e+05   1.358960e+06
  -5.918291e+05   9.676241e+05
  -6.984908e+05  -1.443289e+05
  -3.084062e+05  -9.094085e+05
   1.752584e+05  -7.364723e+05
   4.222015e+05  -5.680782e+04
   3.529249e+05   3.005591e+05
   1.315901e+05   1.135622e+05
   3.492097e+04  -7.521447e+04
   1.875749e+05   2.184808e+05
   3.545990e+05   7.365454e+05
   1.313658e+05   8.229344e+05
  -5.325910e+05   2.854451e+05
  -1.103214e+06  -3.876301e+05
  -9.580792e+05  -6.645300e+05
  -1.244800e+05  -5.288388e+05
   6.644532e+05  -2.924761e+05
   7.514638e+05  -1.169910e+05
   2.628594e+05   4.088245e+04
  -1.191222e+05   1.648579e+05
  -2.077968e+04   1.619756e+05
   2.089695e+05   8.661004e+04
   3.003647e+04   1.015604e+05
  -5.168573e+05   1.552658e+05
  -7.868102e+05  -3.687527e+04
  -2.929469e+05  -5.271609e+05
   6.721802e+05  -8.591520e+05
   1.290172e+06  -5.231979e+05
   1.038886e+06   3.621652e+05
   1.697414e+05   1.067771e+06
  -6.071240e+05   1.016134e+06
  -8.023835e+05   3.741748e+05
  -4.891817e+05  -1.965029e+05
  -8.817222e+04  -2.723316e+05
   6.219101e+04  -4.080172e+04
  -5.971022e+04   1.815559e+04
  -2.231551e+05  -2.822872e+05
  -1.714086e+05  -6.159980e+05
   1.523247e+05  -5.056360e+05
   5.113899e+05   1.130899e+05
   5.293018e+05   7.386950e+05
   5.512720e+04   7.773298e+05
  -5.763371e+05   1.613307e+05
  -7.601096e+05  -5.726250e+05
  -2.336431e+05  -8.275808e+05
   5.525439e+05  -4.891881e+05
   8.374594e+05   8.233666e+04
   3.841338e+05   4.674246e+05
  -2.292958e+05   4.983257e+05
  -2.877868e+05   2.688262e+05
   1.921624e+05   1.645428e+04
   4.920332e+05  -1.380087e+04
   1.018368e+05   2.336943e+05
  -6.377703e+05   4.943063e+05
  -9.573874e+05   3.852601e+05
  -5.658473e+05  -1.442378e+05
   9.178393e+04  -6.507175e+05
   4.292949e+05  -6.322021e+05
   3.173817e+05  -1.099950e+05
   2.631319e+04   3.639997e+05
  -1.900420e+05   3.196637e+05
  -2.611973e+05  -1.236613e+05
  -1.782637e+05  -4.407632e+05
   4.898925e+04  -3.161241e+05
   2.930062e+05   4.413625e+04
   3.518273e+05   2.179686e+05
   1.815850e+05   7.490429e+04
  -2.134370e+04  -1.094286e+05
  -6.368892e+04  -2.663699e+04
  -6.027947e+03   2.678298e+05
  -5.697331e+04   4.057855e+05
  -2.454282e+05   1.486985e+05
  -3.297487e+05  -2.991431e+05
  -9.637479e+04  -4.898692e+05
   3.159632e+05  -2.257167e+05
   4.912977e+05   2.265443e+05
   1.766658e+05   4.387357e+05
  -3.888640e+05   2.647912e+05
  -6.608709e+05  -7.640478e+04
  -3.521036e+05  -2.944676e+05
   2.288033e+05  -2.926672e+05
   4.842661e+05  -1.553809e+05
   1.859353e+05  -9.109295e+03
  -2.655710e+05   3.972134e+04
  -3.061084e+05  -6.132538e+04
   1.371063e+05  -2.173830e+05
   5.715392e+05  -1.871764e+05
