
 $NMID
 id='ANONYMOUS ', fmtdat='(2E16.6)'
 volume=1.0
 tramp=1.0
 $END
   4.164084e+07   4.515798e+05
   2.568332e+07   2.387212e+07
  -3.919835e+06   2.745033e+07
  -1.961756e+07   1.292998e+07
  -1.310215e+07  -2.858214e+06
   1.322085e+06  -7.058242e+06
   7.637023e+06  -6.808651e+05
   3.506435e+06   7.017272e+06
  -3.683941e+06   8.461793e+06
  -7.362364e+06   2.710196e+06
  -5.709172e+06  -4.917743e+06
  -6.573496e+05  -7.225786e+06
   3.369335e+06  -1.943145e+06
   2.406159e+06   5.185031e+06
  -2.673376e+06   6.136406e+06
  -6.221983e+06  -3.980930e+05
  -3.906927e+06  -7.803985e+06
   2.544106e+06  -9.297321e+06
   7.700581e+06  -4.513367e+06
   8.045074e+06   1.919490e+06
   4.335569e+06   5.726335e+06
   2.764820e+04   5.785916e+06
  -1.532058e+06   3.729831e+06
   1.873791e+05   2.333388e+06
   1.912526e+06   3.125630e+06
  -2.522663e+05   4.546536e+06
  -5.617867e+06   3.540856e+06
  -8.667153e+06  -3.529286e+05
  -5.567029e+06  -3.914901e+06
   7.409368e+05  -4.086681e+06
   4.016584e+06  -1.450932e+06
   2.057186e+06   1.103083e+06
  -1.749323e+06   1.676478e+06
  -3.390654e+06   1.897452e+05
  -2.167652e+06  -2.395375e+06
   2.063082e+05  -4.099324e+06
   1.927705e+06  -2.797356e+06
   1.945745e+06   8.668568e+05
   4.558207e+05   2.845219e+06
  -7.036242e+05   5.062661e+05
   2.511721e+05  -2.989922e+06
   2.292588e+06  -2.322260e+06
   2.191558e+06   2.292485e+06
  -1.136572e+06   4.679641e+06
  -4.428643e+06   9.958631e+05
  -3.653870e+06  -4.852555e+06
   1.098413e+06  -6.214825e+06
   5.629641e+06  -1.840233e+06
   6.030530e+06   3.494744e+06
   2.128680e+06   5.130875e+06
  -2.827495e+06   2.766523e+06
  -4.932221e+06  -8.012583e+05
  -2.679915e+06  -2.758861e+06
   1.591525e+06  -1.989006e+06
   3.660285e+06   4.280625e+05
   1.793146e+06   1.972866e+06
  -1.270308e+06   1.127873e+06
  -1.718884e+06  -7.704376e+05
   5.460638e+05  -1.139403e+06
   2.036679e+06   5.052742e+05
   3.930756e+05   2.064180e+06
  -2.745968e+06   1.672122e+06
  -4.018596e+06  -4.050151e+05
  -2.072086e+06  -2.797014e+06
   1.662930e+06  -4.353583e+06
   4.754880e+06  -4.017386e+06
   5.457594e+06  -1.136579e+06
   3.547907e+06   3.008580e+06
   5.548863e+05   5.376557e+06
  -1.291226e+06   4.313057e+06
  -1.180483e+06   1.694014e+06
  -5.078457e+05   5.388819e+05
  -9.635096e+05   1.147249e+06
  -2.322650e+06   1.197127e+06
  -2.875721e+06  -5.798879e+05
  -1.668836e+06  -2.545921e+06
   4.926608e+05  -2.407493e+06
   2.026496e+06  -7.452460e+04
   1.821475e+06   2.397024e+06
  -1.835629e+05   2.977381e+06
  -2.754411e+06   1.264351e+06
  -3.857767e+06  -1.476086e+06
  -2.432135e+06  -3.347373e+06
   2.247046e+05  -3.300866e+06
   1.755590e+06  -2.001359e+06
   1.591355e+06  -9.922015e+05
   1.479715e+06  -8.668009e+05
   2.761427e+06  -6.964876e+05
   4.193213e+06   5.591465e+05
   3.438383e+06   2.603490e+06
   1.797938e+05   4.076142e+06
  -3.251835e+06   3.860697e+06
  -4.297131e+06   1.904549e+06
  -2.577093e+06  -7.270235e+05
   5.869668e+04  -2.329711e+06
   1.353559e+06  -1.779884e+06
   5.295458e+05   1.491850e+05
  -1.181151e+06   1.249538e+06
  -1.819745e+06   3.524795e+05
  -7.614135e+05  -1.149564e+06
   6.212416e+05  -1.123025e+06
   6.203644e+05   3.479422e+05
  -7.490325e+05   9.931136e+05
  -1.825127e+06  -5.775627e+05
  -1.245234e+06  -2.970014e+06
   7.446256e+05  -3.679230e+06
   2.805115e+06  -1.894968e+06
   3.663933e+06   9.439025e+05
   2.771888e+06   2.835984e+06
   6.123761e+05   2.852038e+06
  -1.336478e+06   1.503768e+06
  -1.651105e+06   1.601562e+05
  -4.964730e+05  -4.717709e+04
   3.685401e+05   7.471497e+05
  -3.400360e+05   1.264628e+06
  -1.763292e+06   5.700717e+05
  -1.967804e+06  -7.517555e+05
  -4.587410e+05  -1.312157e+06
   1.135832e+06  -6.197642e+05
   1.008321e+06   4.358532e+05
  -7.633719e+05   7.126311e+05
  -2.348073e+06  -7.686444e+04
  -2.050643e+06  -1.346666e+06
   9.072049e+04  -2.176897e+06
   2.346279e+06  -1.828221e+06
   2.823944e+06  -3.308790e+05
   1.210878e+06   1.202414e+06
  -8.725000e+05   1.399660e+06
  -1.437987e+06   1.625953e+05
  -1.320475e+05  -1.016816e+06
   1.496959e+06  -7.173479e+05
   1.740919e+06   7.185185e+05
   4.621485e+05   1.644652e+06
  -9.943004e+05   1.104640e+06
  -1.299279e+06  -1.624067e+05
  -3.577592e+05  -7.346089e+05
   7.294018e+05  -7.911698e+04
   7.116054e+05   1.038507e+06
  -6.093340e+05   1.412396e+06
  -2.032391e+06   5.054592e+05
  -2.027712e+06  -1.077068e+06
  -3.874850e+05  -2.067940e+06
   1.401025e+06  -1.653744e+06
   1.717661e+06  -2.622193e+05
   5.570074e+05   8.466115e+05
  -6.335965e+05   8.429691e+05
  -7.072915e+05   7.415832e+04
   5.693908e+04  -4.848781e+05
   5.900533e+05  -3.417496e+05
   3.244322e+05   9.377632e+04
  -3.446471e+05   9.388613e+04
  -5.805690e+05  -5.341020e+05
   1.049873e+05  -1.170409e+06
   1.353084e+06  -9.339423e+05
   2.099106e+06   3.925403e+05
   1.475319e+06   1.949546e+06
  -2.155217e+05   2.473706e+06
  -1.643909e+06   1.524239e+06
  -1.800569e+06  -4.965301e+04
  -1.012170e+06  -9.871348e+05
  -3.723304e+05  -8.689644e+05
  -3.762133e+05  -3.544890e+05
  -5.007334e+05  -2.695905e+05
  -7.246896e+04  -6.856535e+05
   8.396252e+05  -9.365937e+05
   1.488240e+06  -4.056033e+05
   1.163437e+06   7.493261e+05
  -1.812397e+05   1.587837e+06
  -1.750020e+06   1.171848e+06
  -2.322421e+06  -4.590497e+05
  -1.218811e+06  -2.099046e+06
   9.136873e+05  -2.386902e+06
   2.491631e+06  -1.122534e+06
   2.430705e+06   5.486083e+05
   1.126370e+06   1.343707e+06
  -1.186391e+05   1.088140e+06
  -4.830784e+05   6.421955e+05
  -2.487026e+05   7.521327e+05
  -1.892058e+05   1.220260e+06
  -6.494730e+05   1.225481e+06
  -1.255933e+06   2.971704e+05
  -1.330988e+06  -1.104115e+06
  -5.524492e+05  -1.925963e+06
   6.440088e+05  -1.457559e+06
   1.313272e+06  -2.181673e+04
   8.537972e+05   1.247694e+06
  -3.115136e+05   1.404262e+06
  -1.079429e+06   5.077400e+05
  -8.072554e+05  -5.554354e+05
   2.151485e+04  -1.003104e+06
   4.107949e+05  -8.078434e+05
   3.095220e+04  -4.732340e+05
  -4.156668e+05  -3.691309e+05
  -4.546302e+04  -4.006189e+05
   1.117202e+06  -2.304499e+05
   2.025775e+06   3.079397e+05
   1.637573e+06   1.002713e+06
   4.231241e+04   1.390596e+06
  -1.514381e+06   1.128192e+06
  -1.819534e+06   3.418682e+05
  -8.724959e+05  -3.915430e+05
   2.222677e+05  -5.256498e+05
   4.884787e+05  -7.798012e+04
  -2.823544e+03   3.634267e+05
  -4.836240e+05   2.438107e+05
  -4.755512e+05  -3.490143e+05
  -1.792594e+05  -7.572800e+05
  -2.413666e+04  -4.929186e+05
  -1.468053e+05   1.503359e+05
  -3.416081e+05   3.651309e+05
  -2.942900e+05  -2.261225e+05
   1.805381e+05  -1.028085e+06
   9.077650e+05  -1.066965e+06
   1.291425e+06  -1.248499e+05
   7.739824e+05   9.323601e+05
  -4.225386e+05   1.083600e+06
  -1.225522e+06   2.670536e+05
  -7.332852e+05  -6.065661e+05
   6.922627e+05  -6.737985e+05
   1.646497e+06   5.255142e+04
   1.124226e+06   8.537880e+05
  -4.147935e+05   1.067548e+06
  -1.541734e+06   5.960701e+05
  -1.322164e+06  -1.352897e+05
  -1.767538e+05  -5.402589e+05
   6.509127e+05  -3.105802e+05
   3.664380e+05   2.759016e+05
  -6.309796e+05   4.963588e+05
  -1.198503e+06  -1.377083e+05
  -6.171876e+05  -1.232856e+06
   6.806611e+05  -1.708318e+06
   1.552163e+06  -8.531822e+05
   1.278128e+06   8.023935e+05
   1.951392e+05   1.848423e+06
  -7.593175e+05   1.361452e+06
  -9.592176e+05  -1.364079e+05
  -4.872991e+05  -1.213263e+06
   1.657314e+05  -1.024627e+06
   5.573755e+05  -1.106464e+05
   5.202136e+05   3.961719e+05
   2.150685e+05   1.552958e+05
   3.143974e+04  -1.120194e+05
   2.179584e+05   2.713241e+05
   4.955707e+05   9.764588e+05
   2.517762e+05   1.114445e+06
  -6.670971e+05   4.132860e+05
  -1.520226e+06  -4.790919e+05
  -1.364051e+06  -8.571947e+05
  -1.952791e+05  -7.043630e+05
   9.203240e+05  -4.243623e+05
   1.025240e+06  -2.036056e+05
   3.306824e+05   2.831642e+04
  -1.671563e+05   2.264932e+05
   1.660377e+04   2.354462e+05
   3.277674e+05   1.263218e+05
   2.986210e+04   1.403650e+05
  -7.379531e+05   2.198312e+05
  -1.064501e+06  -3.220279e+04
  -3.595443e+05  -7.025621e+05
   9.182467e+05  -1.170151e+06
   1.706079e+06  -7.262850e+05
   1.375848e+06   4.792132e+05
   2.546923e+05   1.449556e+06
  -7.765545e+05   1.385900e+06
  -1.075710e+06   5.101419e+05
  -6.779460e+05  -2.696032e+05
  -1.127018e+05  -3.668781e+05
   1.183065e+05  -3.798792e+04
  -6.534906e+04   5.169468e+04
  -3.296552e+05  -3.611242e+05
  -2.702577e+05  -8.270635e+05
   1.969345e+05  -6.833903e+05
   7.072000e+05   1.602378e+05
   7.232164e+05   1.010188e+06
   5.973054e+04   1.051636e+06
  -8.017337e+05   2.047895e+05
  -1.041159e+06  -7.848033e+05
  -3.205453e+05  -1.114109e+06
   7.408731e+05  -6.552041e+05
   1.120722e+06   9.542178e+04
   5.132278e+05   5.973170e+05
  -2.944256e+05   6.495839e+05
  -3.514756e+05   3.634089e+05
   2.953676e+05   2.541807e+04
   6.757219e+05  -3.092052e+04
   1.338498e+05   3.079399e+05
  -8.470406e+05   6.965061e+05
  -1.253542e+06   5.773848e+05
  -7.361647e+05  -1.531656e+05
   1.065446e+05  -8.721216e+05
   5.325754e+05  -8.549955e+05
   3.955970e+05  -1.324839e+05
   3.154200e+04   5.079472e+05
  -2.549798e+05   4.221440e+05
  -3.629236e+05  -1.884279e+05
  -2.516040e+05  -5.931316e+05
   6.669762e+04  -4.035799e+05
   3.985848e+05   6.345358e+04
   4.715351e+05   2.639681e+05
   2.464467e+05   7.683894e+04
  -1.510829e+04  -1.256109e+05
  -8.194617e+04   1.458223e+04
  -3.919016e+04   3.866232e+05
  -1.264319e+05   5.246848e+05
  -3.522142e+05   1.565069e+05
  -4.201505e+05  -4.346014e+05
  -9.339614e+04  -6.709147e+05
   4.378761e+05  -3.025935e+05
   6.549290e+05   3.135203e+05
   2.390696e+05   6.027936e+05
  -5.100192e+05   3.658833e+05
  -8.815530e+05  -9.804078e+04
  -4.776064e+05  -3.896504e+05
   3.031536e+05  -3.811786e+05
   6.460824e+05  -1.971408e+05
   2.284363e+05  -1.096816e+04
  -3.944584e+05   4.099476e+04
  -4.332939e+05  -1.062144e+05
   2.043346e+05  -3.219295e+05
   8.138195e+05  -2.747184e+05
