
 $NMID
 id='ANONYMOUS ', fmtdat='(2E16.6)'
 volume=1.0
 tramp=1.0
 $END
  -3.235862e+07   3.420281e+05
  -1.962202e+07  -2.008747e+07
   4.232889e+06  -2.205626e+07
   1.590580e+07  -8.354536e+06
   9.458502e+06   4.208969e+06
  -1.975378e+06   5.386037e+06
  -5.649618e+06  -8.262286e+05
  -1.498842e+06  -5.652156e+06
   3.641759e+06  -5.253419e+06
   5.536663e+06  -1.063085e+06
   3.987560e+06   3.501921e+06
   4.913165e+05   4.847326e+06
  -2.232484e+06   1.599004e+06
  -1.468079e+06  -2.998072e+06
   2.168325e+06  -3.647109e+06
   4.500964e+06   7.978224e+05
   2.535790e+06   5.826135e+06
  -2.148466e+06   6.743160e+06
  -5.752379e+06   3.428749e+06
  -6.208316e+06  -1.076534e+06
  -3.904367e+06  -4.232720e+06
  -5.129288e+05  -5.021949e+06
   1.690067e+06  -3.590160e+06
   1.225669e+06  -1.556880e+06
  -4.982772e+05  -1.092850e+06
  -1.870205e+05  -2.232705e+06
   2.912131e+06  -2.492504e+06
   5.372352e+06  -3.865416e+05
   4.017100e+06   2.247648e+06
   2.662076e+05   2.852428e+06
  -1.978439e+06   1.522071e+06
  -1.375355e+06   1.365144e+05
   2.259285e+05  -4.129235e+05
   1.124502e+06  -2.788353e+05
   1.185895e+06   6.805731e+05
   4.735309e+05   2.114967e+06
  -9.488895e+05   2.218933e+06
  -1.888587e+06   5.218620e+04
  -1.086785e+06  -2.045742e+06
   4.014570e+05  -1.204100e+06
   2.399659e+05   1.277497e+06
  -1.364334e+06   1.264491e+06
  -1.386855e+06  -1.837294e+06
   1.431635e+06  -3.537783e+06
   4.066028e+06  -6.124911e+05
   2.999788e+06   3.976185e+06
  -1.081227e+06   4.927040e+06
  -4.240940e+06   1.422611e+06
  -3.923699e+06  -2.517444e+06
  -1.001024e+06  -3.405607e+06
   1.974694e+06  -1.494555e+06
   2.933448e+06   9.062449e+05
   1.318729e+06   1.994416e+06
  -1.405695e+06   1.243786e+06
  -2.581728e+06  -5.391566e+05
  -1.100994e+06  -1.565492e+06
   9.826577e+05  -7.856219e+05
   9.622198e+05   5.900247e+05
  -8.091465e+05   4.995115e+05
  -1.431864e+06  -1.078071e+06
   4.078953e+05  -2.048765e+06
   2.721806e+06  -1.108911e+06
   3.058142e+06   8.107748e+05
   1.321820e+06   2.294538e+06
  -9.837965e+05   2.982706e+06
  -2.755710e+06   2.745321e+06
  -3.459331e+06   1.035702e+06
  -2.621708e+06  -1.725031e+06
  -5.745390e+05  -3.459331e+06
   1.070375e+06  -2.677769e+06
   1.038569e+06  -6.365189e+05
   7.440805e+04   2.255817e+05
  -1.111427e+05  -4.993152e+05
   7.965740e+05  -1.027859e+06
   1.524075e+06  -2.134787e+05
   1.140066e+06   9.935412e+05
   6.084587e+04   1.145194e+06
  -8.067965e+05   1.165984e+05
  -9.046644e+05  -1.115932e+06
  -2.003642e+04  -1.609791e+06
   1.516264e+06  -9.514927e+05
   2.517059e+06   6.122642e+05
   1.862162e+06   2.092023e+06
   2.025114e+04   2.415560e+06
  -1.288654e+06   1.580155e+06
  -1.290782e+06   6.559776e+05
  -1.050967e+06   3.657589e+05
  -1.647514e+06   2.454051e+05
  -2.421204e+06  -4.397860e+05
  -1.932264e+06  -1.546016e+06
  -6.489224e+04  -2.287893e+06
   1.770005e+06  -2.157347e+06
   2.291407e+06  -1.190059e+06
   1.470438e+06   2.001462e+05
   1.846453e+05   1.218973e+06
  -5.795387e+05   1.080309e+06
  -3.130980e+05  -7.294683e+03
   5.922597e+05  -7.289393e+05
   1.065251e+06  -2.264990e+05
   5.285301e+05   6.706463e+05
  -2.768226e+05   6.136319e+05
  -2.170925e+05  -2.258943e+05
   6.339797e+05  -3.605819e+05
   1.048104e+06   7.926145e+05
   2.997607e+05   2.002884e+06
  -9.862739e+05   1.877277e+06
  -1.796712e+06   5.324220e+05
  -1.801739e+06  -8.696326e+05
  -1.197071e+06  -1.535623e+06
  -2.231192e+05  -1.422849e+06
   6.796575e+05  -8.031450e+05
   8.652773e+05  -1.306445e+05
   2.730583e+05   2.611662e+04
  -1.967393e+05  -4.193786e+05
   2.391329e+05  -7.559776e+05
   1.078799e+06  -3.232550e+05
   1.140690e+06   5.123960e+05
   2.048256e+05   8.036770e+05
  -6.589606e+05   3.101693e+05
  -4.786211e+05  -2.609337e+05
   4.895176e+05  -2.646634e+05
   1.195986e+06   2.188687e+05
   9.265189e+05   7.670868e+05
  -1.687168e+05   1.071838e+06
  -1.286147e+06   8.908153e+05
  -1.537687e+06   1.376925e+05
  -6.771198e+05  -7.146191e+05
   5.177397e+05  -8.490511e+05
   8.842040e+05  -1.095945e+05
   1.210673e+05   6.087323e+05
  -8.479354e+05   4.106593e+05
  -9.536120e+05  -4.482810e+05
  -1.666717e+05  -9.252327e+05
   6.277049e+05  -5.256076e+05
   6.973864e+05   1.995584e+05
   1.198554e+05   4.458905e+05
  -4.545533e+05   2.717092e+04
  -4.128219e+05  -5.899148e+05
   3.179538e+05  -7.937156e+05
   1.115078e+06  -3.041868e+05
   1.133155e+06   5.842642e+05
   2.098333e+05   1.158012e+06
  -8.118307e+05   9.121145e+05
  -9.651387e+05   1.058103e+05
  -2.701611e+05  -4.901926e+05
   3.738550e+05  -4.409827e+05
   3.420619e+05  -3.967242e+04
  -7.939829e+04   1.836396e+05
  -2.628522e+05   9.260813e+04
  -3.702917e+04  -3.764764e+04
   2.694100e+05   6.685473e+04
   2.808701e+05   3.978764e+05
  -1.326938e+05   6.658746e+05
  -7.774042e+05   4.908193e+05
  -1.156959e+06  -2.384686e+05
  -8.111041e+05  -1.084919e+06
   1.265094e+05  -1.340314e+06
   9.007368e+05  -7.657639e+05
   9.256058e+05   8.821461e+04
   4.496295e+05   4.908709e+05
   1.614221e+05   3.316472e+05
   2.773856e+05   9.969970e+04
   3.691231e+05   1.791053e+05
   5.406094e+04   4.373999e+05
  -4.963661e+05   4.953326e+05
  -8.029210e+05   1.642643e+05
  -5.644831e+05  -4.029188e+05
   1.562768e+05  -7.939638e+05
   9.591780e+05  -5.776166e+05
   1.240069e+06   2.792733e+05
   6.140531e+05   1.174367e+06
  -5.828125e+05   1.315071e+06
  -1.428754e+06   5.564485e+05
  -1.298394e+06  -3.915475e+05
  -5.025689e+05  -7.511376e+05
   1.341521e+05  -5.058948e+05
   2.061268e+05  -2.601276e+05
   1.769487e+04  -4.153717e+05
   4.382987e+04  -7.395512e+05
   3.772918e+05  -7.273209e+05
   7.266998e+05  -1.799699e+05
   7.442462e+05   5.997279e+05
   3.075351e+05   1.051110e+06
  -3.453554e+05   7.960469e+05
  -7.123695e+05  -7.858909e+03
  -4.445720e+05  -7.232543e+05
   2.330048e+05  -7.777696e+05
   6.645765e+05  -2.092877e+05
   4.548524e+05   4.130135e+05
  -8.529683e+04   6.134297e+05
  -3.215479e+05   4.337283e+05
  -5.846723e+04   2.234738e+05
   2.432213e+05   1.815038e+05
   3.499355e+04   2.103475e+05
  -6.461107e+05   1.127829e+05
  -1.156062e+06  -1.911029e+05
  -8.971759e+05  -5.861636e+05
   3.564132e+04  -8.091603e+05
   8.996889e+05  -6.375957e+05
   1.024789e+06  -1.414531e+05
   4.597612e+05   2.953037e+05
  -1.518483e+05   3.252940e+05
  -2.903402e+05   1.098080e+04
  -2.410383e+04  -2.441061e+05
   2.393277e+05  -1.454439e+05
   2.692667e+05   1.894382e+05
   1.540195e+05   3.949799e+05
   6.652074e+04   2.628813e+05
   7.623413e+04  -4.200902e+04
   1.459687e+05  -1.475267e+05
   1.499541e+05   1.314070e+05
  -7.280777e+04   5.410375e+05
  -5.003316e+05   5.938580e+05
  -7.723316e+05   1.091081e+05
  -4.903032e+05  -5.047693e+05
   2.288239e+05  -6.466215e+05
   7.065399e+05  -2.034168e+05
   4.087866e+05   3.127885e+05
  -3.948959e+05   3.564334e+05
  -8.752333e+05  -6.537812e+04
  -5.357192e+05  -4.877130e+05
   2.879674e+05  -5.365726e+05
   8.307863e+05  -2.392957e+05
   6.701542e+05   1.222096e+05
   6.438294e+04   2.825448e+05
  -3.638420e+05   1.405202e+05
  -2.193236e+05  -1.682643e+05
   3.152762e+05  -2.975830e+05
   6.568726e+05   3.051315e+04
   3.894942e+05   6.459401e+05
  -3.045454e+05   9.506689e+05
  -8.111422e+05   5.053383e+05
  -6.979953e+05  -4.111103e+05
  -1.166137e+05  -9.885184e+05
   4.102527e+05  -7.076768e+05
   5.105761e+05   1.101926e+05
   2.264187e+05   6.635412e+05
  -1.394317e+05   5.291092e+05
  -3.173597e+05   3.992087e+04
  -2.454530e+05  -2.073002e+05
  -7.606164e+04  -7.289805e+04
  -3.280385e+04   4.892630e+04
  -1.767678e+05  -1.713830e+05
  -2.913658e+05  -5.386407e+05
  -8.861452e+04  -5.958102e+05
   4.162178e+05  -2.179308e+05
   8.146352e+05   2.559585e+05
   6.930719e+05   4.639756e+05
   1.014494e+05   3.907516e+05
  -4.568586e+05   2.341606e+05
  -5.398875e+05   9.599284e+04
  -2.138972e+05  -3.707452e+04
   7.395232e+04  -1.265554e+05
   3.878549e+04  -1.059255e+05
  -1.261691e+05  -4.236411e+04
  -3.636505e+04  -7.182891e+04
   3.436584e+05  -1.395415e+05
   5.830371e+05  -4.511602e+03
   2.739880e+05   3.834822e+05
  -4.408441e+05   6.687664e+05
  -9.529583e+05   4.446268e+05
  -8.109498e+05  -2.183256e+05
  -1.681993e+05  -7.748418e+05
   4.239418e+05  -7.752611e+05
   5.792610e+05  -3.192302e+05
   3.612133e+05   1.134642e+05
   8.572007e+04   1.979782e+05
  -1.898264e+04   4.885617e+04
   5.306318e+04   4.556783e+03
   1.590577e+05   2.099512e+05
   1.328288e+05   4.482306e+05
  -9.062249e+04   3.827422e+05
  -3.736890e+05  -4.791590e+04
  -4.292188e+05  -5.075273e+05
  -9.652818e+04  -5.728212e+05
   4.013652e+05  -1.639077e+05
   5.860949e+05   3.716296e+05
   2.165715e+05   6.026966e+05
  -3.861355e+05   3.981151e+05
  -6.324786e+05  -2.570076e+04
  -3.136482e+05  -3.505693e+05
   1.544713e+05  -3.993325e+05
   2.260267e+05  -2.132312e+05
  -1.166168e+05   3.412607e+03
  -3.548422e+05   2.980720e+04
  -9.116857e+04  -1.734761e+05
   4.536349e+05  -3.803164e+05
   7.140756e+05  -2.949483e+05
   4.463679e+05   1.077315e+05
  -4.440267e+04   4.917390e+05
  -3.176900e+05   4.895031e+05
  -2.549522e+05   1.097540e+05
  -4.434665e+04  -2.563368e+05
   1.245063e+05  -2.550080e+05
   1.944240e+05   5.999442e+04
   1.490739e+05   3.175783e+05
  -1.930691e+04   2.548487e+05
  -2.178771e+05  -1.290132e+04
  -2.741871e+05  -1.646577e+05
  -1.365030e+05  -6.341791e+04
   3.104091e+04   9.748989e+04
   4.866449e+04   5.446091e+04
  -3.579144e+04  -1.821164e+05
  -1.678294e+04  -3.248357e+05
   1.606183e+05  -1.589794e+05
   2.825055e+05   1.814897e+05
   1.277497e+05   3.530041e+05
  -2.131233e+05   1.878233e+05
  -3.842003e+05  -1.347354e+05
  -1.563670e+05  -3.074652e+05
   2.841160e+05  -2.114016e+05
   5.023731e+05   2.343422e+04
   2.758651e+05   2.041552e+05
  -1.582243e+05   2.403502e+05
  -3.569951e+05   1.519835e+05
  -1.545274e+05   1.696741e+04
   1.684833e+05  -5.640678e+04
   2.169788e+05   9.113010e+03
  -7.303227e+04   1.488778e+05
  -3.801533e+05   1.575627e+05
