
 $NMID
 id='ANONYMOUS ', fmtdat='(2E16.6)'
 volume=1.0
 tramp=1.0
 $END
  -2.887931e+07  -3.574731e+06
  -1.593001e+07  -1.794566e+07
   4.494970e+06  -1.835412e+07
   1.414119e+07  -7.880481e+06
   8.798882e+06   2.305845e+06
  -1.194048e+06   4.682903e+06
  -5.270854e+06   2.898269e+05
  -2.210192e+06  -4.933851e+06
   2.829568e+06  -5.857925e+06
   5.229393e+06  -1.628125e+06
   3.726437e+06   3.869043e+06
  -9.001902e+03   5.245525e+06
  -2.594367e+06   1.086323e+06
  -1.497219e+06  -4.029309e+06
   2.159382e+06  -4.357934e+06
   4.312985e+06   5.575982e+05
   2.299530e+06   5.687685e+06
  -2.321486e+06   6.349974e+06
  -5.689035e+06   2.605884e+06
  -5.467490e+06  -2.017921e+06
  -2.448066e+06  -4.389087e+06
   6.054149e+05  -3.903023e+06
   1.269997e+06  -2.202389e+06
  -3.860344e+05  -1.527710e+06
  -1.542008e+06  -2.561719e+06
   4.621440e+05  -3.547031e+06
   4.538040e+06  -2.283152e+06
   6.439754e+06   9.221809e+05
   3.730069e+06   3.323719e+06
  -1.041667e+06   2.962116e+06
  -3.274733e+06   7.115819e+05
  -1.521935e+06  -1.185508e+06
   1.557214e+06  -1.417314e+06
   2.801242e+06  -2.152015e+04
   1.594072e+06   2.079180e+06
  -5.008018e+05   3.176656e+06
  -1.689229e+06   1.831120e+06
  -1.244153e+06  -9.944996e+05
   9.245692e+04  -2.132890e+06
   6.618168e+05  -8.565364e+04
  -3.946484e+05   2.398450e+06
  -1.807526e+06   1.641787e+06
  -1.422113e+06  -1.696491e+06
   9.725415e+05  -3.123153e+06
   2.948819e+06  -3.354356e+05
   2.106723e+06   3.598021e+06
  -1.164030e+06   4.179188e+06
  -4.074522e+06   8.827275e+05
  -4.163406e+06  -2.831712e+06
  -1.349934e+06  -3.796908e+06
   2.151473e+06  -1.912110e+06
   3.574223e+06   7.387199e+05
   1.870081e+06   2.056067e+06
  -1.180949e+06   1.310161e+06
  -2.550255e+06  -4.915955e+05
  -1.156851e+06  -1.457479e+06
   9.649407e+05  -7.059646e+05
   1.232835e+06   6.246657e+05
  -3.203907e+05   8.085051e+05
  -1.334311e+06  -2.988273e+05
  -2.579539e+05  -1.256172e+06
   1.841682e+06  -9.420595e+05
   2.708613e+06   4.275148e+05
   1.295551e+06   2.017158e+06
  -1.500044e+06   3.037626e+06
  -3.792862e+06   2.649428e+06
  -4.092180e+06   4.396826e+05
  -2.343070e+06  -2.493919e+06
  -3.103942e+04  -3.973908e+06
   1.111975e+06  -3.061865e+06
   8.179807e+05  -1.254156e+06
   3.915454e+05  -5.550291e+05
   9.413949e+05  -9.440451e+05
   1.997227e+06  -7.571393e+05
   2.233627e+06   7.173968e+05
   1.125987e+06   2.150209e+06
  -5.666276e+05   1.887514e+06
  -1.636513e+06  -3.133248e+04
  -1.312601e+06  -1.951125e+06
   3.157414e+05  -2.264854e+06
   2.173830e+06  -7.502033e+05
   2.756892e+06   1.400078e+06
   1.502249e+06   2.630350e+06
  -4.329298e+05   2.327309e+06
  -1.379032e+06   1.256881e+06
  -1.138239e+06   5.984720e+05
  -1.076589e+06   5.933447e+05
  -2.069598e+06   4.260938e+05
  -3.099575e+06  -5.889938e+05
  -2.455632e+06  -2.098466e+06
   4.868574e+04  -3.075849e+06
   2.647408e+06  -2.764563e+06
   3.374769e+06  -1.207784e+06
   1.921836e+06   7.373969e+05
  -2.105865e+05   1.803760e+06
  -1.168456e+06   1.267380e+06
  -3.946412e+05  -1.690199e+05
   9.788990e+05  -8.847254e+05
   1.382067e+06  -1.574033e+05
   4.818572e+05   9.115018e+05
  -5.492163e+05   8.242012e+05
  -4.866952e+05  -2.769932e+05
   5.356309e+05  -7.472590e+05
   1.294728e+06   3.943637e+05
   8.717886e+05   2.157482e+06
  -5.573327e+05   2.722699e+06
  -2.079895e+06   1.417728e+06
  -2.743738e+06  -7.584250e+05
  -2.056477e+06  -2.240742e+06
  -3.793533e+05  -2.212927e+06
   1.091207e+06  -1.087378e+06
   1.270312e+06  -3.522344e+04
   3.711340e+05   5.909327e+04
  -2.445584e+05  -5.823572e+05
   3.118988e+05  -9.208210e+05
   1.335442e+06  -3.316277e+05
   1.426246e+06   6.465559e+05
   2.835313e+05   9.917208e+05
  -8.843226e+05   4.199955e+05
  -7.668965e+05  -3.692909e+05
   5.781632e+05  -5.398367e+05
   1.785067e+06   1.026429e+05
   1.546416e+06   1.084818e+06
  -1.219287e+05   1.667247e+06
  -1.849518e+06   1.307227e+06
  -2.150225e+06   1.307809e+05
  -8.470176e+05  -9.540845e+05
   7.274538e+05  -9.896575e+05
   1.071703e+06  -3.505099e+04
   2.962748e+04   7.700848e+05
  -1.164761e+06   4.644502e+05
  -1.278947e+06  -6.130697e+05
  -2.912557e+05  -1.252260e+06
   7.768877e+05  -8.011662e+05
   9.697475e+05   1.564126e+05
   2.496851e+05   5.583695e+05
  -5.463115e+05   2.699315e+04
  -4.887393e+05  -8.191690e+05
   5.313657e+05  -1.043706e+06
   1.566979e+06  -2.853567e+05
   1.482083e+06   9.128157e+05
   1.952003e+05   1.577025e+06
  -1.126769e+06   1.178968e+06
  -1.300107e+06   1.227632e+05
  -3.843593e+05  -6.589132e+05
   5.146205e+05  -6.111106e+05
   5.544625e+05  -2.355908e+04
  -4.427009e+04   3.889140e+05
  -4.735303e+05   2.686904e+05
  -2.870759e+05  -7.581254e+04
   2.279764e+05  -8.492912e+04
   4.165730e+05   3.930230e+05
  -1.103611e+05   8.660354e+05
  -1.052570e+06   6.497898e+05
  -1.567573e+06  -3.851713e+05
  -1.026250e+06  -1.538026e+06
   2.729211e+05  -1.864572e+06
   1.307402e+06  -1.095440e+06
   1.369349e+06   9.803145e+04
   7.514403e+05   7.954276e+05
   2.655428e+05   7.079846e+05
   2.574817e+05   3.162234e+05
   3.386588e+05   2.245218e+05
   1.710427e+04   5.036654e+05
  -6.613662e+05   6.723831e+05
  -1.139477e+06   2.614557e+05
  -8.687486e+05  -6.096157e+05
   1.820386e+05  -1.208139e+06
   1.368814e+06  -8.283378e+05
   1.743680e+06   4.399628e+05
   8.406810e+05   1.633382e+06
  -7.787091e+05   1.757102e+06
  -1.915100e+06   7.461317e+05
  -1.815237e+06  -4.995536e+05
  -8.200956e+05  -1.054875e+06
   1.128747e+05  -8.368683e+05
   4.025834e+05  -4.943915e+05
   2.555106e+05  -5.671873e+05
   2.222482e+05  -8.997381e+05
   5.469803e+05  -8.795960e+05
   9.550012e+05  -1.589751e+05
   9.530116e+05   8.995055e+05
   3.286328e+05   1.484891e+06
  -5.568656e+05   1.075057e+06
  -9.963013e+05  -3.820191e+04
  -5.926341e+05  -9.712203e+05
   2.838150e+05  -1.041218e+06
   8.149263e+05  -3.478958e+05
   5.738038e+05   4.281586e+05
  -4.673062e+04   7.349402e+05
  -3.209156e+05   5.881080e+05
  -3.172694e+04   3.630314e+05
   2.947639e+05   3.033064e+05
   1.518245e+04   3.070708e+05
  -8.440298e+05   1.256781e+05
  -1.504168e+06  -3.203747e+05
  -1.191340e+06  -8.228354e+05
   1.853567e+04  -1.038389e+06
   1.180116e+06  -7.749260e+05
   1.381717e+06  -1.851500e+05
   6.414494e+05   3.136596e+05
  -1.862086e+05   3.751268e+05
  -3.641478e+05   4.415335e+04
   2.817727e+04  -2.625252e+05
   3.828596e+05  -1.596102e+05
   3.401877e+05   2.859098e+05
   8.720275e+04   5.885779e+05
  -1.842291e+04   3.790331e+05
   1.150401e+05  -1.185103e+05
   2.821605e+05  -2.795356e+05
   2.169188e+05   1.791319e+05
  -1.856968e+05   7.769687e+05
  -7.334252e+05   7.655343e+05
  -9.683557e+05   2.297575e+04
  -5.267458e+05  -7.456923e+05
   3.722662e+05  -7.867315e+05
   9.325866e+05  -1.291188e+05
   5.259262e+05   4.971512e+05
  -5.484972e+05   4.798655e+05
  -1.246343e+06  -1.027455e+05
  -8.313764e+05  -6.849706e+05
   3.416781e+05  -7.966685e+05
   1.190153e+06  -4.053899e+05
   1.005252e+06   1.453763e+05
   1.187850e+05   4.181470e+05
  -5.032426e+05   2.128023e+05
  -2.591488e+05  -2.226850e+05
   5.099555e+05  -3.426597e+05
   9.037366e+05   1.706322e+05
   3.989749e+05   9.718681e+05
  -6.118090e+05   1.260958e+06
  -1.224981e+06   5.662886e+05
  -9.315794e+05  -6.722017e+05
  -6.222868e+04  -1.412885e+06
   6.348579e+05  -1.005298e+06
   7.209780e+05   1.359330e+05
   3.248827e+05   9.374857e+05
  -1.566296e+05   7.739175e+05
  -4.225813e+05   6.401110e+04
  -3.873085e+05  -3.235355e+05
  -1.679254e+05  -1.285081e+05
  -2.424289e+04   8.539519e+04
  -1.360255e+05  -2.125822e+05
  -3.246811e+05  -7.615147e+05
  -1.532861e+05  -8.555338e+05
   5.094031e+05  -2.813694e+05
   1.132785e+06   4.322431e+05
   1.007179e+06   7.083084e+05
   1.172166e+05   5.394701e+05
  -7.274977e+05   2.812810e+05
  -7.892732e+05   1.129993e+05
  -2.386198e+05  -3.230761e+04
   1.418803e+05  -1.636157e+05
  -1.600990e+04  -1.815806e+05
  -2.586822e+05  -1.141901e+05
  -1.193705e+04  -1.103726e+05
   5.853188e+05  -1.316970e+05
   8.052905e+05   7.843933e+04
   2.195842e+05   5.525352e+05
  -7.659561e+05   8.392528e+05
  -1.320819e+06   4.580353e+05
  -1.005595e+06  -4.397400e+05
  -1.204008e+05  -1.114186e+06
   6.508890e+05  -1.008837e+06
   8.415147e+05  -3.276422e+05
   5.057996e+05   2.428924e+05
   6.290888e+04   2.851187e+05
  -1.051116e+05   1.883076e+04
   4.516177e+04  -4.406282e+04
   2.383281e+05   2.835668e+05
   1.714462e+05   6.387284e+05
  -1.855081e+05   5.071792e+05
  -5.341732e+05  -1.633533e+05
  -4.948955e+05  -8.115186e+05
   1.988745e+04  -8.026428e+05
   6.287722e+05  -1.064689e+05
   7.505430e+05   6.573372e+05
   1.812405e+05   8.611921e+05
  -5.972392e+05   4.524702e+05
  -8.397524e+05  -1.308612e+05
  -3.514803e+05  -4.705296e+05
   2.561150e+05  -4.671271e+05
   2.744812e+05  -2.537290e+05
  -2.347008e+05  -3.473576e+04
  -5.170052e+05  -9.530290e+03
  -8.226937e+04  -2.384199e+05
   6.748522e+05  -4.890641e+05
   9.656250e+05  -3.837780e+05
   5.366952e+05   1.453307e+05
  -1.248606e+05   6.515614e+05
  -4.356968e+05   6.151271e+05
  -2.967964e+05   7.024785e+04
   5.200953e+03  -3.926962e+05
   2.171153e+05  -3.021057e+05
   2.693179e+05   1.701325e+05
   1.607744e+05   4.624154e+05
  -7.519554e+04   2.940299e+05
  -2.998603e+05  -7.199859e+04
  -3.391434e+05  -2.166341e+05
  -1.811446e+05  -6.363200e+04
  -1.902611e+03   8.937712e+04
   5.813991e+04  -2.378542e+04
   6.091379e+04  -3.017243e+05
   1.445993e+05  -3.856862e+05
   2.860901e+05  -8.440490e+04
   2.869664e+05   3.657354e+05
   2.048742e+04   5.195692e+05
  -3.530828e+05   2.045420e+05
  -4.762487e+05  -2.779160e+05
  -1.480714e+05  -4.740757e+05
   4.014810e+05  -2.504525e+05
   6.586734e+05   1.232271e+05
   3.401809e+05   3.196404e+05
  -2.505273e+05   2.664256e+05
  -4.991458e+05   1.075520e+05
  -1.657102e+05  -6.795134e+03
   3.150513e+05  -6.450029e+03
   3.309625e+05   1.123012e+05
  -1.782662e+05   2.437161e+05
  -6.459352e+05   1.723688e+05
