
 $NMID
 id='ANONYMOUS ', fmtdat='(2E16.6)'
 volume=1.0
 tramp=1.0
 $END
  -5.736287e+07   1.639381e+06
  -3.548034e+07  -3.500669e+07
   6.784123e+06  -3.928180e+07
   2.798367e+07  -1.534319e+07
   1.695877e+07   7.178293e+06
  -3.332714e+06   9.638601e+06
  -1.007933e+07  -1.290509e+06
  -2.844811e+06  -1.000602e+07
   6.322310e+06  -9.453680e+06
   9.811090e+06  -2.058873e+06
   7.176841e+06   6.094599e+06
   1.007809e+06   8.582554e+06
  -3.906469e+06   2.897935e+06
  -2.674869e+06  -5.280977e+06
   3.756269e+06  -6.540884e+06
   8.020461e+06   1.278870e+06
   4.678258e+06   1.026452e+07
  -3.606617e+06   1.203292e+07
  -1.009502e+07   6.259502e+06
  -1.103546e+07  -1.712428e+06
  -7.054234e+06  -7.369638e+06
  -1.082450e+06  -8.878090e+06
   2.865514e+06  -6.432934e+06
   2.128974e+06  -2.833981e+06
  -8.871748e+05  -1.947644e+06
  -3.710763e+05  -3.945858e+06
   5.092940e+06  -4.478628e+06
   9.501153e+06  -8.235056e+05
   7.177440e+06   3.866195e+06
   5.547107e+05   5.030267e+06
  -3.451665e+06   2.734594e+06
  -2.410986e+06   2.797439e+05
   4.101464e+05  -7.129008e+05
   1.983748e+06  -4.937273e+05
   2.096974e+06   1.182383e+06
   8.809683e+05   3.721659e+06
  -1.611453e+06   3.952521e+06
  -3.329992e+06   1.614106e+05
  -1.988186e+06  -3.575930e+06
   6.540382e+05  -2.144090e+06
   4.406293e+05   2.248524e+06
  -2.392886e+06   2.276672e+06
  -2.520057e+06  -3.221855e+06
   2.427995e+06  -6.333597e+06
   7.195162e+06  -1.231427e+06
   5.452117e+06   6.952183e+06
  -1.757772e+06   8.778422e+06
  -7.476531e+06   2.655278e+06
  -7.035280e+06  -4.358282e+06
  -1.870681e+06  -6.024538e+06
   3.470594e+06  -2.709008e+06
   5.239352e+06   1.535107e+06
   2.399745e+06   3.513727e+06
  -2.460410e+06   2.255197e+06
  -4.601304e+06  -8.798906e+05
  -2.003808e+06  -2.748313e+06
   1.719857e+06  -1.424687e+06
   1.725554e+06   1.024729e+06
  -1.428057e+06   9.214080e+05
  -2.590660e+06  -1.869279e+06
   6.465441e+05  -3.663455e+06
   4.795971e+06  -2.068064e+06
   5.461858e+06   1.341384e+06
   2.420863e+06   4.034218e+06
  -1.659606e+06   5.314466e+06
  -4.809880e+06   4.934727e+06
  -6.099433e+06   1.928313e+06
  -4.690219e+06  -2.979630e+06
  -1.111965e+06  -6.114286e+06
   1.829089e+06  -4.785735e+06
   1.838005e+06  -1.165759e+06
   1.551457e+05   4.047806e+05
  -2.026686e+05  -8.615627e+05
   1.378586e+06  -1.823840e+06
   2.680808e+06  -4.094021e+05
   2.029986e+06   1.730426e+06
   1.265049e+05   2.019043e+06
  -1.426450e+06   2.138945e+05
  -1.622498e+06  -1.963352e+06
  -6.975634e+04  -2.851150e+06
   2.660146e+06  -1.720882e+06
   4.471270e+06   1.017657e+06
   3.357236e+06   3.652066e+06
   1.092770e+05   4.279000e+06
  -2.234554e+06   2.841879e+06
  -2.271133e+06   1.206107e+06
  -1.859880e+06   6.801694e+05
  -2.921832e+06   4.760438e+05
  -4.309202e+06  -7.229943e+05
  -3.465560e+06  -2.698685e+06
  -1.668955e+05  -4.058351e+06
   3.091529e+06  -3.865212e+06
   4.034025e+06  -2.158732e+06
   2.605983e+06   3.212384e+05
   3.518621e+05   2.151013e+06
  -1.001105e+06   1.923372e+06
  -5.529624e+05  -5.392744e+03
   1.033298e+06  -1.304055e+06
   1.883507e+06  -4.273305e+05
   9.534656e+05   1.174269e+06
  -4.777892e+05   1.092392e+06
  -3.913621e+05  -4.001577e+05
   1.122817e+06  -6.613652e+05
   1.892859e+06   1.380985e+06
   5.888340e+05   3.559196e+06
  -1.712691e+06   3.371806e+06
  -3.192771e+06   9.932753e+05
  -3.227626e+06  -1.510031e+06
  -2.156885e+06  -2.709150e+06
  -4.221726e+05  -2.523302e+06
   1.188984e+06  -1.437816e+06
   1.530718e+06  -2.492326e+05
   4.849835e+05   4.033003e+04
  -3.584878e+05  -7.398357e+05
   4.055057e+05  -1.348004e+06
   1.906170e+06  -6.008026e+05
   2.038061e+06   8.818130e+05
   3.838365e+05   1.422674e+06
  -1.163150e+06   5.658476e+05
  -8.555544e+05  -4.549723e+05
   8.668938e+05  -4.827573e+05
   2.132628e+06   3.651214e+05
   1.661596e+06   1.347356e+06
  -2.799514e+05   1.909343e+06
  -2.265996e+06   1.608482e+06
  -2.726330e+06   2.775197e+05
  -1.218677e+06  -1.252392e+06
   8.970554e+05  -1.518726e+06
   1.565314e+06  -2.169872e+05
   2.297427e+05   1.075468e+06
  -1.494609e+06   7.478954e+05
  -1.703316e+06  -7.743826e+05
  -3.167842e+05  -1.640626e+06
   1.104678e+06  -9.490342e+05
   1.245280e+06   3.391540e+05
   2.239105e+05   7.909069e+05
  -8.062469e+05   5.996623e+04
  -7.458426e+05  -1.036711e+06
   5.461258e+05  -1.414383e+06
   1.970578e+06  -5.639129e+05
   2.022696e+06   1.011039e+06
   3.983376e+05   2.049768e+06
  -1.420016e+06   1.637278e+06
  -1.711085e+06   2.096385e+05
  -4.908947e+05  -8.648344e+05
   6.542599e+05  -7.913605e+05
   6.060029e+05  -7.627513e+04
  -1.396340e+05   3.292380e+05
  -4.676137e+05   1.680256e+05
  -6.620000e+04  -7.085165e+04
   4.833772e+05   1.098133e+05
   5.106087e+05   7.008749e+05
  -2.199563e+05   1.186718e+06
  -1.369102e+06   8.889161e+05
  -2.058432e+06  -3.975746e+05
  -1.463104e+06  -1.906851e+06
   1.957135e+05  -2.380769e+06
   1.583575e+06  -1.378183e+06
   1.646109e+06   1.383166e+05
   8.067761e+05   8.646499e+05
   2.887122e+05   5.864609e+05
   4.909348e+05   1.685040e+05
   6.596907e+05   3.064144e+05
   1.075370e+05   7.742229e+05
  -8.703387e+05   8.908264e+05
  -1.422836e+06   3.085464e+05
  -1.010025e+06  -7.050109e+05
   2.624752e+05  -1.413967e+06
   1.691222e+06  -1.045686e+06
   2.206961e+06   4.694912e+05
   1.115808e+06   2.071749e+06
  -1.004901e+06   2.348424e+06
  -2.524393e+06   1.020517e+06
  -2.315022e+06  -6.673296e+05
  -9.085746e+05  -1.325454e+06
   2.299651e+05  -9.028534e+05
   3.632129e+05  -4.640659e+05
   2.237087e+04  -7.331873e+05
   5.927326e+04  -1.310775e+06
   6.515149e+05  -1.299149e+06
   1.284599e+06  -3.364031e+05
   1.333157e+06   1.047182e+06
   5.683233e+05   1.857792e+06
  -5.954016e+05   1.419447e+06
  -1.264587e+06   1.358542e+03
  -8.058079e+05  -1.274104e+06
   3.960360e+05  -1.386954e+06
   1.176659e+06  -3.883408e+05
   8.196083e+05   7.222130e+05
  -1.356777e+05   1.092517e+06
  -5.611627e+05   7.797442e+05
  -1.000214e+05   3.991731e+05
   4.347115e+05   3.161855e+05
   6.634154e+04   3.720688e+05
  -1.144170e+06   2.153397e+05
  -2.055735e+06  -3.122222e+05
  -1.605615e+06  -1.020260e+06
   4.391758e+04  -1.438173e+06
   1.581401e+06  -1.153061e+06
   1.816413e+06  -2.742787e+05
   8.248253e+05   5.143739e+05
  -2.609796e+05   5.813655e+05
  -5.158845e+05   2.662168e+04
  -4.959535e+04  -4.315990e+05
   4.210193e+05  -2.623578e+05
   4.817448e+05   3.298932e+05
   2.811032e+05   6.954570e+05
   1.234344e+05   4.630884e+05
   1.357120e+05  -7.609384e+04
   2.575846e+05  -2.635423e+05
   2.691578e+05   2.302434e+05
  -1.181674e+05   9.605364e+05
  -8.743407e+05   1.064497e+06
  -1.366282e+06   2.125433e+05
  -8.805147e+05  -8.825260e+05
   3.900403e+05  -1.151942e+06
   1.246981e+06  -3.773952e+05
   7.313334e+05   5.457576e+05
  -6.931903e+05   6.414717e+05
  -1.555370e+06  -9.777262e+04
  -9.617732e+05  -8.562422e+05
   5.007369e+05  -9.602898e+05
   1.471595e+06  -4.422463e+05
   1.193220e+06   2.039910e+05
   1.199508e+05   5.009534e+05
  -6.433923e+05   2.574888e+05
  -3.933028e+05  -2.930679e+05
   5.519757e+05  -5.337104e+05
   1.164418e+06   3.986032e+04
   7.039729e+05   1.135687e+06
  -5.191140e+05   1.690772e+06
  -1.426698e+06   9.127711e+05
  -1.246236e+06  -7.141996e+05
  -2.275876e+05  -1.750784e+06
   7.136722e+05  -1.264208e+06
   9.093903e+05   1.848244e+05
   4.161319e+05   1.173573e+06
  -2.368706e+05   9.433700e+05
  -5.628203e+05   7.816297e+04
  -4.396596e+05  -3.637637e+05
  -1.361486e+05  -1.291015e+05
  -5.753209e+04   8.805466e+04
  -3.180306e+05  -2.981995e+05
  -5.287235e+05  -9.485126e+05
  -1.697397e+05  -1.056728e+06
   7.338508e+05  -3.974190e+05
   1.450537e+06   4.369411e+05
   1.239489e+06   8.098407e+05
   1.886602e+05   6.911677e+05
  -8.053586e+05   4.237441e+05
  -9.562225e+05   1.813322e+05
  -3.809619e+05  -5.996841e+04
   1.283647e+05  -2.255166e+05
   6.722701e+04  -1.904170e+05
  -2.238898e+05  -7.425930e+04
  -6.587737e+04  -1.259581e+05
   6.060263e+05  -2.529458e+05
   1.033452e+06  -2.067804e+04
   4.942774e+05   6.717008e+05
  -7.666036e+05   1.193845e+06
  -1.679241e+06   8.101087e+05
  -1.441813e+06  -3.677325e+05
  -3.145840e+05  -1.369947e+06
   7.346348e+05  -1.384484e+06
   1.019310e+06  -5.785488e+05
   6.421074e+05   1.938030e+05
   1.562487e+05   3.485321e+05
  -3.170631e+04   8.548936e+04
   9.533627e+04   6.302401e+03
   2.871790e+05   3.697095e+05
   2.452533e+05   7.927888e+05
  -1.521583e+05   6.803561e+05
  -6.626198e+05  -7.737409e+04
  -7.708892e+05  -8.899208e+05
  -1.835424e+05  -1.011905e+06
   7.067246e+05  -2.981719e+05
   1.045825e+06   6.460233e+05
   3.970276e+05   1.063074e+06
  -6.750140e+05   7.139556e+05
  -1.121651e+06  -3.120859e+04
  -5.648097e+05  -6.139431e+05
   2.638581e+05  -7.115005e+05
   3.958065e+05  -3.843195e+05
  -2.062638e+05   7.038661e+03
  -6.284201e+05   6.007396e+04
  -1.656578e+05  -3.051470e+05
   7.965121e+05  -6.842137e+05
   1.261038e+06  -5.397557e+05
   7.949687e+05   1.798919e+05
  -6.759137e+04   8.728194e+05
  -5.521647e+05   8.761625e+05
  -4.485847e+05   2.015230e+05
  -8.348107e+04  -4.528763e+05
   2.145241e+05  -4.545549e+05
   3.447474e+05   1.023896e+05
   2.711151e+05   5.597597e+05
  -2.756433e+04   4.518978e+05
  -3.860493e+05  -1.817845e+04
  -4.906614e+05  -2.855632e+05
  -2.442641e+05  -1.094535e+05
   5.814308e+04   1.714629e+05
   8.964233e+04   9.535604e+04
  -6.638836e+04  -3.203738e+05
  -3.803397e+04  -5.729175e+05
   2.790095e+05  -2.843480e+05
   5.031333e+05   3.140824e+05
   2.337422e+05   6.208497e+05
  -3.732648e+05   3.369072e+05
  -6.832179e+05  -2.298220e+05
  -2.832915e+05  -5.411949e+05
   4.990362e+05  -3.813667e+05
   8.906663e+05   2.999491e+04
   4.935002e+05   3.556841e+05
  -2.743844e+05   4.295262e+05
  -6.284918e+05   2.774552e+05
  -2.733559e+05   3.445957e+04
   2.965522e+05  -1.020763e+05
   3.834661e+05   1.218518e+04
  -1.272933e+05   2.644026e+05
  -6.707866e+05   2.855539e+05
