
 $NMID
 id='ANONYMOUS ', fmtdat='(2E16.6)'
 volume=1.0
 tramp=1.0
 $END
  -2.773341e+07   2.093547e+06
  -1.945307e+07  -1.271315e+07
  -5.927919e+05  -1.814558e+07
   1.182692e+07  -1.173256e+07
   9.948503e+06  -7.593886e+05
   4.888465e+05   5.055115e+06
  -5.533326e+06   2.212923e+06
  -4.014425e+06  -4.446871e+06
   1.341221e+06  -7.263887e+06
   5.059080e+06  -3.277160e+06
   4.533132e+06   3.235465e+06
   8.592144e+05   5.488180e+06
  -2.449082e+06   1.398847e+06
  -2.186955e+06  -4.302336e+06
   1.437108e+06  -5.340690e+06
   4.571893e+06  -5.829794e+05
   3.600280e+06   5.228698e+06
  -9.421446e+05   6.867284e+06
  -5.040922e+06   3.610936e+06
  -5.486363e+06  -1.084965e+06
  -2.785210e+06  -3.621922e+06
  -7.309652e+04  -3.298594e+06
   1.788729e+05  -2.047169e+06
  -1.516598e+06  -2.004178e+06
  -2.197857e+06  -3.339690e+06
   4.015618e+05  -4.190503e+06
   4.875076e+06  -2.776459e+06
   6.962149e+06   4.344122e+05
   4.158744e+06   2.990889e+06
  -1.024954e+06   2.943883e+06
  -3.564919e+06   7.123102e+05
  -1.498177e+06  -1.538275e+06
   2.234780e+06  -1.882347e+06
   3.620519e+06  -7.308791e+03
   1.889931e+06   2.610453e+06
  -5.964112e+05   3.636103e+06
  -1.581899e+06   1.878391e+06
  -8.980541e+05  -1.044099e+06
   1.896803e+05  -1.900098e+06
   4.351372e+05   3.808480e+05
  -5.207193e+05   2.907892e+06
  -1.834197e+06   2.147836e+06
  -1.931106e+06  -1.371337e+06
  -7.074394e+04  -3.388325e+06
   2.336456e+06  -1.237815e+06
   2.679451e+06   2.759863e+06
  -5.566736e+04   4.178185e+06
  -3.750663e+06   1.624199e+06
  -4.952538e+06  -2.201632e+06
  -2.302574e+06  -3.913755e+06
   1.998311e+06  -2.621083e+06
   4.226958e+06   6.078574e+04
   2.670286e+06   1.908977e+06
  -8.111839e+05   1.749643e+06
  -2.751128e+06   1.283652e+05
  -1.616041e+06  -1.204386e+06
   7.849757e+05  -9.285878e+05
   1.546700e+06   4.578887e+05
   1.010078e+04   1.218518e+06
  -1.647241e+06   4.176968e+05
  -1.142068e+06  -1.056170e+06
   1.201790e+06  -1.587736e+06
   2.853862e+06  -4.686265e+05
   1.873099e+06   1.652701e+06
  -1.142720e+06   3.347944e+06
  -3.809619e+06   3.224180e+06
  -4.257814e+06   8.894011e+05
  -2.614113e+06  -2.337526e+06
  -5.136671e+05  -4.189398e+06
   5.958476e+05  -3.606468e+06
   6.637755e+05  -1.863600e+06
   6.996747e+05  -9.386211e+05
   1.415882e+06  -1.058021e+06
   2.377101e+06  -7.148855e+05
   2.509502e+06   9.050980e+05
   1.284338e+06   2.511368e+06
  -6.801975e+05   2.239927e+06
  -2.045682e+06   1.848390e+04
  -1.740155e+06  -2.238999e+06
   1.698889e+05  -2.623751e+06
   2.327418e+06  -9.722724e+05
   3.040132e+06   1.275474e+06
   1.811371e+06   2.532078e+06
  -1.132693e+05   2.327240e+06
  -1.092407e+06   1.429601e+06
  -9.595558e+05   8.935620e+05
  -1.066417e+06   9.542304e+05
  -2.300866e+06   8.577761e+05
  -3.613628e+06  -1.993103e+05
  -3.090016e+06  -2.048179e+06
  -3.429332e+05  -3.531803e+06
   2.724976e+06  -3.468727e+06
   3.743627e+06  -1.681911e+06
   2.205046e+06   7.202835e+05
  -1.776841e+05   2.067545e+06
  -1.258461e+06   1.489546e+06
  -4.373811e+05  -1.770360e+05
   1.037079e+06  -1.090536e+06
   1.518600e+06  -3.549248e+05
   6.142238e+05   9.275709e+05
  -5.647464e+05   1.000308e+06
  -6.763067e+05  -2.712584e+05
   4.470353e+05  -1.104816e+06
   1.657865e+06  -3.440345e+03
   1.613550e+06   2.282647e+06
  -1.350328e+04   3.482146e+06
  -2.241247e+06   2.273598e+06
  -3.501070e+06  -4.080562e+05
  -2.830807e+06  -2.463187e+06
  -7.206256e+05  -2.632186e+06
   1.173063e+06  -1.380049e+06
   1.474898e+06  -1.537304e+05
   4.371763e+05   2.333077e+04
  -3.568814e+05  -6.352355e+05
   1.950274e+05  -1.074120e+06
   1.424039e+06  -5.720389e+05
   1.715067e+06   4.880073e+05
   5.064540e+05   1.066415e+06
  -9.473201e+05   6.180363e+05
  -9.732445e+05  -3.389276e+05
   6.006340e+05  -7.809186e+05
   2.178869e+06  -1.639301e+05
   2.036628e+06   1.115913e+06
   8.762999e+04   2.047402e+06
  -2.014788e+06   1.792712e+06
  -2.486344e+06   4.299888e+05
  -1.103631e+06  -9.601200e+05
   6.671459e+05  -1.192076e+06
   1.166076e+06  -1.908944e+05
   1.157390e+05   8.335451e+05
  -1.261845e+06   6.720396e+05
  -1.564872e+06  -5.193605e+05
  -5.483606e+05  -1.420962e+06
   7.711799e+05  -1.093080e+06
   1.179030e+06  -2.951402e+03
   4.176884e+05   6.052903e+05
  -5.904096e+05   1.191436e+05
  -6.446449e+05  -8.646786e+05
   4.969075e+05  -1.242338e+06
   1.762761e+06  -4.917306e+05
   1.799356e+06   8.764348e+05
   4.205299e+05   1.781336e+06
  -1.130926e+06   1.505146e+06
  -1.484452e+06   3.304565e+05
  -5.562337e+05  -7.056673e+05
   5.056879e+05  -7.869783e+05
   6.609704e+05  -8.382458e+04
  -1.872392e+03   5.115360e+05
  -5.775910e+05   3.986096e+05
  -4.158134e+05  -1.064857e+05
   2.447568e+05  -2.168179e+05
   5.807961e+05   3.580464e+05
   2.256334e+04   1.022204e+06
  -1.126426e+06   8.942390e+05
  -1.856670e+06  -2.477175e+05
  -1.366414e+06  -1.645338e+06
   9.605145e+04  -2.197329e+06
   1.401958e+06  -1.462235e+06
   1.650497e+06  -6.677265e+04
   1.013409e+06   8.946652e+05
   3.740412e+05   8.904461e+05
   2.624375e+05   3.736674e+05
   3.676652e+05   1.749157e+05
   8.495544e+04   5.410683e+05
  -6.742000e+05   8.755974e+05
  -1.314802e+06   4.608885e+05
  -1.115413e+06  -6.362029e+05
   6.268863e+04  -1.481530e+06
   1.506844e+06  -1.151800e+06
   2.092191e+06   3.005812e+05
   1.199466e+06   1.788119e+06
  -6.413889e+05   2.137295e+06
  -2.101230e+06   1.139654e+06
  -2.201650e+06  -3.173954e+05
  -1.145802e+06  -1.145884e+06
   1.655482e+04  -1.055044e+06
   4.705515e+05  -6.566421e+05
   3.004343e+05  -6.477513e+05
   1.664175e+05  -1.004346e+06
   4.984584e+05  -1.052397e+06
   1.055130e+06  -2.964028e+05
   1.194624e+06   9.255331e+05
   5.490375e+05   1.676309e+06
  -5.215266e+05   1.305269e+06
  -1.163419e+06   8.297543e+04
  -8.227079e+05  -1.033655e+06
   1.651300e+05  -1.247869e+06
   8.746247e+05  -5.600003e+05
   7.354445e+05   3.574661e+05
   9.478122e+04   8.357139e+05
  -2.450267e+05   7.485521e+05
   2.203696e+04   4.567523e+05
   3.609630e+05   3.262618e+05
   4.348758e+04   3.573567e+05
  -9.447921e+05   2.602853e+05
  -1.752912e+06  -1.705058e+05
  -1.481189e+06  -7.893092e+05
  -1.484446e+05  -1.186928e+06
   1.223520e+06  -1.039048e+06
   1.569027e+06  -4.119930e+05
   8.107780e+05   2.417572e+05
  -1.429606e+05   4.405504e+05
  -4.108816e+05   1.188312e+05
   5.815880e+03  -2.740480e+05
   4.380983e+05  -2.165190e+05
   4.221742e+05   2.900704e+05
   1.300084e+05   6.685972e+05
  -1.141505e+04   4.304094e+05
   1.341094e+05  -1.738520e+05
   3.337386e+05  -3.747746e+05
   2.783867e+05   1.832666e+05
  -1.497307e+05   9.264626e+05
  -7.558020e+05   9.621959e+05
  -1.064650e+06   1.287453e+05
  -6.516481e+05  -7.869081e+05
   3.267591e+05  -9.184707e+05
   1.026273e+06  -2.315548e+05
   6.565765e+05   5.239243e+05
  -5.722302e+05   6.312088e+05
  -1.479870e+06   4.176121e+04
  -1.095709e+06  -7.051491e+05
   2.785813e+05  -1.007507e+06
   1.360979e+06  -6.569276e+05
   1.224762e+06   3.640398e+04
   2.022895e+05   4.862565e+05
  -5.592850e+05   3.246117e+05
  -3.176189e+05  -2.107579e+05
   5.608472e+05  -4.302688e+05
   1.050958e+06   1.196953e+05
   5.344166e+05   1.080615e+06
  -5.980190e+05   1.501334e+06
  -1.364024e+06   7.640591e+05
  -1.149594e+06  -6.864097e+05
  -2.245320e+05  -1.638605e+06
   6.304934e+05  -1.258077e+06
   8.675731e+05   5.556606e+04
   5.086772e+05   1.056842e+06
  -6.971913e+04   9.441563e+05
  -4.783680e+05   1.380739e+05
  -5.062068e+05  -3.451274e+05
  -2.310196e+05  -1.468325e+05
  -1.132672e+04   1.135564e+05
  -1.521806e+05  -2.005622e+05
  -4.527266e+05  -8.341331e+05
  -3.039821e+05  -9.922542e+05
   5.264140e+05  -4.030795e+05
   1.369165e+06   3.759720e+05
   1.278598e+06   7.189450e+05
   2.026277e+05   6.086725e+05
  -8.372062e+05   3.966238e+05
  -9.165883e+05   2.262663e+05
  -2.650964e+05   1.201117e+04
   1.546800e+05  -1.999272e+05
  -6.329769e+04  -2.353528e+05
  -3.374034e+05  -1.327270e+05
  -1.201580e+04  -1.237699e+05
   6.935808e+05  -1.921321e+05
   9.334865e+05   1.082322e+04
   2.700184e+05   5.936512e+05
  -8.182959e+05   1.025802e+06
  -1.449549e+06   6.591853e+05
  -1.166797e+06  -4.036885e+05
  -2.460189e+05  -1.278330e+06
   6.321125e+05  -1.231027e+06
   9.303222e+05  -4.485634e+05
   6.094129e+05   2.460265e+05
   8.958365e+04   3.174085e+05
  -1.402701e+05   4.391391e+03
   4.505592e+04  -8.080470e+04
   3.244240e+05   2.980808e+05
   2.802287e+05   7.243907e+05
  -1.633344e+05   5.972840e+05
  -6.335786e+05  -1.545961e+05
  -6.339327e+05  -8.991697e+05
  -3.072601e+04  -9.150651e+05
   7.239487e+05  -1.548774e+05
   9.193299e+05   7.039389e+05
   2.825412e+05   9.684078e+05
  -6.397939e+05   5.631468e+05
  -9.673059e+05  -6.543781e+04
  -4.463411e+05  -4.801200e+05
   2.349602e+05  -5.404506e+05
   2.629775e+05  -3.243842e+05
  -2.993263e+05  -3.507859e+04
  -6.049619e+05   3.692145e+04
  -1.129988e+05  -2.586679e+05
   7.296073e+05  -6.419213e+05
   1.059742e+06  -5.762764e+05
   6.168570e+05   7.955674e+04
  -7.319831e+04   7.553711e+05
  -4.104866e+05   7.553718e+05
  -3.018789e+05   1.025512e+05
  -1.737179e+04  -4.612072e+05
   2.192442e+05  -3.558957e+05
   3.228055e+05   1.931980e+05
   2.307765e+05   5.174166e+05
  -5.465161e+04   3.233303e+05
  -3.495570e+05  -6.177545e+04
  -4.125761e+05  -1.942613e+05
  -2.214681e+05  -3.892113e+04
   1.455642e+03   7.982983e+04
   7.815823e+04  -7.378175e+04
   7.815706e+04  -3.593112e+05
   1.655497e+05  -4.174309e+05
   3.219431e+05  -7.753411e+04
   3.275360e+05   4.106825e+05
   3.320306e+04   5.874597e+05
  -3.952082e+05   2.569884e+05
  -5.575542e+05  -2.822382e+05
  -2.045841e+05  -5.382370e+05
   4.292310e+05  -3.304905e+05
   7.556973e+05   7.950695e+04
   4.191530e+05   3.317995e+05
  -2.550511e+05   3.156164e+05
  -5.510244e+05   1.563497e+05
  -1.716297e+05   1.245791e+04
   3.835992e+05  -1.114686e+04
   3.954969e+05   1.263804e+05
  -2.084031e+05   3.092577e+05
  -7.649114e+05   2.533479e+05
