
 $NMID
 id='ANONYMOUS ', fmtdat='(2E16.6)'
 volume=1.0
 tramp=1.0
 $END
   2.111647e+07  -4.108072e+05
   1.390197e+07   1.121808e+07
  -9.703950e+05   1.401843e+07
  -9.784919e+06   7.596493e+06
  -7.246864e+06  -6.986763e+05
   2.663550e+05  -3.799034e+06
   4.175880e+06  -8.703071e+05
   2.333172e+06   3.633710e+06
  -1.671565e+06   4.910390e+06
  -3.912633e+06   1.818377e+06
  -3.094360e+06  -2.560240e+06
  -3.645116e+05  -3.906954e+06
   1.787555e+06  -9.683930e+05
   1.300251e+06   2.974278e+06
  -1.378712e+06   3.539095e+06
  -3.352265e+06   2.271247e+04
  -2.264005e+06  -4.040816e+06
   1.125711e+06  -4.953442e+06
   3.907608e+06  -2.438688e+06
   4.081123e+06   9.485245e+05
   2.124579e+06   2.812437e+06
   5.853526e+04   2.709907e+06
  -4.501861e+05   1.791657e+06
   5.218379e+05   1.463654e+06
   1.140372e+06   2.104841e+06
  -3.452748e+05   2.660509e+06
  -3.272087e+06   1.781878e+06
  -4.741958e+06  -4.096164e+05
  -2.891619e+06  -2.175026e+06
   6.042862e+05  -2.075024e+06
   2.313086e+06  -5.304431e+05
   9.931122e+05   8.590818e+05
  -1.336555e+06   9.930830e+05
  -2.163797e+06  -1.007509e+05
  -1.123646e+06  -1.610347e+06
   3.803909e+05  -2.320574e+06
   1.086808e+06  -1.363148e+06
   7.827300e+05   5.709893e+05
   3.969856e+04   1.382560e+06
  -2.714282e+05   3.386276e+03
   3.560629e+05  -1.782069e+06
   1.327213e+06  -1.331086e+06
   1.266631e+06   1.155382e+06
  -3.312718e+05   2.521397e+06
  -2.070007e+06   7.415975e+05
  -1.944790e+06  -2.310992e+06
   3.455648e+05  -3.194139e+06
   2.871398e+06  -1.036652e+06
   3.347626e+06   1.830142e+06
   1.301602e+06   2.844874e+06
  -1.551727e+06   1.633411e+06
  -2.846469e+06  -3.570167e+05
  -1.628568e+06  -1.513185e+06
   7.696857e+05  -1.163991e+06
   1.987120e+06   1.225381e+05
   1.045381e+06   1.006687e+06
  -6.426171e+05   6.288697e+05
  -1.004079e+06  -4.184257e+05
   1.982548e+05  -7.689300e+05
   1.198558e+06   3.118002e+04
   5.262794e+05   1.018402e+06
  -1.214337e+06   1.055615e+06
  -2.148345e+06   1.680890e+04
  -1.217815e+06  -1.388034e+06
   9.107425e+05  -2.324297e+06
   2.679566e+06  -2.114492e+06
   2.969439e+06  -5.261101e+05
   1.816252e+06   1.666227e+06
   2.390747e+05   2.923716e+06
  -6.522791e+05   2.436568e+06
  -6.319242e+05   1.108668e+06
  -4.393919e+05   4.301348e+05
  -7.850662e+05   5.948891e+05
  -1.450362e+06   4.790560e+05
  -1.595049e+06  -5.439725e+05
  -8.032587e+05  -1.587701e+06
   4.470194e+05  -1.393017e+06
   1.258427e+06   5.375939e+04
   1.021563e+06   1.489862e+06
  -1.888213e+05   1.711830e+06
  -1.573276e+06   6.158814e+05
  -2.060985e+06  -9.087847e+05
  -1.237602e+06  -1.814204e+06
   1.296637e+05  -1.700564e+06
   8.715594e+05  -1.034417e+06
   7.891288e+05  -5.798486e+05
   8.108472e+05  -5.506794e+05
   1.587528e+06  -4.278101e+05
   2.402160e+06   3.212113e+05
   1.957948e+06   1.510762e+06
   6.670053e+04   2.351591e+06
  -1.932963e+06   2.176703e+06
  -2.512234e+06   9.891145e+05
  -1.435716e+06  -5.096030e+05
   1.412408e+05  -1.334550e+06
   8.441979e+05  -9.554256e+05
   2.879578e+05   1.146409e+05
  -7.125505e+05   6.869407e+05
  -1.035288e+06   1.785418e+05
  -3.974014e+05  -6.490456e+05
   3.976014e+05  -6.340004e+05
   3.997049e+05   2.186799e+05
  -4.070368e+05   6.566598e+05
  -1.107573e+06  -2.054670e+05
  -8.540686e+05  -1.679830e+06
   3.267745e+05  -2.250157e+06
   1.647339e+06  -1.252330e+06
   2.223502e+06   5.208634e+05
   1.660543e+06   1.734911e+06
   3.284209e+05   1.719616e+06
  -8.137511e+05   8.501578e+05
  -9.639597e+05   4.994188e+04
  -2.863131e+05  -3.448227e+04
   2.068828e+05   4.360759e+05
  -1.886910e+05   7.177029e+05
  -9.943235e+05   3.200934e+05
  -1.127053e+06  -4.235828e+05
  -2.748622e+05  -7.498679e+05
   6.613450e+05  -3.597423e+05
   6.063923e+05   2.707000e+05
  -4.475150e+05   4.531337e+05
  -1.413130e+06  -3.456018e+04
  -1.234614e+06  -8.281841e+05
   6.369961e+04  -1.314801e+06
   1.400673e+06  -1.060862e+06
   1.649955e+06  -1.640201e+05
   6.887073e+05   6.951366e+05
  -5.012071e+05   7.800108e+05
  -8.036471e+05   8.184757e+04
  -5.542376e+04  -5.689608e+05
   8.666873e+05  -3.943088e+05
   1.007584e+06   4.240676e+05
   2.748984e+05   9.658560e+05
  -5.791045e+05   6.637197e+05
  -7.730335e+05  -8.091802e+04
  -2.277142e+05  -4.305050e+05
   4.099201e+05  -5.112369e+04
   3.958478e+05   6.004450e+05
  -3.724721e+05   8.017582e+05
  -1.178831e+06   2.579009e+05
  -1.152122e+06  -6.495641e+05
  -2.005581e+05  -1.195946e+06
   8.203412e+05  -9.433236e+05
   9.974691e+05  -1.423716e+05
   3.255439e+05   4.969424e+05
  -3.746657e+05   4.910719e+05
  -4.263499e+05   2.639565e+04
   3.603108e+04  -3.138700e+05
   3.791259e+05  -2.112990e+05
   2.287484e+05   8.346721e+04
  -1.926338e+05   9.859964e+04
  -3.556800e+05  -2.893252e+05
   4.937082e+04  -6.791557e+05
   7.874364e+05  -5.341000e+05
   1.211178e+06   2.472762e+05
   8.292207e+05   1.143091e+06
  -1.588335e+05   1.435159e+06
  -9.839945e+05   8.810308e+05
  -1.069910e+06  -4.469439e+04
  -5.962070e+05  -6.175562e+05
  -1.935058e+05  -5.594668e+05
  -1.757716e+05  -2.282894e+05
  -2.613975e+05  -1.378774e+05
  -3.759915e+04  -3.754476e+05
   4.895762e+05  -5.408003e+05
   8.783403e+05  -2.305061e+05
   6.836409e+05   4.621612e+05
  -1.203301e+05   9.479481e+05
  -1.037902e+06   6.743441e+05
  -1.352127e+06  -2.935105e+05
  -6.976634e+05  -1.232670e+06
   5.348295e+05  -1.380312e+06
   1.447619e+06  -6.439517e+05
   1.424574e+06   3.283566e+05
   6.715063e+05   8.071123e+05
  -7.636034e+04   6.672811e+05
  -3.209433e+05   3.844073e+05
  -1.906496e+05   4.124735e+05
  -1.340790e+05   6.725263e+05
  -3.777692e+05   6.865649e+05
  -7.166996e+05   1.554367e+05
  -7.500188e+05  -6.569253e+05
  -2.912666e+05  -1.123408e+06
   3.957953e+05  -8.349035e+05
   7.663563e+05   2.645062e+02
   4.908813e+05   7.254802e+05
  -1.789622e+05   8.160541e+05
  -6.200941e+05   3.122401e+05
  -4.729938e+05  -2.966730e+05
  -6.843738e+03  -5.721328e+05
   2.201390e+05  -4.802723e+05
   1.733390e+04  -2.914599e+05
  -2.269897e+05  -2.232082e+05
  -1.607762e+04  -2.333362e+05
   6.409660e+05  -1.275094e+05
   1.157105e+06   1.915011e+05
   9.401224e+05   5.913042e+05
   3.167210e+04   8.004080e+05
  -8.671616e+05   6.375911e+05
  -1.056961e+06   1.915752e+05
  -5.185493e+05  -2.164600e+05
   1.205017e+05  -2.942514e+05
   2.816407e+05  -5.193916e+04
  -7.794947e+03   1.916815e+05
  -2.894627e+05   1.259921e+05
  -2.670303e+05  -2.079367e+05
  -7.221491e+04  -4.379105e+05
   1.087633e+04  -2.793536e+05
  -9.459182e+04   9.676369e+04
  -2.236706e+05   2.167403e+05
  -1.717777e+05  -1.335346e+05
   1.299896e+05  -5.946740e+05
   5.369655e+05  -6.027405e+05
   7.219208e+05  -5.266394e+04
   4.134056e+05   5.412352e+05
  -2.516282e+05   6.042519e+05
  -6.926039e+05   1.252977e+05
  -4.104915e+05  -3.662461e+05
   4.072141e+05  -3.867233e+05
   9.664114e+05   4.627441e+04
   6.670492e+05   5.163088e+05
  -2.436027e+05   6.368136e+05
  -9.189038e+05   3.487321e+05
  -7.881456e+05  -9.013945e+04
  -1.028857e+05  -3.246305e+05
   3.837126e+05  -1.814206e+05
   2.055073e+05   1.563789e+05
  -3.773888e+05   2.658425e+05
  -6.846155e+05  -1.101888e+05
  -3.193612e+05  -7.231452e+05
   4.368616e+05  -9.636880e+05
   9.165299e+05  -4.538665e+05
   7.246241e+05   4.916473e+05
   8.015836e+04   1.078578e+06
  -4.663891e+05   7.885002e+05
  -5.637153e+05  -8.343553e+04
  -2.779590e+05  -7.158554e+05
   9.978110e+04  -6.089553e+05
   3.236456e+05  -6.506091e+04
   3.066566e+05   2.458723e+05
   1.337160e+05   1.034967e+05
   1.697552e+04  -7.088010e+04
   1.081000e+05   1.435433e+05
   2.677306e+05   5.677824e+05
   1.434396e+05   6.614221e+05
  -3.773095e+05   2.409623e+05
  -8.780118e+05  -3.034925e+05
  -7.937987e+05  -5.256894e+05
  -1.057867e+05  -4.096337e+05
   5.532026e+05  -2.245184e+05
   6.056047e+05  -1.050023e+05
   1.841208e+05   8.817843e+03
  -1.052017e+05   1.251360e+05
   1.756711e+04   1.514963e+05
   2.005039e+05   9.462296e+04
   8.413047e+03   7.988485e+04
  -4.460826e+05   1.012027e+05
  -6.121950e+05  -4.026427e+04
  -1.738924e+05  -3.995221e+05
   5.628877e+05  -6.457457e+05
   9.842106e+05  -3.849591e+05
   7.643796e+05   3.010881e+05
   1.151133e+05   8.438917e+05
  -4.663816e+05   7.860724e+05
  -6.262262e+05   2.663150e+05
  -3.863589e+05  -1.777047e+05
  -5.227781e+04  -2.108966e+05
   7.883275e+04  -4.089797e+03
  -3.840873e+04   4.221535e+04
  -1.946538e+05  -2.132005e+05
  -1.491780e+05  -4.865351e+05
   1.274901e+05  -3.875884e+05
   4.051284e+05   1.172499e+05
   3.868703e+05   6.039362e+05
  -7.130514e+02   6.003023e+05
  -4.705127e+05   8.490304e+04
  -5.772905e+05  -4.846168e+05
  -1.558698e+05  -6.450254e+05
   4.377119e+05  -3.533425e+05
   6.371373e+05   7.605861e+04
   2.824237e+05   3.400546e+05
  -1.743096e+05   3.570974e+05
  -1.955288e+05   2.066556e+05
   1.819732e+05   3.179024e+04
   3.941935e+05  -1.982030e+03
   6.831309e+04   1.756182e+05
  -5.034510e+05   3.901106e+05
  -7.284592e+05   3.280517e+05
  -4.142548e+05  -8.433304e+04
   7.594295e+04  -4.966594e+05
   3.084834e+05  -4.850448e+05
   2.126016e+05  -6.567417e+04
  -9.605399e+02   2.969211e+05
  -1.543210e+05   2.307729e+05
  -2.017285e+05  -1.284872e+05
  -1.326473e+05  -3.472690e+05
   4.413031e+04  -2.191742e+05
   2.264347e+05   4.925679e+04
   2.675528e+05   1.504278e+05
   1.445677e+05   4.093000e+04
  -4.530426e+03  -6.013638e+04
  -5.665167e+04   2.766013e+04
  -5.099912e+04   2.232904e+05
  -1.015776e+05   2.760656e+05
  -2.043152e+05   5.723089e+04
  -2.113491e+05  -2.667508e+05
  -1.814615e+04  -3.816955e+05
   2.624731e+05  -1.577096e+05
   3.606166e+05   1.980669e+05
   1.182914e+05   3.552145e+05
  -2.969495e+05   2.020150e+05
  -4.978013e+05  -7.533043e+04
  -2.650476e+05  -2.327810e+05
   1.781177e+05  -2.052081e+05
   3.686087e+05  -9.171608e+04
   1.212855e+05  -4.435444e+03
  -2.384902e+05  -2.203302e+02
  -2.478221e+05  -8.639298e+04
   1.395609e+05  -1.859064e+05
   4.945378e+05  -1.347683e+05
