
 $NMID
 id='ANONYMOUS ', fmtdat='(2E16.6)'
 volume=1.0
 tramp=1.0
 $END
   5.505201e+07  -2.680946e+06
   3.462873e+07   3.310962e+07
  -5.934969e+06   3.788002e+07
  -2.661693e+07   1.505316e+07
  -1.629663e+07  -6.767196e+06
   3.117747e+06  -9.283689e+06
   9.643260e+06   1.185742e+06
   2.785786e+06   9.548889e+06
  -5.948778e+06   9.042160e+06
  -9.341418e+06   2.053852e+06
  -6.961588e+06  -5.679950e+06
  -1.136327e+06  -8.143979e+06
   3.661305e+06  -2.869139e+06
   2.644622e+06   4.910651e+06
  -3.473566e+06   6.233736e+06
  -7.679275e+06  -1.124243e+06
  -4.631918e+06  -9.734892e+06
   3.251451e+06  -1.156490e+07
   9.552718e+06  -6.188517e+06
   1.062876e+07   1.401908e+06
   6.962894e+06   6.936326e+06
   1.237784e+06   8.565522e+06
  -2.698432e+06   6.285671e+06
  -2.123561e+06   2.705011e+06
   8.163911e+05   1.700155e+06
   4.927257e+05   3.659833e+06
  -4.658181e+06   4.395940e+06
  -8.984212e+06   1.056321e+06
  -6.945776e+06  -3.496389e+06
  -7.136761e+05  -4.804300e+06
   3.158821e+06  -2.750401e+06
   2.307864e+06  -4.154850e+05
  -2.497199e+05   6.267616e+05
  -1.747848e+06   5.541809e+05
  -2.009097e+06  -9.691975e+05
  -9.981328e+05  -3.463123e+06
   1.421674e+06  -3.839124e+06
   3.246095e+06  -2.795256e+05
   2.049505e+06   3.395583e+06
  -5.913942e+05   2.153786e+06
  -5.286271e+05  -2.055512e+06
   2.203168e+06  -2.183754e+06
   2.444805e+06   3.046383e+06
  -2.268792e+06   6.102995e+06
  -6.943799e+06   1.283417e+06
  -5.371564e+06  -6.599119e+06
   1.553141e+06  -8.464067e+06
   7.115836e+06  -2.686456e+06
   6.760944e+06   4.021014e+06
   1.851922e+06   5.678211e+06
  -3.247062e+06   2.602770e+06
  -4.962128e+06  -1.388544e+06
  -2.294202e+06  -3.299044e+06
   2.331962e+06  -2.175859e+06
   4.402743e+06   7.766995e+05
   1.943398e+06   2.599370e+06
  -1.623099e+06   1.389832e+06
  -1.638016e+06  -9.440084e+05
   1.384701e+06  -8.640440e+05
   2.491679e+06   1.812787e+06
  -6.346371e+05   3.558190e+06
  -4.621231e+06   2.041043e+06
  -5.250814e+06  -1.236874e+06
  -2.365780e+06  -3.834991e+06
   1.457908e+06  -5.098267e+06
   4.426644e+06  -4.806205e+06
   5.745689e+06  -1.992909e+06
   4.555608e+06   2.711643e+06
   1.207201e+06   5.780832e+06
  -1.662040e+06   4.558747e+06
  -1.741281e+06   1.082053e+06
  -1.108994e+05  -4.433390e+05
   3.039519e+05   8.022542e+05
  -1.192111e+06   1.806505e+06
  -2.509234e+06   5.223544e+05
  -1.984855e+06  -1.523271e+06
  -2.170496e+05  -1.872980e+06
   1.290388e+06  -2.528193e+05
   1.557724e+06   1.770644e+06
   1.492427e+05   2.669144e+06
  -2.459839e+06   1.709945e+06
  -4.273940e+06  -8.328637e+05
  -3.296683e+06  -3.393852e+06
  -2.048339e+05  -4.094848e+06
   2.086602e+06  -2.772581e+06
   2.161320e+06  -1.186367e+06
   1.756871e+06  -6.580555e+05
   2.740561e+06  -4.908172e+05
   4.066407e+06   5.991761e+05
   3.311992e+06   2.465117e+06
   2.444607e+05   3.803851e+06
  -2.805043e+06   3.698332e+06
  -3.723232e+06   2.138184e+06
  -2.462105e+06  -2.139618e+05
  -4.118329e+05  -2.004513e+06
   8.730361e+05  -1.844105e+06
   5.234114e+05  -1.757852e+04
  -9.310064e+05   1.253254e+06
  -1.764784e+06   4.467565e+05
  -9.348543e+05  -1.086632e+06
   4.131756e+05  -1.035799e+06
   3.575793e+05   3.672418e+05
  -1.062626e+06   6.133316e+05
  -1.798274e+06  -1.317965e+06
  -5.696032e+05  -3.361932e+06
   1.603379e+06  -3.161766e+06
   2.989449e+06  -9.257235e+05
   3.018905e+06   1.383070e+06
   2.038172e+06   2.475391e+06
   4.422211e+05   2.330491e+06
  -1.072074e+06   1.372840e+06
  -1.423480e+06   2.761896e+05
  -4.552807e+05  -2.656979e+04
   3.519663e+05   6.858780e+05
  -3.577067e+05   1.279412e+06
  -1.787599e+06   6.053854e+05
  -1.935344e+06  -7.945278e+05
  -3.835729e+05  -1.334271e+06
   1.080668e+06  -5.518745e+05
   8.009254e+05   4.072867e+05
  -8.071395e+05   4.526217e+05
  -1.988096e+06  -3.146477e+05
  -1.558963e+06  -1.221749e+06
   2.311130e+05  -1.774335e+06
   2.081801e+06  -1.543543e+06
   2.544385e+06  -3.174469e+05
   1.170842e+06   1.152925e+06
  -8.128292e+05   1.453762e+06
  -1.475216e+06   2.397509e+05
  -2.455848e+05  -1.010654e+06
   1.386896e+06  -7.369524e+05
   1.611751e+06   6.933851e+05
   3.219262e+05   1.530200e+06
  -1.022055e+06   9.009489e+05
  -1.169059e+06  -3.039330e+05
  -2.161127e+05  -7.395939e+05
   7.610932e+05  -7.114610e+04
   7.254091e+05   9.572177e+05
  -4.768395e+05   1.340717e+06
  -1.833480e+06   5.778785e+05
  -1.921272e+06  -8.996342e+05
  -4.197161e+05  -1.913976e+06
   1.298300e+06  -1.566072e+06
   1.600015e+06  -2.300738e+05
   4.741517e+05   8.013547e+05
  -5.976006e+05   7.527126e+05
  -5.594085e+05   8.665411e+04
   1.275708e+05  -2.987357e+05
   4.228495e+05  -1.566746e+05
   4.422705e+04   5.886569e+04
  -4.632455e+05  -1.105470e+05
  -4.862944e+05  -6.582820e+05
   1.896518e+05  -1.117888e+06
   1.266039e+06  -8.604536e+05
   1.937440e+06   3.279144e+05
   1.414622e+06   1.754288e+06
  -1.286608e+05   2.231956e+06
  -1.449117e+06   1.317811e+06
  -1.534576e+06  -9.814319e+04
  -7.622785e+05  -7.810032e+05
  -2.820842e+05  -5.209206e+05
  -4.764399e+05  -1.350304e+05
  -6.374792e+05  -2.786995e+05
  -1.190453e+05  -7.316876e+05
   7.989682e+05  -8.510183e+05
   1.321944e+06  -3.143064e+05
   9.522735e+05   6.335690e+05
  -2.187634e+05   1.318016e+06
  -1.557790e+06   1.009647e+06
  -2.072549e+06  -3.913117e+05
  -1.085010e+06  -1.916293e+06
   8.983080e+05  -2.221600e+06
   2.347869e+06  -1.004490e+06
   2.176450e+06   5.830396e+05
   8.651927e+05   1.219132e+06
  -2.015884e+05   8.362465e+05
  -3.185171e+05   4.317823e+05
   1.276346e+04   6.910073e+05
  -1.856498e+04   1.240720e+06
  -5.845656e+05   1.239194e+06
  -1.201226e+06   3.462984e+05
  -1.275242e+06  -9.494246e+05
  -5.763189e+05  -1.726296e+06
   5.234799e+05  -1.343135e+06
   1.182796e+06  -2.810942e+04
   7.799723e+05   1.179489e+06
  -3.476717e+05   1.307640e+06
  -1.101389e+06   3.793190e+05
  -7.831600e+05  -6.730208e+05
   1.138072e+05  -1.033330e+06
   5.207906e+05  -7.393983e+05
   8.925250e+04  -3.699655e+05
  -4.172526e+05  -2.834981e+05
  -7.247995e+04  -3.458939e+05
   1.070984e+06  -2.254640e+05
   1.938484e+06   2.489941e+05
   1.526494e+06   9.233551e+05
  -1.727094e+04   1.353016e+06
  -1.464680e+06   1.117537e+06
  -1.697479e+06   2.918996e+05
  -7.796470e+05  -4.734513e+05
   2.361773e+05  -5.549848e+05
   4.848520e+05  -3.182723e+04
   5.885703e+04   4.101107e+05
  -3.849036e+05   2.578816e+05
  -4.601257e+05  -2.977436e+05
  -2.878842e+05  -6.435273e+05
  -1.341021e+05  -4.313106e+05
  -1.235970e+05   6.884259e+04
  -2.278144e+05   2.465761e+05
  -2.556519e+05  -2.100795e+05
   8.397104e+04  -8.999279e+05
   7.947487e+05  -1.018573e+06
   1.284942e+06  -2.348370e+05
   8.547354e+05   8.070265e+05
  -3.395708e+05   1.095498e+06
  -1.165631e+06   3.895671e+05
  -6.991742e+05  -4.915470e+05
   6.361322e+05  -6.146724e+05
   1.454154e+06   5.978618e+04
   9.088027e+05   7.801048e+05
  -4.538358e+05   9.025003e+05
  -1.363542e+06   4.365112e+05
  -1.113277e+06  -1.685460e+05
  -1.197963e+05  -4.635793e+05
   5.967865e+05  -2.517495e+05
   3.773307e+05   2.682593e+05
  -5.009565e+05   5.171825e+05
  -1.092775e+06  -3.885132e+03
  -6.938268e+05  -1.044523e+06
   4.375879e+05  -1.599579e+06
   1.310459e+06  -8.945111e+05
   1.184267e+06   6.358005e+05
   2.559392e+05   1.631270e+06
  -6.370922e+05   1.195380e+06
  -8.529035e+05  -1.565166e+05
  -4.113652e+05  -1.088141e+06
   2.058450e+05  -8.831421e+05
   5.264155e+05  -8.306261e+04
   4.149323e+05   3.279736e+05
   1.249673e+05   1.148650e+05
   5.369078e+04  -8.161598e+04
   3.122651e+05   2.766841e+05
   5.199629e+05   8.771094e+05
   1.770124e+05   9.822925e+05
  -6.849755e+05   3.866801e+05
  -1.366291e+06  -3.740339e+05
  -1.172205e+06  -7.273068e+05
  -1.918660e+05  -6.434545e+05
   7.377607e+05  -4.171566e+05
   8.878268e+05  -1.904986e+05
   3.622080e+05   5.124693e+04
  -1.125584e+05   2.150332e+05
  -6.465112e+04   1.753084e+05
   2.046294e+05   5.905630e+04
   6.760611e+04   1.162739e+05
  -5.536603e+05   2.553944e+05
  -9.680065e+05   4.655916e+04
  -4.894688e+05  -6.195220e+05
   6.821687e+05  -1.141591e+06
   1.557729e+06  -8.038914e+05
   1.368200e+06   3.061871e+05
   3.310997e+05   1.273781e+06
  -6.560258e+05   1.316052e+06
  -9.408547e+05   5.714725e+05
  -6.054007e+05  -1.614368e+05
  -1.579266e+05  -3.230255e+05
   2.201296e+04  -8.604028e+04
  -9.095629e+04  -8.802870e+03
  -2.741932e+05  -3.406786e+05
  -2.461408e+05  -7.356788e+05
   1.244642e+05  -6.424030e+05
   6.215596e+05   5.102907e+04
   7.486376e+05   8.099622e+05
   2.045486e+05   9.447442e+05
  -6.510431e+05   3.040558e+05
  -9.983482e+05  -5.728994e+05
  -4.025798e+05  -9.864427e+05
   6.138673e+05  -6.904502e+05
   1.054566e+06  -1.236002e+02
   5.472114e+05   5.660378e+05
  -2.307926e+05   6.788332e+05
  -3.668683e+05   3.702262e+05
   1.871090e+05  -1.509292e+04
   5.853403e+05  -7.313696e+04
   1.646368e+05   2.830975e+05
  -7.285483e+05   6.594578e+05
  -1.171736e+06   5.310915e+05
  -7.541378e+05  -1.545331e+05
   4.140392e+04  -8.213763e+05
   5.009831e+05  -8.356874e+05
   4.218595e+05  -2.033665e+05
   9.315599e+04   4.198537e+05
  -1.888461e+05   4.344816e+05
  -3.258359e+05  -8.164266e+04
  -2.687355e+05  -5.172070e+05
   1.380014e+04  -4.291118e+05
   3.625196e+05   4.940404e+03
   4.678623e+05   2.592958e+05
   2.309319e+05   9.987484e+04
  -6.086431e+04  -1.639119e+05
  -8.497371e+04  -9.613972e+04
   7.854079e+04   2.959021e+05
   6.006436e+04   5.433508e+05
  -2.521575e+05   2.840368e+05
  -4.874806e+05  -2.759075e+05
  -2.445788e+05  -5.760906e+05
   3.385738e+05  -3.280769e+05
   6.498352e+05   1.948139e+05
   2.821355e+05   4.977544e+05
  -4.594647e+05   3.702053e+05
  -8.384403e+05  -3.622517e+03
  -4.727361e+05  -3.207113e+05
   2.467461e+05  -4.133314e+05
   5.838123e+05  -2.806041e+05
   2.596604e+05  -3.936475e+04
  -2.695874e+05   1.086165e+05
  -3.579061e+05   5.003984e+03
   1.068099e+05  -2.477933e+05
   6.125087e+05  -2.858713e+05
