
 $NMID
 id='ANONYMOUS ', fmtdat='(2E16.6)'
 volume=1.0
 tramp=1.0
 $END
   2.723904e+07  -5.639387e+05
   1.852532e+07   1.270790e+07
   1.900436e+05   1.745513e+07
  -1.177234e+07   1.155377e+07
  -9.953694e+06   1.069330e+06
  -6.117207e+05  -4.965530e+06
   5.561183e+06  -2.435185e+06
   4.177419e+06   4.403417e+06
  -1.290461e+06   7.504844e+06
  -5.119656e+06   3.376341e+06
  -4.470110e+06  -3.465278e+06
  -6.358113e+05  -5.689946e+06
   2.603703e+06  -1.242858e+06
   2.138876e+06   4.670367e+06
  -1.563156e+06   5.571855e+06
  -4.601446e+06   5.624542e+05
  -3.484425e+06  -5.341392e+06
   1.143177e+06  -6.846172e+06
   5.173068e+06  -3.346203e+06
   5.350046e+06   1.456658e+06
   2.373297e+06   3.767230e+06
  -2.776068e+05   3.053345e+06
  -1.073487e+05   1.717963e+06
   1.913135e+06   2.068717e+06
   2.420251e+06   3.820359e+06
  -6.692541e+05   4.577589e+06
  -5.419104e+06   2.652632e+06
  -7.320723e+06  -9.240036e+05
  -4.081066e+06  -3.390987e+06
   1.431326e+06  -2.986756e+06
   3.956748e+06  -4.381235e+05
   1.519002e+06   1.930074e+06
  -2.654232e+06   2.116726e+06
  -4.106728e+06  -1.425014e+05
  -1.964354e+06  -3.055731e+06
   9.374177e+05  -3.952492e+06
   1.836138e+06  -1.772128e+06
   7.213339e+05   1.345009e+06
  -5.346181e+05   1.939918e+06
  -4.943607e+05  -6.869223e+05
   7.583027e+05  -3.225904e+06
   2.022471e+06  -2.236013e+06
   1.943298e+06   1.393260e+06
   1.272109e+05   3.331524e+06
  -2.101029e+06   1.142616e+06
  -2.430442e+06  -2.746903e+06
   1.583821e+05  -4.037618e+06
   3.788598e+06  -1.430263e+06
   5.036232e+06   2.415445e+06
   2.343853e+06   4.119208e+06
  -2.126767e+06   2.727020e+06
  -4.453640e+06  -1.055208e+05
  -2.816805e+06  -2.010587e+06
   7.955259e+05  -1.781205e+06
   2.785523e+06  -9.142995e+04
   1.635052e+06   1.225693e+06
  -8.063591e+05   9.076109e+05
  -1.631556e+06  -5.045294e+05
  -1.144610e+05  -1.320445e+06
   1.658481e+06  -5.964384e+05
   1.318036e+06   8.899932e+05
  -1.019358e+06   1.547119e+06
  -2.816103e+06   5.187431e+05
  -1.860887e+06  -1.642828e+06
   1.364739e+06  -3.384110e+06
   4.202402e+06  -3.160831e+06
   4.499381e+06  -6.552127e+05
   2.527189e+06   2.623909e+06
   2.920120e+05   4.392202e+06
  -6.909539e+05   3.748300e+06
  -6.602587e+05   2.040982e+06
  -8.198885e+05   1.138609e+06
  -1.735415e+06   1.150935e+06
  -2.734058e+06   5.969680e+05
  -2.703563e+06  -1.214684e+06
  -1.241798e+06  -2.871918e+06
   9.001558e+05  -2.447158e+06
   2.288561e+06   6.374158e+04
   1.821775e+06   2.523403e+06
  -3.147078e+05   2.825974e+06
  -2.549403e+06   8.840141e+05
  -3.116057e+06  -1.561410e+06
  -1.689673e+06  -2.744348e+06
   2.803084e+05  -2.334084e+06
   1.160782e+06  -1.343356e+06
   9.534703e+05  -8.718005e+05
   1.109756e+06  -1.003971e+06
   2.461242e+06  -8.662544e+05
   3.835382e+06   3.201257e+05
   3.224295e+06   2.287788e+06
   2.413770e+05   3.792402e+06
  -3.066112e+06   3.613876e+06
  -4.112898e+06   1.627862e+06
  -2.336396e+06  -9.162905e+05
   3.273539e+05  -2.242521e+06
   1.459904e+06  -1.532140e+06
   4.607856e+05   2.286544e+05
  -1.173526e+06   1.123231e+06
  -1.628273e+06   3.115015e+05
  -5.920053e+05  -1.014271e+06
   6.624850e+05  -1.057712e+06
   7.494422e+05   3.009212e+05
  -4.502901e+05   1.211096e+06
  -1.744937e+06   7.233777e+04
  -1.736739e+06  -2.390446e+06
  -2.275443e+04  -3.753019e+06
   2.397514e+06  -2.488217e+06
   3.788453e+06   4.624317e+05
   3.040823e+06   2.744538e+06
   7.132148e+05   2.890512e+06
  -1.327174e+06   1.447388e+06
  -1.604546e+06   9.922879e+04
  -4.688278e+05  -4.164875e+04
   3.605208e+05   6.931857e+05
  -2.384923e+05   1.126793e+06
  -1.521161e+06   5.523871e+05
  -1.802589e+06  -5.641934e+05
  -5.131390e+05  -1.139251e+06
   1.029653e+06  -6.349767e+05
   1.052827e+06   3.910567e+05
  -6.488911e+05   8.481702e+05
  -2.364803e+06   1.475763e+05
  -2.200656e+06  -1.258772e+06
  -5.594117e+04  -2.232110e+06
   2.228055e+06  -1.881703e+06
   2.689528e+06  -3.806813e+05
   1.143462e+06   1.058884e+06
  -7.551250e+05   1.231145e+06
  -1.234665e+06   1.506277e+05
  -7.672373e+04  -8.882048e+05
   1.374814e+06  -6.682854e+05
   1.659813e+06   6.021353e+05
   5.588418e+05   1.537133e+06
  -8.430179e+05   1.164135e+06
  -1.266076e+06  -9.523130e+03
  -4.454812e+05  -6.503267e+05
   6.226213e+05  -1.074886e+05
   6.524369e+05   9.489820e+05
  -5.867307e+05   1.311508e+06
  -1.914273e+06   4.538156e+05
  -1.894883e+06  -1.013105e+06
  -3.839384e+05  -1.923583e+06
   1.260602e+06  -1.571206e+06
   1.599682e+06  -3.084952e+05
   5.799035e+05   7.704285e+05
  -5.646847e+05   8.313861e+05
  -7.263433e+05   6.776863e+04
   3.701951e+03  -5.702182e+05
   6.480866e+05  -4.360386e+05
   4.829905e+05   1.270382e+05
  -2.428338e+05   2.528157e+05
  -6.158310e+05  -3.756324e+05
  -5.198051e+03  -1.088967e+06
   1.233648e+06  -9.224360e+05
   1.983223e+06   3.305953e+05
   1.404661e+06   1.815924e+06
  -1.835408e+05   2.362174e+06
  -1.559052e+06   1.538168e+06
  -1.790879e+06   2.933476e+04
  -1.087503e+06  -1.009087e+06
  -3.875141e+05  -1.009996e+06
  -2.525837e+05  -4.418709e+05
  -3.602668e+05  -1.979764e+05
  -6.349596e+04  -5.682584e+05
   7.470336e+05  -9.187380e+05
   1.431502e+06  -4.622047e+05
   1.195627e+06   7.249239e+05
  -1.039889e+05   1.608681e+06
  -1.660234e+06   1.198839e+06
  -2.245210e+06  -3.932051e+05
  -1.235300e+06  -1.958062e+06
   7.477987e+05  -2.266842e+06
   2.281067e+06  -1.158575e+06
   2.359419e+06   3.974405e+05
   1.219697e+06   1.265273e+06
  -3.383711e+04   1.155411e+06
  -5.426238e+05   7.167334e+05
  -3.810774e+05   6.899228e+05
  -2.374126e+05   1.056350e+06
  -5.725265e+05   1.095558e+06
  -1.135449e+06   2.718027e+05
  -1.245045e+06  -1.042447e+06
  -5.253985e+05  -1.824146e+06
   6.121020e+05  -1.384372e+06
   1.254727e+06  -5.100020e+04
   8.496384e+05   1.129975e+06
  -2.077413e+05   1.329595e+06
  -9.373231e+05   5.844642e+05
  -7.679306e+05  -3.822087e+05
  -8.761515e+04  -8.802326e+05
   2.641732e+05  -7.929364e+05
  -1.987804e+04  -4.998144e+05
  -3.723068e+05  -3.711134e+05
  -3.074461e+04  -3.889163e+05
   1.015258e+06  -2.459286e+05
   1.863646e+06   2.459722e+05
   1.560323e+06   8.943482e+05
   1.286722e+05   1.265148e+06
  -1.335912e+06   1.061387e+06
  -1.692061e+06   3.948294e+05
  -8.634055e+05  -2.669388e+05
   1.638444e+05  -4.561007e+05
   4.381892e+05  -1.199017e+05
  -2.621877e+04   2.830583e+05
  -4.870678e+05   2.141045e+05
  -4.404769e+05  -3.288345e+05
  -9.963949e+04  -7.321647e+05
   4.326370e+04  -4.669957e+05
  -1.499330e+05   1.933537e+05
  -3.819137e+05   4.070148e+05
  -2.949848e+05  -2.049546e+05
   2.024854e+05  -9.977868e+05
   8.486586e+05  -1.002727e+06
   1.133102e+06  -8.308973e+04
   6.521837e+05   8.757397e+05
  -3.896168e+05   9.600894e+05
  -1.105032e+06   1.920144e+05
  -6.849149e+05  -5.940273e+05
   6.340731e+05  -6.595938e+05
   1.598125e+06  -3.452718e+02
   1.172649e+06   7.899516e+05
  -3.181962e+05   1.082985e+06
  -1.487435e+06   6.797670e+05
  -1.328005e+06  -6.934732e+04
  -2.088174e+05  -5.325195e+05
   6.099582e+05  -3.356936e+05
   3.272973e+05   2.347100e+05
  -6.290920e+05   4.355138e+05
  -1.127384e+06  -1.812602e+05
  -5.204570e+05  -1.192846e+06
   7.198975e+05  -1.590515e+06
   1.508319e+06  -7.608630e+05
   1.211820e+06   7.894621e+05
   1.776256e+05   1.777311e+06
  -7.252248e+05   1.339514e+06
  -9.328922e+05  -8.193538e+04
  -5.181398e+05  -1.153629e+06
   9.544259e+04  -1.018847e+06
   5.150009e+05  -1.354495e+05
   5.426698e+05   3.909373e+05
   2.551514e+05   1.678840e+05
   1.144953e+04  -1.243631e+05
   1.386228e+05   2.178980e+05
   4.492019e+05   9.138261e+05
   3.037702e+05   1.079806e+06
  -5.664327e+05   4.130998e+05
  -1.463012e+06  -4.570587e+05
  -1.362729e+06  -8.202243e+05
  -1.959925e+05  -6.603548e+05
   9.284900e+05  -3.965151e+05
   9.992482e+05  -2.139096e+05
   2.750909e+05  -7.231642e+03
  -1.789586e+05   2.092669e+05
   7.378474e+04   2.594700e+05
   3.740628e+05   1.603258e+05
   2.807640e+03   1.359405e+05
  -7.709487e+05   1.778928e+05
  -1.004216e+06  -5.333403e+04
  -2.460619e+05  -6.527596e+05
   9.375665e+05  -1.067009e+06
   1.580504e+06  -6.394292e+05
   1.225084e+06   4.936882e+05
   2.088022e+05   1.390431e+06
  -7.275210e+05   1.294852e+06
  -1.021979e+06   4.361301e+05
  -6.503587e+05  -2.967562e+05
  -7.761772e+04  -3.466677e+05
   1.653128e+05   6.175486e+03
  -4.494857e+04   9.353068e+04
  -3.428624e+05  -3.282248e+05
  -2.782628e+05  -7.899072e+05
   2.035418e+05  -6.343713e+05
   6.811045e+05   2.007754e+05
   6.403550e+05   1.005274e+06
  -1.953508e+04   9.890427e+05
  -7.974370e+05   1.263629e+05
  -9.600908e+05  -8.088849e+05
  -2.557796e+05  -1.056014e+06
   7.167401e+05  -5.710293e+05
   1.033481e+06   1.155435e+05
   4.511868e+05   5.281532e+05
  -2.772687e+05   5.601131e+05
  -2.862814e+05   3.329884e+05
   3.340940e+05   5.164985e+04
   6.567116e+05  -1.385526e+04
   1.063629e+05   2.819312e+05
  -8.115604e+05   6.632256e+05
  -1.152273e+06   5.838513e+05
  -6.467168e+05  -1.044474e+05
   1.120291e+05  -8.060098e+05
   4.637311e+05  -7.891298e+05
   3.195426e+05  -8.631700e+04
  -5.353247e+03   5.040304e+05
  -2.547115e+05   3.683331e+05
  -3.431360e+05  -2.319180e+05
  -2.256315e+05  -5.676316e+05
   7.762852e+04  -3.368630e+05
   3.746786e+05   8.582146e+04
   4.306278e+05   2.196556e+05
   2.350815e+05   4.431707e+04
   9.363532e+03  -7.894833e+04
  -8.254571e+04   9.376419e+04
  -1.122852e+05   3.945986e+05
  -2.200064e+05   4.363214e+05
  -3.619157e+05   5.213032e+04
  -3.246495e+05  -4.725703e+05
   7.474554e+03  -6.408106e+05
   4.432862e+05  -2.563984e+05
   5.833715e+05   3.363325e+05
   1.934778e+05   5.940894e+05
  -4.732041e+05   3.356252e+05
  -8.054090e+05  -1.237139e+05
  -4.344444e+05  -3.759515e+05
   2.899931e+05  -3.211063e+05
   5.996786e+05  -1.345897e+05
   1.772590e+05  -2.274090e+03
  -4.279479e+05  -9.703531e+03
  -4.286283e+05  -1.636584e+05
   2.453246e+05  -3.342815e+05
   8.507681e+05  -2.446815e+05
