
 $NMID
 id='ANONYMOUS ', fmtdat='(2E16.6)'
 volume=1.0
 tramp=1.0
 $END
  -3.262063e+07   1.111643e+06
  -2.105604e+07  -1.759887e+07
   1.966340e+06  -2.160914e+07
   1.491970e+07  -1.103738e+07
   1.050828e+07   1.636876e+06
  -7.321447e+05   5.729870e+06
  -6.117141e+06   1.017002e+06
  -3.212704e+06  -5.429645e+06
   2.525798e+06  -7.029681e+06
   5.771146e+06  -2.528335e+06
   4.729214e+06   3.773923e+06
   7.165832e+05   5.819330e+06
  -2.712525e+06   1.636641e+06
  -2.176363e+06  -4.161057e+06
   1.864342e+06  -5.081092e+06
   4.935441e+06   3.657158e+04
   3.365655e+06   6.003147e+06
  -1.689667e+06   7.372700e+06
  -5.903120e+06   3.724884e+06
  -6.326388e+06  -1.330416e+06
  -3.482493e+06  -4.368703e+06
  -1.381128e+05  -4.460867e+06
   1.040779e+06  -2.888435e+06
  -3.435256e+05  -1.833214e+06
  -1.695317e+06  -2.503675e+06
   7.026805e+04  -3.705524e+06
   4.432685e+06  -3.019814e+06
   6.993088e+06   3.540402e+04
   4.585545e+06   3.005732e+06
  -5.326036e+05   3.348291e+06
  -3.280732e+06   1.290429e+06
  -1.719038e+06  -9.040218e+05
   1.443744e+06  -1.490715e+06
   2.823400e+06  -2.350180e+05
   1.787869e+06   1.973135e+06
  -1.699976e+05   3.349590e+06
  -1.522515e+06   2.215949e+06
  -1.514837e+06  -7.452442e+05
  -3.678519e+05  -2.259393e+06
   5.436452e+05  -3.312917e+05
  -1.465061e+05   2.468508e+06
  -1.760815e+06   1.944154e+06
  -1.843238e+06  -1.741094e+06
   6.415605e+05  -3.748308e+06
   3.360539e+06  -9.847682e+05
   3.051765e+06   3.625366e+06
  -5.652703e+05   4.892209e+06
  -4.337601e+06   1.662171e+06
  -4.941773e+06  -2.522144e+06
  -1.926633e+06  -4.009897e+06
   2.164502e+06  -2.360013e+06
   4.021248e+06   4.280246e+05
   2.278549e+06   2.138840e+06
  -1.202445e+06   1.708732e+06
  -2.964395e+06  -1.828598e+05
  -1.525819e+06  -1.536968e+06
   9.765454e+05  -9.812945e+05
   1.439434e+06   5.663804e+05
  -3.552212e+05   1.003088e+06
  -1.672774e+06  -2.425114e+05
  -4.988503e+05  -1.594244e+06
   2.015443e+06  -1.458292e+06
   3.172413e+06   1.247276e+05
   1.748289e+06   2.105042e+06
  -1.195408e+06   3.475582e+06
  -3.686849e+06   3.302388e+06
  -4.303456e+06   1.035747e+06
  -2.874598e+06  -2.305486e+06
  -5.791008e+05  -4.277626e+06
   8.898645e+05  -3.501956e+06
   8.890547e+05  -1.419833e+06
   4.262627e+05  -4.641731e+05
   7.881194e+05  -9.449341e+05
   1.861105e+06  -1.014625e+06
   2.346906e+06   4.104773e+05
   1.425014e+06   2.052606e+06
  -3.542605e+05   2.009410e+06
  -1.695367e+06   1.336588e+05
  -1.588268e+06  -1.913096e+06
   6.164394e+04  -2.438400e+06
   2.196974e+06  -1.093449e+06
   3.124713e+06   1.093293e+06
   2.004522e+06   2.601492e+06
  -1.003911e+05   2.599706e+06
  -1.315592e+06   1.602420e+06
  -1.198041e+06   8.236783e+05
  -1.130560e+06   7.557194e+05
  -2.180712e+06   6.765097e+05
  -3.377789e+06  -2.873827e+05
  -2.852055e+06  -1.970151e+06
  -2.927943e+05  -3.279481e+06
   2.487684e+06  -3.221736e+06
   3.417559e+06  -1.664263e+06
   2.115401e+06   5.277330e+05
   1.122134e+04   1.901485e+06
  -1.071947e+06   1.483291e+06
  -4.557593e+05  -1.141147e+05
   9.177637e+05  -1.065010e+06
   1.475078e+06  -3.574119e+05
   6.581602e+05   9.127702e+05
  -4.856673e+05   9.597808e+05
  -5.575954e+05  -2.464139e+05
   5.309550e+05  -8.748850e+05
   1.497187e+06   3.179570e+05
   1.163814e+06   2.309329e+06
  -4.077892e+05   3.030969e+06
  -2.175361e+06   1.693290e+06
  -3.015336e+06  -6.093586e+05
  -2.369113e+06  -2.215293e+06
  -6.015313e+05  -2.302963e+06
   1.039584e+06  -1.254806e+06
   1.340731e+06  -1.705983e+05
   4.044499e+05   2.823353e+04
  -3.344138e+05  -5.898597e+05
   2.133439e+05  -1.037590e+06
   1.397897e+06  -5.370946e+05
   1.634160e+06   5.234500e+05
   4.449503e+05   1.054285e+06
  -8.925629e+05   5.751427e+05
  -8.621865e+05  -2.961761e+05
   5.572322e+05  -6.224875e+05
   1.899218e+06  -5.726675e+04
   1.731551e+06   1.003007e+06
   2.449837e+04   1.777975e+06
  -1.832576e+06   1.576769e+06
  -2.280721e+06   3.680161e+05
  -1.026052e+06  -9.350528e+05
   6.563582e+05  -1.164652e+06
   1.159553e+06  -1.816147e+05
   1.473734e+05   8.213637e+05
  -1.184470e+06   6.429301e+05
  -1.445234e+06  -5.118262e+05
  -4.502275e+05  -1.324325e+06
   7.616244e+05  -9.564480e+05
   1.078463e+06   6.424627e+04
   3.470327e+05   5.873140e+05
  -5.697394e+05   1.165588e+05
  -6.172522e+05  -7.884539e+05
   4.251961e+05  -1.151405e+06
   1.609034e+06  -4.811412e+05
   1.670270e+06   7.936082e+05
   3.876462e+05   1.655607e+06
  -1.074248e+06   1.389167e+06
  -1.390677e+06   2.726843e+05
  -4.970646e+05  -6.777687e+05
   4.804994e+05  -7.253154e+05
   5.915631e+05  -9.446302e+04
  -1.401311e+03   4.086040e+05
  -4.606387e+05   3.224483e+05
  -2.884870e+05  -5.262575e+04
   2.482693e+05  -9.874429e+04
   4.786827e+05   3.891389e+05
  -3.495928e+04   9.311382e+05
  -1.046033e+06   7.953358e+05
  -1.698126e+06  -2.390657e+05
  -1.252753e+06  -1.515825e+06
   9.339196e+04  -2.006912e+06
   1.283518e+06  -1.298371e+06
   1.469909e+06  -2.336672e+04
   8.628783e+05   7.853945e+05
   3.257769e+05   7.241335e+05
   2.922461e+05   2.910872e+05
   3.862963e+05   1.890320e+05
   6.993001e+04   5.277924e+05
  -6.390781e+05   7.705935e+05
  -1.173803e+06   3.752594e+05
  -9.573353e+05  -5.648933e+05
   8.823703e+04  -1.287061e+06
   1.362300e+06  -1.004999e+06
   1.885405e+06   2.865710e+05
   1.066296e+06   1.642993e+06
  -6.338653e+05   1.955865e+06
  -1.959764e+06   1.005079e+06
  -1.992167e+06  -3.439586e+05
  -9.804227e+05  -1.049551e+06
   4.695656e+04  -9.036966e+05
   3.830920e+05  -5.506101e+05
   2.013746e+05  -6.108527e+05
   1.253611e+05  -9.755459e+05
   4.795913e+05  -1.000119e+06
   9.954500e+05  -2.790956e+05
   1.107811e+06   8.470793e+05
   5.103008e+05   1.536776e+06
  -4.719985e+05   1.200479e+06
  -1.062586e+06   6.948552e+04
  -7.389110e+05  -9.676174e+05
   1.891295e+05  -1.143514e+06
   8.380406e+05  -4.653367e+05
   6.685288e+05   3.932697e+05
   3.602061e+04   7.951967e+05
  -2.787554e+05   6.707246e+05
  -6.683372e+02   3.955049e+05
   3.367698e+05   2.899941e+05
   4.209204e+04   3.201368e+05
  -8.813545e+05   2.216980e+05
  -1.624216e+06  -1.761616e+05
  -1.352252e+06  -7.427720e+05
  -1.014310e+05  -1.107723e+06
   1.162032e+06  -9.575609e+05
   1.452853e+06  -3.495612e+05
   7.267365e+05   2.659013e+05
  -1.532536e+05   4.206431e+05
  -3.849514e+05   8.621497e+04
   2.224187e+03  -2.781677e+05
   3.934837e+05  -2.020633e+05
   3.895653e+05   2.710025e+05
   1.471263e+05   6.089663e+05
   1.848939e+04   3.975850e+05
   1.156135e+05  -1.328776e+05
   2.710830e+05  -3.164794e+05
   2.391257e+05   1.649616e+05
  -1.224006e+05   8.290451e+05
  -6.883884e+05   8.804856e+05
  -1.007870e+06   1.342103e+05
  -6.313808e+05  -7.219092e+05
   3.033299e+05  -8.684243e+05
   9.648643e+05  -2.364111e+05
   6.051127e+05   4.725843e+05
  -5.348047e+05   5.671098e+05
  -1.337073e+06   1.468568e+04
  -9.528377e+05  -6.514076e+05
   2.881058e+05  -8.865030e+05
   1.230378e+06  -5.503499e+05
   1.085425e+06   5.571455e+04
   1.683571e+05   4.347846e+05
  -5.136174e+05   2.820532e+05
  -3.016092e+05  -2.026090e+05
   4.975304e+05  -4.119906e+05
   9.675054e+05   8.381654e+04
   5.204273e+05   9.797401e+05
  -5.155923e+05   1.390928e+06
  -1.236124e+06   7.215850e+05
  -1.053965e+06  -6.180008e+05
  -2.083059e+05  -1.490946e+06
   5.738075e+05  -1.130707e+06
   7.819293e+05   6.997756e+04
   4.427891e+05   9.625134e+05
  -8.509036e+04   8.416035e+05
  -4.399511e+05   1.149726e+05
  -4.432893e+05  -3.052299e+05
  -1.921015e+05  -1.224747e+05
  -1.845591e+04   9.680428e+04
  -1.679008e+05  -2.013259e+05
  -4.251677e+05  -7.696170e+05
  -2.534978e+05  -8.985152e+05
   5.095036e+05  -3.596006e+05
   1.245901e+06   3.422749e+05
   1.141779e+06   6.529464e+05
   1.798373e+05   5.590496e+05
  -7.434673e+05   3.663750e+05
  -8.266085e+05   1.992916e+05
  -2.571843e+05  -4.770069e+03
   1.343315e+05  -1.873005e+05
  -3.271920e+04  -1.987267e+05
  -2.823754e+05  -1.000979e+05
  -2.290301e+04  -1.101567e+05
   6.039377e+05  -1.911448e+05
   8.569196e+05  -1.789003e+03
   2.875855e+05   5.512645e+05
  -7.217832e+05   9.604578e+05
  -1.344333e+06   6.241790e+05
  -1.102567e+06  -3.554775e+05
  -2.393585e+05  -1.164041e+06
   5.812665e+05  -1.133575e+06
   8.494841e+05  -4.311004e+05
   5.549478e+05   2.051254e+05
   9.565562e+04   2.898830e+05
  -1.061779e+05   2.344390e+04
   4.664705e+04  -5.450700e+04
   2.840833e+05   2.765431e+05
   2.500460e+05   6.589906e+05
  -1.403507e+05   5.546055e+05
  -5.777052e+05  -1.178811e+05
  -6.035996e+05  -8.038420e+05
  -6.119284e+04  -8.448187e+05
   6.501269e+05  -1.723779e+05
   8.560006e+05   6.183567e+05
   2.789081e+05   8.882703e+05
  -5.809330e+05   5.367288e+05
  -8.975772e+05  -4.945205e+04
  -4.224730e+05  -4.545945e+05
   2.154728e+05  -5.171738e+05
   2.585744e+05  -3.017424e+05
  -2.525709e+05  -2.069655e+04
  -5.466121e+05   4.043515e+04
  -1.111190e+05  -2.413689e+05
   6.643013e+05  -5.874321e+05
   9.843355e+05  -5.123451e+05
   5.852588e+05   9.140792e+04
  -6.288634e+04   7.013871e+05
  -3.935529e+05   6.994810e+05
  -3.003017e+05   1.081158e+05
  -3.084624e+04  -4.139990e+05
   1.962189e+05  -3.388940e+05
   2.972432e+05   1.551064e+05
   2.168263e+05   4.717208e+05
  -4.536125e+04   3.153953e+05
  -3.225607e+05  -4.574905e+04
  -3.842134e+05  -1.910190e+05
  -2.013040e+05  -4.775774e+04
   1.039654e+04   9.023805e+04
   6.720766e+04  -3.455797e+04
   3.921142e+04  -3.198444e+05
   1.118695e+05  -4.109735e+05
   2.865096e+05  -1.118073e+05
   3.325547e+05   3.534091e+05
   7.032775e+04   5.388288e+05
  -3.509120e+05   2.485922e+05
  -5.268197e+05  -2.430599e+05
  -2.017910e+05  -4.837389e+05
   3.970610e+05  -3.068063e+05
   7.052117e+05   6.032913e+04
   3.919861e+05   3.013567e+05
  -2.335881e+05   3.064406e+05
  -5.121895e+05   1.650132e+05
  -1.742931e+05   1.287635e+04
   3.308974e+05  -3.322515e+04
   3.577713e+05   8.885828e+04
  -1.681420e+05   2.736333e+05
  -6.684277e+05   2.418224e+05
