
 $NMID
 id='ANONYMOUS ', fmtdat='(2E16.6)'
 volume=1.0
 tramp=1.0
 $END
   6.063032e+07  -3.145555e+06
   3.829605e+07   3.597620e+07
  -6.150856e+06   4.155636e+07
  -2.902241e+07   1.698278e+07
  -1.800722e+07  -6.980984e+06
   3.211899e+06  -1.020900e+07
   1.060569e+07   1.004078e+06
   3.321871e+06   1.040260e+07
  -6.299215e+06   1.017739e+07
  -1.025325e+07   2.502450e+06
  -7.789707e+06  -6.246436e+06
  -1.338785e+06  -9.090542e+06
   4.084999e+06  -3.183540e+06
   3.059130e+06   5.548404e+06
  -3.718143e+06   7.070799e+06
  -8.494474e+06  -1.093878e+06
  -5.252653e+06  -1.070801e+07
   3.460931e+06  -1.282577e+07
   1.051828e+07  -6.892936e+06
   1.173821e+07   1.552029e+06
   7.624521e+06   7.660839e+06
   1.301413e+06   9.357522e+06
  -2.883411e+06   6.792641e+06
  -2.074668e+06   2.966999e+06
   1.143672e+06   2.048035e+06
   5.614038e+05   4.268579e+06
  -5.340249e+06   4.982147e+06
  -1.015166e+07   1.167687e+06
  -7.759070e+06  -3.930915e+06
  -6.846334e+05  -5.382000e+06
   3.677380e+06  -3.034492e+06
   2.625564e+06  -3.111133e+05
  -4.220920e+05   8.998012e+05
  -2.186825e+06   6.718036e+05
  -2.361281e+06  -1.233733e+06
  -1.062728e+06  -4.022119e+06
   1.639768e+06  -4.254346e+06
   3.543455e+06  -1.833422e+05
   2.158282e+06   3.791114e+06
  -7.036496e+05   2.242684e+06
  -5.704402e+05  -2.460939e+06
   2.458325e+06  -2.530032e+06
   2.760549e+06   3.314914e+06
  -2.364278e+06   6.722087e+06
  -7.522607e+06   1.449416e+06
  -5.913788e+06  -7.207672e+06
   1.627755e+06  -9.299667e+06
   7.841798e+06  -3.005956e+06
   7.607091e+06   4.385267e+06
   2.211851e+06   6.308796e+06
  -3.566064e+06   3.007424e+06
  -5.611437e+06  -1.407648e+06
  -2.683150e+06  -3.607124e+06
   2.511035e+06  -2.452240e+06
   4.886543e+06   7.816769e+05
   2.203068e+06   2.830691e+06
  -1.775281e+06   1.555130e+06
  -1.873282e+06  -1.013058e+06
   1.434527e+06  -1.006358e+06
   2.745683e+06   1.856615e+06
  -5.779920e+05   3.809594e+06
  -4.966058e+06   2.277127e+06
  -5.774842e+06  -1.243622e+06
  -2.670054e+06  -4.173907e+06
   1.609436e+06  -5.705414e+06
   4.989113e+06  -5.427656e+06
   6.456330e+06  -2.239135e+06
   5.084506e+06   3.058128e+06
   1.372793e+06   6.488161e+06
  -1.759251e+06   5.140966e+06
  -1.856706e+06   1.312068e+06
  -1.479596e+05  -3.610271e+05
   2.108158e+05   9.911371e+05
  -1.480110e+06   2.028442e+06
  -2.914208e+06   5.102757e+05
  -2.269225e+06  -1.827061e+06
  -2.091930e+05  -2.207129e+06
   1.553824e+06  -3.133578e+05
   1.849398e+06   2.043556e+06
   1.862082e+05   3.066559e+06
  -2.804054e+06   1.932618e+06
  -4.819088e+06  -9.607782e+05
  -3.678774e+06  -3.803859e+06
  -2.227501e+05  -4.542505e+06
   2.295790e+06  -3.063958e+06
   2.357960e+06  -1.335600e+06
   1.932444e+06  -7.921896e+05
   3.085551e+06  -6.311819e+05
   4.623935e+06   5.945679e+05
   3.810877e+06   2.740794e+06
   3.468183e+05   4.333874e+06
  -3.155814e+06   4.269576e+06
  -4.252639e+06   2.476548e+06
  -2.821181e+06  -2.579759e+05
  -4.543790e+05  -2.317365e+06
   1.016800e+06  -2.110477e+06
   5.983233e+05  -8.578805e+03
  -1.061845e+06   1.442588e+06
  -1.997903e+06   5.271845e+05
  -1.057199e+06  -1.226089e+06
   4.715223e+05  -1.197257e+06
   4.433245e+05   3.968873e+05
  -1.137347e+06   7.492082e+05
  -2.033926e+06  -1.363751e+06
  -7.757871e+05  -3.717750e+06
   1.629128e+06  -3.638578e+06
   3.305619e+06  -1.216327e+06
   3.504375e+06   1.430825e+06
   2.455151e+06   2.781390e+06
   5.825010e+05   2.687057e+06
  -1.216168e+06   1.597950e+06
  -1.637654e+06   3.316854e+05
  -5.212820e+05  -2.290961e+04
   4.146838e+05   7.763860e+05
  -3.797417e+05   1.450743e+06
  -2.008767e+06   7.115105e+05
  -2.205413e+06  -8.569672e+05
  -4.664921e+05  -1.496349e+06
   1.216570e+06  -6.540640e+05
   9.401649e+05   4.422420e+05
  -8.897391e+05   5.575580e+05
  -2.290720e+06  -2.770039e+05
  -1.851491e+06  -1.351464e+06
   1.970862e+05  -2.056343e+06
   2.349388e+06  -1.828553e+06
   2.906341e+06  -4.167529e+05
   1.351707e+06   1.287401e+06
  -9.023949e+05   1.653985e+06
  -1.661987e+06   2.867012e+05
  -2.818640e+05  -1.143312e+06
   1.569634e+06  -8.599056e+05
   1.852331e+06   7.535036e+05
   4.134878e+05   1.733928e+06
  -1.128621e+06   1.061920e+06
  -1.338747e+06  -3.000450e+05
  -2.753664e+05  -8.266552e+05
   8.551164e+05  -9.396462e+04
   8.387581e+05   1.080185e+06
  -5.292126e+05   1.538597e+06
  -2.090706e+06   6.846313e+05
  -2.208766e+06  -1.001213e+06
  -5.106976e+05  -2.177428e+06
   1.449676e+06  -1.809208e+06
   1.818867e+06  -2.974080e+05
   5.627321e+05   9.002992e+05
  -6.634532e+05   8.746237e+05
  -6.500741e+05   1.118646e+05
   1.232930e+05  -3.609901e+05
   4.897469e+05  -2.141267e+05
   8.761841e+04   6.006465e+04
  -5.035748e+05  -9.518997e+04
  -5.692316e+05  -7.166328e+05
   1.817399e+05  -1.271202e+06
   1.424536e+06  -1.008333e+06
   2.219638e+06   3.381671e+05
   1.646138e+06   1.980760e+06
  -1.073872e+05   2.559980e+06
  -1.632016e+06   1.549497e+06
  -1.768928e+06  -6.751888e+04
  -9.151153e+05  -8.863368e+05
  -3.524253e+05  -6.245615e+05
  -5.365877e+05  -1.753892e+05
  -7.084044e+05  -3.075073e+05
  -1.403054e+05  -8.212353e+05
   8.902198e+05  -9.891131e+05
   1.506982e+06  -3.968352e+05
   1.119181e+06   7.062663e+05
  -2.091107e+05   1.527132e+06
  -1.761825e+06   1.197307e+06
  -2.384806e+06  -4.046169e+05
  -1.285051e+06  -2.165686e+06
   9.717513e+05  -2.549924e+06
   2.650842e+06  -1.198383e+06
   2.502569e+06   6.065098e+05
   1.037826e+06   1.369273e+06
  -1.932977e+05   9.780332e+05
  -3.655025e+05   5.265101e+05
  -3.805387e+03   7.983996e+05
  -2.083178e+04   1.407049e+06
  -6.473761e+05   1.412548e+06
  -1.360858e+06   4.090906e+05
  -1.471898e+06  -1.068129e+06
  -6.871241e+05  -1.967832e+06
   5.787818e+05  -1.547134e+06
   1.353734e+06  -5.705962e+04
   9.150894e+05   1.325696e+06
  -3.615278e+05   1.495899e+06
  -1.231266e+06   4.641940e+05
  -8.965621e+05  -7.313072e+05
   9.954693e+04  -1.163470e+06
   5.592893e+05  -8.501787e+05
   8.316599e+04  -4.308703e+05
  -4.799065e+05  -3.239184e+05
  -8.680135e+04  -3.977445e+05
   1.212743e+06  -2.766053e+05
   2.209840e+06   2.508772e+05
   1.759802e+06   1.022638e+06
   1.371728e+04   1.532974e+06
  -1.642100e+06   1.293355e+06
  -1.927919e+06   3.714408e+05
  -8.989263e+05  -5.076717e+05
   2.563964e+05  -6.276894e+05
   5.465224e+05  -5.068029e+04
   6.451330e+04   4.591075e+05
  -4.435596e+05   3.004180e+05
  -5.295378e+05  -3.342964e+05
  -3.276525e+05  -7.408327e+05
  -1.478405e+05  -4.970942e+05
  -1.384979e+05   9.119194e+04
  -2.632151e+05   3.020099e+05
  -2.983634e+05  -2.336109e+05
   8.623596e+04  -1.038901e+06
   8.928958e+05  -1.176426e+06
   1.453727e+06  -2.751230e+05
   9.755603e+05   9.159651e+05
  -3.751422e+05   1.246533e+06
  -1.323172e+06   4.483429e+05
  -8.080347e+05  -5.565061e+05
   7.132178e+05  -7.160864e+05
   1.669509e+06   3.347084e+04
   1.071620e+06   8.672599e+05
  -4.860424e+05   1.048171e+06
  -1.550765e+06   5.447995e+05
  -1.287109e+06  -1.587515e+05
  -1.537909e+05  -5.296726e+05
   6.750260e+05  -3.048255e+05
   4.304526e+05   2.979282e+05
  -5.743244e+05   5.960106e+05
  -1.254044e+06   2.311080e+03
  -8.006799e+05  -1.195212e+06
   4.926423e+05  -1.839359e+06
   1.497762e+06  -1.038823e+06
   1.368614e+06   7.152016e+05
   3.191142e+05   1.869703e+06
  -7.082587e+05   1.388676e+06
  -9.800086e+05  -1.552272e+05
  -4.989317e+05  -1.236133e+06
   2.066795e+05  -1.018786e+06
   5.967172e+05  -1.080141e+05
   4.908786e+05   3.681758e+05
   1.561943e+05   1.294558e+05
   5.533695e+04  -9.627994e+04
   3.460641e+05   3.100285e+05
   6.043786e+05   9.959212e+05
   2.321060e+05   1.121569e+06
  -7.644401e+05   4.523367e+05
  -1.575056e+06  -4.059666e+05
  -1.367612e+06  -8.107248e+05
  -2.312295e+05  -7.317598e+05
   8.495089e+05  -4.926163e+05
   1.017411e+06  -2.380914e+05
   4.057442e+05   4.968676e+04
  -1.298595e+05   2.486355e+05
  -5.753621e+04   2.040301e+05
   2.504164e+05   6.708501e+04
   7.467345e+04   1.346849e+05
  -6.460074e+05   3.010373e+05
  -1.108874e+06   6.370499e+04
  -5.513824e+05  -7.069622e+05
   7.795312e+05  -1.315496e+06
   1.768612e+06  -9.328366e+05
   1.560068e+06   3.430812e+05
   3.941920e+05   1.459433e+06
  -7.307902e+05   1.513316e+06
  -1.072904e+06   6.604268e+05
  -7.006155e+05  -1.826266e+05
  -1.803225e+05  -3.696258e+05
   3.720818e+04  -9.515746e+04
  -9.759886e+04  -1.636849e+03
  -3.239438e+05  -3.808836e+05
  -2.979747e+05  -8.381521e+05
   1.368016e+05  -7.365180e+05
   7.185787e+05   5.712858e+04
   8.653139e+05   9.285911e+05
   2.340294e+05   1.083427e+06
  -7.533414e+05   3.485900e+05
  -1.152450e+06  -6.549810e+05
  -4.673888e+05  -1.127346e+06
   6.990285e+05  -7.920832e+05
   1.204399e+06  -9.540301e+03
   6.259037e+05   6.354383e+05
  -2.578381e+05   7.704851e+05
  -4.065294e+05   4.238759e+05
   2.264219e+05  -1.929265e+04
   6.735471e+05  -9.124330e+04
   1.883241e+05   3.214315e+05
  -8.255745e+05   7.678835e+05
  -1.324134e+06   6.305327e+05
  -8.533235e+05  -1.616443e+05
   3.835927e+04  -9.383865e+05
   5.547609e+05  -9.576836e+05
   4.726896e+05  -2.277208e+05
   1.083776e+05   4.864540e+05
  -2.144996e+05   4.956143e+05
  -3.785113e+05  -9.853530e+04
  -3.138452e+05  -5.902344e+05
   1.545285e+04  -4.842424e+05
   4.167247e+05   5.097882e+03
   5.344075e+05   2.852532e+05
   2.640733e+05   1.053207e+05
  -6.463510e+04  -1.811175e+05
  -9.341773e+04  -9.337490e+04
   8.264996e+04   3.489133e+05
   5.358625e+04   6.178286e+05
  -2.972684e+05   3.133636e+05
  -5.535708e+05  -3.256430e+05
  -2.714156e+05  -6.645177e+05
   3.903942e+05  -3.775343e+05
   7.433693e+05   2.233440e+05
   3.264454e+05   5.726016e+05
  -5.194483e+05   4.282431e+05
  -9.571110e+05   7.118428e+02
  -5.435170e+05  -3.626606e+05
   2.798556e+05  -4.698894e+05
   6.660374e+05  -3.196276e+05
   2.900439e+05  -4.449357e+04
  -3.210806e+05   1.237319e+05
  -4.181907e+05   8.684382e+02
   1.258903e+05  -2.950253e+05
   7.132517e+05  -3.402572e+05
