
 $NMID
 id='ANONYMOUS ', fmtdat='(2E16.6)'
 volume=1.0
 tramp=1.0
 $END
  -3.724602e+07  -1.359864e+06
  -2.245420e+07  -2.138259e+07
   3.768916e+06  -2.416439e+07
   1.745350e+07  -1.156597e+07
   1.167331e+07   2.224813e+06
  -1.054051e+06   6.226543e+06
  -6.789186e+06   8.407680e+05
  -3.300330e+06  -6.175469e+06
   3.132966e+06  -7.762068e+06
   6.584803e+06  -2.568952e+06
   5.153565e+06   4.540475e+06
   5.274550e+05   6.662668e+06
  -3.149826e+06   1.687311e+06
  -2.243477e+06  -4.902207e+06
   2.383407e+06  -5.709670e+06
   5.595357e+06   3.186274e+05
   3.492924e+06   7.065093e+06
  -2.364090e+06   8.370483e+06
  -7.020712e+06   3.929910e+06
  -7.201273e+06  -1.968374e+06
  -3.649513e+06  -5.299222e+06
   2.525357e+05  -5.077950e+06
   1.368228e+06  -3.086742e+06
  -4.955511e+05  -2.041538e+06
  -2.013175e+06  -3.088714e+06
   3.003884e+05  -4.420833e+06
   5.433714e+06  -3.245062e+06
   8.138197e+06   5.304727e+05
   5.046670e+06   3.774886e+06
  -9.220157e+05   3.788084e+06
  -3.936068e+06   1.217402e+06
  -1.956213e+06  -1.256854e+06
   1.808484e+06  -1.786810e+06
   3.430221e+06  -1.992495e+05
   2.120767e+06   2.442121e+06
  -3.311191e+05   3.988535e+06
  -1.919219e+06   2.500646e+06
  -1.689030e+06  -1.026260e+06
  -1.823287e+05  -2.653360e+06
   7.428477e+05  -2.438448e+05
  -3.039796e+05   2.970178e+06
  -2.153803e+06   2.204950e+06
  -1.992409e+06  -2.047135e+06
   9.532635e+05  -4.137060e+06
   3.800470e+06  -7.953272e+05
   3.113554e+06   4.362859e+06
  -1.048524e+06   5.485189e+06
  -5.096593e+06   1.550383e+06
  -5.532077e+06  -3.221746e+06
  -2.021186e+06  -4.717260e+06
   2.578318e+06  -2.605370e+06
   4.597060e+06   6.588424e+05
   2.553094e+06   2.488127e+06
  -1.386556e+06   1.811151e+06
  -3.310668e+06  -3.734168e+05
  -1.639640e+06  -1.761054e+06
   1.146849e+06  -1.007578e+06
   1.617952e+06   6.897284e+05
  -3.759559e+05   1.073698e+06
  -1.790264e+06  -2.996730e+05
  -4.590231e+05  -1.675477e+06
   2.316960e+06  -1.440994e+06
   3.557814e+06   3.044502e+05
   1.862654e+06   2.482718e+06
  -1.613916e+06   3.987703e+06
  -4.534096e+06   3.675849e+06
  -5.111125e+06   9.394350e+05
  -3.199902e+06  -2.900424e+06
  -4.195713e+05  -5.010456e+06
   1.159771e+06  -3.997427e+06
   9.989840e+05  -1.657346e+06
   4.939951e+05  -6.648731e+05
   1.071218e+06  -1.178366e+06
   2.363360e+06  -1.083670e+06
   2.794415e+06   6.827737e+05
   1.565637e+06   2.543413e+06
  -5.365622e+05   2.363562e+06
  -2.011799e+06   7.880993e+04
  -1.775623e+06  -2.322232e+06
   2.012707e+05  -2.849603e+06
   2.640702e+06  -1.138734e+06
   3.586955e+06   1.487067e+06
   2.160742e+06   3.164466e+06
  -2.997809e+05   3.000284e+06
  -1.628284e+06   1.755758e+06
  -1.418034e+06   8.816830e+05
  -1.338387e+06   8.333923e+05
  -2.582861e+06   6.871075e+05
  -3.949394e+06  -5.076830e+05
  -3.252133e+06  -2.451066e+06
  -1.767267e+05  -3.863412e+06
   3.100965e+06  -3.666540e+06
   4.118484e+06  -1.783006e+06
   2.455236e+06   7.456531e+05
  -1.050282e+05   2.250231e+06
  -1.336992e+06   1.682474e+06
  -5.041386e+05  -1.613808e+05
   1.140623e+06  -1.182854e+06
   1.716330e+06  -3.230280e+05
   6.938682e+05   1.091778e+06
  -6.051501e+05   1.075169e+06
  -6.180049e+05  -3.103899e+05
   6.392346e+05  -9.726473e+05
   1.683899e+06   4.317382e+05
   1.252507e+06   2.698486e+06
  -5.472421e+05   3.489517e+06
  -2.560538e+06   1.912645e+06
  -3.512150e+06  -7.896138e+05
  -2.724580e+06  -2.676294e+06
  -6.248047e+05  -2.741256e+06
   1.283678e+06  -1.442257e+06
   1.585747e+06  -1.460998e+05
   4.726844e+05   4.447536e+04
  -3.514124e+05  -7.076006e+05
   3.146431e+05  -1.182664e+06
   1.649512e+06  -5.311421e+05
   1.848447e+06   6.932025e+05
   4.425248e+05   1.221790e+06
  -1.067593e+06   5.942409e+05
  -9.756162e+05  -4.018815e+05
   6.979885e+05  -7.034125e+05
   2.243007e+06   2.044764e+04
   1.999905e+06   1.257167e+06
  -4.506430e+04   2.092806e+06
  -2.223110e+06   1.769508e+06
  -2.686849e+06   3.285932e+05
  -1.145477e+06  -1.130399e+06
   8.259866e+05  -1.308415e+06
   1.345496e+06  -1.427537e+05
   1.096445e+05   9.580179e+05
  -1.418390e+06   6.765376e+05
  -1.652673e+06  -6.686786e+05
  -4.612104e+05  -1.551253e+06
   9.170954e+05  -1.065252e+06
   1.230460e+06   1.237455e+05
   3.567440e+05   6.802861e+05
  -6.778973e+05   7.407304e+04
  -6.688580e+05  -9.849617e+05
   5.860729e+05  -1.340227e+06
   1.936493e+06  -4.740277e+05
   1.925274e+06   1.028141e+06
   3.682561e+05   1.961692e+06
  -1.321895e+06   1.569761e+06
  -1.625570e+06   2.587941e+05
  -5.378519e+05  -7.950233e+05
   5.932291e+05  -8.054440e+05
   6.839342e+05  -7.558953e+04
  -3.505434e+04   4.772911e+05
  -5.685869e+05   3.539001e+05
  -3.451438e+05  -8.083576e+04
   2.981099e+05  -1.121661e+05
   5.533872e+05   4.791041e+05
  -8.310828e+04   1.101962e+06
  -1.277411e+06   8.915989e+05
  -1.994817e+06  -3.680189e+05
  -1.402956e+06  -1.851701e+06
   2.006684e+05  -2.358412e+06
   1.558236e+06  -1.469767e+06
   1.724714e+06   2.541011e+04
   9.958149e+05   9.429851e+05
   3.788820e+05   8.605129e+05
   3.486698e+05   3.680469e+05
   4.499309e+05   2.573450e+05
   5.984347e+04   6.390197e+05
  -7.890665e+05   8.937022e+05
  -1.415813e+06   4.019992e+05
  -1.127440e+06  -7.095909e+05
   1.514575e+05  -1.526692e+06
   1.660737e+06  -1.132357e+06
   2.217191e+06   4.268040e+05
   1.172354e+06   1.987055e+06
  -8.488735e+05   2.263342e+06
  -2.350242e+06   1.078806e+06
  -2.314738e+06  -4.950668e+05
  -1.100825e+06  -1.264678e+06
   8.685726e+04  -1.052818e+06
   4.664957e+05  -6.401820e+05
   2.669801e+05  -7.259270e+05
   2.010982e+05  -1.149176e+06
   6.172743e+05  -1.150932e+06
   1.187285e+06  -2.756309e+05
   1.264219e+06   1.053310e+06
   5.258181e+05   1.834799e+06
  -6.141373e+05   1.389139e+06
  -1.250114e+06   2.694834e+04
  -8.155225e+05  -1.175319e+06
   2.809485e+05  -1.329264e+06
   1.002610e+06  -4.946557e+05
   7.556913e+05   5.021149e+05
  -7.287998e+03   9.321573e+05
  -3.655156e+05   7.626456e+05
  -1.534739e+04   4.558584e+05
   3.940380e+05   3.582445e+05
   4.163946e+04   3.849710e+05
  -1.054074e+06   2.200685e+05
  -1.915325e+06  -2.913549e+05
  -1.556053e+06  -9.448980e+05
  -5.120727e+04  -1.306367e+06
   1.425452e+06  -1.063165e+06
   1.720831e+06  -3.353515e+05
   8.279784e+05   3.501489e+05
  -2.072887e+05   4.883809e+05
  -4.564937e+05   8.036533e+04
   1.316296e+04  -3.373316e+05
   4.681733e+05  -2.320486e+05
   4.511639e+05   3.334121e+05
   1.588038e+05   7.314399e+05
   1.039413e+04   4.761338e+05
   1.372704e+05  -1.538829e+05
   3.309364e+05  -3.646591e+05
   2.823330e+05   2.128147e+05
  -1.765804e+05   9.873209e+05
  -8.645078e+05   1.013334e+06
  -1.217050e+06   1.025235e+05
  -7.209112e+05  -8.953914e+05
   4.077088e+05  -1.018725e+06
   1.163380e+06  -2.369387e+05
   6.985960e+05   5.829640e+05
  -6.538060e+05   6.437538e+05
  -1.571397e+06  -3.758185e+04
  -1.089415e+06  -8.001733e+05
   3.747532e+05  -1.023465e+06
   1.463343e+06  -5.915971e+05
   1.268295e+06   1.111719e+05
   1.779745e+05   5.147416e+05
  -6.149546e+05   3.027479e+05
  -3.425372e+05  -2.598983e+05
   6.107492e+05  -4.690136e+05
   1.145253e+06   1.421852e+05
   5.778074e+05   1.185934e+06
  -6.661528e+05   1.629590e+06
  -1.491158e+06   8.071674e+05
  -1.220709e+06  -7.705255e+05
  -1.864090e+05  -1.767131e+06
   7.204148e+05  -1.306956e+06
   9.138993e+05   1.191965e+05
   4.747454e+05   1.151600e+06
  -1.421869e+05   9.791733e+05
  -5.256838e+05   1.095007e+05
  -5.063070e+05  -3.758339e+05
  -2.164636e+05  -1.468941e+05
  -2.470262e+04   1.083828e+05
  -1.909039e+05  -2.579098e+05
  -4.668511e+05  -9.304549e+05
  -2.541032e+05  -1.060059e+06
   6.213406e+05  -3.911364e+05
   1.452991e+06   4.554961e+05
   1.313482e+06   8.120338e+05
   1.871256e+05   6.689583e+05
  -8.883926e+05   4.085267e+05
  -9.802491e+05   2.002383e+05
  -3.045982e+05  -2.450156e+04
   1.636923e+05  -2.168083e+05
  -3.025951e+04  -2.255986e+05
  -3.281222e+05  -1.220231e+05
  -2.374136e+04  -1.368290e+05
   7.198154e+05  -2.103969e+05
   1.015701e+06   3.593662e+04
   3.232106e+05   6.764821e+05
  -8.922641e+05   1.113418e+06
  -1.624049e+06   6.786566e+05
  -1.300018e+06  -4.724241e+05
  -2.376122e+05  -1.387840e+06
   7.409346e+05  -1.316029e+06
   1.030490e+06  -4.769162e+05
   6.513796e+05   2.642858e+05
   1.015351e+05   3.523194e+05
  -1.269215e+05   3.338919e+04
   5.474880e+04  -5.592852e+04
   3.182811e+05   3.386665e+05
   2.618665e+05   7.871487e+05
  -1.924100e+05   6.501827e+05
  -6.805811e+05  -1.611445e+05
  -6.849381e+05  -9.762937e+05
  -4.146911e+04  -1.008165e+06
   7.777749e+05  -1.858215e+05
   9.932596e+05   7.631266e+05
   2.960096e+05   1.066589e+06
  -7.139725e+05   6.161303e+05
  -1.065041e+06  -9.899028e+04
  -4.784013e+05  -5.657981e+05
   2.860549e+05  -6.082244e+05
   3.273954e+05  -3.392952e+05
  -2.944372e+05  -2.414983e+04
  -6.485792e+05   2.784936e+04
  -1.226034e+05  -2.937001e+05
   8.088073e+05  -6.648462e+05
   1.184455e+06  -5.530805e+05
   6.878937e+05   1.436064e+05
  -1.059515e+05   8.282737e+05
  -5.022475e+05   8.065512e+05
  -3.705317e+05   1.132586e+05
  -2.546457e+04  -4.918163e+05
   2.487708e+05  -3.975167e+05
   3.509004e+05   1.898274e+05
   2.376544e+05   5.676419e+05
  -7.093156e+04   3.774184e+05
  -3.817475e+05  -6.574605e+04
  -4.431806e+05  -2.475863e+05
  -2.323202e+05  -6.781365e+04
   5.928391e+03   1.144904e+05
   7.114044e+04  -2.937028e+04
   4.884433e+04  -3.811028e+05
   1.455076e+05  -4.983674e+05
   3.504605e+05  -1.337168e+05
   3.923824e+05   4.329626e+05
   7.118545e+04   6.497913e+05
  -4.257302e+05   2.852604e+05
  -6.208463e+05  -3.101104e+05
  -2.235761e+05  -5.821010e+05
   4.853898e+05  -3.453546e+05
   8.374165e+05   1.025587e+05
   4.522052e+05   3.745522e+05
  -2.934800e+05   3.558339e+05
  -6.185108e+05   1.765724e+05
  -2.111476e+05   5.012065e+03
   3.908043e+05  -3.511621e+04
   4.224268e+05   1.114106e+05
  -2.016528e+05   3.172425e+05
  -7.920887e+05   2.663567e+05
