
 $NMID
 id='ANONYMOUS ', fmtdat='(2E16.6)'
 volume=1.0
 tramp=1.0
 $END
   1.258434e+07   5.653042e+05
   8.287892e+06   6.042268e+06
  -1.312764e+05   7.920158e+06
  -5.599500e+06   5.353774e+06
  -4.756434e+06   6.190370e+05
  -3.355983e+05  -2.325576e+06
   2.682658e+06  -1.240663e+06
   2.049392e+06   2.100269e+06
  -6.377006e+05   3.682551e+06
  -2.483440e+06   1.626534e+06
  -2.060074e+06  -1.774304e+06
  -1.518533e+05  -2.788616e+06
   1.307553e+06  -4.899473e+05
   9.455980e+05   2.406931e+06
  -8.452073e+05   2.745635e+06
  -2.201015e+06   2.358142e+05
  -1.567288e+06  -2.598348e+06
   6.687096e+05  -3.221087e+06
   2.515885e+06  -1.426806e+06
   2.439500e+06   8.877879e+05
   8.966994e+05   1.840440e+06
  -3.003114e+05   1.301615e+06
   1.324752e+03   6.572505e+05
   1.091928e+06   1.050691e+06
   1.209240e+06   2.078351e+06
  -4.972757e+05   2.343775e+06
  -2.845449e+06   1.136871e+06
  -3.615566e+06  -7.379777e+05
  -1.856523e+06  -1.820741e+06
   8.975391e+05  -1.404768e+06
   2.056206e+06  -2.709044e+04
   6.955455e+05   1.119084e+06
  -1.494416e+06   1.080066e+06
  -2.179721e+06  -1.942875e+05
  -9.241822e+05  -1.685026e+06
   6.539557e+05  -2.004439e+06
   9.973776e+05  -7.622325e+05
   2.270151e+05   7.782901e+05
  -4.360421e+05   9.138642e+05
  -2.390306e+05  -4.841587e+05
   5.142854e+05  -1.669244e+06
   1.069269e+06  -1.083614e+06
   9.214188e+05   6.817300e+05
   7.858264e+04   1.559243e+06
  -8.793761e+05   5.042225e+05
  -1.021120e+06  -1.290422e+06
   1.321735e+05  -1.840517e+06
   1.810127e+06  -5.652870e+05
   2.408329e+06   1.279921e+06
   1.101836e+06   2.070929e+06
  -1.093014e+06   1.329458e+06
  -2.223975e+06  -1.074307e+05
  -1.394130e+06  -1.027739e+06
   3.806314e+05  -8.592717e+05
   1.337995e+06  -1.056433e+04
   7.788177e+05   6.013130e+05
  -3.963888e+05   4.157807e+05
  -8.113451e+05  -2.760037e+05
  -9.260678e+04  -6.858217e+05
   8.089946e+05  -3.637246e+05
   7.213266e+05   3.592500e+05
  -3.974772e+05   7.240567e+05
  -1.324560e+06   2.623346e+05
  -8.717304e+05  -7.820725e+05
   7.743194e+05  -1.603147e+06
   2.198278e+06  -1.423797e+06
   2.241900e+06  -1.592069e+05
   1.125448e+06   1.391899e+06
  -4.110692e+03   2.171338e+06
  -4.012157e+05   1.840358e+06
  -3.330282e+05   1.054238e+06
  -4.676832e+05   6.273861e+05
  -9.935545e+05   5.624154e+05
  -1.469206e+06   1.882905e+05
  -1.352878e+06  -7.553695e+05
  -5.306719e+05  -1.544825e+06
   5.619457e+05  -1.245343e+06
   1.201295e+06   9.831940e+04
   8.745550e+05   1.353140e+06
  -2.478051e+05   1.430622e+06
  -1.318141e+06   3.493714e+05
  -1.490225e+06  -9.016086e+05
  -7.153180e+05  -1.406478e+06
   2.259375e+05  -1.098403e+06
   5.841618e+05  -5.854213e+05
   4.515377e+05  -3.997943e+05
   5.561387e+05  -4.938354e+05
   1.252553e+06  -3.940232e+05
   1.921329e+06   2.435325e+05
   1.571042e+06   1.228124e+06
   2.986420e+04   1.923911e+06
  -1.650504e+06   1.750981e+06
  -2.139019e+06   7.025618e+05
  -1.156698e+06  -5.516311e+05
   2.516610e+05  -1.139606e+06
   8.027741e+05  -7.279350e+05
   2.258297e+05   1.380789e+05
  -6.321727e+05   5.350218e+05
  -8.260667e+05   1.115575e+05
  -2.595980e+05  -5.257398e+05
   3.720145e+05  -5.209339e+05
   3.890460e+05   1.663255e+05
  -2.284045e+05   6.260827e+05
  -8.776208e+05   5.507588e+04
  -8.683801e+05  -1.204932e+06
   6.498988e+03  -1.919517e+06
   1.242034e+06  -1.266910e+06
   1.935681e+06   2.830500e+05
   1.516326e+06   1.470664e+06
   3.043581e+05   1.503166e+06
  -7.174387e+05   7.040276e+05
  -8.226479e+05   3.973086e+03
  -2.367667e+05  -3.313628e+04
   1.660235e+05   3.597973e+05
  -1.433253e+05   5.573125e+05
  -7.716392e+05   2.393361e+05
  -8.918128e+05  -3.197309e+05
  -2.369446e+05  -5.801287e+05
   5.340290e+05  -2.999136e+05
   5.344055e+05   2.218554e+05
  -3.404061e+05   4.303335e+05
  -1.214849e+06   3.899005e+04
  -1.111063e+06  -6.895929e+05
   1.169782e+04  -1.149684e+06
   1.178116e+06  -9.131772e+05
   1.376034e+06  -1.304528e+05
   5.511896e+05   5.595690e+05
  -4.102857e+05   5.945981e+05
  -6.181653e+05   4.139007e+04
  -9.428080e+03  -4.465807e+05
   7.115653e+05  -3.017186e+05
   8.269617e+05   3.408469e+05
   2.557454e+05   7.908488e+05
  -4.461875e+05   5.794557e+05
  -6.437141e+05  -2.242861e+04
  -2.193952e+05  -3.353663e+05
   3.115114e+05  -4.063454e+04
   3.040336e+05   4.957094e+05
  -3.333709e+05   6.484178e+05
  -9.833253e+05   1.780962e+05
  -9.332669e+05  -5.635222e+05
  -1.459935e+05  -9.830150e+05
   6.742856e+05  -7.643374e+05
   8.165512e+05  -1.205149e+05
   2.791596e+05   4.023336e+05
  -3.042986e+05   4.103460e+05
  -3.766731e+05   1.633988e+04
   9.229004e+03  -3.000408e+05
   3.473693e+05  -2.180587e+05
   2.608555e+05   7.740831e+04
  -1.179212e+05   1.372563e+05
  -3.070874e+05  -1.919826e+05
   1.526484e+04  -5.489696e+05
   6.447126e+05  -4.393087e+05
   9.972155e+05   2.152653e+05
   6.662786e+05   9.554053e+05
  -1.522040e+05   1.196380e+06
  -8.301825e+05   7.502630e+05
  -9.174788e+05  -2.227059e+04
  -5.405446e+05  -5.458697e+05
  -1.776155e+05  -5.414644e+05
  -1.081448e+05  -2.438168e+05
  -1.649632e+05  -1.061488e+05
  -1.536629e+04  -2.818511e+05
   3.975680e+05  -4.493137e+05
   7.394886e+05  -2.059578e+05
   5.981039e+05   3.987842e+05
  -8.558088e+04   8.235095e+05
  -8.726788e+05   5.748092e+05
  -1.133769e+06  -2.528407e+05
  -5.841770e+05  -1.021828e+06
   4.264891e+05  -1.130132e+06
   1.178625e+06  -5.373192e+05
   1.191391e+06   2.496029e+05
   6.020295e+05   6.706091e+05
  -3.677356e+04   5.971773e+05
  -3.008299e+05   3.626360e+05
  -2.268430e+05   3.409569e+05
  -1.559739e+05   5.211935e+05
  -3.161649e+05   5.339516e+05
  -5.783371e+05   1.064520e+05
  -6.035046e+05  -5.617490e+05
  -2.195923e+05  -9.400132e+05
   3.470233e+05  -6.875782e+05
   6.391017e+05   3.399124e+03
   4.053298e+05   5.898412e+05
  -1.311232e+05   6.681001e+05
  -4.804910e+05   2.814558e+05
  -3.776289e+05  -1.992010e+05
  -3.137477e+04  -4.400356e+05
   1.413929e+05  -3.962998e+05
  -3.111516e+03  -2.587219e+05
  -1.775667e+05  -2.007281e+05
  -4.398847e+03  -1.994460e+05
   5.169631e+05  -1.004945e+05
   9.334021e+05   1.696876e+05
   7.690168e+05   4.888557e+05
   4.061234e+04   6.388200e+05
  -6.960171e+05   5.016712e+05
  -8.650083e+05   1.631895e+05
  -4.333810e+05  -1.466406e+05
   9.104940e+04  -2.221554e+05
   2.222243e+05  -5.376217e+04
  -2.429762e+04   1.371428e+05
  -2.562104e+05   9.478453e+04
  -2.140117e+05  -1.784761e+05
  -2.455386e+04  -3.772247e+05
   4.095331e+04  -2.372813e+05
  -8.129061e+04   9.971714e+04
  -2.093288e+05   2.041941e+05
  -1.459490e+05  -1.103788e+05
   1.315048e+05  -5.044022e+05
   4.559461e+05  -4.861211e+05
   5.688931e+05  -7.473121e+03
   2.999362e+05   4.623984e+05
  -2.229569e+05   4.703714e+05
  -5.615156e+05   6.141865e+04
  -3.316978e+05  -3.216665e+05
   3.365261e+05  -3.202169e+05
   8.145584e+05   3.554690e+04
   5.856533e+05   4.276827e+05
  -1.807131e+05   5.476257e+05
  -7.736307e+05   3.188564e+05
  -6.792584e+05  -6.227289e+04
  -9.684499e+04  -2.772200e+05
   3.170414e+05  -1.587753e+05
   1.575969e+05   1.253345e+05
  -3.346719e+05   2.018436e+05
  -5.679522e+05  -1.267463e+05
  -2.271255e+05  -6.230824e+05
   4.152476e+05  -7.875142e+05
   7.905698e+05  -3.429375e+05
   5.954831e+05   4.354695e+05
   4.367313e+04   9.100195e+05
  -4.028212e+05   6.665986e+05
  -4.732179e+05  -6.054373e+04
  -2.390328e+05  -5.986968e+05
   6.769529e+04  -5.187529e+05
   2.631312e+05  -5.833719e+04
   2.708678e+05   2.133126e+05
   1.309230e+05   9.307962e+04
   6.833102e+03  -6.439813e+04
   5.700506e+04   1.114883e+05
   2.020456e+05   4.749926e+05
   1.333442e+05   5.575485e+05
  -2.912443e+05   1.960530e+05
  -7.334827e+05  -2.700935e+05
  -6.781098e+05  -4.515217e+05
  -8.335133e+04  -3.395084e+05
   4.877707e+05  -1.776738e+05
   5.155017e+05  -8.532021e+04
   1.353010e+05   6.794737e+02
  -9.857123e+04   1.014508e+05
   3.737328e+04   1.363484e+05
   1.931160e+05   9.413571e+04
  -4.656853e+03   6.987608e+04
  -4.041055e+05   6.849771e+04
  -5.085778e+05  -5.563268e+04
  -9.797964e+04  -3.383321e+05
   5.116543e+05  -5.144401e+05
   8.164819e+05  -2.779052e+05
   6.019287e+05   2.881469e+05
   6.681965e+04   7.139020e+05
  -4.026221e+05   6.366066e+05
  -5.314944e+05   1.900917e+05
  -3.241650e+05  -1.717140e+05
  -2.739557e+04  -1.785121e+05
   9.006305e+04   1.078829e+04
  -2.267277e+04   5.061273e+04
  -1.684810e+05  -1.735902e+05
  -1.231947e+05  -4.086315e+05
   1.218617e+05  -3.158539e+05
   3.427461e+05   1.245159e+05
   2.953284e+05   5.330010e+05
  -4.365514e+04   5.024443e+05
  -4.134362e+05   3.713944e+04
  -4.650191e+05  -4.430083e+05
  -9.747358e+04  -5.438758e+05
   3.812941e+05  -2.664764e+05
   5.193704e+05   8.867999e+04
   2.110765e+05   2.766939e+05
  -1.562153e+05   2.714943e+05
  -1.494293e+05   1.596412e+05
   1.744228e+05   3.677507e+04
   3.358413e+05   1.133434e+04
   4.438047e+04   1.453012e+05
  -4.302720e+05   3.162056e+05
  -5.960247e+05   2.696626e+05
  -3.197097e+05  -6.662004e+04
   7.939399e+04  -4.045226e+05
   2.522050e+05  -3.857583e+05
   1.595366e+05  -3.044156e+04
  -1.905308e+04   2.588287e+05
  -1.408751e+05   1.773977e+05
  -1.691353e+05  -1.322323e+05
  -9.860223e+04  -2.949551e+05
   5.052487e+04  -1.646189e+05
   1.882186e+05   5.604409e+04
   2.107439e+05   1.199153e+05
   1.178600e+05   2.565438e+04
   9.994983e+03  -3.615393e+04
  -4.337959e+04   5.381615e+04
  -7.452554e+04   2.017930e+05
  -1.345654e+05   2.114425e+05
  -1.898555e+05   7.646532e+03
  -1.461183e+05  -2.560856e+05
   3.028711e+04  -3.275476e+05
   2.352835e+05  -1.160720e+05
   2.843971e+05   1.907248e+05
   7.981669e+04   3.097152e+05
  -2.482083e+05   1.568055e+05
  -4.032914e+05  -8.751686e+04
  -2.091078e+05  -2.032634e+05
   1.566603e+05  -1.514441e+05
   3.077345e+05  -4.711981e+04
   8.618129e+04   5.035447e+03
  -2.235911e+05  -2.006450e+04
  -2.164656e+05  -1.004457e+05
   1.380859e+05  -1.673711e+05
   4.469499e+05  -1.019930e+05
