
 $NMID
 id='ANONYMOUS ', fmtdat='(2E16.6)'
 volume=1.0
 tramp=1.0
 $END
   2.762198e+07   4.303750e+05
   1.806344e+07   1.377757e+07
  -7.235646e+05   1.766868e+07
  -1.233144e+07   1.093370e+07
  -9.862312e+06   4.679356e+05
  -2.988573e+05  -4.962003e+06
   5.581677e+06  -2.078455e+06
   3.867862e+06   4.555647e+06
  -1.611857e+06   7.301390e+06
  -5.209948e+06   3.082373e+06
  -4.345243e+06  -3.607365e+06
  -4.696027e+05  -5.675257e+06
   2.638074e+06  -1.193524e+06
   1.999268e+06   4.639997e+06
  -1.732357e+06   5.414250e+06
  -4.594298e+06   3.433099e+05
  -3.259721e+06  -5.472039e+06
   1.418155e+06  -6.799765e+06
   5.329011e+06  -3.182860e+06
   5.377427e+06   1.629092e+06
   2.337170e+06   3.916362e+06
  -3.768953e+05   3.184646e+06
  -2.971252e+05   1.788696e+06
   1.686028e+06   2.031100e+06
   2.261569e+06   3.706246e+06
  -7.110958e+05   4.456046e+06
  -5.371518e+06   2.539588e+06
  -7.232636e+06  -1.036729e+06
  -4.009444e+06  -3.462993e+06
   1.429563e+06  -2.983160e+06
   3.894908e+06  -4.236486e+05
   1.503560e+06   1.862123e+06
  -2.549471e+06   1.999564e+06
  -3.953831e+06  -1.776280e+05
  -1.885505e+06  -2.972668e+06
   9.409253e+05  -3.863147e+06
   1.857682e+06  -1.765827e+06
   7.809813e+05   1.319900e+06
  -5.073941e+05   1.973406e+06
  -5.138384e+05  -5.943396e+05
   7.590319e+05  -3.123758e+06
   2.038271e+06  -2.138654e+06
   1.862555e+06   1.470863e+06
  -7.156897e+04   3.319763e+06
  -2.242682e+06   1.002406e+06
  -2.353813e+06  -2.915271e+06
   3.602793e+05  -4.072864e+06
   3.870243e+06  -1.303359e+06
   4.908331e+06   2.560831e+06
   2.160687e+06   4.132373e+06
  -2.181055e+06   2.600963e+06
  -4.357294e+06  -2.560761e+05
  -2.676273e+06  -2.068960e+06
   8.761636e+05  -1.716211e+06
   2.769902e+06   2.742030e+04
   1.562578e+06   1.287721e+06
  -8.445022e+05   8.737273e+05
  -1.580153e+06  -5.465050e+05
  -3.994857e+04  -1.259123e+06
   1.629347e+06  -4.556022e+05
   1.167693e+06   9.592735e+05
  -1.157873e+06   1.453770e+06
  -2.822728e+06   3.494817e+05
  -1.767941e+06  -1.730766e+06
   1.444466e+06  -3.336751e+06
   4.222023e+06  -3.047633e+06
   4.482721e+06  -5.612156e+05
   2.478246e+06   2.662361e+06
   1.922668e+05   4.367604e+06
  -8.077115e+05   3.667131e+06
  -7.149712e+05   1.936752e+06
  -7.832842e+05   1.055713e+06
  -1.655810e+06   1.106051e+06
  -2.660328e+06   5.829984e+05
  -2.639576e+06  -1.193941e+06
  -1.193592e+06  -2.809747e+06
   8.941504e+05  -2.374384e+06
   2.212860e+06   9.056564e+04
   1.728512e+06   2.486020e+06
  -3.568192e+05   2.762752e+06
  -2.527333e+06   8.344715e+05
  -3.064089e+06  -1.595992e+06
  -1.633106e+06  -2.772601e+06
   3.397844e+05  -2.343757e+06
   1.219609e+06  -1.320912e+06
   9.979191e+05  -8.236988e+05
   1.126106e+06  -9.366701e+05
   2.434388e+06  -7.748410e+05
   3.752602e+06   4.154688e+05
   3.105075e+06   2.323176e+06
   1.479417e+05   3.720791e+06
  -3.080446e+06   3.474991e+06
  -4.061765e+06   1.520894e+06
  -2.281820e+06  -9.312553e+05
   3.455357e+05  -2.192400e+06
   1.451548e+06  -1.485646e+06
   4.518098e+05   2.276757e+05
  -1.169781e+06   1.080752e+06
  -1.608668e+06   2.695703e+05
  -5.662796e+05  -1.014782e+06
   6.652033e+05  -1.023767e+06
   7.135411e+05   3.084080e+05
  -4.799833e+05   1.147430e+06
  -1.691763e+06  -1.529369e+04
  -1.593337e+06  -2.395785e+06
   1.087085e+05  -3.633381e+06
   2.402123e+06  -2.322218e+06
   3.661570e+06   5.594803e+05
   2.886330e+06   2.735642e+06
   6.308625e+05   2.825893e+06
  -1.324456e+06   1.388212e+06
  -1.570875e+06   6.817765e+04
  -4.580700e+05  -5.105788e+04
   3.368428e+05   6.870135e+05
  -2.659448e+05   1.101303e+06
  -1.512252e+06   5.033943e+05
  -1.753427e+06  -6.040071e+05
  -4.690963e+05  -1.132242e+06
   1.023706e+06  -5.946285e+05
   1.013830e+06   4.042386e+05
  -6.544627e+05   8.005234e+05
  -2.300701e+06   8.019622e+04
  -2.106129e+06  -1.273470e+06
  -3.884363e+02  -2.168661e+06
   2.216530e+06  -1.782543e+06
   2.637753e+06  -3.103274e+05
   1.094887e+06   1.067325e+06
  -7.735458e+05   1.194690e+06
  -1.222020e+06   1.180676e+05
  -5.810738e+04  -8.782874e+05
   1.363644e+06  -6.246273e+05
   1.608916e+06   6.306904e+05
   5.040962e+05   1.514945e+06
  -8.547019e+05   1.109566e+06
  -1.232448e+06  -4.680142e+04
  -4.125732e+05  -6.468219e+05
   6.162051e+05  -8.758290e+04
   6.191533e+05   9.460290e+05
  -6.021531e+05   1.273489e+06
  -1.884856e+06   4.050772e+05
  -1.834990e+06  -1.033270e+06
  -3.325334e+05  -1.893376e+06
   1.272569e+06  -1.508942e+06
   1.573014e+06  -2.623735e+05
   5.462775e+05   7.676087e+05
  -5.723485e+05   7.982355e+05
  -7.079902e+05   5.262316e+04
   1.676609e+04  -5.478252e+05
   6.334795e+05  -4.063944e+05
   4.570188e+05   1.268781e+05
  -2.453685e+05   2.269263e+05
  -5.859971e+05  -3.894645e+05
   2.704121e+04  -1.064759e+06
   1.230001e+06  -8.722537e+05
   1.933437e+06   3.693134e+05
   1.334770e+06   1.809657e+06
  -2.311649e+05   2.306171e+06
  -1.556179e+06   1.464897e+06
  -1.744767e+06  -1.329663e+04
  -1.034683e+06  -1.001627e+06
  -3.599656e+05  -9.811033e+05
  -2.488786e+05  -4.322387e+05
  -3.559252e+05  -2.090864e+05
  -4.821773e+04  -5.641729e+05
   7.538515e+05  -8.794913e+05
   1.407203e+06  -4.161700e+05
   1.147719e+06   7.314109e+05
  -1.387506e+05   1.562215e+06
  -1.648053e+06   1.130967e+06
  -2.184507e+06  -4.348825e+05
  -1.160129e+06  -1.943151e+06
   7.894842e+05  -2.199247e+06
   2.261191e+06  -1.075705e+06
   2.293182e+06   4.475298e+05
   1.154540e+06   1.261006e+06
  -6.067756e+04   1.118200e+06
  -5.367587e+05   6.836164e+05
  -3.767448e+05   6.728555e+05
  -2.529378e+05   1.038392e+06
  -5.889005e+05   1.064206e+06
  -1.121765e+06   2.411596e+05
  -1.197602e+06  -1.047602e+06
  -4.752051e+05  -1.796663e+06
   6.283809e+05  -1.341759e+06
   1.227564e+06  -2.105546e+04
   8.029066e+05   1.127176e+06
  -2.386492e+05   1.294710e+06
  -9.339269e+05   5.415918e+05
  -7.393953e+05  -4.018404e+05
  -5.653018e+04  -8.661200e+05
   2.846671e+05  -7.649537e+05
  -6.273731e+03  -4.842469e+05
  -3.587674e+05  -3.700819e+05
  -2.300523e+04  -3.809171e+05
   1.001677e+06  -2.156916e+05
   1.822065e+06   2.856490e+05
   1.505969e+06   9.128399e+05
   9.054103e+04   1.242836e+06
  -1.338262e+06   1.008343e+06
  -1.665240e+06   3.439071e+05
  -8.337098e+05  -2.869551e+05
   1.749371e+05  -4.450108e+05
   4.321786e+05  -1.036927e+05
  -3.149709e+04   2.820069e+05
  -4.795019e+05   2.012901e+05
  -4.248839e+05  -3.316949e+05
  -8.786545e+04  -7.195040e+05
   4.705864e+04  -4.579566e+05
  -1.486613e+05   1.822922e+05
  -3.762212e+05   3.869338e+05
  -2.827834e+05  -2.072099e+05
   2.163753e+05  -9.712477e+05
   8.531678e+05  -9.636719e+05
   1.118943e+06  -5.750803e+04
   6.258941e+05   8.738617e+05
  -4.044740e+05   9.364082e+05
  -1.091791e+06   1.676985e+05
  -6.590241e+05  -5.947830e+05
   6.358731e+05  -6.298204e+05
   1.559891e+06   3.671512e+04
   1.121895e+06   7.968503e+05
  -3.385818e+05   1.045555e+06
  -1.465200e+06   6.252123e+05
  -1.290813e+06  -9.885195e+04
  -1.903064e+05  -5.229348e+05
   6.036028e+05  -3.121065e+05
   3.162143e+05   2.393522e+05
  -6.234849e+05   4.164558e+05
  -1.101619e+06  -1.976455e+05
  -4.897492e+05  -1.178417e+06
   7.333655e+05  -1.545688e+06
   1.490868e+06  -7.173453e+05
   1.170018e+06   7.962418e+05
   1.372214e+05   1.741566e+06
  -7.366351e+05   1.291872e+06
  -9.081843e+05  -1.032045e+05
  -4.781791e+05  -1.138375e+06
   1.187355e+05  -9.897348e+05
   5.071737e+05  -1.188104e+05
   5.192916e+05   3.916424e+05
   2.426460e+05   1.667307e+05
   1.482295e+04  -1.195497e+05
   1.353650e+05   2.211626e+05
   4.215014e+05   9.054773e+05
   2.697801e+05   1.059746e+06
  -5.678579e+05   3.887933e+05
  -1.420542e+06  -4.777164e+05
  -1.310986e+06  -8.293745e+05
  -1.766871e+05  -6.507971e+05
   9.129390e+05  -3.702627e+05
   9.798531e+05  -1.871432e+05
   2.715261e+05   2.521560e+03
  -1.781403e+05   2.019972e+05
   6.305725e+04   2.511025e+05
   3.587610e+05   1.599710e+05
   1.943701e+03   1.335591e+05
  -7.535225e+05   1.620117e+05
  -9.827431e+05  -7.192778e+04
  -2.340746e+05  -6.477347e+05
   9.362130e+05  -1.029515e+06
   1.564799e+06  -5.950571e+05
   1.195873e+06   5.083260e+05
   1.777493e+05   1.364935e+06
  -7.408632e+05   1.253100e+06
  -1.010659e+06   4.088952e+05
  -6.307069e+05  -3.008422e+05
  -7.086248e+04  -3.418235e+05
   1.585883e+05   4.798729e+03
  -4.613658e+04   8.659850e+04
  -3.257946e+05  -3.288588e+05
  -2.539278e+05  -7.779914e+05
   2.117562e+05  -6.180760e+05
   6.628185e+05   2.068593e+05
   6.101959e+05   9.950039e+05
  -3.437342e+04   9.702923e+05
  -7.820515e+05   1.130619e+05
  -9.263364e+05  -8.077488e+05
  -2.316424e+05  -1.040341e+06
   7.138947e+05  -5.479757e+05
   1.012029e+06   1.339115e+05
   4.321146e+05   5.305151e+05
  -2.849593e+05   5.466584e+05
  -2.913150e+05   3.194609e+05
   3.223581e+05   5.404087e+04
   6.421927e+05  -1.216639e+03
   9.944832e+04   2.795548e+05
  -8.076989e+05   6.318369e+05
  -1.142116e+06   5.430277e+05
  -6.337109e+05  -1.206191e+05
   1.265132e+05  -7.884435e+05
   4.745373e+05  -7.630705e+05
   3.200474e+05  -7.928800e+04
  -1.258665e+04   4.923771e+05
  -2.569821e+05   3.579506e+05
  -3.324098e+05  -2.301110e+05
  -2.099029e+05  -5.603064e+05
   8.325029e+04  -3.320623e+05
   3.658333e+05   9.003554e+04
   4.172747e+05   2.270314e+05
   2.282614e+05   5.060870e+04
   1.005043e+04  -8.088631e+04
  -8.025463e+04   8.381111e+04
  -1.116021e+05   3.836203e+05
  -2.183428e+05   4.298984e+05
  -3.557109e+05   5.168749e+04
  -3.151460e+05  -4.666364e+05
   1.324090e+04  -6.292442e+05
   4.379227e+05  -2.446728e+05
   5.678313e+05   3.395346e+05
   1.799383e+05   5.846905e+05
  -4.714230e+05   3.190193e+05
  -7.888893e+05  -1.366312e+05
  -4.188306e+05  -3.771976e+05
   2.915528e+05  -3.113642e+05
   5.922320e+05  -1.227499e+05
   1.768778e+05   1.967395e+03
  -4.156779e+05  -1.331345e+04
  -4.163169e+05  -1.638458e+05
   2.423631e+05  -3.210375e+05
   8.320548e+05  -2.247338e+05
