
 $NMID
 id='ANONYMOUS ', fmtdat='(2E16.6)'
 volume=1.0
 tramp=1.0
 $END
  -5.151116e+07   1.662308e+06
  -3.162878e+07  -3.137312e+07
   6.195042e+06  -3.511062e+07
   2.485305e+07  -1.357743e+07
   1.486409e+07   6.456064e+06
  -3.030434e+06   8.499636e+06
  -8.814657e+06  -1.205665e+06
  -2.440646e+06  -8.798968e+06
   5.516592e+06  -8.262522e+06
   8.620454e+06  -1.807307e+06
   6.455636e+06   5.353223e+06
   1.033923e+06   7.622580e+06
  -3.475349e+06   2.670374e+06
  -2.527183e+06  -4.581470e+06
   3.194673e+06  -5.763541e+06
   7.091799e+06   1.119669e+06
   4.209735e+06   9.095425e+06
  -3.148196e+06   1.072728e+07
  -9.002063e+06   5.660962e+06
  -9.951793e+06  -1.467697e+06
  -6.416607e+06  -6.648844e+06
  -9.552159e+05  -8.071027e+06
   2.696888e+06  -5.757394e+06
   1.979640e+06  -2.322144e+06
  -9.123493e+05  -1.485863e+06
  -5.648968e+05  -3.482245e+06
   4.393690e+06  -4.217425e+06
   8.495910e+06  -1.015862e+06
   6.532580e+06   3.336345e+06
   6.271560e+05   4.603715e+06
  -3.049073e+06   2.659959e+06
  -2.287311e+06   3.728034e+05
   1.399055e+05  -7.311541e+05
   1.668719e+06  -6.796841e+05
   2.013137e+06   8.821462e+05
   1.008491e+06   3.336113e+06
  -1.395440e+06   3.630444e+06
  -3.122313e+06   1.582689e+05
  -1.876263e+06  -3.293960e+06
   6.878105e+05  -2.012929e+06
   5.902653e+05   1.989884e+06
  -2.024933e+06   2.061732e+06
  -2.231331e+06  -2.840237e+06
   2.193115e+06  -5.593757e+06
   6.475064e+06  -1.015436e+06
   4.886482e+06   6.259199e+06
  -1.588253e+06   7.846991e+06
  -6.682468e+06   2.416490e+06
  -6.280652e+06  -3.761162e+06
  -1.720983e+06  -5.250480e+06
   2.989531e+06  -2.413541e+06
   4.582166e+06   1.255727e+06
   2.116437e+06   3.019205e+06
  -2.170199e+06   1.976897e+06
  -4.073846e+06  -7.568797e+05
  -1.772912e+06  -2.418636e+06
   1.524606e+06  -1.274025e+06
   1.518775e+06   8.590217e+05
  -1.253782e+06   7.403257e+05
  -2.213231e+06  -1.705103e+06
   6.962685e+05  -3.218094e+06
   4.315378e+06  -1.762618e+06
   4.820291e+06   1.221840e+06
   2.137131e+06   3.578024e+06
  -1.390241e+06   4.778465e+06
  -4.164888e+06   4.539996e+06
  -5.418604e+06   1.870045e+06
  -4.289113e+06  -2.588029e+06
  -1.128342e+06  -5.437874e+06
   1.535115e+06  -4.226912e+06
   1.555205e+06  -9.738701e+05
   1.841618e+04   3.699777e+05
  -3.138412e+05  -8.647242e+05
   1.160539e+06  -1.794102e+06
   2.439297e+06  -5.335022e+05
   1.954728e+06   1.440200e+06
   2.618789e+05   1.813283e+06
  -1.221947e+06   3.126036e+05
  -1.525283e+06  -1.618128e+06
  -1.860852e+05  -2.519823e+06
   2.323076e+06  -1.637519e+06
   4.047746e+06   7.860659e+05
   3.089819e+06   3.218372e+06
   1.462851e+05   3.850824e+06
  -1.993365e+06   2.565459e+06
  -2.020366e+06   1.068630e+06
  -1.611844e+06   6.025151e+05
  -2.532214e+06   4.816872e+05
  -3.792509e+06  -5.155083e+05
  -3.119989e+06  -2.261908e+06
  -2.817980e+05  -3.551863e+06
   2.574344e+06  -3.511487e+06
   3.479657e+06  -2.073464e+06
   2.345087e+06   1.730562e+05
   4.265412e+05   1.911013e+06
  -8.086139e+05   1.769929e+06
  -5.033236e+05   1.998342e+04
   8.601568e+05  -1.198613e+06
   1.650879e+06  -4.345641e+05
   8.846621e+05   1.022282e+06
  -3.704340e+05   9.886184e+05
  -3.360000e+05  -3.151652e+05
   9.488996e+05  -5.532230e+05
   1.618220e+06   1.207935e+06
   5.245596e+05   3.064976e+06
  -1.417568e+06   2.883555e+06
  -2.689120e+06   8.746467e+05
  -2.788217e+06  -1.204037e+06
  -1.956751e+06  -2.226446e+06
  -4.793208e+05  -2.156609e+06
   9.784297e+05  -1.313246e+06
   1.337037e+06  -2.887069e+05
   4.268004e+05   1.761347e+04
  -3.391530e+05  -6.355388e+05
   3.249070e+05  -1.193757e+06
   1.664968e+06  -5.756312e+05
   1.806589e+06   7.225960e+05
   3.662683e+05   1.233871e+06
  -9.972493e+05   5.283241e+05
  -7.536874e+05  -3.544984e+05
   7.246319e+05  -4.256235e+05
   1.835934e+06   2.433916e+05
   1.477176e+06   1.082307e+06
  -1.638017e+05   1.645310e+06
  -1.904199e+06   1.481060e+06
  -2.370019e+06   3.413411e+05
  -1.105181e+06  -1.062463e+06
   7.519874e+05  -1.366712e+06
   1.380370e+06  -2.309146e+05
   2.366048e+05   9.508441e+05
  -1.289754e+06   7.077248e+05
  -1.510979e+06  -6.222634e+05
  -3.232784e+05  -1.411802e+06
   9.269094e+05  -8.464276e+05
   1.079907e+06   2.614701e+05
   2.075753e+05   6.747049e+05
  -7.080099e+05   6.930888e+04
  -6.910135e+05  -8.885182e+05
   4.284058e+05  -1.266170e+06
   1.712683e+06  -5.707094e+05
   1.815014e+06   8.151878e+05
   4.199744e+05   1.784988e+06
  -1.190866e+06   1.479939e+06
  -1.487614e+06   2.378075e+05
  -4.528826e+05  -7.360621e+05
   5.432042e+05  -7.101964e+05
   5.229081e+05  -9.869915e+04
  -9.896032e+04   2.740422e+05
  -3.768522e+05   1.658776e+05
  -4.658213e+04  -2.880833e+04
   4.130649e+05   1.092792e+05
   4.474304e+05   6.004967e+05
  -1.629010e+05   1.036055e+06
  -1.167391e+06   8.203029e+05
  -1.815600e+06  -2.763167e+05
  -1.350599e+06  -1.620156e+06
   8.104558e+04  -2.091200e+06
   1.322946e+06  -1.258871e+06
   1.428482e+06   5.487534e+04
   7.371739e+05   7.004204e+05
   2.996726e+05   4.772516e+05
   4.648589e+05   1.328424e+05
   5.947211e+05   2.675277e+05
   1.120065e+05   6.852121e+05
  -7.306681e+05   8.037067e+05
  -1.222506e+06   3.190090e+05
  -9.045311e+05  -5.645410e+05
   1.687047e+05  -1.228516e+06
   1.430662e+06  -9.718720e+05
   1.942857e+06   3.262529e+05
   1.043856e+06   1.766860e+06
  -8.052339e+05   2.080347e+06
  -2.171036e+06   9.684002e+05
  -2.031796e+06  -5.031560e+05
  -8.290070e+05  -1.106510e+06
   1.577315e+05  -7.749849e+05
   2.751753e+05  -4.214536e+05
  -2.124500e+04  -6.686330e+05
   1.074799e+04  -1.172445e+06
   5.371385e+05  -1.165617e+06
   1.122053e+06  -3.367831e+05
   1.210734e+06   8.711162e+05
   5.687944e+05   1.608327e+06
  -4.678787e+05   1.267970e+06
  -1.103805e+06   4.729101e+04
  -7.429005e+05  -1.087174e+06
   3.049482e+05  -1.218931e+06
   1.011836e+06  -3.607963e+05
   7.245049e+05   6.184707e+05
  -1.004203e+05   9.554504e+05
  -4.728319e+05   6.835194e+05
  -7.046447e+04   3.408225e+05
   3.990433e+05   2.617735e+05
   7.509623e+04   3.247304e+05
  -9.964986e+05   2.226677e+05
  -1.814989e+06  -2.095904e+05
  -1.438119e+06  -8.393122e+05
   1.900786e+03  -1.256164e+06
   1.356180e+06  -1.057666e+06
   1.576338e+06  -2.967033e+05
   7.234312e+05   4.263065e+05
  -2.185560e+05   5.177101e+05
  -4.475022e+05   3.399301e+04
  -5.329349e+04  -3.872869e+05
   3.587699e+05  -2.523854e+05
   4.360558e+05   2.729465e+05
   2.831375e+05   6.084660e+05
   1.333311e+05   4.116075e+05
   1.073027e+05  -6.776169e+04
   2.002143e+05  -2.428521e+05
   2.416301e+05   1.904081e+05
  -6.015299e+04   8.492801e+05
  -7.293063e+05   9.663505e+05
  -1.206254e+06   2.286641e+05
  -8.140632e+05  -7.540307e+05
   3.097907e+05  -1.031442e+06
   1.095352e+06  -3.768554e+05
   6.663934e+05   4.504460e+05
  -5.832026e+05   5.834329e+05
  -1.356578e+06  -2.678882e+04
  -8.613127e+05  -7.008211e+05
   4.006793e+05  -8.422089e+05
   1.254135e+06  -4.348128e+05
   1.037324e+06   1.290862e+05
   1.226659e+05   4.264492e+05
  -5.493045e+05   2.446251e+05
  -3.544507e+05  -2.482399e+05
   4.657708e+05  -4.978578e+05
   1.031769e+06  -1.369216e+04
   6.717370e+05   9.766743e+05
  -3.871444e+05   1.517669e+06
  -1.220124e+06   8.660061e+05
  -1.124856e+06  -5.760074e+05
  -2.707716e+05  -1.525723e+06
   5.701710e+05  -1.131565e+06
   7.950896e+05   1.294303e+05
   4.038463e+05   1.004993e+06
  -1.718005e+05   8.220204e+05
  -4.877347e+05   8.449298e+04
  -3.962751e+05  -2.932510e+05
  -1.216751e+05  -9.803588e+04
  -4.647846e+04   7.462808e+04
  -2.921370e+05  -2.642309e+05
  -5.004704e+05  -8.165566e+05
  -1.852175e+05  -9.082679e+05
   6.330213e+05  -3.642235e+05
   1.287222e+06   3.246487e+05
   1.111521e+06   6.521103e+05
   1.894334e+05   5.984369e+05
  -6.850350e+05   4.114530e+05
  -8.258345e+05   1.971660e+05
  -3.357329e+05  -4.777954e+04
   1.025650e+05  -2.064445e+05
   5.286639e+04  -1.567802e+05
  -1.981921e+05  -4.251247e+04
  -6.590674e+04  -1.115103e+05
   5.186099e+05  -2.591419e+05
   9.099220e+05  -5.924536e+04
   4.679071e+05   5.863207e+05
  -6.260248e+05   1.091448e+06
  -1.454102e+06   7.745584e+05
  -1.293860e+06  -2.753400e+05
  -3.341813e+05  -1.193073e+06
   5.957852e+05  -1.243447e+06
   8.792202e+05  -5.520243e+05
   5.760527e+05   1.398228e+05
   1.534690e+05   3.043738e+05
  -2.490234e+04   8.898500e+04
   7.910368e+04   9.505350e+03
   2.604477e+05   3.104858e+05
   2.436889e+05   6.822657e+05
  -1.077684e+05   6.067724e+05
  -5.904531e+05  -3.556776e+04
  -7.224569e+05  -7.529302e+05
  -2.069011e+05  -8.932078e+05
   6.147097e+05  -3.017511e+05
   9.549312e+05   5.237908e+05
   3.941359e+05   9.248863e+05
  -5.710298e+05   6.598748e+05
  -9.923343e+05   1.370510e+04
  -5.171312e+05  -5.268230e+05
   2.130571e+05  -6.402887e+05
   3.397019e+05  -3.464725e+05
  -1.787328e+05   2.525973e+04
  -5.495721e+05   8.075163e+04
  -1.577479e+05  -2.656532e+05
   6.714348e+05  -6.315227e+05
   1.084483e+06  -5.119099e+05
   7.039684e+05   1.399473e+05
  -2.802716e+04   7.723637e+05
  -4.590483e+05   7.859190e+05
  -3.981054e+05   1.899377e+05
  -9.781745e+04  -3.969310e+05
   1.742769e+05  -4.125167e+05
   3.144831e+05   7.085105e+04
   2.613919e+05   4.821527e+05
  -1.227400e+04   4.048673e+05
  -3.436234e+05   1.139808e+03
  -4.385901e+05  -2.378330e+05
  -2.140091e+05  -8.976258e+04
   5.416607e+04   1.563308e+05
   6.968897e+04   8.856666e+04
  -8.314162e+04  -2.866994e+05
  -5.726372e+04  -5.232002e+05
   2.453136e+05  -2.751775e+05
   4.708118e+05   2.606934e+05
   2.402390e+05   5.497476e+05
  -3.160911e+05   3.174558e+05
  -6.182909e+05  -1.769071e+05
  -2.762666e+05  -4.664947e+05
   4.262054e+05  -3.532750e+05
   7.906405e+05  -6.436058e+03
   4.495546e+05   2.953364e+05
  -2.301855e+05   3.922226e+05
  -5.502053e+05   2.712926e+05
  -2.441951e+05   3.561656e+04
   2.575149e+05  -1.144498e+05
   3.443674e+05  -1.368577e+04
  -9.142200e+04   2.412978e+05
  -5.710897e+05   2.897327e+05
