
 $NMID
 id='ANONYMOUS ', fmtdat='(2E16.6)'
 volume=1.0
 tramp=1.0
 $END
   3.203978e+07   1.311663e+06
   2.013117e+07   1.642992e+07
  -1.545194e+06   2.016525e+07
  -1.424522e+07   1.208261e+07
  -1.098273e+07   3.425608e+05
  -1.917658e+05  -5.543976e+06
   6.226913e+06  -2.256471e+06
   4.259254e+06   5.134209e+06
  -1.832043e+06   8.193938e+06
  -5.893883e+06   3.415276e+06
  -4.964474e+06  -4.198447e+06
  -5.274038e+05  -6.546519e+06
   3.091703e+06  -1.379378e+06
   2.369634e+06   5.313415e+06
  -1.938059e+06   6.156329e+06
  -5.209933e+06   3.144804e+05
  -3.637675e+06  -6.311436e+06
   1.747985e+06  -7.765859e+06
   6.229484e+06  -3.562563e+06
   6.246623e+06   2.023890e+06
   2.639887e+06   4.698045e+06
  -6.262052e+05   3.780725e+06
  -5.502946e+05   1.972227e+06
   1.905783e+06   2.110620e+06
   2.750122e+06   4.115152e+06
  -6.806437e+05   5.172934e+06
  -6.193556e+06   3.062575e+06
  -8.425664e+06  -1.121304e+06
  -4.681584e+06  -4.038928e+06
   1.655437e+06  -3.566715e+06
   4.565074e+06  -6.143042e+05
   1.878083e+06   2.126929e+06
  -2.796086e+06   2.442715e+06
  -4.551885e+06  -1.251946e+04
  -2.317559e+06  -3.359396e+06
   9.687147e+05  -4.536862e+06
   2.194278e+06  -2.097047e+06
   1.019398e+06   1.607080e+06
  -5.940687e+05   2.409781e+06
  -7.377267e+05  -6.524568e+05
   7.466054e+05  -3.649008e+06
   2.298399e+06  -2.481387e+06
   2.087957e+06   1.692002e+06
  -1.763286e+05   3.718649e+06
  -2.603733e+06   9.589145e+05
  -2.593558e+06  -3.477008e+06
   5.645530e+05  -4.650793e+06
   4.505889e+06  -1.416479e+06
   5.615278e+06   2.945795e+06
   2.474467e+06   4.691381e+06
  -2.458745e+06   2.968152e+06
  -4.945867e+06  -2.505354e+05
  -3.040764e+06  -2.310707e+06
   1.006673e+06  -1.913570e+06
   3.150179e+06   6.699454e+04
   1.751937e+06   1.475572e+06
  -9.835456e+05   9.821771e+05
  -1.801265e+06  -6.025248e+05
  -7.720031e+04  -1.367364e+06
   1.752153e+06  -4.908278e+05
   1.211168e+06   1.008732e+06
  -1.357289e+06   1.519836e+06
  -3.168555e+06   3.198346e+05
  -1.958590e+06  -1.996702e+06
   1.679353e+06  -3.864606e+06
   4.868754e+06  -3.576635e+06
   5.207342e+06  -6.771827e+05
   2.904821e+06   3.107315e+06
   2.410892e+05   5.062788e+06
  -9.073028e+05   4.181562e+06
  -7.479292e+05   2.174275e+06
  -7.966946e+05   1.245806e+06
  -1.844814e+06   1.394307e+06
  -3.086320e+06   8.019798e+05
  -3.131812e+06  -1.297395e+06
  -1.491456e+06  -3.225774e+06
   9.456004e+05  -2.788703e+06
   2.546778e+06   1.328462e+04
   2.061717e+06   2.801481e+06
  -3.478194e+05   3.196711e+06
  -2.923109e+06   1.014498e+06
  -3.589057e+06  -1.824580e+06
  -1.906559e+06  -3.233757e+06
   4.275298e+05  -2.733408e+06
   1.451679e+06  -1.505466e+06
   1.155297e+06  -9.078898e+05
   1.263807e+06  -1.061000e+06
   2.763114e+06  -9.165122e+05
   4.301235e+06   4.218776e+05
   3.596627e+06   2.614415e+06
   2.367676e+05   4.266085e+06
  -3.472558e+06   4.055831e+06
  -4.653102e+06   1.841685e+06
  -2.669332e+06  -1.026949e+06
   3.388382e+05  -2.554839e+06
   1.648133e+06  -1.761359e+06
   5.346773e+05   2.540830e+05
  -1.326676e+06   1.273771e+06
  -1.848266e+06   3.327763e+05
  -6.673444e+05  -1.171064e+06
   7.415315e+05  -1.198046e+06
   8.175276e+05   3.229202e+05
  -5.066952e+05   1.290437e+06
  -1.874958e+06  -1.684621e+03
  -1.814538e+06  -2.671969e+06
   4.458760e+04  -4.086812e+06
   2.643624e+06  -2.665574e+06
   4.159650e+06   5.462655e+05
   3.364966e+06   3.035241e+06
   7.995981e+05   3.212454e+06
  -1.488295e+06   1.628212e+06
  -1.807661e+06   1.169604e+05
  -5.269536e+05  -4.945491e+04
   3.991300e+05   7.816472e+05
  -2.936264e+05   1.263897e+06
  -1.730708e+06   5.924741e+05
  -2.012501e+06  -6.697192e+05
  -5.479088e+05  -1.285985e+06
   1.160346e+06  -6.974184e+05
   1.167502e+06   4.336811e+05
  -7.188065e+05   9.194315e+05
  -2.612642e+06   1.478963e+05
  -2.435562e+06  -1.391614e+06
  -5.927882e+04  -2.470182e+06
   2.492960e+06  -2.089251e+06
   3.016030e+06  -4.102577e+05
   1.271005e+06   1.206701e+06
  -8.770211e+05   1.383652e+06
  -1.406089e+06   1.466996e+05
  -7.803986e+04  -1.015753e+06
   1.556551e+06  -7.412591e+05
   1.852354e+06   6.929335e+05
   6.039030e+05   1.717369e+06
  -9.494341e+05   1.277369e+06
  -1.399706e+06  -2.945139e+04
  -4.785474e+05  -7.244660e+05
   7.050704e+05  -1.046727e+05
   7.278936e+05   1.077819e+06
  -6.681267e+05   1.477652e+06
  -2.160340e+06   5.040162e+05
  -2.129630e+06  -1.152333e+06
  -4.166163e+05  -2.167700e+06
   1.432596e+06  -1.752244e+06
   1.795932e+06  -3.287382e+05
   6.380059e+05   8.659198e+05
  -6.387926e+05   9.237616e+05
  -8.107207e+05   8.120055e+04
  -2.529877e+03  -6.206449e+05
   7.041603e+05  -4.861559e+05
   5.261584e+05   1.157033e+05
  -2.618733e+05   2.512172e+05
  -6.647781e+05  -4.323030e+05
   1.462450e+04  -1.212948e+06
   1.392489e+06  -1.021035e+06
   2.224555e+06   3.862514e+05
   1.567253e+06   2.051712e+06
  -2.165384e+05   2.651293e+06
  -1.747080e+06   1.712075e+06
  -1.993399e+06   2.761150e+04
  -1.213160e+06  -1.112570e+06
  -4.532358e+05  -1.109486e+06
  -3.100668e+05  -4.992562e+05
  -4.107969e+05  -2.473039e+05
  -5.839762e+04  -6.504100e+05
   8.458906e+05  -1.019667e+06
   1.598700e+06  -5.071718e+05
   1.332316e+06   8.055837e+05
  -1.177097e+05   1.786672e+06
  -1.860083e+06   1.330808e+06
  -2.512614e+06  -4.508116e+05
  -1.366954e+06  -2.200592e+06
   8.649154e+05  -2.529821e+06
   2.567761e+06  -1.270609e+06
   2.628375e+06   4.646523e+05
   1.346433e+06   1.408298e+06
  -3.552935e+04   1.273049e+06
  -5.877148e+05   8.021897e+05
  -4.165041e+05   7.975839e+05
  -2.781528e+05   1.207925e+06
  -6.632123e+05   1.232252e+06
  -1.286660e+06   2.945712e+05
  -1.397663e+06  -1.180663e+06
  -5.829462e+05  -2.054083e+06
   6.937563e+05  -1.554567e+06
   1.406187e+06  -4.967321e+04
   9.386251e+05   1.275658e+06
  -2.504497e+05   1.482778e+06
  -1.053262e+06   6.286375e+05
  -8.418368e+05  -4.508791e+05
  -7.150632e+04  -9.843736e+05
   3.124274e+05  -8.700463e+05
  -2.119376e+04  -5.490332e+05
  -4.229130e+05  -4.193279e+05
  -3.580378e+04  -4.381471e+05
   1.144707e+06  -2.628887e+05
   2.096051e+06   2.980592e+05
   1.742626e+06   1.018465e+06
   1.209745e+05   1.418046e+06
  -1.520789e+06   1.175531e+06
  -1.899277e+06   4.236144e+05
  -9.510649e+05  -3.119330e+05
   1.979385e+05  -5.111558e+05
   4.901305e+05  -1.238265e+05
  -3.623515e+04   3.292414e+05
  -5.475084e+05   2.448896e+05
  -4.950928e+05  -3.733987e+05
  -1.198352e+05  -8.319259e+05
   4.234978e+04  -5.343271e+05
  -1.610281e+05   2.119854e+05
  -4.155441e+05   4.566910e+05
  -3.276854e+05  -2.306872e+05
   2.247111e+05  -1.122955e+06
   9.614702e+05  -1.123879e+06
   1.291271e+06  -8.057250e+04
   7.390975e+05   1.000115e+06
  -4.529359e+05   1.085258e+06
  -1.259392e+06   2.112019e+05
  -7.718662e+05  -6.700633e+05
   7.158657e+05  -7.335961e+05
   1.785986e+06   7.391513e+03
   1.299638e+06   8.810462e+05
  -3.619894e+05   1.197533e+06
  -1.656788e+06   7.476337e+05
  -1.475975e+06  -8.057198e+04
  -2.303148e+05  -5.915933e+05
   6.826888e+05  -3.688966e+05
   3.659928e+05   2.715478e+05
  -7.104292e+05   4.959740e+05
  -1.275535e+06  -2.034332e+05
  -5.919326e+05  -1.349880e+06
   8.110425e+05  -1.800072e+06
   1.701805e+06  -8.606995e+05
   1.363782e+06   8.894263e+05
   1.967926e+05   1.997805e+06
  -8.138812e+05   1.498334e+06
  -1.039490e+06  -9.872473e+04
  -5.714595e+05  -1.291587e+06
   1.127533e+05  -1.131149e+06
   5.773153e+05  -1.445370e+05
   6.047191e+05   4.332102e+05
   2.827412e+05   1.802123e+05
   1.318816e+04  -1.350091e+05
   1.581162e+05   2.600485e+05
   5.024189e+05   1.034135e+06
   3.322471e+05   1.203933e+06
  -6.442057e+05   4.504905e+05
  -1.641410e+06  -5.168245e+05
  -1.521753e+06  -9.176884e+05
  -2.153311e+05  -7.430256e+05
   1.039814e+06  -4.506439e+05
   1.118559e+06  -2.376231e+05
   3.095608e+05   2.608105e+03
  -2.003590e+05   2.381652e+05
   7.965421e+04   2.795578e+05
   4.177783e+05   1.680170e+05
   6.208302e+03   1.561049e+05
  -8.632034e+05   2.106291e+05
  -1.133155e+06  -6.198830e+04
  -2.841323e+05  -7.500857e+05
   1.056501e+06  -1.210925e+06
   1.791915e+06  -7.137341e+05
   1.391380e+06   5.664506e+05
   2.354401e+05   1.567367e+06
  -8.274445e+05   1.454670e+06
  -1.157687e+06   4.926095e+05
  -7.350752e+05  -3.302718e+05
  -8.938918e+04  -3.944712e+05
   1.850983e+05  -5.039278e+03
  -4.691129e+04   9.707417e+04
  -3.785389e+05  -3.681956e+05
  -3.077605e+05  -8.859002e+05
   2.313550e+05  -7.167619e+05
   7.707474e+05   2.210617e+05
   7.284014e+05   1.133747e+06
  -1.762916e+04   1.123991e+06
  -9.022196e+05   1.525097e+05
  -1.088959e+06  -9.094502e+05
  -2.893351e+05  -1.195599e+06
   8.137305e+05  -6.476244e+05
   1.169141e+06   1.351275e+05
   5.044855e+05   6.056531e+05
  -3.221611e+05   6.356351e+05
  -3.309046e+05   3.683233e+05
   3.726045e+05   4.853157e+04
   7.388697e+05  -1.703507e+04
   1.196625e+05   3.216675e+05
  -9.141566e+05   7.434650e+05
  -1.298033e+06   6.423605e+05
  -7.277960e+05  -1.323894e+05
   1.308659e+05  -9.103025e+05
   5.330428e+05  -8.827013e+05
   3.722031e+05  -9.300872e+04
  -5.730088e+02   5.689903e+05
  -2.908231e+05   4.190587e+05
  -3.925072e+05  -2.557311e+05
  -2.537981e+05  -6.405495e+05
   9.325048e+04  -3.863336e+05
   4.250545e+05   9.531403e+04
   4.812929e+05   2.549849e+05
   2.601075e+05   5.420910e+04
   1.344700e+04  -9.709058e+04
  -8.155170e+04   9.576005e+04
  -1.146190e+05   4.502813e+05
  -2.451774e+05   5.114269e+05
  -4.171334e+05   7.309904e+04
  -3.808550e+05  -5.355194e+05
  -1.647054e+03  -7.334843e+05
   5.003747e+05  -2.942949e+05
   6.649331e+05   3.810305e+05
   2.224661e+05   6.708139e+05
  -5.365247e+05   3.755433e+05
  -9.135161e+05  -1.428440e+05
  -4.903290e+05  -4.264113e+05
   3.327874e+05  -3.654028e+05
   6.839623e+05  -1.536854e+05
   2.054545e+05   2.608595e+03
  -4.812885e+05   8.837068e+02
  -4.879409e+05  -1.754958e+05
   2.668336e+05  -3.784940e+05
   9.502297e+05  -2.846485e+05
