
 $NMID
 id='ANONYMOUS ', fmtdat='(2E16.6)'
 volume=1.0
 tramp=1.0
 $END
  -5.162804e+07   1.033972e+06
  -3.194598e+07  -3.047998e+07
   5.434676e+06  -3.474087e+07
   2.457878e+07  -1.477937e+07
   1.550087e+07   5.145627e+06
  -2.394658e+06   8.635275e+06
  -9.105129e+06  -2.856294e+05
  -3.302717e+06  -8.749807e+06
   5.067253e+06  -9.246377e+06
   8.832523e+06  -2.519096e+06
   6.763487e+06   5.635076e+06
   9.931650e+05   8.193774e+06
  -3.762312e+06   2.588807e+06
  -2.757334e+06  -5.350023e+06
   3.209644e+06  -6.569288e+06
   7.369498e+06   8.134863e+05
   4.538170e+06   9.327119e+06
  -3.091499e+06   1.109881e+07
  -9.213657e+06   5.695231e+06
  -9.987511e+06  -1.797276e+06
  -6.026927e+06  -6.814522e+06
  -6.131729e+05  -7.701544e+06
   2.333982e+06  -5.302458e+06
   1.035674e+06  -2.572895e+06
  -1.542634e+06  -2.486350e+06
  -2.217256e+05  -4.394117e+06
   5.458124e+06  -4.328953e+06
   9.454562e+06  -4.616781e+05
   6.723144e+06   3.940621e+06
   6.771609e+03   4.806926e+06
  -3.853316e+06   2.325836e+06
  -2.404404e+06  -3.451673e+05
   9.873859e+05  -1.306569e+06
   2.737436e+06  -5.095232e+05
   2.311154e+06   1.751579e+06
   5.003557e+05   4.076391e+06
  -1.797169e+06   3.578715e+06
  -2.830980e+06  -3.452766e+05
  -1.346884e+06  -3.389949e+06
   7.581197e+05  -1.436258e+06
   2.270859e+05   2.715576e+06
  -2.358543e+06   2.423181e+06
  -2.456970e+06  -2.830864e+06
   1.831085e+06  -5.700443e+06
   6.062081e+06  -1.145492e+06
   4.779670e+06   6.136608e+06
  -1.448389e+06   7.806144e+06
  -6.802644e+06   2.403189e+06
  -6.817218e+06  -3.966783e+06
  -2.144562e+06  -5.713701e+06
   3.194331e+06  -2.865316e+06
   5.242269e+06   1.115315e+06
   2.648108e+06   3.177914e+06
  -2.076506e+06   2.200118e+06
  -4.280011e+06  -6.360948e+05
  -1.981269e+06  -2.422333e+06
   1.539447e+06  -1.338472e+06
   1.785268e+06   8.899905e+05
  -1.005373e+06   1.031660e+06
  -2.355696e+06  -1.237875e+06
   1.794647e+05  -2.945718e+06
   3.925513e+06  -1.919446e+06
   4.901085e+06   8.912201e+05
   2.343126e+06   3.523079e+06
  -1.646471e+06   5.056087e+06
  -4.873542e+06   4.760709e+06
  -5.985139e+06   1.713138e+06
  -4.359531e+06  -3.048191e+06
  -9.793897e+05  -5.958597e+06
   1.537598e+06  -4.715529e+06
   1.511243e+06  -1.459647e+06
   2.769164e+05  -6.842547e+04
   3.155027e+05  -1.102117e+06
   1.876591e+06  -1.676716e+06
   2.917102e+06  -2.367697e+04
   2.018940e+06   2.153788e+06
  -9.139022e+04   2.310878e+06
  -1.766555e+06   2.314526e+05
  -1.850163e+06  -2.180010e+06
  -3.029416e+04  -3.017690e+06
   2.777337e+06  -1.627286e+06
   4.371084e+06   1.201716e+06
   3.084234e+06   3.598302e+06
  -9.688318e+03   3.958749e+06
  -2.059097e+06   2.545690e+06
  -1.996978e+06   1.149638e+06
  -1.703397e+06   8.122090e+05
  -2.907652e+06   6.603152e+05
  -4.394017e+06  -5.655639e+05
  -3.621946e+06  -2.651330e+06
  -2.821172e+05  -4.188505e+06
   3.168525e+06  -4.072702e+06
   4.250998e+06  -2.222991e+06
   2.710037e+06   4.641309e+05
   2.306715e+05   2.324646e+06
  -1.164872e+06   1.964221e+06
  -5.694552e+05  -6.249720e+04
   1.107738e+06  -1.355004e+06
   1.905870e+06  -4.482277e+05
   9.185515e+05   1.188103e+06
  -5.321566e+05   1.164197e+06
  -5.214244e+05  -3.607137e+05
   9.359670e+05  -8.454169e+05
   1.897544e+06   9.905402e+05
   9.747011e+05   3.323613e+06
  -1.189540e+06   3.602411e+06
  -3.016462e+06   1.515675e+06
  -3.539143e+06  -1.170848e+06
  -2.600185e+06  -2.758402e+06
  -6.142528e+05  -2.737858e+06
   1.257044e+06  -1.554993e+06
   1.637178e+06  -2.608324e+05
   5.073802e+05   3.193312e+04
  -3.939080e+05  -7.565122e+05
   3.577363e+05  -1.355245e+06
   1.883050e+06  -6.432338e+05
   2.081117e+06   7.990390e+05
   4.611872e+05   1.398351e+06
  -1.167494e+06   6.376387e+05
  -9.665112e+05  -4.268726e+05
   8.150218e+05  -6.235755e+05
   2.292373e+06   1.677732e+05
   1.936080e+06   1.319779e+06
  -1.298604e+05   2.092527e+06
  -2.319668e+06   1.828232e+06
  -2.848280e+06   3.878994e+05
  -1.281469e+06  -1.237018e+06
   8.828573e+05  -1.529611e+06
   1.550864e+06  -2.284022e+05
   2.129846e+05   1.081497e+06
  -1.525402e+06   7.946058e+05
  -1.790574e+06  -7.254883e+05
  -4.393824e+05  -1.675689e+06
   1.050468e+06  -1.074825e+06
   1.306752e+06   2.281742e+05
   3.125021e+05   7.729723e+05
  -7.905803e+05   8.630378e+04
  -7.784545e+05  -1.052948e+06
   5.581448e+05  -1.475211e+06
   2.051571e+06  -6.069818e+05
   2.118219e+06   1.023159e+06
   4.586098e+05   2.113235e+06
  -1.412594e+06   1.731109e+06
  -1.759031e+06   2.856449e+05
  -5.594263e+05  -8.659414e+05
   6.406672e+05  -8.565125e+05
   6.723372e+05  -1.005058e+05
  -8.427649e+04   4.124124e+05
  -5.248032e+05   2.778762e+05
  -1.967621e+05  -6.420070e+04
   4.195521e+05   1.226557e+04
   5.661821e+05   6.242045e+05
  -1.425184e+05   1.213171e+06
  -1.378514e+06   9.716263e+05
  -2.151910e+06  -3.529120e+05
  -1.565614e+06  -1.949342e+06
   1.449440e+05  -2.506630e+06
   1.617400e+06  -1.536479e+06
   1.769998e+06   4.724180e+04
   9.623363e+05   9.166919e+05
   3.730086e+05   7.292258e+05
   4.677036e+05   2.600296e+05
   6.079192e+05   2.927515e+05
   1.067567e+05   7.551269e+05
  -8.572563e+05   9.603775e+05
  -1.484439e+06   4.052575e+05
  -1.136609e+06  -7.126905e+05
   1.837275e+05  -1.543366e+06
   1.737413e+06  -1.185974e+06
   2.342847e+06   4.155255e+05
   1.254721e+06   2.114153e+06
  -9.299157e+05   2.459138e+06
  -2.554223e+06   1.163284e+06
  -2.452010e+06  -5.638527e+05
  -1.077626e+06  -1.337434e+06
   1.471698e+05  -1.019089e+06
   4.086280e+05  -5.827432e+05
   1.133523e+05  -7.817816e+05
   9.766354e+04  -1.318355e+06
   6.433032e+05  -1.320184e+06
   1.305016e+06  -3.581868e+05
   1.404088e+06   1.074074e+06
   6.299850e+05   1.935660e+06
  -5.990859e+05   1.500708e+06
  -1.326168e+06   4.674797e+04
  -8.845075e+05  -1.277214e+06
   3.310719e+05  -1.442620e+06
   1.147773e+06  -4.813282e+05
   8.454983e+05   6.438041e+05
  -6.317958e+04   1.078379e+06
  -4.838034e+05   8.211756e+05
  -5.417785e+04   4.453433e+05
   4.506431e+05   3.423648e+05
   6.949138e+04   3.974281e+05
  -1.160279e+06   2.561454e+05
  -2.112705e+06  -2.704382e+05
  -1.695579e+06  -1.000846e+06
  -2.955929e+04  -1.454703e+06
   1.570737e+06  -1.211904e+06
   1.862868e+06  -3.617620e+05
   8.780118e+05   4.463893e+05
  -2.396269e+05   5.761698e+05
  -5.143259e+05   6.344114e+04
  -3.150204e+04  -4.144410e+05
   4.595490e+05  -2.765622e+05
   5.034709e+05   3.379360e+05
   2.620913e+05   7.475444e+05
   9.268695e+04   4.960580e+05
   1.382346e+05  -1.187546e+05
   2.926396e+05  -3.335318e+05
   2.950249e+05   2.269532e+05
  -1.235197e+05   1.030666e+06
  -8.909393e+05   1.122994e+06
  -1.373139e+06   2.053203e+05
  -8.816809e+05  -9.197527e+05
   3.939682e+05  -1.166608e+06
   1.273794e+06  -3.651567e+05
   7.731379e+05   5.739410e+05
  -6.959995e+05   6.946017e+05
  -1.647587e+06  -3.327911e+04
  -1.092228e+06  -8.461101e+05
   4.428203e+05  -1.048978e+06
   1.529644e+06  -5.729008e+05
   1.293458e+06   1.377482e+05
   1.667526e+05   5.286601e+05
  -6.568104e+05   3.081247e+05
  -3.986059e+05  -2.857794e+05
   5.968529e+05  -5.515999e+05
   1.225234e+06   5.705234e+04
   7.190985e+05   1.206897e+06
  -5.702737e+05   1.776622e+06
  -1.513684e+06   9.570161e+05
  -1.324924e+06  -7.458995e+05
  -2.698115e+05  -1.849617e+06
   7.195066e+05  -1.372211e+06
   9.632041e+05   1.406127e+05
   4.960728e+05   1.213944e+06
  -1.800600e+05   1.013183e+06
  -5.733557e+05   1.101486e+05
  -5.040289e+05  -3.740662e+05
  -1.839627e+05  -1.367833e+05
  -4.267652e+04   1.020989e+05
  -2.847357e+05  -2.935194e+05
  -5.549085e+05  -9.807579e+05
  -2.457472e+05  -1.107683e+06
   7.130574e+05  -4.312412e+05
   1.543744e+06   4.296781e+05
   1.362582e+06   8.181528e+05
   2.160347e+05   7.139472e+05
  -8.758521e+05   4.656880e+05
  -1.013532e+06   2.267775e+05
  -3.675753e+05  -4.045079e+04
   1.455325e+05  -2.390639e+05
   2.048586e+04  -2.140517e+05
  -2.870207e+05  -8.890060e+04
  -5.452604e+04  -1.377622e+05
   6.852106e+05  -2.692929e+05
   1.084016e+06  -2.373888e+04
   4.630858e+05   7.048693e+05
  -8.361015e+05   1.249616e+06
  -1.730310e+06   8.386196e+05
  -1.471814e+06  -4.020493e+05
  -3.352754e+05  -1.447845e+06
   7.431097e+05  -1.449737e+06
   1.068895e+06  -5.928168e+05
   6.898102e+05   2.180949e+05
   1.499330e+05   3.674690e+05
  -7.613460e+04   7.195687e+04
   7.970778e+04  -2.201254e+04
   3.254852e+05   3.667829e+05
   2.874615e+05   8.262030e+05
  -1.613561e+05   7.100402e+05
  -7.128244e+05  -1.003003e+05
  -8.026521e+05  -9.602731e+05
  -1.572113e+05  -1.067053e+06
   7.742509e+05  -2.865181e+05
   1.102320e+06   7.078710e+05
   4.024708e+05   1.116595e+06
  -7.144366e+05   7.292239e+05
  -1.161514e+06  -3.539056e+04
  -5.714673e+05  -6.144504e+05
   2.735302e+05  -7.122560e+05
   3.783200e+05  -3.928569e+05
  -2.583158e+05   2.961819e+03
  -6.716412e+05   6.686986e+04
  -1.631654e+05  -3.141456e+05
   8.279063e+05  -7.351636e+05
   1.280442e+06  -6.060808e+05
   7.937051e+05   1.567030e+05
  -6.680042e+04   9.041853e+05
  -5.393373e+05   9.056323e+05
  -4.366179e+05   1.816135e+05
  -7.606635e+04  -4.954700e+05
   2.318490e+05  -4.611961e+05
   3.730818e+05   1.375822e+05
   2.864953e+05   5.880664e+05
  -3.960771e+04   4.459195e+05
  -4.078917e+05  -3.021457e+04
  -5.022721e+05  -2.729718e+05
  -2.533689e+05  -9.068108e+04
   4.000585e+04   1.560587e+05
   8.322206e+04   4.302887e+04
  -2.977753e+04  -3.685381e+05
   3.001275e+04  -5.780747e+05
   3.254021e+05  -2.431387e+05
   4.948784e+05   3.759272e+05
   1.917784e+05   6.687807e+05
  -4.103972e+05   3.446694e+05
  -7.024728e+05  -2.626629e+05
  -2.885458e+05  -5.841371e+05
   5.114758e+05  -3.990131e+05
   9.195968e+05   4.238393e+04
   5.125002e+05   3.720646e+05
  -2.896197e+05   4.283045e+05
  -6.554384e+05   2.640167e+05
  -2.608182e+05   2.773727e+04
   3.553163e+05  -8.995781e+04
   4.267562e+05   4.518723e+04
  -1.580432e+05   3.094032e+05
  -7.550257e+05   3.162691e+05
