
 $NMID
 id='ANONYMOUS ', fmtdat='(2E16.6)'
 volume=1.0
 tramp=1.0
 $END
   2.051577e+07  -6.731160e+05
   1.406761e+07   9.283309e+06
   3.763191e+05   1.306773e+07
  -8.665626e+06   8.887964e+06
  -7.466065e+06   1.032471e+06
  -5.496299e+05  -3.697639e+06
   4.150248e+06  -1.946208e+06
   3.235577e+06   3.242920e+06
  -8.425032e+05   5.706460e+06
  -3.806432e+06   2.641491e+06
  -3.413895e+06  -2.567341e+06
  -5.427297e+05  -4.299383e+06
   1.960804e+06  -9.478505e+05
   1.682163e+06   3.546622e+06
  -1.101763e+06   4.266345e+06
  -3.466213e+06   5.038740e+05
  -2.713567e+06  -3.982423e+06
   7.560510e+05  -5.185741e+06
   3.852957e+06  -2.589491e+06
   4.044701e+06   1.047358e+06
   1.803114e+06   2.820173e+06
  -2.076190e+05   2.274973e+06
  -4.168355e+04   1.242902e+06
   1.549472e+06   1.522564e+06
   1.946731e+06   2.905738e+06
  -4.533201e+05   3.533738e+06
  -4.130189e+06   2.092355e+06
  -5.604117e+06  -6.381964e+05
  -3.125476e+06  -2.551522e+06
   1.100617e+06  -2.286897e+06
   3.047388e+06  -3.544378e+05
   1.188694e+06   1.495162e+06
  -2.025340e+06   1.687839e+06
  -3.175221e+06  -4.424967e+04
  -1.556675e+06  -2.324058e+06
   6.748042e+05  -3.040376e+06
   1.383287e+06  -1.355234e+06
   5.392225e+05   1.046818e+06
  -4.237800e+05   1.483198e+06
  -4.018147e+05  -5.537413e+05
   5.423039e+05  -2.500469e+06
   1.509503e+06  -1.743068e+06
   1.488323e+06   1.018097e+06
   1.566580e+05   2.502593e+06
  -1.536268e+06   8.786438e+05
  -1.846425e+06  -2.040286e+06
   6.876116e+04  -3.039279e+06
   2.848442e+06  -1.121264e+06
   3.864944e+06   1.765665e+06
   1.853749e+06   3.096883e+06
  -1.573746e+06   2.109838e+06
  -3.394423e+06  -4.745699e+03
  -2.177704e+06  -1.472491e+06
   5.707989e+05  -1.349905e+06
   2.101464e+06  -1.059829e+05
   1.247960e+06   8.957012e+05
  -6.008875e+05   6.893741e+05
  -1.248283e+06  -3.582096e+05
  -1.214522e+05  -1.001324e+06
   1.235315e+06  -5.001387e+05
   1.023593e+06   6.210982e+05
  -7.202226e+05   1.174872e+06
  -2.107702e+06   4.494428e+05
  -1.432475e+06  -1.203554e+06
   9.937994e+05  -2.590364e+06
   3.165814e+06  -2.465732e+06
   3.421906e+06  -5.518283e+05
   1.949229e+06   1.974679e+06
   2.727637e+05   3.339356e+06
  -4.614761e+05   2.858113e+06
  -4.490775e+05   1.575100e+06
  -6.028706e+05   9.096785e+05
  -1.332051e+06   9.277903e+05
  -2.112816e+06   4.942480e+05
  -2.101744e+06  -9.109480e+05
  -9.884888e+05  -2.201453e+06
   6.675763e+05  -1.896372e+06
   1.766295e+06   1.881420e+04
   1.434662e+06   1.914344e+06
  -2.067921e+05   2.169396e+06
  -1.942484e+06   7.022401e+05
  -2.395591e+06  -1.161686e+06
  -1.311684e+06  -2.070674e+06
   1.907874e+05  -1.768867e+06
   8.594378e+05  -1.025023e+06
   7.001005e+05  -6.751136e+05
   8.238674e+05  -7.887308e+05
   1.867063e+06  -7.054429e+05
   2.938619e+06   1.821951e+05
   2.502008e+06   1.698744e+06
   2.422608e+05   2.899710e+06
  -2.295575e+06   2.814705e+06
  -3.129285e+06   1.303813e+06
  -1.801488e+06  -6.770694e+05
   2.266858e+05  -1.727391e+06
   1.102742e+06  -1.189254e+06
   3.536184e+05   1.752785e+05
  -8.880711e+05   8.752113e+05
  -1.240490e+06   2.555027e+05
  -4.599847e+05  -7.693064e+05
   4.977246e+05  -8.157325e+05
   5.815536e+05   2.221978e+05
  -3.214403e+05   9.385499e+05
  -1.331932e+06   9.480632e+04
  -1.375529e+06  -1.788159e+06
  -9.467904e+04  -2.870903e+06
   1.783661e+06  -1.956505e+06
   2.910167e+06   2.799135e+05
   2.380656e+06   2.050887e+06
   5.956071e+05   2.206360e+06
  -9.947762e+05   1.130039e+06
  -1.227245e+06   9.868303e+04
  -3.583614e+05  -2.450599e+04
   2.856721e+05   5.268629e+05
  -1.675909e+05   8.645546e+05
  -1.155136e+06   4.415306e+05
  -1.384029e+06  -4.068220e+05
  -4.053748e+05  -8.633008e+05
   7.826998e+05  -4.994696e+05
   8.157608e+05   2.876777e+05
  -4.834821e+05   6.671941e+05
  -1.814494e+06   1.565404e+05
  -1.713094e+06  -9.295586e+05
  -8.123259e+04  -1.713421e+06
   1.678126e+06  -1.478542e+06
   2.053264e+06  -3.323266e+05
   8.879152e+05   7.922881e+05
  -5.613620e+05   9.488827e+05
  -9.393364e+05   1.291951e+05
  -6.681541e+04  -6.788407e+05
   1.044347e+06  -5.297613e+05
   1.278943e+06   4.368214e+05
   4.508244e+05   1.167464e+06
  -6.269955e+05   9.034925e+05
  -9.687038e+05   1.165563e+04
  -3.492846e+05  -4.917788e+05
   4.782669e+05  -9.093344e+04
   5.159477e+05   7.204081e+05
  -4.311540e+05   1.017073e+06
  -1.462333e+06   3.773019e+05
  -1.467473e+06  -7.484567e+05
  -3.222721e+05  -1.467236e+06
   9.410250e+05  -1.220497e+06
   1.217596e+06  -2.592580e+05
   4.528522e+05   5.808380e+05
  -4.220654e+05   6.438237e+05
  -5.571619e+05   5.962177e+04
  -5.643868e+03  -4.425467e+05
   4.945332e+05  -3.485934e+05
   3.790224e+05   9.115999e+04
  -1.788355e+05   2.039149e+05
  -4.803409e+05  -2.728285e+05
  -2.528662e+04  -8.337764e+05
   9.292099e+05  -7.280179e+05
   1.525136e+06   2.212545e+05
   1.104596e+06   1.369037e+06
  -1.040151e+05   1.811945e+06
  -1.169987e+06   1.202827e+06
  -1.371469e+06   5.189749e+04
  -8.501471e+05  -7.554963e+05
  -3.134101e+05  -7.695042e+05
  -1.989906e+05  -3.360071e+05
  -2.777950e+05  -1.442894e+05
  -5.953191e+04  -4.319960e+05
   5.543158e+05  -7.172646e+05
   1.089169e+06  -3.815263e+05
   9.314415e+05   5.340723e+05
  -5.030732e+04   1.236536e+06
  -1.252467e+06   9.484485e+05
  -1.727877e+06  -2.644341e+05
  -9.784515e+05  -1.481093e+06
   5.364701e+05  -1.748777e+06
   1.728464e+06  -9.238290e+05
   1.813804e+06   2.665756e+05
   9.557402e+05   9.503012e+05
  -6.769252e+03   8.877767e+05
  -4.059489e+05   5.596710e+05
  -2.841194e+05   5.340263e+05
  -1.670840e+05   8.104126e+05
  -4.211343e+05   8.460661e+05
  -8.645457e+05   2.250584e+05
  -9.692162e+05  -7.796318e+05
  -4.299999e+05  -1.389500e+06
   4.483616e+05  -1.069673e+06
   9.610181e+05  -5.808676e+04
   6.689277e+05   8.522390e+05
  -1.374594e+05   1.021756e+06
  -7.080041e+05   4.638690e+05
  -5.947433e+05  -2.784923e+05
  -8.274055e+04  -6.721241e+05
   1.884900e+05  -6.125517e+05
  -2.314870e+04  -3.832027e+05
  -2.907743e+05  -2.777054e+05
  -3.029693e+04  -2.970276e+05
   7.727134e+05  -2.056655e+05
   1.430993e+06   1.573195e+05
   1.209831e+06   6.600601e+05
   1.194626e+05   9.675806e+05
  -1.005773e+06   8.342285e+05
  -1.289729e+06   3.290820e+05
  -6.663109e+05  -1.902906e+05
   1.172355e+05  -3.515191e+05
   3.334614e+05  -9.980688e+04
  -1.480511e+04   2.152497e+05
  -3.685904e+05   1.707999e+05
  -3.417208e+05  -2.440615e+05
  -8.689535e+04  -5.579069e+05
   2.686004e+04  -3.574649e+05
  -1.117140e+05   1.515165e+05
  -2.876749e+05   3.192348e+05
  -2.312082e+05  -1.514967e+05
   1.383088e+05  -7.680660e+05
   6.338826e+05  -7.828819e+05
   8.659816e+05  -8.277772e+04
   5.129114e+05   6.596358e+05
  -2.823947e+05   7.409604e+05
  -8.416891e+05   1.644198e+05
  -5.333554e+05  -4.438802e+05
   4.746077e+05  -5.152305e+05
   1.223985e+06  -2.601034e+04
   9.119683e+05   5.864823e+05
  -2.255620e+05   8.355937e+05
  -1.129233e+06   5.454149e+05
  -1.019627e+06  -3.194414e+04
  -1.685961e+05  -4.051609e+05
   4.625086e+05  -2.669721e+05
   2.544313e+05   1.747149e+05
  -4.754624e+05   3.429919e+05
  -8.660159e+05  -1.219393e+05
  -4.161428e+05  -9.051886e+05
   5.270484e+05  -1.227830e+06
   1.142604e+06  -6.049736e+05
   9.395015e+05   5.855908e+05
   1.635368e+05   1.357795e+06
  -5.346121e+05   1.037445e+06
  -7.164454e+05  -4.760758e+04
  -4.157166e+05  -8.760194e+05
   5.701758e+04  -7.834189e+05
   3.929027e+05  -1.126007e+05
   4.224427e+05   2.918046e+05
   1.984669e+05   1.257708e+05
   6.896480e+03  -9.557220e+04
   1.092829e+05   1.636423e+05
   3.579257e+05   6.925063e+05
   2.495681e+05   8.230719e+05
  -4.268431e+05   3.260031e+05
  -1.127344e+06  -3.274092e+05
  -1.056886e+06  -6.074310e+05
  -1.609093e+05  -5.024584e+05
   7.049859e+05  -3.174777e+05
   7.622555e+05  -1.794851e+05
   2.104690e+05  -1.085246e+04
  -1.339938e+05   1.624042e+05
   6.094754e+04   1.982551e+05
   2.896510e+05   1.181172e+05
   4.308161e+03   1.041899e+05
  -5.881031e+05   1.474321e+05
  -7.697339e+05  -2.534509e+04
  -1.977583e+05  -4.947914e+05
   7.015268e+05  -8.303008e+05
   1.199082e+06  -5.141642e+05
   9.443011e+05   3.581285e+05
   1.812760e+05   1.061020e+06
  -5.362079e+05   1.003044e+06
  -7.753146e+05   3.498377e+05
  -5.026900e+05  -2.175841e+05
  -6.477291e+04  -2.642371e+05
   1.268865e+05   3.060728e+03
  -3.327386e+04   7.311848e+04
  -2.683816e+05  -2.462506e+05
  -2.255990e+05  -6.012101e+05
   1.463614e+05  -4.887757e+05
   5.245378e+05   1.440367e+05
   5.048533e+05   7.600543e+05
  -5.080364e+02   7.565744e+05
  -6.081940e+05   1.078231e+05
  -7.465296e+05  -6.047034e+05
  -2.118809e+05  -8.038451e+05
   5.392599e+05  -4.477907e+05
   7.926177e+05   7.203344e+04
   3.541166e+05   3.965848e+05
  -2.027927e+05   4.329973e+05
  -2.136764e+05   2.601163e+05
   2.565463e+05   3.514678e+04
   5.025768e+05  -2.076964e+04
   8.586103e+04   2.137209e+05
  -6.111143e+05   5.204017e+05
  -8.731696e+05   4.658750e+05
  -4.966546e+05  -6.873924e+04
   7.308275e+04  -6.184082e+05
   3.419057e+05  -6.117138e+05
   2.421215e+05  -7.148294e+04
   3.196434e+03   3.856917e+05
  -1.888483e+05   2.855481e+05
  -2.656315e+05  -1.726442e+05
  -1.814952e+05  -4.309261e+05
   5.369519e+04  -2.584467e+05
   2.878344e+05   6.013664e+04
   3.333005e+05   1.609341e+05
   1.810000e+05   2.989956e+04
   5.674952e+03  -5.993614e+04
  -6.279794e+04   7.388469e+04
  -8.100759e+04   3.032356e+05
  -1.619434e+05   3.355017e+05
  -2.752861e+05   4.411016e+04
  -2.543203e+05  -3.564119e+05
  -3.248772e+03  -4.895103e+05
   3.352331e+05  -2.026196e+05
   4.510756e+05   2.482057e+05
   1.569277e+05   4.516640e+05
  -3.567594e+05   2.645094e+05
  -6.179394e+05  -8.200303e+04
  -3.382390e+05  -2.809070e+05
   2.165851e+05  -2.498687e+05
   4.561828e+05  -1.118911e+05
   1.349595e+05  -4.916630e+03
  -3.278936e+05  -2.136032e+03
  -3.300322e+05  -1.196756e+05
   1.836908e+05  -2.594053e+05
   6.482498e+05  -1.993568e+05
