
 $NMID
 id='ANONYMOUS ', fmtdat='(2E16.6)'
 volume=1.0
 tramp=1.0
 $END
  -5.871966e+07  -1.922834e+06
  -3.354167e+07  -3.807425e+07
   9.739100e+06  -3.943483e+07
   2.922144e+07  -1.348864e+07
   1.630397e+07   8.495273e+06
  -4.111296e+06   9.392169e+06
  -9.860756e+06  -2.069274e+06
  -2.061405e+06  -1.013987e+07
   6.861029e+06  -8.895783e+06
   9.882632e+06  -1.378908e+06
   6.936955e+06   6.534600e+06
   6.407445e+05   8.711791e+06
  -4.138054e+06   2.797833e+06
  -2.560256e+06  -5.337940e+06
   4.016712e+06  -6.265707e+06
   7.945131e+06   1.806648e+06
   4.098869e+06   1.062399e+07
  -4.365035e+06   1.193590e+07
  -1.064488e+07   5.772868e+06
  -1.122237e+07  -2.391924e+06
  -6.831035e+06  -8.052507e+06
  -4.814688e+05  -9.290129e+06
   3.545065e+06  -6.351149e+06
   2.467261e+06  -2.423537e+06
  -9.448942e+05  -1.661796e+06
  -4.539917e+05  -3.966014e+06
   5.240626e+06  -4.519805e+06
   9.709099e+06  -6.070707e+05
   7.200479e+06   4.234539e+06
   4.179542e+05   5.303830e+06
  -3.635643e+06   2.861999e+06
  -2.662066e+06   3.029011e+05
   1.297998e+05  -8.342638e+05
   1.893477e+06  -7.190407e+05
   2.254885e+06   1.084414e+06
   9.701578e+05   3.853331e+06
  -1.837094e+06   4.049781e+06
  -3.608427e+06  -3.970064e+04
  -1.924274e+06  -3.909850e+06
   9.613318e+05  -2.275904e+06
   5.853607e+05   2.283559e+06
  -2.416093e+06   2.189784e+06
  -2.310301e+06  -3.383845e+06
   2.928035e+06  -6.168392e+06
   7.455353e+06  -6.381697e+05
   5.086255e+06   7.495790e+06
  -2.404424e+06   8.797100e+06
  -7.772224e+06   2.254506e+06
  -6.838428e+06  -4.703760e+06
  -1.564355e+06  -6.046442e+06
   3.541416e+06  -2.504729e+06
   5.067851e+06   1.741508e+06
   2.157629e+06   3.551118e+06
  -2.607761e+06   2.066357e+06
  -4.555581e+06  -1.160778e+06
  -1.822600e+06  -2.870137e+06
   1.823855e+06  -1.331236e+06
   1.648192e+06   1.073082e+06
  -1.478973e+06   7.159461e+05
  -2.353270e+06  -2.124195e+06
   1.079206e+06  -3.593300e+06
   5.052911e+06  -1.649054e+06
   5.365403e+06   1.765426e+06
   2.146445e+06   4.219778e+06
  -1.907402e+06   5.327029e+06
  -5.020377e+06   4.877317e+06
  -6.275899e+06   1.762214e+06
  -4.704952e+06  -3.232050e+06
  -9.145493e+05  -6.244442e+06
   2.033699e+06  -4.661864e+06
   1.816126e+06  -9.594123e+05
  -4.703227e+04   4.334290e+05
  -3.432150e+05  -1.028169e+06
   1.417433e+06  -2.000536e+06
   2.813454e+06  -4.817452e+05
   2.151349e+06   1.737010e+06
   2.117965e+05   2.071220e+06
  -1.384272e+06   2.999179e+05
  -1.625411e+06  -1.901363e+06
  -6.079628e+04  -2.857644e+06
   2.736965e+06  -1.714422e+06
   4.547576e+06   1.153284e+06
   3.294206e+06   3.868058e+06
  -1.064213e+05   4.391800e+06
  -2.455809e+06   2.772701e+06
  -2.374123e+06   1.057591e+06
  -1.860409e+06   5.569074e+05
  -2.882392e+06   3.685489e+05
  -4.240046e+06  -8.330002e+05
  -3.369938e+06  -2.753410e+06
  -9.061056e+04  -4.021082e+06
   3.122237e+06  -3.799668e+06
   4.056560e+06  -2.131871e+06
   2.647878e+06   3.338978e+05
   3.772815e+05   2.190843e+06
  -1.019174e+06   1.960471e+06
  -5.743499e+05  -6.033800e+03
   1.043766e+06  -1.302938e+06
   1.893170e+06  -3.842527e+05
   9.367024e+05   1.216436e+06
  -4.751592e+05   1.094846e+06
  -3.495946e+05  -3.700433e+05
   1.104373e+06  -5.393421e+05
   1.719960e+06   1.491926e+06
   3.543709e+05   3.482849e+06
  -1.800426e+06   3.115971e+06
  -3.066693e+06   7.730325e+05
  -3.032913e+06  -1.536968e+06
  -2.049678e+06  -2.609196e+06
  -4.084744e+05  -2.445193e+06
   1.180263e+06  -1.421234e+06
   1.525321e+06  -2.470120e+05
   4.799409e+05   4.648266e+04
  -3.415441e+05  -7.375096e+05
   4.476240e+05  -1.324936e+06
   1.918997e+06  -5.380845e+05
   1.987569e+06   9.364783e+05
   3.276818e+05   1.414721e+06
  -1.156706e+06   5.289351e+05
  -8.213984e+05  -4.429611e+05
   8.391637e+05  -4.226468e+05
   2.037304e+06   3.929818e+05
   1.584201e+06   1.300767e+06
  -2.860826e+05   1.829442e+06
  -2.231092e+06   1.544016e+06
  -2.688695e+06   2.351090e+05
  -1.176350e+06  -1.270081e+06
   9.400610e+05  -1.495197e+06
   1.576508e+06  -1.691187e+05
   2.066833e+05   1.092139e+06
  -1.500156e+06   7.162040e+05
  -1.660277e+06  -7.984306e+05
  -2.698963e+05  -1.606729e+06
   1.096640e+06  -8.861433e+05
   1.192492e+06   3.671600e+05
   1.846889e+05   7.705461e+05
  -8.041218e+05   2.923994e+04
  -7.230041e+05  -1.047154e+06
   5.623568e+05  -1.402217e+06
   1.967571e+06  -5.375952e+05
   1.996109e+06   1.033029e+06
   3.601796e+05   2.038928e+06
  -1.437087e+06   1.590960e+06
  -1.690044e+06   1.716645e+05
  -4.607984e+05  -8.567203e+05
   6.564483e+05  -7.634171e+05
   5.926427e+05  -8.152078e+04
  -1.261400e+05   2.948017e+05
  -4.255575e+05   1.618776e+05
  -4.362465e+04  -2.559145e+04
   4.556746e+05   1.607725e+05
   4.579442e+05   7.082241e+05
  -2.540610e+05   1.154019e+06
  -1.367506e+06   8.481131e+05
  -2.027731e+06  -4.264570e+05
  -1.420042e+06  -1.911216e+06
   2.212214e+05  -2.350214e+06
   1.564817e+06  -1.332303e+06
   1.599020e+06   1.503114e+05
   7.845531e+05   8.256195e+05
   3.150825e+05   5.456575e+05
   5.257936e+05   1.780840e+05
   6.568372e+05   3.465972e+05
   8.028068e+04   7.837138e+05
  -8.745263e+05   8.569193e+05
  -1.393315e+06   2.808141e+05
  -9.806815e+05  -6.875897e+05
   2.650448e+05  -1.366116e+06
   1.668860e+06  -1.002389e+06
   2.165573e+06   4.883632e+05
   1.061511e+06   2.054137e+06
  -1.042340e+06   2.289204e+06
  -2.506752e+06   9.484514e+05
  -2.250483e+06  -6.966443e+05
  -8.578213e+05  -1.291986e+06
   2.240685e+05  -8.539267e+05
   3.271223e+05  -4.564746e+05
   1.131574e+04  -7.627670e+05
   8.648487e+04  -1.328496e+06
   6.828465e+05  -1.281816e+06
   1.288765e+06  -3.079978e+05
   1.311266e+06   1.057888e+06
   5.412174e+05   1.848026e+06
  -6.057519e+05   1.400059e+06
  -1.245130e+06  -1.621450e+04
  -7.654646e+05  -1.272223e+06
   4.237394e+05  -1.351021e+06
   1.162379e+06  -3.348021e+05
   7.714853e+05   7.491290e+05
  -1.810938e+05   1.069258e+06
  -5.803540e+05   7.339508e+05
  -1.006373e+05   3.749335e+05
   4.356605e+05   3.197641e+05
   6.556247e+04   3.708383e+05
  -1.137979e+06   1.858109e+05
  -2.033525e+06  -3.537245e+05
  -1.565917e+06  -1.037656e+06
   8.695947e+04  -1.414296e+06
   1.599549e+06  -1.103824e+06
   1.793481e+06  -2.316415e+05
   7.823137e+05   5.288899e+05
  -2.827434e+05   5.699456e+05
  -5.056490e+05   7.119264e+03
  -3.443564e+04  -4.440583e+05
   4.193840e+05  -2.644848e+05
   4.750504e+05   3.352420e+05
   2.856508e+05   7.059412e+05
   1.280949e+05   4.752801e+05
   1.222866e+05  -6.769451e+04
   2.350480e+05  -2.609145e+05
   2.593277e+05   2.294343e+05
  -1.178653e+05   9.538998e+05
  -8.830360e+05   1.043875e+06
  -1.380058e+06   1.804386e+05
  -8.745348e+05  -9.045947e+05
   4.168079e+05  -1.146255e+06
   1.263694e+06  -3.573199e+05
   7.246184e+05   5.485473e+05
  -6.936666e+05   6.194142e+05
  -1.523234e+06  -1.150564e+05
  -9.211427e+05  -8.393606e+05
   5.043156e+05  -9.174540e+05
   1.433956e+06  -4.078037e+05
   1.154744e+06   2.093199e+05
   1.106936e+05   4.853391e+05
  -6.327385e+05   2.392535e+05
  -3.838603e+05  -3.040555e+05
   5.559359e+05  -5.354507e+05
   1.166579e+06   4.640475e+04
   7.009594e+05   1.144276e+06
  -5.280217e+05   1.691557e+06
  -1.429301e+06   9.046308e+05
  -1.233521e+06  -7.174959e+05
  -2.121814e+05  -1.735592e+06
   7.102692e+05  -1.237903e+06
   8.847839e+05   1.964720e+05
   3.902153e+05   1.155039e+06
  -2.455289e+05   9.106189e+05
  -5.542516e+05   6.281028e+04
  -4.266841e+05  -3.520450e+05
  -1.294228e+05  -1.146208e+05
  -5.708116e+04   7.946646e+04
  -3.144921e+05  -3.210773e+05
  -5.139675e+05  -9.529424e+05
  -1.502732e+05  -1.031012e+06
   7.384106e+05  -3.671516e+05
   1.429798e+06   4.445453e+05
   1.209279e+06   8.003045e+05
   1.755363e+05   6.861531e+05
  -7.950914e+05   4.242146e+05
  -9.407185e+05   1.712616e+05
  -3.758201e+05  -7.816945e+04
   1.276047e+05  -2.275632e+05
   7.053133e+04  -1.689244e+05
  -2.194415e+05  -5.523920e+04
  -6.876752e+04  -1.308267e+05
   5.984483e+05  -2.647871e+05
   1.030591e+06  -1.127976e+04
   4.952122e+05   6.949491e+05
  -7.718555e+05   1.196663e+06
  -1.691138e+06   7.836726e+05
  -1.447140e+06  -3.922446e+05
  -3.051223e+05  -1.366193e+06
   7.499535e+05  -1.365180e+06
   1.027346e+06  -5.701941e+05
   6.421501e+05   1.909013e+05
   1.555133e+05   3.540095e+05
  -3.287303e+04   1.033449e+05
   8.736545e+04   1.865304e+04
   2.721222e+05   3.654186e+05
   2.315197e+05   7.827932e+05
  -1.588655e+05   6.786801e+05
  -6.650359e+05  -7.374401e+04
  -7.721212e+05  -8.931376e+05
  -1.813185e+05  -1.023527e+06
   7.128273e+05  -3.071735e+05
   1.048257e+06   6.475530e+05
   3.893431e+05   1.069162e+06
  -6.861475e+05   7.115822e+05
  -1.121991e+06  -4.615407e+04
  -5.502289e+05  -6.294425e+05
   2.825389e+05  -7.112128e+05
   4.072799e+05  -3.678472e+05
  -2.015886e+05   2.131204e+04
  -6.243726e+05   5.848019e+04
  -1.619135e+05  -3.106745e+05
   7.953812e+05  -6.704512e+05
   1.254225e+06  -5.062572e+05
   7.854902e+05   2.058082e+05
  -7.986904e+04   8.703889e+05
  -5.692019e+05   8.565632e+05
  -4.651305e+05   1.888152e+05
  -8.848035e+04  -4.539730e+05
   2.228370e+05  -4.563831e+05
   3.526087e+05   9.670646e+04
   2.656413e+05   5.599935e+05
  -4.033105e+04   4.585641e+05
  -3.887368e+05  -1.886575e+04
  -4.790169e+05  -2.975610e+05
  -2.342599e+05  -1.158106e+05
   5.068735e+04   1.826913e+05
   6.909624e+04   1.079547e+05
  -8.103936e+04  -3.303817e+05
  -3.433054e+04  -6.010140e+05
   2.966218e+05  -3.011241e+05
   5.210526e+05   3.233897e+05
   2.417792e+05   6.387658e+05
  -3.759578e+05   3.410774e+05
  -6.896569e+05  -2.375005e+05
  -2.852018e+05  -5.433400e+05
   5.033430e+05  -3.718631e+05
   8.945303e+05   4.161439e+04
   4.896368e+05   3.612746e+05
  -2.855022e+05   4.299744e+05
  -6.400511e+05   2.737300e+05
  -2.798145e+05   2.360082e+04
   2.968742e+05  -1.179988e+05
   3.910212e+05   1.903943e+03
  -1.140412e+05   2.672364e+05
  -6.583878e+05   2.956544e+05
