
 $NMID
 id='ANONYMOUS ', fmtdat='(2E16.6)'
 volume=1.0
 tramp=1.0
 $END
   2.528625e+07   1.406395e+06
   1.501652e+07   1.402124e+07
  -2.355760e+06   1.594038e+07
  -1.146121e+07   8.262613e+06
  -7.930213e+06  -7.787001e+05
   3.979407e+05  -4.144791e+06
   4.556815e+06  -1.056084e+06
   2.623390e+06   3.993006e+06
  -1.736474e+06   5.633949e+06
  -4.426541e+06   2.100151e+06
  -3.662797e+06  -3.175945e+06
  -4.077339e+05  -4.796816e+06
   2.298549e+06  -1.135487e+06
   1.755249e+06   3.665149e+06
  -1.488492e+06   4.250687e+06
  -3.852718e+06  -3.551568e+04
  -2.527686e+06  -4.835825e+06
   1.539624e+06  -5.805831e+06
   4.855178e+06  -2.666582e+06
   4.924668e+06   1.528352e+06
   2.264681e+06   3.752325e+06
  -4.436279e+05   3.301064e+06
  -8.446277e+05   1.772676e+06
   8.482094e+05   1.322244e+06
   1.853167e+06   2.476450e+06
  -2.224727e+05   3.507069e+06
  -4.198115e+06   2.422987e+06
  -6.079219e+06  -4.951858e+05
  -3.598825e+06  -2.843316e+06
   9.167341e+05  -2.776470e+06
   3.135262e+06  -7.893220e+05
   1.512921e+06   1.198841e+06
  -1.546778e+06   1.651725e+06
  -2.888398e+06   2.363474e+05
  -1.734103e+06  -2.042312e+06
   3.621082e+05  -3.161464e+06
   1.523116e+06  -1.725730e+06
   1.083537e+06   1.014994e+06
  -1.410295e+05   1.942599e+06
  -6.493204e+05  -1.179401e+05
   2.642284e+05  -2.439032e+06
   1.562755e+06  -1.722261e+06
   1.445453e+06   1.343708e+06
  -4.595773e+05   2.769683e+06
  -2.332131e+06   5.033266e+05
  -2.000043e+06  -2.915666e+06
   6.707274e+05  -3.644856e+06
   3.506986e+06  -1.035917e+06
   4.025010e+06   2.200497e+06
   1.642385e+06   3.343825e+06
  -1.769426e+06   2.012456e+06
  -3.404529e+06  -2.697731e+05
  -2.008081e+06  -1.671056e+06
   8.559130e+05  -1.311547e+06
   2.313724e+06   1.681998e+05
   1.203281e+06   1.160329e+06
  -7.746394e+05   7.108101e+05
  -1.229345e+06  -4.387173e+05
   7.741022e+04  -8.236029e+05
   1.189067e+06  -5.292349e+04
   5.113327e+05   8.959094e+05
  -1.341476e+06   9.645732e+05
  -2.374173e+06  -4.123586e+04
  -1.336133e+06  -1.616087e+06
   1.185787e+06  -2.868624e+06
   3.392612e+06  -2.701032e+06
   3.767588e+06  -6.353020e+05
   2.265822e+06   2.192211e+06
   2.804847e+05   3.673357e+06
  -7.114687e+05   2.937152e+06
  -5.676395e+05   1.348473e+06
  -3.830204e+05   7.155664e+05
  -1.000148e+06   1.029638e+06
  -1.983309e+06   7.978427e+05
  -2.221126e+06  -6.399418e+05
  -1.213541e+06  -2.072504e+06
   4.569284e+05  -1.912501e+06
   1.649624e+06  -1.074568e+05
   1.459337e+06   1.797538e+06
  -1.334077e+05   2.203636e+06
  -2.019259e+06   8.368027e+05
  -2.654829e+06  -1.170112e+06
  -1.509906e+06  -2.338973e+06
   2.769942e+05  -2.105734e+06
   1.144398e+06  -1.176755e+06
   9.328501e+05  -6.223856e+05
   9.120888e+05  -6.783182e+05
   1.900000e+06  -6.129020e+05
   2.973582e+06   2.718256e+05
   2.508751e+06   1.769682e+06
   2.222977e+05   2.927960e+06
  -2.301973e+06   2.854659e+06
  -3.148068e+06   1.405120e+06
  -1.893314e+06  -5.928273e+05
   1.017051e+05  -1.764537e+06
   1.054177e+06  -1.295146e+06
   3.897162e+05   1.406340e+05
  -8.704247e+05   9.195415e+05
  -1.286546e+06   2.656138e+05
  -5.120303e+05  -8.179084e+05
   4.623462e+05  -8.433846e+05
   5.192095e+05   1.992529e+05
  -3.722539e+05   7.990779e+05
  -1.232689e+06  -1.342507e+05
  -1.108773e+06  -1.869444e+06
   1.325766e+05  -2.670377e+06
   1.778155e+06  -1.664405e+06
   2.737525e+06   3.892562e+05
   2.251455e+06   1.964366e+06
   5.874693e+05   2.119903e+06
  -9.676516e+05   1.141573e+06
  -1.227672e+06   1.335953e+05
  -3.621143e+05  -2.448115e+04
   2.848244e+05   5.296008e+05
  -2.032031e+05   8.843635e+05
  -1.212550e+06   4.266146e+05
  -1.397588e+06  -4.624943e+05
  -3.729121e+05  -8.919276e+05
   7.880092e+05  -4.848310e+05
   7.786042e+05   2.706711e+05
  -4.804525e+05   5.886236e+05
  -1.728142e+06   1.019503e+05
  -1.620407e+06  -8.890157e+05
  -6.281030e+04  -1.630776e+06
   1.651368e+06  -1.437838e+06
   2.046869e+06  -3.234377e+05
   8.897385e+05   8.230037e+05
  -5.987637e+05   9.862106e+05
  -9.954014e+05   1.209773e+05
  -8.269553e+04  -7.177229e+05
   1.062536e+06  -5.388953e+05
   1.272944e+06   4.575951e+05
   4.131281e+05   1.160130e+06
  -6.425613e+05   8.539139e+05
  -9.383743e+05  -2.869443e+04
  -3.102197e+05  -4.905130e+05
   4.954689e+05  -7.216640e+04
   5.223068e+05   7.328358e+05
  -4.264926e+05   1.031095e+06
  -1.471989e+06   3.936230e+05
  -1.486303e+06  -7.496338e+05
  -3.211678e+05  -1.483341e+06
   9.633981e+05  -1.221734e+06
   1.226218e+06  -2.425254e+05
   4.381700e+05   5.847588e+05
  -4.252888e+05   6.338183e+05
  -5.376858e+05   7.766657e+04
  -9.152850e+03  -3.891258e+05
   4.379317e+05  -3.217217e+05
   3.155547e+05   4.450820e+04
  -1.852000e+05   1.243343e+05
  -4.346700e+05  -3.144280e+05
   1.717849e+04  -8.275197e+05
   9.430448e+05  -7.114963e+05
   1.527623e+06   2.321876e+05
   1.108435e+06   1.380615e+06
  -9.994283e+04   1.811719e+06
  -1.154081e+06   1.180409e+06
  -1.334462e+06   4.349413e+04
  -8.222785e+05  -7.077596e+05
  -3.363786e+05  -6.964593e+05
  -2.584500e+05  -3.141895e+05
  -3.127441e+05  -1.857268e+05
  -4.734102e+04  -4.667682e+05
   5.703359e+05  -7.014108e+05
   1.071853e+06  -3.574749e+05
   9.018144e+05   5.143783e+05
  -5.694274e+04   1.190358e+06
  -1.239015e+06   9.220581e+05
  -1.711951e+06  -2.671713e+05
  -9.540946e+05  -1.480545e+06
   5.734711e+05  -1.737288e+06
   1.746217e+06  -8.880692e+05
   1.782819e+06   2.951342e+05
   9.066544e+05   9.274815e+05
  -1.132586e+04   8.314234e+05
  -3.546425e+05   5.369132e+05
  -2.307215e+05   5.711541e+05
  -1.578094e+05   8.640224e+05
  -4.460776e+05   8.712405e+05
  -8.902265e+05   2.257018e+05
  -9.838101e+05  -7.821994e+05
  -4.390886e+05  -1.393711e+06
   4.428390e+05  -1.076613e+06
   9.557692e+05  -5.454678e+04
   6.522925e+05   8.652311e+05
  -1.660226e+05   1.013011e+06
  -7.236813e+05   4.160412e+05
  -5.729405e+05  -3.311884e+05
  -3.332024e+04  -6.830444e+05
   2.286762e+05  -5.842167e+05
  -1.589192e+04  -3.574221e+05
  -3.050294e+05  -2.746138e+05
  -3.693203e+04  -2.975278e+05
   7.878313e+05  -1.912518e+05
   1.451486e+06   1.797125e+05
   1.205515e+06   6.769145e+05
   8.259530e+04   9.750569e+05
  -1.044765e+06   8.287198e+05
  -1.294368e+06   3.056838e+05
  -6.388433e+05  -2.201509e+05
   1.414606e+05  -3.614982e+05
   3.361187e+05  -7.975604e+04
  -1.689460e+04   2.448291e+05
  -3.636191e+05   1.852418e+05
  -3.488655e+05  -2.472796e+05
  -1.186361e+05  -5.685425e+05
   3.145403e+02  -3.716789e+05
  -9.922887e+04   1.349265e+05
  -2.544384e+05   3.081167e+05
  -2.229827e+05  -1.528147e+05
   1.216617e+05  -7.683678e+05
   6.393611e+05  -7.886986e+05
   9.089876e+05  -8.286639e+04
   5.467573e+05   6.780725e+05
  -2.966781e+05   7.686829e+05
  -8.776698e+05   1.814976e+05
  -5.455331e+05  -4.388704e+05
   4.798222e+05  -5.085827e+05
   1.207970e+06  -1.924217e+04
   8.756265e+05   5.742231e+05
  -2.392071e+05   8.011186e+05
  -1.102683e+06   5.146826e+05
  -9.862025e+05  -3.631886e+04
  -1.595465e+05  -3.913447e+05
   4.583201e+05  -2.540932e+05
   2.591081e+05   1.872273e+05
  -4.703011e+05   3.652091e+05
  -8.828031e+05  -1.007048e+05
  -4.511450e+05  -9.101235e+05
   5.011475e+05  -1.261236e+06
   1.141001e+06  -6.384389e+05
   9.528397e+05   5.737500e+05
   1.779958e+05   1.356686e+06
  -5.219618e+05   1.028150e+06
  -7.028560e+05  -5.815161e+04
  -4.012852e+05  -8.668358e+05
   6.782292e+04  -7.580354e+05
   3.931444e+05  -1.008127e+05
   4.098231e+05   2.762226e+05
   1.846090e+05   1.078884e+05
   9.919300e+03  -8.629799e+04
   1.287378e+05   1.907906e+05
   3.688810e+05   7.023194e+05
   2.352724e+05   8.055556e+05
  -4.480823e+05   3.099393e+05
  -1.127413e+06  -3.186268e+05
  -1.040757e+06  -5.902182e+05
  -1.583288e+05  -5.052205e+05
   6.876926e+05  -3.347696e+05
   7.514064e+05  -1.810524e+05
   2.195909e+05   8.048717e+03
  -1.271969e+05   1.700911e+05
   4.697527e+04   1.752993e+05
   2.748923e+05   9.059416e+04
   1.442318e+04   1.077446e+05
  -5.692293e+05   1.749851e+05
  -7.794440e+05  -1.417483e+04
  -2.339673e+05  -5.185757e+05
   6.838537e+05  -8.660957e+05
   1.225678e+06  -5.341220e+05
   9.877299e+05   3.556118e+05
   2.021230e+05   1.065738e+06
  -5.412355e+05   1.015829e+06
  -7.852953e+05   3.728288e+05
  -5.103839e+05  -1.995639e+05
  -7.676586e+04  -2.705714e+05
   1.153146e+05  -2.275024e+04
  -3.129309e+04   5.382018e+04
  -2.567724e+05  -2.458114e+05
  -2.225005e+05  -5.964837e+05
   1.404424e+05  -4.998559e+05
   5.324765e+05   1.217273e+05
   5.368285e+05   7.516804e+05
   3.035533e+04   7.774469e+05
  -6.093599e+05   1.436383e+05
  -7.754167e+05  -5.850918e+05
  -2.346139e+05  -8.160623e+05
   5.439511e+05  -4.738581e+05
   8.122866e+05   6.485718e+04
   3.636006e+05   4.174855e+05
  -2.127304e+05   4.560991e+05
  -2.326697e+05   2.578781e+05
   2.433846e+05   1.411891e+04
   5.019325e+05  -3.165067e+04
   9.297219e+04   2.220636e+05
  -6.081250e+05   5.265320e+05
  -8.822353e+05   4.522741e+05
  -5.112372e+05  -9.136438e+04
   7.017686e+04  -6.318799e+05
   3.601566e+05  -6.169514e+05
   2.710323e+05  -7.724145e+04
   2.220019e+04   3.859427e+05
  -1.897012e+05   3.020993e+05
  -2.780337e+05  -1.527872e+05
  -1.901805e+05  -4.327589e+05
   5.587731e+04  -2.797290e+05
   2.955673e+05   5.005425e+04
   3.363457e+05   1.745544e+05
   1.763691e+05   3.962869e+04
   4.004199e+03  -7.946919e+04
  -4.624369e+04   4.572434e+04
  -4.681207e+04   3.085983e+05
  -1.351778e+05   3.793023e+05
  -2.839325e+05   8.669874e+04
  -2.959983e+05  -3.481770e+05
  -4.212884e+04  -5.080605e+05
   3.312465e+05  -2.217124e+05
   4.756888e+05   2.398801e+05
   1.762159e+05   4.509543e+05
  -3.633177e+05   2.697032e+05
  -6.384199e+05  -7.371392e+04
  -3.493619e+05  -2.816800e+05
   2.229056e+05  -2.677335e+05
   4.725147e+05  -1.319146e+05
   1.520133e+05  -1.364461e+03
  -3.183370e+05   2.768338e+04
  -3.374231e+05  -9.180344e+04
   1.586504e+05  -2.603758e+05
   6.240731e+05  -2.240968e+05
