
 $NMID
 id='ANONYMOUS ', fmtdat='(2E16.6)'
 volume=1.0
 tramp=1.0
 $END
   3.078756e+07  -2.323769e+06
   2.039015e+07   1.700273e+07
  -1.830468e+06   2.103624e+07
  -1.431633e+07   9.968174e+06
  -9.768040e+06  -2.394768e+06
   1.030744e+06  -5.367370e+06
   5.640542e+06  -2.667967e+05
   2.441025e+06   5.235364e+06
  -2.771448e+06   5.945323e+06
  -5.336317e+06   1.912348e+06
  -4.259397e+06  -3.221710e+06
  -7.979858e+05  -4.957229e+06
   2.191168e+06  -1.628516e+06
   1.761991e+06   3.265038e+06
  -1.810985e+06   4.178734e+06
  -4.533312e+06  -2.144746e+05
  -3.070232e+06  -5.511694e+06
   1.502036e+06  -6.829472e+06
   5.356471e+06  -3.715007e+06
   6.002492e+06   7.807829e+05
   3.760983e+06   3.834934e+06
   6.396025e+05   4.474319e+06
  -1.076101e+06   3.235287e+06
  -4.032867e+05   1.765230e+06
   9.681174e+05   1.702635e+06
   9.074793e+04   2.726481e+06
  -3.312009e+06   2.641261e+06
  -5.720159e+06   3.725657e+05
  -4.103664e+06  -2.247957e+06
  -4.059406e+04  -2.812991e+06
   2.305801e+06  -1.348498e+06
   1.360110e+06   2.604345e+05
  -7.762685e+05   7.862943e+05
  -1.777887e+06   2.119679e+05
  -1.368605e+06  -1.159841e+06
  -2.496714e+05  -2.473750e+06
   1.008006e+06  -2.139651e+06
   1.581953e+06   1.451078e+05
   8.226938e+05   1.915924e+06
  -3.274922e+05   7.769203e+05
  -6.038030e+04  -1.686635e+06
   1.438108e+06  -1.546310e+06
   1.611636e+06   1.637842e+06
  -8.477780e+05   3.547843e+06
  -3.535903e+06   9.842904e+05
  -3.076485e+06  -3.466037e+06
   5.621885e+05  -4.736574e+06
   4.005320e+06  -1.657756e+06
   4.280712e+06   2.249749e+06
   1.488606e+06   3.487118e+06
  -1.911950e+06   1.874448e+06
  -3.310366e+06  -5.562039e+05
  -1.766865e+06  -1.913044e+06
   1.178168e+06  -1.441280e+06
   2.635166e+06   2.375668e+05
   1.307936e+06   1.407973e+06
  -8.836881e+05   8.629818e+05
  -1.140554e+06  -5.130400e+05
   5.646618e+05  -7.385959e+05
   1.546870e+06   5.976900e+05
   1.264035e+05   1.797895e+06
  -2.238001e+06   1.372452e+06
  -3.029192e+06  -3.145481e+05
  -1.571609e+06  -2.047448e+06
   8.924351e+05  -3.095845e+06
   2.904529e+06  -2.955733e+06
   3.596651e+06  -1.126165e+06
   2.661412e+06   1.759589e+06
   6.950972e+05   3.598873e+06
  -8.252356e+05   2.961470e+06
  -9.176770e+05   1.019789e+06
  -2.750820e+05   8.958603e+04
  -2.957415e+05   6.169421e+05
  -1.169813e+06   9.401759e+05
  -1.749346e+06  -4.312660e+04
  -1.187248e+06  -1.348645e+06
   1.076557e+05  -1.416751e+06
   1.128425e+06  -1.049416e+05
   1.154639e+06   1.383145e+06
   2.400392e+04   1.865770e+06
  -1.679929e+06   1.002277e+06
  -2.651818e+06  -6.836182e+05
  -1.916689e+06  -2.108604e+06
  -9.245876e+04  -2.365787e+06
   1.150888e+06  -1.584894e+06
   1.163834e+06  -7.774689e+05
   1.039014e+06  -5.689284e+05
   1.809025e+06  -4.716755e+05
   2.746535e+06   2.830458e+05
   2.289746e+06   1.601722e+06
   2.209105e+05   2.606355e+06
  -1.939555e+06   2.556518e+06
  -2.620509e+06   1.390760e+06
  -1.656511e+06  -2.859546e+05
  -1.245374e+05  -1.423823e+06
   7.165432e+05  -1.196529e+06
   3.406570e+05   4.034435e+04
  -6.804562e+05   8.386431e+05
  -1.168940e+06   2.997317e+05
  -5.723308e+05  -7.108128e+05
   3.297307e+05  -7.201736e+05
   3.478585e+05   2.328728e+05
  -5.723413e+05   5.894881e+05
  -1.250487e+06  -5.321418e+05
  -7.386169e+05  -2.067441e+06
   6.536678e+05  -2.355518e+06
   1.904758e+06  -1.074282e+06
   2.294315e+06   6.827607e+05
   1.684802e+06   1.746829e+06
   4.002257e+05   1.737068e+06
  -7.816225e+05   9.752705e+05
  -1.017881e+06   1.648136e+05
  -3.166250e+05  -1.532178e+04
   2.531439e+05   4.675627e+05
  -1.963990e+05   8.456763e+05
  -1.151134e+06   4.297087e+05
  -1.308084e+06  -4.585687e+05
  -3.164019e+05  -8.614534e+05
   7.209307e+05  -4.143637e+05
   6.173065e+05   2.661229e+05
  -5.125081e+05   4.212339e+05
  -1.467865e+06  -7.664614e+04
  -1.247746e+06  -8.319820e+05
   6.587757e+04  -1.338567e+06
   1.447291e+06  -1.172901e+06
   1.779774e+06  -2.691802e+05
   8.147165e+05   7.507452e+05
  -5.206396e+05   9.544917e+05
  -9.482150e+05   1.658205e+05
  -1.417768e+05  -6.577179e+05
   9.378502e+05  -5.083321e+05
   1.129042e+06   4.304743e+05
   3.022956e+05   1.049211e+06
  -6.454955e+05   7.001745e+05
  -8.327962e+05  -1.187155e+05
  -2.166536e+05  -4.830033e+05
   4.866580e+05  -6.841072e+04
   4.921769e+05   6.450707e+05
  -3.370093e+05   9.188372e+05
  -1.270732e+06   3.902140e+05
  -1.324628e+06  -6.193397e+05
  -3.062848e+05  -1.310659e+06
   8.597883e+05  -1.095678e+06
   1.095883e+06  -2.011062e+05
   3.639519e+05   5.356044e+05
  -3.913031e+05   5.446992e+05
  -4.235045e+05   6.170351e+04
   5.531101e+04  -2.747798e+05
   3.467347e+05  -1.805342e+05
   1.395963e+05   6.079563e+04
  -2.684607e+05   2.275456e+04
  -3.782131e+05  -3.766082e+05
   6.614550e+04  -7.655121e+05
   8.506601e+05  -6.245811e+05
   1.347159e+06   1.994690e+05
   9.934489e+05   1.200848e+06
  -7.143251e+04   1.567340e+06
  -1.005682e+06   9.802151e+05
  -1.120709e+06  -1.541267e+04
  -6.149742e+05  -5.848826e+05
  -2.246370e+05  -4.768828e+05
  -2.714717e+05  -1.613915e+05
  -3.733945e+05  -1.609367e+05
  -7.926310e+04  -4.606559e+05
   5.252113e+05  -6.138060e+05
   9.333621e+05  -2.703937e+05
   7.238411e+05   4.474523e+05
  -1.056893e+05   9.827329e+05
  -1.083848e+06   7.619369e+05
  -1.472722e+06  -2.418946e+05
  -8.091918e+05  -1.312815e+06
   5.489270e+05  -1.550847e+06
   1.583102e+06  -7.617969e+05
   1.550145e+06   3.246850e+05
   6.996868e+05   8.390173e+05
  -8.699439e+04   6.580241e+05
  -2.706489e+05   3.707417e+05
  -7.977054e+04   4.716502e+05
  -4.851748e+04   8.051836e+05
  -3.800476e+05   8.238140e+05
  -8.033907e+05   2.366592e+05
  -8.812076e+05  -6.572894e+05
  -4.067729e+05  -1.201788e+06
   3.630301e+05  -9.395996e+05
   8.299917e+05  -4.107482e+04
   5.698782e+05   7.874184e+05
  -1.857613e+05   9.095078e+05
  -7.116749e+05   3.281175e+05
  -5.454686e+05  -3.789249e+05
   1.262877e+04  -6.746247e+05
   2.838892e+05  -5.300587e+05
   2.960407e+04  -2.883514e+05
  -2.791929e+05  -2.106903e+05
  -4.402196e+04  -2.474357e+05
   7.192516e+05  -1.753743e+05
   1.317022e+06   1.430195e+05
   1.070218e+06   6.061585e+05
   4.366836e+04   9.086189e+05
  -9.582857e+05   7.748714e+05
  -1.161191e+06   2.500357e+05
  -5.641877e+05  -2.633246e+05
   1.359529e+05  -3.604835e+05
   3.216963e+05  -5.086108e+04
   2.590866e+04   2.491853e+05
  -2.860842e+05   1.715438e+05
  -3.155503e+05  -2.056717e+05
  -1.597135e+05  -4.593121e+05
  -5.395281e+04  -3.023696e+05
  -9.141943e+04   7.999853e+04
  -1.926415e+05   2.114532e+05
  -1.884685e+05  -1.403499e+05
   7.555181e+04  -6.436584e+05
   5.456953e+05  -7.065777e+05
   8.412260e+05  -1.419563e+05
   5.477242e+05   5.587867e+05
  -2.298743e+05   7.235336e+05
  -7.794648e+05   2.351865e+05
  -4.833255e+05  -3.533938e+05
   4.282074e+05  -4.426063e+05
   1.036332e+06   6.397535e+03
   7.011501e+05   5.272898e+05
  -2.664554e+05   6.723568e+05
  -9.630817e+05   3.789447e+05
  -8.213116e+05  -7.679404e+04
  -1.105592e+05  -3.344811e+05
   4.101520e+05  -2.020343e+05
   2.505478e+05   1.704091e+05
  -3.684740e+05   3.411820e+05
  -7.584514e+05  -3.180540e+04
  -4.473688e+05  -7.439322e+05
   3.483730e+05  -1.101472e+06
   9.363740e+05  -5.988381e+05
   8.288001e+05   4.585430e+05
   1.786002e+05   1.153260e+06
  -4.436948e+05   8.657455e+05
  -6.085548e+05  -7.753353e+04
  -3.239952e+05  -7.588219e+05
   1.025056e+05  -6.439034e+05
   3.580175e+05  -7.732449e+04
   3.210039e+05   2.359496e+05
   1.194243e+05   9.100739e+04
   2.538646e+04  -6.767004e+04
   1.755080e+05   1.702556e+05
   3.517260e+05   6.040794e+05
   1.664035e+05   6.972209e+05
  -4.358611e+05   2.824185e+05
  -9.676457e+05  -2.589476e+05
  -8.625367e+05  -5.074008e+05
  -1.417783e+05  -4.437672e+05
   5.484339e+05  -2.909411e+05
   6.352264e+05  -1.485628e+05
   2.282943e+05   1.519397e+04
  -9.069850e+04   1.475706e+05
  -7.907142e+03   1.430555e+05
   1.829651e+05   6.387969e+04
   3.171554e+04   8.357053e+04
  -4.305466e+05   1.627951e+05
  -6.729311e+05   2.042727e+04
  -2.842938e+05  -4.258785e+05
   5.158170e+05  -7.741026e+05
   1.063922e+06  -5.331860e+05
   9.079568e+05   2.371267e+05
   2.143529e+05   8.990464e+05
  -4.501505e+05   9.078584e+05
  -6.580843e+05   3.716790e+05
  -4.286780e+05  -1.364574e+05
  -9.281750e+04  -2.252481e+05
   4.910973e+04  -3.574023e+04
  -5.173277e+04   2.087489e+04
  -2.102351e+05  -2.275546e+05
  -1.869925e+05  -5.156418e+05
   9.617024e+04  -4.406025e+05
   4.417134e+05   6.395421e+04
   4.977381e+05   5.939837e+05
   9.788965e+04   6.560912e+05
  -4.785139e+05   1.731642e+05
  -6.833224e+05  -4.380840e+05
  -2.536200e+05  -6.887490e+05
   4.371485e+05  -4.528483e+05
   7.188305e+05   1.386551e+04
   3.601724e+05   3.714762e+05
  -1.601692e+05   4.399031e+05
  -2.267299e+05   2.505337e+05
   1.646159e+05   4.242369e+03
   4.186865e+05  -4.333109e+04
   1.026326e+05   1.916862e+05
  -5.120096e+05   4.638395e+05
  -7.931048e+05   3.945065e+05
  -4.939177e+05  -8.264153e+04
   3.439691e+04  -5.607844e+05
   3.230669e+05  -5.698617e+05
   2.610753e+05  -1.170744e+05
   4.501647e+04   3.076432e+05
  -1.397535e+05   2.844600e+05
  -2.286259e+05  -8.895884e+04
  -1.809336e+05  -3.639608e+05
   1.888720e+04  -2.718275e+05
   2.517701e+05   1.846527e+04
   3.160411e+05   1.615744e+05
   1.614016e+05   5.160507e+04
  -2.706086e+04  -9.031847e+04
  -6.006040e+04  -1.768575e+04
   1.022024e+04   2.257859e+05
  -2.015186e+04   3.445455e+05
  -1.954022e+05   1.405772e+05
  -2.974216e+05  -2.307984e+05
  -1.131969e+05  -4.072796e+05
   2.537362e+05  -2.118558e+05
   4.320603e+05   1.596319e+05
   1.783054e+05   3.616054e+05
  -3.138136e+05   2.521384e+05
  -5.673712e+05  -2.046150e+04
  -3.195169e+05  -2.272891e+05
   1.740305e+05  -2.643216e+05
   4.004101e+05  -1.646508e+05
   1.572331e+05  -2.192905e+04
  -2.224038e+05   4.821782e+04
  -2.625506e+05  -3.375254e+04
   1.047302e+05  -1.925137e+05
   4.758081e+05  -1.935903e+05
