
 $NMID
 id='ANONYMOUS ', fmtdat='(2E16.6)'
 volume=1.0
 tramp=1.0
 $END
  -4.003274e+07  -2.344365e+06
  -2.365075e+07  -2.365351e+07
   4.701742e+06  -2.597335e+07
   1.914033e+07  -1.193559e+07
   1.250754e+07   2.807460e+06
  -1.348201e+06   6.689447e+06
  -7.345807e+06   6.544880e+05
  -3.336141e+06  -6.768864e+06
   3.638848e+06  -8.223057e+06
   7.164536e+06  -2.539392e+06
   5.399140e+06   5.009166e+06
   3.796689e+05   7.141461e+06
  -3.411051e+06   1.729536e+06
  -2.247665e+06  -5.289070e+06
   2.737026e+06  -6.028970e+06
   6.005992e+06   5.144438e+05
   3.551900e+06   7.685401e+06
  -2.768203e+06   8.923478e+06
  -7.636648e+06   4.044091e+06
  -7.684851e+06  -2.273895e+06
  -3.817964e+06  -5.766858e+06
   3.600809e+05  -5.473177e+06
   1.560150e+06  -3.333241e+06
  -4.049617e+05  -2.222551e+06
  -2.010049e+06  -3.322192e+06
   4.393137e+05  -4.672980e+06
   5.856642e+06  -3.313486e+06
   8.659053e+06   7.678032e+05
   5.302637e+06   4.154734e+06
  -1.052355e+06   4.019908e+06
  -4.200609e+06   1.207466e+06
  -2.041705e+06  -1.355233e+06
   1.950256e+06  -1.806842e+06
   3.612630e+06  -1.036584e+05
   2.167053e+06   2.626921e+06
  -4.465341e+05   4.209769e+06
  -2.096122e+06   2.630769e+06
  -1.793862e+06  -1.100873e+06
  -1.642388e+05  -2.835419e+06
   7.802396e+05  -2.840096e+05
  -4.000285e+05   3.123679e+06
  -2.360765e+06   2.281620e+06
  -2.076643e+06  -2.262804e+06
   1.160043e+06  -4.436331e+06
   4.146888e+06  -7.675882e+05
   3.257311e+06   4.780146e+06
  -1.272398e+06   5.888739e+06
  -5.516049e+06   1.540665e+06
  -5.830037e+06  -3.609114e+06
  -2.011510e+06  -5.109385e+06
   2.842411e+06  -2.699759e+06
   4.889217e+06   8.582171e+05
   2.639459e+06   2.749801e+06
  -1.555990e+06   1.901369e+06
  -3.544826e+06  -5.026661e+05
  -1.703602e+06  -1.945553e+06
   1.263166e+06  -1.050847e+06
   1.703433e+06   7.913086e+05
  -4.622001e+05   1.134395e+06
  -1.926807e+06  -4.080593e+05
  -4.232109e+05  -1.855661e+06
   2.565066e+06  -1.497018e+06
   3.827828e+06   4.432730e+05
   1.930171e+06   2.729770e+06
  -1.825780e+06   4.221920e+06
  -4.925414e+06   3.802294e+06
  -5.476546e+06   8.762492e+05
  -3.350498e+06  -3.169374e+06
  -3.190466e+05  -5.359448e+06
   1.365544e+06  -4.236770e+06
   1.136384e+06  -1.723036e+06
   5.427587e+05  -6.607989e+05
   1.142769e+06  -1.202840e+06
   2.514198e+06  -1.092801e+06
   2.938997e+06   7.832363e+05
   1.592385e+06   2.727496e+06
  -6.291443e+05   2.482570e+06
  -2.125943e+06   2.078841e+04
  -1.809960e+06  -2.515471e+06
   2.945501e+05  -3.020869e+06
   2.837739e+06  -1.144458e+06
   3.785417e+06   1.670914e+06
   2.233646e+06   3.431254e+06
  -3.894673e+05   3.207780e+06
  -1.789779e+06   1.848097e+06
  -1.551682e+06   9.086766e+05
  -1.461421e+06   8.455752e+05
  -2.775974e+06   6.499567e+05
  -4.192737e+06  -6.609813e+05
  -3.389348e+06  -2.707582e+06
  -7.224279e+04  -4.116569e+06
   3.404645e+06  -3.808207e+06
   4.426018e+06  -1.778815e+06
   2.587435e+06   8.558571e+05
  -1.694842e+05   2.382798e+06
  -1.462569e+06   1.750383e+06
  -5.312953e+05  -1.837616e+05
   1.245415e+06  -1.225230e+06
   1.838465e+06  -2.943515e+05
   7.111591e+05   1.182512e+06
  -6.741442e+05   1.123736e+06
  -6.434632e+05  -3.538367e+05
   7.242834e+05  -1.011468e+06
   1.790752e+06   5.318344e+05
   1.239862e+06   2.933059e+06
  -7.181754e+05   3.698494e+06
  -2.802628e+06   1.937016e+06
  -3.706610e+06  -9.660014e+05
  -2.799820e+06  -2.932175e+06
  -5.740598e+05  -2.928335e+06
   1.405346e+06  -1.492740e+06
   1.687264e+06  -1.088641e+05
   5.010029e+05   6.160819e+04
  -3.526902e+05  -7.639371e+05
   3.715377e+05  -1.253057e+06
   1.776044e+06  -5.183390e+05
   1.950501e+06   7.971121e+05
   4.329334e+05   1.318938e+06
  -1.156785e+06   5.998718e+05
  -1.023488e+06  -4.596882e+05
   7.688200e+05  -7.236146e+05
   2.383818e+06   9.825410e+04
   2.080326e+06   1.401597e+06
  -1.184707e+05   2.220589e+06
  -2.418939e+06   1.809784e+06
  -2.867083e+06   2.664403e+05
  -1.185588e+06  -1.239192e+06
   9.183680e+05  -1.371485e+06
   1.439718e+06  -1.139105e+05
   9.117177e+04   1.024284e+06
  -1.530056e+06   6.786043e+05
  -1.738722e+06  -7.635931e+05
  -4.398105e+05  -1.666779e+06
   1.013640e+06  -1.103054e+06
   1.306902e+06   1.748902e+05
   3.560153e+05   7.389628e+05
  -7.270643e+05   5.982950e+04
  -6.846861e+05  -1.067773e+06
   6.611027e+05  -1.409033e+06
   2.072647e+06  -4.485438e+05
   2.017716e+06   1.149578e+06
   3.334426e+05   2.098226e+06
  -1.454751e+06   1.630705e+06
  -1.738208e+06   2.245145e+05
  -5.464433e+05  -8.643279e+05
   6.574808e+05  -8.385556e+05
   7.280454e+05  -5.842470e+04
  -5.528559e+04   5.044660e+05
  -6.144081e+05   3.543129e+05
  -3.580831e+05  -9.831268e+04
   3.261133e+05  -1.068249e+05
   5.745060e+05   5.310278e+05
  -1.237330e+05   1.171594e+06
  -1.386374e+06   9.099293e+05
  -2.110761e+06  -4.512236e+05
  -1.437161e+06  -2.011013e+06
   2.844420e+05  -2.500750e+06
   1.702221e+06  -1.512500e+06
   1.831052e+06   8.306502e+04
   1.023666e+06   1.032139e+06
   3.712192e+05   9.197476e+05
   3.608481e+05   3.950181e+05
   4.760946e+05   2.858169e+05
   4.706762e+04   6.831800e+05
  -8.668901e+05   9.263129e+05
  -1.517017e+06   3.826619e+05
  -1.173544e+06  -7.882615e+05
   2.103857e+05  -1.615688e+06
   1.800112e+06  -1.151626e+06
   2.343481e+06   5.213686e+05
   1.185526e+06   2.149925e+06
  -9.735843e+05   2.383700e+06
  -2.535487e+06   1.075758e+06
  -2.446845e+06  -6.007260e+05
  -1.127343e+06  -1.381054e+06
   1.293324e+05  -1.114024e+06
   5.143151e+05  -6.607723e+05
   2.995478e+05  -7.610615e+05
   2.434639e+05  -1.217721e+06
   6.903306e+05  -1.208437e+06
   1.271997e+06  -2.594461e+05
   1.313349e+06   1.156896e+06
   5.045479e+05   1.966137e+06
  -6.941095e+05   1.458394e+06
  -1.330259e+06  -9.719725e+03
  -8.320617e+05  -1.276434e+06
   3.411101e+05  -1.406912e+06
   1.086066e+06  -4.946260e+05
   7.919452e+05   5.612081e+05
  -3.734695e+04   9.958267e+05
  -4.162019e+05   8.021471e+05
  -3.298337e+04   4.835681e+05
   4.082772e+05   3.909119e+05
   3.312374e+04   4.095010e+05
  -1.128855e+06   2.029130e+05
  -2.030181e+06  -3.662435e+05
  -1.627239e+06  -1.052494e+06
  -1.416479e+04  -1.394444e+06
   1.549946e+06  -1.090867e+06
   1.842169e+06  -3.037351e+05
   8.712186e+05   4.014341e+05
  -2.352878e+05   5.156118e+05
  -4.895498e+05   7.096312e+04
   2.159999e+04  -3.593578e+05
   5.028716e+05  -2.322668e+05
   4.697983e+05   3.675267e+05
   1.490442e+05   7.795584e+05
  -8.307942e+02   5.045947e+05
   1.512232e+05  -1.573847e+05
   3.619308e+05  -3.743853e+05
   2.935989e+05   2.347730e+05
  -2.159864e+05   1.042259e+06
  -9.486406e+05   1.052330e+06
  -1.298747e+06   7.702136e+04
  -7.428979e+05  -9.709452e+05
   4.619450e+05  -1.073336e+06
   1.243719e+06  -2.210464e+05
   7.249669e+05   6.393090e+05
  -7.152614e+05   6.645741e+05
  -1.668897e+06  -8.930968e+04
  -1.130851e+06  -8.861359e+05
   4.330558e+05  -1.076032e+06
   1.574872e+06  -5.807155e+05
   1.343677e+06   1.597029e+05
   1.719403e+05   5.527724e+05
  -6.640489e+05   3.023719e+05
  -3.579509e+05  -2.868421e+05
   6.610037e+05  -4.809473e+05
   1.212078e+06   1.829817e+05
   5.806258e+05   1.275035e+06
  -7.529801e+05   1.711208e+06
  -1.606186e+06   8.142344e+05
  -1.273658e+06  -8.541709e+05
  -1.452302e+05  -1.882531e+06
   8.055336e+05  -1.365824e+06
   9.682519e+05   1.559961e+05
   4.685083e+05   1.239422e+06
  -1.834627e+05   1.036670e+06
  -5.632838e+05   1.002870e+05
  -5.249746e+05  -4.152444e+05
  -2.234816e+05  -1.632898e+05
  -3.066852e+04   1.143201e+05
  -1.987411e+05  -2.792607e+05
  -4.696607e+05  -1.002676e+06
  -2.357105e+05  -1.135294e+06
   6.748897e+05  -3.983962e+05
   1.529939e+06   5.277391e+05
   1.369303e+06   9.036400e+05
   1.789136e+05   7.170073e+05
  -9.541709e+05   4.064592e+05
  -1.047380e+06   1.823083e+05
  -3.252399e+05  -3.514416e+04
   1.796297e+05  -2.251598e+05
  -2.242337e+04  -2.409450e+05
  -3.419041e+05  -1.396775e+05
  -2.212402e+04  -1.453164e+05
   7.679296e+05  -2.014386e+05
   1.078053e+06   6.730771e+04
   3.271323e+05   7.263927e+05
  -9.778779e+05   1.156534e+06
  -1.746108e+06   6.758651e+05
  -1.369273e+06  -5.370565e+05
  -2.120925e+05  -1.480556e+06
   8.261452e+05  -1.377663e+06
   1.107905e+06  -4.780342e+05
   6.831480e+05   2.988881e+05
   9.863079e+04   3.767053e+05
  -1.328648e+05   3.175159e+04
   6.164677e+04  -5.677768e+04
   3.276537e+05   3.706802e+05
   2.541660e+05   8.448558e+05
  -2.228358e+05   6.854561e+05
  -7.169652e+05  -1.900303e+05
  -6.993348e+05  -1.055126e+06
  -1.698616e+04  -1.070947e+06
   8.290218e+05  -1.756976e+05
   1.032142e+06   8.375663e+05
   2.846378e+05   1.141013e+06
  -7.751585e+05   6.349887e+05
  -1.129305e+06  -1.350427e+05
  -4.940497e+05  -6.157970e+05
   3.204703e+05  -6.399861e+05
   3.593197e+05  -3.527342e+05
  -3.095115e+05  -3.500680e+04
  -6.891154e+05   1.049684e+04
  -1.225811e+05  -3.155125e+05
   8.791240e+05  -6.823016e+05
   1.277537e+06  -5.524826e+05
   7.297352e+05   1.729954e+05
  -1.362299e+05   8.775742e+05
  -5.585110e+05   8.442085e+05
  -3.979279e+05   1.122973e+05
  -1.305482e+04  -5.216795e+05
   2.748071e+05  -4.158257e+05
   3.658254e+05   2.102910e+05
   2.360554e+05   6.097855e+05
  -8.479142e+04   4.001810e+05
  -4.031809e+05  -8.023665e+04
  -4.651062e+05  -2.768836e+05
  -2.456352e+05  -7.998071e+04
   4.863708e+03   1.225812e+05
   7.855934e+04  -2.623154e+04
   6.143018e+04  -4.005383e+05
   1.642947e+05  -5.246376e+05
   3.727827e+05  -1.342118e+05
   4.050018e+05   4.676608e+05
   5.954454e+04   6.898463e+05
  -4.590886e+05   2.908115e+05
  -6.508328e+05  -3.455701e+05
  -2.208956e+05  -6.235657e+05
   5.261272e+05  -3.533532e+05
   8.871641e+05   1.318940e+05
   4.699656e+05   4.107519e+05
  -3.212689e+05   3.708024e+05
  -6.615974e+05   1.714514e+05
  -2.256501e+05   4.073454e+02
   4.132475e+05  -2.587877e+04
   4.433055e+05   1.293268e+05
  -2.228101e+05   3.287812e+05
  -8.466255e+05   2.579152e+05
