
 $NMID
 id='ANONYMOUS ', fmtdat='(2E16.6)'
 volume=1.0
 tramp=1.0
 $END
  -3.632294e+07   1.510541e+06
  -2.379821e+07  -1.948725e+07
   1.888491e+06  -2.422258e+07
   1.664097e+07  -1.251261e+07
   1.190173e+07   1.718737e+06
  -7.160638e+05   6.352153e+06
  -6.831320e+06   1.088242e+06
  -3.568091e+06  -6.082194e+06
   2.875231e+06  -7.817196e+06
   6.446363e+06  -2.822498e+06
   5.239607e+06   4.114247e+06
   8.327561e+05   6.375783e+06
  -2.886556e+06   1.803535e+06
  -2.277938e+06  -4.584620e+06
   2.162253e+06  -5.633202e+06
   5.551871e+06   3.143283e+04
   3.817998e+06   6.718668e+06
  -1.814804e+06   8.322264e+06
  -6.549805e+06   4.293532e+06
  -7.077964e+06  -1.347688e+06
  -3.972498e+06  -4.760059e+06
  -3.029651e+05  -4.934272e+06
   1.020554e+06  -3.307789e+06
  -4.086198e+05  -2.220050e+06
  -1.782382e+06  -2.913865e+06
   2.003550e+05  -4.094753e+06
   4.942622e+06  -3.223600e+06
   7.674883e+06   1.317395e+05
   4.995403e+06   3.285096e+06
  -5.898364e+05   3.546442e+06
  -3.530030e+06   1.279664e+06
  -1.760998e+06  -1.009750e+06
   1.686873e+06  -1.522425e+06
   3.118142e+06  -1.363123e+05
   1.930510e+06   2.188266e+06
  -1.844957e+05   3.645644e+06
  -1.611012e+06   2.467116e+06
  -1.612335e+06  -7.070936e+05
  -4.277089e+05  -2.398614e+06
   5.135993e+05  -3.624045e+05
  -2.502469e+05   2.698347e+06
  -2.004832e+06   2.154266e+06
  -2.068517e+06  -1.928423e+06
   7.156871e+05  -4.218371e+06
   3.766077e+06  -1.173355e+06
   3.428725e+06   4.022080e+06
  -6.246259e+05   5.497080e+06
  -4.847601e+06   1.861779e+06
  -5.503465e+06  -2.877871e+06
  -2.114948e+06  -4.526568e+06
   2.441003e+06  -2.604388e+06
   4.487748e+06   5.353373e+05
   2.547041e+06   2.389158e+06
  -1.310269e+06   1.869547e+06
  -3.273744e+06  -2.049986e+05
  -1.699724e+06  -1.668143e+06
   1.066941e+06  -1.056424e+06
   1.582158e+06   6.354491e+05
  -4.215446e+05   1.112322e+06
  -1.901246e+06  -2.799475e+05
  -5.788368e+05  -1.814543e+06
   2.271372e+06  -1.683061e+06
   3.595883e+06   1.104415e+05
   1.992382e+06   2.364043e+06
  -1.328592e+06   3.895095e+06
  -4.118592e+06   3.672681e+06
  -4.789679e+06   1.144414e+06
  -3.188354e+06  -2.548154e+06
  -6.408297e+05  -4.740173e+06
   9.926418e+05  -3.918269e+06
   1.015266e+06  -1.631738e+06
   5.313031e+05  -5.346861e+05
   9.353065e+05  -9.949872e+05
   2.080976e+06  -1.027753e+06
   2.547579e+06   5.312206e+05
   1.483736e+06   2.280271e+06
  -4.526919e+05   2.161804e+06
  -1.851620e+06   6.560644e+04
  -1.679899e+06  -2.155660e+06
   1.194317e+05  -2.675082e+06
   2.424163e+06  -1.167309e+06
   3.436180e+06   1.225171e+06
   2.228925e+06   2.872541e+06
  -7.939112e+04   2.889985e+06
  -1.444562e+06   1.820702e+06
  -1.350070e+06   9.628702e+05
  -1.299124e+06   8.531136e+05
  -2.473263e+06   7.175573e+05
  -3.790755e+06  -3.852427e+05
  -3.161079e+06  -2.253548e+06
  -2.582200e+05  -3.666322e+06
   2.845179e+06  -3.540702e+06
   3.822181e+06  -1.781819e+06
   2.307339e+06   6.175125e+05
  -3.627723e+04   2.081968e+06
  -1.189105e+06   1.600944e+06
  -4.688682e+05  -1.293463e+05
   1.039221e+06  -1.139065e+06
   1.620116e+06  -3.599841e+05
   7.018007e+05   1.001845e+06
  -5.437098e+05   1.017801e+06
  -5.849526e+05  -3.103993e+05
   6.485950e+05  -9.583879e+05
   1.706173e+06   4.196211e+05
   1.273796e+06   2.649531e+06
  -5.405661e+05   3.414534e+06
  -2.515417e+06   1.857009e+06
  -3.386762e+06  -7.552204e+05
  -2.593577e+06  -2.536489e+06
  -6.090055e+05  -2.586605e+06
   1.181235e+06  -1.379482e+06
   1.484053e+06  -1.694472e+05
   4.482663e+05   3.187887e+04
  -3.495769e+05  -6.648022e+05
   2.660691e+05  -1.145193e+06
   1.561987e+06  -5.626151e+05
   1.793076e+06   6.165390e+05
   4.564425e+05   1.167813e+06
  -1.009273e+06   5.900847e+05
  -9.289688e+05  -3.773414e+05
   6.789517e+05  -6.813350e+05
   2.148576e+06   9.328719e+03
   1.902877e+06   1.189603e+06
  -3.576356e+04   1.991558e+06
  -2.088340e+06   1.709982e+06
  -2.543684e+06   3.617518e+05
  -1.121272e+06  -1.049607e+06
   7.423062e+05  -1.274344e+06
   1.278348e+06  -1.856211e+05
   1.406340e+05   9.015183e+05
  -1.328267e+06   6.790138e+05
  -1.590107e+06  -6.041909e+05
  -4.642253e+05  -1.479271e+06
   8.719055e+05  -1.035394e+06
   1.188630e+06   1.073884e+05
   3.519710e+05   6.579376e+05
  -6.507834e+05   9.489419e+04
  -6.626423e+05  -9.155575e+05
   5.189129e+05  -1.281149e+06
   1.817230e+06  -4.951093e+05
   1.846362e+06   9.258856e+05
   3.959044e+05   1.852401e+06
  -1.221523e+06   1.524022e+06
  -1.543671e+06   2.798280e+05
  -5.270054e+05  -7.519431e+05
   5.522867e+05  -7.784614e+05
   6.411904e+05  -7.661027e+04
  -4.488917e+04   4.533633e+05
  -5.426099e+05   3.245342e+05
  -3.093988e+05  -9.565168e+04
   3.127514e+05  -1.152474e+05
   5.510082e+05   4.608698e+05
  -5.818768e+04   1.062609e+06
  -1.197672e+06   8.766581e+05
  -1.901524e+06  -3.059295e+05
  -1.371973e+06  -1.723225e+06
   1.428167e+05  -2.236212e+06
   1.457140e+06  -1.416315e+06
   1.637780e+06   6.588850e+03
   9.395526e+05   8.862575e+05
   3.421456e+05   7.973017e+05
   3.270086e+05   3.145107e+05
   4.492001e+05   2.176752e+05
   8.515239e+04   6.073063e+05
  -7.346155e+05   8.679431e+05
  -1.340693e+06   4.022087e+05
  -1.071893e+06  -6.601245e+05
   1.319476e+05  -1.450212e+06
   1.559636e+06  -1.100415e+06
   2.109330e+06   3.651945e+05
   1.151594e+06   1.868970e+06
  -7.623567e+05   2.178556e+06
  -2.220601e+06   1.078266e+06
  -2.216220e+06  -4.361289e+05
  -1.058591e+06  -1.198483e+06
   8.619799e+04  -1.001718e+06
   4.393544e+05  -5.929606e+05
   2.219936e+05  -6.688088e+05
   1.436728e+05  -1.088100e+06
   5.503450e+05  -1.113717e+06
   1.118793e+06  -2.966454e+05
   1.220129e+06   9.656888e+05
   5.372895e+05   1.723642e+06
  -5.507481e+05   1.326303e+06
  -1.185973e+06   4.885315e+04
  -8.029271e+05  -1.104189e+06
   2.427090e+05  -1.278064e+06
   9.611631e+05  -4.969012e+05
   7.501441e+05   4.690685e+05
   1.788128e+04   9.051887e+05
  -3.426618e+05   7.487599e+05
  -1.710828e+04   4.361204e+05
   3.780743e+05   3.245498e+05
   4.713268e+04   3.599630e+05
  -9.993228e+05   2.367036e+05
  -1.828891e+06  -2.268266e+05
  -1.500883e+06  -8.646263e+05
  -7.987378e+04  -1.253242e+06
   1.330164e+06  -1.054197e+06
   1.634240e+06  -3.550556e+05
   8.059104e+05   3.268974e+05
  -1.813124e+05   4.773502e+05
  -4.394708e+05   8.695407e+04
  -7.255206e+03  -3.192268e+05
   4.323331e+05  -2.255196e+05
   4.346208e+05   3.036705e+05
   1.685291e+05   6.745109e+05
   2.495746e+04   4.383334e+05
   1.342943e+05  -1.428747e+05
   3.111050e+05  -3.376638e+05
   2.721254e+05   1.980015e+05
  -1.467439e+05   9.297999e+05
  -7.940705e+05   9.797085e+05
  -1.148583e+06   1.422889e+05
  -7.084217e+05  -8.168796e+05
   3.521222e+05  -9.786516e+05
   1.087860e+06  -2.636843e+05
   6.704110e+05   5.326220e+05
  -6.091854e+05   6.250337e+05
  -1.492118e+06  -1.141770e+04
  -1.042828e+06  -7.525334e+05
   3.496258e+05  -9.834294e+05
   1.388371e+06  -5.783454e+05
   1.206196e+06   9.460302e+04
   1.729519e+05   4.884268e+05
  -5.825145e+05   2.979157e+05
  -3.357391e+05  -2.366939e+05
   5.587497e+05  -4.539469e+05
   1.077576e+06   1.041718e+05
   5.725474e+05   1.095444e+06
  -5.837719e+05   1.543961e+06
  -1.380905e+06   7.924075e+05
  -1.165541e+06  -6.997317e+05
  -2.108142e+05  -1.663177e+06
   6.606135e+05  -1.246617e+06
   8.730496e+05   1.002181e+05
   4.693164e+05   1.087769e+06
  -1.256938e+05   9.361721e+05
  -5.008494e+05   1.152704e+05
  -4.806549e+05  -3.517449e+05
  -2.006171e+05  -1.416672e+05
  -2.554528e+04   1.048803e+05
  -1.978925e+05  -2.305562e+05
  -4.651536e+05  -8.666638e+05
  -2.545082e+05  -1.006310e+06
   5.873161e+05  -3.933067e+05
   1.381308e+06   4.025499e+05
   1.252938e+06   7.505853e+05
   1.920050e+05   6.306208e+05
  -8.257741e+05   3.960906e+05
  -9.238988e+05   2.043820e+05
  -2.971504e+05  -1.220877e+04
   1.476545e+05  -2.052772e+05
  -2.296257e+04  -2.200808e+05
  -3.012482e+05  -1.162883e+05
  -2.688203e+04  -1.241409e+05
   6.653231e+05  -2.043361e+05
   9.573019e+05   9.263130e+03
   3.294218e+05   6.167531e+05
  -8.069582e+05   1.063219e+06
  -1.514399e+06   6.868879e+05
  -1.237889e+06  -4.014931e+05
  -2.543694e+05  -1.299755e+06
   6.688748e+05  -1.263037e+06
   9.551439e+05  -4.764063e+05
   6.137953e+05   2.339143e+05
   1.060609e+05   3.257921e+05
  -1.080235e+05   2.808559e+04
   5.953445e+04  -5.386196e+04
   3.085976e+05   3.194955e+05
   2.621746e+05   7.418662e+05
  -1.641485e+05   6.169179e+05
  -6.376221e+05  -1.358280e+05
  -6.636917e+05  -8.966523e+05
  -6.798593e+04  -9.393469e+05
   7.166289e+05  -1.908816e+05
   9.460638e+05   6.903574e+05
   3.065238e+05   9.933078e+05
  -6.516050e+05   5.990287e+05
  -1.006567e+06  -6.341886e+04
  -4.738376e+05  -5.208833e+05
   2.474204e+05  -5.855367e+05
   3.034251e+05  -3.370189e+05
  -2.700669e+05  -2.396140e+04
  -6.085562e+05   3.878082e+04
  -1.255152e+05  -2.720281e+05
   7.499466e+05  -6.443716e+05
   1.116557e+06  -5.523459e+05
   6.641682e+05   1.147027e+05
  -7.769013e+04   7.847967e+05
  -4.563545e+05   7.820878e+05
  -3.448251e+05   1.276867e+05
  -3.336150e+04  -4.565152e+05
   2.199341e+05  -3.811642e+05
   3.265186e+05   1.678002e+05
   2.370085e+05   5.287270e+05
  -4.975952e+04   3.590434e+05
  -3.580162e+05  -5.144091e+04
  -4.308593e+05  -2.237017e+05
  -2.259637e+05  -6.133558e+04
   1.685394e+04   1.068209e+05
   8.028675e+04  -2.273761e+04
   3.741681e+04  -3.461214e+05
   1.088069e+05  -4.610498e+05
   3.094696e+05  -1.359853e+05
   3.749668e+05   3.834552e+05
   8.748156e+04   5.954611e+05
  -3.888233e+05   2.761580e+05
  -5.894297e+05  -2.701899e+05
  -2.224518e+05  -5.378984e+05
   4.500279e+05  -3.396549e+05
   7.905823e+05   7.114572e+04
   4.357845e+05   3.405078e+05
  -2.624276e+05   3.451833e+05
  -5.725641e+05   1.863536e+05
  -2.008415e+05   1.678064e+04
   3.563133e+05  -3.570806e+04
   3.894225e+05   9.477517e+04
  -1.851401e+05   2.931597e+05
  -7.345153e+05   2.562520e+05
