
 $NMID
 id='ANONYMOUS ', fmtdat='(2E16.6)'
 volume=1.0
 tramp=1.0
 $END
   6.063437e+07  -1.283787e+06
   3.704671e+07   3.728155e+07
  -7.582041e+06   4.135554e+07
  -2.956719e+07   1.586176e+07
  -1.767090e+07  -7.732293e+06
   3.623589e+06  -1.007414e+07
   1.051907e+07   1.470650e+06
   2.864035e+06   1.050219e+07
  -6.679653e+06   9.825089e+06
  -1.029050e+07   2.071279e+06
  -7.536475e+06  -6.448996e+06
  -1.051177e+06  -9.042364e+06
   4.142098e+06  -3.059998e+06
   2.845524e+06   5.532072e+06
  -3.937713e+06   6.829971e+06
  -8.409386e+06  -1.407614e+06
  -4.856234e+06  -1.083010e+07
   3.876092e+06  -1.264584e+07
   1.069632e+07  -6.541204e+06
   1.166794e+07   1.881066e+06
   7.422777e+06   7.872513e+06
   1.046909e+06   9.438504e+06
  -3.148353e+06   6.754556e+06
  -2.298920e+06   2.861467e+06
   9.885074e+05   1.942400e+06
   4.716695e+05   4.153757e+06
  -5.344511e+06   4.788834e+06
  -1.004220e+07   9.179643e+05
  -7.596514e+06  -4.090399e+06
  -5.978326e+05  -5.368918e+06
   3.657817e+06  -2.959576e+06
   2.616009e+06  -3.267198e+05
  -3.321255e+05   8.050239e+05
  -2.056565e+06   6.245576e+05
  -2.277063e+06  -1.186916e+06
  -1.002930e+06  -3.948044e+06
   1.718414e+06  -4.203371e+06
   3.585514e+06  -1.393727e+05
   2.107666e+06   3.842163e+06
  -7.649269e+05   2.297536e+06
  -5.414333e+05  -2.374862e+06
   2.489735e+06  -2.397379e+06
   2.619193e+06   3.400455e+06
  -2.627117e+06   6.622437e+06
  -7.616599e+06   1.188030e+06
  -5.689614e+06  -7.404772e+06
   1.943325e+06  -9.240606e+06
   7.910945e+06  -2.752229e+06
   7.381459e+06   4.594676e+06
   1.947506e+06   6.306745e+06
  -3.629243e+06   2.826194e+06
  -5.466900e+06  -1.605260e+06
  -2.489903e+06  -3.666465e+06
   2.599403e+06  -2.337661e+06
   4.826424e+06   9.540792e+05
   2.080529e+06   2.897251e+06
  -1.820690e+06   1.487354e+06
  -1.801304e+06  -1.067479e+06
   1.499401e+06  -9.185592e+05
   2.662692e+06   2.007229e+06
  -7.712825e+05   3.823943e+06
  -5.086744e+06   2.092923e+06
  -5.716000e+06  -1.473372e+06
  -2.503833e+06  -4.261705e+06
   1.754780e+06  -5.607421e+06
   5.057989e+06  -5.229476e+06
   6.440668e+06  -2.050775e+06
   4.969798e+06   3.153154e+06
   1.183528e+06   6.451136e+06
  -1.921608e+06   5.009703e+06
  -1.902639e+06   1.183035e+06
  -1.002772e+05  -4.265410e+05
   2.665041e+05   9.633738e+05
  -1.443274e+06   1.994653e+06
  -2.860085e+06   4.872892e+05
  -2.198795e+06  -1.797934e+06
  -1.874880e+05  -2.141687e+06
   1.485952e+06  -2.745932e+05
   1.736277e+06   2.021796e+06
   1.094031e+05   2.999164e+06
  -2.799057e+06   1.841624e+06
  -4.736872e+06  -1.056197e+06
  -3.552613e+06  -3.863986e+06
  -9.835213e+04  -4.528624e+06
   2.381988e+06  -2.988909e+06
   2.400985e+06  -1.246758e+06
   1.942505e+06  -6.998369e+05
   3.049285e+06  -5.064373e+05
   4.514774e+06   7.351482e+05
   3.647873e+06   2.805121e+06
   2.073170e+05   4.250463e+06
  -3.205709e+06   4.084407e+06
  -4.218936e+06   2.316021e+06
  -2.758385e+06  -3.075174e+05
  -4.068156e+05  -2.271252e+06
   1.033529e+06  -2.048108e+06
   5.887033e+05  -9.444689e+02
  -1.072127e+06   1.384898e+06
  -1.976664e+06   4.606278e+05
  -1.011854e+06  -1.235269e+06
   4.867058e+05  -1.156243e+06
   4.042378e+05   4.040774e+05
  -1.161506e+06   6.710221e+05
  -1.948412e+06  -1.457341e+06
  -5.927431e+05  -3.701533e+06
   1.775379e+06  -3.481263e+06
   3.294528e+06  -1.019330e+06
   3.349133e+06   1.545975e+06
   2.273018e+06   2.782317e+06
   4.767488e+05   2.621149e+06
  -1.227006e+06   1.523111e+06
  -1.604343e+06   2.825967e+05
  -5.086516e+05  -3.762385e+04
   3.816378e+05   7.717550e+05
  -4.211148e+05   1.414122e+06
  -1.998484e+06   6.367854e+05
  -2.136797e+06  -9.158116e+05
  -4.047933e+05  -1.486385e+06
   1.212090e+06  -5.990575e+05
   8.950907e+05   4.615570e+05
  -8.936979e+05   5.006098e+05
  -2.215033e+06  -3.606008e+05
  -1.741690e+06  -1.375856e+06
   2.674500e+05  -1.984904e+06
   2.346956e+06  -1.702396e+06
   2.849207e+06  -3.165212e+05
   1.284106e+06   1.304730e+06
  -9.359825e+05   1.600196e+06
  -1.645254e+06   2.334133e+05
  -2.481849e+05  -1.132628e+06
   1.562244e+06  -7.963689e+05
   1.786764e+06   7.974655e+05
   3.412237e+05   1.708107e+06
  -1.143900e+06   9.925580e+05
  -1.295758e+06  -3.471167e+05
  -2.339828e+05  -8.206441e+05
   8.453562e+05  -6.410292e+04
   7.907653e+05   1.082608e+06
  -5.597197e+05   1.490341e+06
  -2.062565e+06   6.115839e+05
  -2.131417e+06  -1.041711e+06
  -4.348100e+05  -2.145147e+06
   1.474864e+06  -1.725324e+06
   1.788211e+06  -2.320427e+05
   5.183585e+05   8.990567e+05
  -6.769701e+05   8.318614e+05
  -6.320004e+05   9.071690e+04
   1.366389e+05  -3.372070e+05
   4.752314e+05  -1.825503e+05
   6.462228e+04   5.776677e+04
  -4.988730e+05  -1.248184e+05
  -5.288373e+05  -7.306305e+05
   2.251603e+05  -1.238920e+06
   1.425532e+06  -9.401361e+05
   2.158904e+06   3.982517e+05
   1.550401e+06   1.985026e+06
  -1.804625e+05   2.495232e+06
  -1.638506e+06   1.456428e+06
  -1.716835e+06  -1.252197e+05
  -8.541398e+05  -8.844129e+05
  -3.217422e+05  -6.000030e+05
  -5.298270e+05  -1.747207e+05
  -6.956667e+05  -3.263387e+05
  -1.144087e+05  -8.148696e+05
   9.031548e+05  -9.373252e+05
   1.481154e+06  -3.358601e+05
   1.062618e+06   7.206088e+05
  -2.557544e+05   1.474463e+06
  -1.755099e+06   1.109289e+06
  -2.312848e+06  -4.681455e+05
  -1.184470e+06  -2.155557e+06
   1.034823e+06  -2.462497e+06
   2.632280e+06  -1.084592e+06
   2.421201e+06   6.774632e+05
   9.579251e+05   1.368512e+06
  -2.258231e+05   9.365212e+05
  -3.633026e+05   4.916540e+05
  -1.070760e+04   7.814802e+05
  -5.388126e+04   1.384169e+06
  -6.770440e+05   1.368333e+06
  -1.346655e+06   3.618885e+05
  -1.408716e+06  -1.085638e+06
  -6.145588e+05  -1.941624e+06
   6.093433e+05  -1.494075e+06
   1.322754e+06  -1.366477e+04
   8.516006e+05   1.326751e+06
  -4.053592e+05   1.451098e+06
  -1.225493e+06   4.072862e+05
  -8.549791e+05  -7.555064e+05
   1.419183e+05  -1.141517e+06
   5.842186e+05  -8.118724e+05
   9.910183e+04  -4.130736e+05
  -4.616625e+05  -3.276931e+05
  -7.467399e+04  -3.898782e+05
   1.197147e+06  -2.326223e+05
   2.157279e+06   3.129986e+05
   1.688725e+06   1.055192e+06
  -3.983957e+04   1.503615e+06
  -1.651447e+06   1.217396e+06
  -1.897292e+06   3.000544e+05
  -8.598765e+05  -5.329627e+05
   2.732604e+05  -6.104341e+05
   5.380756e+05  -2.897234e+04
   5.266436e+04   4.567754e+05
  -4.386221e+05   2.824129e+05
  -5.087093e+05  -3.418152e+05
  -3.063299e+05  -7.310356e+05
  -1.373205e+05  -4.894450e+05
  -1.369219e+05   7.953229e+04
  -2.596584e+05   2.805537e+05
  -2.829776e+05  -2.377725e+05
   1.106726e+05  -1.009460e+06
   9.069152e+05  -1.124316e+06
   1.437288e+06  -2.312767e+05
   9.353722e+05   9.229807e+05
  -4.029411e+05   1.213939e+06
  -1.310927e+06   4.068393e+05
  -7.742231e+05  -5.645120e+05
   7.195202e+05  -6.767516e+05
   1.625662e+06   8.607153e+04
   1.010217e+06   8.802022e+05
  -5.131066e+05   1.002361e+06
  -1.527753e+06   4.751231e+05
  -1.244609e+06  -1.985762e+05
  -1.304758e+05  -5.196479e+05
   6.688938e+05  -2.739353e+05
   4.141418e+05   3.060908e+05
  -5.744361e+05   5.692847e+05
  -1.225494e+06  -2.810077e+04
  -7.546321e+05  -1.187269e+06
   5.255518e+05  -1.785035e+06
   1.488250e+06  -9.766813e+05
   1.315978e+06   7.345225e+05
   2.588203e+05   1.832344e+06
  -7.310562e+05   1.330589e+06
  -9.502778e+05  -1.848775e+05
  -4.457723e+05  -1.221344e+06
   2.378792e+05  -9.841375e+05
   5.874162e+05  -8.515273e+04
   4.634220e+05   3.721501e+05
   1.431941e+05   1.288708e+05
   5.886245e+04  -9.055580e+04
   3.366224e+05   3.166457e+05
   5.640131e+05   9.911071e+05
   1.874294e+05   1.099716e+06
  -7.667309e+05   4.178447e+05
  -1.524200e+06  -4.413274e+05
  -1.304830e+06  -8.303676e+05
  -2.037239e+05  -7.220979e+05
   8.376385e+05  -4.571600e+05
   9.975442e+05  -2.010192e+05
   3.991279e+05   6.366709e+04
  -1.316947e+05   2.396070e+05
  -6.847194e+04   1.939293e+05
   2.355993e+05   6.855412e+04
   7.181826e+04   1.332450e+05
  -6.316439e+05   2.785009e+05
  -1.085180e+06   3.296808e+04
  -5.285645e+05  -7.072335e+05
   7.914968e+05  -1.266696e+06
   1.757705e+06  -8.658560e+05
   1.522150e+06   3.751057e+05
   3.466587e+05   1.434662e+06
  -7.578595e+05   1.459070e+06
  -1.066254e+06   6.193904e+05
  -6.779820e+05  -1.939773e+05
  -1.686915e+05  -3.661306e+05
   3.312384e+04  -9.620806e+04
  -9.729707e+04  -9.143106e+03
  -3.022318e+05  -3.828970e+05
  -2.645996e+05  -8.265199e+05
   1.527936e+05  -7.167535e+05
   6.987606e+05   7.110682e+04
   8.231866e+05   9.262744e+05
   2.058265e+05   1.065305e+06
  -7.413530e+05   3.260538e+05
  -1.109375e+06  -6.654972e+05
  -4.293917e+05  -1.114155e+06
   7.035709e+05  -7.589018e+05
   1.179513e+06   2.231812e+04
   5.970542e+05   6.424560e+05
  -2.738203e+05   7.511077e+05
  -4.141747e+05   4.037649e+05
   2.157047e+05  -1.511312e+04
   6.585828e+05  -7.143260e+04
   1.769800e+05   3.202958e+05
  -8.273168e+05   7.259287e+05
  -1.315254e+06   5.740778e+05
  -8.344401e+05  -1.864830e+05
   6.303837e+04  -9.175304e+05
   5.735554e+05  -9.218839e+05
   4.739879e+05  -2.133478e+05
   9.563945e+04   4.755874e+05
  -2.221253e+05   4.812698e+05
  -3.667068e+05  -1.012902e+05
  -2.909788e+05  -5.847712e+05
   2.719959e+04  -4.773585e+05
   4.070626e+05   1.411272e+04
   5.156404e+05   2.971161e+05
   2.548424e+05   1.135102e+05
  -6.067293e+04  -1.829736e+05
  -8.836978e+04  -1.025405e+05
   7.874704e+04   3.397556e+05
   4.575103e+04   6.110958e+05
  -2.958418e+05   3.078251e+05
  -5.390157e+05  -3.269977e+05
  -2.564198e+05  -6.558119e+05
   3.888842e+05  -3.607036e+05
   7.234743e+05   2.350011e+05
   3.059103e+05   5.659521e+05
  -5.206161e+05   4.046113e+05
  -9.378826e+05  -2.323980e+04
  -5.223737e+05  -3.689416e+05
   2.863031e+05  -4.552310e+05
   6.607658e+05  -2.988027e+05
   2.887529e+05  -3.619542e+04
  -3.110547e+05   1.166801e+05
  -4.062301e+05  -4.376711e+03
   1.259201e+05  -2.811505e+05
   6.976482e+05  -3.132521e+05
