
 $NMID
 id='ANONYMOUS ', fmtdat='(2E16.6)'
 volume=1.0
 tramp=1.0
 $END
  -3.208641e+07   6.139663e+05
  -2.079429e+07  -1.737903e+07
   1.864205e+06  -2.128506e+07
   1.485697e+07  -1.106097e+07
   1.065988e+07   1.425819e+06
  -5.932961e+05   5.643573e+06
  -6.140721e+06   1.051366e+06
  -3.249498e+06  -5.439929e+06
   2.590136e+06  -7.090520e+06
   5.803667e+06  -2.543656e+06
   4.619058e+06   3.787242e+06
   6.062485e+05   5.767395e+06
  -2.638430e+06   1.517125e+06
  -1.965568e+06  -4.264770e+06
   2.025926e+06  -5.120209e+06
   4.971600e+06   5.410031e+04
   3.331252e+06   6.051710e+06
  -1.730149e+06   7.401513e+06
  -5.895531e+06   3.687262e+06
  -6.222043e+06  -1.376091e+06
  -3.336696e+06  -4.288093e+06
  -1.232924e+05  -4.263920e+06
   8.557637e+05  -2.810001e+06
  -5.334842e+05  -2.051204e+06
  -1.640414e+06  -2.846661e+06
   3.474533e+05  -3.807870e+06
   4.658923e+06  -2.759611e+06
   6.972347e+06   3.936115e+05
   4.380546e+06   3.122000e+06
  -7.253793e+05   3.147318e+06
  -3.309098e+06   9.716927e+05
  -1.542596e+06  -1.086775e+06
   1.723734e+06  -1.421907e+06
   2.991926e+06   5.064244e+02
   1.709866e+06   2.167958e+06
  -3.587792e+05   3.366102e+06
  -1.549788e+06   2.126981e+06
  -1.328963e+06  -7.551017e+05
  -2.156041e+05  -2.128857e+06
   4.572712e+05  -1.781881e+05
  -3.684407e+05   2.531445e+06
  -1.890063e+06   1.941689e+06
  -1.846280e+06  -1.739247e+06
   6.193369e+05  -3.747040e+06
   3.252291e+06  -1.018440e+06
   2.942088e+06   3.572807e+06
  -6.047632e+05   4.836984e+06
  -4.334601e+06   1.560165e+06
  -4.927692e+06  -2.689939e+06
  -1.877372e+06  -4.146601e+06
   2.255975e+06  -2.356138e+06
   4.106510e+06   5.318388e+05
   2.325528e+06   2.200805e+06
  -1.172053e+06   1.682073e+06
  -2.936328e+06  -2.121073e+05
  -1.520100e+06  -1.506242e+06
   9.641637e+05  -9.292436e+05
   1.445580e+06   6.012547e+05
  -3.425744e+05   1.048698e+06
  -1.720183e+06  -1.755465e+05
  -6.076598e+05  -1.564683e+06
   1.947394e+06  -1.497295e+06
   3.200038e+06   8.125560e+04
   1.769642e+06   2.111311e+06
  -1.300127e+06   3.471733e+06
  -3.859901e+06   3.204872e+06
  -4.368714e+06   8.816592e+05
  -2.775397e+06  -2.405557e+06
  -4.408807e+05  -4.306836e+06
   9.532229e+05  -3.552847e+06
   9.260661e+05  -1.535552e+06
   5.489104e+05  -5.554317e+05
   9.914011e+05  -8.985274e+05
   2.012405e+06  -8.258403e+05
   2.333331e+06   6.397979e+05
   1.265994e+06   2.200448e+06
  -5.297591e+05   2.003049e+06
  -1.756788e+06  -6.935198e+03
  -1.504984e+06  -2.067122e+06
   1.986738e+05  -2.467383e+06
   2.260890e+06  -9.754030e+05
   3.073774e+06   1.239924e+06
   1.908699e+06   2.656133e+06
  -1.542407e+05   2.568630e+06
  -1.317459e+06   1.577472e+06
  -1.203400e+06   8.478107e+05
  -1.187074e+06   7.775450e+05
  -2.285024e+06   6.236526e+05
  -3.474856e+06  -4.292799e+05
  -2.856596e+06  -2.142462e+06
  -1.507003e+05  -3.384662e+06
   2.719133e+06  -3.189589e+06
   3.581301e+06  -1.522581e+06
   2.100524e+06   6.590201e+05
  -1.223146e+05   1.924973e+06
  -1.161817e+06   1.427038e+06
  -4.241340e+05  -1.427421e+05
   9.965523e+05  -1.016810e+06
   1.494049e+06  -2.870339e+05
   6.059016e+05   9.341810e+05
  -5.385202e+05   9.243418e+05
  -5.522424e+05  -2.997118e+05
   5.939308e+05  -9.027049e+05
   1.569883e+06   3.563961e+05
   1.177108e+06   2.431175e+06
  -5.011473e+05   3.175576e+06
  -2.343450e+06   1.735161e+06
  -3.148832e+06  -7.352184e+05
  -2.378899e+06  -2.420104e+06
  -5.095664e+05  -2.428748e+06
   1.134899e+06  -1.245240e+06
   1.379662e+06  -1.105095e+05
   4.128881e+05   4.093332e+04
  -3.067617e+05  -6.215873e+05
   2.654730e+05  -1.042364e+06
   1.439293e+06  -4.804832e+05
   1.632861e+06   5.985626e+05
   4.006281e+05   1.078465e+06
  -9.426017e+05   5.244357e+05
  -8.603581e+05  -3.710835e+05
   6.367427e+05  -6.333231e+05
   2.002599e+06   3.872043e+04
   1.757975e+06   1.148098e+06
  -6.897413e+04   1.860053e+06
  -1.975278e+06   1.542494e+06
  -2.360811e+06   2.749789e+05
  -1.007587e+06  -9.891835e+05
   7.101405e+05  -1.145895e+06
   1.169812e+06  -1.376479e+05
   1.003277e+05   8.269720e+05
  -1.239429e+06   5.907838e+05
  -1.454272e+06  -5.905475e+05
  -4.044910e+05  -1.376558e+06
   8.212142e+05  -9.480998e+05
   1.100062e+06   1.132170e+05
   3.209059e+05   6.121175e+05
  -5.955659e+05   7.492875e+04
  -5.855763e+05  -8.587584e+05
   5.140092e+05  -1.166411e+06
   1.689937e+06  -4.063995e+05
   1.677632e+06   9.028238e+05
   3.189189e+05   1.716970e+06
  -1.160270e+06   1.376037e+06
  -1.429898e+06   2.249912e+05
  -4.732387e+05  -7.049096e+05
   5.266502e+05  -7.085649e+05
   6.012588e+05  -5.303046e+04
  -4.780948e+04   4.317013e+05
  -5.213859e+05   2.989631e+05
  -3.048655e+05  -1.021191e+05
   2.822862e+05  -1.189851e+05
   5.055419e+05   4.242554e+05
  -6.862891e+04   9.778661e+05
  -1.123382e+06   7.829785e+05
  -1.747608e+06  -3.275338e+05
  -1.222623e+06  -1.623849e+06
   1.885238e+05  -2.063788e+06
   1.383834e+06  -1.281025e+06
   1.523165e+06   4.042958e+04
   8.595925e+05   8.530380e+05
   2.980939e+05   7.684622e+05
   2.802999e+05   3.115005e+05
   3.953877e+05   2.050723e+05
   6.253707e+04   5.529265e+05
  -6.953450e+05   7.862923e+05
  -1.251694e+06   3.457312e+05
  -9.839425e+05  -6.400535e+05
   1.521869e+05  -1.348985e+06
   1.470037e+06  -9.861194e+05
   1.944153e+06   3.879475e+05
   1.024348e+06   1.753148e+06
  -7.470849e+05   1.993235e+06
  -2.070025e+06   9.493419e+05
  -2.042871e+06  -4.465976e+05
  -9.647885e+05  -1.134725e+06
   9.709748e+04  -9.386238e+05
   4.324769e+05  -5.488744e+05
   2.404689e+05  -6.081732e+05
   1.680419e+05  -9.884438e+05
   5.320420e+05  -1.006156e+06
   1.034307e+06  -2.435121e+05
   1.099373e+06   9.235331e+05
   4.509230e+05   1.605982e+06
  -5.439520e+05   1.210756e+06
  -1.098087e+06   1.745533e+04
  -7.177143e+05  -1.034791e+06
   2.471310e+05  -1.174334e+06
   8.908903e+05  -4.467748e+05
   6.816469e+05   4.352576e+05
   6.355476e+03   8.284399e+05
  -3.209891e+05   6.866257e+05
  -2.159643e+04   4.089489e+05
   3.377874e+05   3.121422e+05
   3.248533e+04   3.346910e+05
  -9.239152e+05   1.959191e+05
  -1.676421e+06  -2.516855e+05
  -1.364722e+06  -8.312923e+05
  -5.193996e+04  -1.153652e+06
   1.244045e+06  -9.381722e+05
   1.515158e+06  -2.936543e+05
   7.408254e+05   3.106177e+05
  -1.740092e+05   4.311696e+05
  -4.053823e+05   7.454014e+04
   4.229209e+03  -2.872220e+05
   4.085994e+05  -1.945252e+05
   3.920658e+05   2.915999e+05
   1.290703e+05   6.286638e+05
   3.311483e+03   4.050222e+05
   1.294010e+05  -1.346104e+05
   3.037606e+05  -3.108527e+05
   2.482031e+05   1.888833e+05
  -1.639595e+05   8.574978e+05
  -7.576552e+05   8.829643e+05
  -1.053117e+06   9.743647e+04
  -6.227645e+05  -7.715951e+05
   3.492354e+05  -8.863738e+05
   1.004264e+06  -2.076590e+05
   6.037062e+05   5.118693e+05
  -5.765090e+05   5.638612e+05
  -1.382639e+06  -4.399828e+04
  -9.565347e+05  -7.208005e+05
   3.400464e+05  -9.082234e+05
   1.301421e+06  -5.114590e+05
   1.121083e+06   1.124199e+05
   1.517925e+05   4.584399e+05
  -5.452823e+05   2.649019e+05
  -3.015616e+05  -2.240592e+05
   5.316255e+05  -4.000235e+05
   9.910906e+05   1.308443e+05
   4.917557e+05   1.029399e+06
  -5.889345e+05   1.406478e+06
  -1.300501e+06   6.892072e+05
  -1.057780e+06  -6.805726e+05
  -1.497034e+05  -1.544627e+06
   6.440088e+05  -1.139866e+06
   8.068883e+05   1.099112e+05
   4.116502e+05   1.017817e+06
  -1.335032e+05   8.675992e+05
  -4.641822e+05   9.712800e+04
  -4.406610e+05  -3.397719e+05
  -1.877443e+05  -1.390420e+05
  -2.423462e+04   9.854031e+04
  -1.685738e+05  -2.128695e+05
  -4.042563e+05  -8.111261e+05
  -2.163312e+05  -9.394399e+05
   5.448357e+05  -3.508006e+05
   1.267768e+06   4.087640e+05
   1.145875e+06   7.276931e+05
   1.620805e+05   5.866359e+05
  -7.799630e+05   3.429205e+05
  -8.621789e+05   1.667658e+05
  -2.696061e+05  -1.465565e+04
   1.442940e+05  -1.848655e+05
  -2.230299e+04  -2.086985e+05
  -2.827145e+05  -1.207604e+05
  -1.842273e+04  -1.155560e+05
   6.284526e+05  -1.669394e+05
   8.831481e+05   3.659686e+04
   2.763755e+05   5.760453e+05
  -7.813427e+05   9.549887e+05
  -1.411914e+06   5.885979e+05
  -1.122637e+06  -4.078043e+05
  -1.964862e+05  -1.208899e+06
   6.498792e+05  -1.146570e+06
   8.946653e+05  -4.089425e+05
   5.614016e+05   2.373483e+05
   8.578600e+04   3.033685e+05
  -1.067762e+05   1.754620e+04
   5.460514e+04  -5.377904e+04
   2.804261e+05   3.016849e+05
   2.252441e+05   6.929791e+05
  -1.698910e+05   5.636852e+05
  -5.863202e+05  -1.483782e+05
  -5.834029e+05  -8.512315e+05
  -2.864128e+04  -8.678698e+05
   6.710556e+05  -1.487568e+05
   8.517645e+05   6.703917e+05
   2.509421e+05   9.251291e+05
  -6.190434e+05   5.297686e+05
  -9.242221e+05  -8.802843e+04
  -4.197905e+05  -4.886428e+05
   2.433504e+05  -5.274205e+05
   2.832837e+05  -3.021704e+05
  -2.552491e+05  -3.302436e+04
  -5.649405e+05   1.774932e+04
  -1.062795e+05  -2.531698e+05
   7.107155e+05  -5.756226e+05
   1.041601e+06  -4.853874e+05
   6.043395e+05   1.181057e+05
  -9.369852e+04   7.201251e+05
  -4.369041e+05   7.078976e+05
  -3.147283e+05   1.043612e+05
  -1.426183e+04  -4.250290e+05
   2.145631e+05  -3.422078e+05
   2.966519e+05   1.701513e+05
   2.033108e+05   4.951392e+05
  -5.689897e+04   3.245518e+05
  -3.287292e+05  -6.010722e+04
  -3.902067e+05  -2.141033e+05
  -2.074394e+05  -5.910679e+04
   1.010111e+04   9.399958e+04
   7.589047e+04  -2.869836e+04
   5.314689e+04  -3.216323e+05
   1.245959e+05  -4.147291e+05
   2.922060e+05  -1.053643e+05
   3.266901e+05   3.710127e+05
   5.320804e+04   5.521923e+05
  -3.696563e+05   2.408405e+05
  -5.323567e+05  -2.696590e+05
  -1.870153e+05  -5.052198e+05
   4.232476e+05  -3.005029e+05
   7.243361e+05   9.016296e+04
   3.911842e+05   3.266737e+05
  -2.515373e+05   3.068924e+05
  -5.317918e+05   1.506246e+05
  -1.810253e+05   9.452444e+03
   3.363619e+05  -1.721401e+04
   3.589318e+05   1.057071e+05
  -1.852977e+05   2.691043e+05
  -6.948084e+05   2.147895e+05
