
 $NMID
 id='ANONYMOUS ', fmtdat='(2E16.6)'
 volume=1.0
 tramp=1.0
 $END
  -2.775871e+07   8.089935e+05
  -1.853186e+07  -1.368111e+07
   4.724713e+05  -1.800737e+07
   1.219788e+07  -1.087196e+07
   9.643584e+06  -1.770775e+05
   1.682648e+05   4.936881e+06
  -5.432818e+06   1.844352e+06
  -3.645837e+06  -4.496982e+06
   1.606181e+06  -6.953623e+06
   5.056257e+06  -2.942251e+06
   4.347898e+06   3.357356e+06
   6.741009e+05   5.428500e+06
  -2.478564e+06   1.324595e+06
  -2.047074e+06  -4.246215e+06
   1.569252e+06  -5.130948e+06
   4.490148e+06  -3.527949e+05
   3.309928e+06   5.296044e+06
  -1.229798e+06   6.721330e+06
  -5.157701e+06   3.366592e+06
  -5.446280e+06  -1.301396e+06
  -2.667740e+06  -3.776533e+06
   1.007463e+05  -3.386336e+06
   3.990081e+05  -2.033969e+06
  -1.316324e+06  -1.889940e+06
  -2.084731e+06  -3.196180e+06
   4.213857e+05  -4.073417e+06
   4.821773e+06  -2.665361e+06
   6.853848e+06   5.553866e+05
   4.053013e+06   3.068603e+06
  -1.048787e+06   2.943576e+06
  -3.520641e+06   7.003472e+05
  -1.506873e+06  -1.487227e+06
   2.111443e+06  -1.810692e+06
   3.479358e+06  -1.332817e+04
   1.840525e+06   2.525190e+06
  -5.918686e+05   3.561793e+06
  -1.619495e+06   1.857202e+06
  -9.580262e+05  -1.058405e+06
   1.955407e+05  -1.947558e+06
   4.917858e+05   3.103183e+05
  -5.018654e+05   2.821008e+06
  -1.829627e+06   2.045423e+06
  -1.819773e+06  -1.426649e+06
   1.311428e+05  -3.303016e+06
   2.421473e+06  -1.034274e+06
   2.523421e+06   2.909969e+06
  -2.878336e+05   4.135728e+06
  -3.795182e+06   1.448906e+06
  -4.772513e+06  -2.324866e+06
  -2.107392e+06  -3.877677e+06
   2.020353e+06  -2.476257e+06
   4.088069e+06   1.891740e+05
   2.511516e+06   1.928582e+06
  -8.725874e+05   1.655243e+06
  -2.695652e+06   5.975246e+03
  -1.519368e+06  -1.246098e+06
   8.148178e+05  -8.782318e+05
   1.483563e+06   4.874193e+05
  -4.020655e+04   1.134752e+06
  -1.568326e+06   2.911641e+05
  -9.711485e+05  -1.065938e+06
   1.303318e+06  -1.438369e+06
   2.799519e+06  -2.910090e+05
   1.743607e+06   1.712566e+06
  -1.225301e+06   3.272621e+06
  -3.817265e+06   3.093563e+06
  -4.223676e+06   7.802744e+05
  -2.543248e+06  -2.380239e+06
  -4.021177e+05  -4.142317e+06
   6.972569e+05  -3.489724e+06
   6.851563e+05  -1.746443e+06
   6.403591e+05  -8.771515e+05
   1.337612e+06  -1.044407e+06
   2.318175e+06  -7.178143e+05
   2.462039e+06   8.816244e+05
   1.252205e+06   2.453007e+06
  -6.632084e+05   2.179014e+06
  -1.972636e+06   1.102560e+04
  -1.660158e+06  -2.186068e+06
   2.020075e+05  -2.555870e+06
   2.301698e+06  -9.217666e+05
   2.978308e+06   1.313003e+06
   1.733702e+06   2.556424e+06
  -1.905828e+05   2.317242e+06
  -1.151296e+06   1.379691e+06
  -9.893820e+05   8.258580e+05
  -1.063190e+06   8.807953e+05
  -2.251429e+06   7.711410e+05
  -3.507862e+06  -2.792930e+05
  -2.960784e+06  -2.060113e+06
  -2.623872e+05  -3.441097e+06
   2.714608e+06  -3.326759e+06
   3.677110e+06  -1.583123e+06
   2.150995e+06   7.301776e+05
  -1.894377e+05   2.019974e+06
  -1.246918e+06   1.446235e+06
  -4.298260e+05  -1.762841e+05
   1.027429e+06  -1.049176e+06
   1.490633e+06  -3.146224e+05
   5.854368e+05   9.249296e+05
  -5.622965e+05   9.673985e+05
  -6.406859e+05  -2.686062e+05
   4.564208e+05  -1.034367e+06
   1.577035e+06   6.595864e+04
   1.468520e+06   2.245616e+06
  -1.082731e+05   3.328241e+06
  -2.198848e+06   2.111075e+06
  -3.352584e+06  -4.700701e+05
  -2.684819e+06  -2.418909e+06
  -6.556344e+05  -2.552589e+06
   1.159933e+06  -1.323006e+06
   1.437229e+06  -1.290122e+05
   4.246737e+05   3.075127e+04
  -3.342753e+05  -6.243366e+05
   2.180229e+05  -1.041165e+06
   1.404054e+06  -5.221180e+05
   1.655171e+06   5.179885e+05
   4.628891e+05   1.048535e+06
  -9.324527e+05   5.786547e+05
  -9.327811e+05  -3.427157e+05
   5.931500e+05  -7.331197e+05
   2.100141e+06  -1.139640e+05
   1.942643e+06   1.108101e+06
   4.891764e+04   1.973416e+06
  -1.982380e+06   1.697958e+06
  -2.420792e+06   3.704221e+05
  -1.052093e+06  -9.587329e+05
   6.797717e+05  -1.149803e+06
   1.145985e+06  -1.582534e+05
   9.695249e+04   8.202333e+05
  -1.242391e+06   6.295873e+05
  -1.507546e+06  -5.373171e+05
  -4.990019e+05  -1.386253e+06
   7.693116e+05  -1.036171e+06
   1.136375e+06   2.550649e+04
   3.860547e+05   5.931225e+05
  -5.788094e+05   9.957814e+04
  -6.110087e+05  -8.555829e+05
   5.059739e+05  -1.201404e+06
   1.724849e+06  -4.479348e+05
   1.735462e+06   8.860304e+05
   3.743121e+05   1.741061e+06
  -1.130567e+06   1.439663e+06
  -1.447969e+06   2.895862e+05
  -5.233286e+05  -6.953106e+05
   5.061588e+05  -7.522910e+05
   6.406846e+05  -7.317740e+04
  -7.981936e+03   4.872329e+05
  -5.565378e+05   3.748726e+05
  -3.929114e+05  -9.864480e+04
   2.383012e+05  -1.909739e+05
   5.468011e+05   3.634718e+05
  -4.248576e+03   9.898826e+05
  -1.112297e+06   8.443756e+05
  -1.799076e+06  -2.768447e+05
  -1.297329e+06  -1.625819e+06
   1.327187e+05  -2.132652e+06
   1.383947e+06  -1.390951e+06
   1.596378e+06  -3.529276e+04
   9.652062e+05   8.760850e+05
   3.559161e+05   8.583782e+05
   2.612110e+05   3.667947e+05
   3.586974e+05   1.866978e+05
   6.877416e+04   5.332642e+05
  -6.726486e+05   8.346497e+05
  -1.280943e+06   4.207765e+05
  -1.067912e+06  -6.323561e+05
   8.602423e+04  -1.428872e+06
   1.480641e+06  -1.087480e+06
   2.023812e+06   3.296918e+05
   1.127653e+06   1.757579e+06
  -6.690077e+05   2.060054e+06
  -2.063426e+06   1.060315e+06
  -2.124827e+06  -3.525906e+05
  -1.083435e+06  -1.126686e+06
   3.309662e+04  -1.013128e+06
   4.576606e+05  -6.277409e+05
   2.953311e+05  -6.340651e+05
   1.813280e+05  -9.834622e+05
   5.098020e+05  -1.016474e+06
   1.035390e+06  -2.671511e+05
   1.146098e+06   9.222956e+05
   5.040084e+05   1.639713e+06
  -5.299502e+05   1.259896e+06
  -1.130416e+06   5.866940e+04
  -7.761253e+05  -1.020874e+06
   1.884797e+05  -1.205733e+06
   8.602979e+05  -5.175401e+05
   7.006327e+05   3.699171e+05
   6.638060e+04   8.129545e+05
  -2.582007e+05   7.148232e+05
   1.295553e+04   4.384618e+05
   3.477806e+05   3.234814e+05
   3.723372e+04   3.483377e+05
  -9.246456e+05   2.321005e+05
  -1.702592e+06  -2.030164e+05
  -1.422634e+06  -7.969575e+05
  -1.146122e+05  -1.155307e+06
   1.215060e+06  -9.836835e+05
   1.531207e+06  -3.664015e+05
   7.759643e+05   2.542310e+05
  -1.522209e+05   4.260085e+05
  -4.007159e+05   1.038718e+05
   1.241073e+04  -2.717126e+05
   4.289487e+05  -2.054630e+05
   4.059418e+05   2.902721e+05
   1.199366e+05   6.554100e+05
  -1.441758e+04   4.220072e+05
   1.299778e+05  -1.639208e+05
   3.239618e+05  -3.577087e+05
   2.658094e+05   1.828644e+05
  -1.587214e+05   8.983805e+05
  -7.532020e+05   9.220711e+05
  -1.045369e+06   1.035593e+05
  -6.245512e+05  -7.817442e+05
   3.384377e+05  -8.910641e+05
   1.009113e+06  -2.078086e+05
   6.308703e+05   5.204201e+05
  -5.679151e+05   6.010391e+05
  -1.434520e+06   1.315360e+04
  -1.044866e+06  -7.004462e+05
   2.897316e+05  -9.659372e+05
   1.326975e+06  -6.085871e+05
   1.182128e+06   5.681756e+04
   1.865183e+05   4.727871e+05
  -5.477485e+05   3.026575e+05
  -3.049367e+05  -2.134043e+05
   5.528726e+05  -4.124388e+05
   1.023168e+06   1.321685e+05
   5.060646e+05   1.062223e+06
  -6.048274e+05   1.455290e+06
  -1.340138e+06   7.239580e+05
  -1.107264e+06  -6.859378e+05
  -1.911546e+05  -1.596098e+06
   6.323113e+05  -1.209253e+06
   8.384466e+05   7.119324e+04
   4.724158e+05   1.033301e+06
  -8.589899e+04   9.102958e+05
  -4.667541e+05   1.230438e+05
  -4.837173e+05  -3.407979e+05
  -2.198383e+05  -1.426621e+05
  -1.321610e+04   1.080239e+05
  -1.466781e+05  -2.040460e+05
  -4.261349e+05  -8.210183e+05
  -2.750637e+05  -9.650964e+05
   5.221304e+05  -3.775729e+05
   1.323415e+06   3.884431e+05
   1.226412e+06   7.173817e+05
   1.851149e+05   5.953230e+05
  -8.177758e+05   3.743103e+05
  -8.923295e+05   2.039225e+05
  -2.585961e+05   2.624079e+03
   1.529158e+05  -1.931665e+05
  -5.559494e+04  -2.243948e+05
  -3.238329e+05  -1.288700e+05
  -1.130800e+04  -1.217717e+05
   6.748487e+05  -1.804750e+05
   9.090783e+05   2.584375e+04
   2.574853e+05   5.881517e+05
  -8.118301e+05   9.894435e+05
  -1.426306e+06   6.164467e+05
  -1.134757e+06  -4.150403e+05
  -2.195953e+05  -1.248119e+06
   6.380777e+05  -1.186557e+06
   9.150420e+05  -4.228927e+05
   5.899836e+05   2.469086e+05
   8.332554e+04   3.119050e+05
  -1.353394e+05   7.481109e+03
   4.388039e+04  -7.392321e+04
   3.074103e+05   2.948232e+05
   2.585435e+05   7.077206e+05
  -1.690362e+05   5.796993e+05
  -6.153407e+05  -1.577555e+05
  -6.060875e+05  -8.849512e+05
  -1.820122e+04  -8.950709e+05
   7.080144e+05  -1.442729e+05
   8.868177e+05   6.980414e+05
   2.607011e+05   9.493384e+05
  -6.339383e+05   5.403122e+05
  -9.426926e+05  -8.074339e+04
  -4.256841e+05  -4.792002e+05
   2.412498e+05  -5.248704e+05
   2.651425e+05  -3.089073e+05
  -2.884451e+05  -3.462384e+04
  -5.887036e+05   2.707734e+04
  -1.060721e+05  -2.553158e+05
   7.201005e+05  -6.115424e+05
   1.040999e+06  -5.371971e+05
   5.994805e+05   9.378654e+04
  -8.499203e+04   7.351728e+05
  -4.164020e+05   7.263394e+05
  -3.011531e+05   9.384544e+04
  -1.226347e+04  -4.492640e+05
   2.204173e+05  -3.449718e+05
   3.134800e+05   1.901604e+05
   2.163669e+05   5.075766e+05
  -6.047119e+04   3.172085e+05
  -3.404374e+05  -6.476359e+04
  -3.971078e+05  -1.991069e+05
  -2.129826e+05  -4.355174e+04
  -6.812052e+02   8.157814e+04
   7.255239e+04  -6.541662e+04
   7.590568e+04  -3.503385e+05
   1.652330e+05  -4.125072e+05
   3.179399e+05  -7.751791e+04
   3.193749e+05   4.052804e+05
   2.839971e+04   5.768353e+05
  -3.886969e+05   2.464325e+05
  -5.417605e+05  -2.838531e+05
  -1.928090e+05  -5.273525e+05
   4.245210e+05  -3.139103e+05
   7.370891e+05   9.037629e+04
   4.032522e+05   3.306468e+05
  -2.556591e+05   3.051482e+05
  -5.423110e+05   1.449694e+05
  -1.701276e+05   7.418882e+03
   3.723717e+05  -1.021364e+04
   3.846658e+05   1.247950e+05
  -2.031398e+05   2.979920e+05
  -7.439728e+05   2.382262e+05
