
 $NMID
 id='ANONYMOUS ', fmtdat='(2E16.6)'
 volume=1.0
 tramp=1.0
 $END
  -1.259785e+07  -5.205188e+05
  -7.736263e+06  -6.812804e+06
   9.386781e+05  -8.023972e+06
   5.740678e+06  -4.360492e+06
   4.141551e+06   2.756805e+05
  -1.264748e+05   2.168899e+06
  -2.389917e+06   6.395964e+05
  -1.442188e+06  -2.050168e+06
   8.593414e+05  -2.975226e+06
   2.282839e+06  -1.139954e+06
   1.871421e+06   1.619571e+06
   1.888313e+05   2.459595e+06
  -1.176915e+06   5.626025e+05
  -8.840762e+05  -1.910331e+06
   7.680623e+05  -2.214291e+06
   1.974334e+06  -2.086627e+04
   1.309266e+06   2.439149e+06
  -7.529680e+05   2.938696e+06
  -2.425247e+06   1.341719e+06
  -2.441807e+06  -7.649873e+05
  -1.107510e+06  -1.841094e+06
   1.985619e+05  -1.593530e+06
   3.462642e+05  -8.827647e+05
  -4.849092e+05  -7.460509e+05
  -9.148535e+05  -1.348195e+06
   1.785479e+05  -1.799697e+06
   2.170559e+06  -1.176910e+06
   3.085008e+06   3.114695e+05
   1.804045e+06   1.461856e+06
  -4.984273e+05   1.381583e+06
  -1.610278e+06   3.451766e+05
  -7.289684e+05  -6.530570e+05
   8.745415e+05  -8.232603e+05
   1.517563e+06  -4.119548e+04
   8.304534e+05   1.111005e+06
  -2.711444e+05   1.608619e+06
  -7.867021e+05   8.326222e+05
  -4.883800e+05  -5.277324e+05
   1.053417e+05  -9.440641e+05
   2.841614e+05   1.065658e+05
  -1.991890e+05   1.252437e+06
  -8.220249e+05   8.742918e+05
  -7.567382e+05  -6.813821e+05
   1.771557e+05  -1.431462e+06
   1.134709e+06  -3.225677e+05
   1.033429e+06   1.413347e+06
  -2.763562e+05   1.831962e+06
  -1.745778e+06   5.423714e+05
  -2.059835e+06  -1.116809e+06
  -8.500293e+05  -1.727555e+06
   9.229067e+05  -1.047487e+06
   1.775507e+06   1.452992e+05
   1.050564e+06   8.843873e+05
  -4.337122e+05   7.036092e+05
  -1.195580e+06  -6.786048e+04
  -6.344619e+05  -5.979504e+05
   3.901631e+05  -3.763064e+05
   6.436830e+05   2.360416e+05
  -3.464092e+04   4.669548e+05
  -6.516580e+05   6.697769e+04
  -3.377137e+05  -4.691781e+05
   6.381618e+05  -5.441937e+05
   1.220033e+06  -2.084200e+04
   7.021498e+05   8.073393e+05
  -6.135915e+05   1.438207e+06
  -1.748087e+06   1.329739e+06
  -1.907523e+06   2.860368e+05
  -1.115303e+06  -1.120406e+06
  -1.131808e+05  -1.865795e+06
   3.762696e+05  -1.515608e+06
   3.153928e+05  -7.181519e+05
   2.451681e+05  -3.665113e+05
   5.574174e+05  -4.854095e+05
   1.027057e+06  -3.502308e+05
   1.112672e+06   3.763962e+05
   5.760570e+05   1.089867e+06
  -2.798671e+05   9.783358e+05
  -8.669371e+05   2.162558e+04
  -7.323780e+05  -9.601316e+05
   9.963479e+04  -1.135667e+06
   1.041054e+06  -4.002363e+05
   1.330233e+06   6.237814e+05
   7.400707e+05   1.188336e+06
  -1.454577e+05   1.049145e+06
  -5.662485e+05   5.859085e+05
  -4.638965e+05   3.226406e+05
  -4.720346e+05   3.547038e+05
  -9.858678e+05   3.079607e+05
  -1.529180e+06  -1.610599e+05
  -1.276269e+06  -9.337415e+05
  -8.668477e+04  -1.512187e+06
   1.216581e+06  -1.443297e+06
   1.636408e+06  -6.788764e+05
   9.610596e+05   3.336904e+05
  -8.357271e+04   9.029254e+05
  -5.644543e+05   6.465912e+05
  -2.004521e+05  -7.891154e+04
   4.589724e+05  -4.643570e+05
   6.672289e+05  -1.284750e+05
   2.563366e+05   4.231116e+05
  -2.532653e+05   4.341158e+05
  -2.792103e+05  -1.103918e+05
   1.968020e+05  -4.327395e+05
   6.576697e+05   5.291446e+04
   5.892446e+05   9.791004e+05
  -7.988286e+04   1.415655e+06
  -9.515522e+05   8.757372e+05
  -1.435220e+06  -2.299760e+05
  -1.151961e+06  -1.060164e+06
  -2.760995e+05  -1.113169e+06
   5.169606e+05  -5.745944e+05
   6.365024e+05  -4.910057e+04
   1.871667e+05   1.819662e+04
  -1.440364e+05  -2.759777e+05
   1.063059e+05  -4.561542e+05
   6.257665e+05  -2.157492e+05
   7.238956e+05   2.449780e+05
   1.946378e+05   4.667467e+05
  -4.110499e+05   2.515510e+05
  -4.077665e+05  -1.463227e+05
   2.517310e+05  -3.078713e+05
   9.027636e+05  -3.985955e+04
   8.370078e+05   4.831265e+05
   1.511154e+04   8.536397e+05
  -8.736765e+05   7.294756e+05
  -1.064548e+06   1.451895e+05
  -4.542064e+05  -4.338926e+05
   3.146307e+05  -5.036646e+05
   5.128500e+05  -5.640725e+04
   3.796306e+04   3.684635e+05
  -5.524038e+05   2.699223e+05
  -6.574674e+05  -2.470925e+05
  -2.078119e+05  -6.094681e+05
   3.422964e+05  -4.458105e+05
   4.946106e+05   1.853180e+04
   1.657343e+05   2.603172e+05
  -2.517545e+05   4.054788e+04
  -2.626198e+05  -3.763544e+05
   2.270788e+05  -5.230182e+05
   7.588411e+05  -1.862549e+05
   7.563829e+05   4.010538e+05
   1.511231e+05   7.681486e+05
  -5.094010e+05   6.228906e+05
  -6.396714e+05   1.140710e+05
  -2.259504e+05  -3.104166e+05
   2.260022e+05  -3.289908e+05
   2.838779e+05  -3.453005e+04
   3.375460e+03   2.074004e+05
  -2.340510e+05   1.650758e+05
  -1.688141e+05  -3.108245e+04
   9.567638e+04  -7.017496e+04
   2.245039e+05   1.626054e+05
  -1.394608e+04   4.261367e+05
  -4.919377e+05   3.570668e+05
  -7.840404e+05  -1.352732e+05
  -5.555634e+05  -7.226881e+05
   7.359535e+04  -9.347228e+05
   6.139715e+05  -5.998188e+05
   6.963921e+05  -5.911301e+03
   4.186023e+05   3.857729e+05
   1.585463e+05   3.759393e+05
   1.186074e+05   1.674604e+05
   1.528283e+05   9.189984e+04
   1.883428e+04   2.346093e+05
  -3.014140e+05   3.542239e+05
  -5.573206e+05   1.714337e+05
  -4.584873e+05  -2.798547e+05
   4.522491e+04  -6.174393e+05
   6.507537e+05  -4.621480e+05
   8.807471e+05   1.576544e+05
   4.796173e+05   7.744374e+05
  -3.087943e+05   8.926983e+05
  -9.094179e+05   4.453620e+05
  -9.237300e+05  -1.688055e+05
  -4.656543e+05  -4.946122e+05
   1.574422e+04  -4.384357e+05
   1.979303e+05  -2.752800e+05
   1.334168e+05  -2.851706e+05
   9.207526e+04  -4.362001e+05
   2.362585e+05  -4.418549e+05
   4.583679e+05  -1.070164e+05
   4.970447e+05   4.142956e+05
   2.100211e+05   7.238706e+05
  -2.412732e+05   5.503548e+05
  -4.952704e+05   1.889245e+04
  -3.304206e+05  -4.516930e+05
   9.240042e+04  -5.232363e+05
   3.763056e+05  -2.152144e+05
   2.961281e+05   1.686498e+05
   1.799413e+04   3.515519e+05
  -1.175907e+05   3.043745e+05
   5.117586e+03   1.899419e+05
   1.504542e+05   1.463651e+05
   1.308735e+04   1.533654e+05
  -4.059097e+05   9.083308e+04
  -7.420760e+05  -1.062265e+05
  -6.148676e+05  -3.599136e+05
  -3.912662e+04  -5.026140e+05
   5.412404e+05  -4.172516e+05
   6.717613e+05  -1.476995e+05
   3.331045e+05   1.155548e+05
  -7.302132e+04   1.830545e+05
  -1.738982e+05   4.037368e+04
   1.272231e+04  -1.208643e+05
   1.923470e+05  -8.764591e+04
   1.756537e+05   1.324795e+05
   4.754683e+04   2.934612e+05
  -9.677641e+03   1.895793e+05
   5.528927e+04  -7.046660e+04
   1.397543e+05  -1.571843e+05
   1.122713e+05   8.035582e+04
  -7.600634e+04   3.926830e+05
  -3.367644e+05   3.966290e+05
  -4.599659e+05   3.189420e+04
  -2.670253e+05  -3.522608e+05
   1.593904e+05  -3.873603e+05
   4.482400e+05  -7.937893e+04
   2.737553e+05   2.345301e+05
  -2.534651e+05   2.578013e+05
  -6.270645e+05  -4.239272e+03
  -4.512152e+05  -3.097747e+05
   1.314288e+05  -4.166743e+05
   5.804502e+05  -2.575778e+05
   5.145668e+05   2.977603e+04
   7.943438e+04   2.064876e+05
  -2.402073e+05   1.287510e+05
  -1.310713e+05  -9.661444e+04
   2.473158e+05  -1.787768e+05
   4.510942e+05   6.593044e+04
   2.155590e+05   4.741234e+05
  -2.790231e+05   6.390439e+05
  -5.977354e+05   3.093941e+05
  -4.826786e+05  -3.106429e+05
  -7.230964e+04  -7.032585e+05
   2.845452e+05  -5.262218e+05
   3.644745e+05   3.643749e+04
   1.995373e+05   4.535775e+05
  -4.117338e+04   3.949586e+05
  -2.032446e+05   4.982591e+04
  -2.106847e+05  -1.498620e+05
  -9.713676e+04  -6.082152e+04
  -5.644994e+03   4.655250e+04
  -6.027948e+04  -9.458786e+04
  -1.802343e+05  -3.651530e+05
  -1.152033e+05  -4.223921e+05
   2.307774e+05  -1.579294e+05
   5.785783e+05   1.798514e+05
   5.334975e+05   3.206385e+05
   7.577615e+04   2.620097e+05
  -3.628272e+05   1.610004e+05
  -3.921689e+05   8.408889e+04
  -1.111636e+05  -3.300512e+03
   6.934085e+04  -8.522039e+04
  -2.462254e+04  -9.567537e+04
  -1.435195e+05  -5.489816e+04
  -4.179375e+03  -5.444433e+04
   2.994723e+05  -7.805508e+04
   4.001301e+05   1.859219e+04
   1.072875e+05   2.659734e+05
  -3.671923e+05   4.322250e+05
  -6.341939e+05   2.569255e+05
  -4.970096e+05  -1.965449e+05
  -8.714266e+04  -5.518135e+05
   2.906047e+05  -5.148562e+05
   4.074952e+05  -1.781772e+05
   2.592706e+05   1.123133e+05
   3.410184e+04   1.388720e+05
  -6.203178e+04   5.288160e+03
   1.694627e+04  -3.114030e+04
   1.318209e+05   1.296597e+05
   1.088059e+05   3.111077e+05
  -7.913669e+04   2.544237e+05
  -2.720096e+05  -7.307645e+04
  -2.623697e+05  -3.961740e+05
  -3.325288e+02  -3.981536e+05
   3.166099e+05  -5.995656e+04
   3.879427e+05   3.156535e+05
   1.065920e+05   4.219900e+05
  -2.858636e+05   2.327123e+05
  -4.144552e+05  -4.485484e+04
  -1.804467e+05  -2.154139e+05
   1.131882e+05  -2.278348e+05
   1.188457e+05  -1.307313e+05
  -1.284982e+05  -1.469645e+04
  -2.595346e+05   7.925877e+03
  -4.363052e+04  -1.141753e+05
   3.209686e+05  -2.634058e+05
   4.589936e+05  -2.256275e+05
   2.597858e+05   4.902697e+04
  -4.454443e+04   3.229059e+05
  -1.898422e+05   3.129434e+05
  -1.351129e+05   3.498432e+04
  -2.877339e+03  -1.997142e+05
   1.016496e+05  -1.501979e+05
   1.393792e+05   8.646528e+04
   9.115788e+04   2.254219e+05
  -3.203886e+04   1.394443e+05
  -1.506394e+05  -3.144556e+04
  -1.709053e+05  -9.147424e+04
  -9.141132e+04  -2.069040e+04
  -3.494482e+03   3.701042e+04
   2.743685e+04  -2.886859e+04
   3.471592e+04  -1.581057e+05
   8.021647e+04  -1.858360e+05
   1.465076e+05  -3.274506e+04
   1.404400e+05   1.855271e+05
   7.583319e+03   2.595626e+05
  -1.746991e+05   1.066084e+05
  -2.377289e+05  -1.315399e+05
  -8.160610e+04  -2.351551e+05
   1.894787e+05  -1.336384e+05
   3.246167e+05   4.757400e+04
   1.747937e+05   1.495521e+05
  -1.172114e+05   1.320374e+05
  -2.426715e+05   5.836376e+04
  -7.524998e+04  -7.595274e+02
   1.669963e+05  -4.919318e+03
   1.722003e+05   5.702149e+04
  -8.992492e+04   1.328027e+05
  -3.300869e+05   1.037008e+05
