
 $NMID
 id='ANONYMOUS ', fmtdat='(2E16.6)'
 volume=1.0
 tramp=1.0
 $END
  -5.379397e+07  -3.420025e+06
  -3.056234e+07  -3.427786e+07
   8.554395e+06  -3.553592e+07
   2.668919e+07  -1.338113e+07
   1.565466e+07   6.467640e+06
  -3.139738e+06   8.737562e+06
  -9.407743e+06  -9.458348e+05
  -2.783070e+06  -9.309200e+06
   5.935711e+06  -9.262016e+06
   9.370141e+06  -1.962147e+06
   6.600950e+06   6.446874e+06
   3.644227e+05   8.669830e+06
  -4.169618e+06   2.376171e+06
  -2.484981e+06  -5.873755e+06
   3.845945e+06  -6.650675e+06
   7.601586e+06   1.420041e+06
   3.973739e+06   1.008707e+07
  -4.129504e+06   1.131153e+07
  -1.008508e+07   5.149754e+06
  -1.025176e+07  -2.759435e+06
  -5.643297e+06  -7.643444e+06
   8.886767e+04  -8.032713e+06
   2.864364e+06  -5.229192e+06
   1.161539e+06  -2.552430e+06
  -1.536374e+06  -2.797781e+06
   1.272426e+05  -4.721462e+06
   6.167106e+06  -4.115840e+06
   1.001908e+07   3.347142e+05
   6.711161e+06   4.731790e+06
  -4.684379e+05   5.060192e+06
  -4.324259e+06   2.097597e+06
  -2.530588e+06  -6.459648e+05
   1.204090e+06  -1.401033e+06
   3.031766e+06  -3.464070e+05
   2.348152e+06   2.104200e+06
   1.598787e+05   4.403781e+06
  -2.225641e+06   3.586136e+06
  -2.909557e+06  -6.818498e+05
  -1.050078e+06  -3.684683e+06
   9.585650e+05  -1.360823e+06
   7.456866e+03   2.955586e+06
  -2.675218e+06   2.383653e+06
  -2.337418e+06  -3.134973e+06
   2.339820e+06  -5.754683e+06
   6.337728e+06  -6.584701e+05
   4.418642e+06   6.779030e+06
  -2.160524e+06   7.973414e+06
  -7.291166e+06   1.920501e+06
  -6.824355e+06  -4.695983e+06
  -1.822569e+06  -6.149764e+06
   3.559176e+06  -2.772841e+06
   5.423272e+06   1.546145e+06
   2.555739e+06   3.511330e+06
  -2.318743e+06   2.127646e+06
  -4.408895e+06  -9.991308e+05
  -1.876395e+06  -2.671742e+06
   1.711551e+06  -1.266614e+06
   1.813146e+06   1.063154e+06
  -1.082708e+06   1.003836e+06
  -2.326815e+06  -1.421039e+06
   3.945077e+05  -2.976135e+06
   4.185137e+06  -1.650652e+06
   5.004066e+06   1.299402e+06
   2.154964e+06   3.840856e+06
  -2.156417e+06   5.165470e+06
  -5.544553e+06   4.606095e+06
  -6.447093e+06   1.287177e+06
  -4.309379e+06  -3.592804e+06
  -5.247004e+05  -6.349785e+06
   1.968019e+06  -4.828640e+06
   1.655982e+06  -1.444925e+06
   2.954145e+05  -1.203620e+05
   4.846081e+05  -1.191076e+06
   2.191093e+06  -1.615332e+06
   3.127086e+06   2.566468e+05
   1.969148e+06   2.494945e+06
  -3.032162e+05   2.478195e+06
  -1.927822e+06   1.153814e+05
  -1.813265e+06  -2.471180e+06
   2.127765e+05  -3.209906e+06
   3.081973e+06  -1.482221e+06
   4.507202e+06   1.652466e+06
   2.922114e+06   4.050325e+06
  -3.606264e+05   4.136822e+06
  -2.366945e+06   2.471527e+06
  -2.165261e+06   1.032681e+06
  -1.836989e+06   7.305549e+05
  -3.112806e+06   4.845987e+05
  -4.595926e+06  -9.296475e+05
  -3.625404e+06  -3.079633e+06
   2.263413e+04  -4.455522e+06
   3.677264e+06  -4.070560e+06
   4.693072e+06  -2.016643e+06
   2.840752e+06   7.257419e+05
   4.410172e+04   2.499568e+06
  -1.409192e+06   1.989002e+06
  -5.994233e+05  -1.195547e+05
   1.287391e+06  -1.348703e+06
   2.048939e+06  -3.208950e+05
   8.675958e+05   1.331231e+06
  -6.606772e+05   1.195892e+06
  -5.362110e+05  -4.130998e+05
   1.024287e+06  -8.330695e+05
   1.906939e+06   1.146984e+06
   8.011357e+05   3.539084e+06
  -1.468041e+06   3.714766e+06
  -3.261612e+06   1.417910e+06
  -3.668120e+06  -1.464645e+06
  -2.581324e+06  -3.111036e+06
  -4.598380e+05  -2.960392e+06
   1.457406e+06  -1.557143e+06
   1.762366e+06  -1.478717e+05
   5.353515e+05   7.278575e+04
  -3.591979e+05  -8.312233e+05
   4.813809e+05  -1.399651e+06
   2.034265e+06  -5.297269e+05
   2.132647e+06   9.998042e+05
   3.815426e+05   1.506187e+06
  -1.281734e+06   5.867563e+05
  -9.984999e+05  -5.216527e+05
   8.989595e+05  -6.088278e+05
   2.419608e+06   3.309343e+05
   1.971617e+06   1.536056e+06
  -2.800500e+05   2.216427e+06
  -2.595129e+06   1.771999e+06
  -3.048822e+06   1.971627e+05
  -1.259006e+06  -1.404650e+06
   1.053610e+06  -1.542495e+06
   1.652047e+06  -1.155337e+05
   1.342100e+05   1.159644e+06
  -1.676510e+06   7.213332e+05
  -1.839766e+06  -9.013253e+05
  -3.448719e+05  -1.803450e+06
   1.183524e+06  -1.062952e+06
   1.363695e+06   3.300098e+05
   2.774219e+05   8.349553e+05
  -8.384767e+05   2.902102e+04
  -7.405938e+05  -1.176020e+06
   7.087958e+05  -1.520181e+06
   2.223857e+06  -4.823497e+05
   2.165223e+06   1.250105e+06
   3.224228e+05   2.273278e+06
  -1.626582e+06   1.723787e+06
  -1.882318e+06   1.703868e+05
  -5.286274e+05  -9.563081e+05
   7.414250e+05  -8.593144e+05
   7.252388e+05  -5.676117e+04
  -1.124019e+05   4.374947e+05
  -5.803337e+05   2.673201e+05
  -2.198542e+05  -7.824464e+04
   4.296607e+05   3.602644e+04
   5.516326e+05   6.922480e+05
  -2.374379e+05   1.269449e+06
  -1.531870e+06   9.248963e+05
  -2.253061e+06  -5.378257e+05
  -1.509012e+06  -2.186134e+06
   3.450191e+05  -2.648089e+06
   1.829843e+06  -1.512238e+06
   1.876806e+06   1.765863e+05
   9.638796e+05   1.046115e+06
   3.513761e+05   8.153987e+05
   4.730609e+05   3.255183e+05
   6.105027e+05   3.586048e+05
   5.074663e+04   8.032266e+05
  -9.781287e+05   9.529940e+05
  -1.604249e+06   3.227458e+05
  -1.159278e+06  -8.405395e+05
   3.035572e+05  -1.628332e+06
   1.930785e+06  -1.131159e+06
   2.454836e+06   6.164639e+05
   1.172299e+06   2.333405e+06
  -1.167137e+06   2.531275e+06
  -2.788394e+06   1.039965e+06
  -2.555733e+06  -7.752698e+05
  -1.051307e+06  -1.493866e+06
   2.226033e+05  -1.075646e+06
   4.799862e+05  -5.993499e+05
   1.933876e+05  -8.258153e+05
   2.150343e+05  -1.385721e+06
   7.842374e+05  -1.343248e+06
   1.408106e+06  -2.755387e+05
   1.404814e+06   1.248424e+06
   5.185934e+05   2.101806e+06
  -7.515826e+05   1.545808e+06
  -1.409655e+06  -5.019276e+04
  -8.400628e+05  -1.417151e+06
   4.559130e+05  -1.500283e+06
   1.242932e+06  -4.257564e+05
   8.403064e+05   7.368030e+05
  -1.453253e+05   1.128214e+06
  -5.655570e+05   8.297038e+05
  -8.551958e+04   4.697871e+05
   4.510410e+05   4.006860e+05
   4.260865e+04   4.283498e+05
  -1.245892e+06   1.821945e+05
  -2.213722e+06  -4.492884e+05
  -1.719224e+06  -1.188021e+06
   7.685808e+04  -1.536987e+06
   1.752558e+06  -1.158619e+06
   1.997975e+06  -2.436413e+05
   8.945641e+05   5.314702e+05
  -2.970946e+05   5.871062e+05
  -5.463259e+05   2.998881e+04
   3.285311e+03  -4.384150e+05
   5.117737e+05  -2.580487e+05
   5.070926e+05   3.975991e+05
   2.155807e+05   8.177437e+05
   5.482977e+04   5.365471e+05
   1.541737e+05  -1.199063e+05
   3.379349e+05  -3.388674e+05
   2.964777e+05   2.621587e+05
  -2.119117e+05   1.087395e+06
  -1.031576e+06   1.121342e+06
  -1.467331e+06   1.044816e+05
  -8.575324e+05  -1.047243e+06
   5.105217e+05  -1.201395e+06
   1.378044e+06  -2.814560e+05
   7.759677e+05   6.705078e+05
  -7.891703e+05   6.836334e+05
  -1.745635e+06  -1.567648e+05
  -1.100741e+06  -9.751608e+05
   5.413837e+05  -1.080480e+06
   1.663335e+06  -4.998330e+05
   1.364446e+06   2.378242e+05
   1.402511e+05   5.732665e+05
  -7.180012e+05   2.789131e+05
  -3.978294e+05  -3.329185e+05
   6.799712e+05  -5.377839e+05
   1.297134e+06   1.596448e+05
   6.656848e+05   1.340894e+06
  -7.494185e+05   1.841942e+06
  -1.684802e+06   8.963388e+05
  -1.349257e+06  -8.957733e+05
  -1.440215e+05  -1.985182e+06
   8.672718e+05  -1.404135e+06
   1.010453e+06   2.187411e+05
   4.369826e+05   1.323656e+06
  -2.622572e+05   1.061595e+06
  -6.142802e+05   7.423852e+04
  -5.103745e+05  -4.345963e+05
  -1.895292e+05  -1.584660e+05
  -5.083063e+04   1.054917e+05
  -2.721647e+05  -3.336559e+05
  -5.106538e+05  -1.083340e+06
  -1.812502e+05  -1.192610e+06
   7.835681e+05  -4.007771e+05
   1.606212e+06   5.742133e+05
   1.387993e+06   9.703445e+05
   1.745343e+05   7.729646e+05
  -9.696854e+05   4.286541e+05
  -1.093785e+06   1.652286e+05
  -3.821806e+05  -7.052264e+04
   1.746756e+05  -2.428931e+05
   3.195055e+04  -2.254499e+05
  -3.045317e+05  -1.165933e+05
  -4.534836e+04  -1.518934e+05
   7.547441e+05  -2.338560e+05
   1.152513e+06   6.061445e+04
   4.287852e+05   7.871100e+05
  -9.907384e+05   1.260968e+06
  -1.899829e+06   7.503263e+05
  -1.526035e+06  -5.470905e+05
  -2.420941e+05  -1.564637e+06
   9.005663e+05  -1.478633e+06
   1.182238e+06  -5.427292e+05
   7.175459e+05   2.875184e+05
   1.283188e+05   4.027914e+05
  -9.252786e+04   6.977615e+04
   8.277740e+04  -1.982383e+04
   3.186079e+05   4.116906e+05
   2.430528e+05   8.980623e+05
  -2.280489e+05   7.404948e+05
  -7.516230e+05  -1.648025e+05
  -7.760260e+05  -1.086585e+06
  -7.802172e+04  -1.147143e+06
   8.496361e+05  -2.406748e+05
   1.115712e+06   8.423922e+05
   3.369586e+05   1.217902e+06
  -8.177652e+05   7.152081e+05
  -1.228411e+06  -1.306310e+05
  -5.541636e+05  -6.947777e+05
   3.477994e+05  -7.300664e+05
   4.286610e+05  -3.843179e+05
  -2.797637e+05  -1.626437e+04
  -7.196699e+05   1.865904e+04
  -1.467627e+05  -3.460795e+05
   9.355541e+05  -7.165405e+05
   1.400542e+06  -5.450658e+05
   8.239047e+05   2.268777e+05
  -1.425757e+05   9.529112e+05
  -6.399441e+05   9.153709e+05
  -4.748214e+05   1.532034e+05
  -4.079926e+04  -5.349257e+05
   2.841253e+05  -4.695135e+05
   3.876694e+05   1.789209e+05
   2.577550e+05   6.469972e+05
  -7.980219e+04   4.671392e+05
  -4.313525e+05  -6.570668e+04
  -5.089536e+05  -3.268018e+05
  -2.604912e+05  -1.134799e+05
   2.658703e+04   1.666956e+05
   8.143933e+04   4.565583e+04
   1.331127e+03  -3.990712e+05
   8.721028e+04  -6.110470e+05
   3.708087e+05  -2.267060e+05
   4.931754e+05   4.452735e+05
   1.445902e+05   7.293011e+05
  -4.656388e+05   3.329486e+05
  -7.239126e+05  -3.377496e+05
  -2.595104e+05  -6.453251e+05
   5.731598e+05  -3.824025e+05
   9.713991e+05   1.198632e+05
   5.138145e+05   4.356823e+05
  -3.424787e+05   4.289713e+05
  -7.172213e+05   2.247554e+05
  -2.761560e+05   6.751775e+03
   3.903991e+05  -6.682009e+04
   4.536308e+05   8.490811e+04
  -1.941409e+05   3.207464e+05
  -8.322496e+05   2.797939e+05
