
 $NMID
 id='ANONYMOUS ', fmtdat='(2E16.6)'
 volume=1.0
 tramp=1.0
 $END
  -1.058285e+03  -6.813556e+01
  -6.732448e+02  -6.107665e+02
  -9.269809e+01  -7.102700e+02
   3.810208e+02  -5.504721e+02
   4.349440e+02  -1.870711e+02
   1.478115e+02   6.644886e+01
  -3.639132e+01  -1.694650e+00
  -7.609970e+01  -1.619954e+02
   1.725229e+02  -2.341394e+02
   2.794254e+02  -8.338087e+01
   2.147811e+02   1.380105e+02
  -1.334017e+01   1.942180e+02
  -1.057851e+02   5.593321e+01
  -1.320882e+02  -1.297235e+02
   5.346914e+00  -1.405852e+02
   1.050346e+02  -6.752380e+01
   1.284219e+02   7.279219e+01
   1.930897e+01   1.502583e+02
  -1.534523e+02   1.163588e+02
  -1.825400e+02  -5.131494e+01
  -9.045174e+01  -1.021916e+02
   5.775899e+01  -8.387829e+01
   1.385399e+01   3.132873e+00
  -7.146171e+01  -3.295123e+01
  -5.835423e+01  -1.127097e+02
   5.286873e-02  -7.120445e+01
   1.217451e+02  -7.013966e+01
   1.336918e+02   4.258561e+01
   4.650734e+01   5.911608e+01
  -7.492581e+01   5.008926e+01
  -1.354615e+02  -3.120172e+01
  -2.297603e+01  -1.057125e+02
   6.875429e+01  -9.368933e+01
   1.539254e+02  -6.445382e+01
   1.057981e+02   5.820604e+01
   4.404345e+01   8.873364e+01
   2.726341e+01   4.417768e+01
   2.859576e+01   1.121654e+01
   6.090673e+01   2.157586e+01
   4.112816e+01   1.028831e+02
  -1.607583e+01   1.575817e+02
  -9.488844e+01   9.191376e+01
  -8.352180e+01   1.424972e+01
  -4.057919e+01  -1.382960e+01
   2.794302e+01   3.348244e+01
   2.158988e+01   9.933432e+01
  -1.003130e+02   1.080626e+02
  -1.365118e+02   1.948854e+01
  -1.659805e+02  -8.729802e+01
  -7.473668e+01  -1.606439e+02
   6.428185e+01  -1.119351e+02
   1.620101e+02  -1.658267e+01
   1.149334e+02   4.379417e+01
   2.893296e+01   9.907778e+01
  -5.648821e+01   5.426328e+01
  -5.451089e+01   5.088658e+01
   1.957100e+01   2.495494e+01
  -1.004875e+01   1.069103e+01
  -5.943996e+01   3.345754e+01
  -8.442822e+01  -4.954861e+01
  -1.101166e+01  -1.096761e+02
   5.075710e+01  -1.230082e+02
   1.199373e+02  -3.560310e+00
   8.855642e+01   4.136986e+01
   1.982311e+01   1.206601e+02
  -5.914919e+01   8.021867e+01
  -5.672602e+01   6.347567e+01
  -6.688109e+01  -3.323966e+01
  -4.125315e+01  -9.214531e+01
   2.151045e+01  -1.087823e+02
   2.097015e+01  -5.854411e+01
   5.452199e+01  -7.037205e+00
   4.116137e+01  -4.947601e+00
   7.734670e+01   7.808366e+00
   6.581080e+01   2.703585e+01
   3.247475e+01   7.273172e+01
  -2.532428e+01   4.592989e+01
  -6.372571e+01   5.733311e+00
  -5.673640e+01  -5.955593e+01
   3.066827e+01  -1.121072e+02
   7.029641e+01  -4.941426e+01
   1.101803e+02   1.756535e+01
   8.635174e+01   4.871578e+01
  -8.381064e+00   5.739747e+01
  -4.563859e+01   7.852814e+01
  -5.222273e+01   6.217524e+01
  -6.703167e+01   3.815156e+01
  -9.914505e+01   1.006198e+01
  -1.222039e+02  -2.614040e+01
  -1.029491e+02  -8.428283e+01
  -2.534750e+01  -1.294078e+02
   7.819929e+01  -1.462826e+02
   1.625738e+02  -9.273809e+01
   1.157540e+02   7.352456e+00
   4.377091e+01   5.103689e+01
  -4.189777e+00   6.600929e+01
   2.452604e+00   6.088338e+01
   1.890699e+01   2.417445e+01
   6.836332e+00   2.650771e+01
  -9.108856e+00   3.465013e+01
  -5.994269e+01  -1.212322e+01
  -4.902236e+01  -4.342988e+00
   1.428273e+01  -3.541569e+01
   3.778014e+01  -4.914414e+00
   5.003727e+01   4.526177e+01
  -1.317987e+01   7.351928e+01
  -8.216198e+01   5.198208e+01
  -1.109355e+02  -5.211103e+00
  -8.839725e+01  -8.533071e+01
  -7.170865e+00  -9.669303e+01
   4.192606e+01  -6.559701e+01
   4.977384e+01   5.300587e+00
  -1.474140e+01   1.432160e+01
  -1.553740e+01  -1.108007e+01
  -5.830855e+00  -1.220885e+01
   1.449330e+01  -2.149520e+01
   5.085574e+01   3.347649e+01
   9.403659e+00  -2.152045e-01
  -3.017450e+01  -3.124233e+01
  -2.765404e+01  -2.999384e+01
   4.825918e+01  -2.132462e+01
   1.038442e+02   2.295790e+01
   1.044771e+02   5.955409e+01
   1.007815e+01   9.295071e+01
  -7.468337e+01   1.127623e+02
  -1.104131e+02   5.066539e+01
  -7.407924e+01  -2.259836e+01
   1.393300e+01  -4.262449e+01
   1.919991e+01   8.211244e+00
  -1.069314e+01   3.267015e+01
  -5.188596e+01   5.759686e+00
  -3.836414e+01  -2.603770e+01
  -3.203835e+01  -5.732755e+01
   7.168601e+01  -4.950393e+01
   2.030622e+01  -3.746994e+01
   8.284314e+00   3.085404e+01
  -2.266419e+01  -2.716794e+01
  -2.165563e+01  -1.950572e+01
   4.282216e+01  -4.931557e+01
   8.315194e+01  -4.512116e+01
   6.953865e+01   2.906380e+01
   8.478119e+00   6.268213e+01
  -6.063699e+01   5.407426e+01
  -7.005426e+01   1.394280e+01
  -2.145468e+01  -7.467444e+00
   3.937147e+01  -5.977865e+01
   1.661081e+01  -2.134994e+01
  -2.854067e+01   4.685521e+00
   8.311138e+00  -9.954455e+00
  -9.767718e+00  -4.142017e+01
   4.974923e+01  -3.155670e+01
   5.981162e+01   6.119867e+01
   9.519086e-01   6.156345e+01
  -4.787865e+01   4.170285e+01
  -8.115609e+01   4.374863e+00
  -6.844038e+01  -2.207451e+01
  -3.699524e+01  -6.762854e+01
   6.967964e+01  -4.641552e+01
   5.506119e+01  -9.628254e+00
   2.169364e+01  -3.271945e+01
   2.526267e+01   1.935485e+01
   1.206330e+01  -3.518107e+01
   2.884528e+01   3.125226e+00
   2.767650e+01   4.395732e+01
  -6.606817e+01   2.441276e+01
  -4.466194e+01   2.025112e+01
  -3.578289e+01  -6.198912e+01
  -3.240745e+00  -4.620130e+01
   3.378832e+01  -6.543466e+01
   7.912045e+01   2.594954e+01
   3.360632e+01   7.868436e+01
  -3.959182e+01   7.039991e+01
  -8.323449e+01   2.607740e+01
  -7.832398e+01  -8.163678e+01
  -2.956876e+01  -5.323146e+01
  -1.556422e+01  -5.824107e+01
   2.605602e+01   9.478423e+00
  -7.667516e+00  -9.466614e-01
   2.427135e+01  -3.688160e+01
   1.440145e+01  -2.171995e+01
   7.318040e+01   1.352498e+01
   5.053036e+01   9.782683e+01
   2.499973e+01   8.138484e+01
  -6.271421e+01   5.465423e+01
  -6.031188e+01  -3.599611e+01
  -4.548500e+01  -4.462450e+01
  -4.352571e+01  -5.309766e+01
   1.408229e+01  -2.104696e+01
   5.323138e+01   2.127228e+01
   6.604505e+00   3.159644e+01
  -4.516950e+01   2.382763e+01
   2.740887e+01  -2.073645e+01
   3.769929e+01   3.140220e+00
   4.328104e+01   1.705362e+00
  -1.245780e+00  -5.416636e-01
  -2.730408e+01   4.195942e+00
  -4.207830e+01  -6.389725e+00
   1.561522e+01  -5.199314e+01
   2.279579e+01  -5.464660e+01
   4.506167e+01  -6.134614e+00
  -2.994053e+01   2.566567e+01
  -2.370934e+00   3.687821e+01
   2.578419e+01   6.668961e+00
  -1.628059e+01  -3.868325e+01
   1.380465e+01  -1.926189e+01
   1.655720e+01  -5.521159e+00
   2.281024e+01   2.769516e+01
   3.570166e+01   6.676584e+00
   9.236188e+00   2.640702e+01
  -8.008110e+00   5.248172e+00
  -4.980652e+00   3.002159e+01
  -2.749646e+01   4.795837e+01
  -5.381102e+01   3.859833e+01
  -6.399163e+01  -1.273768e+01
  -4.177492e+01  -5.368045e+01
   2.454349e+00  -2.932887e+01
   5.256220e+01  -6.222007e+00
   2.626235e+01   2.303227e+01
  -3.106567e+01  -6.947496e+00
  -5.216356e+01   8.802265e-01
  -1.978730e+01  -2.464525e+01
   1.116138e+01  -5.525750e+01
   5.511247e+01  -3.219071e+00
   3.463420e+01   1.447936e+00
   2.657270e+01   5.545305e+01
  -1.550112e+01   2.861101e+01
   1.809765e+00  -4.087352e+00
   3.693880e+01  -4.344757e+01
   3.966524e+01   1.498905e-01
   2.925493e+00   2.875138e+01
  -4.620994e+01   3.793293e+01
  -4.664787e+01   3.431119e+00
  -3.371616e+01  -4.619472e+01
   3.275388e-01  -5.139901e+01
   6.295656e+01  -8.122925e+01
   3.352049e+01   2.726578e+01
   3.993450e+01   6.838653e+01
  -6.639971e+00   3.309240e+01
  -6.911086e+00   1.681362e+01
  -3.526926e+01   1.007642e+00
  -1.162163e+01  -2.298591e+01
   1.497971e+01   2.848715e+01
  -1.280391e+01  -4.295428e+00
  -2.397008e+01  -1.949936e+01
   1.368620e+01  -3.558210e+01
   1.708625e+01  -3.197835e+01
  -4.134158e+00  -6.358056e+00
   5.049206e+01  -1.617820e+00
   6.861633e+00   1.905626e+01
  -1.277367e+01  -1.413440e+01
  -3.176580e+01  -1.005280e+01
  -3.022964e+01   5.403941e+00
  -1.707129e+01  -2.259249e+01
   1.105812e+01  -2.428661e+01
   1.439583e+01  -2.396149e+01
   1.733597e+00   3.132682e+01
   1.727122e+01   1.833965e+01
   5.701823e+00  -1.171556e+01
   2.349700e+01   3.078030e+01
  -2.059794e+01   6.581523e+01
  -5.740388e+01   2.846478e+01
  -6.997211e+01  -1.884578e+01
   3.150761e+00  -4.081454e+01
   1.048834e+01  -2.706041e+01
   2.784267e+01  -3.869641e+01
   2.093059e+01  -1.628846e+01
   4.941600e+01  -1.634624e+01
  -1.028163e-01   2.981237e+01
  -3.008236e+01  -1.586538e+01
  -1.513506e+01   1.816635e+01
  -3.400815e+01   4.211738e+01
  -3.671508e+01  -7.277822e+00
   1.173148e+01  -8.675963e+00
   1.716817e+01   2.273869e+01
  -3.617974e+01  -3.159235e+01
   3.944167e+01   3.133954e+00
  -6.526535e+00  -1.276008e+01
   5.374714e+00   6.063169e+00
  -2.739974e+01   7.367120e+00
  -4.670235e+01  -3.389227e+01
  -4.588014e+01  -7.179037e+00
  -5.296221e+00  -3.149791e+01
   3.705475e+01  -1.388580e+01
   5.424442e+00  -1.569531e+01
  -5.722865e+00   8.156692e+00
  -3.576639e+01   4.213961e+00
  -2.582192e+01   2.629972e+01
   4.851655e+01  -4.132325e+01
   4.400710e+00  -1.617706e+01
  -2.959357e+01   1.691581e+01
  -2.092922e+01   5.969343e+01
   1.912237e+01   3.132469e+01
  -2.381515e+01   2.019391e+01
  -3.284518e+01   1.273374e+00
   2.666613e+01  -2.856489e+01
  -3.012358e+01  -6.976345e+00
   1.584393e+00  -2.658041e+00
   1.875159e+01   2.401196e+01
  -1.734654e+01  -1.006286e+01
  -1.959053e+01  -1.536343e+01
   1.231018e+01  -7.186434e+00
   9.079095e-01   1.419634e+01
   1.258714e+01  -2.085015e+01
  -3.778680e+01  -3.749248e+01
  -3.168531e+01   3.792211e+00
   1.872832e+01  -7.487662e+00
  -3.940193e+00   4.016266e+01
   2.446964e+00  -1.705427e+01
  -3.575110e+01  -3.156240e-01
   9.679440e+00  -1.623140e+01
   3.734292e+01  -3.984348e+01
   2.773204e+01   5.010101e+00
   2.649385e+01   6.320851e+00
  -3.219259e+01   2.687227e+01
  -1.750322e+01   5.119229e+00
  -4.285961e+01   3.633718e+00
  -1.115920e+01  -1.889578e+01
  -1.174943e+01  -4.448323e+01
  -1.221102e+01  -5.029377e+00
  -2.975914e+01   1.937343e+01
