
 $NMID
 id='ANONYMOUS ', fmtdat='(2E16.6)'
 volume=1.0
 tramp=1.0
 $END
  -3.722478e+03  -1.182881e+02
  -2.600773e+03  -2.279355e+03
   2.993206e+02  -2.389251e+03
   1.467302e+03  -1.137706e+03
   9.484553e+02  -7.725955e-01
  -1.572004e+02   4.362714e+02
  -6.006869e+02  -1.960476e+02
  -6.819369e+00  -7.308004e+02
   6.119920e+02  -6.627439e+02
   6.770923e+02  -2.887055e+01
   4.227448e+02   6.617613e+02
  -1.734740e+02   7.109818e+02
  -3.987781e+02   1.937307e+02
  -3.397096e+02  -5.197665e+02
   2.053781e+02  -6.221439e+02
   5.551429e+02  -1.331966e+02
   4.238823e+02   5.756230e+02
  -1.961716e+02   6.156436e+02
  -6.290126e+02   1.866996e+02
  -4.462225e+02  -2.076904e+02
  -1.393310e+02  -3.802742e+02
   1.376217e+02  -3.303403e+02
   9.736499e+01  -6.713530e+01
  -1.661586e+02  -7.868742e+01
  -3.079516e+02  -2.886979e+02
  -2.955321e+01  -3.972356e+02
   4.613071e+02  -1.567616e+02
   7.301374e+02   2.133913e+02
   2.540220e+02   4.938895e+02
  -3.584812e+02   3.677484e+02
  -6.012940e+02  -1.222557e+02
  -2.562047e+02  -4.552668e+02
   2.691058e+02  -4.902011e+02
   5.058309e+02  -1.662194e+02
   3.758104e+02   1.592010e+02
   9.760785e+01   3.679303e+02
  -7.552070e+01   2.708539e+02
  -1.094632e+01  -9.713742e+01
   1.852059e+02  -2.244594e+02
   2.896119e+02   1.208933e+02
   1.202017e+02   5.727287e+02
  -3.108584e+02   5.172972e+02
  -4.702673e+02   1.731830e+01
  -1.505856e+02  -3.403513e+02
   1.952218e+02  -1.786123e+02
   2.045162e+02   3.201138e+02
  -1.051606e+02   4.134323e+02
  -4.946659e+02   4.556362e+01
  -5.875357e+02  -3.740321e+02
  -1.835412e+02  -5.245414e+02
   3.572196e+02  -3.097820e+02
   5.691820e+02  -2.165955e+01
   3.142204e+02   3.222748e+02
  -9.782470e+01   2.711933e+02
  -2.761341e+02   7.259990e+01
  -2.524485e+02  -6.497809e+01
   2.955939e+01  -2.877159e+01
   3.944163e+01   1.293070e+02
  -1.362753e+02   9.664245e+01
  -2.696547e+02  -5.691380e+01
  -1.198283e+02  -2.655085e+02
   1.779820e+02  -2.706007e+02
   2.948696e+02  -1.274300e+02
   2.515943e+02   1.946254e+02
  -2.612929e+01   3.311397e+02
  -2.574062e+02   3.201404e+02
  -4.099621e+02   1.986337e+02
  -3.026997e+02  -1.785707e+02
  -3.020929e+01  -4.161924e+02
   5.803211e+01  -3.840385e+02
   1.691560e+01  -1.925103e+02
   5.685299e+01  -1.170223e+02
   1.320435e+02  -1.048217e+02
   2.437694e+02  -8.202992e+01
   3.061602e+02   1.239111e+02
   1.230559e+02   3.023484e+02
  -9.795373e+01   2.060129e+02
  -2.210288e+02  -3.903937e+01
  -1.911830e+02  -1.962402e+02
   6.196029e+01  -2.316944e+02
   2.926626e+02  -1.261481e+02
   3.116798e+02   1.729766e+02
   2.371975e+02   2.971654e+02
  -5.734020e+01   2.951485e+02
  -1.910433e+02   1.763422e+02
  -1.024913e+02   7.014167e+01
  -1.751753e+02   6.743603e+01
  -2.886301e+02   4.163833e+01
  -3.795825e+02  -1.397638e+02
  -2.850905e+02  -3.228770e+02
   3.116893e+01  -4.546509e+02
   3.648776e+02  -4.374870e+02
   4.795907e+02  -1.603705e+02
   3.212787e+02   1.300485e+02
  -5.995230e+00   3.054451e+02
  -1.232342e+02   2.399169e+02
  -2.903464e+01   6.881583e+01
   6.992163e+01  -7.146809e+01
   1.208929e+02   5.123699e+01
   6.409003e+01   1.529991e+02
  -1.261428e+02   1.113155e+02
  -1.482906e+02  -6.890408e+01
   6.253253e+01  -1.428223e+02
   2.146617e+02   3.027629e+01
   1.805747e+02   2.509624e+02
  -4.307488e+01   3.274455e+02
  -2.785399e+02   1.504706e+02
  -3.463044e+02  -5.080233e+01
  -3.015499e+02  -2.760427e+02
  -9.446501e+01  -2.881099e+02
   1.207817e+02  -1.498766e+02
   1.694432e+02  -4.174062e+01
   8.186143e+01  -2.019203e+01
  -4.456963e+00   2.603872e+00
   1.234242e+01  -7.636529e+01
   1.328797e+02  -7.076705e+01
   1.291696e+02   5.912059e+01
   1.270599e+01   8.168507e+01
  -9.278370e+01  -3.234329e+01
  -8.588531e+01  -5.267383e+01
   1.164487e+02  -8.239431e+01
   3.094678e+02  -4.656993e+00
   3.058244e+02   1.964861e+02
   4.507949e+01   2.808185e+02
  -2.302363e+02   2.486879e+02
  -3.049181e+02   1.362234e+02
  -1.903605e+02  -7.927463e+01
   2.008074e+01  -1.096216e+02
   6.159925e+01   3.457308e+01
  -3.439428e+01   1.363444e+01
  -1.476599e+02   1.069962e+02
  -1.924679e+02  -8.791253e+01
  -3.701312e+01  -1.960843e+02
   9.719917e+01  -1.676897e+02
   1.191633e+02   5.581077e+00
   4.254155e+01   8.207488e+01
  -6.860923e+01   7.846678e-01
  -6.354293e+00  -1.336088e+02
   1.006894e+02  -9.986809e+01
   2.374587e+02  -4.853038e+01
   1.939454e+02   1.242760e+02
   4.993810e+01   2.260355e+02
  -1.324405e+02   1.842833e+02
  -2.033168e+02   3.208177e+01
  -7.498718e+01  -5.006743e+01
   4.025195e+01  -8.466627e+01
   7.247327e+01  -4.973859e+01
   9.155737e+00   2.459602e+01
  -4.417328e+01  -2.874273e+00
   1.885187e+01  -5.554820e+00
   1.793740e+02   1.070873e+01
   1.467312e+02   1.060341e+02
   2.172017e+01   2.388242e+02
  -1.968714e+02   1.600466e+02
  -2.567682e+02   4.069231e+01
  -1.987233e+02  -1.740260e+02
  -5.750739e+01  -2.192714e+02
   8.598899e+01  -1.842571e+02
   1.241908e+02  -1.527327e+01
   7.631580e+01   4.285639e+01
   7.300378e+01   4.976417e+00
   5.688353e+01  -2.548005e+01
   5.104326e+01  -4.533568e+01
   4.643217e+01   9.057065e+01
  -7.307866e+01   1.303597e+02
  -1.442733e+02   5.738068e+01
  -7.354507e+01  -4.632206e+01
   4.033428e+00  -1.553045e+02
   1.638206e+02  -9.013852e+01
   2.335781e+02   5.134050e+01
   1.469695e+02   2.180025e+02
  -1.093300e+02   2.222011e+02
  -2.567181e+02   1.288699e+02
  -2.135987e+02  -4.934125e+01
  -5.328422e+01  -1.380447e+02
   1.421997e-02  -1.692522e+02
   5.211850e+01  -8.931683e+01
   5.904781e+01  -5.752516e+01
   5.569328e+01  -8.854451e+01
   1.013159e+02  -9.378548e+01
   1.329282e+02   9.843984e+00
   1.267286e+02   1.558094e+02
   3.406931e+01   2.393903e+02
  -9.489998e+01   2.099460e+02
  -2.278854e+02   5.166552e+01
  -1.873090e+02  -1.034699e+02
   1.055715e+01  -1.654639e+02
   9.239683e+01  -1.032861e+02
   7.399234e+01   3.865043e+01
  -7.286975e+00   6.443251e+01
  -1.424053e+01   3.101897e-01
  -2.619634e+01   3.082541e+00
   2.152923e+01   2.347611e+01
  -2.285191e+01   4.651551e+01
  -8.265599e+01   2.914421e+01
  -1.816994e+02  -4.085906e+00
  -1.517150e+02  -9.820313e+01
   1.559425e+01  -9.550479e+01
   1.642151e+02  -8.249081e+01
   1.763468e+02  -1.683174e+01
   2.707525e+01   4.521072e+01
  -1.584174e+00   5.303775e+01
  -5.265333e+01  -4.409840e+00
  -2.165121e+01  -7.389229e+01
   1.978773e+01  -4.738951e+01
   7.949629e+01  -4.686631e+01
   3.824997e+01   4.704940e+01
   3.363166e+01   8.866541e+01
   2.891171e+01   3.790166e+01
   4.417015e+01   4.220397e+01
   2.268321e+01   1.120143e+02
  -7.641851e+00   1.260999e+02
  -9.065850e+01   1.935149e+02
  -2.241404e+02   2.465574e+01
  -1.717594e+02  -1.224612e+02
  -2.295605e+01  -1.271429e+02
   1.294867e+02  -5.755123e+01
   3.614424e+01  -2.006447e+01
  -6.682809e+01   6.516171e+01
  -1.270116e+02  -1.646118e+01
  -9.352222e+01  -1.354120e+02
   4.287083e+01  -1.544404e+02
   1.750856e+02  -5.263563e+01
   1.493341e+02   4.205614e+01
   7.388713e+01   9.571684e+01
  -4.124074e+01   5.224624e+01
  -4.510617e+01   1.465251e+01
   7.026970e+01  -3.542043e+01
   4.133418e+01   6.817525e+01
   4.729014e+01   1.685824e+02
  -8.808830e+01   1.477088e+02
  -1.779599e+02   5.958284e+01
  -1.005017e+02  -9.445718e+01
  -5.424690e+01  -1.865171e+02
   1.052219e+02  -1.786670e+02
   8.590073e+01  -5.787823e+00
   5.158883e+01   1.264754e+02
   3.305729e+00   1.164863e+02
  -6.561030e+01   1.197813e+01
  -5.007362e+01  -7.363357e+00
   1.390174e+01   2.200015e+01
  -3.041735e+01   2.644224e+01
  -3.199975e+01   2.893133e+01
  -9.874841e+01  -1.050848e+02
  -6.996431e+01  -6.847012e+01
   7.877381e+01  -5.689076e+01
   1.063207e+02   3.959898e+00
   1.204169e+02   6.445789e+01
   6.344626e+01   3.644758e+01
  -8.264149e+01   6.200582e+01
  -1.296614e+02   2.667339e+01
  -2.629420e+01  -3.204613e+01
   3.091881e+01  -4.896166e+01
   7.512863e+00  -4.638802e+01
   1.974251e+01  -4.754034e+01
   2.854232e+01   1.654772e+01
   8.236887e+01   4.301509e-01
   9.133523e+01   6.357551e+01
   1.283719e+01   1.092386e+02
  -1.077966e+02   1.608759e+02
  -1.845391e+02   3.825171e+01
  -1.422769e+02  -9.677635e+01
  -3.675490e+01  -1.803557e+02
   9.941510e+01  -1.824036e+02
   1.011398e+02  -3.176420e+01
   7.945754e+01   4.555789e+01
   5.955605e+00   5.231803e+01
  -7.378282e+01   3.201143e+01
  -2.218077e+01   3.255879e+01
   2.782705e+00   1.325614e+01
  -3.727910e+01   5.097578e+01
  -3.895548e+01   3.605942e+01
  -1.294051e+02  -4.968482e+01
  -9.873265e+01  -1.181423e+02
  -9.893533e+00  -1.252276e+02
   1.125512e+02  -9.420849e+00
   9.988529e+01   7.060816e+01
   5.137515e+01   1.341054e+02
  -7.426626e+01   7.022094e+01
  -1.150171e+02  -2.079804e+01
  -9.092683e+01  -6.522989e+01
   3.859417e+01  -4.495460e+01
  -9.308744e+00  -4.310099e+01
  -8.403301e+01   2.048634e+01
  -4.642650e+01   1.855970e+01
   4.813164e+00  -6.119597e+01
   9.007352e+01  -6.381981e+01
   1.206440e+02  -6.526473e+01
   8.615877e+01   5.766089e+01
   8.050796e+00   1.375583e+02
  -4.254832e+01   1.269835e+02
  -5.940198e+01   3.433187e+01
  -3.346475e+01  -1.868674e+01
   2.275783e+01  -4.057509e+01
   5.885385e+01   3.193561e+01
   3.306402e+01   7.747804e+01
  -1.696372e+01   2.044421e+01
  -9.115741e+01  -1.028989e+01
  -6.141960e+01  -2.120574e+01
  -2.471474e+00   1.056346e+01
   3.176595e+01  -3.370943e+01
  -1.662264e+01   4.062729e+01
  -5.618906e+01  -5.777793e+01
  -1.554105e+01  -5.776009e+01
   1.061054e+01  -2.623654e+01
   5.427423e+01   4.215146e+01
   3.341659e+01   6.355091e+01
  -9.514138e+00   4.060338e+01
  -5.505558e+01  -3.572216e+01
  -7.899022e-01  -2.644663e+01
   7.952191e+01  -1.447725e+01
   9.364236e+01   4.847063e+01
   1.836544e+01   6.207748e+01
  -7.085498e+01   4.050045e+01
  -8.828959e+01   2.907066e+01
  -4.112380e+01   2.396984e+01
  -6.720682e+00  -2.865697e+01
   1.100543e+00   4.808635e+01
  -2.883677e+01   1.227789e+01
  -1.061071e+02   1.416095e+00
