
 $NMID
 id='ANONYMOUS ', fmtdat='(2E16.6)'
 volume=1.0
 tramp=1.0
 $END
  -5.297339e+02  -3.128886e+01
  -2.525164e+02  -2.017845e+02
  -5.411358e+01  -2.201929e+02
   1.238912e+02  -2.208030e+02
   1.202846e+02  -8.080707e+01
   2.978137e+01   2.089811e+01
  -8.890400e+01   5.847229e+00
  -1.027312e+02  -6.676968e+01
   3.699885e+01  -8.107603e+01
   7.839869e+01  -4.469003e+01
   5.178658e+01   1.978703e+01
   2.388350e+01   4.458376e+01
   1.109012e+01  -1.375398e+01
  -1.552944e+01   5.168857e+00
   1.691388e+01  -5.391524e+01
   6.587461e+01  -8.905551e+00
   2.030799e+01   2.403036e+01
  -9.224818e+00   3.964157e+01
  -2.591949e+01   2.666268e+01
  -2.477656e+01  -3.236886e+01
  -4.593543e+00  -3.839958e+01
   1.550546e+01  -6.646648e+01
  -1.975513e+01  -2.357700e+00
  -9.535417e+01  -4.461738e+01
  -5.157910e+01  -5.905694e+01
  -2.180282e+01  -7.298729e+01
   8.631513e+01  -4.974355e+01
   5.802285e+01  -1.990529e+01
   2.306924e+01   1.597072e+01
  -4.782301e+01   1.159268e+01
  -5.867291e+01  -3.092408e+01
  -3.148108e+01  -3.705954e+01
   1.361700e+01  -1.609504e+01
   8.982937e+00  -6.065807e+01
   1.746950e+01  -4.939930e+00
   3.418906e+01   3.913600e+01
   9.114475e+00   4.627712e+01
  -1.325069e+01   1.939118e+01
  -2.614770e+01   2.870763e+01
  -3.776172e+00   4.838361e+01
  -3.213573e+01   5.927324e+01
  -5.551332e+01   6.834206e+01
  -3.396160e+01   2.800958e+01
  -3.725230e+01  -2.977515e+01
   1.036991e+01  -7.348666e+00
   4.569730e+01   4.926201e+01
   1.219099e+01   4.671735e+01
  -4.637819e+01   1.123912e+01
  -3.988046e+01  -2.711257e+01
  -1.217952e+01  -3.648042e+01
   4.140128e+01  -2.717269e+01
   6.209891e+01   3.396454e+01
   7.408111e+01   1.669522e+00
   3.153150e+01  -6.705602e-01
  -9.414988e+00   3.263676e+01
  -1.059984e+01   9.430693e+00
  -1.084388e+01   2.773966e+00
  -1.225651e+00  -1.176637e+01
   9.501526e+00  -8.196220e+00
  -1.609539e+01  -1.667509e+01
  -2.607629e+01  -2.705295e+01
   2.192926e-01  -3.043048e+01
   4.025679e+01  -4.651462e+01
   4.926470e+01  -6.400686e-01
   2.299025e+01   7.056226e+01
  -6.788762e+01   4.358491e+01
  -3.116471e+01   1.387802e+01
  -2.935162e+01  -1.234474e+01
  -1.091098e+00  -3.143506e+01
   1.283259e+01  -2.810615e+01
  -2.464649e+01  -4.985517e+01
  -3.461870e+00  -2.661644e+01
   2.648841e+01  -1.286890e+01
   5.804398e+01   2.079994e+01
   6.750452e+01   1.292375e+01
   2.935146e+01   4.600309e+01
   1.032053e+01  -2.003233e+01
  -9.940494e+00   2.670402e+01
  -1.014476e+01   1.160704e+01
   7.111900e+00  -3.128782e+01
   3.784016e+01  -9.842800e+00
   5.426250e+01  -1.229094e+00
   2.559481e+01   2.035144e+01
   2.127289e+01   2.348376e+01
  -2.122543e+01   3.381701e+01
   4.032585e+00  -8.868694e+00
  -1.437696e-01   3.750337e+00
  -6.727912e+01   1.770343e+01
  -4.579987e+01   2.383532e+01
  -4.657606e+01  -1.357114e+01
   2.999370e+00  -5.859833e+01
   3.964210e+01  -5.921991e+01
   4.972757e+01  -1.374929e+01
   1.443893e+01   1.774370e+00
   6.168951e+00   1.707080e+01
   1.036616e+01   5.420576e+01
   2.237001e+00  -7.377892e+00
   1.378213e+01  -2.312633e+00
  -2.175688e+01  -3.972488e+00
  -1.094234e+00  -1.072073e+01
   5.630803e+00   7.566584e+00
  -7.566184e+00  -1.257365e+01
   4.266067e+00  -1.352799e+01
   2.925199e+01  -2.718995e+01
   2.731557e+01   2.245413e+01
   1.473148e+01   4.583873e+01
   8.748033e+00   4.071172e+01
  -6.258145e+01  -2.159442e+01
  -4.225725e+01  -5.399202e+01
  -5.855678e+00  -3.114415e+01
   1.693321e+01  -1.927927e+01
   1.232018e+01   5.668249e+00
  -4.934200e+00   1.370245e+01
   2.738683e+01  -1.441794e+00
  -3.583153e+00  -2.077181e+01
   2.782971e+01  -1.531906e+01
   1.327174e+01   1.632723e+01
   2.307789e+01  -6.067388e+00
   6.269481e+00   3.314151e+00
   6.038460e+00  -2.085439e+01
   1.913824e+01  -3.778795e+00
   2.244872e+01   8.604754e+00
   1.739298e+01   3.058548e+01
  -7.516278e+00   2.740999e+01
  -2.886849e+01   2.754215e+01
  -2.144728e+01   2.921493e+01
  -3.736169e+01  -1.320648e+01
   1.073853e+01  -6.187649e+00
  -7.570673e+00  -1.392854e+01
   1.546291e+01   1.849857e+01
  -4.921858e+00  -1.824136e+01
  -2.160396e+01   1.207916e+00
  -5.129846e+01  -1.893563e+01
   1.479313e-01  -2.317023e+01
  -1.875256e+01  -2.280355e+01
  -5.169125e+00  -9.621631e+00
  -2.755994e-01   2.506200e+00
  -2.582002e+01   4.549695e+00
  -2.200735e-01  -2.234320e+01
   1.819455e+01  -3.052167e+01
   2.308788e+01   4.152664e+00
   8.299776e+00   1.167243e+01
  -5.797606e+00   2.905105e+01
  -2.683481e+01   1.603003e+01
  -7.881146e+00  -2.824124e+01
   2.364754e+01   5.139299e+00
   1.454946e+01  -1.344821e+01
   6.174896e+00  -8.011537e+00
  -2.791043e+01   2.351153e+01
  -1.039417e+01  -2.019024e+01
   2.661053e+01   9.067174e+00
   1.525946e+01   1.032406e+01
  -1.118588e+01   3.683182e+01
  -3.453560e+01   3.605246e+01
  -2.854031e+01   1.493037e+01
  -2.373085e+01   4.593203e+00
  -7.344450e+00  -2.384027e+00
   3.301022e+00  -1.182507e+01
   6.947963e+00   8.818054e-01
   4.443061e+00   9.735772e-01
   4.490393e+00   2.280247e+01
   8.237464e+00  -8.772540e+00
  -2.801675e+00   8.974004e+00
   2.698437e-01   7.052779e+00
  -5.289049e+00   8.955551e+00
  -2.813801e+01   2.515397e+01
  -5.229074e+00   1.742105e+00
  -2.638076e+01  -2.453065e+01
   1.682121e+01  -2.486363e+01
   3.750287e+01  -1.339634e+01
   1.375020e+01   2.482309e+01
   2.728650e+01   4.043717e+01
  -2.746673e+01   1.671466e+01
  -2.007000e+01   1.234750e+01
  -1.348241e+01  -4.966886e+01
   2.034581e+01  -1.448889e+01
   1.112292e+01  -3.741456e+01
  -7.928121e+00  -4.590086e+00
  -1.103020e+01  -2.573661e+00
   1.642735e+01  -1.243550e+01
   4.462589e+01  -5.482856e+00
   8.476353e+00   2.730615e+01
   2.455868e+01   4.523132e+01
  -1.999493e+01   2.423552e+01
  -2.172959e+00  -1.766421e+01
  -1.310899e+01  -5.494474e+01
  -2.471124e+01  -2.552529e+01
  -2.671707e+01   1.842679e+00
  -2.119736e+01   1.349137e+01
  -3.412421e+01   5.588504e+00
   6.313511e-01  -3.340976e+00
   3.280979e+00   4.534481e+00
  -3.261030e+01  -1.773071e+01
  -1.248557e+01   1.813833e+01
  -4.246880e+01   2.332354e+01
  -4.430772e+01  -3.988789e+00
  -2.472860e+01  -6.301384e+00
   1.174730e+01  -4.414546e+01
  -8.950765e+00   1.263216e+01
   1.217460e+01   2.758482e+01
   5.659613e+00   3.144434e+01
   5.619142e+00   1.659238e+01
   1.016675e+01  -1.288382e+01
  -1.290339e+01  -2.500269e+01
   8.236114e+00  -1.961431e+01
   1.324877e+01  -1.645816e+01
   1.264196e+01   1.276395e+01
   2.776289e+01   2.405318e+01
   5.767006e+00   1.075040e+01
   7.205217e+00   2.069227e+01
  -2.547403e+01   1.149102e+01
  -2.484681e+01   1.189287e+01
  -4.737249e+01   2.849521e+00
  -2.985836e+01   1.004945e+01
  -4.143421e+01   6.570182e+00
  -3.384213e+00  -1.212689e+01
   8.009586e+00  -4.385830e+00
   2.859298e+01   1.607606e+01
  -3.676569e+00  -1.274710e+01
  -1.924526e+01   1.505174e+01
  -3.333285e+01  -1.321122e+01
  -7.811054e+00  -6.842997e+00
   3.553106e+00  -1.985256e+01
  -1.163809e+01   1.349803e+01
   1.149662e+01   8.640005e+00
   4.540584e+00   2.811382e+01
   2.570096e+01   2.647846e+01
   1.683779e+01   1.619785e+01
   5.281082e+00   8.821850e+00
  -2.431268e+01   1.822745e+01
   1.559499e+00   1.862766e+01
  -3.597245e+01   2.380985e+01
  -4.009077e+01  -1.895053e+01
  -1.079243e+00  -2.372063e+01
  -7.421409e-01  -1.162758e+01
   3.441403e+01  -4.207883e+01
   3.063921e+01   5.461109e+00
   1.284956e+01   2.477801e+01
  -2.025468e+01   3.804641e+01
   5.345462e+00   2.164116e+00
  -1.122629e+01  -4.054163e+00
  -1.947199e+01  -3.678559e+01
   2.013955e+01   5.727897e+00
  -5.752018e+00   4.093032e-01
  -6.614492e+00  -1.652557e+01
   7.387170e+00  -2.998572e+01
   2.537903e+01  -6.795994e+00
   5.239007e+00   1.730993e+01
  -2.063936e+01  -8.942455e+00
  -3.486837e+01   3.315272e+01
  -1.767746e+01   2.149992e+01
   9.238394e+00  -4.930594e+00
  -7.832230e+00   1.931666e+01
   2.466978e+00   4.047803e+01
  -3.821117e+01   3.186310e+01
   8.175573e-03   1.928638e+00
  -2.129492e+00  -2.884286e+00
   4.621686e+01   6.481056e+00
   1.147524e+01   1.822044e+01
  -3.109621e+01   5.720160e+01
  -3.694113e+01   5.597623e+01
  -4.092409e+01  -2.823758e+01
   5.667984e+00   7.464780e+00
  -2.922067e+01  -2.155913e+01
   1.015973e+01  -2.356359e+01
   3.138001e+00  -2.329704e+01
   2.006050e+01  -2.875051e+01
  -4.878712e+00   1.523469e+01
  -1.975910e+01  -4.124200e+00
  -3.934435e+01   3.381746e+01
  -1.377639e+01   2.339235e+01
  -1.688408e+01   1.125378e+01
   2.650479e+00  -1.823591e+01
   4.376643e+01  -8.994542e+00
  -1.889901e+01  -1.572146e+01
   2.644013e+01   3.118901e+00
  -2.328090e+01   4.946768e+01
  -1.410790e+00   3.136465e+01
   9.573604e+00  -1.318873e+00
  -2.575706e+01  -1.804026e+01
  -1.648819e+01  -4.604831e+00
   9.544276e+00  -6.219866e+00
   2.536937e+00   8.099340e+00
   1.150765e+01   2.449830e+01
  -3.683687e+00   2.078258e+00
  -1.419497e+01  -2.670726e+01
   4.534307e+00  -2.577640e+01
  -5.071844e-01   1.396213e+00
   2.949131e+01  -9.443308e+00
   1.064329e+01   3.516599e+01
  -3.993267e+00   3.877602e+00
  -7.205173e-01  -4.164218e+01
   2.286020e+01  -2.914489e+00
   2.997409e+01  -3.066168e+00
   4.057532e+01  -1.099750e+01
   2.581684e+01   2.305477e+01
   1.023279e+01   4.742575e+00
   1.127066e+01  -6.520155e+00
   6.911261e+00   1.143459e+01
  -1.876643e+01  -1.427137e+01
   1.151469e+01  -4.439166e-01
   7.098978e+00  -2.916599e+01
   9.856902e-01  -2.753686e+00
  -3.141826e+01  -1.771094e+01
  -2.083924e+01  -6.128528e+00
  -1.371724e+00  -7.692264e+00
   2.083395e+01   8.588750e+00
  -4.446432e+00  -1.793479e+01
   1.124188e+00  -1.726393e+01
  -5.324815e+01  -3.351352e+01
   4.448174e-01  -3.132720e+01
   2.302301e+01   6.348297e+00
   1.644764e+01   9.345677e+00
   2.529400e+01   1.759353e+01
  -1.613673e+01   1.197178e+01
  -3.208017e+00   5.835760e+00
   4.207513e+01   1.904021e+01
   4.675638e+01   1.443642e+01
   1.106529e+01   1.950407e+01
  -8.841893e+00   3.532611e+01
