
 $NMID
 id='ANONYMOUS ', fmtdat='(2E16.6)'
 volume=1.0
 tramp=1.0
 $END
   4.321733e+02  -1.184452e+00
   1.561822e+02   1.490803e+02
   4.081474e+01   1.147773e+02
  -1.187491e+02   1.114017e+02
  -4.045390e+01   1.610280e+01
   4.413882e+01  -5.827591e+00
   8.787879e+01  -6.369091e-01
   3.678578e+01   2.730965e+01
   4.880115e+01   6.399389e+01
  -3.236322e+00   8.693139e+00
  -3.784390e+01   1.067603e+00
  -2.993647e+01  -4.560526e+01
  -1.885732e+01   5.430462e+00
   2.411904e+00   1.272039e+01
   9.658311e+00  -1.884179e+01
  -8.576495e+00  -3.614138e+00
   8.586875e-01  -1.677084e+01
  -5.741664e+00  -3.503362e+01
  -2.299034e+01  -3.914523e+01
  -1.889059e+01  -1.885859e+01
  -4.529319e+00   7.919118e+00
   2.811490e+01   1.274041e+01
  -1.097813e+01  -3.128631e+01
   2.740295e+01  -2.163240e+01
   3.153115e+01   2.018548e+01
   1.061965e+01  -2.187845e+01
  -8.723486e+00   3.332383e+01
  -3.579699e+01   1.249169e+00
  -1.641652e+01   1.095331e+01
   1.211967e+01  -7.854728e+00
   8.761128e+00  -1.839898e+00
   3.362116e+01  -8.680517e+00
   1.759674e+01   9.913036e-02
  -5.496342e+00   2.502694e-01
  -1.978240e+01  -1.262630e+01
   1.415657e+01   2.542449e+01
  -2.451300e+01  -3.001966e+01
   1.215260e+01  -3.390153e+00
   1.311256e+01   1.278744e+01
   4.508181e+00   6.898975e+00
   1.943412e+01   2.312760e+00
   1.827885e+01  -3.892669e+01
   2.069629e+01  -1.796097e+01
   2.275928e+01   5.592836e+00
   2.863017e+01   8.825899e+00
  -1.383392e+01   4.188730e+00
  -5.988646e+00   1.179411e+00
   4.719152e+00  -8.604376e-01
   1.779852e+01   4.214368e+01
   2.148271e+01   2.320295e+01
   4.058542e+00   3.668164e+00
  -1.244387e+01  -1.054748e+01
  -2.262128e+01  -2.380423e+01
  -2.523261e+00   5.668575e+00
   4.821783e+01  -1.253075e+01
   2.040521e+01   6.191722e+00
   6.343576e+00   6.958450e+00
  -1.259502e+00   2.848471e+01
  -1.111714e+01   4.453147e+00
  -2.164642e+01   3.368279e+00
  -3.483446e+00  -1.889772e+00
  -7.493648e+00   1.864785e+01
  -8.641223e+00   2.460432e+00
   2.559166e+01   1.614355e+01
   1.274814e+01  -1.394028e+01
   4.806165e+01  -2.440418e+01
  -1.006001e+01  -1.869688e+01
  -1.410772e+01  -1.043645e+01
  -7.284382e+00   8.623940e+00
  -1.420380e+00   2.226423e+01
   1.870324e+01   2.526565e+01
  -8.055522e+00  -5.933341e+00
  -1.528700e+01   1.280000e+01
  -6.358683e+00  -2.250089e+01
  -7.353188e+00  -2.256273e+01
  -5.691480e+00   7.676977e+00
   2.666408e+00   3.930707e+00
  -8.996229e+00   1.082478e+01
  -1.685555e+01  -9.402462e+00
   4.007302e+00   1.268225e+01
   7.840677e+00   8.971098e-01
   8.545949e+00  -4.829684e+00
  -1.409937e+01  -2.931924e+01
   4.922105e+00   1.624977e+00
   1.225311e+01  -3.882251e+01
   2.008090e+01  -6.119423e+00
  -3.138385e+00  -1.033108e+00
   3.756273e+00  -9.160583e+00
   1.814068e+00   1.480932e+01
   3.430046e+01  -1.418353e+01
  -1.125691e+01  -1.602882e+01
  -6.556082e+00  -5.977374e+00
  -3.710830e+00   1.150298e+01
  -1.124221e+01   2.078455e+01
  -1.596787e+01   4.586629e+00
   1.674249e+00  -8.885823e+00
  -3.324412e+00  -2.060426e+00
  -2.624460e+01  -1.945381e+01
  -1.999850e+01  -2.787634e+01
  -1.110130e+01   4.389231e+00
  -4.713327e+00  -4.098146e+01
  -1.031561e+01  -1.606647e+01
   3.706030e+01  -3.591759e+00
  -1.144323e+01   1.564666e+01
  -2.405478e+00   1.738995e+01
  -7.457287e+00  -1.958504e+01
  -1.719121e+01  -3.664606e+01
   2.835729e+01  -3.514254e+01
   7.868150e+00  -3.856330e-01
   4.276692e+00  -1.242045e+00
   8.351500e+00   4.954812e+01
  -1.892338e+01  -2.520828e+00
  -3.649097e+00   3.661488e+00
   2.028614e+01  -1.684280e+01
  -3.564128e+00   4.985951e+00
   2.512890e+01  -6.404506e+00
  -1.921800e+01  -2.451083e+01
  -8.674272e+00   1.736728e+01
  -1.903277e+01  -1.839909e+01
  -1.625632e+01   2.341154e+01
   7.128720e+00   7.277336e+00
  -8.863754e+00   6.730083e+00
  -6.184502e+00  -7.310629e+00
   4.042118e+00   1.265323e+01
  -4.477059e-01  -1.865648e+01
  -8.279700e+00  -1.916882e+01
   1.717060e+01  -4.312430e+00
  -4.676634e+00  -5.779684e+00
   1.304140e+01   3.401827e+01
  -1.749828e+01  -3.583623e+01
   1.200399e+01  -1.052465e+01
   5.299493e+00  -1.989448e+01
   5.484676e+00   2.550760e+01
   1.784501e+01   1.736487e+01
  -1.682735e+01   2.832912e+01
  -2.963574e+01   7.902440e+00
   4.704150e+00   8.766824e+00
   1.967326e+01   1.426104e+01
  -3.537950e+01   1.040978e+01
  -3.960923e+01  -6.423451e+00
  -6.363070e+00   2.462840e+00
  -3.559816e+00   6.168085e+00
   6.984694e+00  -4.099112e-01
  -2.314923e+00   2.007166e+01
  -6.665569e-01   2.758531e+01
  -5.681155e+00  -5.058720e-02
   4.288089e+00   3.388401e+00
   1.566011e+01  -5.774746e+00
  -1.330977e+01   6.092652e+00
   7.109203e-01  -1.012887e+01
  -2.835722e+00  -2.086945e+01
   1.157268e+00   2.930929e+01
   2.121700e+01   1.670028e+01
   1.551864e+01   2.137638e+01
  -3.202970e+01   6.928221e+00
  -5.565143e+00  -1.356349e+01
   2.409363e+01  -2.561261e+01
   1.165124e+01   9.663877e+00
  -2.413238e+01   1.648866e+01
  -1.680512e+01   1.684416e+01
  -6.569544e-01   2.613319e+01
  -1.105712e+01   1.804674e+01
   3.629135e+00   2.164938e+01
  -8.699913e+00   2.722882e+01
   6.436711e+00  -2.187545e+00
   8.937760e+00   3.041040e+00
  -1.299023e+01  -1.915617e+01
   2.656249e+00  -9.199430e+00
  -1.786704e+01   1.409652e+01
  -2.843620e+01  -8.753757e+00
   7.260993e+00   4.811175e+00
   1.547327e+01   1.307464e+01
   4.096613e+01  -1.789131e+01
   8.798528e+00  -2.115747e+01
   1.440366e+01  -3.023726e+01
  -7.353235e-02  -4.991096e+00
   1.750186e+01  -1.024243e+01
   1.046955e+01   1.247173e+01
  -2.051263e+01  -3.030080e+00
  -1.127394e+01   3.245521e+00
   1.346565e+01  -1.262366e+01
   2.557892e+00  -1.724766e+01
  -1.695775e+01  -1.341354e-02
  -1.230009e+01   9.871417e+00
   1.446044e+01   2.785032e+01
   1.193253e+01  -3.993776e+00
   4.849493e+00   2.563584e+01
  -7.303976e+00   3.486724e+01
  -2.839350e+01  -1.199465e+01
  -1.147008e+01   1.181759e+00
   2.325461e+01   2.379765e+01
  -1.339555e+01   1.585468e+01
   5.782813e+00   2.329588e+01
   1.826790e+01  -2.747611e+01
  -2.977086e+01  -9.604497e+00
   1.385252e+00   5.071417e+00
  -4.858870e+00  -1.720520e+01
  -5.422462e+00  -5.406268e+00
   1.151458e+01  -1.046000e+01
   9.451622e+00  -7.445673e+00
  -9.613230e+00   2.356087e+01
  -3.058175e+00  -2.157958e+01
  -2.845276e+01   2.609916e+00
   2.007345e+01  -6.793800e+00
   4.280134e+01  -4.739252e+01
   6.363284e-01   5.972510e+00
   2.299305e+01  -1.731939e+01
  -3.906725e+00   1.897738e+01
  -1.300192e+01  -1.324887e+01
   3.458578e+01   1.988134e-01
   4.327538e-01  -2.721221e+01
   6.008849e+00   1.586041e+01
   1.625343e+01  -2.214139e+00
  -2.662348e+01  -5.452111e+00
  -6.794176e+00  -3.334634e-01
  -2.964512e+01  -4.944675e+00
  -9.316826e+00   1.383697e+01
   4.426099e+00  -1.170055e+01
   8.766948e-01   7.453543e+00
   7.582809e+00  -1.004698e+01
   4.617979e+01  -1.171538e+01
  -1.213540e+01   1.142964e+01
  -4.274234e+00   2.152177e+01
  -9.006294e+00  -2.640514e+01
   1.017093e+00  -1.680269e+01
   1.548661e+01  -2.570437e+01
   3.129168e+01  -2.178136e+01
   3.716446e+00   2.175236e+01
   2.913394e+00  -1.922172e+01
   5.195017e+01  -7.291959e+00
  -9.333157e+00  -1.232564e+01
   2.436543e+01  -3.321520e+01
  -1.666459e+01  -1.241435e+01
  -9.932798e+00   2.418607e+01
  -8.992279e+00  -1.588769e+01
   1.133926e+01  -9.494112e+00
  -1.561807e+01  -1.689695e+01
  -2.488129e+01   7.912588e+00
  -5.743912e+00   9.913702e+00
   7.560516e+00  -7.946582e+00
   2.511022e+01  -1.308313e+01
  -1.948979e+01   7.107783e+00
  -8.977570e+00   1.305821e+01
   4.870300e+00   3.097600e+01
   2.200763e+01  -1.953127e+01
  -1.755364e+01  -1.767644e+01
  -1.302968e+01   8.315872e+00
  -2.165697e+01  -9.348377e-01
   1.160622e+01  -7.422758e+00
   3.600200e+00   6.756364e+00
  -1.191530e+01  -1.272797e+00
   4.287559e+00  -7.749235e+00
   5.107668e+00   1.694227e+01
  -7.386731e-01   1.763033e-01
  -6.520724e+00  -1.790720e+01
   2.529879e+00   1.181486e+01
  -3.103492e+00   6.240770e-01
  -3.608061e+01  -1.378138e+01
   4.826150e+00  -2.029498e+01
   1.324788e+01   3.884815e+00
   6.612359e+00  -3.119160e+00
  -2.257186e+01  -1.604596e+01
   8.748050e+00  -1.389047e+00
   2.980202e+01   1.662791e+01
  -1.633735e+01   2.961383e+01
  -2.486426e+01   1.729422e+01
   2.795931e+00   2.136205e+01
   1.811439e+01   1.880239e+01
   2.582022e+01   3.074301e+01
   4.195136e+01   1.618285e+01
   2.469270e+01   6.986676e+00
  -3.327687e+01   1.011460e+01
   1.947930e+01  -8.462271e+00
   3.624005e+01  -1.125724e+01
   2.373785e+01   4.178152e+01
   1.504315e+01  -7.474004e-01
   1.354925e+01  -1.172671e+01
  -2.549672e+01   1.050071e+01
  -9.448426e-01  -1.271422e+01
   3.994807e-01   5.149266e+00
  -1.850359e+01  -1.616351e+00
  -3.088827e+01  -1.231158e+01
  -6.655591e+00  -2.532575e+01
   5.722023e+01  -1.170600e+01
  -1.060290e+01   1.769409e+01
  -1.265148e+01  -1.807861e+01
  -1.730183e+01   3.243185e+00
  -5.997393e+00  -3.377592e+01
  -7.498793e+00   8.767265e+00
   4.904342e+00  -3.249969e+01
  -1.925343e+01   7.806268e+00
  -9.763321e+00   1.447818e+00
   8.994188e+00   1.537080e+00
  -9.117341e+00  -1.856579e+00
  -4.001854e+00   3.584257e+00
   6.248805e+00  -4.436606e+01
  -2.199350e-01   3.013383e+00
   8.558338e+00   4.187627e+00
   1.796425e+01  -1.892049e+01
   1.626680e+01   2.843978e+01
   8.746607e-01  -1.659616e+01
   2.526931e+01  -5.935517e+00
   2.412570e+01   2.240308e+01
  -3.021626e+00  -4.611104e+01
   6.959243e-01  -6.844423e+00
   2.075641e+01  -1.178613e+01
   1.777925e+01  -3.919867e+00
   2.099630e+01   1.049710e+01
   1.880991e+01  -2.896153e+00
  -1.508090e+01   1.514111e+01
  -1.297756e+01  -2.539330e+00
  -3.327658e+01  -1.797309e+01
  -8.589307e+00  -7.105631e+00
   1.632939e+01   1.736402e+01
  -1.501895e+01  -3.290582e+00
   2.023648e+01   4.302058e+01
  -2.444507e-01   1.534237e+01
  -3.985482e+01  -3.953997e+00
   4.009795e+00   8.646250e+00
  -1.532946e+01  -1.088057e+01
