
 $NMID
 id='ANONYMOUS ', fmtdat='(2E16.6)'
 volume=1.0
 tramp=1.0
 $END
  -6.111680e+02  -1.154489e+02
  -3.038338e+02  -2.174493e+02
  -1.124420e+02  -1.786821e+02
   1.133118e+02  -2.325332e+02
   1.256444e+02  -1.258428e+02
   3.563332e+01  -1.020094e+01
  -2.633192e+01  -2.447368e+01
  -8.010508e+00  -5.693230e+01
   3.501895e+01  -8.626996e+01
   8.203711e+01  -1.631164e+00
   1.259293e+01   6.339841e+01
   2.388648e+01   4.419585e+01
   6.819750e+00  -2.491087e+01
  -5.592726e+01  -4.774577e+01
   2.395844e+00  -1.001206e+02
   1.064988e+01  -2.161757e+01
   1.049004e+01   4.680627e+01
   1.743634e+01   9.407525e+01
  -4.641743e+01   4.724532e+01
  -4.546155e+01   3.336562e+00
  -1.248437e+01  -3.511223e+01
   1.392901e+01  -2.285401e+01
  -1.835539e+01  -3.350777e+01
  -4.308009e+01  -1.679417e+01
  -2.535632e+01  -3.733114e+01
   5.317671e+01  -4.828144e+01
   9.977672e+01   2.442240e+01
   9.404676e+01   2.211040e+01
   7.203377e+01   2.879198e+01
  -1.917599e+01   2.703053e+01
  -4.762821e+01  -1.629478e+01
   3.843672e+00  -2.135117e+00
   2.967087e+01   2.297019e+01
   1.785925e+01   1.408820e+01
  -1.342355e+01  -2.659654e+01
   3.301557e+01   1.261770e+01
   3.544241e+01  -5.048561e+00
   5.330819e+01  -2.258039e+01
   1.557868e+01   4.334687e+00
   1.510388e+01   7.002813e+01
   1.266985e+01   6.183682e+01
  -3.018990e+01   3.324716e+01
  -4.035653e+01  -7.973389e+00
  -2.065362e+01  -1.814857e+01
   1.562054e+01  -8.112021e+00
   2.102064e+01   2.629486e+01
  -1.833142e+01   2.204913e+01
  -3.500310e+01   4.696270e+00
  -4.829928e+01  -2.824559e+01
  -2.525652e+01  -4.968023e+01
   4.787338e+01  -2.713167e+01
   6.824782e+01  -1.058791e+01
   4.393949e+01   2.056434e+01
  -8.771597e+00   3.216119e+01
  -4.358307e+01   5.612344e+01
  -1.953589e+01   2.652381e+01
  -3.829185e+01  -3.380359e+01
  -9.361441e+00  -4.188952e+01
   1.433220e-01  -1.053432e+00
  -2.400746e+01  -4.158784e+01
   1.405674e+00  -2.770960e+01
   3.770514e+01  -2.379099e+01
   3.519574e+01  -4.109449e+01
   3.297006e+01   1.609025e+01
   1.430348e+01   4.480997e+01
  -5.609719e+01   7.413838e+01
  -5.107448e+01  -1.121254e+01
  -4.445164e+01  -8.037315e+00
  -3.172037e+01  -6.211107e+01
  -1.611651e+01  -4.998696e+01
   1.447643e+01  -7.923206e+01
   1.842491e+01  -5.258082e+01
   4.293144e+01  -1.540288e+01
   4.975321e+01  -2.313414e+00
   2.748423e+01   3.566363e+01
  -1.442225e+01   3.661987e+01
  -7.702147e+00   2.294820e+01
  -5.294530e+01   7.970489e+00
  -2.183061e+01  -4.598214e+00
  -2.577151e+01  -3.621207e+01
  -3.189032e-01  -1.964009e+01
   4.349803e+01   3.259402e+00
   1.909299e+01   3.933976e+01
  -1.062245e+01   3.423024e+01
   2.156831e+01   5.374634e+01
  -5.507172e+00   4.239912e+01
  -8.691298e+00   3.547658e+01
  -6.922399e+01   2.689854e+01
  -8.158823e+01   1.015837e+01
  -7.896855e+01  -1.024582e+01
  -2.416075e+01  -4.933237e+01
   4.999809e+01  -4.678705e+01
   4.128304e+01  -3.126965e+01
   4.279673e+01   1.921105e+01
   4.510498e+00   3.728796e+01
  -1.296242e+01  -3.969903e+00
  -6.956291e+00   1.467621e+01
   3.160079e+01   6.873191e+00
  -6.719828e+00   1.506540e+01
  -1.785478e+01  -4.177772e+00
  -5.343411e+00  -3.873413e+00
   2.305876e+00  -2.742125e+01
   2.630789e+01  -4.627586e+01
   2.259441e+01  -1.765548e+01
   2.709992e+01   1.723398e+01
   1.019968e+01   4.153498e+01
  -3.514824e+00   5.633923e+01
  -5.966085e+01   5.748249e+00
  -3.342962e+01  -1.002146e+01
  -1.467518e+01  -9.783673e+00
  -1.618713e+01  -3.182596e+01
   1.239289e+01   1.452774e+00
   3.696777e+00  -4.311433e+00
   3.588454e+00  -2.055726e+01
  -1.847807e+00  -2.050088e+01
   2.812064e+01  -2.293495e+01
   1.112808e+00   3.032103e+01
  -1.344410e+01  -9.237689e+00
   4.173706e+00  -7.512410e+00
   5.648029e+00  -3.028517e+00
   1.585961e+01  -1.234233e+01
   1.892367e+01  -3.972566e+01
   2.219792e+01   2.651024e+01
  -6.212678e+00   2.765643e+01
   1.846761e+01   6.852730e+01
  -1.903395e+01   2.249491e+01
   2.403025e+01   4.094861e+01
   8.605451e+00  -7.495913e+00
   1.390144e+01  -4.534811e+00
   3.008921e+01   1.969135e+01
  -2.841424e+01   1.058084e+01
  -2.048592e+01   1.586352e+00
  -2.146037e+01  -3.877936e+01
   1.943778e+01  -3.074659e+01
   2.449772e+01   1.887701e+01
   2.542789e+01   2.333190e+01
   9.921590e+00   2.656909e+01
   2.287480e+01  -1.507249e+01
   1.913668e+01  -1.830788e+01
   4.255657e+01  -9.836341e+00
  -1.938625e+01  -2.775501e+00
   2.492392e+01  -2.613821e+01
  -1.279604e+01   3.908209e+01
   8.276087e-01   7.432001e+00
  -1.943564e+01  -1.427155e+01
   2.699858e+01  -1.142770e+00
   3.613338e+01  -1.271880e+01
   2.675465e+01  -2.788058e+01
   1.398653e+01   3.187565e-01
  -3.431028e+01   2.192215e+01
  -9.630956e+00  -1.513493e+01
  -2.858308e+01   5.376686e-01
   1.517093e+00   2.081998e+01
  -1.965594e+01   4.482582e+01
  -2.808569e+01  -6.723947e+00
  -3.387882e+01  -1.708069e+01
  -2.594477e+01  -2.587575e+01
  -9.252211e+00  -5.133810e+01
   2.144603e+01   7.526800e+00
   3.224226e+01   5.075345e+00
  -1.687295e+00   2.274077e+01
  -4.599833e+00  -1.246815e+00
  -1.053974e+01   6.103108e+00
   5.772533e+00  -3.318057e+00
  -1.823097e+01   2.563326e+01
  -1.540920e+01  -5.931121e+00
   2.012297e+01   8.478686e+00
   2.043619e+01  -1.457162e+01
   1.787042e+01   3.329921e+00
   1.533618e+01  -2.906679e+00
  -1.294415e+01   1.813735e+00
  -1.340505e+00   8.833060e+00
  -2.301700e+01   3.990381e+01
  -6.107893e+01  -1.479860e+01
  -7.264440e+00  -7.860489e+00
  -9.071409e+00  -7.007767e+00
   2.785656e+01  -4.628017e+01
   1.774690e+01  -7.703004e+00
   3.150431e+01  -1.817570e+01
   3.156926e+01   8.893823e+00
   3.188350e+01   1.282743e+00
   2.695619e+00   3.263354e+01
   2.151808e+01   2.141285e+01
  -3.065483e+00   3.845399e+00
  -5.357790e+00  -4.016862e+01
   1.064516e+00  -2.069417e+01
  -1.083192e+01  -3.833420e+01
  -4.436670e+00  -3.041137e+01
  -7.090971e-01  -1.381207e+01
   4.885409e+01  -6.523980e+00
   2.246164e+01   8.174970e+00
  -8.632893e+00   9.395128e+00
   1.202998e+01   1.562494e+01
  -7.906632e+00   1.612914e+01
   3.495311e+01   2.208542e+01
  -8.502253e+00  -2.849986e+01
  -3.240507e+01  -2.288916e+01
   1.465038e+01  -1.521651e+01
   3.204226e+00  -2.742988e+01
   1.890484e+01  -2.309660e+01
   2.802085e+01   4.237257e+01
   4.148683e+01   1.295904e+01
   2.369593e+01  -1.711813e+01
   2.532062e+01   9.025612e+00
   2.235566e+01  -2.061226e+00
   4.332797e+01   3.291591e+01
   6.115253e+00   1.471213e+01
   1.476283e+01   1.753556e+01
  -1.768287e+01   1.124503e+01
   1.157974e+01  -4.328878e+01
   2.303205e+01   5.861971e+01
   1.297539e+01  -1.492313e+00
  -1.425486e+01   1.580062e+01
  -1.562677e+01  -1.309955e+01
  -1.449930e+01  -1.414071e+01
   2.428288e+01  -7.957517e+00
   4.092959e+01  -2.342075e+01
   9.443253e+00  -1.200174e+01
  -5.899456e-01   9.941858e+00
  -3.863005e+01  -9.345094e+00
  -1.293421e+01  -2.600180e+01
  -2.324273e+01  -2.362942e+01
   4.214031e+01  -2.614537e+01
   4.653999e+00   3.284860e+01
   2.090986e+01   2.432331e+01
  -1.651477e+01   1.713528e+01
  -2.673041e+01  -2.975258e+01
   1.777484e+01  -2.803960e+01
   3.936414e+01   4.338447e+00
   6.292035e+00   3.631855e+00
   1.059788e+01   2.410377e+01
  -2.049410e+01   4.042311e+00
  -3.251119e+01  -3.991269e+01
  -9.637642e+00  -4.719334e+01
  -1.918012e-01  -4.824071e+01
  -1.703802e+01  -3.543508e+01
   3.179760e+00   5.761338e-01
  -6.167594e+00  -4.647427e+00
  -1.668209e+01   2.389438e+01
   5.427219e+00  -8.713838e+00
  -1.125825e+01  -1.623150e+01
   1.579189e+01  -3.440368e+01
   2.173167e+01  -7.271895e-01
   1.131112e+01  -1.502982e+01
  -3.121893e+01  -1.335364e+01
   4.822315e-01  -7.470390e+00
  -1.787007e+01  -1.675453e+01
   3.281864e+01  -4.018582e-01
  -1.281043e+01  -1.303837e+01
  -1.322328e+01  -1.184117e+01
  -4.589574e+01   2.206988e+01
  -4.012059e+00   5.802721e+00
   1.253679e+01  -4.844265e+01
   1.423441e+00   7.177738e+00
   4.106275e+01  -7.867021e-01
   2.371781e+00   9.395224e+00
   8.286698e+00   1.221223e+01
   1.285953e+01   8.268824e+00
   4.200316e+01   6.346830e+00
  -1.167388e+01  -8.094790e+00
  -3.058059e+01   3.985059e+00
  -5.309598e+01  -4.985664e+00
  -2.250395e+01  -2.843780e+01
  -1.003656e+01  -3.338616e+01
  -4.239428e+00  -2.712275e+01
  -5.040133e+00  -2.090937e+01
   1.904914e+01  -2.101145e+01
  -1.330995e+01  -4.709783e+00
   2.658972e+01   1.307706e+01
  -4.757009e+00  -1.573454e+01
   3.799184e+00  -2.577997e+00
  -2.692023e+01   8.541542e+00
  -2.592259e+01  -2.050084e+01
   2.889313e+01   2.560192e+00
  -1.933744e+01  -5.788797e+00
   4.233610e+01   4.711286e+00
  -8.906417e+00   3.273251e+01
  -9.134487e+00   2.178944e+01
  -1.349996e+01   5.816046e+00
  -1.247369e+01  -3.059707e+01
   1.039039e+01  -3.536775e+00
   6.512562e+01  -2.654064e+01
   1.987851e+01   2.265540e-03
   7.438116e+00  -2.769794e+01
   1.135018e+01   1.200949e+01
  -9.401205e+00   1.238190e+00
   2.372524e+00  -2.263425e+01
   5.135798e+00   1.806531e+00
   4.295850e+01   2.328299e+00
  -3.509095e+00   3.994410e+01
   4.852287e+01   2.626915e+00
   1.536003e+01   2.419285e+01
   1.384419e+01   1.933621e+01
  -4.991026e+00   8.306024e+00
   1.573169e+01  -4.644912e+01
   1.049212e+01   1.676139e+01
   2.493180e+01   2.281360e+01
   1.898373e+01   9.945720e-01
   1.588687e+00   2.076602e+01
  -2.628912e+01   1.690260e+00
  -3.023384e+01   3.042864e+00
  -1.168334e+00  -4.257708e+01
  -3.102082e+01   1.155669e+01
  -5.710322e+00  -1.645175e+01
  -5.867028e+00   1.421473e+01
   5.809440e+00  -1.288887e+01
  -1.440661e+01   3.843821e+01
   5.179751e+00   6.333037e+00
   7.367809e+00  -1.988819e+01
  -3.185774e+01  -1.250208e+01
   7.689529e+00  -2.509505e+01
   2.367936e+01  -1.060840e+01
   1.690815e+01  -7.903084e+00
  -1.511019e+01   3.850014e+00
   9.986774e+00  -2.508616e+01
  -1.955482e+01  -4.190913e+00
   7.300443e+00  -3.700895e+00
   2.675191e-01  -1.990496e+00
  -1.701484e+01  -1.964620e+01
   1.812431e+01  -1.434996e+01
