
 $NMID
 id='ANONYMOUS ', fmtdat='(2E16.6)'
 volume=1.0
 tramp=1.0
 $END
   1.058879e+03   7.677363e+01
   5.850021e+02   4.171344e+02
   1.110553e+02   4.929358e+02
  -2.568239e+02   5.335626e+02
  -2.440489e+02   2.230294e+02
  -5.251734e+01   9.940525e-02
   2.564267e+01  -3.674731e+01
  -7.084980e+00   4.955180e+01
  -1.180113e+02   1.756830e+02
  -1.794042e+02   6.920968e+01
  -1.049825e+02  -1.341854e+02
  -5.419953e+01  -1.979378e+02
   7.482849e+01  -5.489736e+01
   3.375997e+01   1.057677e+02
  -3.808040e+01   1.460960e+02
  -1.151997e+02  -1.159597e+01
  -1.270688e+02  -1.412171e+02
  -4.893716e+00  -2.284216e+02
   1.471864e+02  -1.846007e+02
   1.752045e+02   4.906192e+01
   8.942185e+01   1.234880e+02
  -3.941801e+01   8.729547e+01
  -9.868960e+01   2.890834e+01
   4.101974e+01   7.060434e+01
   9.270528e+01   1.231894e+02
  -4.709301e+01   1.187240e+02
  -1.553680e+02   5.156500e+01
  -1.846621e+02   7.779178e+00
  -7.475354e+01  -7.061717e+01
   1.085413e+02  -7.815441e+01
   1.572114e+02   4.122079e+01
   6.234288e+01   1.382502e+02
  -3.707321e+01   1.269517e+02
  -1.725933e+02   5.549224e+01
  -1.361427e+02  -2.960457e+01
  -6.246905e+01  -9.534619e+01
  -1.841352e+01  -1.114056e+02
  -4.569466e+01  -3.229613e+01
  -4.791359e+01   3.263297e+01
  -1.961335e+01  -7.503563e+01
   2.801659e+01  -1.663401e+02
   1.886653e+01  -1.452088e+02
   5.770230e+01  -6.720792e+00
   4.461547e+01   6.301103e+01
   1.940208e+01   3.981485e+01
  -4.822537e+01  -5.348028e+01
   4.532680e+01  -1.530997e+02
   1.491601e+02  -3.600739e+01
   1.636930e+02   1.071852e+02
   8.021425e+01   1.680766e+02
  -8.299632e+01   7.504979e+01
  -1.587756e+02   1.222927e+01
  -1.103977e+02  -9.740758e+01
   3.506287e+01  -1.060397e+02
   1.083890e+02  -7.371559e+01
   9.211758e+01   8.160047e+00
   5.431355e+01   1.201496e+01
  -3.666637e+01   6.685512e+01
  -2.033310e+01  -5.839781e-01
   1.951624e+01   2.153740e+01
   4.105424e+01  -2.043291e+00
  -4.513261e+01   7.417209e+01
  -9.835515e+01   3.849530e+01
  -8.318560e+01  -2.217253e+01
   1.165589e+01  -1.148898e+02
   9.827386e+01  -1.156270e+02
   1.221657e+02  -2.987401e+01
   8.760596e+01   5.999794e+01
   1.556193e+01   7.643669e+01
   1.662677e+01   7.769788e+01
  -8.946809e+00   9.328651e+01
   1.945591e+01   5.527247e+01
  -7.042685e+01   4.868779e+01
  -1.210360e+02  -1.793426e+01
  -7.055587e+01  -4.302202e+00
  -1.147493e+01  -6.391956e+01
   3.906390e+01  -5.492810e+01
   6.773337e+01   3.326933e+01
   3.348602e+01   1.207453e+02
   2.220649e+01   8.607838e+01
  -6.975733e+01   2.445883e+01
  -9.000471e+01  -4.180844e+01
  -7.284801e+01  -1.160181e+02
   2.538548e+00  -8.173020e+01
   5.555820e+01  -7.244751e+01
   5.905746e+01  -5.385541e+01
   5.312651e+01  -3.874662e+01
   9.745627e+01   3.314117e+01
   9.401850e+01   8.229378e+01
   9.004647e+01   7.147033e+01
  -2.158331e+01   1.398142e+02
  -1.251495e+02   1.357337e+02
  -1.669451e+02   7.017450e+01
  -1.166759e+02  -1.174696e+01
  -1.882356e+01  -9.470111e+01
  -1.376057e+01  -7.074375e+01
  -6.415784e+00  -1.284912e+01
  -7.881338e+01  -3.850993e+01
  -1.352393e+01   2.245860e+01
  -3.000256e+01  -2.549041e+01
  -3.683725e+00  -4.277485e+01
  -3.715602e+01   1.023364e+01
  -1.873778e+01   2.774261e+01
  -2.381462e+01  -1.019925e+01
  -5.102557e+01  -7.771560e+01
   1.041843e+01  -9.486342e+01
   7.653569e+01  -8.225622e+01
   9.244288e+01  -5.776625e+00
   1.258285e+02   8.349956e+01
   5.426126e+01   7.363174e+01
  -1.741346e+01   6.630113e+01
  -6.044503e+01   1.930399e+01
  -1.802354e+01   5.635215e+00
   6.455986e+00   2.139352e+01
  -4.871790e+01   4.438125e+01
  -7.341003e+01  -2.941447e+01
  -1.777339e+01  -3.590688e+01
   1.352037e+01  -4.374394e+01
   6.338702e+01  -6.048405e+00
   7.741334e+00   1.156281e+01
  -3.907629e+01   2.127948e+01
  -9.323269e+01  -4.049454e+00
  -8.782898e+01  -8.235004e+01
   2.160510e+01  -1.013378e+02
   6.394754e+01  -8.274146e+01
   7.661410e+01  -6.854187e+01
   4.051299e+01   2.129367e+01
  -5.406752e+00   6.336648e+01
  -4.432972e+01   1.845580e+01
   6.585856e+00  -2.877122e+01
   6.848024e+01  -2.508882e+01
   4.787693e+01   3.752803e+01
   9.562846e+00   3.219644e+01
  -1.734253e+01   2.259657e+01
  -3.870035e+01  -1.918565e+01
  -2.352442e+01  -8.358065e+01
  -1.324164e+01  -2.550278e+00
   3.477781e+01   4.044711e+01
  -2.906014e+01   3.176104e+01
  -9.280653e+01   1.282374e+01
  -5.017536e+01  -3.116136e+01
  -1.441625e+01  -4.626095e+01
   4.812445e+01  -4.234194e+01
   7.777954e+01   2.010116e+01
   4.555455e+01   3.841310e+01
  -1.618110e+01   2.177447e+00
  -2.187570e+01  -1.020272e+01
   2.281018e+01  -1.495126e+01
   4.229129e+01  -4.426503e+01
  -1.723874e+01   8.677787e+00
  -1.299977e+00   1.998522e+00
  -7.933550e+01   2.516883e+00
   1.171369e+01  -8.243034e+01
   4.632115e+01  -6.873627e+01
   1.201326e+02   3.009144e+00
   6.719007e+01   2.053589e+01
  -2.318531e+01   8.202356e+01
   1.505091e-01   5.397278e+01
  -1.991750e+01   3.546172e+00
  -1.493086e+01  -1.944729e+01
  -6.278529e+01   7.508541e+00
  -1.936237e+01  -1.156965e+01
  -3.004715e+01  -1.557603e+01
  -3.095129e+01   2.123482e+00
   2.360540e+01  -4.553978e+01
   5.149217e+01  -2.249127e+01
   2.637780e+01   2.219375e+01
  -3.537850e+01   6.332805e+01
  -5.555961e+01   4.606682e+00
  -5.857595e+01  -2.149277e+01
   1.728940e+01  -1.068913e+02
   9.755326e+00  -6.937054e+01
   1.025247e+02  -8.009159e+01
   1.104358e+02   7.052845e+01
   4.387120e+00   4.736911e+01
   1.100810e+01   5.733186e+01
  -2.280756e+01   4.416251e+01
  -1.187139e+01   4.721434e+01
  -4.233284e+01   5.147737e+01
  -4.584263e+01   3.707525e+00
  -2.513794e+01   1.774185e+01
  -6.287435e+01  -6.510952e+01
  -2.999514e+01  -8.995471e+01
   6.018911e+01  -1.132904e+02
   8.330386e+01  -1.930012e+01
   4.293101e+01   3.525299e+01
  -1.242429e+01   3.097667e+01
  -1.027207e+01   5.430759e+01
  -5.906108e+01  -1.777607e+01
   2.897470e+01   6.085867e+00
   3.786963e+01  -4.248800e+01
  -6.471671e+00   2.349490e+01
  -2.072494e+01   8.170711e+00
  -3.468812e+01  -4.369056e+01
   5.925228e+00  -4.725872e+01
   8.740298e+01  -2.889547e+00
   6.775124e+01   4.196643e+01
  -3.941135e+01   2.442947e+01
  -6.722797e+01   1.460661e+01
  -2.845852e+01  -2.370029e+01
   1.561387e+00  -4.615252e+01
   1.870742e+01  -3.850961e+00
   3.304870e+01   3.409818e+01
  -1.117871e+01   1.573620e+01
   1.701371e+00  -1.340396e+01
   1.465592e+00   1.498850e+01
   9.679598e+00  -6.239884e+00
  -5.840751e+01   2.180829e+00
  -6.787605e+01   2.348846e+01
   2.014705e+00  -1.226286e+01
  -2.138962e+01  -2.932389e+01
   2.178120e+01  -7.501610e+01
   2.261404e+01  -1.044929e+02
   6.290841e+01  -3.537035e+01
   4.228199e+01   9.155839e+00
   1.195312e+01   2.114678e+01
  -1.732136e+01   2.624929e+01
  -1.496839e+01   2.888620e+01
   2.107951e+01   4.366113e+01
   2.404339e+01   5.432320e+01
  -1.480008e-01   4.176687e+01
  -3.112271e+01   4.346925e+01
  -9.019068e+01   2.464143e+01
  -3.259399e+01  -6.178976e+01
   2.562741e+01  -4.505745e+01
   5.985572e+01  -4.304419e+01
   4.559885e+01  -3.124700e+01
   3.422602e+00   3.706555e+01
  -6.768463e-01   1.272761e+01
   1.441064e+01  -2.105407e+01
   1.847525e+01  -8.205865e+00
   4.022482e+01   1.108689e+01
   4.940973e+01  -7.118820e+00
   3.914284e+01   5.794415e+01
  -1.877336e+01   4.807714e+01
  -4.636119e+01  -4.029111e+01
  -2.685109e+01  -6.329068e+01
  -8.880838e+00  -4.367941e+01
   2.292341e+01  -3.393002e+00
  -1.310773e+01   3.055499e+01
  -8.462148e-01  -1.691676e+01
   2.824350e+00  -4.160139e+01
   1.527458e+01   2.767602e+01
   2.433041e+01   5.461477e+01
  -2.205501e+00   3.962405e+01
  -5.292798e+01   2.068133e+01
  -5.066635e+01   1.510099e+00
  -5.355662e+01  -3.124434e+01
   1.384573e+01  -1.432660e+01
   1.251947e+01  -1.096030e+00
   1.681707e+01   1.881497e-03
  -6.772392e+00   5.380359e+01
  -5.582101e+01   2.548919e+01
  -2.421789e+01   2.434563e+01
   2.608498e+01   3.783768e+01
   1.701351e+01  -6.353997e+00
   6.245400e+00   5.498325e+01
  -2.658162e+01   2.316240e+00
   1.600757e+01  -3.003929e+01
  -7.082053e+00  -4.870339e+00
   6.694783e+01  -7.217346e+00
   3.790940e+01  -3.515380e+00
   2.279840e+01   8.795314e+01
   1.097258e+01   3.884760e+01
  -7.276946e+01   8.703347e-01
  -6.062220e+01   1.176506e+00
  -6.870170e+00  -1.643424e+01
   4.534495e+01  -1.130281e+01
  -1.120845e+01  -8.522352e+00
  -9.953134e+00  -9.437641e+01
   3.733135e+01  -5.677325e+01
   2.840790e+01  -4.610070e+01
   3.923342e+01  -3.115678e+01
   5.352016e+01  -5.908914e+00
   2.587776e+01   8.444490e+01
  -4.472535e+01   3.082072e+01
  -4.610716e+01  -2.203429e+01
  -5.730544e+01   2.895539e+00
   3.679959e+00  -5.709714e+01
   3.788275e+01  -1.106787e+01
   2.854160e+01   1.838367e+01
  -1.250361e+01   4.574404e+01
  -2.550654e+01   2.969658e+01
   9.789226e+00   3.643739e+01
  -1.825606e+00  -2.333778e+01
   8.596156e+00  -9.229456e+00
  -5.743899e+01   1.300460e+01
  -5.607720e+01  -9.231640e+00
  -3.851436e+01   1.211302e+01
  -1.654559e+01   7.545751e+00
  -6.240329e-01  -7.188568e+00
   2.084686e+01   1.656608e+01
   3.513504e+00   1.902706e+01
  -2.734573e+01  -1.060842e+01
  -1.119116e+00   1.741405e+01
   2.513509e+01  -2.784578e-01
  -5.040908e+00  -1.394330e+01
   4.258625e+01   4.767099e+01
   4.741094e+01   4.935296e+01
   7.001173e+00   4.296396e+01
  -3.645813e+00  -8.890002e+00
  -2.108717e+01  -6.026672e+00
   1.584745e+01   1.621600e+01
   4.630699e+00   3.837125e+01
   2.663709e+01   1.329831e+01
   1.777294e+01   1.377615e+01
   2.078717e+01   7.562133e+00
   5.536572e+00   1.180545e+01
  -7.347769e+00   2.601461e+01
  -1.871826e+01  -1.309939e+01
  -9.508939e+00   2.780662e+01
  -5.138537e+01  -4.494811e+00
   3.116932e+00  -1.483038e+01
   4.855314e+01  -3.220431e+01
   1.600888e+01   4.647091e+00
   9.841182e+00  -1.812939e+01
  -3.146028e+01  -1.299466e+01
   3.073538e+00  -1.896945e+01
   2.002995e+01   2.545464e+00
   5.119314e+01  -1.366050e+00
