
 $NMID
 id='ANONYMOUS ', fmtdat='(2E16.6)'
 volume=1.0
 tramp=1.0
 $END
  -1.996224e+03  -3.033200e+01
  -1.406323e+03  -9.071286e+02
  -2.817971e+02  -1.216098e+03
   6.284184e+02  -1.063538e+03
   5.897378e+02  -3.995926e+02
   1.844250e+02   2.876791e+01
  -1.640160e+02   4.223531e+01
  -1.454921e+02  -2.639364e+02
   2.054943e+02  -3.613979e+02
   4.122323e+02  -4.529786e+01
   2.739810e+02   3.059802e+02
   1.172083e+02   4.683527e+02
  -2.258530e+02   1.727767e+02
  -2.511476e+02  -2.662142e+02
   4.779102e+01  -3.843241e+02
   3.120710e+02  -8.934911e+01
   2.922837e+02   3.641354e+02
   2.815675e+01   4.478583e+02
  -2.741608e+02   2.731234e+02
  -3.558078e+02  -9.012627e+01
  -1.415942e+02  -2.796700e+02
   5.710542e+01  -2.078502e+02
   7.245147e+01  -1.084915e+02
  -1.379179e+02  -8.468638e+01
  -1.200168e+02  -2.760868e+02
   8.907630e+01  -2.540581e+02
   3.657773e+02  -9.633502e+01
   4.479915e+02   1.337374e+02
   1.981359e+02   2.748577e+02
  -2.174246e+02   1.668885e+02
  -3.820801e+02  -9.416429e+01
  -1.140933e+02  -2.595894e+02
   2.300287e+02  -1.964705e+02
   2.706168e+02  -8.224478e+01
   2.050778e+02   3.944939e+01
   5.177701e+01   2.001936e+02
  -1.005670e+01   1.245693e+02
   5.530061e+01  -8.010970e+01
   8.773151e+01  -6.812826e+01
   6.005862e+01   1.826838e+02
  -2.317970e+00   2.985862e+02
  -1.289564e+02   2.926409e+02
  -2.137684e+02  -4.230941e+01
  -9.649084e+01  -1.613278e+02
   5.559754e+01  -7.735675e+01
   1.184115e+02   1.362210e+02
  -6.244084e+01   2.173400e+02
  -2.869841e+02   4.622506e+01
  -3.768243e+02  -2.687323e+02
  -1.216793e+02  -3.618506e+02
   1.757230e+02  -2.072919e+02
   3.376258e+02   2.307762e+00
   2.706281e+02   1.637999e+02
  -2.926372e+00   1.223438e+02
  -1.834947e+02   6.053479e+01
  -1.668610e+02   5.560032e+01
  -3.381764e+01  -2.515511e+01
   4.602102e+01  -2.552489e+01
  -3.789956e+01  -1.906687e+01
  -1.467558e+02  -4.219084e+01
  -1.215336e+02  -1.016003e+02
   1.048387e+02  -2.095482e+02
   2.909406e+02  -1.687395e+02
   2.711381e+02   6.132481e+01
   5.126861e+00   2.902210e+02
  -2.119078e+02   3.480134e+02
  -3.101773e+02   1.542094e+02
  -2.209007e+02  -1.706525e+02
  -7.061925e+01  -2.865498e+02
  -1.200715e+01  -2.408105e+02
   3.485125e+01  -1.510416e+02
   3.672748e+01  -1.362825e+02
   1.633473e+02  -1.083075e+02
   2.405967e+02  -1.241644e+01
   1.966095e+02   1.074572e+02
   8.266615e+01   1.704845e+02
  -6.650414e+01   1.394498e+02
  -1.536060e+02  -2.484925e+01
  -1.076857e+02  -1.862926e+02
   2.860285e+01  -2.319404e+02
   1.834385e+02  -5.241723e+01
   2.401100e+02   9.865465e+01
   1.463297e+02   1.916360e+02
  -1.752039e+00   2.082799e+02
  -1.185134e+02   1.859776e+02
  -9.059193e+01   1.228349e+02
  -1.440905e+02   8.938406e+01
  -2.383449e+02   4.173860e+01
  -3.725533e+02  -6.521606e+01
  -2.859304e+02  -2.256956e+02
   8.351255e+00  -3.462774e+02
   2.786127e+02  -3.324403e+02
   3.217161e+02  -1.915293e+02
   2.150693e+02   1.718550e+01
   3.769718e+01   1.737918e+02
   3.789255e+00   1.541244e+02
   2.989119e+01   4.219246e+01
   9.029191e+01  -1.102363e+01
   4.455983e+01   7.144737e+01
  -1.790073e+01   8.502613e+01
  -5.802877e+01   1.635097e+01
  -2.304338e+01  -6.047321e+01
   2.665935e+00  -5.858849e+01
   1.379727e+02   4.014746e+01
   1.377938e+02   1.923383e+02
   5.752629e+01   2.320703e+02
  -1.562717e+02   1.563407e+02
  -2.898341e+02  -2.440858e+01
  -2.167772e+02  -2.212662e+02
  -1.887068e+01  -1.568353e+02
   7.096819e+01  -5.761472e+01
   1.172563e+02  -1.678876e+01
   9.621777e+00   1.794598e+00
  -3.811928e+01  -7.324054e+01
   3.171251e+01  -1.099990e+02
   9.231008e+01  -5.146972e+01
   8.421275e+01  -1.400087e+01
   5.825452e+00   4.058113e+01
  -9.019456e+01  -4.637579e+01
  -8.687888e+00  -8.710089e+01
   1.297090e+02  -6.881132e+01
   2.826092e+02   5.539740e+01
   2.145355e+02   1.321794e+02
   4.479198e+01   2.469273e+02
  -1.655567e+02   2.288551e+02
  -1.531016e+02   1.073621e+02
  -7.071127e+01  -3.796802e+01
   1.274177e+01  -9.452794e+01
  -1.246539e+01  -1.320321e+01
  -4.323749e+01   5.355250e+01
  -1.571623e+02   9.417659e+00
  -1.469242e+02  -5.430418e+01
  -1.068177e+02  -1.227655e+02
   5.113810e+01  -5.996101e+01
   5.186032e+01  -4.193518e+01
   5.251585e+01   6.537913e+01
  -4.436856e+01   2.135380e+00
  -2.576297e+01  -1.109949e+02
   4.774755e+01  -9.418441e+01
   1.270061e+02  -8.349613e+00
   1.561919e+02   8.590472e+01
   6.022725e+01   9.893487e+01
  -1.294815e+02   6.125571e+01
  -1.422479e+02   9.700723e+00
  -1.369260e+01  -5.823073e+01
   7.072420e+01  -3.800300e+01
   7.947413e+01  -3.359768e+01
  -2.298222e+01   4.745986e+01
  -1.737592e+01   6.848105e+00
   1.090217e+01  -2.066958e+01
   5.321525e+01  -4.715979e+00
   1.155586e+02   8.150646e+01
   1.958430e+01   1.286192e+02
  -7.967283e+01   1.129043e+02
  -1.622958e+02   4.102212e+00
  -1.386768e+02  -7.073647e+01
  -2.031876e+01  -2.028797e+02
   3.382163e+01  -1.184976e+02
   8.663802e+01  -3.151782e+01
   6.703560e+01   4.948067e+01
   4.180336e+01   2.891637e+01
   3.068546e+01  -3.170530e+01
   2.616958e+01  -3.194893e+01
   7.992650e+01   3.051013e+01
  -1.462027e+01   7.242745e+01
  -1.206904e+02   5.717066e+01
  -5.376033e+01  -5.789087e+01
   3.543504e+01  -1.050346e+02
   9.185062e+01  -7.751392e+01
   1.192382e+02   6.382110e+01
   4.566675e+01   1.638636e+02
  -6.986358e+01   1.315994e+02
  -1.986367e+02   7.839375e+01
  -1.899470e+02  -5.616260e+01
  -8.138496e+01  -9.679055e+01
   4.849106e+01  -1.120377e+02
   6.538580e+01  -1.010787e+02
   4.543519e+01  -4.276607e+01
   2.260118e+01  -6.657153e+01
   5.609367e+01  -5.353549e+01
   1.168445e+02  -1.213044e+01
   1.249830e+02   1.399450e+02
   7.960824e+01   1.705908e+02
  -5.256590e+01   1.663508e+02
  -1.192963e+02   5.520831e+01
  -8.065006e+01  -1.023601e+02
  -6.102877e+01  -7.721281e+01
   4.849067e+01  -8.264056e+01
  -3.897954e+00  -4.085689e+00
  -2.043446e+01   5.719893e+01
  -1.228218e+01   4.930198e+01
   1.638964e+01   1.146025e+00
   1.821202e+01  -1.813993e+00
   3.353987e+01   5.697022e+00
  -6.477686e+01   4.748245e+01
  -1.451965e+02  -1.593856e+01
  -1.269381e+02  -3.591220e+01
   2.058464e+01  -7.919359e+01
   1.178420e+02  -5.283361e+01
   1.319896e+02   4.065034e+00
   3.895322e+01   1.825623e+01
  -5.810745e+01  -3.473432e+00
  -4.189687e+01   1.034286e+01
   7.123506e+00  -6.011508e+01
   7.760439e+01  -1.227186e+01
   6.215565e+01  -5.966244e+00
   2.367232e+01   2.908884e+01
   7.370243e+00  -8.397003e+00
   1.564153e+01  -2.973419e+01
   3.289862e+01  -3.054585e+01
   7.464812e+01   1.966528e+01
  -1.164599e+01   7.350439e+01
  -6.055797e+01   9.223324e+01
  -1.365512e+02   5.638021e+01
  -1.076123e+02  -6.110952e+01
   3.346162e+01  -1.335203e+02
   5.584244e+01  -1.127110e+02
   2.384284e+00  -2.361787e+01
  -5.847117e+01  -3.694106e+01
  -1.104148e+02  -3.798025e+01
  -5.846820e+01  -1.179454e+02
   9.120510e+01  -6.697559e+01
   1.492319e+02  -7.485862e+01
   1.399269e+02   6.505364e+01
  -1.036302e+01   6.169361e+01
  -6.330406e+01   4.346757e+01
  -6.648662e+01  -2.938466e+00
   1.492154e+01   6.574694e+00
   1.161146e+01   1.170960e+00
   5.235116e+01   9.057198e+01
  -2.104578e+01   7.723989e+01
  -1.251025e+02   4.162997e+01
  -1.082417e+02  -4.576141e+01
  -3.369391e+01  -1.322454e+02
   3.339085e+01  -1.301506e+02
   8.061800e+01   2.604745e+01
   1.806338e+01   1.001153e+02
  -3.096240e+01   8.674965e+01
  -2.454036e+01   3.283811e+01
  -2.929160e+01  -3.376750e+01
   6.194013e-01  -2.303634e+01
   2.293547e+00   3.533245e+01
  -2.040254e+00  -4.430738e+00
  -5.841718e+01  -2.172238e+01
  -1.755374e+01  -6.920691e+01
   6.845833e+01   1.674800e+01
   5.492678e+01   5.000020e+01
   5.672535e+01   9.065186e+01
   3.210767e+00   4.261062e+01
  -7.026900e+01  -6.895968e+00
  -6.073830e+01  -1.655862e+01
  -3.098540e+01   1.258959e+01
   2.382704e+01   3.040043e+01
   2.038978e+00   1.212477e+01
  -3.418375e+01  -1.984192e+01
  -2.123064e+00  -1.870324e+01
   4.546048e+01  -2.974130e+00
   6.598030e+01  -2.585884e+00
  -2.302931e+00   4.276040e+01
  -6.996769e+01   1.271913e+02
  -1.560152e+02   3.733157e+01
  -1.283708e+02  -2.517188e+01
  -1.717904e+01  -1.533085e+02
   7.745195e+01  -1.553290e+02
   6.483538e+01  -3.619519e+01
   1.317716e+01   1.614731e+01
   2.081853e+01   2.877405e+01
   1.435869e+01  -3.230640e+00
   4.663694e+01   2.283765e+01
   2.518137e+01   2.139296e+01
  -9.214891e+00   4.350440e+01
  -3.703651e+01   5.797873e+01
  -7.559284e+01  -3.362010e+01
  -8.844481e+01  -9.205148e+01
  -8.241815e+01  -8.490447e+01
  -1.659952e+00  -4.378154e+01
   9.032554e+01   4.232459e+01
   1.397660e+01   4.765030e+01
  -5.440970e+01   3.937860e+01
  -1.214092e+02   1.399953e+00
  -5.127104e+01  -7.701241e+01
   4.568181e+01  -6.800958e+01
   5.090699e+01  -3.376080e+01
   3.296508e+01   4.330213e+01
  -2.285174e+01  -3.662110e+00
   8.196769e+00  -2.716549e+01
   4.757442e+01  -2.654525e+01
   9.428536e+01  -3.602649e+01
   3.671073e+01  -1.026997e+01
  -1.428096e+01   2.580103e+01
  -2.593567e+01   8.511074e+01
  -1.653248e+01   5.232778e+01
  -2.893768e+01  -5.225544e+01
   1.157951e+01  -4.420304e+01
   2.261121e+01  -1.493342e+01
   3.906442e+01   3.192889e+01
   2.112783e+01   4.469664e+01
  -8.527761e+00  -2.893962e+01
  -1.216482e+00  -1.242875e+01
   1.656386e+01   2.360194e+01
   5.544784e+00   2.609546e+01
   5.452832e-01   9.890776e-01
  -1.031634e+01  -4.239714e+01
   1.524814e+01  -3.024097e+01
  -9.595638e+00   2.788674e+01
   2.557576e+01   2.110198e+01
   2.742953e+01   6.333218e+01
   8.440326e+00  -3.295767e+00
  -6.906767e+01  -4.319004e+01
  -1.818876e+01  -2.952497e+01
   7.236425e+01   1.888841e+01
   8.600538e+01   2.377789e+01
   2.187426e+01   2.646901e+01
  -7.848465e+00   3.426175e+01
  -3.957362e+01   2.573294e+01
  -6.339070e+01  -1.375225e+01
   2.122048e+01  -3.347735e+01
   5.946351e+01  -2.428935e+01
   1.243560e-01  -2.065183e+01
  -3.603433e+01   4.012180e+01
