
 $NMID
 id='ANONYMOUS ', fmtdat='(2E16.6)'
 volume=1.0
 tramp=1.0
 $END
   2.767902e+03   6.704617e+01
   2.281927e+03   1.423822e+03
   4.247186e+02   1.863847e+03
  -8.996621e+02   1.535382e+03
  -9.970660e+02   5.298618e+02
  -2.921425e+02  -1.286376e+02
   2.443970e+02  -4.264387e+01
   9.523066e+01   4.163758e+02
  -2.573879e+02   5.364463e+02
  -4.865665e+02   2.235501e+02
  -4.700275e+02  -3.634132e+02
  -1.340511e+02  -5.963110e+02
   1.441872e+02  -3.089296e+02
   2.599615e+02   2.792878e+02
  -4.219398e+00   4.318208e+02
  -3.112275e+02   1.156178e+02
  -3.099249e+02  -3.789657e+02
   7.456892e+00  -6.396873e+02
   4.475129e+02  -4.519252e+02
   5.116976e+02   1.128601e+02
   1.960514e+02   3.434076e+02
  -2.896923e+01   3.280826e+02
   1.029799e+01   1.256698e+02
   2.555050e+02   1.414948e+02
   2.954063e+02   3.190991e+02
  -1.012537e+02   4.200434e+02
  -4.941556e+02   1.305331e+02
  -5.604144e+02  -1.166047e+02
  -2.107231e+02  -2.996957e+02
   3.165313e+02  -1.082460e+02
   4.131702e+02   1.091202e+02
   1.438834e+02   2.694453e+02
  -2.622007e+02   3.396249e+02
  -4.544829e+02   1.141449e+02
  -3.085692e+02  -1.553788e+02
  -1.401992e+02  -3.095076e+02
  -4.222818e+01  -2.243974e+02
  -7.386182e+01   5.021057e+01
  -1.870311e+02   4.377441e+01
  -1.302101e+02  -1.930493e+02
   3.873220e+01  -4.480589e+02
   2.427325e+02  -3.894094e+02
   2.165638e+02  -3.085597e+01
   8.759562e+01   1.773003e+02
  -1.011675e+02   3.748494e+01
  -8.977922e+01  -3.062458e+02
   1.654048e+02  -3.375101e+02
   4.394141e+02  -2.645970e+01
   4.607041e+02   3.365625e+02
   2.048122e+02   4.574460e+02
  -2.557546e+02   2.473036e+02
  -4.430845e+02  -5.101782e+01
  -3.483951e+02  -2.071653e+02
   2.566490e-01  -1.693039e+02
   2.155230e+02  -1.026503e+02
   2.138603e+02  -8.389699e+01
   7.112121e+01  -3.684064e+01
   3.534982e+01  -3.603575e+01
   1.194840e+02  -3.595352e+01
   2.499172e+02   5.725073e+01
   1.054901e+02   1.453065e+02
  -1.377711e+02   2.404177e+02
  -3.184527e+02   2.007168e+02
  -2.980694e+02  -7.946055e+01
   5.390767e+01  -3.975859e+02
   3.515539e+02  -3.820063e+02
   3.721976e+02  -1.527234e+02
   2.424764e+02   1.733258e+02
   1.028609e+01   3.797997e+02
  -1.766736e+01   2.662194e+02
   2.622798e+01   2.028377e+02
  -3.477663e+01   1.367902e+02
  -1.713196e+02   1.392254e+02
  -3.040964e+02   3.801219e+01
  -2.520483e+02  -1.489445e+02
  -7.867237e+01  -2.285239e+02
   8.895988e+01  -1.725379e+02
   2.055566e+02   7.025627e+01
   5.460939e+01   2.531785e+02
  -9.925184e+01   2.258321e+02
  -2.691328e+02   3.812000e+01
  -2.607863e+02  -1.584340e+02
  -1.574928e+02  -2.591351e+02
   5.352744e+00  -2.774665e+02
   1.336358e+02  -1.655922e+02
   7.996148e+01  -6.853941e+01
   1.764567e+02  -5.371822e+01
   2.724005e+02   1.822789e+00
   4.317516e+02   1.300953e+02
   3.472978e+02   2.802234e+02
  -8.839500e-01   4.490858e+02
  -4.488358e+02   4.222286e+02
  -5.341738e+02   1.834041e+02
  -2.841089e+02  -1.292326e+02
   1.325868e+01  -2.548689e+02
   9.382362e+01  -1.542253e+02
   5.042242e+01   9.635292e-01
  -1.284395e+02   5.943930e+01
  -1.484477e+02  -8.269545e+01
  -3.483892e+01  -1.144111e+02
   7.186011e+01  -6.571177e+01
   6.087425e+01   8.499752e+01
   2.316039e+01   4.207048e+01
  -1.137665e+02  -3.456249e+01
  -1.390983e+02  -2.761674e+02
   3.715449e+00  -3.857718e+02
   2.682462e+02  -2.407166e+02
   4.036196e+02   5.394213e+01
   3.582481e+02   2.892357e+02
   4.539079e+01   3.031093e+02
  -1.318039e+02   1.330690e+02
  -1.367025e+02   8.108649e+00
  -3.230500e+01  -3.710479e+01
   3.239257e+01   6.366593e+01
   1.932696e+00   1.089255e+02
  -1.289527e+02   6.773892e+01
  -1.509433e+02   2.885373e+01
  -8.237510e+01  -5.207501e+01
   3.947246e+01  -1.806490e+01
   1.306445e+01   7.400718e+01
  -1.415290e+02   5.345139e+01
  -3.105352e+02  -1.784971e+01
  -3.295278e+02  -2.363121e+02
  -2.535448e+01  -2.617869e+02
   2.163288e+02  -2.268253e+02
   3.107112e+02  -5.984410e+01
   1.688869e+02   8.375131e+01
   3.835261e+00   6.241683e+01
  -3.216349e+01  -3.360595e+01
   4.509500e+01  -9.288135e+01
   1.747048e+02   1.360374e+01
   1.648346e+02   1.198657e+02
   5.041672e+01   1.886076e+02
  -1.007922e+02   1.177231e+02
  -1.030121e+02  -1.036537e+01
  -2.236270e+01  -5.544342e+01
   3.813775e+01   3.958702e+01
   2.307967e+01   1.237383e+02
  -9.510280e+01   1.703002e+02
  -2.422964e+02  -3.811120e+00
  -2.004634e+02  -1.402562e+02
  -3.790426e+01  -2.280566e+02
   1.084289e+02  -1.747896e+02
   1.477999e+02  -2.444145e+01
   1.099576e+02   1.219016e+02
  -7.717398e+01   1.008911e+02
  -1.738420e+01   7.940662e+00
   3.545908e+01  -3.153968e+01
   4.335497e+01  -3.288233e+01
   9.329382e+00   7.683153e+01
  -9.199380e+01   3.231892e+01
  -1.123959e+02  -6.114545e+01
  -2.460795e+01  -1.940775e+02
   1.775900e+02  -1.876418e+02
   2.490793e+02  -2.143815e+01
   1.945015e+02   1.447385e+02
   8.851118e+01   2.118437e+02
  -9.997807e+01   1.278533e+02
  -1.157596e+02   2.036021e+01
  -8.447073e+01  -1.030491e+02
  -3.159429e+01  -5.991777e+01
  -5.992104e+00  -3.683988e+01
  -2.131094e+01  -3.090996e+01
  -7.294101e+01  -8.379061e+01
   5.703561e+01  -1.068318e+02
   1.543384e+02  -1.074756e+01
   1.463153e+02   8.124381e+01
  -8.804444e+00   1.837437e+02
  -2.018744e+02   6.580275e+01
  -2.306373e+02  -9.179948e+01
  -8.667829e+01  -2.257170e+02
   1.456694e+02  -1.961796e+02
   2.541045e+02  -8.638903e+01
   2.572458e+02   9.638072e+01
   8.592905e+01   1.646665e+02
  -3.747102e+01   1.531041e+02
  -1.199827e+02   9.495088e+01
  -8.991257e+01   6.316267e+01
  -1.169955e+02   1.105865e+02
  -8.300271e+01   1.004768e+02
  -1.281610e+02   2.121524e+00
  -7.452697e+01  -1.637910e+02
   1.049208e+00  -2.337539e+02
   1.257463e+02  -1.574206e+02
   1.919323e+02  -5.094044e+01
   1.643521e+02   1.072046e+02
  -2.113193e+00   1.130438e+02
  -9.650983e+01   5.704072e+01
  -8.394604e+01  -5.258111e+01
   5.959055e+00  -8.820191e+01
   4.829896e+01  -4.227714e+01
  -3.814110e+01   2.022179e+01
  -9.210430e+01  -1.445345e+01
  -6.395891e+01  -2.599897e+01
   7.191272e+01  -7.289333e+01
   1.806465e+02   3.112665e+01
   1.659244e+02   8.910275e+01
  -2.682818e+00   1.300696e+02
  -1.686666e+02   9.956437e+01
  -1.737826e+02  -8.385997e+00
  -2.326708e+01  -2.814852e+01
   6.359648e+01  -6.128333e+01
   1.121659e+02   2.718326e+01
   1.912113e+01   1.005311e+02
  -5.459977e+01   5.778033e+01
  -8.988678e+01  -9.689028e+00
  -7.119354e+01  -6.544105e+01
  -1.008798e+02  -1.170516e+02
  -1.572104e+01  -4.673819e+01
  -1.200247e+02   3.392491e+00
  -4.516752e+01  -7.459974e+01
   2.141950e+01  -1.532231e+02
   9.840900e+01  -1.844261e+02
   1.635327e+02  -6.778136e+01
   1.411417e+02   1.194084e+02
   4.283765e+01   1.122478e+02
  -6.191000e+01   8.692299e+01
  -9.230712e+01   4.088392e+01
   6.992812e+01   1.051484e+01
   1.101379e+02   7.506616e+01
   4.983543e+01   1.307154e+02
  -1.053569e+02   1.435036e+02
  -2.034744e+02   4.073428e+01
  -1.238132e+02  -5.158371e+01
  -3.001467e+01  -8.253933e+01
   5.241169e+01  -4.919966e+01
   6.707578e+01  -2.479492e+01
  -5.251392e+01   1.622442e+01
  -8.537228e+01  -4.933129e+01
  -3.140759e+01  -1.171966e+02
   1.075687e+02  -1.601065e+02
   1.449888e+02  -8.689240e+01
   1.131587e+02   8.399169e+01
  -1.077781e+01   2.048338e+02
  -1.054710e+02   1.029538e+02
  -5.646556e+01  -4.237036e+01
  -4.621473e+00  -1.635062e+02
   3.522258e+01  -9.233390e+01
   4.056955e+01   4.803554e+00
   8.441308e+01   6.309242e+01
   2.462198e+01  -1.337896e+01
   3.627444e+01  -5.064596e+01
   2.725261e+01   2.529004e+01
   8.521409e+01   3.617989e+01
   4.329403e+01   1.534496e+02
  -5.389928e+01   2.600637e+01
  -1.479533e+02  -7.264962e+01
  -1.059655e+02  -1.238579e+02
  -1.004531e+01  -8.855396e+01
   1.197040e+02  -4.944924e+01
   1.085176e+02   4.662872e+01
   2.150985e+01  -2.626021e+01
  -6.876624e+01   2.965261e+01
  -1.748484e+01   1.370643e+01
   2.652953e+01  -2.659292e+01
   2.550810e+01  -2.000201e+01
  -5.044235e+01  -1.358378e+01
  -6.440980e+01   2.385608e+01
  -4.423919e+01  -4.575460e+01
   7.755929e+01  -1.190748e+02
   1.730287e+02  -9.441057e+01
   1.291173e+02   4.186675e+01
   5.410713e+01   1.439419e+02
  -8.993290e+01   1.827080e+02
  -9.654353e+01   7.551716e+01
  -6.862087e+01   2.300535e+01
  -5.623873e+01  -7.569674e+01
  -3.577894e+00  -7.315360e+01
  -4.336898e+00  -2.876126e+01
  -3.909029e+00  -5.136989e+01
  -1.838044e+01  -8.015984e+01
   3.139663e+01  -6.367057e+01
   9.461732e+01  -2.088327e+01
   8.025332e+01   9.205464e+01
   5.807564e+01   1.532384e+02
  -6.057673e+01   4.274116e+01
  -1.037210e+02  -6.352791e+01
  -8.941542e+01  -4.881370e+01
   6.228893e+01  -6.097783e+01
   7.666913e+01   3.020408e+01
   5.358526e+01   1.031204e+01
   3.519932e+00   6.932337e+01
  -3.143419e+01  -6.137929e+00
   3.350028e+01  -5.322792e+01
   6.242154e+01  -4.571579e+01
   5.305357e+01   3.095928e+01
  -1.142475e+02   6.917687e+01
  -1.543015e+02   7.917362e+00
  -1.029532e+02  -1.655536e+01
   1.641598e+00  -9.999249e+01
   3.784917e+01  -1.221426e+02
   2.530782e+01  -5.632674e+00
  -7.714672e+00   6.959152e+01
   1.327810e+01   6.208897e+01
  -1.835940e+01  -1.240670e+01
  -1.196782e+01  -9.265926e+01
  -1.605452e+01  -5.220425e+01
  -2.382422e+01  -2.401995e+01
   5.577897e+01   2.001832e-01
   2.758661e+01  -1.368964e+01
   1.665299e+01  -2.427843e+01
   2.073900e+01  -3.295424e+01
   4.423430e+01   5.734755e+01
  -1.257693e+01   9.502131e+01
  -1.756743e+01   6.033483e+01
  -8.169912e+01   3.728409e+00
  -1.209619e+01  -2.516495e+01
  -7.148262e+00  -4.896805e+00
   1.033149e+02   2.517547e+01
   4.488977e+01   4.709033e+01
  -6.444353e+01   2.211861e+01
  -1.217202e+02  -8.139051e+00
  -3.239647e+01  -1.425938e+01
   1.880063e+01  -7.988797e+01
   7.732239e+01  -3.496519e+01
   3.363294e+01  -2.525280e+00
  -3.530691e+01   2.264833e+01
  -7.601650e+01   7.351569e+00
  -2.734090e+00   1.745441e+01
   4.540167e+01  -1.052598e+01
