
 $NMID
 id='ANONYMOUS ', fmtdat='(2E16.6)'
 volume=1.0
 tramp=1.0
 $END
   3.847509e+03   1.185941e+02
   2.091975e+03   2.253397e+03
  -4.829149e+02   2.546141e+03
  -1.721128e+03   1.092149e+03
  -8.667376e+02  -2.271823e+02
   4.362528e+02  -4.458341e+02
   6.616991e+02   3.368756e+02
  -3.053158e+01   8.498922e+02
  -7.387912e+02   8.268946e+02
  -8.850589e+02   2.010191e+01
  -3.812984e+02  -7.105897e+02
   2.129472e+02  -7.013324e+02
   5.307423e+02  -1.161644e+02
   4.155824e+02   6.669337e+02
  -2.130387e+02   7.141977e+02
  -5.383232e+02   4.374313e+01
  -2.706990e+02  -5.875791e+02
   2.733264e+02  -6.830740e+02
   6.332997e+02  -1.163551e+02
   3.851005e+02   3.412017e+02
   4.777341e+01   4.694326e+02
  -2.452698e+02   3.318801e+02
  -1.533465e+02  -9.232981e+00
   5.390025e+01  -8.531737e+01
   3.302461e+02   1.458930e+02
   2.497872e+02   4.810977e+02
  -3.943774e+02   3.567253e+02
  -7.709984e+02  -1.291367e+02
  -3.845133e+02  -3.742558e+02
   2.962269e+02  -4.466632e+02
   6.792533e+02   5.355814e+01
   3.571159e+02   3.882018e+02
  -2.425136e+02   4.834454e+02
  -4.577358e+02   2.279542e+02
  -4.187521e+02  -1.817165e+02
  -9.345898e+01  -4.932741e+02
   1.621629e+02  -2.677316e+02
   9.126445e+01   2.718289e+02
  -1.784329e+02   3.452235e+02
  -4.034665e+02  -1.528143e+01
  -1.909849e+02  -6.255734e+02
   2.722885e+02  -6.303768e+02
   5.108663e+02  -3.474689e+01
   2.270620e+02   4.231289e+02
  -2.295489e+02   3.070682e+02
  -3.208277e+02  -3.066988e+02
   3.205349e+01  -4.565087e+02
   4.617386e+02  -9.500682e+01
   5.598178e+02   3.867934e+02
   1.351455e+02   5.488284e+02
  -3.818648e+02   2.739202e+02
  -6.270165e+02  -4.882077e+01
  -4.156379e+02  -3.824596e+02
   1.218833e+02  -3.173604e+02
   4.283540e+02  -7.923903e+01
   2.368322e+02   8.604169e+01
  -3.276507e+01   8.878988e+01
  -1.130957e+02  -1.825018e+02
   1.660224e+02  -6.771145e+01
   3.455234e+02   9.582159e+01
   1.372775e+02   2.848103e+02
  -1.943057e+02   3.128020e+02
  -3.697141e+02   1.028574e+02
  -2.632492e+02  -7.318281e+01
   3.673664e+01  -2.505389e+02
   2.230268e+02  -3.520779e+02
   3.090865e+02  -2.524536e+02
   2.949656e+02   1.496985e+02
   1.106373e+02   4.424640e+02
  -9.553510e+01   3.501529e+02
  -1.025175e+02   1.470392e+02
  -4.120080e+01  -1.079133e+01
  -2.444782e+01   7.445494e+01
  -1.732722e+02   1.244281e+02
  -2.775080e+02  -2.721728e+01
  -1.665123e+02  -2.313976e+02
   7.343544e+01  -2.669553e+02
   1.628639e+02  -1.832406e+01
   1.853136e+02   2.206657e+02
  -9.579871e+00   2.839567e+02
  -2.893195e+02   1.242584e+02
  -3.360193e+02  -1.506155e+02
  -2.013822e+02  -2.867233e+02
   8.387103e+01  -2.845337e+02
   2.077334e+02  -1.291457e+02
   1.787606e+02  -4.326860e+01
   1.043253e+02  -3.787515e+01
   2.621108e+02  -3.456009e+01
   3.863697e+02   6.731057e+01
   3.452088e+02   3.215503e+02
   5.756479e+00   4.508787e+02
  -3.791945e+02   4.254446e+02
  -4.922549e+02   1.931759e+02
  -2.586082e+02  -1.183285e+02
  -1.825258e+01  -2.840501e+02
   7.631732e+01  -2.018198e+02
  -2.132876e+01  -2.427072e+01
  -1.604165e+02   7.815307e+01
  -1.610492e+02  -3.308896e+01
   1.119304e+01  -1.298771e+02
   1.500740e+02  -1.845556e+02
   7.841118e+01   9.379465e+01
  -4.809766e+01   1.794891e+02
  -2.161417e+02   1.761749e+01
  -1.964062e+02  -2.205228e+02
   9.833442e-01  -3.802068e+02
   2.021131e+02  -2.071549e+02
   3.153589e+02   6.421243e+01
   2.854468e+02   2.276647e+02
   8.387354e+01   2.423502e+02
  -1.462425e+02   9.013987e+01
  -1.648256e+02  -1.346216e+01
  -5.796462e+01  -3.775192e+01
   1.184805e+02   6.324058e+01
   9.747021e+01   1.256286e+02
  -7.697240e+01   9.762795e+01
  -1.479159e+02   1.955635e+01
  -8.612109e+01  -1.056446e+02
   7.822581e+01   1.842164e+00
   3.373618e+01   6.408251e+01
  -8.783921e+01   1.125757e+02
  -3.117058e+02   3.886895e+01
  -2.400768e+02  -1.800394e+02
  -5.611821e+01  -2.644252e+02
   1.601645e+02  -2.664648e+02
   2.770533e+02  -1.275782e+02
   1.166003e+02   8.111693e+01
   2.085708e+01   4.772944e+01
  -2.934906e+01   3.207689e+01
   1.058743e+02  -1.297035e+02
   1.572837e+02  -5.201676e+01
   1.774818e+02   1.357574e+02
   9.841640e+01   1.831302e+02
  -4.154753e+01   1.307663e+02
  -1.111051e+02   3.105231e+01
  -5.956291e+01   9.998647e+00
   1.498040e+00  -1.775856e+01
   1.822002e+01   3.994625e+01
  -9.978874e+01   1.105820e+02
  -1.794575e+02   2.011379e+01
  -1.816266e+02  -1.023331e+02
  -3.091991e+01  -2.702608e+02
   2.052135e+02  -1.855204e+02
   2.367138e+02   4.004860e+00
   6.101507e+01   1.416126e+02
  -7.984211e+01   1.759187e+02
  -1.934745e+02   4.085359e+01
  -9.774147e+00  -6.098892e+01
   3.046632e+01  -3.901012e+01
   2.916450e+00  -3.438203e+01
  -3.951308e+01   8.391466e+00
  -9.848869e+01  -9.476657e+01
   6.256259e+00  -1.802810e+02
   9.078267e+01  -7.811060e+01
   2.531036e+02  -1.261609e+01
   1.806074e+02   1.599845e+02
   2.180663e+01   2.434204e+02
  -1.630985e+02   1.783608e+02
  -1.919797e+02   7.034479e+00
  -1.024604e+02  -1.107098e+02
  -4.587721e+01  -5.849151e+01
  -3.910317e+01  -4.280190e+00
  -8.999294e+01   2.276505e+01
  -9.409037e+01  -6.637363e+01
   5.693644e+01  -1.039780e+02
   5.065663e+01  -6.877924e+01
   8.298239e+01   1.585400e+01
   1.413828e+00   1.000384e+02
  -1.636021e+02   5.685195e+01
  -1.390244e+02  -7.807954e+01
  -6.891570e+01  -1.606912e+02
   8.525908e+01  -1.996497e+02
   2.378498e+02  -1.524387e+00
   1.668676e+02   8.344978e+01
   1.129945e+02   1.174432e+02
  -5.204810e+01   1.218288e+02
  -8.590162e+01   8.069076e+01
  -7.285394e+01   1.262958e+02
  -4.658054e+01   8.359367e+01
  -1.002705e+02   9.382816e+01
  -1.504267e+02  -6.086345e+00
  -1.275053e+02  -1.472586e+02
   1.067940e+01  -1.709721e+02
   1.025035e+02  -1.523965e+02
   1.820736e+02  -2.945859e+01
   1.508913e+02   1.394038e+02
   3.739772e+01   1.214408e+02
  -5.550431e+01   1.533006e+02
  -2.965121e+01  -4.412365e+01
   5.278050e+01  -2.672020e+01
   3.493672e+01  -1.292778e+01
  -4.235516e+01   2.342069e+01
  -6.307668e+01  -1.273065e+01
  -7.836607e+01  -8.041580e+00
   3.186232e+01  -3.316716e+01
   1.636178e+02  -3.311554e+00
   1.546730e+02   5.021093e+01
   4.668529e+01   7.616063e+01
  -9.087448e+01   8.825572e+01
  -1.001711e+02   5.700323e+00
  -9.191717e+00  -5.682883e+00
   8.484316e+01  -3.157786e+00
   3.078513e+01   1.584644e+01
   1.007802e+01   7.781468e+01
  -4.799188e+01   9.386685e+01
  -7.843238e+01  -5.956443e+01
  -9.044458e+01  -2.631186e+01
  -3.659660e+01  -3.488426e+01
  -3.234547e+01   3.816023e-01
  -7.909717e+01  -2.705149e+01
  -1.184929e+01  -1.012169e+02
   4.245725e+01  -1.130799e+02
   7.694876e+01  -1.060205e+02
   1.848849e+02  -4.347849e+01
   1.106027e+02   1.187210e+02
  -3.155732e+01   6.496580e+01
  -1.167234e+02   2.523046e+01
  -4.188643e+01  -7.719265e+01
   7.684971e+01  -7.729698e+00
   1.341697e+02   6.844144e+00
   7.673967e+01   9.264935e+01
  -1.046772e+02   1.315443e+02
  -2.154179e+02   8.315759e+01
  -1.784016e+02  -6.817175e+01
  -6.362641e+00  -9.554042e+01
   2.175191e+01  -5.466052e+01
   2.190267e+01  -2.816121e+01
  -7.577082e+01  -3.509166e+00
  -4.576855e+01  -4.288760e+00
  -1.010710e+01  -8.835806e+01
   1.008391e+02  -1.570261e+02
   1.394824e+02  -5.174934e+01
   1.083400e+02   1.227566e+02
  -3.041759e+01   1.979078e+02
  -9.552583e+01   1.347912e+02
  -1.113669e+02  -3.977928e+01
  -6.689183e+01  -9.372594e+01
  -9.247195e+00  -1.450126e+02
   7.407268e+01  -1.433586e+01
   9.985274e+01   7.970260e+01
  -1.850389e+01   1.736160e+01
   2.027748e+01  -1.003163e+00
   1.742465e+01  -2.115236e+01
   4.594797e+01   6.435876e+01
   3.021779e+00   1.158516e+02
  -3.083215e+01   6.033028e+01
  -1.012654e+02  -1.150448e+01
  -1.287312e+02  -7.626787e+01
   1.987177e+01  -9.388255e+01
   8.069052e+01  -3.661705e+01
   8.646606e+01   6.848521e+00
   1.488160e+00   2.642341e+01
  -5.785030e+01   1.067217e+01
  -2.539914e+01   3.360960e+00
   1.608027e+01  -2.361387e+01
   2.369683e+01  -6.197917e+00
  -3.275790e+01  -5.369743e+01
  -1.017364e+02   2.564730e+01
   1.991576e+01  -1.050296e+02
   9.466610e+01  -8.969178e+01
   1.819494e+02  -6.366857e+00
   1.164050e+02   5.641055e+01
   7.770835e+00   1.540450e+02
  -1.204724e+02   1.360712e+02
  -1.262581e+02   9.396763e+01
  -1.123865e+02  -2.939036e+01
  -2.866081e+01  -4.936549e+01
   3.301979e+01  -7.739865e+00
  -5.225565e+01  -3.529502e+00
  -3.917710e+01  -1.442515e+01
  -1.418131e+01  -6.239984e+01
   4.344015e+01  -4.504494e+01
   4.067702e+01  -4.042478e+01
   3.664375e+01   1.152886e+02
  -9.213092e+00   8.107904e+01
  -7.937524e+01   5.381877e+01
  -4.801641e+01  -8.846379e+01
  -4.288145e+01  -1.083292e+02
   7.599407e-01  -1.399471e+01
   1.018889e+02   3.122198e+00
   4.073299e+01   3.432215e+01
  -3.113723e+01   5.465572e+01
  -3.901672e+01   3.267346e+01
   1.223623e+01   1.455800e+01
   3.761029e+01  -3.770578e+01
   3.561981e+01   1.958183e+01
  -8.434041e+01   8.824278e+01
  -5.264119e+01   5.806930e+01
  -9.078755e+01  -3.393652e+00
   1.747646e+01  -7.599528e+01
   6.935672e+01  -6.649814e+01
   5.732556e+01   3.629457e+01
  -2.186705e+01   8.173251e+01
  -8.056161e+01   5.983228e+01
  -4.830456e+01  -5.808363e+01
  -1.636098e+01  -8.208121e+01
   2.114595e+01  -3.459340e+01
   3.211106e+01   2.082669e+01
   5.730953e+01   6.689921e+01
   2.560681e+01   1.568436e-01
   2.920781e+01   1.883458e+01
  -4.149719e+01   4.696558e+00
   8.140338e+00   4.406591e+01
  -2.085206e+00   7.252823e+01
  -3.920147e+01  -3.776375e+01
  -4.327238e+01  -8.197011e+01
  -1.344456e+01  -3.969809e+01
   5.444179e+01  -1.514990e+01
   7.131774e+01   5.197135e+01
  -1.796021e+00   1.529879e+01
  -5.339089e+01   1.429749e+01
  -1.138377e+02  -3.539156e+01
  -4.733207e+01  -2.825406e+01
   4.504264e+01  -5.950034e+01
   6.416432e+01  -1.834925e+01
   5.274033e+01   1.215533e+00
  -3.797449e+01   1.586798e+01
   1.826561e+01  -2.467503e+01
   1.033255e+01  -2.664691e+01
   6.778139e+01  -2.695997e+01
