
 $NMID
 id='ANONYMOUS ', fmtdat='(2E16.6)'
 volume=1.0
 tramp=1.0
 $END
   1.564995e+03  -1.020146e+02
   1.251115e+03   8.027728e+02
   2.768680e+02   1.353345e+03
  -6.204297e+02   1.093977e+03
  -6.780770e+02   3.592869e+02
  -1.767704e+02  -3.588345e+01
   1.082686e+02   1.415534e+01
   4.416406e+01   2.990487e+02
  -2.642498e+02   4.232180e+02
  -4.281912e+02   1.694830e+02
  -3.600525e+02  -2.536122e+02
  -1.188780e+02  -4.087053e+02
   1.489826e+02  -1.741321e+02
   1.836082e+02   1.736094e+02
  -1.983106e+01   3.285953e+02
  -2.277522e+02   6.020517e+01
  -2.911947e+02  -2.750464e+02
   3.350877e+01  -4.604292e+02
   3.340649e+02  -2.367024e+02
   3.800349e+02   1.032679e+02
   1.689370e+02   2.418613e+02
  -5.247072e+01   1.691976e+02
  -4.535072e+01   5.837552e+01
   1.249796e+02   7.933805e+01
   1.842092e+02   1.922551e+02
  -7.357036e+01   2.723326e+02
  -3.107244e+02   8.067929e+01
  -3.288721e+02  -1.681178e+02
  -8.785307e+01  -2.348856e+02
   1.875671e+02  -1.045173e+02
   2.637165e+02   9.916194e+01
   9.677271e+01   2.499678e+02
  -1.974412e+02   2.598327e+02
  -3.458767e+02   9.102483e+01
  -2.414525e+02  -1.281222e+02
  -6.151214e+01  -1.783445e+02
   2.056379e+00  -8.468675e+01
  -5.248403e+01   4.800361e+01
  -1.259401e+02   2.340919e+01
  -6.283472e+01  -9.387794e+01
   7.009758e+01  -2.745001e+02
   1.681277e+02  -2.575738e+02
   1.636962e+02  -3.651973e+00
   5.682140e+01   1.555005e+02
  -7.373309e+01   8.022056e+01
  -6.008706e+01  -1.229594e+02
   1.068748e+02  -2.025265e+02
   2.806842e+02  -5.150490e+01
   2.814880e+02   2.294479e+02
   7.292144e+01   3.425398e+02
  -2.069689e+02   2.075089e+02
  -3.103837e+02  -1.237950e+01
  -2.174716e+02  -9.622523e+01
  -1.309894e+00  -1.273163e+02
   1.310716e+02  -7.138153e+01
   9.491747e+01   6.263384e+00
   4.961724e+00   1.938754e-01
  -2.586464e+01  -1.841425e+01
   5.208044e+01  -3.982328e+01
   1.361858e+02   4.935056e+01
   1.178791e+02   1.566054e+02
  -2.721328e+01   2.413290e+02
  -2.258270e+02   1.780155e+02
  -2.406088e+02  -7.346854e+01
  -4.654916e+01  -2.804317e+02
   1.791952e+02  -2.794831e+02
   2.503667e+02  -7.184161e+01
   1.665847e+02   1.111219e+02
   5.140678e+01   2.253055e+02
  -1.614583e+01   1.967412e+02
   2.820275e+01   1.241827e+02
  -1.946156e+00   1.153909e+02
  -1.185563e+02   1.482648e+02
  -1.944577e+02   1.840814e+01
  -1.793839e+02  -1.303430e+02
  -2.498100e+01  -1.862727e+02
   8.151343e+01  -1.339982e+02
   1.446575e+02   1.777521e-02
   1.601398e+02   1.301430e+02
   1.719232e+01   1.963608e+02
  -1.534799e+02   6.396734e+01
  -2.080048e+02  -8.640427e+01
  -1.137572e+02  -1.818223e+02
   1.370677e+01  -1.886641e+02
   1.034319e+02  -1.227145e+02
   1.170674e+02  -6.471836e+01
   1.030121e+02  -3.990152e+01
   2.188121e+02  -7.331350e+01
   3.030241e+02   5.200424e+01
   2.270517e+02   2.391358e+02
  -1.297369e+01   3.437053e+02
  -2.787469e+02   2.572408e+02
  -3.488038e+02   8.743736e+01
  -2.235447e+02  -1.090730e+02
  -1.824397e+01  -1.756498e+02
   6.934490e+01  -1.099259e+02
  -1.512946e+00  -5.529018e+01
  -8.268172e+01  -1.118211e+01
  -8.527541e+01  -6.168794e+01
  -3.643149e+01  -1.264861e+02
   6.806125e+01  -6.346847e+01
   8.017703e+01  -2.975084e+01
   3.654827e+01   3.527721e+01
  -1.077783e+02   7.569253e-01
  -1.143182e+02  -1.469614e+02
   4.478436e+01  -2.527019e+02
   1.508887e+02  -1.660649e+02
   2.515460e+02   4.516535e+01
   1.527387e+02   1.711168e+02
   2.683221e+01   1.784228e+02
  -5.542263e+01   1.009750e+02
  -7.477232e+01  -3.548661e+01
  -1.347559e+01  -4.483855e+00
   1.188388e+01   3.646449e+01
  -3.412063e+01   4.155973e+01
  -8.044224e+01   6.171921e+01
  -7.726023e+01  -1.966891e+01
   1.239497e+01   1.836497e+01
   2.929028e+01   2.566256e+01
  -1.420258e+01   8.694371e+01
  -1.767853e+02   2.791929e+01
  -2.672241e+02  -5.305028e+01
  -1.657963e+02  -1.675023e+02
   3.472952e+00  -2.493569e+02
   1.741725e+02  -1.485782e+02
   1.960764e+02  -5.638059e+01
   8.093237e+01   5.812261e+01
   1.361804e+01   8.712365e+01
  -3.325849e+01  -3.792202e+01
   4.170687e+01  -9.653997e+01
   1.494816e+02  -1.456424e+01
   1.122269e+02   1.016091e+02
   3.677548e+01   1.600820e+02
  -7.297067e+01   9.237632e+01
  -6.637818e+01  -3.424899e+01
  -1.801112e+01  -8.329937e+01
   6.853629e+01   3.802973e+00
   2.196427e+01   1.345674e+02
  -9.114066e+01   1.177482e+02
  -1.626218e+02  -1.862177e+01
  -1.236392e+02  -1.255074e+02
   2.431765e+01  -1.291463e+02
   1.079224e+02  -9.221148e+01
   1.169202e+02  -1.110875e+01
  -5.701300e+00   7.580847e+01
  -2.744820e+01   2.987002e+01
  -7.165063e+01  -1.263180e+01
   1.167690e+01  -9.341694e+00
   4.936518e+01  -4.539249e+00
  -8.437808e+00   4.718970e+01
  -9.203218e+01   2.228913e+01
  -1.204566e+02  -5.640720e+01
  -7.334889e+00  -1.652554e+02
   8.886286e+01  -1.143231e+02
   1.681449e+02  -9.834369e+00
   1.346380e+02   8.634359e+01
   5.247409e+01   9.673912e+01
  -1.975276e+01   1.076658e+02
  -4.091403e+01  -8.196127e+00
   1.376280e+01  -5.409609e+00
   8.624044e+00   7.847427e+00
  -2.585418e+01   6.347489e+01
  -4.918758e+01   3.405387e+01
  -4.025641e+01  -1.122128e+01
   1.861694e+01  -7.465734e+01
   6.927355e+01  -6.398320e+01
   9.019874e+01   9.652411e+01
   2.167250e+01   9.167246e+01
  -1.367676e+02   6.497411e+01
  -1.857395e+02  -5.708770e+01
  -8.801265e+01  -1.730202e+02
   8.600487e+01  -1.674858e+02
   2.168237e+02  -5.002223e+01
   1.852799e+02   8.487408e+01
   5.781377e+01   1.111000e+02
  -5.108989e+01   1.025754e+02
  -5.066357e+01   3.210459e+01
  -1.246295e+01   7.925117e+01
  -3.001282e+01   9.415162e+01
  -9.474978e+01   3.192249e+01
  -1.105776e+02  -1.671684e+01
  -6.533550e+01  -1.294943e+02
  -2.762270e+01  -1.568916e+02
   9.555251e+01  -9.422685e+01
   1.151985e+02   1.706772e+01
   8.841754e+01   1.205552e+02
  -3.721074e+00   1.180368e+02
  -1.069872e+02   3.330530e+01
  -8.851376e+01  -3.745188e+01
   1.795792e+01  -7.159248e+01
   8.420664e+01  -1.538733e+01
  -7.370349e+00   3.413644e+01
  -7.087980e+01   3.233703e+01
  -8.048028e+01  -4.770810e+01
   2.483424e+01  -3.250970e+01
   1.205510e+02  -2.482481e+01
   9.216611e+01   4.925522e+01
   6.936019e+00   8.597626e+01
  -5.731796e+01   4.678719e+01
  -1.140823e+02  -1.944005e+01
  -2.531266e+01  -5.169171e+01
   3.106401e+01  -8.046685e+01
   5.845841e+01   5.524070e+01
   4.993001e+01   8.104509e+01
   1.616828e+01   8.771623e+01
  -5.326689e+01   2.829515e+01
  -6.028005e+01  -5.737468e+00
  -4.890818e+01  -3.496983e+00
  -4.874515e+01   1.449333e+01
  -8.514149e+01   2.376465e+00
  -6.373212e+01  -7.041626e+01
   3.898921e+01  -1.464765e+02
   1.009111e+02  -1.188253e+02
   1.739184e+02  -5.358965e+01
   9.431054e+01   7.982798e+01
  -9.132995e+00   9.680694e+01
  -6.332134e+01   8.168175e+01
  -2.924052e+01  -2.832657e+01
   4.963163e+01  -2.644240e+01
   8.752583e+01   5.600778e+01
   4.261199e+01   9.661362e+01
  -7.025659e+01   6.786424e+01
  -1.384965e+02   3.132862e+01
  -1.109628e+02  -3.891788e+01
  -9.303962e+00  -3.953254e+01
   3.398516e+01  -3.672520e+01
   2.703196e+01   1.096302e+01
  -3.606685e+01   1.585100e+01
  -4.651859e+01  -5.773731e+01
  -3.804544e+00  -7.310008e+01
   5.437324e+01  -1.148301e+02
   8.637029e+01  -4.312106e+01
   7.391093e+01   5.012470e+01
   1.036439e+00   1.383077e+02
  -3.930487e+01   8.950735e+01
  -8.524971e+01  -6.407781e+00
  -5.371131e+01  -8.656152e+01
   2.266463e+01  -8.598487e+01
   1.051759e+01  -1.358810e+00
  -3.633172e+00   4.829241e+01
   2.422185e+00  -3.625760e+01
   3.302133e+00  -3.945835e+01
   4.461403e+01  -1.706178e+01
   4.958012e+01   6.221214e+01
   3.010509e+01   2.602739e+01
  -7.849125e+01   5.504943e+00
  -8.525755e+01  -6.229310e+01
  -6.519789e+01  -8.935632e+01
   2.250706e+01  -3.973053e+01
   4.683722e+01  -3.615245e+01
   1.001380e+02   1.265518e+01
   2.768798e+01   2.922388e+01
  -2.528140e+01   4.799253e+01
  -2.945953e+01   4.275747e+01
  -1.861471e+01  -2.255856e+01
  -8.653009e+00   7.238965e+00
  -4.922850e+01   2.727403e+01
  -9.860636e+01  -5.378531e+00
  -2.571467e+01  -3.897355e+01
   7.213661e+01  -1.184534e+02
   1.272325e+02  -7.802865e+01
   6.129244e+01   4.274738e+00
   1.592328e+01   9.705212e+01
  -3.740508e+01   1.107016e+02
  -8.112673e+01   5.360076e+01
  -7.957140e+01  -3.766388e+01
  -3.389070e+01  -1.363733e+01
   2.667459e+01  -2.566341e+01
   8.794521e+00  -2.885320e+01
   1.715540e+01  -4.976623e+01
   2.744086e+01  -4.651085e+01
   1.778828e+01  -1.697202e+01
   9.455825e+01   8.353832e+00
   1.278027e+02   6.093090e+01
   4.084480e+01   7.891495e+01
  -5.469207e+01   2.814302e+01
  -1.012079e+02  -2.404959e+01
  -3.411935e+00  -2.516064e+01
   6.136236e+01  -1.296761e+01
   7.834831e+01   1.062411e+01
  -2.432494e+01   6.538733e+01
  -3.142109e+01   8.054770e+01
  -2.960376e+01   3.658884e+00
   1.527889e+01  -2.112410e+00
   9.528857e+00  -6.953401e+00
   8.686267e+00  -5.583634e+00
  -3.224335e+01   1.191558e+01
  -1.280097e+02   3.482867e+01
  -4.247153e+01  -9.581136e+00
   3.123506e+01  -4.248005e+01
   5.018856e+01  -4.199959e+01
   5.622802e+01  -2.380917e+01
   2.509286e+00   6.347759e+01
  -2.436678e+01   2.987900e+01
  -4.632584e+01  -1.515205e+01
  -3.916606e+01  -5.010526e+01
  -5.596981e+00  -2.498526e+01
   1.827220e+01  -1.316746e+01
   2.695664e+01  -2.324155e+01
   3.742089e+01   7.516724e+00
   2.605001e+00  -3.042809e+00
  -2.397002e+01   2.145905e+01
   1.740304e+01   4.899271e+01
   2.914659e+01   2.525523e+01
  -3.943203e+01   2.927957e+00
  -3.389746e+01  -6.244258e+01
  -2.666149e+00  -9.824474e+01
   3.099417e+01  -1.812270e+01
   7.385497e+01  -6.423511e+00
   3.374924e+01   1.483822e+00
  -3.004813e+01   3.588212e+01
  -5.245137e+01   4.310171e+01
  -3.822609e+01  -7.638559e+00
   6.848930e+00  -6.637689e+01
   2.934293e+01  -1.440817e+01
   5.648019e+01  -3.382178e+01
   1.499737e+01  -5.249995e+00
   1.500258e+01   1.447480e+01
   1.563312e+01  -1.599988e+01
   4.645960e+01  -1.186584e+01
