
 $NMID
 id='ANONYMOUS ', fmtdat='(2E16.6)'
 volume=1.0
 tramp=1.0
 $END
  -8.144974e+02  -4.375926e+01
  -4.997955e+02  -3.111458e+02
  -3.863106e+01  -4.822636e+02
   2.280039e+02  -4.196266e+02
   2.420749e+02  -2.240404e+02
   9.378650e+01  -4.587875e+01
  -2.594343e+01  -1.417012e+01
   5.102251e+01  -1.254232e+02
   8.043862e+01  -1.430565e+02
   1.558139e+02  -4.975069e+01
   1.355962e+02   8.847442e+01
   7.337448e+01   1.558406e+02
  -5.443092e+01   7.459966e+01
  -2.705985e+01  -6.021588e+01
   4.764397e+01  -8.076712e+01
   6.883218e+01  -5.056232e+00
   3.824542e+01   1.182266e+02
  -4.461463e+01   1.545796e+02
  -1.187276e+02   1.095961e+02
  -1.273534e+02   1.591837e+01
  -9.459744e+01  -9.524020e+01
   3.039702e+01  -9.203179e+01
   2.647737e+01  -7.444581e+01
  -4.107980e+01  -2.806080e+01
  -1.062005e+02  -8.922548e+01
   5.437371e+01  -1.143730e+02
   1.251633e+02  -3.366720e+01
   1.020828e+02   3.133301e+01
   7.057866e+01   5.461365e+01
  -6.017019e+01   2.829688e+01
  -1.086661e+02  -8.803046e+01
  -4.223257e+01  -1.075670e+02
   5.376814e+01  -1.053728e+02
   1.490674e+02  -6.791979e+01
   1.129146e+02   1.794694e+01
   6.275676e+01   1.023556e+02
   4.197923e+01   4.562179e+01
   5.544371e+01  -3.299368e+01
   3.362354e+01  -2.985630e+01
   9.302968e+00   4.771768e+01
  -1.090421e+01   1.191724e+02
  -3.449001e+01   1.222426e+02
  -3.554201e+01   2.758306e+01
  -3.524882e+01  -3.398266e+01
   4.435018e+01  -6.688117e+00
   1.944053e+01   5.176887e+01
  -7.077765e+01   8.205623e+01
  -9.374084e+01  -7.572402e-01
  -1.290289e+02  -9.114592e+01
  -4.883246e+01  -1.193109e+02
   8.504302e+01  -2.947258e+01
   1.375393e+02   3.578409e+01
   1.044550e+02   5.193013e+01
   1.165632e+01   1.491817e+01
  -6.709325e+01   4.185951e+01
  -9.996959e+01   2.770524e+01
  -1.519301e+01   1.919781e+01
  -7.656784e+00   1.138966e+01
  -3.463904e+01   1.367332e+01
  -3.592903e+01  -3.041350e+01
   2.378695e+00  -9.471857e+01
   1.953941e+00  -9.958451e+01
   1.158839e+02  -7.362497e+01
   9.552663e+01   2.172347e+01
  -2.444138e+01   1.072844e+02
  -7.290667e+01   1.035205e+02
  -6.359013e+01   2.678251e+01
  -5.988615e+01  -6.113482e+01
   8.401377e-01  -9.145170e+01
   1.423195e+01  -4.808336e+01
  -1.703257e+01  -3.348270e+01
  -1.026653e+01  -1.924634e+01
   4.367526e+01  -3.516227e+01
   9.929309e+01   2.817615e+01
   7.419643e+01   6.720232e+01
   3.525564e+01   5.934222e+01
  -3.493483e+01   4.010127e+01
  -4.964554e+01  -1.873975e+00
  -5.068362e+01  -8.825633e+01
   3.658278e+01  -7.322148e+01
   9.458205e+01   5.484312e+00
   9.651785e+01   2.390423e+01
   6.718410e+01   6.960979e+01
  -3.417052e+01   7.261752e+01
  -4.323517e+01   2.716908e+01
   2.650345e+00   2.339384e+01
  -1.530757e+01  -9.628862e-01
  -7.893551e+01   7.052654e+00
  -1.040174e+02   2.718897e+01
  -6.856889e+01  -6.423288e+01
   2.825185e+00  -1.119218e+02
   5.333978e+01  -1.494041e+02
   1.317169e+02  -7.832721e+01
   6.217030e+01   1.636206e+01
   8.760409e+00   4.516081e+01
  -5.737828e+00   4.872488e+01
   2.477282e+01  -1.960531e+01
   1.786360e+01   2.680261e+00
   2.012187e+01   5.044389e+00
  -2.159483e+01   2.713636e+01
  -6.599883e+01  -1.719695e+01
  -1.089510e+01  -4.327046e+01
  -5.110589e+00  -7.845425e+01
   7.367806e+01  -1.726110e+01
   6.719841e+01   9.161180e+01
  -1.379416e+01   1.307303e+02
  -3.773149e+01   1.096436e+02
  -1.059858e+02  -6.376256e+00
  -7.591784e+01  -7.829663e+01
  -2.304985e+01  -5.753555e+01
   2.692072e+01  -3.876411e+01
   4.786123e+01   8.627680e+00
   1.611695e+01   1.394485e+01
  -3.613862e+01  -5.017947e+01
   3.420104e+01  -4.082090e+01
   2.926153e+01  -1.327584e+01
   1.465261e+01   1.956505e+01
  -1.532020e+01   3.501601e+01
  -2.847073e+01  -3.612999e+01
  -6.120625e+00  -6.373900e+01
   5.696112e+01  -2.427158e+01
   1.011216e+02   5.282887e+01
   4.813623e+01   7.021105e+01
  -4.361217e-01   8.132029e+01
  -6.018994e+01   6.389877e+01
  -5.525330e+01   2.903912e+01
  -2.820175e+01  -1.899584e+01
   5.368769e+01   1.424844e+01
  -7.059905e+00   2.152854e+01
  -3.447467e+01  -2.497880e+00
  -6.565237e+01   1.188354e+01
  -7.777159e+01  -2.399655e+01
  -2.758591e+01  -4.484970e+01
   3.898481e+01  -4.501627e+01
   1.898818e+01  -1.075299e+01
   2.570303e+01  -3.673422e+00
  -1.652700e+01  -3.329744e+01
  -2.204670e+01  -5.834822e+01
   2.744833e+01  -4.564804e+01
   6.516350e+01  -3.140537e+01
   6.348768e+01   4.326309e+01
   1.478641e+01   8.671572e+01
  -4.491172e+01   3.312633e+01
  -2.274835e+01   5.882123e+01
  -1.683358e+01  -2.063235e+01
   5.311234e+00  -9.314844e+00
  -4.423189e-01   1.233627e+01
  -3.087348e+01   6.280152e+01
  -3.832732e+01   5.345239e+01
  -3.395990e+01  -2.160668e+01
   3.878753e+01  -5.849368e+00
   4.203145e+01   4.892101e+01
  -5.915587e+01   8.108209e+01
  -4.403734e+01   3.909485e+01
  -6.320145e+01   2.794201e+00
  -8.471024e+01  -3.712221e+01
   1.878301e+01  -7.986482e+01
   1.944746e+01  -8.069704e+01
   6.137035e+01   1.548831e+01
   4.563901e+01   2.744503e+01
   1.538210e+01   9.604323e+00
   1.100072e+01  -2.833276e+01
   5.054833e+01  -1.770542e+00
   4.012309e+01   1.603551e+01
  -4.628614e+01   1.694648e+01
  -5.546964e+01   1.981790e+01
  -5.563602e+01   1.267083e+01
  -4.455108e+00  -6.750573e+01
   4.513608e+01  -5.928531e+01
   4.221000e+01  -2.925766e+01
   2.016065e+00   2.880501e+01
  -2.901843e+00   4.020329e+01
  -7.024969e+01   3.724673e+01
  -7.607902e+01  -2.314108e+01
  -5.806801e+01  -4.642751e+01
   5.282205e+01  -6.143988e+01
   1.442963e+01  -6.263204e+01
   4.128851e+01  -3.351508e+01
   2.407001e+01  -2.414497e+01
   1.917826e+01  -2.175949e+01
   4.477189e+01   1.049449e+01
   2.800049e+01   4.307051e+01
   2.920056e+01   9.062267e+01
  -1.273322e+00   8.579378e+01
  -6.632598e+01  -5.819462e+00
  -2.936497e+01  -4.113081e+01
   1.826141e+01  -3.159562e+01
   5.745945e+01  -3.683790e+01
   2.452155e+01   3.217634e+01
  -4.394080e+00   1.126738e+01
  -8.954572e+00  -3.236849e+01
   5.309796e+01  -3.744176e+01
   3.914710e+01   3.883524e+01
   2.520685e+01   2.001251e+01
  -3.041807e+01   3.277723e+01
  -7.208658e+01  -1.525996e+01
  -6.928032e+01  -2.577093e+01
   3.346824e+00  -1.618141e+01
   9.246290e+00  -1.093533e+01
   7.633157e+01   8.788659e+00
   1.627480e+01   2.824287e+01
  -1.861925e+01  -7.818305e+00
  -7.349381e+00  -2.991552e+01
  -1.337715e+01  -3.678677e+01
   8.283052e+00   7.764121e+00
   3.174663e+01  -1.183533e+01
  -1.440809e+00   2.611745e+01
   2.949088e+01   1.733388e+01
   9.671695e+00  -4.290316e+00
  -2.085332e+01  -2.481024e+01
  -2.945913e+00  -1.829521e+00
   2.048877e+01   2.617959e+01
  -9.947282e+00   7.407806e+01
  -4.154852e+01   3.317395e+01
  -3.550507e+01  -1.794054e+00
   1.829904e+01  -8.519041e+01
   2.199090e+01  -2.370901e+01
   3.411702e+01  -7.448418e+00
   1.578239e+01   2.458601e+01
  -1.388944e+01   2.504509e+01
  -1.375939e+01   1.469471e+00
  -3.065303e+00  -1.762523e+01
   6.443431e+01  -1.761870e+00
   4.613030e+01   1.159260e+01
   3.597395e+01   4.423559e+01
  -1.584990e+01   2.531614e+01
  -1.498973e+01   1.736754e+01
   1.122659e+01  -8.896811e-01
  -2.721878e+01   1.808570e+01
  -4.894470e+01   5.360533e+01
  -3.484088e+01   6.695678e+01
  -4.869009e+01  -1.125812e+01
  -4.591872e+01  -5.979675e+01
  -3.990901e+01  -5.370839e+01
   3.966447e+01  -5.588095e+01
   4.216364e+01   1.337711e+01
   4.330770e+01   5.327257e+01
  -2.451646e+01   3.476992e+01
  -1.240919e+00   2.419044e+01
  -4.381926e+01   4.410603e+00
  -5.719440e+01   1.177355e+01
  -8.706317e+00   7.483120e+00
   2.816779e+01  -3.180059e+01
  -2.065972e+01  -1.984800e+01
   3.607624e+01  -2.760991e+01
   3.828046e+01   1.314448e+01
   2.674715e+01   3.998408e+01
   2.504614e+00   2.861462e+01
  -5.593204e+00   2.094517e+01
  -2.492615e+01  -1.828310e+01
   3.912280e+00   9.290146e+00
  -1.850792e+01  -1.456804e+00
   1.991439e+01  -4.402553e+00
   8.770415e+00  -2.305617e+01
   1.387065e+01  -3.410446e+01
   2.528843e+00  -9.775708e+00
   4.225228e+01   3.304536e+01
   5.420953e+00   2.610282e+01
   4.763552e+01   2.276086e+01
  -3.939118e+01   5.680252e+01
  -8.093652e+01   3.098009e+01
  -5.562624e+01   3.197787e+00
  -3.178961e+01  -5.628062e+01
  -9.419171e-01  -5.423957e+01
   3.466850e+01  -4.857884e+01
   4.477012e+01  -4.981665e+00
   2.496203e+01   9.367113e+00
  -6.571183e+00   2.733610e+01
  -8.284869e+00  -7.777405e+00
   1.160822e+01   4.485580e+01
  -8.718056e-01  -7.180429e+00
  -5.228717e+01   2.688442e+01
  -2.994693e+01   6.055181e+00
   2.448079e+01  -2.720831e+01
  -4.483070e+00  -4.107672e+01
   1.008701e+01   1.429750e+01
   4.498038e+01   5.120278e+01
   6.414423e+00   5.814013e+01
   2.847498e+00  -2.074520e+01
  -4.182898e+01   3.978395e+00
  -7.241286e+00  -1.316335e+01
  -3.578294e+01  -3.832768e+00
   1.455415e+01   8.321136e+00
  -2.574771e+01  -3.188876e+00
  -2.972778e+01  -2.303588e+01
  -1.466862e+01  -1.218965e+01
  -1.828156e+00  -5.565435e+01
   1.516082e+01  -4.232947e+00
  -5.639706e+00   5.887839e+00
  -1.035020e+01   7.492457e+00
  -8.300620e+00   4.536124e+01
  -2.402288e+01   1.694591e+00
  -3.730719e+00  -2.075904e+01
   2.879221e+01  -1.168113e+01
   1.141168e+01   3.699947e+00
  -2.679783e+00   1.238156e+01
  -6.078715e+00   3.213978e+01
   3.550925e+01   3.881657e-01
  -9.882114e+00   3.727258e+01
  -1.177667e+01   1.778628e+01
   1.077628e+01   5.041705e+01
  -1.926897e+01   2.633951e+01
   1.112123e+01  -8.335263e+00
  -3.458278e+00  -4.213496e+01
  -1.817577e+01   1.219629e+01
   1.611086e+01   1.396818e+01
   1.925993e+01   1.556602e+01
  -1.698098e+00  -1.953025e+00
  -3.451655e+01  -2.891681e+01
  -3.622904e+00   7.061647e-02
  -2.425967e+01  -1.865520e+01
   5.328148e+01  -2.359393e+00
   3.481898e+01   2.035342e+01
   2.427166e+01   3.460078e+01
  -2.577950e+01   2.422982e+01
  -3.170628e+00   2.235766e+01
  -1.608652e+01   4.455932e+00
   3.719179e+01   6.570192e+00
  -2.477414e+01   1.593556e+01
   4.225805e+00   7.342341e+00
