
 $NMID
 id='ANONYMOUS ', fmtdat='(2E16.6)'
 volume=1.0
 tramp=1.0
 $END
   3.580748e+03  -9.754828e+01
   2.388380e+03   2.175704e+03
  -5.689326e+02   2.686763e+03
  -1.968811e+03   7.102396e+02
  -8.182233e+02  -6.700784e+02
   7.056164e+02  -3.761053e+02
   8.321908e+02   4.425452e+02
   1.038520e+02   9.892482e+02
  -7.035267e+02   7.337543e+02
  -9.345772e+02   6.385510e+01
  -3.667314e+02  -7.284975e+02
   2.553301e+02  -6.798314e+02
   5.649649e+02  -6.298948e+01
   2.969347e+02   6.897058e+02
  -2.432066e+02   7.600338e+02
  -5.487704e+02   4.015318e+01
  -2.090959e+02  -6.385776e+02
   3.137551e+02  -6.333874e+02
   4.893561e+02  -9.446133e+01
   4.346500e+02   3.613797e+02
  -3.511086e+01   3.541036e+02
  -2.265889e+02   2.353081e+02
  -1.783235e+02  -1.685482e+01
   1.656017e+02  -1.604351e+02
   4.288302e+02   1.259076e+02
   2.189147e+02   4.093276e+02
  -4.389460e+02   3.795731e+02
  -8.718957e+02  -1.075470e+02
  -4.383770e+02  -5.750201e+02
   4.311985e+02  -5.515974e+02
   7.209522e+02  -1.256832e+01
   3.397782e+02   5.373754e+02
  -2.717143e+02   4.724969e+02
  -5.580723e+02   1.943512e+02
  -4.173924e+02  -2.101762e+02
  -4.845328e+01  -4.150730e+02
   2.589779e+02  -2.201239e+02
   1.538626e+02   2.351278e+02
  -1.832445e+02   3.924688e+02
  -4.307682e+02  -8.559558e+01
  -1.852526e+02  -6.455838e+02
   3.727927e+02  -5.977835e+02
   5.784310e+02   1.958924e+01
   2.336114e+02   6.031443e+02
  -3.262025e+02   3.068013e+02
  -3.948720e+02  -3.344206e+02
   1.025502e+02  -5.415447e+02
   5.053740e+02  -1.296064e+02
   5.439523e+02   3.756138e+02
   1.544481e+02   5.776081e+02
  -3.892757e+02   3.066536e+02
  -5.570809e+02  -1.309938e+02
  -3.252107e+02  -4.131472e+02
   2.547800e+02  -3.390743e+02
   4.578198e+02  -7.047451e+01
   2.594694e+02   2.125624e+02
  -1.207897e+02   9.994931e+01
  -1.304708e+02  -1.130712e+02
   1.373272e+02  -2.202015e+02
   3.325960e+02   1.336259e+02
   1.430405e+02   2.849415e+02
  -2.190944e+02   2.187359e+02
  -4.128619e+02   8.364536e+01
  -1.907340e+02  -1.378469e+02
   4.555173e+01  -2.444634e+02
   2.098085e+02  -2.907604e+02
   3.295851e+02  -1.699507e+02
   2.628359e+02   1.636606e+02
   2.998529e+01   3.894773e+02
  -1.376518e+02   2.706083e+02
  -7.751740e+01   8.613000e+01
   3.414374e+01   1.043535e-01
  -7.332187e+00   1.026164e+02
  -1.889678e+02   1.275091e+02
  -2.485663e+02  -2.401893e+01
  -2.033798e+02  -2.056653e+02
   6.852877e+01  -2.723517e+02
   1.970299e+02  -6.752616e+01
   2.207218e+02   2.785916e+02
  -3.107844e+01   3.059763e+02
  -3.007377e+02   1.100295e+02
  -3.404870e+02  -1.796347e+02
  -1.727706e+02  -3.296093e+02
   1.176463e+02  -2.846027e+02
   2.083118e+02  -1.003837e+02
   1.556871e+02   4.910187e+01
   2.684807e+01  -2.043665e+01
   1.662442e+02  -5.447643e+01
   3.271162e+02  -3.504901e+00
   3.124822e+02   2.222541e+02
   3.550109e+01   3.821094e+02
  -3.207682e+02   4.108816e+02
  -4.777869e+02   1.927984e+02
  -2.591846e+02  -1.179478e+02
  -3.073245e+01  -2.783903e+02
   1.546739e+02  -2.117450e+02
   3.442760e+01  -2.618321e+01
  -9.587528e+01   6.452118e+01
  -1.740372e+02  -4.944570e+01
  -3.520718e+01  -2.137102e+02
   1.238914e+02  -2.043911e+02
   1.585834e+02   1.526019e+01
   1.365061e-01   1.755935e+02
  -1.690379e+02   6.341337e+01
  -1.435434e+02  -2.628448e+02
   2.736397e+01  -3.488255e+02
   1.943367e+02  -2.036011e+02
   2.788893e+02   3.734473e+01
   2.623492e+02   1.838588e+02
   1.277334e+02   2.591742e+02
  -5.946089e+01   1.227261e+02
  -1.630332e+02   1.183842e+01
  -6.140642e+01  -7.913624e+01
   2.876628e+01   6.575617e+00
   4.312793e+01   1.604901e+02
  -1.164253e+02   9.320047e+01
  -2.119441e+02  -5.210511e+01
  -4.547763e+01  -4.466302e+01
   7.815141e+01  -3.607276e+01
   2.005912e-01   7.531831e+01
  -1.438928e+02   7.786429e+01
  -2.571801e+02  -9.743207e+00
  -2.440197e+02  -1.771420e+02
  -3.883597e+01  -2.391072e+02
   1.787329e+02  -2.338403e+02
   2.577460e+02  -9.145188e+01
   1.818893e+02   7.555294e+01
  -8.388164e+01   1.483841e+02
  -1.050893e+02  -1.278286e+01
   5.359700e+00  -1.558889e+02
   1.506900e+02  -3.702313e+01
   1.823511e+02   1.083933e+02
   5.175496e+01   1.574639e+02
  -1.407567e+02   1.597605e+02
  -1.641802e+02   2.023492e+01
  -5.674562e+01  -4.727444e+01
   4.756261e+01   3.778400e+01
   5.756443e+01   8.274560e+01
  -9.211963e+01   7.069428e+01
  -1.569922e+02   1.565991e+01
  -1.621577e+02  -7.385527e+01
   5.359442e+00  -1.900014e+02
   1.745111e+02  -9.396762e+01
   2.224293e+02  -2.816171e+01
   1.016779e+01   1.189242e+02
  -1.244535e+02   1.256316e+02
  -8.945815e+01   2.429077e+01
  -2.118951e+01  -3.705411e+01
  -8.821364e+00  -1.841432e+00
  -1.740907e+01   5.956582e+00
  -5.673162e+01  -7.135036e+01
  -4.524545e+01  -8.709123e+01
   3.609127e+01  -1.423734e+02
   1.548695e+02  -1.510571e+02
   1.859262e+02  -6.802088e+01
   1.391007e+02   9.074720e+01
   1.246093e+01   2.597288e+02
  -1.224120e+02   2.169348e+02
  -1.501028e+02   2.194138e+01
  -7.361883e+01  -7.296678e+01
  -1.967939e+01   4.619206e+00
  -4.785486e+01   7.607784e+01
  -1.154020e+02  -2.611521e+01
  -5.132099e+01  -6.555621e+01
   4.354973e+01  -7.969750e+01
   8.932791e+01  -4.153170e+01
   7.468875e+01   2.390494e+01
  -2.338154e+01   7.159628e+01
  -1.314668e+02   7.791358e+01
  -1.707746e+02  -3.736858e+01
  -1.279589e+02  -2.129204e+02
   9.191369e+01  -2.058584e+02
   2.437959e+02  -8.539174e+01
   2.231679e+02   1.269981e+02
   7.943950e+01   1.859653e+02
  -5.668119e+01   1.612814e+02
  -7.942882e+01   4.148717e+01
  -8.425253e+01   6.631944e+01
  -4.606381e+01   2.918435e+01
  -7.028929e+01   5.533110e+01
  -1.078309e+02  -2.401216e+01
  -6.766697e+01  -1.649217e+02
  -2.185510e+01  -1.727048e+02
   9.598540e+01  -2.001255e+02
   1.721469e+02  -3.612910e+01
   1.409365e+02   1.042844e+02
  -3.222454e+00   1.573769e+02
  -3.017595e+01   1.044187e+02
  -1.281305e+02   9.392785e+00
   2.383669e+01  -4.533648e+01
   5.505880e+01  -5.989849e+01
  -2.116871e+00  -2.129637e+01
  -3.334706e+01  -2.642584e+01
  -1.027970e+01  -4.217037e+01
   1.034136e+02   1.427846e+01
   1.065504e+02  -2.500463e+01
   1.066271e+02   2.213917e+01
   2.534590e+01   4.519221e+01
  -9.998485e+01   1.254268e+02
  -1.640873e+02  -2.085739e+01
  -5.071193e+01  -2.573885e+01
  -1.465624e+01  -3.233533e+01
   8.960886e+01   8.598593e+00
   1.376270e+01   2.832664e+01
  -3.971330e+01   5.408132e+01
  -2.613801e+01  -2.369200e+01
  -4.740142e+01  -2.530429e+01
  -8.736243e+00  -2.568788e+00
  -3.644361e+01   2.011427e-01
  -3.935550e+01   2.109335e+01
  -1.801069e+00  -6.527791e+01
   5.261878e+00  -1.458927e+02
   8.027145e+01  -1.488446e+02
   2.030534e+02  -5.061858e+00
   1.800065e+02   1.157604e+02
   4.030093e+01   1.482913e+02
  -9.481985e+01   5.495940e+01
  -4.929055e+01   9.202557e+00
   5.285595e+01   4.391891e+00
   1.405015e+02   1.256905e+01
   4.417961e+01   9.799040e+01
  -9.767826e+01   1.202304e+02
  -1.763255e+02   6.354073e+01
  -1.592002e+02  -3.343993e+01
   1.889698e-01  -8.909120e+01
   9.097221e+01  -1.136124e+02
   6.198403e+01  -4.530282e+01
  -1.676984e+01   3.181249e+01
  -1.029998e+02  -3.544494e+01
  -3.554832e+01  -9.923977e+01
   1.082448e+02  -1.751280e+02
   1.196648e+02  -3.458807e+01
   1.240285e+02   6.575144e+01
   1.618658e+01   1.241905e+02
  -6.219027e+01   9.321905e+01
  -1.025735e+02   5.673048e+00
  -1.014081e+02  -9.673287e+01
   3.921043e+01  -9.602879e+01
   6.905592e+01  -1.716671e+01
   8.324086e+01   3.370303e+01
   2.503126e+01   4.238565e+01
   1.990071e+01   2.588781e+01
  -5.471622e+00   4.082313e+01
   1.637583e+01   6.816516e+01
   4.199708e+01   1.315723e+02
  -4.274194e+01   1.789855e+01
  -1.042211e+02  -1.565231e+01
  -1.115956e+02  -8.172839e+01
   1.377273e+01  -7.231161e+01
   4.618778e+01  -2.958095e+01
   7.201490e+01  -1.269204e+01
  -3.974033e+00   1.929941e+01
   1.117180e+01   1.633476e+01
  -5.387343e+01   1.201557e+01
  -2.789608e+01   1.756134e+01
   1.038845e+01   2.192738e+01
  -6.384930e+01  -3.091699e+01
  -1.077613e+02  -2.215462e+01
  -3.600207e+01  -7.817801e+01
   5.215351e+01  -1.467483e+02
   2.190668e+02  -8.729193e+01
   1.868425e+02   5.805494e+01
   2.535994e+01   1.663292e+02
  -6.304065e+01   1.259639e+02
  -8.857439e+01   6.040055e+01
  -7.731234e+01   5.506350e+00
  -1.687196e+01  -3.750346e+01
   1.443813e+01  -9.499042e+00
  -7.708524e+00   9.037263e+00
  -7.439706e+01  -2.958756e+01
  -6.285768e+01  -9.123450e+01
   8.917763e+00  -6.517179e+01
   6.954183e+01  -5.701068e+00
   1.661360e+02   7.233283e+01
   2.175697e+01   7.844283e+01
  -6.394414e+01   8.019914e+00
  -8.786306e+01  -8.919415e+01
  -4.420911e+01  -9.926861e+01
   9.352297e+01  -4.415426e+01
   1.189776e+02   3.489605e+01
   2.807973e+01   2.956928e+01
  -5.234069e+01   5.233151e+01
  -7.862720e+01  -4.138335e+00
   3.462715e+00   1.308265e+01
   1.038715e+02  -3.204704e+01
  -5.818068e+00   8.708647e+01
  -7.530253e+01   8.411138e+01
  -1.633451e+02   5.457748e+01
  -4.707735e+01   5.845997e+00
  -1.701090e+01  -1.130090e+02
  -2.653814e+01  -9.581289e+01
   2.328860e+01  -4.726537e+01
   5.919373e+01   2.939433e+01
   1.541943e+00   7.382399e+01
  -4.578959e+00   5.235355e+01
  -2.355233e+01  -3.461645e+01
   4.820761e+00  -7.382552e+01
   2.837731e+01   2.305821e+01
   3.355830e+01   2.495713e+01
   2.793032e+01   2.706837e+01
   8.155839e+00  -2.665272e+01
  -2.479603e+01  -1.293289e+01
  -4.473660e+00   6.440490e+01
   7.869980e+00   5.674933e+01
   2.000548e+01  -7.227156e+00
  -3.199743e+01   1.190539e-01
   5.831518e+00  -3.737245e+01
   2.609103e+00   1.440498e+01
   8.807716e+01   1.915698e+01
   2.584728e+01   8.256121e+01
  -8.377126e+01   2.416013e+01
  -3.336284e+01  -5.865537e+01
  -9.532649e+01  -7.367777e+01
   3.151410e+01  -1.780732e+01
   5.004889e+01  -3.273585e+01
   3.622526e+01  -4.751269e+00
  -4.454643e+01  -1.288183e+01
  -3.352416e+01  -1.962107e+01
  -1.595652e+01   1.127458e+01
   7.380315e+01  -4.485752e+01
