
 $NMID
 id='ANONYMOUS ', fmtdat='(2E16.6)'
 volume=1.0
 tramp=1.0
 $END
   4.189581e+03  -3.274671e+01
   2.465242e+03   2.668087e+03
  -8.100105e+02   2.784566e+03
  -2.218470e+03   8.126778e+02
  -7.535706e+02  -5.068642e+02
   7.814757e+02  -4.840099e+02
   8.374497e+02   4.731006e+02
  -3.945067e+01   1.183299e+03
  -9.500266e+02   7.908112e+02
  -1.034274e+03   1.090788e+01
  -4.125937e+02  -9.303697e+02
   1.635308e+02  -8.397845e+02
   6.539690e+02  -1.265102e+02
   4.163044e+02   7.723122e+02
  -3.106404e+02   7.877820e+02
  -6.557964e+02  -3.274404e+01
  -2.652276e+02  -7.458560e+02
   3.401600e+02  -6.413501e+02
   6.317219e+02   4.469731e+01
   4.172254e+02   4.298436e+02
  -7.603434e+01   5.072356e+02
  -3.340860e+02   2.574733e+02
  -2.653100e+02   3.251190e+01
   1.090247e+02  -1.008254e+02
   3.966868e+02  -6.386505e+00
   2.401452e+02   4.030073e+02
  -4.657011e+02   4.936177e+02
  -9.934031e+02  -5.510831e+01
  -4.111007e+02  -6.340601e+02
   4.577386e+02  -4.650546e+02
   7.730362e+02   3.314045e+01
   3.436653e+02   4.836694e+02
  -2.682207e+02   4.711666e+02
  -5.972114e+02   2.314874e+02
  -4.192268e+02  -1.796194e+02
  -8.255186e+01  -4.816776e+02
   1.607198e+02  -3.029253e+02
   2.045096e+02   2.157772e+02
  -1.088221e+02   4.808638e+02
  -5.075248e+02   1.192612e+01
  -3.013582e+02  -7.679005e+02
   2.908966e+02  -7.160631e+02
   6.019801e+02  -2.051511e+01
   1.999425e+02   6.211222e+02
  -3.475163e+02   2.776709e+02
  -3.850761e+02  -4.033492e+02
   4.381047e+01  -6.320792e+02
   5.951839e+02  -1.450643e+02
   5.611522e+02   3.833639e+02
   2.020561e+02   6.262922e+02
  -3.845098e+02   3.167650e+02
  -6.391100e+02  -7.152959e+01
  -3.964829e+02  -3.884802e+02
   1.949814e+02  -3.879227e+02
   4.637472e+02  -8.412878e+01
   2.530728e+02   1.584560e+02
  -1.102932e+02   1.327405e+02
  -1.030144e+02  -1.981693e+02
   1.544136e+02  -1.880498e+02
   4.247051e+02   7.490094e+01
   1.760226e+02   3.522023e+02
  -2.215713e+02   2.666019e+02
  -3.304448e+02   9.296199e+01
  -1.554488e+02  -1.053537e+02
   4.481895e+01  -2.286285e+02
   1.846322e+02  -2.972270e+02
   3.300164e+02  -2.454289e+02
   3.095250e+02   1.738997e+02
   1.033625e+02   4.665093e+02
  -9.975843e+01   3.896806e+02
  -2.164667e+02   1.145227e+02
  -2.270914e+01   1.776677e+00
  -1.143692e+01   7.640840e+01
  -1.779373e+02   1.119472e+02
  -3.092088e+02  -3.814751e+01
  -1.889244e+02  -2.703114e+02
   4.203077e+01  -2.926828e+02
   2.455105e+02  -9.167483e+00
   2.479132e+02   2.382271e+02
   1.042404e+01   2.904877e+02
  -3.271515e+02   1.110379e+02
  -3.343445e+02  -1.593965e+02
  -1.981269e+02  -3.350388e+02
   1.421715e+02  -3.447574e+02
   2.489572e+02  -1.355516e+02
   1.468700e+02  -1.250028e+01
   1.075729e+02   5.206699e+01
   2.147966e+02  -4.327359e+01
   3.714173e+02   6.041814e+01
   3.454867e+02   2.993561e+02
  -8.512156e+00   4.533738e+02
  -3.671280e+02   4.492969e+02
  -4.880101e+02   1.848043e+02
  -3.203904e+02  -9.230217e+01
  -5.957166e+01  -3.034156e+02
   9.367693e+01  -2.255124e+02
   1.074268e+02  -1.666100e+01
  -1.329082e+02   1.071414e+02
  -2.262938e+02  -5.861895e+01
  -8.387032e+01  -2.489223e+02
   1.865206e+02  -1.743181e+02
   1.797848e+02   7.566305e+01
  -5.358385e+00   2.032866e+02
  -2.213029e+02   4.031436e+01
  -1.444907e+02  -2.741778e+02
   8.242001e+01  -3.855062e+02
   2.614333e+02  -2.010614e+02
   3.286060e+02   7.272229e+01
   2.582511e+02   2.716982e+02
   1.578132e+02   2.807308e+02
  -8.782156e+01   1.402072e+02
  -1.706629e+02   1.002194e+01
  -5.479433e+01  -5.554275e+01
   1.216969e+02   3.130392e+01
   1.222676e+02   1.719517e+02
  -1.403140e+02   1.721723e+02
  -2.339179e+02   2.529206e+01
  -1.445819e+02  -3.978255e+01
   7.639883e+01   9.781913e+00
   6.572816e+01   7.507735e+01
  -1.524742e+02   1.195147e+02
  -3.133301e+02   1.441561e+01
  -2.978930e+02  -1.792920e+02
  -9.271429e+01  -2.652406e+02
   1.993420e+02  -2.752015e+02
   2.926133e+02  -1.060216e+02
   2.091413e+02   7.961621e+01
  -3.417471e+01   1.732305e+02
  -9.535867e+01   3.644412e+01
  -2.446200e+01  -7.269398e+01
   1.916635e+02  -6.290832e+01
   2.483185e+02   9.243324e+01
   1.157939e+02   2.493141e+02
  -6.124798e+01   1.850346e+02
  -1.875147e+02   1.772176e+01
  -4.870816e+01   4.693925e+00
   4.159804e+01   5.064734e+01
   5.710063e+01   7.798163e+01
  -9.352839e+01   1.134681e+02
  -2.148165e+02   3.207264e+01
  -2.099143e+02  -1.265078e+02
   7.469286e+00  -2.565131e+02
   1.930511e+02  -1.276954e+02
   2.005410e+02   1.430951e+00
   5.671794e+01   1.474123e+02
  -4.876158e+01   1.289280e+02
  -8.027288e+01   5.926295e+01
  -6.628197e+01  -3.504027e+01
   2.875850e+01  -4.161042e+01
  -4.858517e+01   4.914663e+00
  -1.050249e+02  -1.332580e+01
  -1.107996e+02  -1.288712e+02
  -8.795013e+00  -1.796305e+02
   1.238830e+02  -1.375712e+02
   2.205855e+02  -3.313917e+01
   1.809257e+02   1.137944e+02
   7.994890e+01   2.304000e+02
  -8.752138e+01   2.177772e+02
  -1.127768e+02   3.329106e+01
  -7.972189e+01  -2.428371e+01
  -5.752388e+01  -1.976262e+01
  -4.973106e+01  -5.877321e+00
  -1.146134e+02  -1.198429e+01
  -8.560647e+01  -6.757741e+01
   6.443210e+01  -7.169244e+01
   7.442787e+01  -6.628794e+01
   4.819750e+01  -1.867574e+01
  -2.841378e+01   1.374343e+02
  -1.531088e+02   6.940279e+01
  -1.501423e+02  -1.584295e+01
  -1.419924e+02  -1.646292e+02
   9.821991e+01  -1.993546e+02
   2.575706e+02  -8.343189e+01
   2.492904e+02   1.136401e+02
   9.285662e+01   1.676933e+02
  -7.919347e+01   1.984340e+02
  -1.225120e+02   1.016224e+02
  -1.398837e+02   1.116351e+02
  -5.487255e+01   9.269688e+01
  -9.448259e+01   1.050441e+02
  -1.172054e+02  -4.567738e+01
  -1.353971e+02  -1.431521e+02
  -3.374942e+01  -2.385424e+02
   1.280091e+02  -1.855377e+02
   1.986608e+02   7.099518e+00
   1.222530e+02   1.344390e+02
  -1.773391e+01   1.562326e+02
  -8.455685e+01   5.807206e+01
  -1.238441e+02   2.578307e+01
  -2.212981e+01  -7.609880e+00
  -7.083130e+00   1.322025e+01
  -3.855816e+01  -2.550810e+01
  -7.761166e+01  -3.561961e+01
  -7.085998e+01  -7.699088e+01
   2.506185e+01  -8.056980e+01
   1.478713e+02   1.105565e+01
   1.763903e+02   3.113788e+01
   1.958972e+01   7.235010e+01
  -1.212736e+02   1.188810e+02
  -1.829379e+02   3.826284e+01
  -3.023505e+01  -8.902993e+00
   3.625204e+01   1.833135e+01
   6.343507e+01  -7.437060e+00
   6.450780e+01   4.964680e+01
  -3.675549e+01   2.855157e+01
  -1.962864e+01   7.149329e+01
  -3.111216e+01   1.161758e+01
  -5.963974e+01  -5.886494e+00
  -1.048302e+02  -5.027853e+01
  -6.074854e+01  -8.206308e+00
   1.629341e+01  -1.150014e+02
   4.072827e+01  -1.829596e+02
   8.059789e+01  -1.098336e+02
   1.397739e+02  -5.095643e-01
   1.234453e+02   1.375047e+02
  -7.609588e-03   1.283975e+02
  -7.846219e+01   5.682760e+01
  -1.848036e+01  -1.534545e+01
   3.835360e+01  -2.369448e+01
   1.180284e+02   3.776448e+01
   6.018936e+01   1.505915e+02
  -7.527401e+01   1.434972e+02
  -2.601923e+02   7.262573e+01
  -2.301899e+02  -2.886756e+01
   7.101886e+00  -8.863592e+01
   7.401126e+01  -2.870004e+01
   3.601228e+01  -2.715461e+01
  -5.018810e+01   6.767489e+01
  -1.084158e+02  -2.572035e+01
  -3.858963e+01  -8.412839e+01
   6.700436e+01  -1.235704e+02
   1.683131e+02  -2.443828e+01
   1.201510e+02   9.889129e+01
  -5.651281e+01   2.252991e+02
  -1.348567e+02   1.493873e+02
  -9.413860e+01  -3.490190e+01
  -5.051407e+01  -1.333841e+02
  -1.616760e+01  -7.697552e+01
   2.841114e+01   2.162753e+01
   9.741175e+01  -1.785712e+01
   2.114166e+01   9.774201e+00
  -1.064189e+00  -4.966127e+01
   4.731821e+01   1.295167e+01
   9.386372e+01   1.186054e+02
   3.203312e+01   1.496879e+02
  -3.972316e+01   2.694842e+01
  -1.425490e+02  -4.210176e+01
  -1.011905e+02  -1.070468e+02
  -5.295969e+00  -3.591410e+01
   1.003840e+02   8.206229e+00
   1.134136e+02  -6.000878e+00
   1.298003e+01   3.247031e+01
  -1.138689e+01   6.051005e+00
  -3.804528e+01  -6.828495e-01
   4.621484e+01   2.058526e+01
   1.648880e+01  -1.788084e+01
  -7.377471e+01  -1.386387e+01
  -8.979138e+01  -3.815634e+01
  -2.369497e+01  -9.760832e+01
   1.805934e+02  -1.403956e+02
   1.917252e+02  -6.426146e+01
   1.196658e+02   4.432822e+01
   5.413382e+01   1.263073e+02
  -8.342686e+01   1.618231e+02
  -1.487246e+02   8.251926e+01
  -1.205140e+02   1.122098e+01
  -1.092763e+01   5.186462e+00
   1.135582e+01   5.601701e+01
   3.319118e+00   6.992188e+01
  -9.258976e+01  -1.758438e+01
  -1.304709e+01  -1.145026e+02
   2.330579e+00  -8.706291e+01
   5.764485e+01   3.714340e+01
   8.717304e+01   1.267070e+02
   1.709921e+01   5.069687e+01
  -1.163772e+02   1.887926e+01
  -8.498002e+01  -6.164872e+01
  -5.212116e+01  -1.081424e+02
   6.988163e+01  -2.582367e+01
   8.310365e+01   5.314519e+01
   2.214096e+01   5.281534e+01
  -2.510124e+01   2.885734e+01
  -6.658112e+00   6.349109e+01
   1.396333e+01   9.401394e+00
   7.884465e+01  -1.193315e+01
   3.002269e+01   3.327893e+01
  -8.428140e+01   5.427213e+01
  -9.278495e+01   8.242705e+01
  -7.722800e+01  -5.774598e+01
   2.709892e+01  -1.373816e+02
   4.393786e+01  -2.043776e+01
   6.436466e+01   2.632564e+01
  -1.756579e+01   2.341290e+01
  -2.008630e+01   6.651011e+01
  -4.410282e+01  -6.358105e+01
  -3.395005e+01  -4.342771e+01
  -1.378948e+01  -2.271772e+01
   4.759877e+01   2.362754e+01
   6.537621e+01   5.083074e+01
  -8.408993e+00   2.545075e+01
  -3.977468e+01  -8.914120e+01
  -8.453423e+01  -3.455482e+00
  -4.007571e+01   1.584298e+01
  -2.282153e+01   4.084011e+01
  -1.279781e+01  -2.670281e+01
  -3.184849e+01  -1.543309e+01
  -1.863637e+01  -4.548998e+01
   6.110182e+01  -9.349930e+00
   3.718102e+01  -1.492221e+01
  -7.905953e+00   2.765965e+01
  -6.471345e+01  -1.363330e+01
  -1.285698e+02  -2.186260e+01
  -4.618743e+01  -3.337406e+01
   9.756612e+00  -2.017091e+01
   1.007898e+02  -1.954682e+01
   4.234943e+01   1.141180e+01
  -6.100694e+01   1.327750e+01
  -3.097736e+01   2.314012e+00
   2.138475e+01  -1.836214e+01
   1.188711e+02  -1.783007e+01
