
 $NMID
 id='ANONYMOUS ', fmtdat='(2E16.6)'
 volume=1.0
 tramp=1.0
 $END
  -3.112649e+03   9.897384e+01
  -2.320821e+03  -1.748811e+03
  -5.751733e+01  -2.382433e+03
   1.442111e+03  -1.380112e+03
   1.037418e+03  -3.236259e+01
  -4.303066e+01   1.877887e+02
  -4.831411e+02  -1.631992e+02
  -7.303350e+01  -6.479930e+02
   4.966840e+02  -6.421161e+02
   7.907357e+02  -5.830382e+01
   5.243493e+02   5.816853e+02
  -7.942074e+01   8.588384e+02
  -3.843118e+02   2.808089e+02
  -2.894089e+02  -5.376051e+02
   9.740650e+01  -6.574873e+02
   5.010672e+02  -5.533306e+01
   3.546556e+02   4.985766e+02
  -1.577878e+02   6.671456e+02
  -5.435574e+02   2.926579e+02
  -5.094884e+02  -2.791779e+02
  -1.303766e+02  -4.209742e+02
   2.018916e+02  -2.870564e+02
   1.267790e+02  -2.077814e+01
  -1.606456e+02   2.800398e+01
  -3.587496e+02  -3.003563e+02
   8.271261e+00  -5.006001e+02
   5.787649e+02  -2.274386e+02
   7.276525e+02   2.220499e+02
   2.866294e+02   4.566003e+02
  -3.539114e+02   3.194375e+02
  -5.581751e+02  -1.493754e+02
  -1.869570e+02  -4.548462e+02
   2.860266e+02  -4.210605e+02
   5.146668e+02  -1.451202e+02
   3.545411e+02   1.476483e+02
   7.338205e+01   3.341758e+02
  -1.130379e+02   1.640771e+02
   4.987635e+01  -1.239422e+02
   2.375387e+02  -2.100820e+02
   2.773351e+02   1.148807e+02
   9.497742e+01   6.274038e+02
  -2.797067e+02   5.242982e+02
  -4.410227e+02  -2.945610e+01
  -2.438859e+02  -4.359437e+02
   1.884942e+02  -1.784610e+02
   2.156611e+02   2.994430e+02
  -1.248777e+02   4.703036e+02
  -5.284164e+02   9.496236e+01
  -5.970124e+02  -4.686981e+02
  -1.610931e+02  -5.700579e+02
   3.155421e+02  -3.974583e+02
   6.038004e+02   6.689802e+01
   3.254876e+02   3.204009e+02
  -6.421352e+01   2.495536e+02
  -3.427170e+02   1.192535e+02
  -1.373681e+02  -6.465784e+01
   9.288496e+01   4.254933e+01
   1.176403e+02   1.248764e+02
  -7.431332e+01   8.950562e+01
  -2.774512e+02  -4.761880e+01
  -1.266499e+02  -2.126763e+02
   1.444752e+02  -2.297912e+02
   3.654818e+02  -1.067832e+02
   2.776022e+02   1.433048e+02
  -1.788132e+01   3.377999e+02
  -2.918134e+02   3.788034e+02
  -3.644867e+02   2.058743e+02
  -2.512078e+02  -2.043071e+02
  -5.896725e+01  -3.660005e+02
   8.352063e+01  -2.774359e+02
   7.773944e+01  -1.467397e+02
   5.179632e+01  -8.363362e+01
   1.560339e+02  -1.581795e+02
   3.063826e+02  -1.117836e+02
   3.164903e+02   9.911282e+01
   1.184777e+02   3.499060e+02
  -1.449779e+02   2.777327e+02
  -2.259535e+02  -1.634591e+01
  -1.979838e+02  -2.910370e+02
   2.760967e+01  -3.185503e+02
   2.566204e+02  -6.824466e+01
   3.150613e+02   1.881380e+02
   1.885294e+02   3.158089e+02
  -6.653745e+01   3.104962e+02
  -1.389784e+02   1.361439e+02
  -1.298708e+02   3.296861e+01
  -1.488228e+02   6.937329e+01
  -2.476635e+02   5.841195e+01
  -4.203686e+02  -7.233783e+01
  -3.474365e+02  -2.667297e+02
  -1.658867e+00  -4.808371e+02
   4.240270e+02  -4.189786e+02
   5.763155e+02  -1.536537e+02
   3.067323e+02   1.039325e+02
  -5.454635e+00   3.485639e+02
  -1.398858e+02   2.475960e+02
  -6.857024e+01   6.100237e+01
   3.764713e+01  -8.687920e+01
   1.590202e+02   2.854252e+01
  -2.537694e+00   1.345607e+02
  -1.265959e+02   5.697844e+01
  -6.866700e+01  -6.208389e+01
   5.931030e+01  -1.480512e+02
   2.102422e+02   1.196964e+01
   1.285475e+02   2.412810e+02
  -5.870452e+01   3.678079e+02
  -3.026705e+02   2.607055e+02
  -3.809862e+02  -1.209426e+02
  -3.274814e+02  -1.958112e+02
  -6.564421e+01  -2.460772e+02
   1.301655e+02  -1.554457e+02
   1.505789e+02  -3.152981e+01
   4.204941e+01   1.884753e+01
  -8.723208e+01  -9.180268e+01
  -8.842238e+00  -1.411974e+02
   1.247067e+02  -9.743894e+01
   1.787807e+02   3.780667e+01
   1.084646e+02   1.183353e+02
  -7.929189e+01   3.017159e+01
  -8.963875e+01  -1.617425e+02
   1.663045e+02  -1.434874e+02
   3.474142e+02  -1.345276e+00
   3.200165e+02   2.430205e+02
   5.011277e+01   3.130716e+02
  -2.664262e+02   2.919365e+02
  -3.133711e+02   1.029801e+02
  -1.618639e+02  -5.542681e+01
   5.327793e+01  -1.012583e+02
   9.374030e+01   1.230857e+01
  -1.904226e+01   7.860436e+01
  -1.577923e+02  -1.173037e+00
  -2.226711e+02  -1.167934e+02
  -6.211776e+01  -1.823994e+02
   1.064605e+02  -1.476020e+02
   1.400753e+02  -7.230456e+00
   5.743248e+01   5.017867e+01
  -6.861974e+01  -7.597754e+00
  -6.945334e+01  -1.155326e+02
   4.290014e+01  -1.245968e+02
   2.047752e+02  -9.361137e+00
   2.373332e+02   1.302903e+02
   4.550602e+01   2.244674e+02
  -1.989260e+02   1.549290e+02
  -1.703266e+02   4.990339e-01
  -3.331520e+01  -1.104947e+02
   5.118276e+01  -7.660295e+01
   1.123758e+02  -3.092020e+01
  -1.703588e+01   7.123831e+01
  -6.417047e+01  -1.634779e+01
  -7.606798e+01  -5.853701e+01
   5.595691e+01  -4.769168e+01
   8.707806e+01   5.840105e+01
  -5.055557e+00   1.509811e+02
  -1.594474e+02   1.595162e+02
  -2.606280e+02   5.917864e+00
  -1.913444e+02  -1.533039e+02
  -4.348472e+01  -2.158271e+02
   1.153049e+02  -1.755418e+02
   1.729996e+02  -2.585140e+01
   7.066475e+01   2.864692e+01
   7.995457e+01   4.154380e+01
   4.449697e+01   2.923459e+01
   9.561780e+01  -3.764309e+01
   8.006684e+01   5.865983e+01
  -1.534262e+01   1.122997e+02
  -1.133644e+02   1.124552e+02
  -1.441953e+02  -3.087443e+01
  -9.764779e+00  -1.358163e+02
   1.868693e+02  -1.190108e+02
   2.847657e+02   5.697304e+01
   1.509479e+02   2.557238e+02
  -1.121944e+02   2.363606e+02
  -2.940476e+02   1.533785e+02
  -2.140450e+02  -1.155872e+02
  -1.198290e+02  -1.858895e+02
   2.912507e+01  -1.501692e+02
   7.693036e+01  -9.298434e+01
   4.395123e+01  -9.293478e+01
   6.977113e+01  -1.034075e+02
   7.655902e+01  -4.606360e+01
   1.192841e+02   3.875628e+01
   7.926586e+01   1.761277e+02
  -3.097698e+01   2.574445e+02
  -1.087895e+02   2.034063e+02
  -2.301919e+02  -1.516395e+01
  -1.542352e+02  -1.556808e+02
  -1.859985e+01  -1.295158e+02
   1.142402e+02  -5.819707e+01
   1.067228e+02   4.495144e+01
   2.631503e+01   4.396390e+01
  -2.260272e+01   4.660907e+01
   4.299734e-01   1.152632e+01
   5.403935e+01   2.175878e+01
   8.274343e+01   2.876388e+01
  -5.217596e+01   2.307161e+01
  -2.081662e+02   1.235607e+01
  -1.606853e+02  -1.048454e+02
  -5.171158e+01  -1.259494e+02
   1.585016e+02  -6.019300e+01
   1.452760e+02  -1.956800e+01
   8.095701e+00   3.040197e+01
  -7.887995e+01   7.299682e+01
  -8.282627e+01  -4.957820e+01
  -4.662118e+01  -8.864446e+01
   2.782443e+01  -8.902550e+01
   9.617166e+01  -2.033924e+01
   4.944067e+01   9.382514e+01
  -3.596795e+00   2.366371e+00
   4.272858e+01  -5.458363e+01
   8.198865e+01  -4.585044e+01
   6.870193e+01   9.299227e+01
  -3.715289e+01   1.453823e+02
  -1.313791e+02   1.754958e+02
  -2.358783e+02   2.041173e+01
  -1.460256e+02  -1.222786e+02
   4.683230e+00  -1.641869e+02
   1.650520e+02  -5.332379e+01
   5.411147e+01   2.497780e+01
  -5.149527e+01   5.247762e+01
  -1.220010e+02  -2.404228e+01
  -5.810206e+01  -1.069169e+02
   6.512745e+01  -1.575107e+02
   1.977530e+02  -5.039087e+01
   1.344474e+02   6.782284e+01
   2.102792e+01   1.118802e+02
  -1.350979e+02   4.814447e+01
  -7.751662e+01  -4.914941e+01
   4.779768e+01  -4.648700e+01
   1.321517e+02   1.803578e+00
   4.121381e+01   1.279165e+02
  -6.521733e+01   1.740433e+02
  -1.470757e+02   9.065808e+01
  -1.684221e+02  -1.040475e+02
   2.393485e+01  -2.281846e+02
   1.122145e+02  -1.315492e+02
   1.051658e+02   2.058310e+01
   4.371602e+01   1.595754e+02
   3.496699e-01   1.070817e+02
  -1.400263e+01   3.499854e+00
  -3.883586e+01  -5.072829e+01
  -4.939046e+01  -9.326497e+00
   4.397637e+01   5.366510e+01
   8.126931e+00   1.201167e+01
  -4.275452e+01  -9.106710e+01
  -3.547525e+01  -1.574180e+02
   4.855744e+01  -8.597175e+01
   1.385697e+02   6.552362e+00
   1.063625e+02   1.322334e+02
   3.970567e+01   8.404855e+01
  -4.509333e+01   3.542001e+01
  -8.794428e+01   4.959097e+00
  -1.847933e+01  -4.648491e+01
   5.398092e+01  -6.315289e+01
   5.566885e+01   3.243816e+00
  -1.913114e+01   2.442121e-01
  -9.253600e+00   6.105097e+00
   6.494471e+01  -2.941646e+01
   7.247154e+01   1.025045e+01
   6.263383e+01   6.225037e+01
  -8.243431e+01   1.150713e+02
  -2.303807e+02   3.721351e+01
  -1.520135e+02  -3.418064e+01
  -3.855546e+01  -1.584002e+02
   8.261633e+01  -1.328806e+02
   1.385209e+02  -9.880394e+01
   5.315512e+01   4.966907e+00
   9.984659e+00   1.338737e+01
   1.975811e+01  -1.304958e+01
   1.137214e+01  -6.913913e+00
   1.391467e+01   4.176554e+01
  -6.487855e+00   1.020585e+02
  -4.038023e+01   8.966469e+01
  -7.477182e+01  -3.121592e+01
  -7.853649e+01  -1.252082e+02
  -6.189738e+01  -1.593824e+02
   8.282870e+01  -4.840131e+01
   1.322623e+02   8.997574e+01
   3.176471e+01   1.564907e+02
  -6.899496e+01   7.456383e+01
  -8.410823e+01   1.504799e+01
  -7.873362e+01  -4.803899e+01
   6.199481e+01  -7.974414e+01
   7.800844e+01  -2.432818e+01
   9.468956e-02   3.056098e+01
  -8.486681e+01   4.441983e+01
  -4.352486e+01  -5.243043e+01
   6.184998e+01  -6.385474e+01
   1.083588e+02  -3.518793e+01
   9.653859e+01   2.446675e+01
  -5.565421e+01   9.812677e+01
  -4.961191e+01   7.093935e+01
  -3.892451e+01   2.051017e+01
  -3.239932e+01  -3.647504e+01
   3.180316e+00  -4.673495e+01
   2.541943e+01   9.993289e+00
  -1.667207e+01   6.474340e+01
  -4.240601e+01   1.168807e+02
  -3.164545e+01  -2.459005e+01
  -3.657448e+01  -3.378746e+01
  -4.384349e+01  -2.951784e+01
  -1.553052e+01   4.685221e+01
   2.117069e+01   2.177052e+01
  -1.099125e+01  -4.946564e-01
  -2.822943e+01  -4.701895e+01
   4.295292e+01   6.213796e-02
   5.712593e+01   5.334421e+01
   3.089848e+01   5.157108e+01
  -2.710947e+01   2.844350e+01
  -3.956206e+01  -1.761302e+01
  -6.116467e+01  -6.835495e+01
   3.831950e+01  -4.649761e+01
   1.170671e+02  -3.250511e+01
   7.682237e+01   2.364537e+01
  -3.874146e+01   7.245860e+01
  -1.656650e+01   4.430794e+01
  -5.118531e+01  -4.269681e+01
   5.607689e+01  -8.584818e+00
   2.790927e+00  -8.288272e+00
  -4.881928e+01   1.426836e+01
  -7.122712e+01   7.171292e+00
