
 $NMID
 id='ANONYMOUS ', fmtdat='(2E16.6)'
 volume=1.0
 tramp=1.0
 $END
  -2.091435e+03  -6.390341e+01
  -1.534116e+03  -1.112009e+03
  -1.147329e+02  -1.720283e+03
   8.643904e+02  -1.167953e+03
   7.922477e+02  -3.925681e+02
   2.419946e+02   7.800809e+01
  -1.636418e+02  -5.463620e+01
  -6.419944e+01  -3.986699e+02
   3.089562e+02  -4.827510e+02
   5.038205e+02  -1.738970e+02
   3.634600e+02   3.354154e+02
   7.276178e+01   4.575283e+02
  -2.001204e+02   1.850545e+02
  -2.195194e+02  -3.142000e+02
   9.673412e+01  -4.179846e+02
   3.241735e+02  -7.446645e+01
   2.835530e+02   3.170764e+02
  -5.136994e+01   5.775179e+02
  -3.832668e+02   2.518294e+02
  -3.794894e+02  -1.281741e+02
  -6.462907e+01  -3.106034e+02
   9.675715e+01  -1.905094e+02
   7.363073e+01  -6.147656e+01
  -1.697204e+02  -1.227691e+02
  -1.551574e+02  -2.687891e+02
   9.181769e+01  -2.614587e+02
   4.047310e+02  -1.373766e+01
   4.494331e+02   2.276756e+02
   1.188719e+02   1.944141e+02
  -3.016337e+02   8.017753e+01
  -3.735975e+02  -1.304657e+02
  -1.073341e+02  -2.590462e+02
   3.097222e+02  -3.117043e+02
   3.995327e+02  -8.999133e+01
   2.066706e+02   1.370411e+02
   4.424795e+01   2.189532e+02
  -1.110297e+01   5.754065e+01
   1.128226e+02  -1.048679e+02
   1.817066e+02  -5.865241e+01
   1.504130e+02   1.969542e+02
  -5.488096e+01   3.827777e+02
  -2.073900e+02   3.186418e+02
  -1.767074e+02  -2.462136e+01
  -6.912130e+01  -2.272492e+02
   1.350326e+02  -8.673567e+01
   6.997657e+01   2.016340e+02
  -1.719714e+02   2.699415e+02
  -3.877292e+02   6.689864e+01
  -3.925916e+02  -2.916252e+02
  -1.426949e+02  -4.729789e+02
   2.640591e+02  -2.367295e+02
   4.209619e+02   2.525704e+01
   2.570732e+02   1.403415e+02
  -1.649184e+01   1.443647e+02
  -1.948673e+02   6.102971e+01
  -1.226448e+02   2.782699e+01
  -3.297961e+01   6.065685e+01
   3.261605e+01   2.186037e+01
  -1.007925e+02  -4.231639e+00
  -1.866357e+02  -4.240081e+01
  -1.045927e+02  -1.684641e+02
   1.202131e+02  -2.162958e+02
   2.768317e+02  -1.572604e+02
   2.736660e+02   1.121323e+02
   1.720601e+00   3.318951e+02
  -2.078532e+02   3.747211e+02
  -2.939383e+02   1.101463e+02
  -2.468170e+02  -1.798192e+02
  -2.648620e+00  -3.221505e+02
  -3.333569e+00  -2.283904e+02
   3.303113e+01  -9.379316e+01
   2.855556e+00  -6.414161e+01
   1.221270e+02  -8.695536e+01
   2.125750e+02  -4.377159e+01
   2.096230e+02   1.577895e+02
   2.314020e+01   2.337198e+02
  -1.159180e+02   1.463440e+02
  -1.986390e+02  -8.445189e+01
  -1.268391e+02  -2.511250e+02
   2.799996e+01  -1.947808e+02
   2.361874e+02  -3.364242e+01
   2.798719e+02   1.740664e+02
   1.221769e+02   2.049744e+02
  -7.470963e+01   2.100397e+02
  -1.486632e+02   1.136239e+02
  -1.421113e+02   4.727431e+01
  -1.220216e+02   7.273628e+01
  -2.094103e+02   3.832105e+01
  -3.032854e+02  -9.174097e+01
  -2.781757e+02  -2.348960e+02
   1.792466e+01  -4.060725e+02
   3.761902e+02  -3.579480e+02
   4.189124e+02  -1.195627e+02
   2.330899e+02   1.066169e+02
   2.880991e+00   2.181975e+02
  -7.506623e+01   1.570286e+02
  -1.629840e+01   1.972386e+01
   8.942418e+01  -3.011198e+01
   6.278192e+01   4.182033e+01
  -4.369383e+01   9.954485e+01
  -1.218373e+02   3.352187e+01
  -5.392647e+01  -3.546575e+01
   9.712067e+00  -1.553273e+02
   1.028849e+02   2.445229e+01
   7.662144e+01   1.973889e+02
  -4.869235e+01   2.766318e+02
  -1.853567e+02   1.415751e+02
  -3.093617e+02  -6.287579e+01
  -1.847516e+02  -2.387930e+02
   9.880288e-01  -2.334911e+02
   1.083306e+02  -9.091349e+01
   1.268938e+02   6.732743e+00
   1.068440e+01   3.175723e+01
  -8.565774e+01   2.245460e+01
   5.658874e+00  -6.535460e+01
   8.928077e+01  -6.089737e+01
   7.253085e+01  -7.576300e-02
   7.065780e+00   6.003506e+00
  -9.927571e+01   9.950452e+00
  -7.332916e+01  -8.162353e+01
   1.422213e+02  -7.719163e+01
   2.520052e+02   6.456462e+00
   2.053751e+02   1.626165e+02
   2.506965e+01   2.454066e+02
  -1.477053e+02   2.176742e+02
  -2.237652e+02   4.423292e+01
  -1.133541e+02  -5.208706e+01
  -9.905328e+00  -3.764329e+01
   3.270348e+00  -1.937868e+01
  -4.363323e+01   2.385706e+01
  -7.356055e+01   1.028399e+01
  -1.128825e+02  -8.371158e+01
  -1.152271e+01  -1.376210e+02
   4.131631e+01  -1.243935e+02
   1.015960e+02   5.385264e+01
   4.148901e+00   1.348006e+01
  -3.411402e+01  -3.324873e+01
   7.342126e+00  -7.702233e+01
   7.179332e+01  -1.064845e+02
   2.038922e+02  -1.984904e+01
   1.890616e+02   1.115927e+02
  -1.550674e+01   1.843478e+02
  -1.297397e+02   1.518217e+02
  -1.257691e+02   3.545035e+01
  -2.931468e+01  -6.401187e+01
   2.826444e+01  -6.019775e+01
   3.634135e+01  -4.350388e+01
  -3.956895e+00  -9.388614e+00
  -2.002807e+00  -5.157908e+00
  -1.425994e+01  -2.181705e+01
   5.042213e+01  -2.884073e+01
   1.031831e+02   4.057291e+01
   5.303554e+01   1.475738e+02
  -1.378430e+02   1.343720e+02
  -1.914438e+02  -1.940862e+01
  -1.510622e+02  -1.364368e+02
  -2.172402e+01  -2.036013e+02
   1.220331e+02  -1.684580e+02
   1.216229e+02  -3.594973e+01
   5.039221e+01   5.019248e+01
   3.684985e+01   8.500724e+00
   4.508052e+01  -2.321871e+00
   8.802607e+01   5.473457e+00
   8.535343e+01   8.133775e+01
  -3.389647e+01   1.288270e+02
  -1.279993e+02   7.879550e+01
  -8.911934e+01  -8.561975e+00
   6.170376e+00  -1.108280e+02
   1.675315e+02  -5.825327e+01
   1.465124e+02   1.280323e+02
   5.971923e+01   2.223669e+02
  -1.194244e+02   1.603169e+02
  -2.327554e+02   8.591528e+01
  -1.796678e+02  -1.191491e+02
  -5.428140e+01  -9.915957e+01
   2.025761e+01  -1.002280e+02
   8.575270e+01  -6.725589e+01
   3.345470e+01  -5.742548e+01
   3.120013e+01  -8.987932e+01
   6.544159e+01  -3.159350e+01
   1.248062e+02   5.157635e+01
   1.103192e+02   1.315797e+02
  -1.069499e+00   2.320242e+02
  -1.758006e+02   1.492526e+02
  -1.848601e+02  -9.536026e+00
  -9.584285e+01  -1.302843e+02
   3.266832e+01  -9.363995e+01
   6.725646e+01  -6.734028e+01
   5.092450e+01   1.585542e+00
  -2.779626e+01   4.745339e+01
   4.581349e+00   2.039842e+01
   2.613749e+01  -3.867609e+01
   3.417613e+01   4.172226e+01
   3.160653e+01   2.977916e+01
  -7.714570e+01   8.252784e+01
  -1.500360e+02  -8.917214e+00
  -1.196430e+02  -5.245103e+01
  -4.290866e+01  -1.428766e+02
   7.774532e+01  -4.804676e+01
   1.306993e+02  -1.732480e+01
   5.197186e+01   4.379364e+01
  -6.057563e+01   2.938904e+01
  -8.015343e+01  -6.158077e+01
   1.918439e+00  -9.308183e+01
   4.141684e+01  -1.308654e+01
   4.946622e+01   2.165033e+00
   7.255541e+01   2.425961e+01
   1.782396e+01   2.635899e+01
   2.536008e+01   4.790589e+01
  -3.985854e+00  -2.029836e+01
   8.520619e+01   6.131077e+01
   5.178521e+00   9.754297e+01
  -9.680602e+01   1.108795e+02
  -1.704941e+02  -2.278132e-01
  -1.295304e+02  -9.387106e+01
   3.387812e+01  -1.158366e+02
   1.392055e+02  -3.710658e+01
   3.606602e+01   2.631700e+01
  -7.063896e+01   1.430191e+01
  -6.038064e+01  -2.481632e+01
  -4.240115e+01  -7.053695e+01
   7.018162e+01  -4.181872e+01
   1.489095e+02  -3.456764e+01
   1.145939e+02   2.940286e+01
   1.488613e+01   6.758506e+01
  -5.976181e+01   6.549074e+01
  -6.818529e+01   1.377369e+01
  -8.075106e+00  -1.271673e+01
   4.623791e+01  -1.823750e+00
   7.333863e+01   5.214368e+01
  -8.280211e+01   1.204533e+02
  -1.473963e+02   7.419842e+01
  -1.299206e+02  -7.227850e+01
   6.028572e+01  -1.999868e+02
   9.305160e+01  -1.079661e+02
   5.954569e+01   2.260069e+01
   2.863359e+01   1.150007e+02
  -5.818811e-01   8.417602e+01
  -5.256478e+01   2.887907e+01
  -6.208497e+01  -6.714020e+00
  -7.331998e+01  -7.801200e+00
   1.423680e+00  -1.664218e+01
  -1.920448e+00  -2.502348e+01
  -3.867097e+01  -3.729037e+01
   2.643966e+00  -7.308827e+01
   3.546580e+01  -7.927110e+01
   1.351451e+02  -5.354214e+00
   1.217944e+02   8.355354e+01
   1.907626e+01   7.591012e+01
  -9.494034e+01   3.786491e+01
  -5.469686e+01   1.046444e+01
   2.328263e+01   1.164709e+00
   8.411617e+01   2.337712e+01
   1.134133e+01  -1.136938e+01
  -3.767636e+01  -6.356225e+01
  -1.659973e+01  -2.147866e+01
   3.195586e+01  -1.436342e+01
   1.081386e+02   1.897269e+01
   7.053641e+01   7.149013e+01
  -5.808972e+01   8.732092e+01
  -1.594255e+02   3.548339e+01
  -1.518253e+02  -1.372208e+01
  -5.862099e+01  -8.830156e+01
   4.604588e+01  -1.965034e+02
   1.094809e+02  -3.914922e+01
   4.726108e+01   3.580913e+01
  -2.625640e+00   3.230208e+01
  -2.186948e+01  -4.437169e+01
   3.880641e+00   5.562581e+01
   3.192975e+01   3.486652e+01
   1.134847e+00   9.506621e+01
  -4.613589e+01   4.107741e+01
  -6.976459e+01  -2.398300e+01
  -5.964440e+01  -9.655784e+01
   1.940052e+01  -6.298063e+01
   8.403373e+01  -1.561771e+01
   1.118103e+02   1.047524e+01
   6.288774e+01   8.784130e+01
  -2.894129e+01   7.425343e+01
  -1.283097e+02  -9.547488e+00
  -8.504850e+01  -3.441998e+01
   2.451185e+01  -3.306346e+01
   4.625203e+01  -1.826304e+01
  -7.450270e+00   2.796676e+01
  -2.732614e+01   4.883680e+01
  -8.532355e+00  -3.532226e+01
   7.678151e+01  -5.518733e+01
   1.654568e+02  -5.745011e+01
   7.791738e+01   2.179961e+01
  -2.440605e+01   3.762038e+01
  -1.597944e+01   9.594501e+01
  -2.028992e+01   5.612278e+00
   2.193886e+00  -1.262270e+01
   8.377889e+00  -2.281117e+01
   2.214033e+01   5.740215e-01
   1.470889e+01   5.437110e+01
  -3.093390e+01   7.673499e+01
  -4.189971e+01   3.907112e+00
  -4.261874e+01  -6.184032e+01
   2.209633e+01  -1.454806e+01
   8.010797e+01   1.381647e+01
   2.050565e+01   1.757922e+01
  -8.976810e+00  -1.757628e+01
  -1.941261e+01  -5.887271e+01
   4.543776e+01  -3.726951e+01
   3.677218e+01   3.655675e+01
   3.745359e+01   6.123553e+01
   1.947736e+01   7.262046e+00
  -2.091815e+01  -2.721846e+01
  -1.010779e+01   9.178363e+00
   2.514573e+01  -8.511492e+00
   7.309582e+01   2.868401e+00
   5.581478e+01   1.598919e+01
  -4.843878e+01   1.089830e+02
  -5.863821e+01   2.722164e+01
  -6.290374e+01   1.569271e+01
   2.819623e+01   2.320500e+01
   2.673146e+01  -2.211037e+01
  -1.378811e+01  -3.652890e+01
  -5.143062e+01   5.263280e+01
