
 $NMID
 id='ANONYMOUS ', fmtdat='(2E16.6)'
 volume=1.0
 tramp=1.0
 $END
   3.584914e+03  -1.301238e+02
   2.422681e+03   2.177755e+03
  -5.117629e+02   2.633441e+03
  -1.845966e+03   1.168327e+03
  -9.210107e+02  -2.335127e+02
   3.954328e+02  -5.538266e+02
   7.768679e+02   3.308975e+02
  -1.659904e+00   9.135864e+02
  -6.535872e+02   7.495418e+02
  -7.937993e+02  -7.318983e+01
  -4.860439e+02  -6.513551e+02
   1.346719e+02  -7.743466e+02
   5.712841e+02  -1.272178e+02
   2.801299e+02   6.726252e+02
  -2.611800e+02   7.126149e+02
  -5.750583e+02   3.352236e+01
  -3.393458e+02  -6.034590e+02
   2.456745e+02  -7.056492e+02
   5.967311e+02  -1.695529e+02
   4.487772e+02   3.547693e+02
   7.363205e+01   3.720627e+02
  -2.415983e+02   2.740937e+02
  -1.934622e+02   1.238377e+01
   1.492265e+02   1.216029e+01
   4.476594e+02   2.547252e+02
   1.172121e+02   4.301987e+02
  -4.731828e+02   2.589034e+02
  -8.351342e+02  -2.015295e+02
  -3.432552e+02  -4.723957e+02
   4.080674e+02  -3.902262e+02
   6.277644e+02   1.151430e+02
   2.915290e+02   4.437422e+02
  -2.900773e+02   4.857752e+02
  -5.558349e+02   1.368057e+02
  -3.913157e+02  -2.030908e+02
  -5.746325e+01  -4.981102e+02
   1.321940e+02  -2.605132e+02
   1.158328e+02   2.053324e+02
  -1.891219e+02   4.035426e+02
  -3.380614e+02  -8.170636e+01
  -1.881543e+02  -6.452746e+02
   3.445342e+02  -6.368825e+02
   5.458389e+02  -3.360639e+01
   1.904432e+02   5.004312e+02
  -2.937840e+02   2.680851e+02
  -3.324049e+02  -3.374248e+02
   1.082937e+02  -5.189872e+02
   5.994166e+02  -1.516645e+02
   6.385684e+02   4.175539e+02
   1.563880e+02   6.173275e+02
  -3.820754e+02   3.456388e+02
  -6.187554e+02  -7.446057e+01
  -3.481609e+02  -3.485496e+02
   1.072192e+02  -2.720468e+02
   3.345131e+02  -5.527986e+01
   2.255798e+02   1.581673e+02
  -1.514080e+02   7.343039e+01
  -8.810381e+01  -1.179948e+02
   9.467685e+01  -1.624336e+02
   3.305700e+02   2.206271e+01
   1.607760e+02   2.631695e+02
  -1.202124e+02   2.554366e+02
  -3.476295e+02   1.439788e+02
  -2.666105e+02  -1.103869e+02
   1.937597e-01  -2.565304e+02
   2.870935e+02  -3.642028e+02
   4.209295e+02  -1.989748e+02
   1.892157e+02   1.528108e+02
  -1.228407e+01   3.918148e+02
  -1.521050e+02   3.706103e+02
  -6.684256e+01   7.165651e+01
  -6.277990e+00  -3.010692e-01
  -4.953709e+01   1.096218e+02
  -2.077660e+02   1.558401e+02
  -2.855550e+02  -8.848891e+01
  -1.546150e+02  -3.049278e+02
   7.653278e+01  -2.214759e+02
   2.648084e+02  -1.696020e+01
   1.609285e+02   2.344383e+02
   6.536189e-01   2.949241e+02
  -2.616931e+02   1.246373e+02
  -4.060571e+02  -1.636323e+02
  -1.771096e+02  -3.132978e+02
   5.872499e+01  -2.607519e+02
   1.636819e+02  -1.185043e+02
   1.307918e+02  -5.707001e+01
   1.093468e+02  -2.188457e+01
   1.746185e+02  -6.202189e+01
   3.899211e+02   4.913015e+01
   3.657122e+02   2.337612e+02
  -6.803141e+00   4.133978e+02
  -4.193124e+02   4.511909e+02
  -4.815093e+02   1.698603e+02
  -3.359328e+02  -5.596759e+01
  -2.074265e+01  -2.987709e+02
   1.441840e+02  -2.743196e+02
   9.894608e+01  -5.147086e+01
  -2.056559e+02   8.817886e+01
  -2.461043e+02  -4.494519e+01
  -2.103364e+01  -2.259643e+02
   1.647537e+02  -1.058387e+02
   1.309048e+02   6.841988e+01
  -6.014799e+01   1.668665e+02
  -1.658970e+02  -3.453647e+01
  -1.029576e+02  -2.673930e+02
   4.176359e+01  -3.724509e+02
   2.253911e+02  -2.074467e+02
   3.710883e+02   3.666674e+01
   3.029724e+02   2.296513e+02
   8.570626e+01   3.110704e+02
  -1.011868e+02   2.045759e+02
  -1.640151e+02   4.237745e+01
  -7.729402e+01  -5.491848e+01
   6.830386e+01   5.990396e+01
   8.599696e+00   9.217553e+01
  -1.540479e+02   8.951579e+01
  -1.860371e+02  -2.303319e+01
  -5.212170e+01  -8.201750e+01
   1.382515e+02  -2.381489e+01
   4.238762e+01   7.561276e+01
  -1.499475e+02   8.496055e+01
  -3.158723e+02   1.719946e+01
  -3.244204e+02  -6.100896e+01
  -4.829300e+01  -2.817492e+02
   2.120542e+02  -2.641837e+02
   2.841672e+02  -1.418223e+02
   1.745221e+02   7.077964e+01
  -3.974559e+01   1.249776e+02
  -1.632303e+02   2.223114e+01
   3.289164e+01  -1.218136e+02
   2.199451e+02  -2.687642e+01
   2.064457e+02   1.587156e+02
   3.673258e+01   2.276246e+02
  -5.993867e+01   1.760672e+02
  -1.057341e+02   2.611664e+01
  -8.767571e+01  -3.530298e+01
   2.902327e+01  -3.545962e+01
   1.811355e+01   1.018347e+02
  -9.977916e+01   1.380334e+02
  -2.418758e+02   2.544257e+01
  -1.435078e+02  -1.396613e+02
  -2.275518e+01  -2.669746e+02
   1.447869e+02  -1.712188e+02
   1.952058e+02  -2.031382e+01
   1.040814e+02   1.306426e+02
  -7.929421e+01   1.073362e+02
  -5.409191e+01   6.977422e+00
  -2.033574e+01   4.108409e+01
   5.923211e+00   1.492433e+01
  -2.352966e+00  -4.316748e+01
  -6.042319e+01  -1.234524e+01
  -7.978638e+01  -9.093816e+01
  -2.195600e+01  -1.872097e+02
   1.206579e+02  -1.593821e+02
   2.581883e+02  -3.636345e+01
   2.345747e+02   1.619802e+02
  -2.322752e+01   2.466588e+02
  -9.647558e+01   1.535109e+02
  -1.469565e+02   7.822118e-01
  -9.067066e+01  -2.497110e+01
  -7.099937e+01  -9.085227e+01
  -2.563730e+01  -1.184424e+01
  -3.702604e+01  -2.949309e+01
  -5.135186e+01   2.212166e+01
   4.430763e+01  -9.160763e+01
   1.411219e+02  -4.740732e+01
   7.972916e+01   5.748948e+01
  -9.944413e+00   1.014805e+02
  -1.786146e+02   8.287513e+01
  -1.938207e+02  -1.074622e+02
  -1.440020e+02  -2.035729e+02
   1.372375e+02  -2.542566e+02
   2.571308e+02  -1.201314e+02
   2.612858e+02   4.027012e+01
   1.063990e+02   1.864936e+02
  -2.985526e+01   1.641069e+02
  -1.042225e+02   1.085851e+02
  -8.055504e+01   5.389827e+01
  -1.217063e+02   1.174319e+02
  -1.348091e+02   6.484670e+01
  -1.082726e+02   5.832084e+00
  -1.336148e+02  -1.446154e+02
  -4.554980e+01  -2.490660e+02
   9.361058e+01  -1.913774e+02
   1.358197e+02  -8.771283e+00
   1.222415e+02   1.010508e+02
  -9.673870e+00   2.027886e+02
  -1.216724e+02   8.422662e+01
  -9.116463e+01   7.514793e+00
  -2.064507e+01  -3.434001e+01
   3.394234e+01   6.661794e+00
  -8.756797e+01  -3.110040e+01
  -1.340486e+02  -9.710050e+00
  -4.850802e+01   1.445725e+01
   3.686194e+01  -2.659438e+01
   2.086219e+02  -4.056837e+01
   1.713822e+02   2.551629e+01
  -3.863798e+01   7.080284e+01
  -9.858922e+01   1.063325e+02
  -9.933113e+01   2.575780e+01
  -5.065042e+01   1.708487e+01
   2.865085e+01  -9.403572e+00
   8.770390e+01   3.588895e+01
   9.221739e+00   8.068336e+01
  -8.997938e+01   5.981753e+01
  -6.848790e+01   6.790288e+00
  -1.055026e+02  -4.572577e+01
  -5.293346e+01  -6.652455e+01
  -3.512812e+00   1.222159e-01
  -5.112899e+01   8.557984e+00
  -6.351747e+00  -8.529198e+01
   6.359942e+01  -1.752587e+02
   1.614298e+02  -1.754227e+02
   1.581185e+02  -2.050296e+01
   1.486307e+02   8.744046e+01
   3.797304e+01   1.583474e+02
  -6.304534e+01   9.074141e+01
  -8.054229e+01   1.147738e+01
   5.520090e+01  -1.478807e+01
   1.909649e+02  -5.946240e+00
   9.619418e+01   9.106013e+01
  -8.703018e+01   1.428236e+02
  -1.943855e+02  -1.298093e+01
  -1.422809e+02  -1.920780e+01
  -1.244726e+01  -9.387452e+01
   7.412906e+01  -4.753274e+01
   5.217567e+01  -4.673486e+01
  -4.488724e+01   6.883451e+01
  -1.027528e+02  -1.863220e+00
  -5.407701e+01  -1.342659e+02
   1.018457e+02  -1.965690e+02
   1.763401e+02  -7.769202e+01
   1.605762e+02   6.805702e+01
   3.607100e+01   1.813293e+02
  -2.728923e+01   1.098153e+02
  -1.239082e+02   2.657746e+01
  -4.524138e+01  -1.607858e+02
   3.772675e+01  -1.434780e+02
   1.434092e+01  -2.064894e+01
   5.273036e+01   4.245631e+01
   1.309157e+01   3.944347e+01
   2.451564e+01  -4.170542e+01
   2.122355e+01   4.368833e+01
   3.299272e+01   1.175892e+02
  -1.223306e+01   1.026492e+02
  -2.938439e+01   5.617863e+01
  -1.884149e+02  -5.420902e+01
  -1.165499e+02  -7.178377e+01
  -2.931155e+01  -4.046261e+01
   1.059079e+02  -3.052643e+01
   4.453785e+01  -6.139691e+00
   1.540675e+01   1.807626e+01
  -7.751188e+01   8.914251e+00
  -3.648343e+01   3.953745e+01
  -2.247041e+01  -3.636631e+01
  -4.357707e+01  -1.795500e+01
  -1.217663e+02  -6.161380e+01
  -7.185241e+01  -7.373430e+00
   1.945818e+00  -7.224776e+01
   1.212416e+02  -7.790681e+01
   2.065518e+02  -5.605990e+01
   1.712882e+02   7.082277e+01
   1.093288e+01   2.141141e+02
  -8.884999e+01   1.554566e+02
  -1.331384e+02   6.952378e+01
  -9.766708e+01  -3.415069e+01
  -1.832970e+01  -5.386498e+01
  -1.836056e+00  -3.591289e+01
  -4.286111e+00  -5.693131e+01
  -1.452129e+01  -4.409492e+01
   6.196576e+00  -1.307600e+02
   5.401164e+01  -4.562676e+01
   4.975906e+01   5.074318e+01
   3.090441e+01   9.441716e+01
   2.922387e+01   1.427678e+02
  -9.646307e+01   1.989091e+01
  -1.287315e+02  -6.389700e+01
  -2.247749e+01  -9.908581e+01
   4.479293e+01  -6.200063e+01
   1.130079e+02  -3.645961e+01
   5.901837e+01   8.770065e+01
  -1.891956e+01   5.660681e+01
  -2.721536e+01   2.343859e+01
   3.759632e+01  -2.239340e+00
   5.417080e+01  -4.544809e+01
  -2.185135e+00   3.435155e+01
  -5.345175e+01   8.967101e+01
  -1.324416e+02   8.339965e+01
  -4.979348e+01   3.203070e+01
   7.503401e+01  -8.817379e+01
   1.181973e+01  -9.504823e+01
   7.314983e+00  -1.682078e+01
   3.218152e-01   4.788766e+01
  -1.878489e+01   5.335914e+01
  -3.834328e+01   4.625656e+01
   1.583158e+00  -6.827849e+01
   2.515757e+01  -5.344533e+01
   4.724682e+01   6.205239e+01
   4.890804e+01  -6.420375e+00
  -2.992616e+01   4.795499e+00
  -5.066642e+01  -2.495006e+00
  -5.218970e+01  -7.086311e+01
  -6.042991e+00   2.588003e+00
  -2.162116e+01   5.286732e+01
   1.078176e+01  -3.369267e+01
  -2.971208e+00  -4.676410e+01
   3.867942e+01  -6.450499e+01
   7.460850e+01  -1.063094e+01
   7.260954e+01   3.204169e+01
   2.446591e+01   9.451694e+01
  -5.531672e+01   3.558558e+01
  -8.301233e+01  -9.894174e+00
   2.298463e+00  -6.503282e+00
   4.135484e+01  -6.997363e+01
   3.755930e+01  -2.235319e+01
   2.190080e+01  -2.575176e+00
  -1.918628e+01   3.942973e+01
  -6.831579e+01   1.297324e+00
   6.614738e+01  -1.963387e+01
   6.530542e+01  -1.918031e+01
