
 $NMID
 id='ANONYMOUS ', fmtdat='(2E16.6)'
 volume=1.0
 tramp=1.0
 $END
   3.663942e+03   1.644354e+02
   2.279685e+03   1.796778e+03
  -2.035900e+02   2.074240e+03
  -1.471321e+03   1.152687e+03
  -8.782388e+02  -4.730395e+01
   5.737613e+01  -3.927249e+02
   4.216800e+02   1.746082e+02
   7.484190e+01   6.452840e+02
  -5.449009e+02   5.556580e+02
  -7.708396e+02   9.002018e+00
  -5.999419e+02  -6.196357e+02
   1.220752e+02  -7.771011e+02
   3.679712e+02  -2.046452e+02
   2.177731e+02   5.125691e+02
  -1.733320e+02   5.754746e+02
  -4.346252e+02   6.535169e+01
  -2.072102e+02  -5.103566e+02
   2.367584e+02  -6.518544e+02
   4.560909e+02  -2.265222e+02
   3.852406e+02   1.649292e+02
   1.283505e+02   4.363602e+02
  -1.132825e+02   2.838108e+02
  -8.178977e+01   9.890338e+01
   1.942640e+02   8.358185e+01
   3.188171e+02   2.889713e+02
   1.028940e+02   4.745382e+02
  -4.319172e+02   2.268743e+02
  -7.425561e+02  -1.853712e+02
  -2.925539e+02  -4.271803e+02
   3.776425e+02  -2.554297e+02
   5.694098e+02   8.364447e+01
   2.179644e+02   4.477150e+02
  -2.523318e+02   4.072969e+02
  -5.391070e+02   1.755832e+02
  -4.296219e+02  -2.079487e+02
  -9.901214e+01  -4.061017e+02
   9.693130e+01  -1.874989e+02
   5.008714e+01   1.385180e+02
  -2.317707e+02   2.448802e+02
  -3.354481e+02  -1.448588e+02
  -5.972408e+01  -5.542727e+02
   2.769757e+02  -4.680880e+02
   3.877234e+02   3.175507e+01
   9.646182e+01   3.609595e+02
  -1.689929e+02   1.979154e+02
  -2.307207e+02  -2.649784e+02
   1.081669e+02  -4.158014e+02
   4.577023e+02  -1.090955e+02
   4.597122e+02   3.699524e+02
   1.097151e+02   5.540253e+02
  -3.749334e+02   2.839870e+02
  -5.847892e+02  -1.331653e+02
  -3.548654e+02  -3.448155e+02
   7.972620e+01  -2.547084e+02
   3.340983e+02  -5.500866e+01
   1.819127e+02   9.253393e+01
  -5.165396e+01   4.140706e+01
  -9.829247e+01  -1.041921e+02
   1.005320e+02  -1.049674e+02
   2.630294e+02   1.008678e+02
   1.149921e+02   2.273698e+02
  -1.520008e+02   2.033004e+02
  -3.620420e+02   9.673226e+01
  -2.463502e+02  -4.679580e+01
   3.235981e+01  -2.703882e+02
   3.011344e+02  -3.348967e+02
   3.453685e+02  -1.707658e+02
   2.239552e+02   1.909075e+02
   4.434075e+01   3.960299e+02
  -4.927387e+01   3.149700e+02
  -9.819862e-01   1.460685e+02
  -1.764465e+01   7.320441e+01
  -1.678879e+02   7.566632e+01
  -2.616646e+02   9.867873e+01
  -2.100050e+02  -1.295119e+02
  -1.081624e+02  -2.323695e+02
   6.817795e+01  -2.193272e+02
   1.613235e+02  -1.851743e+00
   9.778229e+01   2.419997e+02
  -4.198305e+01   2.895224e+02
  -2.315811e+02   9.409436e+01
  -3.040032e+02  -2.043146e+02
  -1.815674e+02  -3.562128e+02
   4.831085e+01  -2.209690e+02
   1.844123e+02  -7.307103e+01
   1.478067e+02  -3.264496e+01
   1.122397e+02  -9.167593e+01
   2.465839e+02  -5.591624e+01
   3.982942e+02   5.930283e+01
   3.565408e+02   2.992890e+02
   5.345554e+00   3.779920e+02
  -3.533508e+02   3.839442e+02
  -4.930430e+02   1.708920e+02
  -2.649420e+02  -1.282920e+02
  -1.293037e+01  -2.632618e+02
   1.355530e+02  -1.697442e+02
   7.957424e+00  -5.592966e+01
  -1.606342e+02   7.131273e+01
  -1.371412e+02  -7.753513e+01
  -3.509316e+01  -1.707832e+02
   1.429924e+02  -1.395347e+02
   1.554812e+02   6.722542e+01
  -2.139930e+01   1.734512e+02
  -1.800145e+02   5.489137e+01
  -1.639538e+02  -2.462296e+02
   2.449707e+01  -4.284138e+02
   2.472374e+02  -2.757350e+02
   3.080456e+02   5.866128e+01
   3.363076e+02   2.756839e+02
   8.251824e+01   3.090575e+02
  -1.111429e+02   1.345834e+02
  -1.644804e+02   1.284421e+01
  -5.376632e+01   2.368268e+01
   5.944889e+01   3.325831e+01
   1.498880e+01   1.361435e+02
  -1.613767e+02   7.421524e+01
  -1.898440e+02  -7.919337e+01
  -1.857708e-01  -7.893963e+01
   1.255105e+02  -1.263713e+01
   5.570314e+01   1.101879e+02
  -1.064936e+02   7.187456e+01
  -3.468439e+02   1.531009e+01
  -2.578538e+02  -1.768773e+02
  -1.748561e+01  -2.358643e+02
   2.148655e+02  -1.938681e+02
   2.826531e+02  -1.055448e+02
   1.288692e+02   5.497485e+01
  -8.303420e+01   9.373219e+01
  -1.322551e+02   1.755027e+01
   5.422810e+01  -8.973042e+01
   1.852282e+02  -4.692732e+01
   2.007344e+02   1.109555e+02
   3.630643e+01   2.264558e+02
  -1.170010e+02   1.515149e+02
  -8.955208e+01  -7.451009e+00
  -6.703103e+01  -5.798930e+01
   1.398356e+01   1.111045e+01
  -1.568945e+01   9.159006e+01
  -1.265516e+02   1.470505e+02
  -2.308859e+02   1.163420e+01
  -1.672850e+02  -1.814307e+02
   1.164993e+01  -2.434463e+02
   1.624378e+02  -1.890136e+02
   1.895767e+02  -5.969063e+00
   4.688879e+01   1.205174e+02
  -8.174427e+01   1.214181e+02
  -1.047633e+02  -1.145684e+01
  -4.795651e+01  -1.789177e+01
   6.051627e+01  -3.850876e+01
  -1.828674e+01   4.773909e+01
  -8.393840e+01  -5.631103e+01
  -1.256601e+02  -1.224942e+02
  -2.233843e+01  -1.936700e+02
   1.588931e+02  -1.610407e+02
   2.335052e+02   4.863678e+01
   1.918954e+02   1.738265e+02
   1.036669e+01   2.321893e+02
  -1.784745e+02   1.299557e+02
  -1.113858e+02  -1.205916e+01
  -7.810724e+01  -9.585405e+01
  -3.906151e+01  -5.820991e+01
  -4.473024e+01   3.959756e+01
  -6.136264e+01   6.831661e+01
  -5.674656e+01  -3.490317e+01
   7.742424e+01  -6.683239e+01
   1.521488e+02  -1.008277e+02
   1.439363e+02   5.476765e+01
  -8.046465e+01   1.201146e+02
  -1.655878e+02   9.269953e+01
  -2.259567e+02  -9.006132e+01
  -1.291081e+02  -2.042879e+02
   9.613475e+01  -2.476870e+02
   2.873953e+02  -1.043406e+02
   2.853700e+02   8.447197e+01
   7.179025e+01   2.093612e+02
  -6.467831e+01   1.204935e+02
  -1.138680e+02   1.087121e+02
  -7.882562e+01   7.292432e+01
  -9.152833e+01   1.002856e+02
  -8.137809e+01   1.076299e+02
  -1.169796e+02  -4.308522e+01
  -1.066902e+02  -1.912836e+02
   1.432815e+01  -2.360669e+02
   9.780110e+01  -1.477020e+02
   1.207397e+02   3.972616e+01
   1.448765e+02   9.399782e+01
   1.429504e+01   1.545072e+02
  -5.738610e+01   8.237184e+01
  -5.715564e+01  -9.420964e+00
  -7.215198e+00  -5.441135e+01
   5.831568e+01  -5.841810e+01
  -5.297300e+01  -1.189506e+01
  -9.581765e+01  -5.622355e-01
  -3.473786e+01  -8.233751e+01
   9.766438e+01  -3.078040e+01
   1.689220e+02   7.879749e+00
   9.151583e+01   5.337837e+01
  -3.716568e+01   6.768385e+01
  -1.358945e+02   4.728580e+01
  -1.423388e+02  -1.169020e+01
  -8.004477e+01  -4.859634e+01
   7.228990e+01  -8.594377e+01
   3.377358e+01  -4.593670e+01
   5.070666e+01   2.933326e+01
  -4.007241e+01   4.817496e+01
  -3.414442e+01  -4.591084e+00
  -2.352011e+01  -6.814778e+01
  -2.397886e+01  -5.190232e+01
  -2.401882e+00   6.578969e+00
  -8.475026e+01  -1.619618e+01
  -4.525562e+01  -9.225227e+01
   4.447197e+01  -1.443394e+02
   1.396399e+02  -1.569328e+02
   1.402739e+02  -5.238304e+01
   1.287257e+02   1.359000e+02
  -2.679797e+01   1.648265e+02
  -1.118250e+02   7.769978e+01
  -4.528898e+01   2.034723e+01
   8.398387e+01  -2.849918e+01
   1.475954e+02   1.660797e+01
   6.545404e+01   1.425864e+02
  -8.891795e+01   1.227961e+02
  -1.763550e+02   1.769819e+01
  -1.311048e+02  -3.191152e+01
  -1.015900e+01  -1.012746e+02
   1.259894e+02  -3.777108e+01
   4.743463e+01   4.189213e+01
  -1.939761e+01   6.432214e+01
  -1.009349e+02  -2.567453e+01
  -5.179483e+01  -1.246504e+02
   7.196468e+01  -1.684531e+02
   1.555167e+02  -8.162564e+01
   9.841260e+01   1.336044e+02
   2.071641e+00   1.871140e+02
  -1.015712e+02   1.302294e+02
  -9.744265e+01  -3.221421e+01
  -5.038794e+01  -1.223909e+02
   1.394652e+01  -9.987180e+01
   8.883472e+01  -4.604592e+00
   7.833778e+01   4.375402e+01
   5.144498e+01   1.794294e+01
   1.886076e+01   1.560227e+01
   2.172717e+01   4.323530e+01
   4.529298e+01   1.207643e+02
   3.662648e+01   8.421920e+01
  -9.573179e+01   6.161089e+01
  -1.169370e+02  -4.403441e+01
  -1.524467e+02  -7.472229e+01
  -4.011540e+01  -8.298954e+01
   1.112611e+02  -4.472200e+01
   6.359756e+01  -3.978548e+01
   9.714842e+00  -9.334385e+00
  -4.652857e+01   2.206132e+01
   1.956412e+01   5.741280e+00
   3.328780e+01  -3.804569e+01
   1.618564e+01  -1.462228e+01
  -3.354563e+01   8.136066e-01
  -8.511871e+01  -4.549068e+01
   8.430368e+00  -6.889139e+01
   1.500956e+02  -1.219603e+02
   1.691464e+02  -7.510962e+01
   1.180540e+02  -6.562627e+00
   4.880145e+01   1.973172e+02
  -6.558461e+01   1.612802e+02
  -8.216481e+01   4.691132e+01
  -1.003488e+02  -1.584531e+01
  -7.949188e+00  -7.244397e+01
  -1.233983e+01  -1.178684e+01
   2.258511e+01   4.761344e+01
  -3.675038e+01  -5.191886e+01
  -8.371388e+00  -1.472441e+02
  -1.195312e+00  -1.019745e+02
   1.156315e+02   9.841127e+00
   1.232893e+02   1.063010e+02
   2.543102e+01   1.318558e+02
  -8.333204e+01   2.032651e+01
  -1.389655e+02  -3.716020e+01
  -7.255173e+01  -1.173624e+02
   4.596779e+01  -4.826441e+01
   1.038588e+02  -1.939741e+01
   2.572782e+01   4.123441e+01
   1.018588e+01   7.587168e+01
  -5.475172e+00   2.370995e+01
   4.840364e+01   6.168493e+01
   5.207671e+01  -1.776057e+00
   3.157735e+01  -4.080385e+00
  -1.296564e+02   8.147142e+01
  -1.468631e+02   6.286146e+01
  -1.015053e+02   3.303703e+01
  -1.461922e+01  -6.173213e+01
   4.514299e+01  -7.903234e+01
  -6.884832e-02  -3.040902e+01
   1.031130e+01   3.435273e+01
  -2.173010e+01   6.097280e+01
  -1.044179e+01   2.484687e+01
   1.496201e+01  -2.352907e+01
  -6.573682e+00  -2.974258e+01
   2.856660e+01   5.954120e+01
   1.466062e+01   2.903383e+01
  -3.132475e+00  -4.306232e+00
  -1.394504e+01   6.661927e+00
  -2.679112e+01  -2.758089e+00
  -3.064978e+01  -1.322865e+01
  -3.299174e+01   7.171208e+01
  -9.047953e+00   6.489979e+00
  -1.649790e+01  -5.244589e+01
  -3.155815e+00  -3.759522e+01
   3.364364e+01  -1.762209e+01
   1.197523e+01   6.470948e+01
   2.911206e+01   5.587238e+01
  -3.995396e+01   2.670308e+00
  -6.621585e+01  -2.559698e+01
  -1.926470e+01  -9.514929e+01
   3.995515e+01  -3.318141e+01
   3.574178e+01  -4.746739e+01
   1.627639e+01  -3.098039e+01
  -1.077299e+01  -3.136631e+01
  -3.402530e+01  -3.080476e+01
   4.450554e+00   7.925264e+00
   7.556790e+01  -5.461701e+01
