
 $NMID
 id='ANONYMOUS ', fmtdat='(2E16.6)'
 volume=1.0
 tramp=1.0
 $END
  -2.916050e+03  -1.819056e+02
  -1.830134e+03  -1.440517e+03
  -8.785441e+01  -1.715438e+03
   9.219785e+02  -1.145302e+03
   8.758424e+02  -5.808209e+02
   3.001783e+02   6.315858e+01
  -8.403480e+01  -3.201967e+01
   7.313013e+01  -3.949182e+02
   4.158719e+02  -4.383538e+02
   6.393168e+02  -6.364371e+01
   3.193565e+02   3.606332e+02
  -1.476914e+01   5.363429e+02
  -2.300398e+02   1.403461e+02
  -1.347540e+02  -3.623118e+02
   5.634706e+01  -5.703211e+02
   3.828606e+02  -9.690415e+01
   3.426883e+02   4.328339e+02
  -7.678504e+01   6.202776e+02
  -4.305790e+02   2.718928e+02
  -3.701169e+02  -8.989870e+01
  -1.800285e+02  -3.533624e+02
   1.267578e+02  -2.706959e+02
   3.473604e+01  -1.232209e+02
  -1.566498e+02  -1.027623e+02
  -1.718101e+02  -3.672337e+02
   9.193865e+01  -3.166939e+02
   4.949448e+02  -1.253040e+02
   5.883516e+02   2.702934e+02
   1.764836e+02   3.400129e+02
  -3.098802e+02   2.207785e+02
  -4.579446e+02  -1.610304e+02
  -1.390191e+02  -3.032199e+02
   2.092300e+02  -3.276776e+02
   4.018087e+02  -8.823504e+01
   2.741304e+02   8.757439e+01
   5.271924e+01   2.106536e+02
   8.558869e+01   1.260634e+02
   1.268363e+02  -8.785675e+01
   1.698983e+02  -1.167627e+02
   1.368217e+02   1.763439e+02
  -5.409217e+01   4.367348e+02
  -2.435082e+02   3.827307e+02
  -2.209057e+02   7.814685e+01
  -1.268523e+02  -2.065191e+02
   4.830996e+01  -1.114218e+02
   6.276282e+01   1.649039e+02
  -1.323241e+02   2.809610e+02
  -3.924816e+02  -4.059284e+00
  -4.433606e+02  -3.527037e+02
  -1.384730e+02  -4.410822e+02
   2.566533e+02  -2.465932e+02
   4.947839e+02   4.070816e+00
   3.305944e+02   1.714336e+02
   3.583923e+01   1.767912e+02
  -1.837747e+02   1.011415e+02
  -1.780568e+02   2.963274e+01
  -4.852009e+01  -3.829626e+00
   5.312033e+01   1.089398e+01
  -3.275887e+01   5.117534e+01
  -1.726333e+02  -1.780525e+01
  -8.203463e+01  -1.763767e+02
   1.529776e+02  -2.270600e+02
   3.681345e+02  -1.736913e+02
   2.335424e+02   1.353506e+02
  -2.553009e+01   3.557275e+02
  -2.636579e+02   4.047220e+02
  -3.446430e+02   2.398978e+02
  -2.279845e+02  -1.355742e+02
  -8.800517e+01  -3.204743e+02
  -1.024063e+01  -3.373934e+02
  -1.846766e+01  -2.205324e+02
   5.381650e+01  -1.322353e+02
   1.075391e+02  -1.144432e+02
   2.039174e+02  -7.771547e+01
   2.451381e+02   1.469669e+02
   1.199661e+02   2.242806e+02
  -5.334789e+01   1.651646e+02
  -1.501386e+02  -3.201495e+01
  -1.252937e+02  -2.410513e+02
   6.368789e+01  -2.352138e+02
   2.614272e+02  -6.617660e+01
   3.059780e+02   1.466477e+02
   1.307377e+02   2.552987e+02
  -2.796346e+01   2.606590e+02
  -1.672932e+02   1.473689e+02
  -1.766767e+02   1.093123e+02
  -1.779206e+02   7.994719e+01
  -3.032871e+02   1.979165e+01
  -4.094716e+02  -1.412865e+02
  -3.098654e+02  -3.249780e+02
   1.515962e+01  -4.420750e+02
   4.109870e+02  -3.789156e+02
   4.941280e+02  -1.729494e+02
   3.135414e+02   1.356320e+02
   6.579401e+01   2.940413e+02
  -1.087674e+02   1.784305e+02
  -2.281499e+01   2.404461e+01
   1.247625e+02  -4.833036e+01
   9.693542e+01   1.036549e+02
   6.738608e+00   9.484024e+01
  -1.256350e+02   7.356802e+01
  -9.427798e+01  -6.941141e+01
   6.335149e+01  -1.375121e+02
   2.154639e+02   1.947263e+01
   1.712956e+02   2.264429e+02
  -5.112894e+01   3.040640e+02
  -2.711119e+02   1.921113e+02
  -3.485755e+02  -1.263098e+01
  -2.819092e+02  -2.243387e+02
  -6.775907e+01  -2.592940e+02
   1.444098e+02  -9.608143e+01
   1.253609e+02  -1.351243e+01
   7.723310e+01   1.675760e+01
   9.498864e+00  -7.442886e+01
   3.857470e+01  -9.712651e+01
   9.697362e+01  -4.268397e+01
   1.979595e+02   7.271514e+01
   7.032608e-01   6.202534e+01
  -6.141507e+01   2.843558e+00
  -2.639892e+01  -1.113686e+02
   1.109773e+02  -7.184878e+01
   2.729853e+02   2.769484e+01
   1.902136e+02   1.628456e+02
   1.632696e+01   2.442510e+02
  -2.240424e+02   2.064168e+02
  -2.540684e+02   8.026180e+00
  -1.541480e+02  -7.397560e+00
   6.377287e+01  -3.394212e+01
   2.357918e+01   2.128256e+01
  -1.007381e+02   6.199982e+01
  -1.708640e+02  -4.165136e+00
  -1.493472e+02  -9.243311e+01
  -2.097670e+01  -1.231426e+02
   7.572456e+01  -1.132142e+02
   1.114112e+02   1.949025e+01
   4.586094e+01   1.734489e+01
  -3.973886e+01   1.916258e+01
  -5.609661e+01  -1.277287e+02
   1.041957e+02  -1.414091e+02
   1.856053e+02  -2.065427e+01
   1.433637e+02   1.406216e+02
  -7.530341e+00   1.860326e+02
  -1.578682e+02   1.137606e+02
  -1.636451e+02   1.397454e+01
  -1.411416e+01  -8.662723e+01
   5.317949e+01  -1.228886e+02
   4.361621e+01  -2.437428e+01
  -3.558586e-01  -9.327416e+00
   1.308470e+01  -1.185964e+01
   4.297917e+01  -4.025013e+01
   7.401443e+01   1.288477e+01
   1.108259e+02   9.284145e+01
   2.191592e+01   1.812066e+02
  -1.481748e+02   1.639482e+02
  -2.176518e+02   2.282400e+01
  -2.113450e+02  -1.742170e+02
  -4.577770e+01  -2.482780e+02
   3.709905e+01  -1.489128e+02
   1.122605e+02  -2.205976e+01
   8.053683e+01   1.456520e+01
   5.999124e+01  -2.581104e+01
   4.611480e+01  -5.811506e+01
   9.586424e+01  -2.104561e+01
   2.512404e+01   3.576450e+01
  -6.915554e+01   1.268263e+02
  -1.269560e+02   6.853535e+01
  -8.611050e+01  -7.916921e+01
   3.309345e+01  -1.613459e+02
   1.953733e+02  -9.437064e+01
   2.555826e+02   7.100555e+01
   8.608360e+01   2.052146e+02
  -1.506929e+02   2.253708e+02
  -2.748309e+02   4.813717e+01
  -2.134595e+02  -9.919503e+01
  -1.069860e+02  -2.114404e+02
   5.441010e+01  -1.553019e+02
   1.311289e+02  -1.138461e+02
   5.844263e+01  -8.701144e+01
   9.952177e+01  -1.399767e+02
   9.128524e+01  -9.963737e+01
   1.641018e+02  -3.058174e+00
   1.217646e+02   1.592275e+02
   2.289087e+01   2.028612e+02
  -8.238036e+01   1.591191e+02
  -1.815014e+02  -3.812369e+01
  -1.226342e+02  -1.291126e+02
   7.227712e+00  -1.629719e+02
   6.208181e+01  -4.218888e+01
   7.498487e+01   2.845731e+01
   1.928121e+01   5.142507e+01
  -1.836698e+01   4.665033e+01
   5.547028e+01   2.338513e+01
   8.641377e+01   4.423967e+01
   4.586220e+01   4.055732e+01
  -6.999355e+01   5.184812e+01
  -1.803603e+02  -1.326939e+01
  -8.747145e+01  -7.177048e+01
   1.860751e+01  -1.280323e+02
   8.846512e+01  -1.148203e+02
   9.928339e+01   1.689247e+01
   2.009738e+01   7.930783e+01
  -1.511655e+01   4.839305e+01
  -1.178970e+01  -3.129171e+01
  -3.085367e+01  -6.377340e+01
   5.858322e+01  -4.775631e+01
   6.014660e+01   3.669252e+01
   6.159738e+01   9.315371e+01
   5.322759e+01   1.799396e+01
   1.455567e+01   2.615933e+01
   6.443639e+01   3.161789e+01
   7.764497e+01   7.561828e+01
  -2.568481e+01   1.442082e+02
  -1.123680e+02   1.508850e+02
  -1.656469e+02   2.465430e+01
  -1.324250e+02  -1.038243e+02
   3.872138e+01  -7.788799e+01
   7.298938e+01  -6.707065e+01
   1.036601e+02   4.137267e+01
  -7.014172e+01  -4.543772e+00
  -1.101299e+02  -5.557780e+01
  -2.831419e+01  -7.780468e+01
   1.155881e+02  -1.168969e+02
   1.465431e+02  -4.245042e+00
   1.347896e+02   5.655815e+01
   4.002701e+01   6.268874e+01
  -7.029926e+01   3.571016e+01
  -4.440909e+01  -1.039653e+01
   5.448248e+01  -2.504978e+01
   9.064149e+01   2.370031e+01
   4.595484e+01   1.598128e+02
  -7.701154e+01   1.917388e+02
  -9.291231e+01   8.459006e+01
  -1.232089e+02  -8.688431e+01
  -6.524554e-01  -1.555559e+02
   1.050996e+02  -8.352094e+01
   1.372522e+02   5.529089e+01
   1.809919e+01   1.241386e+02
  -8.426120e+01   1.000791e+02
  -3.542929e+01  -1.390049e+00
  -1.061759e+01  -5.413830e+01
  -2.676523e+01  -3.490859e+01
  -4.659844e+00   1.978136e+01
  -5.679861e+01  -2.773924e+01
  -7.401130e+01  -9.620406e+01
  -4.040817e+01  -5.592808e+01
   2.871038e+01  -6.182417e+01
   1.251093e+02   2.913933e+01
   7.349816e+01   7.747766e+01
   4.535447e+01   7.521660e+01
  -4.094932e+01   8.154156e+01
  -5.636443e+01   5.379581e+00
  -3.027961e+01  -1.468756e+01
   3.998889e+01  -6.676120e+01
   4.535074e+01  -1.119471e+01
  -1.012816e+01   1.795621e+01
   9.478673e+00  -2.073026e+01
   3.980750e+01  -1.544682e+01
   8.811317e+01  -2.575512e+01
   1.250107e+01   3.160703e+01
  -1.313672e+02   6.240128e+01
  -1.942188e+02   3.946859e+01
  -1.283463e+02  -9.200569e+01
  -3.549746e+01  -2.147862e+02
   7.213429e+01  -1.374537e+02
   1.648261e+02   7.744539e+00
   1.014271e+02   4.010818e+01
   3.237622e+01  -8.374236e+00
  -1.178823e+00   4.900118e+01
   2.249177e+00   3.088618e+01
   2.352967e+01   5.024898e+01
  -5.853155e+00   1.023585e+02
  -2.666322e+00   6.457490e+01
  -7.188658e+01  -2.822164e+01
  -1.163453e+02  -1.481923e+01
  -6.253609e+01  -1.108724e+02
   8.524324e+01   1.139842e+00
   9.974197e+01   2.880051e+01
   2.805323e+01   8.123281e+01
  -3.439132e+01   3.794907e+01
  -8.357246e+01  -3.324168e+01
  -2.347507e+01  -9.305003e+01
   6.059729e+01  -7.209935e+01
   6.918929e+01   2.815158e+01
  -1.004347e+01  -2.025175e+01
  -6.697122e+01   8.258089e+00
  -2.894183e+01  -1.552131e+01
   1.115531e+02  -4.136465e+01
   1.447894e+02  -4.711835e+01
   5.863890e+01   1.577576e+01
  -5.495078e+00   1.650961e+02
  -3.739854e+01   1.011955e+02
  -5.829834e+01   2.084569e+00
  -1.875254e+01  -2.385793e+01
   4.065782e+01  -6.507119e+01
   3.145244e+01  -2.753050e+01
   2.746007e+01   4.263651e+01
  -2.488523e+01   6.163976e+01
  -3.613909e+01  -3.001959e+01
  -2.486455e+01  -3.326584e+01
  -5.400638e+01  -4.651021e+01
   6.970546e+01   2.465643e+01
   1.642785e+01  -1.549541e+01
  -1.460390e+01  -1.806984e+01
   2.945467e+01  -4.574450e+01
   5.856983e+01  -2.785661e+01
   3.006026e+01   5.872250e+01
  -8.460043e+00   1.189135e+02
  -7.695523e+01   2.886997e+01
  -2.672379e+01  -2.236330e+01
  -2.950914e+01  -8.955167e+01
   4.982601e+01  -1.565393e+01
   1.083110e+02   1.602256e+01
   6.334130e+01   7.967622e+01
   1.328202e+01   4.703367e+01
  -7.163037e+01   5.678490e+01
  -5.362251e+01  -2.318178e+01
   2.607386e+01  -1.360859e+01
   2.766018e+01   1.574453e+01
  -4.883676e+01   3.761217e+01
  -9.477991e+01   1.469701e+01
