
 $NMID
 id='ANONYMOUS ', fmtdat='(2E16.6)'
 volume=1.0
 tramp=1.0
 $END
  -3.929765e+03   8.259948e+01
  -2.447572e+03  -1.992772e+03
   5.775718e+02  -2.431357e+03
   2.016447e+03  -9.696229e+02
   9.734725e+02   3.532865e+02
  -4.291075e+02   4.082134e+02
  -7.932230e+02  -3.030529e+02
  -3.134624e+01  -9.520410e+02
   7.698391e+02  -7.679386e+02
   8.381839e+02   7.236622e+01
   4.138185e+02   7.647014e+02
  -1.488050e+02   7.857647e+02
  -4.224534e+02   1.417005e+02
  -3.171989e+02  -5.243457e+02
   2.173743e+02  -7.491477e+02
   5.686924e+02  -4.576909e+01
   3.448360e+02   5.989000e+02
  -1.828039e+02   6.396695e+02
  -5.495233e+02   1.557650e+02
  -3.308049e+02  -3.044350e+02
   6.009872e+01  -3.923391e+02
   2.404572e+02  -2.643343e+02
   2.084261e+02   4.891715e+01
  -1.129551e+02   1.313789e+02
  -3.858363e+02  -9.218481e+01
  -1.931208e+02  -3.754255e+02
   4.822743e+02  -3.161636e+02
   7.719349e+02   1.925407e+02
   2.546297e+02   5.108943e+02
  -4.163550e+02   4.510628e+02
  -6.736573e+02   2.270315e+01
  -2.411777e+02  -3.888246e+02
   2.592654e+02  -3.908594e+02
   4.664254e+02  -1.579461e+02
   3.432727e+02   1.843375e+02
  -1.291915e+00   4.175792e+02
  -1.691352e+02   2.469386e+02
  -9.089596e+01  -1.929586e+02
   1.513251e+02  -3.899120e+02
   3.717635e+02   2.362316e+01
   2.491591e+02   6.086535e+02
  -2.837568e+02   6.242699e+02
  -4.928656e+02  -5.685917e-01
  -2.151690e+02  -5.240941e+02
   2.140076e+02  -2.664819e+02
   3.143385e+02   3.188574e+02
  -4.982721e+01   5.195117e+02
  -4.728616e+02   1.166862e+02
  -5.481082e+02  -3.810443e+02
  -1.584964e+02  -4.983986e+02
   3.267341e+02  -2.630189e+02
   5.871052e+02   9.681170e+01
   3.493158e+02   3.212678e+02
  -1.330441e+02   2.677971e+02
  -3.804780e+02   8.925742e+01
  -2.155642e+02  -1.030469e+02
   7.445734e+01  -3.961121e+01
   1.061872e+02   1.557142e+02
  -1.836827e+02   1.808169e+02
  -3.014078e+02  -1.245106e+02
  -1.245179e+02  -2.608842e+02
   1.741223e+02  -2.614680e+02
   3.070653e+02  -6.851930e+01
   1.915182e+02   1.091840e+02
  -3.332130e+01   2.715301e+02
  -2.027444e+02   3.253798e+02
  -3.496312e+02   1.895749e+02
  -2.598440e+02  -1.842708e+02
  -4.434362e+01  -5.000345e+02
   1.061065e+02  -3.148466e+02
   3.766677e+01  -1.127412e+02
   1.129642e+01  -3.239513e+01
   7.298706e+01  -1.096183e+02
   2.468832e+02  -1.139267e+02
   2.569527e+02   1.254085e+02
   1.687126e+02   3.129149e+02
  -8.164909e+01   2.335123e+02
  -1.866696e+02   6.363262e+00
  -1.842480e+02  -2.083723e+02
   5.288343e+01  -2.797347e+02
   2.483015e+02  -1.082957e+02
   3.481631e+02   1.557439e+02
   1.938823e+02   3.248156e+02
  -6.469487e+01   3.234196e+02
  -2.313600e+02   1.005817e+02
  -2.010162e+02  -1.014959e+01
  -5.616298e+01   3.315617e+01
  -2.282091e+02   9.324653e+01
  -3.662558e+02  -3.784949e+01
  -3.502124e+02  -2.302703e+02
  -1.732128e+01  -3.527999e+02
   3.237199e+02  -3.690587e+02
   4.473326e+02  -1.640321e+02
   2.919418e+02   5.555740e+01
   8.636884e+01   1.947293e+02
  -6.929614e+01   2.224991e+02
   4.033113e+00   1.937530e+01
   9.419076e+01  -5.539338e+01
   1.512746e+02  -1.683880e+01
   4.164930e+01   1.932190e+02
  -1.160181e+02   1.697206e+02
  -1.202053e+02  -3.816747e+01
   3.565293e+01  -1.905706e+02
   1.616184e+02  -3.070702e+00
   1.929887e+02   2.609206e+02
  -6.209561e+01   3.395460e+02
  -2.388684e+02   1.765469e+02
  -3.273175e+02  -6.361837e+01
  -2.962007e+02  -2.355905e+02
  -1.111659e+02  -2.572687e+02
   7.918364e+01  -1.624517e+02
   1.434516e+02  -4.534781e+01
   2.790712e+01  -1.026159e+01
  -4.308866e+01  -9.105501e+01
  -1.912097e+01  -1.204263e+02
   1.455725e+02  -1.137923e+02
   2.333248e+02   9.369063e+00
   8.476776e+01   6.819544e+01
  -4.610395e+01   8.612024e+01
  -5.772423e+01  -7.732821e+01
   1.352005e+02  -1.129143e+02
   2.862574e+02   1.253110e+01
   2.669702e+02   1.447548e+02
   5.055564e+01   2.412429e+02
  -1.838020e+02   2.562185e+02
  -2.648593e+02   6.873054e+01
  -1.593120e+02  -3.379259e+01
  -2.063064e+00  -7.502147e+01
   7.254600e+01   2.878836e+01
  -6.980618e+01   5.126423e+01
  -1.720279e+02   8.056922e+01
  -2.347608e+02  -5.031713e+01
  -9.246438e+01  -2.422687e+02
   5.535153e+01  -1.839012e+02
   1.816920e+02  -8.800093e+01
   4.723629e+01   2.095411e+01
  -6.033868e+00  -3.487729e+01
   1.591513e+01  -5.784649e+01
   8.273878e+01  -8.443521e+01
   2.229701e+02   6.841635e+00
   1.548173e+02   1.344574e+02
   1.378808e+01   1.669931e+02
  -1.787822e+02   1.115722e+02
  -1.976747e+02  -2.262477e+01
  -2.078302e+01  -9.143945e+01
   1.189177e+02  -1.481424e+02
   1.106048e+02  -8.493545e+01
   1.726000e+01   3.458959e+01
  -5.091016e+01   6.118356e+01
  -1.422107e+01  -4.853971e+00
   4.013684e+01   6.389151e+01
   6.812277e+01   8.776330e+01
   3.048000e+01   1.923183e+02
  -1.504928e+02   1.569118e+02
  -2.158785e+02   5.753876e+01
  -1.709517e+02  -1.819880e+02
  -5.428752e+01  -2.280990e+02
   6.599946e+01  -1.366017e+02
   1.126974e+02  -3.687230e+01
   4.499148e+01   5.809078e+01
   6.061740e+01  -1.505770e+01
   6.866880e+01   1.522845e+01
   4.875775e+01  -2.430834e+01
   3.629617e+01  -2.883412e+01
  -6.308899e+01   8.376443e+01
  -7.702828e+01   3.546200e+01
  -6.813208e+01  -3.657239e+01
   6.071897e+01  -8.076202e+01
   1.485916e+02  -6.294963e+01
   2.454094e+02   4.422936e+01
   6.011882e+01   2.449752e+02
  -1.145776e+02   2.190966e+02
  -2.350783e+02   1.036555e+02
  -2.316515e+02  -1.201840e+02
  -9.700984e+01  -1.869005e+02
   1.155154e+02  -1.061055e+02
   1.564814e+02  -1.009730e+02
   8.492719e+01  -5.268288e+01
   5.551515e+01  -4.905814e+01
   4.851001e+01  -3.131490e+01
   1.606879e+02   1.655529e+01
   1.318092e+02   1.243094e+02
   4.377592e+01   1.836756e+02
  -6.177253e+01   1.705699e+02
  -1.911043e+02   4.136487e-01
  -1.247462e+02  -9.710822e+01
  -2.342510e+01  -1.761757e+02
   1.244128e+02  -1.151377e+02
   1.124180e+01  -1.700198e+01
  -6.285920e+01   5.818891e+01
  -3.737528e+01  -3.728140e+00
   1.280848e+01   2.281716e+01
   9.026209e+01   3.393674e+01
   8.894090e+01   1.336746e+01
  -2.887882e+01   4.063012e+01
  -1.603067e+02   5.438866e+00
  -8.606639e+01  -5.855251e+01
  -1.156221e+01  -5.565325e+01
   7.432912e+01   6.567653e+00
   1.082437e+02   5.306529e+01
   1.702658e+01   3.827834e+01
  -3.628370e+01   2.507766e+01
  -3.172264e+01  -6.253951e+01
  -5.935444e+00  -5.326474e+01
   3.155020e+00  -3.940000e+01
   1.979370e+01   1.894942e+01
   4.434993e+01   4.908923e+01
   1.399387e+01   5.420779e+00
   6.342676e+01   3.035967e+01
   3.293587e+01  -2.134809e+01
  -2.904153e+00   8.856741e+01
  -5.080495e+01   1.402501e+02
  -1.525557e+02   9.816473e+01
  -1.991095e+02   2.971297e-01
  -6.663971e+01  -1.037983e+02
   4.598738e+01  -1.052921e+02
   1.223142e+02  -4.046312e+01
   4.812017e+01   6.694831e+00
  -6.213172e+01   1.316848e+01
  -1.489297e+02  -2.723856e+01
  -4.150804e+01  -9.128638e+01
   7.842191e+01  -8.992378e+01
   1.801809e+02  -4.488435e+01
   1.660816e+02   4.845037e+01
   1.555099e+01   8.660026e+01
  -7.632865e+01   6.023832e+01
  -5.947875e+01  -2.718674e+01
   3.993088e+01  -5.925062e+01
   2.006365e+01   3.495725e+01
   4.087343e+01   1.269799e+02
  -8.208414e+01   1.314450e+02
  -1.404552e+02   4.751575e+01
  -9.675690e+01  -9.836749e+01
   4.478644e+01  -1.572690e+02
   9.402240e+01  -9.449742e+01
   1.135915e+02  -2.299220e+01
   7.468082e+01   1.515449e+02
  -4.708059e+00   1.004905e+02
  -5.251571e+01  -5.938017e+00
  -1.491931e+01  -5.740117e+01
  -3.387815e+01  -2.234388e+01
  -8.911819e+00  -7.440568e-02
  -2.481502e+01   9.641742e-02
  -7.741584e+01  -6.490020e+01
  -5.756555e+01  -1.014813e+02
   4.141761e+01  -1.209201e+02
   8.400259e+01   4.754833e+01
   1.437113e+02   4.118320e+01
   2.853859e+01   5.629668e+01
  -1.136044e+02   3.597575e+01
  -9.561518e+01   2.489911e+01
   1.877127e+01   3.371900e+01
   1.256743e+01   8.777958e+00
  -7.768028e+00  -5.485012e+00
  -2.689162e+01   3.159780e+01
  -1.221885e+01  -1.826576e+01
   4.871995e+01   1.038134e+01
   1.084388e+02   6.372560e+00
  -2.030306e+01   3.871739e+01
  -1.207411e+02   5.239375e+01
  -1.677125e+02   7.490744e+01
  -1.554347e+02  -5.067670e+01
  -3.438259e+01  -1.324619e+02
   5.236014e+01  -1.346886e+02
   7.213053e+01  -3.383431e+01
   8.639184e+01  -1.384538e+01
   2.673083e+01   6.757343e+00
  -3.407790e+01  -2.955855e+01
   5.616213e+00   2.702710e-01
   9.035386e+00   3.872164e+01
   1.363757e+01   4.747722e+01
  -3.256872e+01   8.581298e+01
  -9.753413e+01  -5.968198e+01
  -2.516734e+01  -9.025756e+01
  -1.831411e+01  -8.449258e+01
   8.576963e+01   2.818197e+00
   1.228368e+02   3.813442e+01
   5.015448e+01   1.215777e+02
  -8.220388e+01   6.066474e+01
  -9.276775e+01  -9.090828e+00
  -4.556474e+01  -5.654479e+01
   2.050124e+01  -4.316867e+01
   6.774101e+01  -2.210675e+00
  -1.100577e-01   4.664345e+01
  -5.768614e+01   3.877599e+01
  -2.812489e+01  -3.872102e+01
   9.549779e+01  -3.847887e+01
   1.354358e+02  -2.149696e+00
   2.099674e+01   2.612711e+01
  -4.428452e+01   4.634641e+01
  -6.746174e+00   8.506263e+01
   2.588351e+01   2.639094e+01
  -1.007550e+01  -2.949162e+01
   6.679541e+01  -4.933430e+01
   7.984926e-01   1.430172e+01
   2.812468e+01   2.953291e+01
   4.426336e+01   4.762674e+01
  -4.033473e+01   3.423229e+01
   3.511152e+00  -3.942564e+01
  -6.818367e+01   1.942695e+01
  -8.996093e+00   8.025902e+00
  -3.158015e+01  -4.019701e+00
  -2.152291e+01  -4.123413e+01
   2.617054e+01  -9.082230e+01
   6.641598e+01  -2.565873e+00
   8.877099e+01   3.556722e+01
   3.709950e+01   1.402993e+01
  -5.949291e+01   1.584031e+00
  -6.611118e+01  -3.174581e+01
  -9.034202e+00  -3.297325e+01
   5.045522e+01  -2.796438e+01
   7.876399e+01   9.253976e+00
   4.322762e+01   4.065896e+01
  -3.290193e+01   3.659172e+01
  -6.184029e+01   5.576132e-01
  -7.006456e+01   2.833541e+01
  -9.779816e+00   1.087143e+01
   3.742479e+01   2.575234e+01
  -5.651238e+01   2.683700e+00
  -1.003717e+02  -7.037873e+01
