
 $NMID
 id='ANONYMOUS ', fmtdat='(2E16.6)'
 volume=1.0
 tramp=1.0
 $END
  -2.744265e+03  -1.177487e+00
  -1.813461e+03  -1.372433e+03
   1.779147e+02  -1.538573e+03
   1.010885e+03  -8.474955e+02
   6.544745e+02  -2.898503e+02
   1.287176e+02   4.127429e+01
  -2.216808e+02  -2.446498e+01
  -5.422535e+01  -4.472073e+02
   3.223215e+02  -4.827259e+02
   4.911594e+02  -8.816508e+01
   3.453962e+02   3.381919e+02
   7.633849e+01   5.012202e+02
  -1.871554e+02   1.796045e+02
  -2.257330e+02  -3.043498e+02
   3.323208e+01  -3.507496e+02
   2.884272e+02  -6.736633e+01
   2.677520e+02   3.358950e+02
  -4.992084e+01   4.909855e+02
  -3.663303e+02   2.614748e+02
  -3.588989e+02  -1.198933e+02
  -1.443165e+02  -2.624882e+02
   1.138352e+02  -1.863223e+02
   4.015878e+01  -2.579170e+01
  -1.225072e+02  -6.811504e+01
  -2.393259e+02  -2.591783e+02
  -4.329794e+01  -2.393816e+02
   2.687553e+02  -1.121494e+02
   4.839425e+02   2.339393e+02
   1.035706e+02   3.105870e+02
  -3.453900e+02   1.373596e+02
  -4.893183e+02  -1.809616e+02
  -1.800801e+02  -3.358280e+02
   2.131708e+02  -2.979749e+02
   4.701576e+02  -9.680604e+01
   3.017320e+02   9.397831e+01
   1.239494e+02   2.384234e+02
   4.400099e+01   1.627021e+02
   8.014867e+01  -2.877046e+01
   2.024498e+02  -2.534286e+01
   1.717325e+02   2.128830e+02
  -4.215039e+01   4.472631e+02
  -2.685357e+02   3.764511e+02
  -3.021216e+02  -1.557324e+01
  -1.539530e+02  -3.120574e+02
   6.623269e+01  -7.723121e+01
   1.156877e+02   2.218364e+02
  -1.328316e+02   3.213860e+02
  -3.522597e+02   1.546448e+00
  -3.856967e+02  -3.269078e+02
  -1.194326e+02  -4.220075e+02
   2.656631e+02  -2.240715e+02
   4.196055e+02   6.681373e+01
   2.861303e+02   2.279309e+02
  -3.217330e+01   2.562493e+02
  -1.922278e+02   8.010739e+01
  -1.123393e+02  -2.871644e+01
  -4.142026e+01  -2.651505e+01
  -1.562596e+01  -2.414620e+01
  -1.060879e+02   4.133842e+01
  -1.444955e+02  -1.530718e+01
  -1.195029e+02  -1.345598e+02
   1.533664e+02  -1.667101e+02
   3.034580e+02  -1.148967e+02
   2.598587e+02   7.651507e+01
   2.166119e+01   2.627235e+02
  -2.554817e+02   2.896357e+02
  -3.363364e+02   1.248675e+02
  -1.833641e+02  -1.402456e+02
  -3.165197e+01  -2.663878e+02
   6.043617e+01  -2.805276e+02
   4.897352e+01  -1.681506e+02
   1.850464e+01  -8.132093e+01
   1.425661e+02  -8.019949e+01
   2.566848e+02  -3.418956e+01
   2.023332e+02   1.344800e+02
   9.866922e+01   2.395640e+02
  -8.941083e+01   1.301398e+02
  -1.807760e+02  -7.707568e+01
  -1.046229e+02  -1.983026e+02
   2.823970e+01  -2.008443e+02
   1.698519e+02  -7.364334e+01
   2.657608e+02   1.547588e+02
   1.518264e+02   2.351103e+02
  -7.026195e+00   2.103797e+02
  -7.981994e+01   5.824135e+01
  -1.279628e+02   1.293705e+02
  -1.399207e+02   1.084235e+02
  -2.614540e+02   4.776105e+01
  -3.590586e+02  -8.568564e+01
  -2.543615e+02  -2.729406e+02
   9.691653e-01  -3.898584e+02
   3.696660e+02  -3.561435e+02
   4.372117e+02  -1.446988e+02
   2.519955e+02   1.082483e+02
  -1.030321e+01   2.130940e+02
  -6.504500e+01   1.494334e+02
   6.554522e+00   1.179433e+01
   1.157081e+02  -6.890662e+01
   1.236192e+02   3.910038e+01
   1.174224e+01   1.113289e+02
  -7.803606e+01   8.630801e+01
  -1.398938e+01  -3.996464e+00
   2.778773e+01  -9.002011e+01
   1.279724e+02  -2.102954e+01
   1.426792e+02   2.057238e+02
  -3.838870e+01   2.944924e+02
  -1.901013e+02   1.874911e+02
  -3.730587e+02  -6.285918e+01
  -2.463994e+02  -2.229552e+02
  -4.086753e+01  -2.514174e+02
   8.159162e+01  -1.480845e+02
   1.471548e+02  -1.233030e+01
   1.165403e+01   2.059511e+01
  -4.687235e+01  -3.103575e+01
   1.939837e+01  -6.933283e+01
   8.697404e+01  -4.301094e+01
   8.573745e+01  -1.889268e+01
   4.752370e+01  -3.412283e+01
  -6.536334e+01  -1.517620e+01
  -2.093232e+01  -9.972252e+01
   1.679026e+02  -9.697952e+01
   2.525661e+02   2.628197e+01
   2.227200e+02   1.610459e+02
   2.378986e+01   2.191405e+02
  -1.743942e+02   2.451603e+02
  -2.579373e+02   4.890970e+01
  -1.585749e+02  -6.869687e+01
   1.957491e+01  -5.445522e+01
   4.756062e+01   1.001268e+01
  -3.890800e+01   3.326918e+01
  -1.419905e+02   1.583686e+00
  -1.710215e+02  -7.016732e+01
  -4.383667e+01  -9.192794e+01
   6.130773e+01  -1.063515e+02
   3.919110e+01   2.036993e+01
  -1.112939e+01  -1.031398e+01
  -1.535658e+01  -9.038498e+01
   1.416929e+01  -1.253435e+02
   1.045564e+02  -7.729598e+01
   1.562193e+02   5.292008e+01
   1.511720e+02   1.379726e+02
  -8.483498e+00   1.695741e+02
  -1.535357e+02   1.059099e+02
  -1.637417e+02  -4.915098e+01
  -3.253043e+01  -1.064543e+02
   4.556451e+01  -7.911432e+01
   4.965394e+01  -2.334209e+00
  -2.099611e+01   6.080917e+01
  -7.914754e+01   1.981509e+01
  -9.108127e+00  -5.210915e+01
   7.062707e+01   1.373134e+01
   6.071707e+01   3.422943e+01
   2.421493e-01   1.521500e+02
  -1.565620e+02   1.234644e+02
  -2.407084e+02  -4.123910e+01
  -2.002343e+02  -1.789493e+02
  -2.129084e+01  -2.233602e+02
   1.117883e+02  -1.745635e+02
   9.726926e+01  -6.930141e+01
   9.335859e+01   9.536161e+00
   3.933189e+01   2.686460e+01
   3.368966e+01   1.702259e+00
   7.818545e+01   1.207644e+01
   7.479624e+01   2.030573e+01
  -2.182410e+01   5.182602e+01
  -8.179267e+01   4.139924e+01
  -1.017991e+02  -2.881457e+01
   1.158355e+01  -1.166844e+02
   1.150788e+02  -2.641027e+01
   1.675793e+02   9.208153e+01
   9.606659e+01   1.986658e+02
  -6.905648e+01   1.911746e+02
  -2.177429e+02   1.135069e+02
  -2.320357e+02  -1.194557e+02
  -1.261169e+02  -1.979321e+02
  -9.516290e+00  -1.478066e+02
   6.527229e+01  -1.165168e+02
   6.817822e+01  -3.160838e+01
   3.145129e+01  -7.483298e+01
   5.578542e+01  -3.461006e+01
   1.214546e+02   6.596475e+01
   3.396685e+01   9.464830e+01
   5.359079e+00   1.563760e+02
  -7.312289e+01   1.411644e+02
  -9.444892e+01   3.151007e+01
  -9.581428e+01  -1.026163e+02
   1.744999e+01  -1.100140e+02
   6.143837e+01  -6.394845e+01
   8.604840e+00   4.920458e+01
  -1.016658e+01   7.506196e+01
  -2.944307e+01   7.896191e+01
   2.040199e+01   5.052117e+01
   6.587596e+01   4.601753e+01
   1.713814e+01   9.131759e+00
  -7.722694e+01   3.556136e+01
  -1.637003e+02  -7.506821e+01
  -8.430603e+01  -9.095188e+01
  -3.302171e+00  -1.038574e+02
   1.199146e+02  -5.300181e+01
   1.516531e+02   4.500889e+01
   3.801561e+01   5.425542e+01
  -1.765969e+00  -1.325407e+01
  -6.829632e+01  -5.913877e+01
  -3.722725e+01  -8.881993e+01
   3.813919e+01  -5.613776e+01
   4.471297e+01   2.539944e+00
   2.809245e+01   7.808775e+01
   2.018714e+01   5.619420e+01
   4.046136e+01   5.273078e+01
   4.183169e+01  -3.069166e+01
   6.543767e+01   7.899266e+01
  -5.484472e+01   1.262821e+02
  -1.063615e+02   1.249884e+02
  -1.702576e+02   3.662448e+00
  -1.067375e+02  -9.779272e+01
   2.912713e+01  -1.015123e+02
   3.909745e+01  -6.465297e+01
   4.477436e+01   6.274252e+00
  -5.159392e+01  -8.740864e-01
  -1.470897e+02  -1.444065e+01
  -9.107356e+01  -6.091696e+01
  -1.217395e+01  -7.826665e+01
   1.263453e+02  -1.304154e+01
   1.291258e+02   8.306307e+01
   2.279124e+01   7.076795e+01
  -6.240080e+01   2.175650e+01
  -1.352741e+01   3.994768e+01
   5.621708e+01  -5.729521e+00
   7.063907e+01   9.531976e+00
   7.551607e+01   1.073985e+02
  -8.368011e+01   1.402312e+02
  -1.333957e+02   3.193579e+01
  -7.616856e+01  -4.060936e+01
  -4.931491e-01  -1.681660e+02
   5.166656e+01  -1.094496e+02
   7.624471e+01   1.913095e+01
   7.791593e+01   1.203662e+02
  -2.208257e+01   1.401394e+02
  -5.026907e+01   1.769665e+01
  -1.009623e+02  -1.544204e+01
  -7.520314e+01  -2.835778e+00
  -1.551233e+01   5.173165e+00
  -1.514365e+01  -5.933082e+01
  -6.538930e+01  -1.150043e+02
  -1.000545e+01  -8.342588e+01
   1.553190e+01  -3.786257e+01
   1.124169e+02   5.092419e+01
   8.635867e+01   7.844076e+01
  -4.267379e+00   4.288693e+01
  -1.151297e+02  -2.853349e+01
  -6.505359e+01  -1.333443e+01
  -6.551736e+01   1.526880e+01
   4.318800e+01  -1.636867e+01
   5.305918e+01  -1.251138e+01
  -3.765472e+01   1.374421e+01
  -5.591697e+01  -1.066259e+01
   6.161776e+01  -3.946289e+01
   6.546158e+01   3.922475e+01
   3.397472e+01   3.625484e+01
  -8.267656e+01   1.023531e+02
  -1.721314e+02   5.092322e+01
  -1.609290e+02  -5.169915e+01
  -2.473863e+01  -1.053222e+02
   2.824751e+01  -1.516658e+02
   9.838358e+01  -8.347637e+01
   9.082461e+01   1.578079e+01
   6.201471e+01   3.239797e+01
  -7.939974e+00   4.760707e+01
  -3.846932e+00   5.183121e+01
   1.210897e+00   6.333691e+01
  -1.424714e+01   7.366963e+01
  -2.958701e+01   4.774866e+01
  -6.862130e+01  -5.128011e+01
  -1.170950e+02  -1.344038e+02
  -3.351888e+01  -9.688872e+01
   5.440449e+01  -3.132934e+01
   8.094068e+01   1.166845e+02
   4.368628e+01   1.095286e+02
  -6.131318e+01   6.847797e+01
  -8.660321e+01  -3.778862e+01
  -2.710923e+01  -4.378198e+01
   3.757207e+01   3.941862e+00
   3.426825e+01  -2.160246e+01
  -1.797788e+01   1.059729e+01
  -6.782178e+01   6.368049e+01
   4.297033e+00  -2.174629e-01
   5.903169e+01  -1.011338e+02
   1.069845e+02  -3.446489e+01
   8.549317e+01   1.389122e+01
   1.783201e+01   4.708673e+01
  -1.060211e+01   9.471154e+01
  -6.873454e+01  -7.251576e+00
  -8.265133e+00  -8.062797e+01
  -1.272435e+01  -2.793104e+01
   7.033046e+01  -8.647536e+00
   1.666818e+01   5.337101e+01
   1.623833e+01   2.723010e+01
  -5.811170e+01  -2.287998e+00
  -4.498269e+01  -6.401814e+00
  -9.592223e+00   9.764916e+00
   3.826920e+01  -3.051494e+01
   2.753164e+01  -5.666314e+00
  -8.315044e+00  -3.042971e+01
   2.242952e+01  -6.600166e+01
   5.048749e+00  -1.033217e+01
   4.640099e+01  -2.082713e+01
  -9.981708e+00   7.261269e+01
  -7.286610e+01   1.925841e+01
  -4.098299e+01   2.521896e+01
  -2.252462e+01  -1.153671e+02
   4.861057e+01  -5.297856e+01
   6.075667e+01  -4.638788e+01
   7.410838e+01   2.663645e+01
  -3.622437e+00   6.880172e+01
  -8.043833e+00   2.102548e+01
  -3.248675e+01   3.220445e+01
   3.413689e+01   1.144542e+01
   4.555173e+01  -6.154370e+01
  -7.673210e+00   2.152757e+01
  -4.789910e+01  -1.629089e+00
