
 $NMID
 id='ANONYMOUS ', fmtdat='(2E16.6)'
 volume=1.0
 tramp=1.0
 $END
   4.620260e+03  -2.363522e+02
   2.779530e+03   2.713778e+03
  -8.643136e+02   3.071062e+03
  -2.470855e+03   1.031827e+03
  -1.154049e+03  -8.445797e+02
   5.927213e+02  -5.087898e+02
   9.067287e+02   4.218006e+02
  -1.208137e+01   1.089537e+03
  -9.529157e+02   8.840980e+02
  -1.060964e+03  -5.326228e+01
  -4.522472e+02  -9.268950e+02
   3.805257e+02  -8.896369e+02
   7.442792e+02  -1.239740e+02
   4.752662e+02   7.690924e+02
  -2.051185e+02   7.797049e+02
  -5.978853e+02   5.540371e+01
  -3.273501e+02  -7.014565e+02
   3.085710e+02  -7.041792e+02
   7.246528e+02  -5.413992e+01
   3.824455e+02   4.833812e+02
   1.492851e+01   5.397197e+02
  -2.072086e+02   2.824276e+02
  -1.065889e+02  -1.531065e+01
   1.309412e+02   4.869999e+01
   4.133684e+02   1.826943e+02
   1.201623e+02   4.495542e+02
  -4.197629e+02   3.105654e+02
  -8.533862e+02  -1.486188e+02
  -3.854892e+02  -6.340632e+02
   4.336229e+02  -4.731822e+02
   7.713045e+02   8.785423e+01
   3.516263e+02   5.368414e+02
  -2.981422e+02   5.130774e+02
  -5.953602e+02   1.200142e+02
  -4.179950e+02  -2.946415e+02
  -2.574448e+01  -4.852805e+02
   2.046912e+02  -2.949677e+02
   2.191774e+02   2.051638e+02
  -1.624052e+02   4.360931e+02
  -4.096945e+02  -6.363121e+01
  -1.781268e+02  -7.334308e+02
   3.193685e+02  -7.410226e+02
   6.087451e+02   2.078408e+01
   2.578270e+02   5.627448e+02
  -2.559867e+02   3.216540e+02
  -4.008338e+02  -3.534854e+02
   1.092179e+02  -5.798211e+02
   5.559842e+02  -1.684135e+02
   5.992941e+02   3.974816e+02
   1.588978e+02   6.208743e+02
  -3.974886e+02   3.479602e+02
  -6.757682e+02  -1.220365e+02
  -3.458873e+02  -4.395482e+02
   2.035734e+02  -3.939787e+02
   4.223502e+02  -7.517439e+01
   2.623175e+02   1.557613e+02
  -1.018833e+02   1.278073e+02
  -1.377000e+02  -1.368430e+02
   1.685678e+02  -1.570918e+02
   3.205173e+02   7.184552e+01
   1.468877e+02   3.104644e+02
  -2.342291e+02   2.299429e+02
  -3.092840e+02   8.701806e+01
  -2.106043e+02  -1.430710e+02
   6.016349e+01  -2.394209e+02
   2.895827e+02  -2.682607e+02
   3.959670e+02  -2.081776e+02
   2.722435e+02   1.363795e+02
   6.933776e+01   4.218456e+02
  -1.516355e+02   3.863049e+02
  -1.125405e+02   1.184396e+02
  -3.337284e+01   4.183733e+01
  -6.821024e+01   6.160918e+01
  -1.523981e+02   1.144249e+02
  -3.132977e+02  -9.656059e+01
  -1.675925e+02  -3.083319e+02
   1.029204e+02  -2.613193e+02
   2.661309e+02   1.472012e+01
   1.764044e+02   2.451740e+02
   7.727223e+00   2.572293e+02
  -2.907566e+02   1.307554e+02
  -3.928514e+02  -1.675325e+02
  -2.067302e+02  -3.355532e+02
   8.158210e+01  -3.263687e+02
   2.541651e+02  -1.205038e+02
   1.799136e+02   3.827067e+01
   6.331108e+01   9.329965e+00
   1.962759e+02  -3.638304e+01
   3.700368e+02   6.144161e+01
   3.261895e+02   2.679638e+02
  -3.230093e+01   4.165303e+02
  -4.216336e+02   3.734372e+02
  -4.873729e+02   1.591702e+02
  -3.442295e+02  -1.157250e+02
  -4.887585e+01  -2.993245e+02
   1.570196e+02  -2.271322e+02
   9.696206e+01  -9.259324e+01
  -1.634134e+02   9.822355e+01
  -2.247218e+02  -6.739375e+01
  -4.231484e+01  -2.025409e+02
   1.627330e+02  -1.717694e+02
   1.941879e+02   4.972299e+01
  -1.348500e+00   2.176921e+02
  -1.811030e+02   5.455554e+01
  -1.652974e+02  -2.394511e+02
   5.900377e+01  -3.942065e+02
   2.426801e+02  -2.322413e+02
   2.758798e+02   2.952145e+01
   3.176371e+02   2.844952e+02
   1.212606e+02   3.178940e+02
  -1.096175e+02   1.565727e+02
  -1.420944e+02   5.657273e+01
  -9.841961e+01  -2.824532e+01
   9.307379e+01   1.171138e+02
   2.187458e+01   1.419222e+02
  -1.326359e+02   4.493869e+01
  -1.920949e+02   3.650357e+00
  -7.668373e+01  -7.652047e+01
   8.007079e+01   5.688247e+00
   1.000066e+02   4.085342e+01
  -1.083086e+02   7.384969e+01
  -2.624074e+02   4.018639e+00
  -2.540841e+02  -1.595601e+02
  -8.839437e+01  -2.363582e+02
   1.757898e+02  -2.179615e+02
   2.768152e+02  -1.181368e+02
   1.782463e+02   1.146203e+01
  -2.538270e+01   4.872321e+01
  -3.413483e+01  -4.010316e+00
   7.576025e+01  -9.821613e+01
   2.637820e+02  -3.390400e+01
   2.133108e+02   1.168225e+02
   4.395734e+01   2.676398e+02
  -7.298490e+01   1.890497e+02
  -1.605917e+02  -1.062523e+01
  -6.271355e+01  -6.938190e+01
   2.943305e+01   9.260156e+00
  -2.787841e+01   8.520490e+01
  -1.291517e+02   8.029218e+01
  -2.031767e+02   3.311518e+01
  -2.208535e+02  -1.062513e+02
   1.918855e+01  -2.388219e+02
   2.290501e+02  -1.719306e+02
   2.255602e+02  -1.870703e+00
   6.462059e+01   1.059582e+02
  -1.243522e+02   1.572886e+02
  -1.020581e+02   5.411736e+01
  -7.092117e+01  -5.240930e+01
   3.567550e+00  -4.816884e+01
  -2.538574e+01   7.117733e+00
  -6.622959e+01  -2.474722e+01
  -1.021927e+02  -1.478968e+02
   3.347539e+01  -1.566899e+02
   1.260698e+02  -1.861893e+02
   2.355568e+02  -1.811141e+01
   1.547010e+02   1.653338e+02
   3.416475e+01   2.687710e+02
  -7.828035e+01   2.246299e+02
  -9.115137e+01  -7.148501e+00
  -1.247237e+02  -6.062018e+01
  -3.859726e+01  -3.140074e+01
  -6.563972e+01   9.132493e+00
  -8.634339e+01   9.324081e+00
   1.598207e+01  -8.280649e+01
   7.457604e+01  -1.128745e+02
   1.156346e+02  -3.848183e+01
   8.438973e+01   2.420986e+01
  -8.778470e+01   1.470628e+02
  -1.874288e+02   1.285294e+02
  -2.188435e+02  -1.263931e+01
  -1.163520e+02  -2.212599e+02
   1.056553e+02  -2.537068e+02
   2.446163e+02  -8.788076e+01
   2.238997e+02   4.727044e+01
   1.045322e+02   1.677098e+02
  -2.482671e-01   1.430467e+02
  -4.380690e+01   9.831043e+01
  -5.780266e+01   2.096542e+01
  -4.091628e+01   9.129018e+01
  -1.587379e+02   8.527499e+01
  -1.604972e+02   3.583602e+01
  -1.001103e+02  -1.471635e+02
   9.993516e+00  -2.545335e+02
   9.581791e+01  -1.776785e+02
   2.156414e+02  -3.974347e+01
   1.227977e+02   2.150692e+02
  -1.796755e+01   1.739844e+02
  -7.657067e+01   5.499818e+01
  -7.373403e+01  -4.035536e+01
  -6.461894e+00  -3.635403e+01
   4.795018e+01  -2.013165e+01
  -5.722447e+01  -4.422914e+01
  -6.099173e+01  -5.395535e+01
  -4.910898e+01  -3.827584e+01
   9.580295e+01  -4.436457e+01
   2.098906e+02   9.918551e+00
   1.819603e+02   5.552839e+01
   7.699764e+00   1.330248e+02
  -1.550657e+02   8.019148e+01
  -1.741150e+02  -7.314641e+00
  -1.846178e+01  -5.718250e+01
   7.419681e+01  -2.959134e+01
   1.068662e+02   6.550614e+01
  -2.439601e+00   7.393874e+01
  -9.710141e+01   7.768092e+01
  -8.080580e+01  -2.906915e+01
  -6.506230e+01  -5.993582e+01
  -7.001464e+01  -1.108198e+02
  -7.384391e+01   9.567550e+00
  -7.551762e+01  -2.932036e+00
  -1.971351e+01  -1.029188e+02
   6.925975e+01  -1.625697e+02
   1.361429e+02  -1.367977e+02
   1.683550e+02  -1.677138e+01
   9.102204e+01   8.239168e+01
  -1.062808e+01   1.114975e+02
  -9.870230e+01   3.937819e+01
  -6.854259e+01   2.542839e+01
   5.789205e+01  -4.775060e+01
   1.276854e+02   9.702388e+01
   7.560935e+01   1.291044e+02
  -6.000121e+01   9.210669e+01
  -1.867286e+02   9.287929e+00
  -1.811985e+02   1.150103e+01
  -1.404055e+01  -7.860108e+01
   7.206318e+01  -5.967869e+01
   4.361903e+01   2.038042e+01
  -8.346135e+01   1.252099e+01
  -1.762536e+02  -3.448420e+01
  -3.478867e+00  -1.464244e+02
   1.245597e+02  -1.458984e+02
   1.452072e+02  -6.601838e+01
   1.518358e+02   1.408559e+02
  -2.877451e+01   2.201946e+02
  -1.074561e+02   1.435069e+02
  -6.982305e+01  -6.155986e+01
  -2.436399e+01  -1.487532e+02
  -6.013735e+00  -7.630751e+01
   5.512976e+01   4.432361e-01
   6.075164e+01   4.355222e+01
   4.617321e+01  -3.289553e+01
  -4.050982e+00  -4.495914e+01
   8.024193e+00  -1.221390e-01
   1.174431e+02   1.552679e+02
   6.633041e+01   1.183499e+02
  -2.448173e+01   3.123487e+01
  -1.519766e+02  -4.866896e+01
  -1.799028e+02  -9.613799e+01
   4.232943e-01  -6.384767e+01
   1.559934e+02   6.821830e-01
   1.522949e+02   1.737402e+01
   1.821333e+01  -4.352515e+00
  -4.571649e+01   5.175076e+00
  -3.375955e+01   8.693073e+01
   4.185836e+01   1.276235e+01
  -1.274615e+01  -1.989736e+01
  -1.045232e+02   4.520147e+01
  -7.906063e+01  -6.358319e+01
  -3.581404e+01  -1.294442e+02
   1.126996e+02  -1.320029e+02
   1.895505e+02  -8.679137e+01
   1.504490e+02   8.990497e+01
   3.339241e+01   1.637387e+02
  -5.699296e+01   1.316104e+02
  -1.085656e+02   8.056992e+01
  -6.207183e+01  -2.511260e+01
  -4.741897e+01  -5.201187e+01
   2.019853e+01  -7.840959e+00
   3.310568e+01   2.263636e+01
  -5.700009e+01  -7.871169e+01
  -1.171239e+01  -9.314396e+01
   4.422842e+01  -1.010046e+02
   4.724042e+01   4.710617e+00
   8.479370e+01   1.160758e+02
  -3.853437e+01   1.490282e+02
  -1.030638e+02   9.590126e+01
  -1.143313e+02  -7.133483e+01
  -8.992235e+01  -1.199810e+02
   5.718127e+01  -4.279854e+01
   8.041990e+01   1.128430e+01
   1.719853e+01   7.479599e+01
   5.925701e+00   4.899665e+01
  -1.874713e+01  -4.280115e+01
   1.581832e+01   3.150540e+01
   4.598862e+01   8.121879e+00
   2.967568e+01   3.288065e+01
  -1.244504e+02   7.871155e+01
  -1.450728e+02   4.872379e+01
  -6.594274e+01   1.096289e+01
   4.377408e+01  -1.228511e+02
   5.673630e+01  -5.870172e+01
   4.037747e+01  -3.245250e+01
   3.492666e+01   5.449126e+01
  -5.949523e+01   1.176891e+01
  -3.103665e+01   1.649870e+01
   2.731173e+01  -2.755937e+01
   1.951508e+01  -9.687913e+00
   8.448861e+00   6.462482e+00
   3.301675e+01   4.959442e+01
   3.542689e+01  -6.224132e+00
  -9.680312e+00   2.691214e+01
  -3.715770e+01  -2.400436e+01
   1.985269e+01   5.892200e+01
   1.195269e+01   3.579886e+01
  -4.493228e+00   2.059891e+01
  -1.280222e+01  -2.659784e+01
  -3.817016e+00  -9.520453e+01
   4.616868e+01  -9.393918e+00
   1.389339e+01   7.041014e+01
  -1.006097e+01   7.236028e+01
  -2.716967e+01   1.262501e+01
  -1.225494e+02  -2.971054e+01
  -4.209692e+01  -3.269177e+01
   6.587629e+01  -6.905191e+01
   3.219933e+01  -2.277186e+01
   4.750180e+01   1.644283e+01
  -3.478020e+01   5.305902e+01
  -3.594223e+01  -6.936530e+01
   2.311974e+01  -3.647679e+00
   8.848425e+01   2.912770e+01
