
 $NMID
 id='ANONYMOUS ', fmtdat='(2E16.6)'
 volume=1.0
 tramp=1.0
 $END
  -4.586666e+03   2.434328e+02
  -2.906699e+03  -2.713040e+03
   8.791745e+02  -3.047101e+03
   2.559802e+03  -9.099599e+02
   1.093185e+03   8.053744e+02
  -7.000831e+02   5.047746e+02
  -9.837171e+02  -4.887513e+02
   1.219134e+02  -1.124188e+03
   9.023784e+02  -8.380557e+02
   1.049154e+03   3.850530e+01
   4.690091e+02   9.412356e+02
  -3.028150e+02   8.365661e+02
  -7.398664e+02   9.017452e+01
  -3.611139e+02  -8.516681e+02
   2.912828e+02  -8.602450e+02
   7.749382e+02   1.202226e+01
   3.363278e+02   7.453036e+02
  -3.247489e+02   6.484783e+02
  -7.342358e+02   8.266121e+01
  -3.830662e+02  -3.975144e+02
  -1.920075e+01  -3.696129e+02
   3.314906e+02  -2.856794e+02
   2.157991e+02  -5.466814e+01
  -1.971680e+02   9.263153e+01
  -3.728368e+02  -1.136558e+01
  -2.541745e+02  -4.204888e+02
   5.504668e+02  -4.066020e+02
   9.331279e+02   1.171816e+02
   3.757004e+02   6.911202e+02
  -5.423804e+02   4.685872e+02
  -8.374762e+02  -1.918749e+02
  -3.612689e+02  -5.336010e+02
   3.396941e+02  -5.826393e+02
   6.099419e+02  -2.239426e+02
   4.467893e+02   2.135469e+02
   9.562510e+01   4.956366e+02
  -2.392165e+02   3.789429e+02
  -1.882146e+02  -2.525146e+02
   1.571672e+02  -5.031089e+02
   5.685329e+02  -1.728248e+01
   2.747332e+02   7.418583e+02
  -4.336798e+02   8.007812e+02
  -7.087937e+02  -3.490641e+01
  -2.841202e+02  -6.828426e+02
   4.068862e+02  -4.172474e+02
   4.237826e+02   4.191000e+02
  -1.003743e+02   6.884854e+02
  -5.958210e+02   1.399214e+02
  -6.150544e+02  -5.072062e+02
  -1.589119e+02  -6.447945e+02
   4.499632e+02  -3.158755e+02
   7.275978e+02   8.126609e+01
   4.169282e+02   4.085306e+02
  -2.081167e+02   3.927755e+02
  -5.300099e+02   3.062038e+01
  -2.848613e+02  -2.280199e+02
   1.591246e+02  -9.262235e+01
   1.567133e+02   2.112674e+02
  -1.722024e+02   2.046744e+02
  -4.963136e+02  -6.167353e+01
  -1.448672e+02  -3.682627e+02
   2.132635e+02  -3.163553e+02
   3.750471e+02  -1.557310e+02
   2.366098e+02   7.242052e+01
  -1.784630e+01   2.003683e+02
  -1.612448e+02   3.238145e+02
  -3.401882e+02   2.990308e+02
  -3.161842e+02  -9.985951e+01
  -1.312714e+02  -4.334556e+02
   1.616456e+02  -4.535686e+02
   1.137551e+02  -9.625726e+01
   5.451665e+00   1.136696e+02
  -6.551755e+00  -1.119538e+02
   1.611793e+02  -2.410943e+02
   3.295252e+02   2.553609e+01
   1.611148e+02   2.581300e+02
  -6.250598e+01   2.841368e+02
  -2.798728e+02   1.825769e+01
  -1.827457e+02  -2.629064e+02
   1.087246e+01  -2.720539e+02
   3.027873e+02  -1.285053e+02
   3.654225e+02   1.881811e+02
   1.879144e+02   3.505305e+02
  -1.026555e+02   3.157508e+02
  -2.595652e+02   1.126474e+02
  -1.591504e+02   2.808003e+01
  -7.230793e+01   4.713581e+01
  -2.491264e+02   1.011152e+02
  -4.364320e+02  -2.634921e+01
  -3.917973e+02  -2.859052e+02
  -1.803920e+01  -5.295921e+02
   3.378016e+02  -4.371178e+02
   4.458127e+02  -2.396018e+02
   3.669851e+02   7.243527e+01
   4.022525e+01   3.380721e+02
  -8.973830e+01   3.324852e+02
  -8.744935e+01   4.544814e+01
   1.131619e+02  -1.413691e+02
   2.265357e+02   5.820217e+01
   4.196533e+01   2.330977e+02
  -2.062206e+02   2.267142e+02
  -1.940239e+02  -9.167676e+01
  -3.175716e+01  -2.474531e+02
   2.168976e+02  -7.628314e+01
   1.666472e+02   2.431532e+02
  -5.889781e+01   3.814201e+02
  -2.617681e+02   2.340842e+02
  -3.401909e+02  -1.075259e+02
  -3.123888e+02  -2.507438e+02
  -7.675483e+01  -2.913767e+02
   1.619798e+02  -1.512902e+02
   2.250896e+02   1.069285e+01
   7.054549e+01   7.564196e+01
  -4.401508e+01  -1.057859e+01
  -9.101905e+01  -1.237834e+02
   1.284861e+02  -1.735299e+02
   1.829299e+02   9.721351e+00
   4.863580e+01   9.903494e+01
  -7.043690e+01   5.206226e+01
  -7.999852e+01  -7.389580e+01
   1.613676e+02  -1.297712e+02
   3.003919e+02  -2.008950e+01
   2.749142e+02   1.768292e+02
   5.758427e+00   2.995534e+02
  -1.991868e+02   3.018991e+02
  -3.460126e+02   7.973375e+01
  -2.172623e+02  -1.168008e+02
   7.295910e+01  -1.428881e+02
   1.180068e+02  -1.050778e+01
  -1.444463e+01   1.298633e+02
  -2.058877e+02   2.775287e+01
  -1.982024e+02  -1.162786e+02
  -1.419496e+01  -2.036920e+02
   1.019754e+02  -1.254664e+02
   1.650757e+02  -1.601645e+01
   1.159692e+02   9.208272e+01
  -4.560652e+01   3.809861e+01
  -5.961738e+01  -3.460416e+01
   9.057513e+01  -6.536386e+01
   1.454879e+02  -2.702823e+01
   1.558424e+02   8.694525e+01
  -2.726599e+00   2.085609e+02
  -2.324185e+02   1.589453e+02
  -2.536796e+02   5.046127e+01
  -5.729396e+01  -1.480271e+02
   8.947952e+01  -1.372997e+02
   1.011306e+02  -3.972503e+01
   4.037833e+01   4.196768e+01
  -5.442611e+01   9.722500e+00
   1.450153e+01   2.414332e+00
   5.840065e+01   2.882634e+01
   1.241181e+02   1.187372e+02
   3.769142e+01   1.896758e+02
  -1.189986e+02   1.917635e+02
  -2.854528e+02   6.271420e+01
  -1.886233e+02  -1.585553e+02
  -7.129640e+01  -2.677952e+02
   8.029234e+01  -1.892619e+02
   9.482045e+01   7.609589e+00
   1.154648e+02   4.456143e+01
   5.996157e+01   3.052615e+01
   5.141728e+01  -7.349232e+00
   6.089392e+01  -2.893874e+00
   9.306393e+01   2.392592e+01
  -1.663618e+01   1.014775e+02
  -1.335622e+02   6.870908e+01
  -5.150842e+01   5.910247e+00
  -1.448643e+01  -9.061809e+01
   1.296665e+02  -9.118364e+01
   2.104673e+02   8.972137e+01
   9.164281e+01   2.214740e+02
  -1.309665e+02   2.317949e+02
  -3.108948e+02   6.334049e+01
  -2.931310e+02  -5.776047e+01
  -4.417412e+01  -1.616035e+02
   7.269161e+01  -1.246374e+02
   1.416183e+02  -8.858349e+01
   9.225311e+01  -5.696702e+01
   7.491452e+01  -6.133334e+01
   1.024144e+02  -4.406699e+01
   1.642820e+02   4.088249e+01
   1.841169e+02   1.662162e+02
   5.927955e+01   2.770074e+02
  -1.463433e+02   1.784626e+02
  -2.238706e+02  -9.613998e-01
  -1.923961e+02  -1.075921e+02
   5.720772e+00  -1.764926e+02
   2.295947e+01  -1.008735e+02
   4.153267e+01  -8.802446e+00
   3.263150e+01   5.505307e+01
  -1.426425e+01   5.478699e+01
   1.484821e+01  -1.731727e+01
   6.111911e+01   1.225221e+01
   5.408274e+01   7.822253e+00
  -6.777206e+01   2.534059e+01
  -1.391867e+02   1.958759e+01
  -1.648567e+02  -2.317268e+01
   5.114339e-01  -5.058889e+01
   1.417268e+02  -3.061242e+01
   1.676848e+02   2.171437e+01
   7.649524e+01   3.295515e+01
  -5.621474e+01   6.638250e+01
  -9.072595e+01  -3.386686e+01
   3.689217e+01  -3.661000e+01
   1.094577e+02  -5.186548e+00
   8.640823e+01   8.427728e+00
   2.723088e+01   7.500822e+01
   5.794671e+01   5.582445e+01
   8.236451e+01  -4.143486e+00
   1.722901e+01   1.693146e+01
   1.813859e+01   1.165756e+02
  -7.185367e+01   1.391000e+02
  -1.368218e+02   1.370526e+02
  -1.843960e+02   3.103133e+01
  -1.251370e+02  -7.726247e+01
   1.084643e+01  -1.297760e+02
   8.440324e+01  -7.462983e+01
   7.884513e+01   9.640849e+00
  -3.284262e+01   3.315678e+01
  -1.213834e+02  -7.369993e+01
  -1.326478e+02  -1.329523e+02
   8.024162e+01  -6.339364e+01
   2.228004e+02  -1.391436e+01
   1.327972e+02   3.931234e+01
   6.213149e+01   5.648544e+01
  -6.658003e+01   9.720238e+01
   1.019721e+01   2.602153e+01
   7.492602e+01  -3.964243e+00
   1.304515e+02   7.804802e+01
   1.227695e+01   1.225513e+02
  -1.099692e+02   1.650419e+02
  -1.604893e+02   5.349830e+01
  -1.582403e+02  -1.441813e+02
  -1.714705e+01  -2.451444e+02
   9.184730e+01  -1.905689e+02
   1.400182e+02  -3.688931e+00
   3.423855e+01   1.008341e+02
   1.172700e+01   1.369543e+02
  -4.512941e+01  -7.618960e+00
  -4.416230e+01  -4.718629e+01
   1.627681e+01  -8.164767e+00
  -1.373766e+01   2.449053e+01
   8.307234e+00  -5.924734e+01
  -8.679703e+01  -7.099964e+01
  -7.292025e+01  -7.346777e+01
   4.512008e+01  -3.177219e+01
   9.488928e+01  -3.105723e+01
   9.406578e+01   8.775319e+01
   1.108057e+01   5.223546e+01
  -1.099721e+02   2.082705e+01
  -6.738493e+01   1.288159e+01
   2.700049e+01  -3.595199e+01
   7.288979e+01  -4.420299e+00
   3.956722e+01  -6.077548e+01
  -2.033654e+01   4.295996e+01
   7.967417e+00   3.778008e+01
   1.172418e+02   7.627033e-01
   9.449602e+01   4.379864e+01
  -4.937888e+00   1.074024e+02
  -1.313191e+02   1.093393e+02
  -2.635634e+02   9.648168e+01
  -1.615100e+02  -5.174254e+01
  -5.897155e+01  -1.953218e+02
   7.624949e+01  -1.631809e+02
   1.306853e+02  -3.430606e+01
   6.832140e+01   2.085980e+01
   8.505919e+00   3.127054e+01
  -2.925348e+01   1.225667e+00
   2.363900e+01   3.270545e+01
   8.667306e+01   2.303210e+01
   3.557992e+01   1.410170e+02
  -4.467295e+01   8.454126e+01
  -4.922788e+01   5.181306e+01
  -1.253502e+02  -1.295639e+02
   5.294408e+00  -1.221400e+02
   5.940068e+01   4.959349e+00
   7.974070e+01   6.230107e+01
   6.730834e+01   7.622018e+01
  -5.480299e+01   6.355384e+01
  -8.724312e+01  -2.160437e+01
  -1.858076e+01  -5.834256e+01
  -6.829777e+00  -1.005108e+02
   3.742354e+01  -2.608121e+01
  -2.996713e+01   1.328313e+01
  -5.863063e+01   1.050128e+01
  -6.466814e-01  -2.278579e+01
   9.052630e+01  -7.257612e+01
   1.110407e+02  -8.386275e+01
   1.101063e+02  -4.095666e+00
  -5.232741e+00   9.758384e+01
  -7.036931e+01   6.519198e+01
  -1.030177e+02  -2.712809e+01
  -1.975688e+00  -8.754800e+01
   2.908926e+01  -5.711960e+01
   4.175709e+01  -2.466893e+01
   5.378242e+01   5.603712e+01
  -6.637756e+00   7.977819e+01
  -3.321216e+01  -2.668743e+00
  -7.600239e+01   3.558094e+01
   2.583742e+01  -3.023659e-01
   3.658097e+00   3.463393e+01
  -1.547315e+01   6.635734e+01
  -2.150570e+01  -1.544935e+01
   2.198908e+01  -4.051086e+01
   5.138912e+01  -2.190484e+01
   3.020437e+01   2.238430e+01
   1.792265e+01   7.791346e+01
  -3.947220e+01   5.562235e+01
  -7.450774e+01  -5.577859e+01
  -1.280706e+01  -4.260071e+01
  -1.678917e+01  -6.415675e+01
   8.628010e+01   2.855843e+00
   3.351483e+01   3.523395e+01
  -8.749068e+01   3.724370e+01
  -6.109035e+01   4.240662e+01
  -4.949568e+00  -1.866010e+00
   4.515285e+01  -2.400835e+01
   4.526848e+01   2.224345e+01
  -5.225819e+01   5.917594e+01
  -1.184178e+02   5.588474e+01
