
 $NMID
 id='ANONYMOUS ', fmtdat='(2E16.6)'
 volume=1.0
 tramp=1.0
 $END
   5.072741e+03  -1.636921e+01
   2.820539e+03   2.766808e+03
  -8.613501e+02   3.290470e+03
  -2.311925e+03   9.252481e+02
  -1.080477e+03  -8.194819e+02
   7.697213e+02  -5.048996e+02
   1.015386e+03   4.426396e+02
  -1.519031e+01   1.103000e+03
  -9.000296e+02   8.040361e+02
  -1.025179e+03  -1.398989e+02
  -5.836853e+02  -9.104258e+02
   3.244018e+02  -1.026778e+03
   7.832037e+02  -7.202640e+01
   4.863859e+02   7.539877e+02
  -2.630664e+02   6.773122e+02
  -7.159968e+02  -6.642926e+01
  -2.999006e+02  -8.164548e+02
   4.145130e+02  -7.206090e+02
   6.630280e+02  -9.042037e+00
   3.824645e+02   3.858767e+02
   2.197399e+01   3.815383e+02
  -3.162649e+02   2.995148e+02
  -2.521691e+02  -2.511075e+00
   7.609723e+01  -5.658464e+01
   4.627518e+02   2.096031e+02
   1.857858e+02   4.426016e+02
  -5.153079e+02   3.511920e+02
  -9.100932e+02  -1.113787e+02
  -5.068585e+02  -5.866298e+02
   4.047586e+02  -5.380796e+02
   8.154276e+02   8.100502e+01
   3.711003e+02   5.614306e+02
  -3.019610e+02   5.455187e+02
  -6.362405e+02   1.826346e+02
  -4.189391e+02  -1.972246e+02
  -7.792973e+01  -4.711086e+02
   2.143886e+02  -3.081858e+02
   1.859658e+02   2.300410e+02
  -1.362779e+02   4.952381e+02
  -4.749314e+02  -1.192067e+00
  -2.855533e+02  -6.778261e+02
   3.016060e+02  -7.922687e+02
   6.394935e+02  -4.042892e+01
   3.439156e+02   5.833941e+02
  -3.338870e+02   3.780335e+02
  -4.475503e+02  -3.424146e+02
   6.347385e+01  -5.474632e+02
   6.230845e+02  -8.638001e+01
   6.381795e+02   4.487695e+02
   1.591938e+02   5.978405e+02
  -4.369322e+02   3.586057e+02
  -6.264193e+02  -9.227393e+01
  -4.163267e+02  -3.732924e+02
   1.445345e+02  -3.750003e+02
   4.681970e+02  -8.134588e+01
   2.176043e+02   2.064552e+02
  -9.122938e+01   1.160503e+02
  -1.528532e+02  -1.868384e+02
   1.713908e+02  -2.237919e+02
   4.144920e+02   1.155402e+02
   1.368983e+02   2.993635e+02
  -2.373195e+02   2.654253e+02
  -3.431697e+02   6.078747e+01
  -1.384251e+02  -6.462783e+01
  -2.885964e+00  -1.854304e+02
   1.933570e+02  -3.417414e+02
   3.810401e+02  -2.469430e+02
   2.996204e+02   2.371273e+02
   1.296003e+02   5.294595e+02
  -1.162742e+02   3.756005e+02
  -1.444219e+02   7.867023e+01
  -6.569539e+01  -5.945540e+00
  -1.096248e+01   7.102986e+01
  -2.106059e+02   9.625347e+01
  -2.796060e+02  -3.859562e+01
  -1.628211e+02  -2.376082e+02
   1.640860e+01  -3.117008e+02
   2.001199e+02  -1.216759e+01
   1.954473e+02   2.488274e+02
   6.239721e+01   2.945907e+02
  -2.794367e+02   1.463136e+02
  -3.544738e+02  -1.883222e+02
  -2.552151e+02  -4.040638e+02
   8.251307e+01  -3.930207e+02
   2.469461e+02  -1.439479e+02
   1.328800e+02  -4.337565e+01
   9.188363e+01  -1.020268e+02
   2.749913e+02  -8.558998e+01
   4.214159e+02   4.004970e+01
   4.032765e+02   3.112552e+02
   6.667773e+01   4.573431e+02
  -3.565998e+02   4.668489e+02
  -4.846589e+02   2.305596e+02
  -4.218053e+02  -9.477023e+01
  -3.972824e+01  -3.589153e+02
   8.453640e+01  -3.486171e+02
   7.250211e+01  -1.058118e+02
  -8.578465e+01   1.610449e+02
  -2.541569e+02   4.646757e+01
  -1.172334e+02  -1.724508e+02
   7.760521e+01  -2.218080e+02
   2.447899e+02   3.512914e+01
   2.715925e+01   2.160909e+02
  -2.171579e+02   5.581689e+01
  -2.285250e+02  -2.072466e+02
   3.065365e+01  -3.218372e+02
   2.292356e+02  -1.535847e+02
   3.440366e+02   7.139568e+01
   3.373572e+02   2.051222e+02
   1.474852e+02   2.548573e+02
  -1.027116e+02   2.100181e+02
  -2.464407e+02   5.274361e+01
  -6.859226e+01  -5.994502e+01
   2.509161e+01   5.328497e+01
   2.687544e+01   1.105547e+02
  -1.202067e+02   8.733984e+01
  -1.912088e+02  -2.680763e+01
  -7.895183e+01  -5.848131e+01
   6.141972e+01   6.219196e+00
   1.058764e+02   4.404833e+01
  -1.232963e+02   5.784486e+01
  -3.425071e+02   2.835229e+00
  -2.358385e+02  -1.136702e+02
  -4.289213e+01  -2.510956e+02
   1.467724e+02  -3.225436e+02
   3.198580e+02  -1.690415e+02
   1.712408e+02   1.092419e+01
   5.146868e+01   1.358921e+02
  -1.178323e+02   3.641974e+01
   7.500029e+01  -1.087055e+02
   2.647446e+02  -6.687153e+01
   2.697788e+02   1.134077e+02
   1.204605e+02   2.034175e+02
  -4.198396e+01   1.338307e+02
  -1.586291e+02   3.855642e+01
  -7.995737e+01  -8.260289e+00
   4.016345e+01  -1.203530e+01
   7.248082e+01   1.244995e+02
  -6.764447e+01   1.392232e+02
  -2.243767e+02   1.810228e+01
  -2.306087e+02  -1.573281e+02
  -1.885296e+01  -2.540912e+02
   1.289875e+02  -2.194404e+02
   2.180328e+02  -5.902176e+01
   8.796925e+01   1.185052e+02
  -3.959174e+01   9.230822e+01
  -7.722046e+01   5.734531e+01
  -1.878767e+01  -3.757186e+01
   2.074304e+01  -2.380327e+01
  -8.207927e+00  -4.255380e+01
  -8.532308e+01  -4.585639e+01
  -1.243521e+02  -1.109676e+02
   2.986887e+01  -2.245097e+02
   1.530412e+02  -1.429170e+02
   2.643467e+02  -2.975388e+01
   2.062592e+02   1.947898e+02
   2.110971e+01   2.133278e+02
  -9.697194e+01   1.425850e+02
  -1.662422e+02   5.078437e+01
  -1.073597e+02  -2.436195e+01
  -4.889896e+01  -1.488694e+01
  -4.463233e+01   8.222213e-02
  -7.939628e+01   2.890194e+01
  -5.202280e+01  -1.010640e+01
   4.645051e+01  -1.344512e+02
   6.946180e+01  -9.433148e+01
   4.705288e+01   1.690756e+01
  -2.082697e+01   1.010274e+02
  -1.239818e+02   1.886057e+02
  -1.879569e+02  -3.731617e+01
  -1.208833e+02  -1.796401e+02
   7.361963e+01  -2.554085e+02
   2.695506e+02  -1.423408e+02
   2.668992e+02   1.015962e+02
   1.299219e+02   1.755897e+02
  -2.563875e+01   1.177632e+02
  -1.122904e+02   6.475562e+01
  -1.148403e+02   8.338959e+01
  -7.015123e+01   1.648186e+02
  -8.132863e+01   6.657267e+01
  -1.690460e+02  -6.239601e+01
  -1.104692e+02  -1.546799e+02
   8.620558e+00  -2.470288e+02
   1.204243e+02  -1.661508e+02
   2.091681e+02  -8.264424e+01
   2.599600e+02   1.232094e+02
   5.423503e+01   2.097110e+02
  -7.223890e+01   8.925136e+01
  -7.196348e+01  -1.164309e+01
  -6.117940e+00  -3.849122e+01
  -2.196551e+01  -3.908049e+01
  -8.579892e+01  -4.292108e+01
   6.577296e+00  -1.631926e+01
  -1.487668e+01  -7.611104e+01
   9.910630e+01  -2.203111e+01
   1.678072e+02   7.860852e+00
   1.261715e+02   6.676322e+01
   2.537495e+00   8.649136e+01
  -9.617068e+01   4.394800e+01
  -9.737934e+01   2.143860e+01
  -2.739252e+01  -9.846901e+00
   4.165293e+01  -3.194247e+01
   5.818423e+01   4.527873e+01
   6.705784e+00   5.151743e+01
  -1.254189e+02   2.457082e+01
  -5.403581e+01  -3.221543e+01
  -7.477531e+01  -5.892735e+01
  -9.343262e-01  -1.431969e+01
  -1.235070e+02   3.226554e+01
  -1.312667e+02  -1.767866e+01
  -4.525410e+01  -7.078006e+01
  -1.197642e+01  -1.424953e+02
   4.704036e+01  -1.742042e+02
   1.502217e+02  -1.002232e+01
   1.244452e+02   5.217477e+01
   3.544627e+01   1.004093e+02
  -8.433016e+01   7.142980e+01
  -4.003955e+01   1.136229e-01
   1.034004e+02  -1.727809e+01
   1.188227e+02   4.462036e+01
   8.509782e+01   1.429396e+02
  -1.158708e+02   1.122702e+02
  -2.599197e+02   8.103731e+01
  -1.648434e+02  -2.532643e+01
  -2.879066e+01  -1.089339e+02
   8.735678e+01  -1.363125e+02
   5.604155e+01  -4.661294e+01
  -1.612831e+01   3.032746e+01
  -1.037161e+02   5.757546e+00
  -3.449234e+01  -1.301440e+02
   4.347615e+01  -1.553521e+02
   1.929395e+02  -6.034811e+01
   1.365074e+02   1.197462e+02
   2.936192e+01   2.510256e+02
  -9.871841e+01   1.497350e+02
  -8.927264e+01   3.940340e+01
  -9.495312e+01  -1.220877e+02
  -5.579453e+01  -8.980996e+01
   7.329502e+01  -1.677069e+01
   4.995435e+01   5.951144e+01
   1.556625e+01   1.517054e+01
  -4.411791e+01   2.307784e+01
  -1.721029e+01   6.615958e+00
  -1.544825e-01   8.377834e+01
   6.168028e+01   1.019376e+02
   7.648802e+00   4.823839e+00
  -9.288320e+01  -2.782199e+01
  -1.075333e+02   3.642214e+00
  -5.986281e+01   1.345999e-02
   9.225418e+01  -2.127612e+01
   7.068195e+01   1.058541e+01
   1.880437e+01   5.726868e+00
  -4.446836e+01   4.662022e+00
  -1.193514e+01   4.732099e+01
   3.931702e+00   1.321988e+01
   1.524600e+01  -7.777913e+01
  -9.916739e+01   1.652983e+01
  -5.296448e+01  -4.665084e+01
  -4.622874e+00  -5.770516e+01
   9.973052e+01  -1.207178e+02
   2.265407e+02  -1.502093e+01
   1.959691e+02   1.055312e+02
   4.863440e+01   1.816971e+02
  -1.628107e+01   1.126387e+02
  -8.615221e+01   5.354579e+01
  -1.387817e+02  -2.130644e+01
  -8.707591e+00  -3.176077e+01
   2.433924e+01  -3.193764e+01
  -6.385823e+00  -3.072133e+00
  -5.806521e+01  -7.752909e+01
  -3.557034e+01  -1.004556e+02
   4.706673e+01  -8.814168e+01
   8.579506e+01   2.518838e+01
   8.803034e+01   1.299277e+02
   3.074425e+01   1.660173e+02
  -8.794023e+01   7.164043e+01
  -1.098255e+02  -8.282682e+01
  -8.230255e+01  -1.006916e+02
   8.101927e+01  -7.730327e+01
   1.366310e+02  -3.640914e+01
   3.326515e+01   5.931345e+01
   2.192018e+01   9.695330e+01
  -4.118968e+01   4.474089e+01
   5.050187e+01  -3.081100e+01
   8.573650e+01   9.510599e+00
   8.649022e+01   8.255838e+00
  -7.965950e+01   9.235813e+01
  -1.151010e+02   6.532578e+01
  -2.510719e+01   2.733996e+01
   3.904102e+01  -1.273523e+02
   6.993874e+01  -7.636154e+01
   8.861747e+00  -1.072907e+01
   7.711139e+00   6.192257e+01
  -3.487182e+01   8.955829e+01
  -9.518402e+01  -2.469107e+01
  -6.095623e+01  -9.138175e+01
   3.114082e+01  -3.678988e+01
   1.922413e+01   1.856052e+01
   8.166179e+01   2.921061e+01
   5.152213e+00  -2.493663e+01
  -1.563190e+01  -3.013567e+01
   2.608453e+01  -1.225555e+01
   4.691915e+00  -1.071394e+01
   8.973174e+00  -7.193765e+00
  -5.187162e+01   3.246806e+00
  -1.944239e+01  -3.450972e+01
   1.025651e+01  -1.124082e+02
   3.220730e+01  -4.798579e+01
   4.228066e+01   2.805229e+01
  -2.787680e+01   4.716603e+01
  -8.187149e+01   4.809351e+01
  -8.490690e+01  -4.598435e+01
  -7.447072e+01  -2.443812e+01
   3.116436e+01  -7.270867e+01
   8.624720e+01  -2.947403e+01
   2.874174e+00   1.021531e+01
  -3.163893e+01   2.349761e+01
  -4.475677e+01  -4.150620e+01
   8.117145e+01  -1.194489e+02
   1.140789e+02  -2.121143e+01
