
 $NMID
 id='ANONYMOUS ', fmtdat='(2E16.6)'
 volume=1.0
 tramp=1.0
 $END
  -2.626660e+03   1.229521e+02
  -1.680505e+03  -1.468907e+03
   1.778207e+02  -1.544267e+03
   1.057368e+03  -7.160172e+02
   7.378820e+02   9.384714e+01
   1.580908e+01   2.892492e+02
  -4.311860e+02   4.632081e+00
  -2.925774e+01  -5.003536e+02
   3.487417e+02  -4.404638e+02
   5.063389e+02   2.081735e+01
   3.563571e+02   5.602060e+02
  -3.616627e+01   5.548286e+02
  -2.222026e+02   1.511286e+02
  -2.225639e+02  -4.475272e+02
   1.983477e+02  -4.524708e+02
   2.222763e+02  -4.096340e+01
   2.284764e+02   3.603658e+02
  -1.204254e+02   4.697713e+02
  -3.715017e+02   2.468114e+02
  -3.005637e+02  -1.901143e+02
  -1.061030e+01  -3.126478e+02
   1.340482e+02  -1.484662e+02
  -1.455966e+01  -5.613675e+01
  -1.272171e+02  -8.566760e+01
  -1.815154e+02  -1.676533e+02
  -3.769388e+01  -2.261958e+02
   3.039318e+02  -1.305855e+02
   4.750474e+02   1.428185e+02
   2.365911e+02   3.247674e+02
  -2.880645e+02   2.361975e+02
  -3.762387e+02  -1.114842e+02
  -1.571625e+02  -2.898481e+02
   1.930908e+02  -3.055093e+02
   3.668019e+02  -1.003839e+02
   2.266848e+02   1.684054e+02
   4.616159e+01   2.848311e+02
  -2.075860e+01   2.224465e+02
  -3.227882e+01  -8.040231e+01
   6.406763e+01  -2.212783e+02
   1.792619e+02   5.731532e+01
   1.057725e+02   4.124153e+02
  -2.413584e+02   3.738961e+02
  -2.797945e+02   3.845984e+01
  -1.622225e+02  -2.720441e+02
   8.808728e+01  -1.468787e+02
   2.064694e+02   1.703892e+02
  -1.721479e+01   3.053812e+02
  -3.535681e+02   6.033324e+01
  -4.078727e+02  -3.006540e+02
  -1.329032e+02  -3.752435e+02
   2.691642e+02  -2.514823e+02
   4.194560e+02   3.279880e+01
   2.540274e+02   2.596177e+02
  -6.712388e+01   1.604971e+02
  -2.632112e+02   8.335989e+01
  -1.716570e+02  -6.251303e+01
   2.872826e+01  -7.910644e+01
   7.826526e+01   1.308840e+01
  -4.518153e+01   9.265658e+01
  -1.660572e+02  -4.850255e+01
  -7.108351e+01  -1.374777e+02
   9.248456e+01  -1.592460e+02
   2.812080e+02  -8.902843e+01
   1.526065e+02   3.190211e+01
  -2.956634e+01   2.262758e+02
  -1.952761e+02   2.411141e+02
  -2.122587e+02   1.504433e+02
  -1.946710e+02  -1.182871e+02
  -9.641314e+01  -3.072061e+02
   5.468404e+01  -2.585272e+02
   5.214788e+01  -1.389131e+02
   6.264062e+01  -5.064158e+01
   6.780768e+01  -5.679198e+01
   1.454381e+02  -6.050381e+01
   1.804531e+02   9.839049e+01
   1.137637e+02   1.832746e+02
  -4.405556e+01   1.017441e+02
  -1.209558e+02  -3.313522e+01
  -7.924207e+01  -1.436927e+02
   9.962572e+00  -1.371387e+02
   1.816025e+02  -4.897429e+01
   2.657850e+02   1.098602e+02
   1.402713e+02   2.012647e+02
  -7.551564e+01   1.718693e+02
  -1.205800e+02   9.544794e+01
  -1.334593e+02   3.838050e+01
  -7.050380e+01   1.891935e+01
  -1.558854e+02   1.669084e+01
  -3.055093e+02  -5.013006e+01
  -2.272799e+02  -2.221193e+02
   5.595768e+01  -3.106795e+02
   3.388747e+02  -2.899117e+02
   3.444927e+02  -1.342773e+02
   2.071782e+02   4.805956e+01
  -1.726143e+01   1.934591e+02
  -7.383962e+01   1.462325e+02
   3.125278e+01   6.854358e+01
   1.283350e+02  -5.710757e+01
   1.410781e+02   2.675867e+01
   2.549791e+01   1.791725e+02
  -1.138419e+02   8.391300e+01
  -1.191232e+02  -1.041379e+02
   2.256132e+01  -1.381028e+02
   1.024128e+02   1.860076e+01
   7.971716e+01   1.881374e+02
  -3.486317e+01   2.622352e+02
  -1.568231e+02   1.327972e+02
  -2.305510e+02  -9.489853e+01
  -2.086857e+02  -2.224140e+02
  -3.556508e+01  -2.272183e+02
   1.399972e+02  -1.105893e+02
   1.725704e+02   7.965310e+00
   3.866056e+01   5.805298e+01
  -3.676314e+01  -2.795922e+01
  -2.059980e+01  -7.305616e+01
   7.794254e+01  -4.758664e+01
   1.324251e+02   1.745193e+01
   2.377021e+01   2.106265e+01
  -6.458850e+01  -3.548468e+00
  -3.837023e+01  -9.406329e+01
   1.590468e+02  -1.869526e+01
   2.484924e+02   7.365088e+00
   2.116243e+02   8.839026e+01
  -1.024215e+01   2.248818e+02
  -1.758377e+02   1.657027e+02
  -2.249948e+02   1.403658e+02
  -1.388186e+02  -1.833014e+01
  -3.207615e+00  -1.637150e+02
   1.855782e+01  -7.930003e+01
  -1.148616e+01  -1.137565e+01
  -1.200195e+02  -5.323095e+00
  -8.893386e+01  -8.341342e+01
  -2.288210e+01  -1.241796e+02
   1.214732e+02  -7.019835e+01
   1.222059e+02   2.636763e+01
   6.297301e+01  -7.137256e+00
  -5.827565e+01  -7.723710e+00
  -5.119500e+01  -5.666284e+01
   9.422155e+01  -9.004344e+01
   1.509330e+02   5.199508e+01
   1.380395e+02   8.500414e+01
   9.981559e+00   1.377803e+02
  -1.283659e+02   7.237435e+01
  -1.106051e+02   7.028003e+00
  -1.609474e+01  -9.138946e+01
   7.044801e+01  -8.356447e+01
   3.489255e+01  -1.922646e+01
   1.783493e+00   1.341496e+01
  -2.629640e+00   2.381170e+01
   1.477429e+00  -7.119289e+01
   1.178531e+02  -9.397267e+00
   7.182915e+01   3.241938e+01
   3.196863e+01   1.648604e+02
  -1.158068e+02   1.075640e+02
  -1.551489e+02   2.099518e+01
  -1.505732e+02  -9.763232e+01
  -3.723241e+00  -1.187648e+02
   8.759071e+01  -1.180690e+02
   1.073795e+02  -5.044494e+01
   4.526408e+01   3.768985e+01
   3.189097e+01  -6.486681e+00
   5.462521e+01  -1.710452e+01
   6.566020e+01   1.136981e+01
   2.662102e+00   3.588601e+01
  -1.854789e+01   1.097866e+02
  -5.522654e+01   3.041052e+01
  -1.394839e+02  -4.541776e+01
   2.685409e+01  -7.778973e+01
   6.736937e+01  -5.581358e+01
   1.421760e+02   1.712782e+01
   6.157407e+01   1.173363e+02
  -4.677519e+01   1.069701e+02
  -1.907839e+02   5.392152e+01
  -1.737980e+02  -3.547725e+01
  -2.365149e+01  -1.332196e+02
   2.049573e+01  -1.046911e+02
   1.031046e+02  -4.670152e+01
   1.088036e+02  -2.468594e+01
   4.486338e+01  -4.301723e+01
   1.969172e+01  -4.886731e+01
   7.318489e+01   1.941376e+01
   9.319296e+01   9.551335e+01
   5.026955e+00   1.931048e+02
  -6.568824e+01   1.403899e+02
  -1.483698e+02  -4.764301e+00
  -1.104802e+02  -1.259782e+02
  -4.752589e+01  -9.423808e+01
   2.259509e+01  -6.924946e+01
   5.673207e+01  -7.538887e+01
  -1.688340e+01   1.166535e+01
  -1.417705e+01  -7.232567e+00
   3.844102e+01   8.779771e+00
   5.488672e+01   2.997991e+01
   3.743005e+01   4.643661e+01
  -6.145151e+01   1.639640e+01
  -1.151270e+02  -2.763309e+01
  -8.185193e+01  -4.895193e+01
  -9.922833e+00  -6.658728e+01
   9.007577e+01  -8.303788e+01
   1.612113e+02  -2.438298e+01
   4.916241e+01   4.109707e+01
  -4.354294e+01   3.852385e+01
  -7.857927e+01  -5.289153e+00
  -5.194733e+01  -1.325385e+02
   7.545348e+01  -4.702384e+01
   3.362746e+01  -5.553491e+00
   5.994926e+01   1.199866e+01
   8.223474e+01   3.877735e+01
   2.151972e+01   1.331266e+01
   1.052505e+01  -9.719583e+00
   3.649659e+01   7.415861e+01
  -7.654605e+01   1.086079e+02
  -1.050232e+02   1.035171e+02
  -9.177123e+01   9.272438e+00
  -9.959885e+01  -8.607127e+01
  -4.369972e+00  -9.564673e+01
   8.125382e+01  -9.653858e+01
   6.814367e+01  -9.445719e+00
   2.661788e+00   3.180998e+01
  -3.999371e+01  -2.381113e+01
  -4.633583e+01  -6.902517e+01
   9.859561e+01  -7.074676e+01
   1.437820e+02   1.308561e+01
   1.264525e+02   4.490070e+01
   2.944974e+01   9.241690e+01
  -4.485090e+01   6.637697e+01
  -7.807511e+01   4.179392e+01
   1.954080e+01  -5.662653e+01
   6.644033e+01  -1.579593e+01
   1.785915e+01   6.709763e+01
  -1.773774e+01   1.160182e+02
  -8.823991e+01   4.437143e+01
  -1.050964e+02  -5.541175e+01
  -5.037668e+01  -9.519442e+01
   7.335941e+01  -1.256189e+02
   4.391108e+01  -6.640322e-01
   1.858938e+01   3.732607e+01
   2.395673e+01   5.741807e+01
  -5.015364e+01   2.787709e+01
  -5.867501e+01  -1.872857e+01
  -5.825213e+01   1.881746e+01
   3.236366e+01   2.261785e+01
  -2.197207e+01  -1.622673e+01
  -5.913451e+01  -7.236958e+01
  -5.141921e+01  -3.058515e+01
   1.795795e+01  -7.169758e+01
   1.070593e+02   1.220292e+01
   7.026445e+01   9.173299e+01
  -6.026717e+00   5.900378e+01
  -5.900401e+01  -2.699543e+01
  -8.525292e+01   1.094540e+01
  -1.233902e+01  -1.742579e+01
   2.777384e+01  -4.536882e+01
   1.676393e+01  -1.126167e+01
   2.243446e+01   3.531656e+01
  -2.397129e+01  -4.109503e+00
   4.071982e+01  -3.697313e+00
   4.370422e+01   1.678670e+01
   2.842985e+01   5.264189e+01
  -9.732332e+01   6.774428e+01
  -1.257336e+02   5.370046e+00
  -1.347065e+02  -5.346287e+01
  -8.672926e+00  -9.458821e+01
   7.532494e+01  -9.157894e+01
   1.113532e+02  -6.745030e+01
   6.279714e+01   1.150849e+01
   4.983867e+00   2.469499e+01
   1.178983e+00  -1.102230e+01
   2.120486e-01   1.385552e+01
   2.924911e+01   3.387306e+01
   2.989291e+01   5.121724e+01
  -8.900696e+00   8.042426e+01
  -7.415704e+01  -2.248677e+01
  -1.406404e+01  -9.280619e+01
  -1.112672e+01  -9.233578e+01
   9.675973e+01   1.376119e+00
   4.716124e+01   2.643034e+01
   4.230021e+01   5.693811e+01
  -5.076009e+01   8.291841e+01
  -1.108899e+02  -1.336549e+01
  -1.593811e+01  -6.606693e+01
   1.256869e+01  -4.498296e+01
   2.946388e+01  -7.515226e+01
  -1.218164e+01  -1.313714e+01
  -5.634755e+00   2.013950e+01
  -3.947697e+01  -1.669367e+01
   9.241148e+01  -9.292608e+01
   1.058973e+02  -9.178353e+01
   4.739760e+01  -2.710188e+01
   1.153945e+01   1.689375e+01
  -3.145884e+01   6.272282e+01
  -7.378784e+01   1.630658e+00
   6.763066e+00  -3.343810e+01
   2.643511e+01  -3.030462e+01
   3.817337e+01   3.840453e+01
   8.911052e+01   4.362309e+01
  -1.695394e+00   6.327733e+01
  -5.043539e+01  -1.207572e+01
  -1.488833e+01  -5.484041e+01
  -2.218119e+01  -2.394708e+01
  -3.645098e+00   2.369088e+01
  -1.457897e+01   3.472905e+01
   9.382759e+00  -3.119702e+01
  -1.969457e+00  -3.230276e+01
   1.513375e+01  -3.327594e+01
   7.391771e+01  -2.020156e+00
  -8.311125e+00   2.305673e+01
  -1.690961e+01   1.254806e+01
  -5.887976e+01  -4.207834e+00
  -4.786260e+01  -5.442988e+01
  -1.629027e+01  -1.745262e+01
   8.026982e+01   5.089489e+01
   2.553273e+01   7.850685e+01
  -4.114894e+01   4.279463e+01
  -2.704024e+01   7.744428e+00
   7.975629e+00  -1.000454e+01
   1.740187e+01   7.788362e+00
   4.059324e-01   5.157413e+01
  -5.675582e+01   3.404696e+01
  -5.785333e+01  -1.971116e+01
