
 $NMID
 id='ANONYMOUS ', fmtdat='(2E16.6)'
 volume=1.0
 tramp=1.0
 $END
   3.737400e+03   7.109212e+01
   2.355243e+03   1.732188e+03
  -2.077347e+02   2.083640e+03
  -1.371708e+03   1.038226e+03
  -1.085124e+03   6.466762e+01
   2.470941e+01  -2.310362e+02
   3.231086e+02   1.991150e+02
  -4.452025e+01   6.946696e+02
  -5.444936e+02   5.124879e+02
  -6.514391e+02   1.562769e+00
  -3.937687e+02  -5.963521e+02
   1.310523e+02  -6.210355e+02
   2.929768e+02  -7.487942e+01
   1.108878e+02   4.564132e+02
  -1.672013e+02   4.707705e+02
  -4.379275e+02   1.642517e+01
  -2.569878e+02  -5.075625e+02
   1.415900e+02  -5.368439e+02
   3.964215e+02  -3.328442e+02
   3.471547e+02   5.813657e+01
   1.467025e+02   4.071935e+02
  -9.644848e+01   2.471127e+02
  -1.009764e+02   1.182573e+02
   1.980325e+02   1.045179e+02
   2.705931e+02   2.410336e+02
  -5.326639e+01   3.838228e+02
  -4.739344e+02   1.870871e+02
  -7.059970e+02  -2.085293e+02
  -2.302079e+02  -4.499537e+02
   4.109164e+02  -2.074670e+02
   5.508734e+02   1.949572e+02
   1.763298e+02   3.675565e+02
  -3.693695e+02   3.937504e+02
  -4.582888e+02   1.074782e+02
  -3.213264e+02  -1.460566e+02
  -8.230386e+01  -3.400564e+02
   1.943558e+01  -2.023653e+02
   2.448663e+01   5.896786e+01
  -1.415787e+02   1.637897e+02
  -2.123191e+02  -1.803585e+02
   4.368989e+01  -5.480209e+02
   3.036884e+02  -4.486938e+02
   4.274185e+02  -4.815743e+00
   1.251729e+02   3.073285e+02
  -1.656649e+02   2.297710e+02
  -1.318217e+02  -2.711694e+02
   1.584705e+02  -4.177984e+02
   4.522557e+02  -6.706883e+01
   4.821940e+02   3.623826e+02
   1.452300e+02   5.044223e+02
  -3.010563e+02   2.530939e+02
  -5.108737e+02  -8.793309e+01
  -3.075785e+02  -2.755220e+02
   7.237243e+01  -2.216251e+02
   2.743384e+02  -8.003456e+01
   2.382875e+02   6.261777e+01
   1.730904e+01   1.687564e+01
  -5.307734e+01  -7.074359e+01
   1.216270e+02  -3.599870e+01
   2.340286e+02   2.190198e+01
   1.421831e+02   1.685538e+02
  -1.777077e+02   2.561728e+02
  -2.769824e+02   1.090987e+02
  -2.208350e+02  -6.573106e+01
   3.523061e+01  -2.425420e+02
   2.953204e+02  -3.387191e+02
   3.447117e+02  -1.887954e+02
   2.569997e+02   1.910389e+02
   9.084994e+01   4.047975e+02
  -6.754590e+01   3.199402e+02
  -4.100400e+01   2.040151e+02
  -4.844774e+01   7.677437e+01
  -1.231793e+02   1.031759e+02
  -2.220857e+02   1.088179e+02
  -3.019001e+02  -1.373840e+02
  -1.167948e+02  -2.243883e+02
   1.044469e+02  -1.664175e+02
   1.732321e+02   2.765689e+01
   1.698324e+02   2.035938e+02
  -1.278955e+02   2.011092e+02
  -2.901719e+02   5.777442e+01
  -2.663992e+02  -1.496582e+02
  -1.520393e+02  -3.133262e+02
   7.720706e+01  -2.985695e+02
   1.488946e+02  -1.717677e+02
   1.364624e+02  -1.212243e+02
   1.851816e+02  -8.543208e+01
   3.489019e+02  -1.930618e+01
   4.833163e+02   1.793579e+02
   2.925246e+02   3.556744e+02
  -1.777268e+01   4.682675e+02
  -3.943979e+02   4.062948e+02
  -5.339736e+02   1.880034e+02
  -3.363606e+02  -1.385040e+02
  -1.989707e+01  -3.134553e+02
   8.550299e+01  -2.228780e+02
   4.068807e+01  -2.654729e+01
  -1.489718e+02   5.287447e+01
  -1.533969e+02  -1.270815e+01
  -2.449880e+01  -2.022911e+02
   1.590599e+02  -1.175489e+02
   1.539184e+02   6.460053e+01
  -1.991883e+01   1.160895e+02
  -1.926394e+02   1.523107e+01
  -1.855930e+02  -2.821748e+02
   5.245378e+00  -3.879047e+02
   2.547287e+02  -2.146839e+02
   3.236571e+02   5.858473e+01
   3.205573e+02   2.446137e+02
   6.644050e+01   3.203973e+02
  -1.837514e+02   1.339383e+02
  -2.395978e+02   5.021204e+00
  -5.113543e+01  -5.656438e+01
   9.775119e+01   1.086933e+01
  -6.630567e+01   1.368854e+02
  -1.186220e+02   7.729980e+01
  -1.624643e+02  -2.614765e+01
  -1.564149e+01  -6.215212e+01
   8.263720e+01   1.649977e+01
   6.177154e+01   8.306936e+01
  -1.707589e+02   6.766021e+01
  -2.713604e+02   1.654704e+01
  -2.731298e+02  -1.395379e+02
  -8.150878e+01  -2.834473e+02
   1.306419e+02  -2.068636e+02
   3.068763e+02  -1.167459e+02
   1.587159e+02   4.389553e+01
  -3.786710e+01   2.596864e+01
  -4.906928e+01  -5.454302e+01
   3.089636e+01  -9.904866e+01
   2.290268e+02  -5.227099e+01
   2.123361e+02   1.427913e+02
   1.336847e+02   1.988084e+02
  -1.192598e+02   1.700720e+02
  -1.158020e+02   1.098200e+01
  -4.714504e+01  -2.431658e+01
   5.730003e+01   3.094934e+01
   7.890970e+01   5.171248e+01
  -7.593073e+01   8.806274e+01
  -2.371977e+02  -3.545248e+00
  -2.065414e+02  -1.764592e+02
  -7.984493e+00  -2.156557e+02
   1.861304e+02  -1.637024e+02
   2.153581e+02  -3.388815e+01
   4.458028e+01   8.403270e+01
  -7.374821e+01   9.721451e+01
  -6.060266e+01   5.434800e+01
  -1.045506e+01  -8.157018e+00
  -4.804413e+00  -7.242031e+01
   1.180294e+01  -3.292287e+01
  -9.225306e+01   2.257661e+01
  -1.346012e+02  -1.331200e+02
   4.524082e+00  -2.028345e+02
   1.641357e+02  -1.901485e+02
   2.243876e+02  -4.955333e+01
   1.351238e+02   1.575388e+02
   1.522511e+01   2.263668e+02
  -1.573851e+02   1.366358e+02
  -1.583500e+02  -2.072211e+01
  -1.906870e+01  -3.139647e+01
  -2.317807e+01  -1.590800e+01
  -3.075424e+01  -3.465053e+01
  -7.213655e+01  -5.662608e+00
  -1.615143e+01  -5.855981e+01
   2.665280e+01  -1.048510e+02
   1.506403e+02  -6.466028e+01
   9.557311e+01   6.771045e+01
  -6.728982e+00   1.117933e+02
  -1.684113e+02   9.916749e+01
  -2.003607e+02  -4.628070e+01
  -1.224412e+02  -2.450979e+02
   1.399530e+02  -2.147726e+02
   2.458020e+02  -1.004545e+02
   3.066956e+02   6.838504e+01
   1.073848e+02   1.777699e+02
  -1.960236e+01   1.303981e+02
  -8.220258e+01   9.526313e+01
  -6.244014e+01   4.625192e+01
  -7.430175e+01   7.932795e+01
  -8.508443e+01   6.004201e+01
  -7.712810e+01  -3.917975e+01
  -1.262463e+02  -1.311779e+02
  -2.803803e+01  -2.185070e+02
   8.822077e+01  -1.187011e+02
   1.853963e+02   2.923749e+01
   1.347139e+02   1.521235e+02
   2.890711e+01   1.743890e+02
  -3.651165e+01   5.050362e+01
  -5.762598e+01   1.571827e+01
  -3.116695e+01  -3.438319e+01
   4.665823e-01  -4.124294e+01
  -3.887052e+01  -3.011832e+00
  -6.899821e+01  -2.362169e+00
  -2.762542e+01  -6.121098e+01
   1.029476e+02  -6.807679e+01
   1.985523e+02  -1.106538e+01
   1.655212e+02   8.749309e+01
  -3.757316e+00   1.061620e+02
  -1.471965e+02   6.743615e+01
  -1.121103e+02   1.029710e+01
  -2.300144e+01  -4.964531e+01
   1.157197e+01  -2.749478e+01
   4.849910e+01   2.618466e+01
   4.298098e+01   2.871418e+01
  -5.055454e+01   4.347908e+01
  -4.898493e+01  -1.524743e+01
  -1.646081e+01  -2.533666e+01
  -5.228301e+00  -4.484176e+01
  -3.046545e+01  -1.307815e+01
  -1.230480e+02  -9.576492e+00
  -4.826766e+01  -5.761526e+01
   9.585524e+00  -1.527203e+02
   1.276730e+02  -8.727707e+01
   1.638643e+02  -5.700860e+01
   1.269074e+02   6.841092e+01
   5.396355e+01   1.586261e+02
  -9.916344e+01   8.672505e+01
  -4.642348e+01  -3.830793e+00
   9.440174e+00  -1.270602e+00
   5.100623e+01   9.639737e+00
   7.690298e+01   1.206110e+02
  -1.050447e+02   1.531049e+02
  -1.855924e+02   3.769472e+01
  -1.349959e+02  -3.644027e+01
  -2.351191e+01  -8.834544e+01
   5.016113e+01  -8.713937e+01
   3.801588e+01   4.160950e+01
  -4.718129e+01   7.012497e+01
  -5.442243e+01   5.775191e+00
   1.177655e+01  -9.598788e+01
   4.837881e+01  -1.468701e+02
   1.182037e+02  -7.737058e+01
   8.979176e+01   8.787711e+01
   4.217602e+01   1.354699e+02
  -6.899590e+01   1.360383e+02
  -6.841711e+01  -4.706490e+01
   3.713984e-01  -1.014411e+02
   2.875404e+01  -9.661647e+01
   3.976206e+01  -1.107988e+01
   5.997099e+00   5.380002e+00
  -3.235915e+00  -1.160665e+01
  -2.329339e+01   3.998257e+01
   1.311131e+01   1.775344e+01
   1.859580e+01   6.637299e+01
  -1.576273e+01   1.000465e+02
  -4.988126e+01   7.759905e+01
  -1.271631e+02  -3.470512e+01
  -7.698336e+01  -1.296415e+02
  -2.011211e+01  -8.323778e+01
   3.556022e+01  -2.972336e+01
   1.033882e+02  -8.145659e+01
  -3.314627e+01  -3.830295e+00
   7.710822e-01   1.326490e+01
  -8.844091e+00   2.301752e+01
   4.210349e+00   4.453545e+01
  -1.742622e+01  -2.307615e+00
  -8.339196e+01   7.103741e+00
  -9.303983e+01  -2.409473e+01
  -1.308411e+01  -8.469508e+01
   8.278463e+01  -1.245642e+02
   1.989704e+02  -3.781593e+01
   1.513199e+02   5.908533e+01
   6.718629e+00   1.661143e+02
  -1.010607e+02   7.272801e+01
  -8.390062e+01   8.849916e+01
  -8.202337e+01   1.704784e+00
  -6.171642e+01  -1.799946e+01
   4.481934e+00  -1.076158e+01
  -4.344436e+01   6.627100e+00
  -5.510949e+01  -8.986346e+01
   7.358095e+00  -4.182345e+01
   5.832559e+01  -7.277493e+01
   9.373298e+01  -1.896537e+00
   8.860604e+01   1.253503e+02
  -1.077328e+00   1.471031e+02
  -1.154133e+02   7.962075e+00
  -1.048295e+02  -5.430482e+01
  -5.677145e+01  -1.438357e+02
   8.339634e+01   2.494728e+00
   1.319770e+02   2.281857e+01
   8.141228e+01   6.303364e+01
   3.201056e+00   5.631005e+01
  -1.165683e+01   2.213824e+01
   3.783814e+01   7.423985e+00
   3.737444e+01  -4.210978e+01
   1.087458e+01   3.443409e+01
  -6.445646e+01   3.035179e+01
  -8.956461e+01   6.999901e+01
  -8.732786e+01  -2.565605e+01
   4.856202e+01  -9.883791e+01
   5.591696e+01  -9.424062e+01
  -9.907098e+00   6.799578e+00
   1.816485e+01   6.909370e+01
  -3.994337e+01   2.528345e+01
   9.006711e+00  -7.288009e+00
  -4.756883e+01  -5.116883e+01
  -5.998926e+01  -2.765211e+01
  -1.576375e+00  -2.247488e+01
   3.829330e+01   3.217813e+01
   9.427927e+00   1.809934e+01
  -5.110551e+00  -1.351906e+01
   1.940746e+01  -1.822435e+01
   1.063897e+01   8.179496e+00
   1.743751e+01   9.089811e+00
  -3.366435e+01  -1.017262e+01
  -4.953065e+01   2.106010e+01
  -2.602367e+01  -5.061243e+01
   2.184737e+01  -7.972638e+01
   6.139103e+01  -2.731667e+00
   1.296256e+01   5.822530e+01
  -2.941082e+01   6.632213e+01
  -6.885193e+01   8.838681e+00
  -8.551007e+01  -2.284871e+01
   9.496988e+00  -5.780824e+01
   5.281771e+01  -3.626252e-01
  -2.772429e+01  -2.457901e+01
  -1.931724e+01  -1.942789e+01
  -2.892720e-01  -2.821711e+01
   1.480149e+01  -1.953621e+01
   1.058665e+02  -6.538694e+01
