
 $NMID
 id='ANONYMOUS ', fmtdat='(2E16.6)'
 volume=1.0
 tramp=1.0
 $END
   3.173704e+03   2.460965e+02
   2.071352e+03   1.335242e+03
   1.524894e+02   1.501781e+03
  -9.659459e+02   1.115933e+03
  -8.782352e+02   3.775720e+02
  -1.766738e+02  -1.031941e+02
   1.691739e+02  -2.639281e+01
  -5.851809e+01   4.589061e+02
  -3.078183e+02   4.213721e+02
  -4.473260e+02   1.139856e+02
  -3.494465e+02  -3.857962e+02
  -6.192595e+01  -5.947447e+02
   9.509307e+01  -2.020852e+02
   9.636417e+01   3.805665e+02
  -1.042668e+02   4.142233e+02
  -2.671079e+02   8.269787e+01
  -2.686960e+02  -4.709870e+02
   1.781114e+01  -6.594261e+02
   3.844572e+02  -2.629356e+02
   4.002829e+02   1.008174e+02
   1.540004e+02   3.228667e+02
  -1.757962e+02   3.107715e+02
   2.676517e+00   1.307115e+02
   2.623723e+02   1.770264e+02
   2.892012e+02   4.208634e+02
  -1.690181e+01   3.795822e+02
  -4.830928e+02   9.340659e+01
  -4.919228e+02  -2.091028e+02
  -2.156105e+02  -2.176615e+02
   2.353694e+02  -1.161872e+02
   4.423826e+02   2.011318e+02
   1.139960e+02   3.778294e+02
  -2.400157e+02   2.796447e+02
  -3.394495e+02   5.883394e+01
  -3.335180e+02  -1.863198e+02
  -1.530793e+02  -3.374389e+02
  -6.457488e+00  -1.732609e+02
  -7.304482e+01   4.417077e+01
  -1.718225e+02   6.552455e+01
  -9.425617e+01  -1.470038e+02
   1.381213e+02  -4.455232e+02
   1.715442e+02  -3.478617e+02
   2.251288e+02  -1.179050e+01
   9.030825e+01   2.216099e+02
  -1.078463e+02   6.528802e+01
  -1.054119e+02  -2.253511e+02
   1.168748e+02  -2.545724e+02
   4.178951e+02   2.645200e+01
   4.382578e+02   3.746577e+02
   1.006240e+02   4.167098e+02
  -2.367814e+02   2.262919e+02
  -4.601538e+02  -8.997975e+01
  -3.459545e+02  -2.204738e+02
   1.437768e+01  -1.391843e+02
   2.200797e+02  -8.904918e+01
   1.968681e+02   4.741117e+01
   4.432503e+01   3.638560e+01
   2.706680e+01  -1.350920e+01
   6.841493e+01  -7.532438e+01
   1.507855e+02  -5.879485e+00
   7.783842e+01   1.474406e+02
  -1.567217e+02   2.432471e+02
  -3.486496e+02   1.852085e+02
  -2.727517e+02  -7.737539e+01
   3.349674e+01  -3.042046e+02
   2.816360e+02  -3.857516e+02
   3.214613e+02  -2.077549e+02
   2.267934e+02   1.627437e+02
   2.548192e+01   3.044654e+02
  -2.016719e+01   2.857904e+02
   2.980537e+01   1.815714e+02
  -6.923906e+00   7.502923e+01
  -1.556115e+02   1.246221e+02
  -2.814070e+02   3.937725e+01
  -2.173484e+02  -1.406275e+02
  -1.411354e+02  -2.229595e+02
   6.439278e+01  -1.753578e+02
   1.725135e+02   6.470660e+01
   9.744981e+01   2.615953e+02
  -8.527276e+01   2.231764e+02
  -2.898642e+02   5.237724e+01
  -2.560736e+02  -1.412505e+02
  -1.154653e+02  -2.670204e+02
   1.015746e+01  -2.687819e+02
   1.684017e+02  -1.566759e+02
   1.458283e+02  -1.466847e+02
   2.117827e+02  -5.883099e+01
   2.812502e+02  -5.521081e+01
   4.613324e+02   9.909247e+01
   2.926603e+02   3.446274e+02
  -4.379098e+01   3.979845e+02
  -3.603174e+02   3.852744e+02
  -4.689481e+02   1.880652e+02
  -2.644270e+02  -1.358082e+02
  -2.356520e+01  -2.491563e+02
   1.322851e+02  -2.023715e+02
  -4.322147e+00  -5.460360e+01
  -1.096058e+02   1.073922e+01
  -1.232973e+02  -1.947836e+01
  -6.201244e+00  -8.022361e+01
   8.722071e+01  -1.111380e+02
   4.036074e+01   5.641828e+01
  -2.584033e+01   7.378845e+01
  -1.266910e+02   1.747664e+00
  -1.630634e+02  -2.093392e+02
   4.318048e+01  -3.098710e+02
   2.676546e+02  -1.641071e+02
   3.503390e+02   7.443190e+01
   3.018378e+02   2.856874e+02
   4.582907e+01   2.495584e+02
  -1.312257e+02   1.223834e+02
  -1.380272e+02   4.370813e-01
  -2.989750e+01   3.390491e+01
   3.982281e+01   8.347462e+01
  -2.206874e+01   5.561753e+01
  -9.763826e+01   3.630189e+01
  -1.583523e+02  -7.474139e+01
  -2.004875e+01  -6.204677e+01
   7.109814e+01   1.592846e+01
   4.848317e+00   9.534790e+01
  -1.309354e+02   1.012586e+02
  -3.432971e+02  -1.379289e+01
  -2.347345e+02  -1.986768e+02
  -3.716092e+01  -2.917467e+02
   2.158452e+02  -1.945563e+02
   2.463131e+02  -9.572983e+01
   1.340864e+02   4.068797e+00
  -2.200711e+01   4.610981e+01
  -1.411491e+01  -4.236946e+01
   4.046215e+01  -6.482485e+01
   2.244366e+02   1.181270e+01
   1.938992e+02   9.389219e+01
   1.007292e+02   1.701826e+02
  -1.017396e+02   1.628697e+02
  -1.651782e+02  -3.893293e+00
  -3.343634e+01  -2.620136e+01
   1.643166e+01   2.873646e+01
   3.965122e+01   1.281846e+02
  -1.111831e+02   1.516729e+02
  -2.085139e+02  -2.092488e+01
  -1.542675e+02  -1.640891e+02
  -2.459271e+01  -2.061132e+02
   1.548193e+02  -1.834834e+02
   1.829627e+02  -3.220979e+01
   4.586075e+01   1.009520e+02
  -7.288065e+01   1.162668e+02
  -5.149200e+01   2.658372e+01
   2.034304e+01  -3.253189e+01
   3.341954e+01  -4.564236e+01
  -3.465330e+00  -1.493041e+01
  -7.147223e+01   4.276048e+01
  -9.176228e+01  -7.815274e+01
  -5.695793e+00  -1.453272e+02
   1.479391e+02  -1.721796e+02
   2.465273e+02   3.307153e+01
   1.883818e+02   1.885800e+02
   5.300985e+01   2.247646e+02
  -7.810151e+01   1.564253e+02
  -1.136618e+02   4.253466e+01
  -8.626097e+01  -9.357150e+01
  -8.395655e+01  -3.413800e+01
  -5.916487e+01   3.731061e+01
  -9.446340e+01   4.332806e+01
  -5.529607e+01  -2.748976e+01
   4.637841e+01  -1.137203e+02
   1.303883e+02  -5.478969e+01
   1.400116e+02   3.298557e+01
  -8.403032e+01   1.219434e+02
  -2.233894e+02   7.363605e+01
  -1.921583e+02  -1.270570e+02
  -3.118545e+01  -2.650353e+02
   1.913950e+02  -2.358349e+02
   2.802488e+02  -7.383648e+01
   1.912399e+02   1.073919e+02
   1.189681e+02   2.088644e+02
  -1.796195e+01   1.513820e+02
  -1.362913e+02   7.786308e+01
  -1.312368e+02   6.145430e+01
  -8.468715e+01   1.033700e+02
  -8.729090e+01   1.353945e+02
  -1.029917e+02  -3.009192e+01
  -1.391565e+02  -1.599159e+02
  -3.258841e+01  -2.506590e+02
   7.337665e+01  -1.963439e+02
   1.390096e+02  -1.719673e+01
   1.541235e+02   1.305260e+02
   5.642686e+01   1.138286e+02
  -4.983023e+01   1.030660e+02
  -3.012481e-02   1.022654e+01
   1.998421e+01  -3.519975e+01
   3.317934e+01   1.737346e+01
  -1.215476e+01  -4.521103e+01
  -1.073280e+02  -3.742937e+00
  -1.014737e+02  -1.172675e+01
   7.874358e+01  -3.476919e+01
   1.812013e+02  -2.617110e+01
   1.772916e+02   3.567512e+01
  -2.460028e+00   1.280552e+02
  -1.861117e+02   1.176409e+02
  -1.862750e+02   2.559011e+01
  -9.455761e+01  -2.026645e+01
   1.887681e+01  -5.903453e+01
   8.392257e+01  -1.229810e+01
   4.649972e+01   6.424394e+01
  -6.821554e+01   5.633907e+01
  -6.702962e+01  -6.140001e+00
  -7.240167e+01  -8.952091e+01
  -4.041327e+01  -3.161486e+01
  -4.224290e+01   3.260701e-02
  -7.409124e+01   2.227337e+01
  -4.176597e+01  -6.860383e+01
   2.572919e+01  -9.920737e+01
   1.095863e+02  -1.356638e+02
   1.793081e+02  -5.705219e+01
   1.499189e+02   9.384548e+01
   3.746721e+01   1.397096e+02
  -5.824157e+01   5.680451e+01
  -3.005240e+00  -8.631647e+00
   6.790423e+01   4.114004e+01
   1.610958e+02   4.701420e+01
   2.536865e+01   1.180680e+02
  -6.402057e+01   1.359527e+02
  -2.041312e+02   4.754048e+01
  -1.674481e+02  -1.634032e+01
  -7.958794e+01  -1.142791e+02
   6.104124e+01  -8.431436e+01
   2.356639e+01   6.358702e+00
   3.132163e-01   2.820697e+01
  -1.128366e+02  -5.134492e+01
  -4.515774e-01  -1.611359e+02
   9.887783e+01  -1.783802e+02
   1.133372e+02  -6.907896e+01
   1.128197e+02   9.481539e+01
   3.554615e+01   1.915097e+02
  -7.794382e+01   1.309402e+02
  -1.389563e+02  -2.840823e+01
  -3.690351e+01  -1.272450e+02
   3.044820e+01  -9.532268e+01
   8.105958e+01   3.668315e+01
   7.699384e+01   3.025917e+01
   2.353150e+00   3.499375e+01
  -3.381659e+01  -1.194598e+01
  -1.601051e+01   5.094003e+01
   7.955381e+01   1.159741e+02
   2.101154e+01   8.660553e+01
  -4.688694e+01   2.346831e+01
  -1.556062e+02  -5.571002e+01
  -1.773941e+02  -8.913602e+01
  -2.084490e+01  -6.351150e+01
   8.855861e+01   2.891877e+01
   6.858306e+01  -1.294535e+01
   5.996053e+01   1.159272e+01
  -6.054687e+01   3.757200e+00
   2.270182e+01  -2.425568e+01
   2.554521e+01  -5.400252e+01
  -6.413027e-01  -2.634541e+01
  -7.987123e+01  -1.186303e+01
  -1.011880e+02   1.054405e+00
  -3.837199e+01  -8.026269e+01
   1.179145e+02  -9.815534e+01
   1.758570e+02  -1.087720e+02
   1.822448e+02   3.802418e+01
   3.873468e+01   1.822760e+02
  -9.929839e+01   1.940247e+02
  -1.923675e+02   1.378963e+02
  -5.726223e+01  -3.729971e+01
  -6.828020e+01  -2.564171e+00
  -2.437970e+01  -2.856588e+01
  -1.476105e+01  -2.487851e+01
   3.760424e+00  -7.974974e+01
  -1.795947e+01  -9.969464e+01
   8.508132e+00  -7.428441e+01
   3.318273e+01   4.483643e+01
   7.215620e+01   8.954746e+01
   2.884345e+01   1.235227e+02
  -7.537291e+01   1.279812e+01
  -9.928782e+01  -7.736233e+01
  -2.367962e+01  -1.137964e+02
   6.747617e+01  -3.719700e+01
   7.363696e+01  -2.063546e+01
   4.224197e+01   8.499673e+01
  -3.880114e+01   4.182793e+01
   2.055601e+01   1.775700e+01
   5.555210e+01  -1.414385e+01
   8.279992e+01  -4.076697e+01
  -6.766101e-01   3.110279e+01
  -8.605762e+01   6.329916e+01
  -1.351292e+02   7.000863e+01
  -3.954987e+01  -4.510375e+01
  -3.025337e+01  -7.864348e+01
   2.564504e+01  -1.102356e+02
   5.270798e+01   4.059357e+00
   4.307654e+01   5.419643e+01
   1.323655e+01   3.998904e+01
  -1.508574e+01   1.767143e+00
  -5.874909e+01  -2.059226e+01
  -2.333265e+01  -5.904313e+01
   4.382231e+00  -4.588919e+00
   1.751332e+01   1.393889e+01
   2.372122e+01  -2.653261e-01
  -3.086028e+01  -1.853864e+01
  -7.082127e+00   2.056800e+01
  -2.595581e+01   7.556413e+01
  -9.827574e+00   9.960312e+01
  -2.897047e+01   3.603517e+01
  -6.751698e+01  -1.242024e+01
  -3.259696e+01  -4.368404e+01
   6.438710e+01  -1.423848e+01
  -1.994910e+00  -6.671510e+00
  -2.764201e+01   4.802690e+01
  -5.078561e+01   9.944039e+00
  -1.004072e+02  -1.036898e+01
  -1.050985e+01  -4.646784e+01
  -1.341631e+00  -4.632958e+01
   4.163357e+01  -4.968028e+01
   4.466139e+01  -4.048956e+00
  -4.586619e+01   1.937882e+01
  -3.868827e+01   4.886058e+01
   4.392256e+01  -5.887414e+00
   8.096040e+01  -2.794087e+01
