
 $NMID
 id='ANONYMOUS ', fmtdat='(2E16.6)'
 volume=1.0
 tramp=1.0
 $END
   5.060345e+03  -6.810252e+01
   3.000225e+03   2.943048e+03
  -6.943043e+02   3.179551e+03
  -2.268590e+03   9.197168e+02
  -1.215619e+03  -6.838112e+02
   7.218634e+02  -5.995444e+02
   9.236810e+02   4.283235e+02
  -2.720530e+01   1.145788e+03
  -8.702513e+02   7.920631e+02
  -1.040279e+03  -6.045958e+01
  -4.546609e+02  -8.943814e+02
   2.912003e+02  -9.697607e+02
   6.889455e+02  -5.864047e+01
   4.301191e+02   8.359387e+02
  -3.127393e+02   8.481437e+02
  -6.217981e+02   9.071901e+01
  -2.840023e+02  -7.589005e+02
   3.592984e+02  -6.401710e+02
   6.838958e+02  -1.925641e+02
   5.057217e+02   2.834651e+02
  -1.521678e+01   4.548296e+02
  -2.797102e+02   2.365189e+02
  -1.556728e+02   1.073454e+01
   1.653959e+02  -9.321797e+01
   4.586277e+02   1.271761e+02
   2.329948e+02   4.855992e+02
  -4.481084e+02   4.662312e+02
  -9.663024e+02  -1.142787e+02
  -4.103603e+02  -6.186184e+02
   3.770674e+02  -4.788729e+02
   7.530205e+02   9.091820e+01
   3.726326e+02   5.807190e+02
  -3.284404e+02   5.425645e+02
  -6.621614e+02   1.776805e+02
  -4.986986e+02  -2.838867e+02
   1.817780e+01  -4.706200e+02
   1.884455e+02  -3.158502e+02
   1.351712e+02   2.393660e+02
  -2.056083e+02   4.701911e+02
  -4.971669e+02   1.165200e+01
  -2.599965e+02  -7.099147e+02
   4.000286e+02  -7.954314e+02
   6.901970e+02  -5.182296e+01
   2.669736e+02   5.888838e+02
  -3.326847e+02   3.454967e+02
  -4.363937e+02  -2.846306e+02
   8.123654e+01  -6.137383e+02
   6.662350e+02  -1.635588e+02
   6.677962e+02   4.366753e+02
   1.844972e+02   6.272555e+02
  -4.273600e+02   3.593180e+02
  -7.053723e+02  -4.677048e+01
  -4.297293e+02  -4.033742e+02
   1.582430e+02  -4.322359e+02
   5.149908e+02  -3.863576e+01
   2.887829e+02   2.450990e+02
  -1.359999e+02   1.178018e+02
  -1.672431e+02  -2.139239e+02
   1.664122e+02  -2.202235e+02
   3.710661e+02   6.337991e+01
   1.269963e+02   3.348274e+02
  -2.705968e+02   2.508219e+02
  -3.444710e+02   7.390953e+01
  -1.967199e+02  -6.713516e+01
   5.280451e+01  -2.295550e+02
   1.776691e+02  -3.195649e+02
   3.168963e+02  -3.211208e+02
   2.669892e+02   1.464907e+02
   8.554310e+01   5.027744e+02
  -1.378025e+02   4.002010e+02
  -1.580303e+02   8.605679e+01
  -2.380086e+01  -1.680657e+01
  -5.152146e+01   8.965794e+01
  -1.821267e+02   1.247195e+02
  -2.753816e+02  -4.576342e+01
  -2.028972e+02  -3.079396e+02
   5.131423e+01  -3.074729e+02
   2.864356e+02  -4.725361e+01
   2.385793e+02   2.253534e+02
   4.949757e+01   3.156785e+02
  -2.631874e+02   1.375953e+02
  -3.614484e+02  -2.071464e+02
  -1.927091e+02  -3.724881e+02
   1.066586e+02  -3.181555e+02
   2.289223e+02  -1.202851e+02
   1.614439e+02   4.466109e+00
   1.197792e+02  -4.431595e+01
   2.037301e+02  -1.406455e+02
   4.132369e+02   1.518526e+01
   3.623264e+02   3.064421e+02
   5.584325e+00   4.466946e+02
  -3.706953e+02   4.059235e+02
  -4.785872e+02   1.923368e+02
  -3.543811e+02  -9.459392e+01
  -4.578215e+00  -3.501110e+02
   1.992042e+02  -2.839186e+02
   1.613126e+02  -3.376269e+01
  -1.780640e+02   1.664066e+02
  -2.539429e+02  -4.006023e+01
  -4.219779e+01  -2.561522e+02
   1.506351e+02  -1.609455e+02
   1.460524e+02   8.991868e+01
  -9.752216e+00   2.033673e+02
  -2.317852e+02   3.826978e+01
  -1.706818e+02  -2.582953e+02
   8.108436e+01  -3.541642e+02
   2.621965e+02  -2.308336e+02
   3.767739e+02   9.928405e+01
   2.721692e+02   2.716647e+02
   7.442700e+01   2.829901e+02
  -1.111195e+02   1.712551e+02
  -1.866204e+02   8.053001e+00
  -6.899780e+01  -2.829753e+01
   1.006059e+02   1.686864e+01
   5.599970e+01   1.355258e+02
  -1.840804e+02   1.726399e+02
  -2.059408e+02  -2.973871e+01
  -5.291849e+01  -8.723941e+01
   4.894608e+01  -1.437217e+01
   5.987214e+01   6.134338e+01
  -1.361174e+02   1.317916e+02
  -2.829670e+02  -4.197682e+01
  -2.506627e+02  -8.444361e+01
  -6.730525e+01  -2.918812e+02
   2.214237e+02  -3.256998e+02
   3.452554e+02  -1.603334e+02
   1.976554e+02   5.075483e+01
  -2.609823e+01   9.723518e+01
  -6.832615e+01   2.439854e+01
   8.039958e+01  -6.037618e+01
   2.200488e+02  -2.363915e+01
   2.013111e+02   1.364495e+02
   3.564640e+01   2.128455e+02
  -1.325879e+02   1.556345e+02
  -2.260484e+02  -6.977438e+00
  -6.236453e+01  -5.034132e+01
   8.378260e+01  -2.425871e+01
   5.815007e+01   8.262643e+01
  -3.537832e+01   6.810311e+01
  -1.887707e+02   6.331699e+01
  -2.079802e+02  -1.503985e+02
  -2.010671e+01  -2.266298e+02
   2.360928e+02  -1.806753e+02
   2.387439e+02   3.819584e+01
   1.043097e+02   1.870885e+02
  -6.829609e+01   1.097329e+02
  -1.307074e+02   1.779306e+01
  -1.454509e+01  -6.570040e+01
  -2.293945e+00  -4.615356e+01
  -2.194216e+01   4.836466e+01
  -6.588351e+01   1.544926e+01
  -7.188724e+01  -8.367473e+01
   1.127648e+01  -1.805523e+02
   1.337622e+02  -1.755633e+02
   2.661495e+02   2.256771e+01
   2.215968e+02   1.491743e+02
   3.019181e+01   2.755708e+02
  -1.538049e+02   2.156011e+02
  -1.333856e+02   2.230382e+01
  -8.754874e+01  -3.031503e+01
   4.759424e-01  -5.233128e+00
  -5.534499e+01   9.178742e+01
  -8.908285e+01   5.992766e+01
  -4.609517e+01  -4.357277e+01
   4.656986e+01  -6.540564e+01
   1.028283e+02  -6.729383e+01
   7.434124e+01   5.026947e+01
  -1.924430e+01   1.080967e+02
  -1.049407e+02   1.086146e+02
  -1.793258e+02  -7.576247e+01
  -1.199462e+02  -1.951831e+02
   1.323549e+02  -2.237262e+02
   3.459544e+02  -8.738150e+01
   3.067614e+02   1.037549e+02
   1.392392e+02   1.943728e+02
  -3.162654e+01   1.629414e+02
  -7.557605e+01   9.905384e+01
  -8.352397e+01   8.786305e+01
  -7.829872e+01   7.221544e+01
  -1.107457e+02   9.947886e+01
  -1.390444e+02  -1.377694e+01
  -1.303976e+02  -1.421794e+02
  -3.884334e+01  -3.226097e+02
   8.514457e+01  -2.293284e+02
   1.165516e+02  -3.678745e+00
   1.391555e+02   8.334496e+01
   2.184207e+01   1.830519e+02
  -7.964788e+01   8.129392e+01
  -1.470513e+02  -1.283871e+01
  -6.980044e+01  -6.241376e+01
  -2.359568e+01  -2.847271e+01
  -1.410195e+01  -6.699190e+01
  -9.245414e+01  -3.749830e+01
  -4.726718e+01  -2.598608e+01
   7.393842e+01  -4.898167e+01
   1.193618e+02  -1.660768e+01
   1.471436e+02   4.404761e+01
   5.173658e+00   9.297252e+01
  -8.501182e+01   1.109668e+02
  -1.784908e+02   4.329484e+01
  -7.425600e+01  -4.582524e+01
   4.587062e+01  -1.462254e+01
   5.775389e+01   1.633767e+01
  -2.471076e+00   3.008325e+01
  -5.453397e+01   2.849862e+01
  -6.854020e+01  -4.288309e+01
  -2.215053e+01  -6.452842e+01
  -3.739562e+01  -7.311252e+01
  -5.761399e+01  -2.604252e+01
  -5.507858e+01  -8.211963e+00
  -1.643785e+01  -6.963391e+01
   9.530094e+01  -2.135230e+02
   1.319498e+02  -1.792799e+02
   1.739357e+02  -1.785649e+01
   1.990901e+02   1.114558e+02
   5.263307e+01   9.779023e+01
  -1.123977e+02   7.244390e+01
  -2.933660e+01   2.685975e+01
   2.335709e+00  -4.745001e+01
   1.678424e+02   9.857804e+00
   1.004232e+02   7.974317e+01
  -4.857472e+01   1.222157e+02
  -2.308750e+02   6.600740e+01
  -1.567547e+02  -3.256192e+01
  -8.677347e+01  -1.129177e+02
   8.499235e+01  -1.274886e+02
   8.915168e+01   1.222394e+01
   7.938235e+00   5.911134e+01
  -9.611042e+01   3.424826e+00
  -9.619980e+00  -1.217855e+02
   7.817299e+01  -1.410563e+02
   1.494141e+02  -3.959070e+01
   1.227133e+02   1.386004e+02
  -2.999656e+01   2.394569e+02
  -9.577689e+01   1.415043e+02
  -1.000398e+02   3.122483e+01
  -5.304092e+01  -1.046425e+02
  -1.109563e+01  -9.212987e+01
   8.268288e+01  -3.293794e+01
   2.348398e+01   3.904830e+01
   4.335743e+01   2.272004e-01
   7.477524e+00  -4.601132e+01
   6.856335e+01   3.141056e+01
   9.237161e+01   1.380959e+02
   4.268476e+01   1.551035e+02
  -3.937966e+01   4.737949e+01
  -1.548421e+02  -5.942335e+01
  -1.724076e+02  -1.227733e+02
  -4.552573e+01  -5.311256e+01
   6.525914e+01   4.357070e+00
   6.542607e+01   2.202992e+01
   1.304594e+01  -3.358630e+01
  -9.280424e+01   1.015504e+01
  -4.732071e+01   2.379576e+01
   1.548166e+01  -5.751697e+01
   3.278303e+00  -3.747697e+01
  -5.022593e+01   6.521694e+00
  -1.238798e+02   4.393781e+01
  -5.109011e+01  -1.991675e+01
   6.875587e+01  -1.461799e+02
   1.840643e+02  -5.565579e+01
   1.404315e+02   1.075663e+02
   4.548340e+01   2.197654e+02
  -3.261352e+01   1.457851e+02
  -1.220101e+02   1.125759e+02
  -1.019983e+02  -3.621082e+01
   3.910251e+00  -2.928203e+01
   1.695988e+01   3.406724e+01
   4.013082e+01   2.239284e+01
  -5.340797e+01   1.050327e+00
  -1.139895e+02  -8.500266e+01
   4.029739e+01  -4.247092e+01
   4.436543e+01  -2.184776e+01
   7.870453e+01   8.103991e+01
   2.890221e+01   1.282418e+02
  -4.519976e+01   1.414563e+01
  -1.055442e+02  -9.207516e+01
  -5.584019e+01  -8.463951e+01
   9.426717e+00  -7.426038e+01
   1.059002e+02   3.727216e+01
   3.494501e+01   4.952703e+01
  -6.736851e+01   3.140854e+01
  -6.252886e+01   6.998767e+01
   1.781201e+01   1.614607e+01
   7.286457e+01   7.461208e+00
   1.445856e+01   2.145265e+00
  -9.565344e+01   2.419432e+01
  -1.074397e+02   1.172572e+02
  -1.888973e+01   1.715658e+01
   4.790460e+01  -1.027092e+02
   2.692362e+01  -7.209499e+01
   3.288118e+01   9.897678e+00
  -8.915616e+00   7.612935e+01
  -2.340339e+01   5.338064e+01
  -6.973250e+01  -8.994485e+00
  -6.263458e+01  -8.910500e+01
  -8.881511e+01  -8.916827e+01
   1.458539e+01  -2.511476e+01
   1.019808e+02   8.187003e+00
   8.108376e+00  -2.299606e+01
   3.491645e+01  -1.328446e+01
  -1.824301e+01  -2.620631e+01
   1.720596e+01   7.615257e+01
  -7.725381e+00   3.911242e+01
  -8.356597e+00  -3.977174e+00
  -2.613513e+01   4.644958e+01
  -3.335006e-01  -2.148640e+01
   2.130666e+01  -1.029293e+01
   8.366400e+01   6.877702e+00
   8.595517e+00   9.217538e+01
  -5.980463e+01   6.876002e+01
  -1.023904e+02  -7.168097e+00
  -3.751959e+01  -5.949483e+01
   4.284807e+00  -2.887261e+00
   3.935033e+01  -2.608051e+01
   4.248823e+01  -3.164777e+01
  -1.097938e+01  -4.978688e+01
  -1.282516e+01  -3.539410e+01
   4.577077e+01  -6.735630e+01
   5.748315e+01  -1.859385e+01
