
 $NMID
 id='ANONYMOUS ', fmtdat='(2E16.6)'
 volume=1.0
 tramp=1.0
 $END
  -4.988829e+03   2.636796e+02
  -2.823130e+03  -2.645925e+03
   6.706994e+02  -2.886306e+03
   2.420955e+03  -8.685348e+02
   1.323457e+03   5.799496e+02
  -6.813926e+02   6.322037e+02
  -9.482066e+02  -4.062248e+02
  -1.494344e+01  -1.092811e+03
   8.566965e+02  -8.662910e+02
   9.346359e+02   6.266979e+01
   4.514896e+02   9.240569e+02
  -1.473117e+02   8.939118e+02
  -6.059991e+02   2.061982e+02
  -3.974556e+02  -6.925351e+02
   1.856997e+02  -7.612852e+02
   5.672007e+02  -2.124099e+01
   3.694226e+02   6.677004e+02
  -2.979685e+02   6.057016e+02
  -6.518846e+02   1.622062e+02
  -3.815324e+02  -3.898107e+02
  -5.055826e+00  -4.481737e+02
   1.740973e+02  -1.809277e+02
   1.971878e+02  -9.640044e+01
  -1.472192e+02   5.599649e+01
  -4.279499e+02  -1.180295e+02
  -2.048897e+02  -3.836826e+02
   4.828726e+02  -3.209824e+02
   8.861607e+02   1.220205e+02
   3.530928e+02   5.413746e+02
  -3.904571e+02   4.458689e+02
  -7.133904e+02  -4.469997e+01
  -3.418282e+02  -4.300203e+02
   2.921106e+02  -4.537728e+02
   5.485874e+02  -2.499455e+02
   4.010178e+02   2.211163e+02
   9.223723e+01   4.893413e+02
  -1.213504e+02   2.894398e+02
  -1.705808e+02  -2.027464e+02
   1.283234e+02  -4.532131e+02
   4.003310e+02   1.472614e+01
   2.179634e+02   6.330826e+02
  -3.480760e+02   6.482068e+02
  -6.060066e+02  -6.022353e+01
  -2.558327e+02  -5.539501e+02
   3.207535e+02  -2.779870e+02
   3.992655e+02   3.271385e+02
  -8.010199e+01   5.353136e+02
  -6.067459e+02   8.120874e+01
  -6.186269e+02  -4.512917e+02
  -1.831740e+02  -6.022144e+02
   3.925718e+02  -3.141081e+02
   6.717597e+02   6.159507e+01
   3.533764e+02   3.736633e+02
  -1.725848e+02   3.331543e+02
  -4.808281e+02   5.654323e+01
  -2.752627e+02  -1.674401e+02
   1.075781e+02  -1.458810e+02
   1.561601e+02   1.052734e+02
  -1.161415e+02   1.906019e+02
  -3.423445e+02  -1.304354e+01
  -1.570169e+02  -2.405307e+02
   2.637276e+02  -2.730741e+02
   3.873552e+02  -5.804465e+01
   1.597309e+02   1.204174e+02
  -7.937807e+01   2.489334e+02
  -2.550410e+02   3.755910e+02
  -3.285784e+02   2.310833e+02
  -2.961765e+02  -1.127912e+02
  -8.446385e+01  -4.486564e+02
   1.126954e+02  -3.966178e+02
   1.182449e+02  -1.315257e+02
   3.539964e+01   2.449667e+00
   1.288216e+01  -3.694552e+01
   2.222386e+02  -1.203124e+02
   2.893426e+02   6.909807e+01
   1.170820e+02   2.895087e+02
  -6.201557e+01   2.605210e+02
  -2.568721e+02  -2.133364e+01
  -2.637360e+02  -3.074618e+02
  -2.226744e+01  -3.273370e+02
   2.666367e+02  -1.218856e+02
   4.138021e+02   1.511122e+02
   1.838352e+02   3.491170e+02
  -8.737158e+01   2.886092e+02
  -2.745566e+02   5.923134e+01
  -1.583170e+02   1.883408e+01
  -1.226891e+02  -1.495955e+01
  -2.592145e+02   6.411013e+01
  -4.363599e+02  -6.349795e+01
  -3.350270e+02  -3.044500e+02
   3.593574e+01  -4.212115e+02
   3.707903e+02  -4.148346e+02
   5.210690e+02  -2.101291e+02
   3.576695e+02   1.533113e+02
   4.336757e+01   3.807862e+02
  -1.516973e+02   2.556891e+02
  -6.711580e+01   7.269451e+01
   6.456626e+01  -1.329433e+02
   1.508254e+02  -1.495104e+01
   1.097215e+02   1.452546e+02
  -1.219239e+02   1.767290e+02
  -1.371031e+02  -5.979687e+01
  -7.056629e+01  -2.243104e+02
   1.993357e+02  -7.526668e+01
   1.668818e+02   2.265968e+02
   4.938537e+01   3.836063e+02
  -1.994193e+02   1.782207e+02
  -3.251989e+02  -8.572445e+01
  -2.866290e+02  -2.077624e+02
  -5.394217e+01  -2.959872e+02
   2.021180e+02  -1.789451e+02
   2.192503e+02  -1.995821e+01
   1.136475e+02   4.286055e+01
  -5.854632e+01  -1.008173e+01
   3.191510e+01  -5.020619e+01
   1.791053e+02  -4.772502e+01
   2.219680e+02   8.049435e+01
   2.284527e+01   5.451912e+01
  -1.419214e+02  -1.009342e+01
  -4.803251e+01  -6.787581e+01
   1.930306e+02  -5.447280e+01
   3.410772e+02   5.054403e+01
   2.888764e+02   1.853510e+02
   4.088538e+01   2.644403e+02
  -2.198176e+02   2.727566e+02
  -3.043709e+02   1.073268e+02
  -1.452733e+02  -3.548735e+01
   2.237505e+01  -8.813933e+01
   5.992855e+01   2.431417e+01
  -5.781370e+01   6.238088e+01
  -2.067329e+02   6.057587e+01
  -2.529325e+02  -6.951180e+01
  -1.052768e+02  -1.874862e+02
   6.052627e+01  -1.015478e+02
   1.476025e+02  -6.751911e+01
   3.973004e+01   2.885840e+01
  -4.384291e+01  -2.045247e+01
  -6.810619e+01  -7.682094e+01
   6.880022e+01  -9.070688e+01
   2.006160e+02  -6.253009e+01
   2.117876e+02   1.385052e+02
   1.320287e+01   2.175007e+02
  -1.207491e+02   1.459091e+02
  -1.742568e+02   2.127699e+01
  -5.158118e+01  -1.379836e+02
   6.708224e+01  -1.713563e+02
   9.085599e+01  -8.410877e+01
   9.655073e+00   5.069536e+01
  -1.145579e+01   7.450938e+01
  -2.524052e+00  -2.640851e+01
   5.848521e+01   2.345868e+01
   1.342154e+02   7.845716e+01
  -2.399061e+01   1.978103e+02
  -1.666900e+02   1.977216e+02
  -2.530647e+02   5.378555e+01
  -2.380475e+02  -1.448215e+02
  -6.148077e+01  -2.634098e+02
   9.110279e+01  -2.069021e+02
   9.756524e+01  -9.808355e+00
   6.380584e+01   1.041047e+02
   3.410096e+01   1.110791e+01
   9.063776e+01  -5.621504e+01
   1.224283e+02  -3.128782e+01
   8.338943e+01   6.089226e+01
  -4.317803e+01   1.139031e+02
  -1.548827e+02   7.512562e+01
  -1.022684e+02  -8.114911e+01
  -2.833198e+01  -1.628856e+02
   7.853901e+01  -5.909874e+01
   1.823381e+02   4.072288e+01
   9.091620e+01   2.277341e+02
  -8.357409e+01   2.419237e+02
  -2.372899e+02   7.172631e+01
  -2.272946e+02  -7.181744e+01
  -1.118008e+02  -1.627692e+02
   4.611023e+01  -1.498326e+02
   1.084792e+02  -6.330744e+01
   7.340666e+01  -3.895575e+01
   6.083647e+01  -7.077692e+01
   7.340959e+01  -4.622519e+01
   1.198613e+02   6.317901e+01
   1.594777e+02   1.943894e+02
   1.306994e+01   2.071545e+02
  -1.076892e+02   1.660988e+02
  -2.137144e+02   1.912612e+01
  -1.599865e+02  -1.083605e+02
  -4.072371e+01  -1.968231e+02
   1.513116e+01  -7.595689e+01
   2.692654e+01  -5.754432e+01
   7.717115e+00   1.894720e+01
  -8.672948e+00   2.928560e+01
  -7.478069e+00   6.079368e+01
   6.056439e+01   3.833804e+01
   2.260068e+01   6.295032e+01
  -5.241489e+01   4.310597e+00
  -1.479247e+02  -5.256575e+00
  -1.766461e+02  -6.551623e+01
  -1.260942e+01  -1.232468e+02
   1.539444e+02  -2.528213e+01
   1.687519e+02   2.142324e+01
   4.087738e+01   3.992226e+01
  -5.176673e+01   3.857236e+01
  -2.885973e+01   2.728803e+01
  -6.913166e-01  -3.501890e+01
   7.114257e+01  -7.038537e+01
   4.618360e+01  -5.686937e+01
   8.370956e+01   3.566274e+01
   8.978041e+00  -3.263775e+01
   5.573947e+01  -5.230048e+00
   1.223396e+02  -4.533393e+00
   3.623124e+01   4.174867e+01
   4.627410e+01   1.533109e+02
  -1.182870e+02   1.525269e+02
  -1.832336e+02   4.556082e+01
  -1.312115e+02  -9.289157e+01
   5.335542e+00  -1.177819e+02
   1.168287e+02  -1.467076e+01
   8.632979e+01   5.924251e+00
  -7.563699e+01   1.831936e+01
  -1.358202e+02  -5.100549e+01
  -7.779399e+01  -1.117051e+02
   1.148233e+02  -8.915617e+01
   1.834072e+02  -4.045195e+01
   1.217056e+02   3.867843e+01
   8.042607e+00   4.220931e+01
  -1.225735e+02   2.470020e+01
  -9.338861e+01   1.090446e+01
   4.692585e+01  -3.987092e+01
   1.452996e+02   7.561405e+01
   3.631549e+01   1.647193e+02
  -7.553062e+01   1.446766e+02
  -1.309229e+02   1.001479e+02
  -1.264708e+02  -7.181838e+01
  -4.577795e+01  -1.866906e+02
   7.710609e+01  -1.357943e+02
   1.014413e+02  -1.556234e+01
   5.057053e+01   1.293361e+02
  -1.088816e+01   1.248245e+02
  -5.172968e+01   6.655468e+01
  -6.492994e+01  -3.352228e+00
  -2.750335e+01  -5.369197e+01
   2.070216e+01  -2.005304e+01
  -3.460330e+00  -5.914236e+01
  -4.447859e+01  -1.194924e+02
  -2.940519e+01  -1.287371e+02
   4.749199e+01  -4.498647e+01
   1.080506e+02   2.466210e+01
   9.904298e+01   1.094021e+01
  -1.386361e+01   5.700509e+01
  -7.935114e+01   6.962479e+01
  -7.141747e+01  -2.987182e+01
  -2.126371e+01  -1.349022e+01
   5.354176e+01   3.431567e+01
   3.462588e+01  -6.151915e+00
  -2.795550e+01   2.196359e+01
   8.337667e+00  -3.089189e+01
   9.597070e+01   4.675015e+01
   1.178673e+02   3.338539e+01
   1.377684e+01   1.014077e+02
  -1.365700e+02   1.295827e+02
  -2.207832e+02   1.164914e+02
  -1.456123e+02  -6.064345e+01
  -4.710954e+01  -1.752593e+02
   8.146247e+01  -1.611395e+02
   9.662363e+01  -6.846301e+01
   5.208363e+01   5.022009e+01
   4.066475e+01   8.076182e+01
  -1.176726e+01   4.037417e+00
  -3.138299e+00   4.225916e+01
  -3.173854e+01   8.518955e+01
  -3.877696e+00   7.724861e+01
  -1.853393e+01   4.420408e+01
  -1.359388e+02  -1.616923e+01
  -1.367423e+02  -1.275971e+02
   1.401971e+01  -1.204865e+02
   8.214073e+01  -1.719720e+00
   1.043289e+02   1.106239e+02
   1.638475e+01   1.544907e+02
   1.565522e+00   1.139783e+02
  -7.991725e+01  -2.743158e+00
  -4.727879e+01  -7.334002e+01
  -5.448119e+00  -4.608249e+01
  -4.676424e+00  -7.278688e+01
  -5.356993e+01  -7.906192e+00
  -7.485320e+01   1.190101e+01
   1.966099e+01  -4.207175e+01
   9.397302e+01  -1.156566e+02
   8.994796e+01  -5.998766e+01
   7.538528e+01   9.929163e+00
   1.523935e+00   1.329622e+02
  -2.841036e+01   1.226655e+02
  -8.778370e+01   2.663909e+01
  -5.078845e+01  -8.388274e+01
   2.489949e+00  -5.466538e+01
   4.534494e+01  -1.082314e+01
   2.305090e+01   5.788558e+01
  -1.434966e+01   7.828694e+01
  -5.096875e+01   1.194733e+01
  -4.022773e+01   1.507583e+01
   2.064179e+01   6.114646e+01
   2.367643e+01  -2.520803e+01
   1.670790e+01  -5.621353e+01
   3.416972e+01  -7.795119e+01
   5.571018e+01  -4.574991e+01
   8.266381e+01   4.554108e+00
   2.469394e+01   3.691159e+01
   5.958438e+01   5.459203e+01
   4.747886e+00   1.029024e+01
  -6.885038e+01  -5.667312e+01
  -1.007172e+01  -6.142152e+01
   6.097592e+01  -1.212360e+01
   7.695866e+01   2.823821e+01
   5.103771e+01   3.290000e+01
  -4.968997e+01   3.897287e+01
  -4.204280e+01   4.098107e+01
  -2.731038e-01   3.580331e+01
   7.624431e+01   1.386160e+01
   3.629432e+01   4.460593e+01
  -1.290034e+01   4.790710e+01
  -8.809480e+01   1.153009e+01
