
 $NMID
 id='ANONYMOUS ', fmtdat='(2E16.6)'
 volume=1.0
 tramp=1.0
 $END
   2.667685e+03  -1.559524e+02
   1.507276e+03   1.578392e+03
  -2.811779e+02   1.561450e+03
  -1.010064e+03   5.339903e+02
  -4.862574e+02  -2.319264e+02
   1.591982e+02  -3.343639e+02
   5.070571e+02   1.634606e+02
   8.712009e+01   5.164504e+02
  -3.678438e+02   4.860494e+02
  -4.976760e+02  -1.056456e+02
  -2.183016e+02  -3.907692e+02
   5.056504e+01  -4.211566e+02
   2.591277e+02  -9.057838e+01
   1.750865e+02   3.149551e+02
  -1.114379e+02   3.880662e+02
  -2.588951e+02  -4.349466e+01
  -1.653135e+02  -3.391121e+02
   1.741987e+02  -4.081445e+02
   3.278019e+02  -1.511855e+02
   1.960927e+02   1.539561e+02
   5.997216e+01   1.663983e+02
  -4.406434e+01   1.339407e+02
  -8.772849e+01   3.444322e+01
   4.540191e+01   2.513466e+01
   2.365017e+02   1.045685e+02
   7.044177e+01   2.551893e+02
  -2.483969e+02   2.601407e+02
  -4.454591e+02   2.490034e+01
  -2.189051e+02  -2.176478e+02
   1.750121e+02  -1.769358e+02
   3.736855e+02   2.569228e+01
   1.847028e+02   2.424580e+02
  -1.220294e+02   2.288636e+02
  -2.474203e+02   7.397118e+01
  -1.891654e+02  -1.194583e+02
  -3.353260e+01  -1.967437e+02
   6.136437e+01  -1.551116e+02
   5.342803e+01   8.328669e+01
  -8.910623e+01   1.913310e+02
  -1.920215e+02  -4.566120e+01
  -2.022823e+02  -2.942206e+02
   1.335316e+02  -2.851825e+02
   2.250609e+02   1.172084e+01
   1.470765e+02   2.443070e+02
  -1.843471e+02   1.353512e+02
  -2.281126e+02  -1.250417e+02
   8.001623e+01  -2.508349e+02
   2.683359e+02  -7.712768e+01
   3.359810e+02   1.603978e+02
   8.899380e+01   2.540086e+02
  -2.276501e+02   1.840742e+02
  -3.169852e+02  -2.587775e+01
  -2.441172e+02  -2.323535e+02
   4.856899e+01  -1.543892e+02
   2.407595e+02  -9.655672e+01
   1.545016e+02   1.171131e+02
  -5.584471e+01   5.089840e+01
  -1.057977e+01  -3.077328e+01
   6.111334e+01  -6.103632e+01
   1.561827e+02   3.036905e+01
   9.059103e+01   1.373218e+02
  -7.984346e+01   1.797742e+02
  -2.258139e+02   8.968734e+01
  -7.657166e+01  -9.990808e+01
   4.914073e+01  -1.385031e+02
   1.434178e+02  -1.712861e+02
   1.974791e+02  -9.189170e+01
   1.333476e+02   6.062089e+01
   5.739652e+01   2.412973e+02
  -5.415542e+01   1.891047e+02
  -6.177631e+00   8.026771e+01
   5.191074e-01   3.433014e+01
  -2.612630e+01   4.744577e+01
  -1.352979e+02   2.149290e+01
  -1.558997e+02  -7.763348e+01
  -9.958512e+01  -1.320312e+02
   6.548826e+01  -1.021859e+02
   9.113490e+01  -1.884011e+01
   9.268803e+01   1.551701e+02
   4.559400e+01   1.401245e+02
  -1.040959e+02   8.275358e+01
  -1.811171e+02  -1.115390e+02
  -1.000941e+02  -2.097605e+02
  -1.142026e+01  -1.537588e+02
   1.260860e+02  -5.467094e+01
   1.197950e+02   7.799952e+00
   8.802733e+01  -1.664319e+01
   8.467134e+01  -4.406738e+00
   2.216095e+02   2.908278e+00
   1.673994e+02   1.531315e+02
   4.914632e+01   2.521063e+02
  -1.949106e+02   2.472087e+02
  -2.449563e+02   1.419496e+02
  -1.266609e+02   3.506521e+00
  -2.987844e+01  -1.152403e+02
   1.280820e+01  -1.309056e+02
  -4.662160e+00  -4.363262e+01
  -1.214318e+02  -6.686751e+00
  -1.245590e+02  -2.941738e+01
  -3.812876e+01  -9.252898e+01
   9.003228e+01  -8.943682e+01
   1.160968e+02   5.638725e+01
  -2.597770e+01   1.044411e+02
  -8.465377e+01  -1.807376e+01
  -5.295196e+01  -1.291117e+02
   1.591338e+01  -2.192884e+02
   1.275988e+02  -1.231246e+02
   2.084181e+02   1.066281e+01
   1.583130e+02   1.357304e+02
   3.114258e+01   1.443135e+02
  -5.793126e+01   4.072730e+01
  -8.809841e+01   2.990236e+01
   1.093293e+00   3.943447e+00
  -2.017844e+01   5.422334e+01
  -5.673644e+00   7.825077e+01
  -4.608941e+01   7.231703e+01
  -8.029882e+01  -2.066431e+01
  -4.693281e+01  -1.479487e+01
   3.397463e+01   2.441750e+01
   1.027520e+00   3.643620e+01
  -7.856814e+01   4.066954e+01
  -1.896382e+02   1.123285e+01
  -1.372456e+02  -9.812978e+01
  -4.714791e+01  -1.735067e+02
   1.386803e+02  -1.509779e+02
   1.322019e+02  -3.241190e+01
   7.793549e+01  -2.954416e-01
  -1.448523e+01   9.303654e+01
  -4.840011e+01  -2.150743e+01
   7.279377e+00  -2.428675e+01
   1.076382e+02   1.328528e+01
   1.063113e+02   3.056218e+01
   1.310265e+01   9.915257e+01
  -8.513971e+01   9.286606e+01
  -8.529505e+01   6.526221e+01
   1.997026e-01  -1.524187e+01
   1.098095e+01  -6.054351e+00
   1.461734e+01   6.584764e+01
  -5.055227e+01   6.292193e+01
  -1.641548e+02   2.270720e+01
  -1.430666e+02  -8.850166e+01
  -2.777131e+01  -7.581780e+01
   6.805686e+01  -1.128127e+02
   1.114072e+02  -3.921723e+01
   2.793488e+01   2.710073e+01
  -2.427095e+01   7.750879e+01
  -6.876530e+00  -3.234027e+01
   1.380875e+01   4.225633e+01
  -2.529112e+01  -1.151279e+01
  -9.471373e+00  -1.323587e+01
  -6.544467e+01   2.556611e+01
  -2.712417e+01  -3.048571e+01
  -2.511808e+01  -6.409364e+01
   1.027058e+02  -3.907607e+01
   1.021321e+02   2.712069e+01
   7.318144e+01   9.647451e+01
   4.110275e+01   1.082196e+02
  -3.818660e+01   1.067006e+02
  -3.790694e+01   2.539169e+01
  -5.104554e+00   1.473502e+01
   2.952070e+01   4.582452e+01
  -3.897102e+01  -8.837761e-02
  -5.445671e+01   1.703330e+00
  -4.992579e+01  -1.905865e+00
   1.886804e+01  -5.766848e+01
   8.799758e+01  -6.559843e+01
   6.805430e+01   1.590385e+01
  -3.521482e+01   1.131319e+02
  -6.435755e+01   6.734831e+01
  -1.241434e+02  -4.527222e+01
  -8.737357e+01  -1.376774e+02
   4.376017e+01  -1.300872e+02
   1.331835e+02  -4.800143e+01
   1.354227e+02  -9.477563e+00
   1.042454e+02   6.706119e+01
  -1.928746e+01   6.831249e+01
   6.306238e+00   8.827088e+01
  -9.682890e-01   2.245017e+01
  -3.369899e+01   8.382868e+01
  -1.240921e+01   7.094712e+01
  -1.024574e+02  -5.606161e+00
  -4.927947e+01  -1.249490e+02
  -1.491712e+01  -1.589249e+02
   6.245771e+01  -6.873957e+01
   6.517878e+01   3.297919e+01
   7.711288e+01   9.917065e+01
  -4.155431e+01   9.398932e+01
  -3.133110e+01   6.706678e+01
  -2.712879e+01   2.379633e+01
  -6.713941e-01  -1.892509e+01
  -1.324077e+01  -2.122914e+01
  -4.020903e+01  -4.867311e+01
  -4.007167e+01  -6.444050e+00
   9.407690e+00  -7.219256e+01
   5.500304e+01  -5.084442e+01
   1.223382e+02  -2.058008e+01
   8.657230e+01   4.545486e+01
   3.185836e+01   9.805221e+01
  -4.717132e+01   2.597652e+01
  -1.231508e+02   1.819485e+01
   6.753045e+00  -2.551901e+01
   3.227657e+01  -2.765554e+01
   6.643292e+01   7.763633e+01
  -8.699295e-02   7.802171e+01
  -4.242796e+01   8.119022e+00
  -8.358159e+01  -3.065241e+01
  -1.028735e+01  -1.960130e+01
  -2.863745e+01  -3.173597e+01
  -6.085916e+01   3.726004e+01
  -6.055784e+01  -2.323483e+00
  -2.101095e+01  -2.575924e+01
  -1.914191e+01  -1.141349e+02
   5.891021e+01  -7.999085e+01
   1.003999e+02  -6.981514e+01
   1.017919e+02   8.879859e+01
  -2.114937e+01   5.235343e+01
  -5.110102e+01   3.867366e+01
  -6.871386e+01   9.167318e+00
   3.028818e+01  -1.397841e+01
   1.186149e+02  -7.956860e+00
   6.377975e+01   9.180433e+01
  -5.793360e+01   7.082662e+01
  -1.003054e+02   1.279398e+01
  -5.631307e+01   1.038067e+01
  -1.468176e+01  -4.195943e+01
   1.952435e+01  -1.285154e+01
  -1.591006e+00   3.870229e+01
  -3.468803e+01  -6.670077e+00
  -4.019085e+01  -3.997331e+01
   6.524370e+00  -5.848105e+01
   6.943498e+00  -1.236829e+02
   7.444861e+01  -3.291273e+01
   7.639190e+01   2.043102e+01
   2.074558e+01   1.334445e+02
  -3.481507e+01   6.253614e+01
  -6.964104e+01  -3.249622e+01
   2.478648e+00  -6.790859e+01
  -2.904608e+01  -9.365233e+01
   2.446788e+01  -1.734347e+01
   3.707253e+01  -1.253897e+00
   4.054640e+00  -3.235151e+01
   3.002822e+01  -2.687064e+01
   3.318506e+01  -3.490795e+00
  -8.149211e+00   6.186634e+01
   3.535755e+01   7.328221e+01
  -2.653743e+01   3.286958e+01
  -1.041587e+02   2.488998e+01
  -8.355858e+01  -4.377662e+01
  -1.351319e+01  -5.416248e+01
   4.438053e+01  -5.069062e+01
   6.148547e+01   1.171667e+01
  -2.287398e+01  -1.528273e+01
   2.869212e+01   1.273199e+01
  -2.139323e+00   4.820548e+01
  -3.759707e+01  -2.958811e+01
  -1.703793e+01  -3.706988e+00
  -2.485355e+01  -7.508051e+01
  -4.354817e+01  -7.638482e+00
   1.879495e+00  -4.295663e+01
   3.557038e+01  -6.100037e+01
   8.559506e+01  -4.540601e+01
   9.539581e+01   5.294434e+01
  -2.987062e+01   1.276962e+02
  -1.040691e+02   7.760124e+01
  -7.529060e+01   3.291726e+01
   5.973627e+00  -2.705417e+00
  -5.541784e+00  -5.880683e+00
  -2.795333e+00   1.720218e+01
   1.358698e+01  -1.037485e+01
  -2.028098e+00  -3.044304e+01
  -1.909777e+01  -2.888426e+01
   5.509336e+00  -2.668250e+01
  -3.874682e-02  -2.423930e+00
   5.385402e+01   4.088683e+01
  -1.073136e+01   1.018732e+02
  -4.671681e+01   3.083532e+01
  -2.833164e+01  -5.475369e+01
  -7.040750e+00  -6.013554e+01
   7.794557e+01  -4.658293e+01
   7.477365e+01   3.349663e+00
   5.393358e+01   7.730904e+01
  -1.645632e+01   1.331629e+01
  -1.032270e+01   2.266022e+01
   2.610821e+01  -2.646509e+01
   2.895662e+01  -4.568951e+01
   2.503577e+01   2.449479e+01
  -2.985321e+01   3.847510e+01
  -5.910565e+01   5.850887e+01
  -1.511051e+01  -9.222243e+00
   7.243704e+00  -1.327801e+01
   1.034678e+01  -8.542869e+01
  -4.997069e+00   5.127493e-01
  -7.176760e+00  -2.357064e+01
  -4.243323e+01   2.060409e+01
   1.040933e+01  -9.105021e+00
  -7.104686e+00  -4.280323e+01
   7.595479e-01  -1.940920e+01
   1.108352e+01  -1.757880e+01
   1.594738e+01   1.782357e+01
   4.968347e+01  -2.520746e+01
   1.331520e+00   9.338505e+00
  -3.971315e+01  -4.122961e+00
   2.093004e+01   2.595979e+01
   3.624456e+01   1.008703e+01
  -2.688448e+01  -3.377272e+00
  -6.717997e+01  -4.518190e+00
   2.101787e+00  -8.398634e+01
   8.336961e+01  -1.001317e+01
   2.603142e+01   3.104796e+01
   3.720022e+00   5.859075e+01
  -3.106777e+01   5.919746e+01
  -4.096176e+01  -3.965650e+00
  -5.932724e+01  -1.355818e+01
   5.723880e+01  -3.680272e+01
   3.024029e+01  -3.726190e+01
   3.592532e+00  -1.597555e+01
   2.896393e+01   9.438659e+00
   7.833758e+00   1.952794e+01
  -2.830993e+01   3.612398e+01
   3.842527e+01  -3.237265e+01
