
 $NMID
 id='ANONYMOUS ', fmtdat='(2E16.6)'
 volume=1.0
 tramp=1.0
 $END
   1.941676e+03   3.006612e+00
   1.154884e+03   9.216186e+02
   3.294484e+01   1.095097e+03
  -5.721453e+02   6.316621e+02
  -4.745743e+02  -6.952498e+00
   3.945181e+01  -1.472472e+02
   2.483002e+02   1.316100e+02
  -4.379104e+01   3.369957e+02
  -2.395607e+02   2.488599e+02
  -3.470984e+02   1.139535e+01
  -3.128626e+02  -2.888024e+02
  -6.003287e+01  -3.683111e+02
   1.782564e+02  -1.306116e+02
   1.078989e+02   1.975150e+02
  -1.779498e+01   2.776968e+02
  -1.576509e+02  -1.757186e+01
  -1.268236e+02  -2.236800e+02
   1.006317e+02  -3.458776e+02
   2.905186e+02  -2.065711e+02
   2.995507e+02   6.340554e+01
   4.420212e+01   2.146628e+02
  -4.330675e+01   1.955242e+02
  -3.053410e+01  -7.471516e+00
   1.052063e+02   3.867509e+00
   1.167624e+02   1.572031e+02
  -1.151702e+01   2.296466e+02
  -2.593090e+02   1.686553e+02
  -2.400462e+02  -8.766847e+01
  -1.608499e+02  -1.709999e+02
   1.467853e+02  -1.364003e+02
   2.800122e+02   1.116926e+02
   7.146302e+01   2.116410e+02
  -1.812853e+02   1.881503e+02
  -2.306365e+02   1.161527e+02
  -2.261431e+02  -1.033991e+02
  -1.339958e+02  -1.743354e+02
   7.302458e+01  -1.236482e+02
  -1.068221e+00   2.367667e+01
  -9.122717e+01   7.840291e+01
  -1.911722e+02  -9.170679e+01
  -2.129358e+01  -2.058736e+02
   1.299747e+02  -2.176427e+02
   2.008900e+02  -8.571827e+00
   6.274787e+01   1.152224e+02
  -1.138139e+02   8.847496e+01
  -1.029872e+02  -1.128628e+02
   5.876136e+01  -2.268569e+02
   2.794805e+02  -9.384490e+01
   2.777641e+02   1.826329e+02
   8.044208e+01   2.695594e+02
  -1.640803e+02   1.682997e+02
  -2.283040e+02  -6.005973e+00
  -1.424276e+02  -1.160756e+02
   7.408357e+01  -9.323471e+01
   1.240699e+02  -5.093725e+01
   8.303521e+01   5.052896e+01
  -1.375008e+01  -2.134930e+01
   1.541717e+00  -5.675326e+01
   7.374406e+01  -5.735732e+01
   1.236836e+02   5.193548e+01
   8.457912e+01   9.850894e+01
  -7.311146e+01   8.285421e+01
  -1.697493e+02   7.546161e+01
  -1.367831e+02  -3.436384e+01
  -1.114566e+01  -1.459125e+02
   1.550373e+02  -2.358221e+02
   1.665534e+02  -1.144916e+02
   1.650450e+02   4.219686e+01
   5.029599e+01   1.536492e+02
  -3.291603e+01   1.365354e+02
   2.384193e+01   7.134966e+01
  -2.257216e+01   4.057137e+01
  -4.151044e+01   1.370271e+00
  -1.310936e+02   2.394778e+01
  -1.412238e+02  -9.615211e+01
  -6.621107e+01  -1.105768e+02
   6.102970e+01  -7.966645e+01
   1.000270e+02  -2.282087e+01
   7.733898e+01   1.158786e+02
  -2.287648e+01   1.200009e+02
  -7.704694e+01   6.953677e+01
  -1.539998e+02  -7.870318e+01
  -1.039131e+02  -1.259874e+02
  -3.852210e+01  -1.440253e+02
   5.940681e+01  -1.250679e+02
   7.646535e+01  -4.223163e+01
   1.042206e+02  -6.274191e+01
   1.578304e+02   3.843701e+01
   2.225516e+02   5.371815e+01
   1.368216e+02   1.628604e+02
  -1.132318e+01   2.198107e+02
  -1.699197e+02   1.661726e+02
  -2.320976e+02   1.207462e+02
  -1.387734e+02   5.782731e-01
  -5.836300e+01  -1.145946e+02
   2.020934e+01  -1.111654e+02
   2.471632e+01  -5.567356e+01
  -5.052163e+01   1.920600e+01
  -5.316968e+01   4.670353e+00
   2.193029e+01  -5.477607e+01
   8.691507e+01  -3.320386e+01
   1.271016e+02   1.367241e+01
  -2.065048e+01   6.159311e+01
  -7.128016e+01   8.567591e+00
  -5.781663e+01  -1.029269e+02
   1.831787e+01  -1.494737e+02
   1.377461e+02  -1.286703e+02
   1.986318e+02   4.757432e+01
   1.732321e+02   1.653915e+02
  -6.309851e+00   1.765683e+02
  -1.037508e+02   5.298800e+01
  -1.495556e+02  -1.375235e+01
  -5.282984e+01  -2.702025e+01
   2.136871e+01   9.666587e+00
   4.023952e+01   3.140027e+01
  -3.831943e+01   9.240862e+00
  -7.825469e+01  -2.206369e+01
  -6.584425e+01  -2.819806e+01
   1.933115e+01   8.345152e+00
   3.595820e+00   4.993013e+01
  -6.195314e+01   7.497474e+01
  -1.309600e+02   6.970380e+00
  -1.148709e+02  -7.299040e+01
  -4.294882e+01  -1.404754e+02
   1.325425e+02  -1.418765e+02
   1.567706e+02  -4.989675e+01
   3.594381e+01   7.203659e+00
  -2.260736e+01   4.639269e+01
  -5.046637e+01  -1.553572e+01
  -1.697805e+00  -2.894068e+01
   8.268094e+01  -3.052733e+01
   8.943388e+01   2.570967e+01
   1.637790e+01   4.798891e+01
  -6.226718e+01   8.972737e+01
  -6.146804e+01   5.721598e+01
  -3.288334e+01  -2.794423e+00
  -2.190421e+01   4.059333e+00
   3.639365e+01   3.659530e+01
  -8.385751e+01   4.651944e+01
  -1.355439e+02   6.855070e+01
  -8.657887e+01  -7.383983e+01
  -1.379251e+01  -1.535276e+02
   6.623485e+01  -7.587294e+01
   8.814547e+01  -5.632291e+01
   1.320336e+01   3.047997e+01
  -3.923444e+00   2.771979e+01
  -3.285572e+00   4.550675e+01
  -1.672069e+01  -1.427978e+01
   2.820036e+01  -1.743419e+01
  -1.757057e+01   6.308389e+00
  -8.868277e+01   1.679774e+01
  -4.745864e+01  -4.537667e+01
  -4.919475e+01  -5.113028e+01
   3.841404e+01  -7.410523e+01
   1.701267e+02  -9.568926e+00
   1.505466e+02   5.385555e+01
   1.624824e+01   1.300458e+02
  -3.060711e+01   3.514006e+01
  -7.357025e+01   2.425855e+01
  -3.692482e+01  -1.930984e+01
   2.981144e+01  -6.934823e-01
  -2.603793e+01   1.983457e+01
  -4.215754e+01   5.748873e+00
  -4.174116e+01   3.961587e+00
   1.253994e+01  -6.271190e+01
   7.587548e+01  -3.820093e+01
   9.153940e+01   3.942206e+01
  -6.760314e+01   9.730480e+01
  -9.393077e+01   6.410092e+01
  -1.189216e+02   2.272216e+01
  -4.084991e+01  -1.048922e+02
   5.768686e+01  -1.439506e+02
   8.368841e+01  -3.556091e+01
   1.050208e+02   5.519267e+01
   1.760544e+01   1.207000e+02
  -2.976226e+01   9.542134e+01
  -3.362181e+01   3.399500e+01
  -3.915441e+01   9.894017e+00
  -8.822179e+00   6.610053e+01
  -2.302966e+01   8.502423e+00
  -2.044363e+01  -3.509462e+01
  -4.743403e+01  -4.776825e+01
  -6.046056e+01  -1.053447e+02
   5.376292e+01  -4.607059e+01
   6.659679e+01  -1.412761e+01
   7.695243e+01   2.638658e+01
   4.809649e+00   9.359931e+01
  -3.748613e+01   2.731616e+01
  -5.614900e+01   1.729845e+01
   4.715074e+01  -3.690123e+00
  -6.042242e+00  -2.351872e+01
  -2.822136e+01   1.534578e+01
  -4.099846e+01  -3.226619e+00
  -5.817576e+01  -2.301682e+01
   4.588748e+01   2.729728e+01
   1.191377e+02  -2.208277e+01
   7.287675e+01   4.108117e+01
  -7.533113e+00   8.550453e+01
  -3.563630e+01  -1.264853e+01
  -7.022210e+01   5.069415e+01
   1.074447e+01  -5.782104e+01
   2.812805e+01  -1.962667e+01
  -4.994537e+00   3.647262e-01
   2.078121e+01   2.056752e+01
  -7.058946e+01   4.129559e+01
  -3.443258e+01  -9.899331e+00
  -2.098798e+01  -3.367427e+01
  -1.921013e+01  -2.798485e+01
   2.728110e+01  -5.500778e+00
  -5.986422e+01   4.991660e+01
  -3.574627e+01  -4.916026e+01
   1.138265e+01  -1.105413e+02
   5.703322e+01  -6.761208e+01
   1.095366e+02  -4.306286e+01
   5.582238e+01   7.759599e+01
  -6.264800e+00   1.038464e+02
  -4.067833e+01   1.268724e+01
  -4.579815e+01  -1.382100e+01
  -1.692145e-02   1.772923e+01
   8.041179e+01   6.169531e+01
   6.197561e+01   5.546735e+01
  -3.374522e+01   9.021662e+01
  -9.905791e+01   3.027037e+01
  -1.119110e+02  -2.398028e+01
  -6.232779e+00  -5.137457e+01
   3.915001e+01  -3.103918e+01
   1.979538e+01  -1.281680e+01
  -4.040417e+00   7.174933e+01
  -1.507697e+01   1.167721e+01
  -1.804619e+01  -6.421298e+01
   5.798535e+01  -7.955632e+01
   1.068200e+02  -7.118999e+01
   9.286294e+01   5.170806e+01
   2.540596e+01   1.042633e+02
  -1.347289e+01   6.505588e+01
  -8.209623e+01  -4.023848e+01
  -9.808030e+00  -6.312994e+01
   3.418331e+01  -1.014856e+02
   5.585726e+01  -2.217466e+01
   4.572792e+01   2.924988e+01
  -4.108581e+01  -1.618545e+01
   2.269633e+01  -2.393457e+01
   2.147634e+01   1.698446e+01
   4.012309e+01   7.708386e+01
  -4.704534e+01   3.772976e+01
  -1.434339e+01  -1.122691e+01
  -6.552377e+01  -6.264079e+01
  -7.556907e+01  -4.079098e+00
  -6.111153e+00  -1.410894e+01
   5.173894e+01  -4.892389e+01
   1.889097e+01   2.216189e+01
   1.122745e+01  -1.467184e+01
  -1.892915e+01   4.689536e+01
  -6.940435e+00   1.269468e+01
   6.683429e+01   7.639296e+00
   1.854556e+01  -2.607680e+01
  -2.798240e+01   3.914177e+00
  -2.893443e+01   1.734822e+00
  -1.033549e+01  -5.831631e+01
   4.641627e+01  -6.797040e+01
   9.990678e+01  -3.452222e+01
   7.926419e+01   5.653256e+01
   2.532133e+01   1.398925e+02
  -3.759398e+01   1.292786e+02
  -8.215644e+01   3.265804e+01
  -3.312283e+01  -2.803665e+01
   6.068624e+01  -1.138921e+01
   3.655334e+00   1.108789e+01
  -2.365340e+01   9.146673e+00
  -7.564445e+00  -2.240847e+01
   3.100236e+01  -1.062902e+02
   8.428791e+00  -5.296362e+01
   5.679724e+01  -6.397700e+00
   2.371301e+01   7.236993e+01
   2.478775e+01   1.058919e+02
  -3.401719e+01   3.734967e+01
  -6.990522e+01  -2.971268e+01
   2.601188e+00  -3.660713e+01
   4.343898e+01  -6.563840e+01
   5.084325e+01  -9.268200e+00
   7.031683e+01  -2.284589e+01
  -4.731206e+00   3.656822e+01
  -5.468531e+01   3.154178e+01
   7.196597e+00  -8.940620e+00
   8.901784e+01  -3.990146e+01
   5.109882e+01   4.432823e+01
  -4.471959e+01   6.444220e+01
  -8.066491e+01   6.895895e+01
  -6.626136e+01  -2.517757e+01
   3.460958e+01  -3.023513e+01
   8.421925e+01  -3.075958e+01
   2.500231e+01  -4.689352e+01
  -4.264534e+01  -2.113672e+01
  -2.039615e+01   1.747989e+00
  -5.162063e+01   2.312971e+01
  -9.078755e+00   3.614322e+00
   2.192027e+01  -4.057558e+01
   2.226161e+01  -7.671736e+01
   3.780225e+01   3.578361e+01
   5.487433e+01   9.858957e-01
  -3.341535e+01  -2.190943e+01
   1.251377e+01   1.309745e+01
  -1.599570e+01  -2.646388e+00
  -1.568203e+01   1.261335e+01
   2.552492e+01  -2.286327e+01
  -6.897020e+00  -2.651490e+01
  -1.861112e+01  -3.974693e+01
   6.645071e+01  -2.121179e+00
   1.912976e+01   1.340082e+01
  -1.073655e+01   1.706644e+01
  -3.953706e+01   3.075164e+01
  -6.277004e+01  -9.070400e+00
  -6.505442e+00  -5.167698e+01
  -4.483655e+00  -8.780644e+01
   1.004765e+02  -1.754232e+01
   1.891645e+01   5.727340e+00
   1.242014e-01   3.488797e+01
  -2.181928e+01   3.283924e+00
   1.092703e+00  -3.911669e+01
   4.928044e+01  -3.141322e+00
