
 $NMID
 id='ANONYMOUS ', fmtdat='(2E16.6)'
 volume=1.0
 tramp=1.0
 $END
   2.532268e+03   2.541939e+02
   1.780068e+03   1.468157e+03
   8.749422e+01   1.970619e+03
  -1.060905e+03   1.181035e+03
  -7.981312e+02   1.466592e+02
   3.920569e+01  -2.191380e+02
   4.200865e+02   9.929909e+01
   7.243942e+01   5.552909e+02
  -3.522768e+02   5.842423e+02
  -5.485673e+02   1.297125e+02
  -3.672270e+02  -3.861301e+02
   1.254475e+01  -5.697048e+02
   2.870195e+02  -1.919017e+02
   1.503431e+02   3.842515e+02
  -1.168160e+02   4.358647e+02
  -3.530392e+02   6.067380e+01
  -2.842434e+02  -3.794221e+02
   5.542847e+01  -5.805515e+02
   4.178734e+02  -2.931734e+02
   4.653439e+02   1.408292e+02
   1.872962e+02   3.277476e+02
  -2.249389e+01   2.112848e+02
  -1.086821e+02   1.095886e+02
   1.157691e+02   1.156344e+02
   2.327913e+02   2.445502e+02
   4.039538e+00   2.697082e+02
  -3.737539e+02   1.484357e+02
  -5.072739e+02  -7.115792e+01
  -2.186184e+02  -2.745873e+02
   2.720593e+02  -1.959905e+02
   4.028487e+02   5.006152e+01
   1.952645e+02   2.752791e+02
  -1.864011e+02   3.266167e+02
  -3.819406e+02   1.399763e+02
  -2.811417e+02  -1.234848e+02
  -6.535487e+01  -2.965025e+02
   4.269650e+01  -2.337579e+02
   2.518788e+01   7.126167e+00
  -5.327269e+01   1.562440e+02
  -1.444377e+02  -7.875330e+01
  -7.711127e+01  -4.024191e+02
   1.450854e+02  -3.824901e+02
   2.500050e+02  -2.239923e+01
   1.505917e+02   2.316331e+02
  -6.285656e+01   1.577874e+02
  -1.604412e+02  -1.619768e+02
   5.306336e+01  -3.631399e+02
   3.235768e+02  -8.501059e+01
   4.258846e+02   3.320380e+02
   2.171172e+02   4.184509e+02
  -2.204620e+02   2.548797e+02
  -4.456687e+02   1.766825e+01
  -3.148407e+02  -2.045316e+02
   5.815139e+01  -1.757969e+02
   2.490671e+02  -4.716418e+01
   1.627469e+02   7.363152e+00
  -7.361126e+00   4.212043e+01
  -1.073035e+02  -6.746447e+01
   2.842094e+01  -8.083504e+01
   2.020559e+02   6.868104e+01
   1.116544e+02   1.602552e+02
  -1.282255e+02   2.199442e+02
  -2.944917e+02   1.313879e+02
  -2.250603e+02  -5.952267e+01
   2.200648e+01  -2.709459e+02
   2.362904e+02  -3.377078e+02
   2.998109e+02  -1.052036e+02
   2.282693e+02   1.563056e+02
   9.186647e+01   3.156119e+02
  -1.154018e+01   3.460446e+02
  -4.581633e+01   1.508785e+02
  -3.079474e+01   1.130505e+02
  -1.340154e+02   1.196031e+02
  -1.940893e+02   9.790056e+01
  -2.549947e+02  -6.265700e+01
  -1.066908e+02  -2.092423e+02
   5.898616e+01  -1.946298e+02
   1.625670e+02   2.475133e+01
   1.590593e+02   2.502822e+02
  -3.420556e+01   2.141096e+02
  -1.729417e+02   4.027716e+01
  -2.998419e+02  -1.574005e+02
  -1.636075e+02  -2.891459e+02
   3.438182e+01  -2.246213e+02
   1.107007e+02  -1.539723e+02
   1.433605e+02  -1.187136e+02
   1.365113e+02  -5.624024e+01
   2.617919e+02  -2.978125e+01
   3.664842e+02   5.641845e+01
   2.635217e+02   2.307917e+02
  -2.170617e+00   3.944373e+02
  -3.012448e+02   3.947331e+02
  -3.336762e+02   1.722065e+02
  -1.845683e+02  -6.746481e+01
  -1.931553e+01  -2.293557e+02
   1.033865e+02  -1.814537e+02
   2.592003e+01  -4.300489e+00
  -1.122989e+02   6.765182e+01
  -1.048705e+02  -1.650386e+01
   2.823409e+00  -1.270012e+02
   9.716932e+01  -8.772667e+01
   7.677755e+01   7.835805e+01
  -3.837156e+01   1.019706e+02
  -1.852396e+02   1.639514e+01
  -1.543913e+02  -2.263247e+02
   3.489654e+01  -2.780945e+02
   2.262046e+02  -1.452731e+02
   3.019842e+02   6.805432e+01
   2.447896e+02   2.481900e+02
   4.355991e+01   2.882628e+02
  -9.667881e+01   1.126559e+02
  -1.378183e+02   1.021010e+01
  -5.296800e+01  -2.493975e+00
   3.192435e+01   1.076138e+02
   1.850093e+01   1.112193e+02
  -1.253110e+02   8.417843e+01
  -1.741042e+02  -8.648124e+00
  -1.816151e+01  -4.119837e+01
   7.284515e+01  -5.153113e+00
   6.515508e+01   6.531577e+01
  -1.609619e+02   8.760575e+01
  -2.527080e+02   6.680906e-01
  -2.237862e+02  -9.242710e+01
  -3.825422e+01  -2.293770e+02
   1.554930e+02  -2.177644e+02
   2.324425e+02  -1.590483e+02
   1.340858e+02  -4.314523e+00
   1.439146e+00   1.151941e+02
  -4.412762e+01   3.341528e+00
   3.688530e+01  -6.091207e+01
   1.321743e+02  -9.155528e+00
   1.172875e+02   6.633556e+01
   7.592339e+01   1.838380e+02
  -5.165692e+01   1.140224e+02
  -8.175980e+01   6.150770e+00
  -7.113110e+01  -3.239571e+01
   5.058825e+01   7.396314e+00
   4.378013e+01   1.289396e+02
  -9.428332e+01   1.147585e+02
  -1.772181e+02   4.377237e+01
  -1.285277e+02  -1.116418e+02
  -1.782981e+01  -2.070422e+02
   1.287953e+02  -1.274322e+02
   1.478023e+02   3.494388e+00
   2.978500e+01   7.369335e+01
  -7.447822e+01   6.847107e+01
  -1.829547e+00  -1.360915e+01
   2.033242e+01  -2.729661e+01
   5.802372e+01  -1.874782e+01
   3.901865e+01   7.934933e+00
  -1.070515e+02   1.328747e+01
  -6.200994e+01  -7.224369e+01
   3.417755e+01  -1.338910e+02
   1.125913e+02  -1.382026e+02
   1.966876e+02   2.667344e+01
   1.865409e+02   1.421200e+02
  -1.580357e+01   2.043852e+02
  -9.263936e+01   1.595740e+02
  -1.427566e+02   9.012266e+00
  -4.102229e+01  -8.523713e+01
   6.996737e+00  -9.261265e+00
  -4.036950e+01   1.058654e+01
  -1.041922e+02   2.833046e+01
  -7.338564e+01  -8.718268e+01
   4.434665e+01  -1.201868e+02
   9.268740e+01  -6.189911e+01
   9.679536e+01   1.421116e+01
  -1.996618e-01   1.358413e+02
  -1.744267e+02   9.236589e+01
  -2.283584e+02   7.853525e+00
  -1.234104e+02  -2.024560e+02
   1.073397e+02  -1.802566e+02
   2.551471e+02  -1.031519e+02
   2.326959e+02   7.308294e+01
   1.146918e+02   1.130129e+02
  -8.185175e+00   1.252231e+02
  -6.088307e+01   1.024302e+02
  -8.158545e+01   9.488000e+01
  -5.985291e+01   1.077662e+02
  -7.619988e+01   9.319769e+01
  -9.499629e+01  -3.312894e+01
  -1.200166e+02  -1.004432e+02
  -2.635811e+01  -2.359685e+02
   1.059604e+02  -1.092030e+02
   1.484004e+02  -1.331931e+00
   1.326093e+02   1.025981e+02
   1.154760e-01   1.723106e+02
  -5.621443e+01   4.379033e+01
   5.823907e-01   2.991840e+00
  -8.662176e+00  -1.347341e+02
   7.305729e+01  -5.017889e+01
   6.032056e+00  -1.896233e+00
  -8.967143e+01   2.102988e+01
  -3.913682e+01   1.916086e+01
   3.731931e+01  -6.865671e+01
   1.551412e+02  -2.088312e+01
   1.360043e+02   6.885658e+01
  -7.219878e+01   5.132320e+01
  -1.244585e+02   4.801073e+01
  -1.187498e+02   2.539941e+01
  -7.076974e+01  -5.066070e+01
   1.357999e+01  -2.189920e+01
   7.120910e+01  -3.488718e+01
   1.094669e+01   1.702253e+01
  -4.567673e+01   4.002182e+01
  -6.946644e+01  -2.120077e+01
  -4.361337e+01  -4.890035e+01
  -4.544522e+01  -2.245986e+01
  -5.778658e+01   1.222399e+01
  -7.876958e+01  -1.703038e+01
   9.391228e+00  -1.094007e+02
   1.823038e+01  -1.312150e+02
   7.100833e+01  -1.048952e+02
   1.080727e+02  -2.821457e+01
   1.250448e+02   9.022911e+01
   1.080839e+01   1.368730e+02
  -8.277778e+01   4.636549e+01
  -3.114351e+01  -3.052644e+00
   5.335076e+01  -2.196638e+01
   1.200736e+02   6.420923e+01
   5.572646e+01   8.984012e+01
  -1.197990e+02   5.638401e+01
  -1.884092e+02   1.597845e+01
  -6.976598e+01  -5.252833e+01
   1.892786e+01  -6.793094e+01
   7.953958e+01  -1.144499e+01
   3.989728e+01  -2.557631e+00
  -5.852732e+01   3.357952e+01
  -1.157147e+02   1.459690e+01
   1.032920e+01  -6.721821e+01
   5.465309e+01  -1.569620e+02
   1.733619e+02  -5.656193e+01
   1.189107e+02   3.777759e+01
   3.106266e+01   1.547433e+02
  -4.656448e+01   9.105043e+01
  -5.089120e+01  -2.188935e+01
  -5.612535e+01  -9.865551e+01
   1.753786e+01  -1.206211e+02
   3.897135e+01  -2.139818e+01
   1.254236e+01   7.701173e+00
   1.832779e+01  -1.667931e+01
   6.273686e+00  -5.545324e+01
   3.172709e+01   3.873605e+01
   9.080367e+01   1.050061e+02
   5.046648e+01   2.395745e+01
  -1.344129e+01   1.218272e+01
  -1.343241e+02  -5.534906e+01
  -7.677236e+01  -4.851049e+01
  -1.836745e+01  -3.391773e+01
   7.294998e+01   1.298484e+01
   7.966193e+01  -1.637017e+01
   1.184666e+00   4.308506e+00
  -4.218936e+01   4.646656e+00
   2.615317e+01  -2.757792e+01
   5.291254e+01   1.795510e+01
  -3.628948e+01   3.462034e+01
  -1.899339e+01   2.316516e+01
  -4.877143e+01   8.493386e+00
  -6.817234e+00  -5.993319e+01
   7.117844e+01  -1.233363e+02
   1.456970e+02  -6.179109e+01
   1.454687e+02   3.232432e+01
   3.717877e+01   1.311668e+02
  -9.112590e+01   1.418777e+02
  -8.753389e+01   1.149168e+02
  -5.861551e+01   3.604908e-01
  -1.528228e+01  -1.895317e+01
  -1.960071e+01   1.723221e+01
   2.114778e+01   1.660237e+00
  -3.868052e+01  -1.685555e+01
  -1.040936e+01  -6.185248e+01
   2.368101e+01  -7.070035e+01
   4.822420e+01  -2.742590e+01
   8.506585e+01   7.138611e+01
   3.887592e+01   9.226489e+01
  -4.687166e+01   3.331472e+01
  -8.061502e+01  -6.254941e+01
  -8.854451e+01  -4.628312e+01
   9.062104e+01  -4.764439e+00
   1.038759e+02   7.243712e+01
   5.878483e+01   4.236539e+01
  -1.190332e+01   8.274193e+01
  -5.097513e+01   5.746662e+01
   6.182503e+01   2.284564e-01
   4.045877e+01  -9.740639e+00
   8.136221e+01   6.942583e+01
  -7.857656e+01   6.015300e+01
  -1.565349e+02   3.841838e+01
  -7.837548e+01   2.027516e-01
   2.935069e-01  -7.125327e+01
   4.761501e+01  -7.726570e+01
   5.159120e+01   9.154269e-01
   3.497574e+01  -2.293198e+01
  -5.438596e+01   6.206254e-01
  -4.017253e+01  -1.520125e+01
  -4.241775e-01  -3.718163e+01
   4.568841e+01  -4.612470e+01
   6.024777e+01  -7.318249e+00
   2.883253e+01   3.429822e+01
   4.283784e+01   5.050386e+01
   1.628436e+01   7.960945e+00
  -9.907530e+00   5.053906e+00
  -1.060395e+01   2.289268e+01
  -5.772779e+01   1.896334e+01
  -5.309192e+01   5.759046e+01
  -3.902996e+01   5.649226e+00
  -2.479957e+01  -5.152453e+01
  -1.443173e+01  -6.987062e-02
   1.264815e+01  -1.006112e+00
  -9.929148e+00   8.778696e+01
  -5.576662e+01   5.448965e+01
  -8.836827e+01  -4.159413e+01
  -6.592983e+01  -4.304904e+01
   3.196993e+01  -5.928813e+01
   7.780441e+01  -2.348215e+01
   3.204876e+01  -3.954901e+01
  -4.223669e+00   2.646293e+00
  -7.730385e+01   4.915393e+00
   1.451871e+01   1.469102e+01
   4.036416e+01  -2.122754e+01
