
 $NMID
 id='ANONYMOUS ', fmtdat='(2E16.6)'
 volume=1.0
 tramp=1.0
 $END
   3.060972e+03  -1.222725e+02
   2.257978e+03   1.878444e+03
  -1.351587e+02   2.333159e+03
  -1.350038e+03   1.202602e+03
  -1.020732e+03   1.169747e+02
   3.317803e+01  -3.638112e+02
   5.667467e+02   2.211933e+01
   1.818375e+02   6.703064e+02
  -5.458148e+02   7.546634e+02
  -7.865454e+02   1.231955e+01
  -4.439614e+02  -6.048307e+02
   1.320911e+00  -7.052249e+02
   4.134460e+02  -2.280932e+02
   3.674904e+02   5.651050e+02
  -1.800893e+02   6.239246e+02
  -5.378874e+02   4.840597e+01
  -3.512203e+02  -5.341428e+02
   1.370875e+02  -5.861345e+02
   4.889499e+02  -2.757408e+02
   4.780443e+02   1.943131e+02
   1.206405e+02   4.424767e+02
  -1.490689e+02   3.426543e+02
  -9.363391e+01   7.268582e+01
   8.282318e+01   1.284615e+02
   2.221225e+02   1.965325e+02
  -6.966446e+00   3.360344e+02
  -4.338787e+02   2.132728e+02
  -6.425711e+02  -1.676878e+02
  -3.122391e+02  -3.845209e+02
   3.107594e+02  -3.116310e+02
   5.746321e+02   9.671917e+01
   2.207138e+02   4.182369e+02
  -2.728872e+02   4.005081e+02
  -5.278822e+02   2.477357e+02
  -3.858144e+02  -1.451637e+02
  -1.297563e+02  -4.012907e+02
   9.649174e+01  -1.627964e+02
  -1.598082e+01   1.182322e+02
  -1.998481e+02   1.845269e+02
  -2.631372e+02  -8.943251e+01
  -7.275062e+01  -5.677137e+02
   2.606997e+02  -5.151361e+02
   3.739341e+02   7.644952e-01
   1.900150e+02   3.286532e+02
  -1.133533e+02   2.299847e+02
  -1.985103e+02  -2.806839e+02
   1.183682e+02  -4.375357e+02
   4.557871e+02  -9.086117e+01
   5.375487e+02   3.866216e+02
   2.167076e+02   5.288113e+02
  -3.332359e+02   3.328045e+02
  -5.443887e+02  -5.978253e+01
  -3.240178e+02  -2.674251e+02
   9.869745e+01  -2.758348e+02
   3.009712e+02  -4.791803e+01
   1.991144e+02   6.555219e+01
  -2.563342e+01   3.246765e+01
  -9.266189e+01  -9.447923e+01
   1.178533e+02  -9.611948e+01
   2.348114e+02   4.349312e+01
   1.431137e+02   2.060472e+02
  -1.431276e+02   2.637670e+02
  -3.361481e+02   1.161341e+02
  -2.437837e+02  -9.094407e+01
  -1.321824e+01  -3.230107e+02
   2.971889e+02  -3.464061e+02
   4.043375e+02  -1.545879e+02
   2.772214e+02   1.425467e+02
   7.376721e+01   3.763773e+02
  -6.067135e+01   3.451080e+02
  -3.382230e+01   1.718227e+02
  -2.392159e+01   1.215882e+02
  -9.507652e+01   1.802695e+02
  -2.615068e+02   1.060451e+02
  -2.827376e+02  -1.178934e+02
  -1.229831e+02  -2.847267e+02
   4.967894e+01  -2.212305e+02
   2.042667e+02   1.697590e+01
   1.897710e+02   2.203339e+02
  -8.481713e+01   2.250880e+02
  -2.369404e+02   6.469084e+01
  -2.536283e+02  -1.781916e+02
  -8.820097e+01  -2.915770e+02
   7.688876e+01  -2.314328e+02
   1.701558e+02  -1.140483e+02
   1.358040e+02  -3.414883e+01
   1.546231e+02  -1.724049e+01
   2.808367e+02  -1.515491e+01
   4.175054e+02   1.171391e+02
   3.391893e+02   3.043548e+02
  -1.688569e+01   4.557052e+02
  -3.879439e+02   3.955838e+02
  -4.847285e+02   1.649382e+02
  -3.335639e+02  -5.831280e+01
  -7.861016e+01  -2.467721e+02
   1.122999e+02  -1.521836e+02
   9.219929e+00  -1.557675e+01
  -1.299763e+02   3.061855e+00
  -1.808361e+02  -9.911130e+01
  -1.391575e+01  -1.855467e+02
   1.506617e+02  -1.470062e+02
   1.337008e+02   6.748873e+01
  -3.229886e+01   1.196811e+02
  -1.682101e+02  -1.184561e+01
  -1.704640e+02  -2.180944e+02
   3.334787e+01  -3.532879e+02
   2.433734e+02  -2.037858e+02
   3.693437e+02   5.070936e+01
   2.938273e+02   2.603957e+02
   7.413848e+01   2.542114e+02
  -1.193635e+02   1.857170e+02
  -1.744915e+02  -1.918611e+01
  -2.826413e+01  -5.537944e+01
   5.910336e+01   1.124225e+02
  -4.105378e+00   9.187657e+01
  -1.250765e+02   1.135761e+02
  -1.959323e+02  -6.339854e+01
  -3.380867e+01  -8.572394e+01
   9.242455e+01   1.909918e+01
   8.304268e+01   9.215056e+01
  -1.553751e+02   1.120017e+02
  -2.828133e+02  -1.714269e+01
  -2.546188e+02  -1.850768e+02
  -4.979880e+01  -2.346468e+02
   1.797649e+02  -2.762353e+02
   2.466733e+02  -1.267065e+02
   1.524177e+02   4.543895e+01
  -2.076322e+01   5.597220e+01
  -7.698848e+01   3.939874e+01
   1.496914e+01  -6.552923e+01
   1.847667e+02  -8.905607e+01
   1.922805e+02   8.912702e+01
   1.440208e+01   1.792739e+02
  -1.022527e+02   1.256423e+02
  -1.506103e+02   7.041503e+00
  -2.650159e+01  -4.890130e+01
   8.288701e+01   6.563732e+01
   7.274000e+01   9.612282e+01
  -7.437320e+01   1.267593e+02
  -1.987006e+02   1.352809e+00
  -1.830753e+02  -1.529308e+02
  -1.689760e+01  -1.789217e+02
   1.668163e+02  -1.414627e+02
   1.788122e+02   1.586247e+00
   8.162205e+01   8.166880e+01
  -7.442568e+01   1.132813e+02
  -7.863993e+01   3.751399e+01
   6.556185e+00  -2.794474e+01
   8.638064e+01  -3.592596e+01
  -2.958873e+01   1.173825e+01
  -9.149179e+01  -5.846984e+01
  -7.259158e+01  -1.391716e+02
   3.728107e+01  -1.887412e+02
   1.345285e+02  -2.198972e+02
   2.706930e+02   1.351273e+01
   2.374286e+02   1.243431e+02
   1.020354e+02   2.707962e+02
  -8.070169e+01   2.178089e+02
  -1.259918e+02   7.568477e+01
  -6.204826e+01   1.665763e+00
  -6.155250e+01  -6.247054e+01
  -7.559524e+01   4.930767e+01
  -1.306571e+02   2.838819e+01
  -1.204063e+02  -9.780908e+01
   4.525941e+01  -8.374336e+01
   1.166230e+02  -7.808412e+01
   1.490203e+02  -1.088378e+01
   1.447066e+01   1.118774e+02
  -1.447570e+02   7.013918e+01
  -1.529081e+02  -2.342454e+01
  -9.293689e+01  -1.859305e+02
   9.324948e+01  -2.900564e+02
   2.541913e+02  -1.033596e+02
   2.445892e+02   1.167500e+02
   9.234912e+01   1.551584e+02
  -2.316274e+01   1.437562e+02
  -7.015656e+01   5.573879e+01
  -4.573504e+01   6.885282e+01
  -2.671862e+01   6.506151e+01
  -1.047592e+02   9.395921e+01
  -9.410134e+01  -3.907168e+00
  -1.007826e+02  -1.638646e+02
  -4.442915e+01  -1.927869e+02
   7.949730e+01  -1.462065e+02
   1.237212e+02   3.987642e+01
   1.141436e+02   1.187366e+02
   1.196822e+01   1.437841e+02
   1.777519e+01   4.815745e+01
   1.728915e+01   1.580797e+01
   1.205959e+01  -4.893041e+01
   5.269478e+01  -3.055672e+01
  -2.083850e+01   6.496213e+00
  -1.296879e+02  -6.046739e+01
  -4.159467e+01  -3.684258e+01
   8.111176e+01  -7.159765e+01
   1.263454e+02  -1.674410e+01
   1.762665e+02   7.828614e+01
  -2.365572e+01   9.339046e+01
  -1.040690e+02   5.757745e+01
  -1.331591e+02  -3.587881e+01
  -3.243639e+01  -5.648988e+01
   6.108866e+01  -5.381644e+01
   7.600027e+01   5.585662e+01
   1.570741e+00   8.128703e+01
  -6.493198e+01   6.418876e+01
  -3.877711e+01  -2.743128e+00
  -7.706187e+01  -4.940408e+01
  -1.844344e+01  -7.474470e+01
  -5.809478e+01   1.729194e+01
  -1.018043e+02   3.118902e+01
  -9.031624e+01  -1.076901e+02
   5.072694e+01  -1.640197e+02
   1.608757e+02  -1.749526e+02
   1.567728e+02   1.033138e+01
   1.289629e+02   1.221667e+02
  -3.287954e+01   1.259866e+02
  -1.589285e+02   3.749926e+01
  -5.497400e+01  -4.240963e+01
   9.118426e+01  -5.094854e+01
   1.305541e+02   9.224150e+00
   1.045007e+02   8.945088e+01
  -8.356319e+01   1.345024e+02
  -1.362308e+02   6.189238e+01
  -1.528286e+02  -2.345879e+01
  -5.316048e+01  -6.726825e+01
   1.175716e+02  -4.503659e+01
   5.063468e+01   2.141163e+01
  -3.891366e+01   7.219179e+01
  -6.711492e+01   1.397146e+01
  -2.167378e+01  -1.460161e+02
   4.522853e+01  -1.572930e+02
   1.367729e+02  -9.196902e+01
   1.196174e+02   4.091537e+01
   2.540460e+01   1.864503e+02
  -9.110148e+01   1.247372e+02
  -1.222311e+02   4.250803e+01
  -7.735619e+01  -1.087960e+02
   2.382346e+01  -9.834778e+01
   5.657170e+01   3.662257e+01
   4.044435e+01   2.470066e+01
   3.189113e+01  -1.074712e+01
  -9.415577e+00  -8.949982e-01
   3.719332e+01   3.192836e+01
   9.800377e+01   8.225207e+01
   2.289979e+01   1.133779e+02
  -8.023710e+01   5.426061e+01
  -1.124582e+02  -2.342858e+01
  -1.331015e+02  -8.604228e+01
  -9.688478e-01  -7.024071e+01
   7.765296e+01  -6.539925e+01
   5.624161e+01  -3.164100e+01
   6.122319e+01  -4.774639e+00
  -3.796372e+01  -1.574938e+01
  -4.015955e+01   6.169152e+00
   2.364989e+01  -2.381044e+01
   1.744724e+01  -3.295795e+01
  -5.276288e+01   4.233678e+01
  -8.322294e+01  -5.404363e+01
  -2.846784e+01  -4.772828e+01
   1.599072e+02  -1.096422e+02
   1.602284e+02  -7.845138e+00
   1.623923e+02   5.168737e+01
   5.610711e+01   1.474416e+02
  -6.882431e+01   1.611558e+02
  -1.092308e+02   8.245827e+01
  -1.185963e+02   5.960609e+01
  -4.436933e+01  -3.390429e+00
   8.774845e+00   1.344751e+01
  -3.220467e+01  -2.155061e+01
  -6.556072e+01  -4.465515e+01
  -2.529500e+01  -1.183102e+02
  -6.909868e-01  -1.133031e+02
   1.055696e+02   1.517648e+01
   5.491681e+01   2.720373e+01
   4.360984e+00   1.331018e+02
  -7.767229e+01   4.993292e+00
  -1.105164e+02  -3.385808e+01
  -2.765497e+01  -9.862669e+01
   5.000216e+01  -9.038538e+01
   9.351534e+01  -2.072938e+01
   2.576650e+01   4.216448e+01
  -1.142274e+01   9.077821e+01
  -4.147478e+01   4.491428e+01
   2.607338e+01  -1.724550e+01
   6.230362e+01  -3.211737e+01
   5.626973e+00   4.202049e+01
  -6.581400e+01   3.159513e+01
  -1.313874e+02   6.020939e+01
  -7.277601e+01  -2.835385e+01
  -2.326301e+00  -6.375752e+01
   6.968030e+01  -1.079070e+02
   1.118977e+01  -3.470740e+01
   1.759099e+01   3.178853e+00
  -2.977293e+01   7.088602e+00
  -1.755004e+00  -4.661577e+01
   2.464061e+01  -2.260679e+01
  -1.575007e+01  -5.050899e+01
   4.357948e+01  -2.552375e+00
   6.246128e+01   6.186963e+01
   2.212450e+01  -3.234416e+01
   1.509322e+01  -9.403150e+00
   3.899402e+01  -2.309850e+01
  -1.724155e+01   2.794157e+01
  -3.699120e+00   7.969063e+01
  -6.380035e+01   3.817778e+01
  -4.454138e+01  -1.686737e+01
   3.800176e+01  -8.687595e+01
   4.293353e+01  -2.758726e+01
   1.786489e+01   9.171553e+01
   2.328977e+01   4.422494e+01
  -9.083124e+01   4.141793e+01
  -7.645532e+01   2.119858e+01
  -4.463161e+01  -4.158060e+01
  -5.956409e+01  -4.495531e+01
   5.247118e+01  -6.217424e+01
   3.027291e+01  -4.731104e+01
  -2.646087e+01   3.919238e+01
  -2.641921e-01  -2.235718e+00
  -2.168648e+01  -3.046019e+01
   7.356718e+01  -1.174732e+01
