
 $NMID
 id='ANONYMOUS ', fmtdat='(2E16.6)'
 volume=1.0
 tramp=1.0
 $END
   2.813788e+03  -1.183742e+02
   1.703019e+03   1.784094e+03
  -5.196087e+02   1.858748e+03
  -1.356971e+03   5.686960e+02
  -6.713908e+02  -4.060263e+02
   3.986535e+02  -5.396081e+02
   6.657753e+02   2.303610e+02
   1.023012e+01   6.893960e+02
  -5.907983e+02   5.949914e+02
  -6.867786e+02  -2.603675e+01
  -3.071323e+02  -5.169515e+02
   1.375061e+02  -6.019969e+02
   5.545424e+02  -1.779473e+01
   3.649318e+02   5.186012e+02
  -2.332799e+02   5.652843e+02
  -4.549941e+02  -2.441934e+01
  -2.035563e+02  -4.148677e+02
   2.441253e+02  -4.175381e+02
   4.249540e+02  -7.790028e+01
   2.772530e+02   3.022064e+02
   3.013474e+01   2.536312e+02
  -1.762056e+02   1.452504e+02
  -1.829049e+02  -3.647898e+01
   1.274025e+02  -1.393358e+02
   2.684261e+02   8.100950e+01
   1.295728e+02   2.891651e+02
  -3.105367e+02   3.513120e+02
  -5.474638e+02  -7.721306e+01
  -2.349343e+02  -3.732261e+02
   2.396637e+02  -3.159346e+02
   5.071076e+02   2.976326e+01
   2.576294e+02   3.163275e+02
  -2.118741e+02   3.279184e+02
  -3.892181e+02   1.612689e+02
  -2.605756e+02  -1.550935e+02
  -6.609355e+01  -3.235367e+02
   1.763282e+02  -1.849421e+02
   1.481554e+02   1.204895e+02
  -1.451193e+02   3.487670e+02
  -3.263247e+02  -1.452195e+01
  -1.968947e+02  -4.487740e+02
   2.077967e+02  -5.120944e+02
   4.296929e+02   1.275044e+01
   1.720312e+02   4.382180e+02
  -2.469925e+02   2.038298e+02
  -3.059125e+02  -2.271075e+02
   2.960042e+01  -4.285781e+02
   3.462778e+02  -9.639205e+01
   4.332207e+02   2.416976e+02
   8.497537e+01   3.825765e+02
  -3.008461e+02   2.720726e+02
  -4.434281e+02  -8.337163e+01
  -2.683260e+02  -3.058171e+02
   1.387156e+02  -2.596464e+02
   3.268894e+02  -1.778031e+01
   1.317382e+02   1.058026e+02
  -3.934958e+01   8.110876e+01
  -6.250975e+01  -1.019381e+02
   7.550281e+01  -1.181396e+02
   2.280168e+02   7.453219e+01
   9.994584e+01   2.251266e+02
  -1.661515e+02   1.650872e+02
  -1.857847e+02  -3.616478e+00
  -1.111648e+02  -4.568438e+01
   3.684816e+01  -1.264663e+02
   1.064782e+02  -2.114625e+02
   1.822907e+02  -1.465477e+02
   1.918431e+02   7.035527e+01
   1.027079e+02   2.720680e+02
  -7.732193e+01   3.108413e+02
  -9.178842e+01   6.193434e+01
   1.040965e+01   1.169748e+00
  -4.029293e+01   8.516582e+01
  -1.206484e+02   1.222835e+02
  -1.861012e+02  -1.815409e+01
  -1.296248e+02  -1.440559e+02
   5.759933e+01  -1.743652e+02
   8.915974e+01  -4.055373e+01
   1.693041e+02   1.532706e+02
  -2.210483e+01   2.136165e+02
  -1.591794e+02   7.080727e+01
  -2.396742e+02  -1.027151e+02
  -1.617555e+02  -1.895688e+02
   2.381193e+01  -1.930155e+02
   1.297927e+02  -1.095207e+02
   1.079034e+02   1.163513e+01
   5.739691e+01  -3.655340e+01
   1.622944e+02  -7.216296e+01
   1.953224e+02   3.721107e+01
   2.082357e+02   2.020836e+02
   2.086443e+01   2.785224e+02
  -2.162806e+02   2.840621e+02
  -3.180753e+02   1.314939e+02
  -2.560962e+02  -6.451493e+01
  -5.307786e+01  -1.953464e+02
   7.596658e+01  -1.483893e+02
   5.770717e+01  -2.229148e+01
  -7.759283e+01   7.403206e+01
  -1.712385e+02  -6.041172e+01
  -4.892941e+01  -1.416117e+02
   1.675702e+02  -1.015214e+02
   1.455805e+02   5.588986e+01
   5.552543e+00   1.369228e+02
  -1.849785e+02   4.994225e+01
  -1.829163e+02  -1.660523e+02
   1.249582e+01  -2.985716e+02
   1.678868e+02  -1.275498e+02
   1.743431e+02   1.607856e+01
   2.274455e+02   1.385144e+02
   5.500459e+01   2.220258e+02
  -4.084908e+01   1.409966e+02
  -1.605158e+02   7.495399e+01
  -5.981231e+01  -5.073874e+00
   1.968631e+01   3.015623e+01
   5.347135e+01   8.261497e+01
  -8.378924e+01   4.292443e+01
  -9.379481e+01  -3.148601e+01
  -3.417167e+01  -6.046543e+01
   7.094729e+01  -2.134067e+01
   3.121496e+01   4.015128e+01
  -7.206121e+01   8.188343e+01
  -2.327179e+02  -5.385269e+00
  -1.957459e+02  -1.194261e+02
  -2.518781e+01  -1.458214e+02
   8.894320e+01  -1.395615e+02
   1.929844e+02  -6.718190e+01
   1.040075e+02   4.083298e+01
  -9.930209e+01   7.168288e+01
  -6.849971e+01  -4.673251e+01
  -4.062895e+01  -7.045975e+01
   1.418982e+02  -1.281332e+02
   1.980556e+02   9.367073e+01
   2.356157e+01   1.449194e+02
  -6.985558e+01   8.952229e+01
  -6.153556e+01   2.519756e+01
  -2.281835e+01  -7.058791e+01
   8.285724e+01   3.708900e+00
   1.040677e+00   7.237952e+01
  -3.569654e+01   1.081272e+02
  -1.449224e+02  -1.780832e+01
  -1.498028e+02  -6.984179e+01
  -1.736602e+01  -1.813271e+02
   7.342508e+01  -1.323641e+02
   1.002101e+02  -1.421795e+01
   6.858412e+01   5.666535e+01
  -4.779136e+01   5.997177e+01
  -7.144080e+01   3.996774e+01
  -8.082130e+01  -3.856804e+01
   7.713200e+00  -2.753602e+01
   4.421146e+01   1.203189e+01
  -4.459018e+00   3.083614e+01
  -8.129588e+01  -7.093622e+01
  -7.423981e+01  -7.943563e+01
   9.313462e+01  -1.446713e+02
   1.682635e+02  -5.628826e+01
   2.005353e+02   7.668779e+01
   3.599538e+01   1.185385e+02
  -9.383940e+01   1.088750e+02
  -8.704784e+01  -4.872796e+00
  -3.834663e+01  -5.127242e+01
  -8.230183e+00  -6.732944e+01
   2.536474e+01   2.872505e+01
  -3.209794e+01  -2.421950e+01
  -1.267417e+01  -2.577042e+01
   4.155886e+01  -3.653564e+01
   1.209869e+02  -5.520397e+01
   5.767056e+01  -7.504391e+00
  -2.720160e+01   1.141529e+02
  -8.609436e+01   6.497328e+01
  -1.797614e+02  -4.451411e+01
  -8.558478e+01  -1.506305e+02
   8.888082e+01  -1.606982e+02
   1.843452e+02  -2.217586e+01
   1.731139e+02   7.727446e+01
   1.017225e+02   1.277391e+02
  -6.211020e+01   1.281051e+02
  -6.491978e+01   1.018385e+02
  -7.274895e+01   7.333431e+01
  -6.294278e+01   7.174337e+01
  -2.386922e+01   6.436017e+01
  -6.022225e+01   2.299825e+01
  -6.242052e+01  -5.561069e+01
  -2.230741e+01  -1.376214e+02
   1.424197e+01  -1.229662e+02
   1.172872e+02  -5.746640e+01
   1.391514e+02   5.563166e+01
   4.467857e+01   9.851936e+01
  -1.893292e+01   6.788946e+01
  -4.277144e+01   3.815350e+01
  -2.813923e+01  -2.590283e+01
   2.740863e+01  -2.321434e+01
  -8.651195e+00  -5.081175e+01
  -7.427115e+01  -1.275892e+01
  -3.278240e+01  -3.476084e+01
   2.279372e+01  -7.366750e+01
   9.194062e+01  -3.008872e+01
   7.159979e+01   6.001784e+00
   1.487583e+01   5.230918e+01
  -7.704084e+01   5.894929e+01
  -1.007755e+02   2.255451e+01
  -5.195648e+01  -3.441246e+01
   5.249054e+01  -4.547537e+01
   3.495651e+01  -2.059275e+01
  -2.371867e+01   3.768910e+01
  -4.321107e+01   5.590613e+01
  -3.939525e+01   3.045419e+01
  -3.367888e+01  -3.515613e+01
  -1.916142e+01  -1.922518e+01
  -4.031080e+01   2.296013e+01
  -6.373396e+01   9.651324e+00
  -4.399435e+01  -2.836417e+01
   3.102346e+01  -9.632481e+01
   8.320297e+01  -1.126823e+02
   1.478086e+02  -1.893031e+01
   1.254745e+02   9.127385e+01
   1.030818e+01   8.466195e+01
  -6.428497e+01   2.104552e+01
  -3.381693e+01   1.394502e+01
   3.882859e+01  -2.932195e+00
   1.145171e+02   1.510260e+01
   7.961630e+01   6.519862e+01
  -1.243637e+01   4.853651e+01
  -1.569413e+02   3.255419e+01
  -1.232048e+02  -3.684961e+01
  -1.490093e+01  -7.695869e+01
   6.673912e+01  -8.252872e+01
   2.811998e+01  -8.501740e+00
   3.391682e+01   1.984053e+01
  -7.769773e+01   4.001144e+01
  -1.188656e+01  -8.091008e+01
   5.650554e+01  -9.385436e+01
   1.131949e+02  -2.846798e+01
   8.349543e+01  -1.773473e+01
   2.708787e+01   1.073641e+02
  -1.611619e+01   1.314044e+02
  -5.170502e+01   9.028963e+00
  -4.811587e+01  -3.697352e+01
  -4.019272e+01  -3.081176e+01
   9.635055e-01  -4.236212e+01
   2.691976e+01   3.592918e+01
  -2.877966e+01   3.706438e+01
  -6.655395e+00   7.630090e+00
  -3.824957e+01   6.001682e+00
   3.970481e+01   9.019903e+01
   4.996479e+01   7.871696e+01
  -3.135746e+00   2.901181e+01
  -1.002656e+02  -2.528204e+01
  -8.186067e+01   3.036206e+00
   7.886753e+00  -1.368897e+01
   3.315970e+01   1.419177e+01
   4.388105e+01  -1.030655e+01
   1.901420e+01   9.434680e+00
  -2.481301e+01   3.060904e+00
  -2.510808e+01  -2.505475e+01
   3.532259e+01   1.612944e+01
  -4.462344e+01  -1.113985e+01
  -2.458455e+01  -1.205541e+00
  -7.428356e+01  -4.303164e+00
   1.558839e+01  -2.908725e+01
   8.472091e+01  -4.894833e+01
   6.406232e+01  -3.866379e+01
   5.276319e+01   8.257919e-01
   2.548144e+01   9.291487e+01
  -8.101428e+01   8.600230e+01
  -1.190123e+02   4.916624e+01
  -3.830310e+01  -4.052390e+01
  -4.708138e+00  -4.688600e+01
  -6.802239e+00   7.153687e+00
  -6.445858e+01   4.331862e+01
  -4.373588e+01   2.118615e+01
  -5.707831e+01  -7.559259e+01
   1.564182e+01  -1.034375e+02
   6.449792e+01   3.527607e+00
   5.583529e+01   3.847005e+01
   5.799042e+01   6.464838e+01
  -2.151375e+01   2.034933e+01
  -7.880665e+01  -3.833903e+01
  -3.923980e+01  -4.866685e+01
   4.243660e+01  -3.670154e+00
   7.980934e+01  -5.111560e+00
   1.101471e+01   4.039818e+00
  -5.578985e+01   4.137722e+01
  -3.355347e+01  -5.352783e-01
   3.226731e+01  -2.442274e+01
   5.463759e+01  -9.949203e+00
   1.718548e+01   2.758734e+01
  -3.658380e+01   5.004664e+01
  -9.818003e+01   5.996107e+01
  -2.247024e+01  -2.764262e+00
   3.731372e+01  -6.813664e+01
   4.235851e+01  -4.464359e+01
  -1.076290e+01   2.940692e+00
   2.075415e+01   2.762461e+01
  -3.560188e+01   5.440536e+01
   2.891655e+01  -3.397842e+01
   1.860870e+01  -2.003111e+01
   3.387582e-01   3.216912e+01
   5.684957e+01  -8.720004e+00
   9.926444e+00   3.475661e+01
   2.761275e+01  -1.476106e+01
   2.294062e+01  -2.992094e+01
   2.962740e+01  -1.589665e+01
  -3.900754e+01   1.201033e+00
  -4.194438e+01   9.727800e+00
   7.167283e+00  -1.139075e+01
  -4.196214e+01  -5.543431e+01
   1.845108e+00  -8.353302e+01
   2.639800e+01   1.509104e+01
   4.653850e+01   4.715900e+01
   3.083089e+01   5.010147e+01
  -3.074496e+01   5.906416e+00
  -5.394042e+01  -1.463981e+01
  -5.042163e+01  -2.822427e+01
   9.659627e+00  -3.335700e+01
   6.822699e+01   5.997401e+00
   1.029741e+01  -2.677493e+01
  -4.692659e+01  -1.526923e+01
  -2.901144e+01  -1.565831e+01
   2.900946e+01  -2.681706e+01
   1.058449e+02   1.045279e+01
