
 $NMID
 id='ANONYMOUS ', fmtdat='(2E16.6)'
 volume=1.0
 tramp=1.0
 $END
   4.309878e+03  -1.368607e+02
   2.608155e+03   2.824190e+03
  -8.957167e+02   2.948434e+03
  -2.306507e+03   8.573350e+02
  -9.576958e+02  -8.138180e+02
   7.527783e+02  -7.996940e+02
   9.434396e+02   4.912353e+02
  -2.040926e+01   1.246658e+03
  -8.654671e+02   8.770450e+02
  -1.034431e+03  -9.135695e+01
  -4.331981e+02  -1.023797e+03
   3.086822e+02  -1.010146e+03
   8.107961e+02  -1.929987e+02
   4.127320e+02   8.558197e+02
  -3.664472e+02   8.338794e+02
  -6.218568e+02  -7.142580e+00
  -3.839200e+02  -7.091681e+02
   4.567185e+02  -6.830552e+02
   5.389659e+02   2.952278e+00
   4.059381e+02   4.146297e+02
  -5.087000e+01   4.673585e+02
  -2.273219e+02   3.370340e+02
  -1.794547e+02  -5.159971e+01
   1.850466e+02  -2.736332e+02
   4.383482e+02   1.008846e+02
   1.522307e+02   5.034847e+02
  -4.653006e+02   5.127949e+02
  -9.153074e+02  -8.431095e+01
  -4.033260e+02  -5.693509e+02
   3.026070e+02  -5.333504e+02
   8.088851e+02  -4.092499e+01
   4.081598e+02   5.474149e+02
  -2.471301e+02   5.365054e+02
  -5.713460e+02   2.470640e+02
  -4.671160e+02  -2.328128e+02
  -3.090714e+01  -4.527242e+02
   2.716807e+02  -2.386250e+02
   2.232051e+02   2.886089e+02
  -1.787472e+02   4.767552e+02
  -4.831092e+02   5.026143e+01
  -2.837377e+02  -6.469097e+02
   2.878429e+02  -7.444056e+02
   6.255209e+02  -6.875562e+01
   2.692617e+02   5.539695e+02
  -3.123616e+02   3.613208e+02
  -4.235387e+02  -3.522388e+02
   5.932939e+01  -5.501101e+02
   5.584212e+02  -1.283929e+02
   5.658686e+02   4.023389e+02
   1.675868e+02   5.997506e+02
  -4.074934e+02   3.933370e+02
  -7.171308e+02  -4.705949e+01
  -3.891801e+02  -4.454157e+02
   1.320322e+02  -3.755262e+02
   4.478327e+02  -9.326563e+01
   1.853398e+02   2.640639e+02
  -1.417996e+02   1.353939e+02
  -1.258856e+02  -1.386168e+02
   1.850816e+02  -2.052282e+02
   3.167637e+02   2.113664e+01
   1.035106e+02   3.283445e+02
  -2.166283e+02   2.885312e+02
  -2.925514e+02   8.616585e+01
  -1.679592e+02  -1.625451e+02
   4.112644e+01  -2.088708e+02
   1.946407e+02  -2.851894e+02
   3.383881e+02  -1.869328e+02
   3.301137e+02   1.030481e+02
   1.226337e+02   4.382606e+02
  -8.999703e+01   3.647243e+02
  -1.548396e+02   9.791391e+01
  -2.731737e+01  -5.497344e+01
  -5.995801e+01   8.723709e+01
  -2.031314e+02   1.956514e+02
  -3.144227e+02  -4.764664e+01
  -1.663237e+02  -3.110905e+02
   1.005006e+02  -2.380529e+02
   2.170225e+02   4.064977e-02
   1.638473e+02   2.325898e+02
  -4.005988e+01   2.799326e+02
  -2.529876e+02   1.214809e+02
  -3.329340e+02  -1.292819e+02
  -1.912364e+02  -3.603683e+02
   7.196870e+01  -3.281545e+02
   2.219261e+02  -1.743804e+02
   1.406328e+02  -4.229389e+00
   1.111354e+02  -3.068746e+01
   2.151768e+02  -1.219288e+02
   4.056397e+02   2.800363e+01
   3.432301e+02   3.061231e+02
   1.397655e+01   4.509094e+02
  -3.202535e+02   4.404428e+02
  -4.824967e+02   2.095999e+02
  -3.752855e+02  -9.012431e+01
  -1.312750e+02  -2.749310e+02
   8.039434e+01  -2.794296e+02
   1.204844e+02  -7.723035e+01
  -9.073284e+01   9.148675e+01
  -2.317291e+02  -2.350426e+00
  -7.696931e+01  -2.158993e+02
   1.872089e+02  -2.231718e+02
   1.711249e+02   8.084204e+01
  -4.565726e+01   1.916429e+02
  -1.906850e+02   4.709836e+01
  -1.739343e+02  -2.962937e+02
   7.587147e+01  -3.288078e+02
   2.232260e+02  -1.831754e+02
   3.315192e+02   5.093110e+01
   2.731928e+02   2.206785e+02
   1.382183e+02   2.276473e+02
  -7.645473e+01   1.768543e+02
  -1.584136e+02   4.506000e+01
  -5.452914e+01  -4.732571e+01
   1.072892e+02  -1.257739e+01
   7.540591e+01   1.835706e+02
  -6.165130e+01   1.322762e+02
  -2.115430e+02  -3.063534e+01
  -7.532237e+01  -1.361225e+02
   8.202397e+01   4.816732e+00
  -4.643618e+00   1.235266e+02
  -1.085475e+02   9.446262e+01
  -3.098308e+02   3.171288e+01
  -3.285774e+02  -1.616290e+02
  -1.305208e+02  -3.058312e+02
   1.836780e+02  -2.567021e+02
   3.225805e+02  -1.093762e+02
   1.835125e+02   2.797275e+01
  -6.975159e+00   1.092737e+02
  -7.750652e+01  -5.976236e+00
   3.821545e+01  -1.263585e+02
   1.909030e+02  -4.171060e+01
   1.935567e+02   9.192106e+01
   6.850873e+01   2.156314e+02
  -9.741219e+01   1.092183e+02
  -1.504347e+02   2.244822e+01
  -2.086669e+01  -5.717969e+00
   2.856632e+01  -4.017547e+01
   1.687143e+01   5.459391e+01
  -1.181066e+02   1.192325e+02
  -1.818686e+02   2.895021e+01
  -2.057980e+02  -8.782415e+01
  -3.286491e+01  -1.988655e+02
   1.009506e+02  -2.034890e+02
   1.451976e+02  -8.130696e-01
   4.451271e+01   1.103120e+02
  -4.257534e+01   6.551779e+01
  -4.921520e+01   3.756776e+01
  -2.213470e+00  -4.755551e+01
   3.653441e+01   1.172444e+00
  -1.519586e+01   3.185912e+01
  -2.131609e+01  -6.138524e+01
  -6.516291e+01  -1.040906e+02
  -1.312549e+01  -1.884109e+02
   5.520265e+01  -1.477171e+02
   2.828778e+02  -6.656556e+01
   2.478822e+02   1.568857e+02
   7.184769e+01   2.117268e+02
  -9.577834e+01   1.776678e+02
  -1.171227e+02   6.745745e+01
  -8.027066e+01  -5.135306e+01
  -5.188748e+01  -2.127810e+01
  -7.344633e+01   5.999568e+01
  -6.857322e+01   4.189976e+01
  -5.981590e+01  -4.642087e+01
   5.323034e+01  -7.917629e+01
   1.062527e+02  -4.996579e+01
  -6.748550e-01   7.219757e+01
  -2.721844e+01   1.006692e+02
  -1.690592e+02   8.011959e+01
  -1.322298e+02  -7.876246e+01
  -1.813569e+01  -1.752122e+02
   1.069755e+02  -2.007250e+02
   2.187328e+02  -7.861988e+01
   2.296911e+02   7.370717e+01
   1.200926e+02   1.955006e+02
   3.308159e+01   1.440582e+02
  -6.745226e+01   8.108688e+01
  -4.430743e+01   7.729485e+01
  -2.106380e+01   1.141404e+02
  -9.766135e+01   8.681846e+01
  -1.461601e+02   1.561600e+01
  -1.179751e+02  -1.204220e+02
  -2.299897e+01  -2.206574e+02
   7.682650e+01  -1.842086e+02
   8.926525e+01  -3.260704e+01
   1.572097e+02   1.029742e+02
   1.382482e+01   1.444387e+02
  -4.938067e+01   6.429271e+01
  -8.598366e-01  -3.578790e+01
   1.719368e+01  -2.518220e+01
  -1.091680e+01  -8.846976e+00
  -2.380224e+01  -3.795501e+01
  -1.049908e+02   6.386700e+00
  -4.417350e+01  -3.845260e+01
   4.934784e+01  -8.539722e+01
   8.125798e+01  -3.578772e+01
   1.537649e+02   1.263645e+01
  -3.253178e+00   1.017703e+02
  -1.336470e+02   2.979212e+01
  -1.554690e+02   7.425809e+00
  -3.620373e+01  -5.772339e+01
  -1.593766e+01  -3.450806e+01
   7.646588e+01  -2.475360e+01
  -2.207541e+01   9.309015e+01
  -1.898023e+00   7.695751e+01
  -2.006666e+01   3.335389e+01
  -1.724807e+01  -1.178299e+01
   2.104197e+01  -3.337807e+01
  -5.273485e+01   2.829289e+01
  -9.683020e+01  -1.720162e+01
  -3.051736e+01  -1.004698e+02
   5.250172e+01  -1.354327e+02
   1.483604e+02  -1.321601e+02
   2.055325e+02  -4.745204e+00
   7.874697e+01   9.222970e+01
  -1.095864e+01   9.916065e+01
  -3.914065e+01   6.349125e+01
  -4.364252e+01  -6.174689e+01
   3.349427e+01   1.691743e+01
   1.568734e+02   3.640996e+01
   6.557508e+01   9.846026e+01
  -9.046491e+01   1.057818e+02
  -2.422437e+02   9.568187e+00
  -1.995614e+02  -5.604544e+01
  -5.453789e+01  -1.371019e+02
   9.157725e+01  -1.183541e+02
   7.295124e+01   3.127902e+01
  -4.628808e+01   4.635824e+01
  -1.149670e+02  -4.725652e+01
  -1.361059e+01  -1.252910e+02
   8.890538e+01  -1.226570e+02
   1.497381e+02  -9.276293e+01
   1.002020e+02   6.149343e+01
   5.632547e+01   2.269077e+02
  -1.395547e+02   1.618661e+02
  -1.145201e+02  -2.927372e+01
  -6.574353e+01  -1.180929e+02
  -7.250925e+00  -9.997095e+01
   5.310936e+01   2.322385e+01
   4.837266e+01   3.358932e+01
   2.420014e+01   2.021094e+01
   2.402298e+01  -4.761251e+01
   1.180191e+01   3.964305e+00
   7.953226e+01   1.299821e+02
   1.168229e+01   1.229931e+02
  -6.752304e+01   7.667365e+01
  -1.238043e+02  -2.684489e+01
  -1.295481e+02  -8.980848e+01
   8.827639e+00  -1.462185e+01
   4.217322e+01   2.194490e+01
   6.262752e+01  -2.740118e+01
  -3.524100e+01  -2.235046e+01
  -4.363478e+01   1.414276e+01
  -1.239356e+01  -8.550228e+00
   2.022681e+01  -3.199884e+01
   1.528211e+00  -2.870258e+01
  -3.252771e+01  -4.020152e+01
  -1.136086e+02   1.189023e+01
   4.394165e+01  -6.276842e+01
   5.202141e+01  -1.053514e+02
   1.208032e+02  -4.328157e+01
   1.421083e+02   5.502977e+01
   1.167894e+01   1.594959e+02
  -7.341192e+01   1.400246e+02
  -1.283627e+02   4.263040e+01
  -2.879526e+01  -8.606407e+00
  -7.582481e+01  -5.435655e+01
  -3.659713e+01  -9.987184e+00
  -4.367457e+01   6.937393e+01
  -1.656990e+01  -5.047060e+00
  -2.011388e+01  -8.323734e+01
   7.674332e+00  -9.390492e+01
   6.008510e+01   2.393055e+01
   8.469640e+01   1.055353e+02
  -1.188549e+00   1.343238e+02
  -8.934989e+01  -5.568131e+00
  -8.932152e+01  -4.048440e+01
  -1.833135e+01  -1.086153e+02
   6.933184e+01  -7.394772e+01
   5.500418e+01   1.469484e+01
   2.687131e+01   6.750774e+01
  -7.308714e+01  -2.929843e+01
  -1.332473e+01  -2.773590e+01
   3.498285e+00  -3.137827e+01
   1.227085e+02   3.000998e+00
   6.444406e+00   5.405026e+01
  -9.963690e+01   4.502804e+01
  -9.807775e+01   7.667368e+01
  -1.226918e+02  -1.794355e+00
  -1.485239e+01  -8.177739e+01
   2.480082e+01  -9.771300e+01
  -1.340062e+01  -3.956679e+00
  -9.458410e+00   4.543931e+01
  -5.610247e+00   6.357632e+00
  -2.728034e+01  -1.978206e+01
  -5.008465e+01  -1.009372e+02
  -8.682350e+00  -8.946881e+01
   5.288682e+01  -8.202377e+01
   9.345634e+01  -1.858639e+01
   5.089763e+00  -1.358387e+01
  -2.580911e+01  -2.004268e+01
  -2.414913e+01  -3.545529e+01
   4.467355e+00   5.157784e+01
  -4.798186e+00   5.354949e+01
   6.636973e+00  -5.434429e+01
  -7.158504e+01  -9.374692e+01
   2.185012e+00  -4.367496e+01
   2.345464e+01   2.201839e+01
   3.327978e+01   3.391618e+01
  -1.707357e+01   7.353305e+01
  -1.225547e+02  -6.616719e+00
  -1.634350e+02  -5.586173e+01
  -5.703829e+01  -5.245783e+01
   4.801070e+01  -7.275817e+01
   8.724565e+01  -2.337457e+01
   1.771062e+01   3.024549e+01
  -2.988991e+01  -2.132396e+01
  -1.036844e+01   6.650657e+00
   3.417077e+01  -5.368842e+01
   1.400633e+02  -2.818911e+01
