
 $NMID
 id='ANONYMOUS ', fmtdat='(2E16.6)'
 volume=1.0
 tramp=1.0
 $END
  -4.319407e+03   2.961605e+02
  -2.401640e+03  -2.665653e+03
   5.742042e+02  -2.771961e+03
   2.160266e+03  -8.538465e+02
   1.043400e+03   5.001608e+02
  -5.751704e+02   7.394771e+02
  -8.153895e+02  -3.755865e+02
  -1.873803e+01  -1.088292e+03
   7.442164e+02  -8.339519e+02
   8.849946e+02   6.120637e+01
   4.856193e+02   8.668752e+02
  -1.622462e+02   9.495477e+02
  -7.201932e+02   1.976797e+02
  -4.443070e+02  -7.958926e+02
   2.579500e+02  -7.363265e+02
   5.649635e+02   3.097476e+01
   2.887684e+02   6.258900e+02
  -2.904119e+02   6.322359e+02
  -5.785400e+02   2.054280e+02
  -4.131848e+02  -3.773277e+02
  -2.342742e+00  -4.512303e+02
   2.194590e+02  -2.961477e+02
   2.337001e+02   5.920755e+01
  -1.357877e+02   8.842593e+01
  -3.902944e+02  -1.396339e+02
  -2.092167e+02  -4.881831e+02
   4.709563e+02  -4.566694e+02
   8.201861e+02   1.381724e+02
   4.658801e+02   5.547919e+02
  -3.422726e+02   4.746478e+02
  -7.331074e+02  -3.720000e+01
  -4.441846e+02  -4.770658e+02
   2.457913e+02  -5.023079e+02
   6.314880e+02  -1.960267e+02
   4.323842e+02   1.563353e+02
   8.865417e+01   4.286849e+02
  -1.656475e+02   2.654381e+02
  -1.056120e+02  -2.237416e+02
   2.092756e+02  -4.377271e+02
   4.523842e+02  -1.575091e+01
   2.512367e+02   6.638022e+02
  -3.199743e+02   6.450338e+02
  -5.829441e+02  -1.714600e+01
  -2.153726e+02  -5.865341e+02
   2.481161e+02  -3.058145e+02
   4.356770e+02   2.984361e+02
  -5.610324e+01   5.594511e+02
  -5.936299e+02   1.763619e+02
  -6.373194e+02  -3.095898e+02
  -2.262110e+02  -5.697590e+02
   3.718558e+02  -3.777561e+02
   6.439484e+02   7.469770e+01
   3.814152e+02   3.919963e+02
  -1.281615e+02   3.750371e+02
  -4.727573e+02   7.678470e+01
  -2.685061e+02  -1.627740e+02
   1.416892e+02  -9.407166e+01
   1.300492e+02   1.613448e+02
  -1.702108e+02   2.185559e+02
  -3.649207e+02  -4.007720e+01
  -1.797349e+02  -3.346421e+02
   1.463530e+02  -3.065548e+02
   2.773056e+02  -1.195856e+02
   1.654333e+02   1.026774e+02
  -2.884747e+01   1.938908e+02
  -2.036416e+02   2.814600e+02
  -3.116759e+02   1.608124e+02
  -2.697963e+02  -9.358246e+01
  -6.675606e+01  -4.270917e+02
   1.257400e+02  -3.821015e+02
   1.079850e+02  -1.310731e+02
   4.032365e+01  -1.369780e+01
  -1.535433e+00  -6.960884e+01
   2.172843e+02  -1.734220e+02
   2.852970e+02   7.982555e+01
   1.139910e+02   2.666136e+02
  -7.793218e+01   2.440366e+02
  -2.444261e+02   2.739717e+01
  -1.819300e+02  -2.614606e+02
   5.964526e+01  -2.951586e+02
   2.451459e+02  -1.254131e+02
   3.434696e+02   1.890387e+02
   1.635459e+02   3.723689e+02
  -1.077997e+02   2.776772e+02
  -2.290989e+02   9.289291e+01
  -1.355344e+02  -9.581632e+00
  -6.435911e+01   4.822376e+01
  -2.401825e+02   9.094650e+01
  -3.813060e+02  -5.614796e+01
  -3.208440e+02  -3.059837e+02
  -4.462657e+01  -4.833241e+02
   3.439041e+02  -4.234852e+02
   4.902398e+02  -1.904489e+02
   3.619358e+02   1.052658e+02
   4.777009e+01   3.481534e+02
  -1.655189e+02   2.650372e+02
  -1.283738e+02   1.860228e+01
   1.135509e+02  -1.205501e+02
   2.322773e+02  -4.474732e+00
   3.624359e+01   1.923925e+02
  -1.805245e+02   1.944204e+02
  -1.877296e+02  -8.281042e+01
   3.778494e+01  -2.161236e+02
   1.691015e+02  -4.613272e+01
   1.735891e+02   2.699605e+02
  -5.265461e+01   3.158399e+02
  -2.782871e+02   2.183958e+02
  -3.205259e+02  -7.825427e+01
  -3.036834e+02  -1.933646e+02
  -1.028734e+02  -3.075822e+02
   1.431038e+02  -1.656763e+02
   1.576061e+02   3.398451e+00
   6.906791e+01   6.560577e+01
  -8.827811e+01  -3.030174e+01
  -5.103913e+01  -1.320643e+02
   1.436552e+02  -1.361533e+02
   2.029826e+02  -3.192126e+01
   3.691577e+01   5.418209e+01
  -9.172332e+01  -3.381257e+01
  -6.640050e+01  -1.067144e+02
   1.473959e+02  -1.150415e+02
   2.754658e+02  -4.149320e+01
   2.885141e+02   1.463305e+02
   5.345525e+01   2.957172e+02
  -1.904934e+02   2.958058e+02
  -2.889381e+02   1.313755e+02
  -1.966745e+02  -4.350163e+01
  -4.391607e+01  -1.741776e+02
   6.534296e+01  -1.208891e+01
  -5.878500e+01   1.481360e+02
  -1.788892e+02   4.663912e+01
  -2.067756e+02  -6.281359e+01
  -6.356648e+01  -1.610880e+02
   9.368360e+01  -1.587173e+02
   1.434713e+02  -9.174102e+00
   6.184032e+01   5.226316e+01
  -2.463376e+01  -2.071695e+01
  -4.780565e+01  -7.408186e+01
   7.866391e+01  -1.137106e+02
   2.395141e+02  -1.891052e+01
   2.548436e+02   1.099249e+02
   2.752437e+01   2.657200e+02
  -1.065708e+02   1.780742e+02
  -1.809216e+02  -7.556105e+00
  -3.882261e+01  -1.608654e+02
   2.848190e+01  -1.027799e+02
   3.027554e+01  -3.090373e+01
   2.727953e+01   5.480230e+01
  -9.530907e+00  -2.332278e+01
   4.539020e+01  -2.468732e+01
   7.608373e+01  -3.401464e+00
   7.753855e+01   7.047322e+01
   1.686490e+01   1.132205e+02
  -1.265328e+02   1.879280e+02
  -1.935266e+02   6.776072e+01
  -2.612418e+02  -1.166168e+02
  -3.848582e+01  -2.549587e+02
   1.142890e+02  -1.743191e+02
   1.721858e+02  -6.532258e+00
   8.925738e+01   2.602659e+01
   2.592225e+01   2.988999e+01
   9.297544e+01  -1.722548e+01
   1.295532e+02  -1.042875e+01
   9.880200e+01   2.522576e+01
  -3.624371e+01   7.871083e+01
  -9.660976e+01   1.032371e+02
  -1.289434e+02   3.603517e+00
   2.442794e+01  -1.111866e+02
   1.528721e+02  -1.187063e+02
   2.077328e+02   1.406126e+01
   1.201768e+02   2.066409e+02
  -1.021580e+02   2.607480e+02
  -2.903097e+02   9.974812e+01
  -2.672034e+02  -8.255197e+01
  -1.537827e+02  -1.447620e+02
   3.218517e+01  -1.301478e+02
   4.799851e+01  -8.751681e+01
   1.127532e+01  -1.042908e+02
  -3.600701e+01  -8.762002e+01
   8.653695e+01  -1.265156e+02
   1.252386e+02   2.408771e+01
   1.611377e+02   1.330843e+02
   3.460638e+01   2.017864e+02
  -6.464363e+01   2.389023e+02
  -1.749507e+02   4.384370e+01
  -1.679535e+02  -1.239028e+02
   7.072096e+00  -1.756048e+02
   1.167441e+02  -5.305880e+01
   5.790840e+01   1.360585e+01
   3.299829e+01   5.490786e+01
   3.835802e+01   3.853860e+01
   3.604487e+01   2.899482e+01
   1.211770e+02   1.465304e-01
   2.744049e+01   4.634514e+01
  -6.996193e+01   3.109516e+01
  -1.357856e+02   9.445122e+00
  -1.155564e+02  -3.453173e+01
   1.358320e+01  -1.205071e+02
   1.074062e+02  -4.441255e+01
   1.203827e+02  -2.022047e+01
   1.015808e+01   5.497095e+01
  -4.404680e+01   6.009696e+01
  -1.241658e+02  -6.640399e+01
  -1.292847e+01  -6.081852e+01
   4.968738e+01  -8.741305e+01
   3.981643e+01  -5.466282e+00
   5.813939e+01   6.276402e+01
   6.000492e+00   3.147244e+01
   1.844441e+01  -4.099138e-01
   1.046388e+02  -6.183804e+00
   6.379556e+01   3.435359e+01
  -6.533788e+01   1.293054e+02
  -1.085994e+02   1.785407e+02
  -2.254239e+02   1.107549e+02
  -1.803208e+02  -5.809065e+01
  -6.335384e+00  -1.275016e+02
   5.760651e+01  -6.037067e+01
   6.021868e+01   1.438797e+01
  -7.320949e+01   1.555248e+01
  -1.776562e+02  -3.540316e+01
  -1.001262e+02  -1.200193e+02
   5.783214e+01  -1.123411e+02
   2.156182e+02  -1.628925e+01
   1.469968e+02   1.802844e+01
   6.157604e+01   2.494687e+01
  -7.301244e+01   6.221000e+01
  -3.182191e+01   2.425885e+01
   2.132604e+01  -2.613372e+01
   1.503969e+02   6.759831e+01
   7.314027e+01   1.530876e+02
  -4.331943e+01   1.445428e+02
  -1.453381e+02   3.479957e+01
  -1.047373e+02  -1.068699e+02
  -2.181596e+01  -1.563836e+02
   1.204127e+02  -1.053170e+02
   1.054148e+02  -5.611064e+00
   1.037909e+02   1.182258e+02
   2.707358e+01   1.187599e+02
   9.843469e+00   1.153764e+01
  -5.144468e+01  -2.224347e+01
  -2.928942e+01  -1.167397e+01
   9.479163e+00   2.148798e+01
  -3.553516e+01   4.154363e+01
  -6.436641e+01  -7.461453e+01
  -2.531034e+01  -1.228891e+02
   6.802217e+01  -1.259895e+02
   1.183181e+02   1.677943e+01
   9.010608e+01   3.670664e+01
  -2.030735e+01   2.089256e+01
  -1.051259e+02   6.756589e-01
  -9.206179e+01   1.816321e+01
   3.607403e+01  -3.385397e+01
   1.157550e+01  -4.422421e+01
  -2.466770e+01  -7.067509e+00
  -1.022016e+01  -1.789784e+01
  -2.768496e+01   3.810173e+01
   8.327460e+01   1.416070e+01
   9.114287e+01   1.325658e+01
  -1.335685e+01   1.080093e+02
  -1.270421e+02   1.358637e+02
  -2.042930e+02   1.794838e+01
  -1.674174e+02  -7.216023e+01
  -1.230267e+01  -1.716577e+02
   5.189073e+01  -1.659122e+02
   1.243571e+02  -5.508580e+01
   4.677527e+01   1.529997e+01
   3.921452e+01   6.669895e+01
  -3.541463e+01   3.228521e+01
  -1.537925e+01  -9.549969e+00
   6.087005e+01   5.849072e+01
   7.208249e+01   9.006791e+01
   3.257910e+01   9.524166e+01
  -9.774676e+01   1.842750e+01
  -9.646516e+01  -1.067130e+02
   4.062416e+01  -9.109772e+01
   9.695296e+01  -1.520194e+01
   1.053911e+02   6.358356e+01
   7.016715e+01   1.305118e+02
  -9.638615e+01   2.884370e+01
  -1.030666e+02  -4.618921e+00
  -4.022967e+01  -6.199751e+01
   3.709239e+01  -5.121812e+01
   3.021443e+01  -1.142059e+01
  -1.158957e+01  -3.205623e+01
  -4.583306e+01   3.966261e+01
   3.244231e+01  -3.606799e+01
   1.012401e+02  -7.514635e+01
   5.833485e+01  -2.294510e+01
   7.711984e+00   2.230445e+01
  -4.245029e+01   4.858507e+01
  -5.926380e+01   9.510782e+00
  -3.057292e+01  -3.638449e+01
   7.880269e+00  -8.855110e+01
   4.472066e+01  -8.247130e+01
   9.394776e+00  -5.108440e+01
  -3.848548e+00   4.312080e+01
  -1.211572e+01   5.711198e+01
  -4.815885e+01  -9.801208e-01
  -4.284349e+01  -1.828113e+00
  -2.026276e+01  -1.848160e+01
  -9.320064e+00  -2.025488e+00
   7.265061e+00  -7.974227e+00
  -3.019956e+01  -9.385158e+00
   5.160004e+01  -1.428239e+01
   8.417553e+01  -3.066510e+01
   3.923641e+01   8.354952e+01
   3.080940e+01   6.545510e+01
  -6.894583e+01  -1.133408e+01
  -4.112695e+01  -2.403746e+01
   1.145084e+01  -3.319358e+01
   4.557039e+01  -2.982891e+01
   8.860623e+01   4.156190e+01
   5.464482e+01   5.184210e+01
  -6.281375e+01   1.845609e+01
  -4.570632e+01   3.212761e+01
  -1.952354e+01  -1.711547e+00
   3.418190e+01   6.419432e+00
   5.321332e+01   2.277531e+01
  -7.518846e+00   4.636525e+01
  -9.631692e+01   9.730894e+00
