
 $NMID
 id='ANONYMOUS ', fmtdat='(2E16.6)'
 volume=1.0
 tramp=1.0
 $END
   3.139745e+03   1.677733e+02
   1.912298e+03   1.810614e+03
  -2.938168e+02   2.096284e+03
  -1.377614e+03   1.139044e+03
  -9.065258e+02  -7.983039e-01
   2.233819e+02  -3.904635e+02
   5.086679e+02   2.021778e+02
   4.872959e+01   7.195070e+02
  -5.931506e+02   6.183643e+02
  -6.836784e+02   2.413454e+01
  -3.452600e+02  -4.769526e+02
   7.171950e+01  -6.475353e+02
   3.885850e+02  -8.720537e+01
   2.887377e+02   4.813723e+02
  -6.862684e+01   6.427769e+02
  -4.187456e+02   2.148430e+01
  -2.696839e+02  -5.416202e+02
   1.048818e+02  -6.724247e+02
   4.867246e+02  -2.411758e+02
   3.880293e+02   2.102692e+02
   6.859022e+01   3.831635e+02
  -1.429541e+02   2.154683e+02
  -1.526527e+02   1.169152e+00
   1.648294e+02   3.268501e+01
   2.899779e+02   1.287971e+02
   1.208916e+02   3.088477e+02
  -3.730344e+02   2.628728e+02
  -6.396070e+02  -1.012241e+02
  -2.368137e+02  -3.782396e+02
   3.268480e+02  -2.841048e+02
   5.743672e+02   1.201674e+01
   2.140149e+02   3.670672e+02
  -3.061367e+02   4.400442e+02
  -3.941243e+02   2.125946e+02
  -3.191872e+02  -2.054679e+02
  -4.695558e+01  -3.738280e+02
   8.281320e+01  -1.725719e+02
   8.443098e+01   1.498994e+02
  -9.279224e+01   3.134782e+02
  -2.952940e+02  -9.313713e+01
  -1.202950e+02  -5.510243e+02
   2.524615e+02  -5.364630e+02
   3.884141e+02   8.704495e+00
   1.593944e+02   3.713248e+02
  -1.614769e+02   1.449023e+02
  -2.081706e+02  -2.782802e+02
   1.082593e+02  -4.253965e+02
   4.202908e+02  -8.734224e+01
   5.213090e+02   3.401663e+02
   9.414631e+01   4.666850e+02
  -3.218445e+02   2.707042e+02
  -5.299698e+02  -9.601053e+01
  -3.492063e+02  -2.920255e+02
   8.622891e+01  -3.001656e+02
   3.441772e+02  -1.399684e+02
   2.305394e+02   1.161605e+02
  -4.912771e+01   3.821444e+01
  -3.585268e+01  -1.255119e+02
   1.585090e+02  -8.952350e+01
   3.007011e+02   4.855821e+01
   1.852356e+02   2.228055e+02
  -1.378818e+02   2.463276e+02
  -2.659987e+02   1.357853e+02
  -1.763940e+02  -6.427109e+01
   3.702759e+01  -2.284669e+02
   2.397885e+02  -3.401460e+02
   3.435521e+02  -1.488234e+02
   2.347244e+02   9.862985e+01
   5.969382e+01   4.002386e+02
  -1.219713e+01   3.686855e+02
  -6.083293e+01   1.619001e+02
  -8.508267e+01   1.091999e+02
  -1.414691e+02   9.671037e+01
  -2.548915e+02   8.933080e+01
  -2.303096e+02  -1.425198e+02
  -1.399865e+02  -3.140387e+02
   7.400067e+01  -2.059680e+02
   2.025982e+02  -3.385868e+00
   1.968939e+02   2.428274e+02
  -2.725266e+01   2.481125e+02
  -2.116028e+02   6.132263e+01
  -3.328900e+02  -1.338640e+02
  -1.501306e+02  -3.153582e+02
   9.700023e+01  -2.397604e+02
   1.939673e+02  -1.115964e+02
   8.929546e+01  -9.245036e+01
   1.508875e+02  -6.626023e+01
   2.363349e+02  -6.073893e+01
   3.524036e+02   1.031994e+02
   3.040735e+02   2.270083e+02
  -8.066805e+00   3.888678e+02
  -3.456700e+02   3.925300e+02
  -4.424687e+02   1.763005e+02
  -3.377504e+02  -9.518593e+01
  -6.078242e+00  -3.015728e+02
   1.478506e+02  -2.249936e+02
   3.720438e+01  -3.608296e+01
  -1.610624e+02   5.431409e+01
  -1.729480e+02  -1.819582e+01
   1.576879e+01  -1.958508e+02
   1.501162e+02  -1.951225e+02
   1.620561e+02   5.899686e+01
  -2.043368e+00   1.521562e+02
  -1.636142e+02  -1.659328e+01
  -1.244763e+02  -2.461731e+02
   2.104156e+01  -3.349517e+02
   2.394645e+02  -2.087945e+02
   3.471811e+02   5.932173e+01
   2.960344e+02   2.338796e+02
   1.078506e+02   2.735378e+02
  -1.419796e+02   1.537360e+02
  -2.172313e+02  -2.520401e+01
  -2.347538e+01  -1.468005e+00
   7.028761e+01   5.520520e+01
   3.742745e+01   1.347033e+02
  -9.464841e+01   7.868376e+01
  -1.681181e+02   8.641868e+01
  -3.657048e+01  -4.487803e+01
   6.444976e+01  -2.444182e+01
   5.126243e+01   8.343466e+01
  -1.116186e+02   8.373966e+01
  -2.599130e+02   2.683851e+01
  -3.119628e+02  -1.329211e+02
  -8.583687e+01  -2.606953e+02
   1.829949e+02  -2.828387e+02
   2.599730e+02  -1.022266e+02
   4.593752e+01   7.859059e+01
  -3.487619e+01   1.780453e+02
  -2.935840e+01  -2.190755e+01
   4.048324e+01  -1.483981e+02
   1.537406e+02  -1.916705e+01
   2.182344e+02   5.907286e+01
   2.587125e+01   1.739379e+02
  -6.429112e+01   1.281219e+02
  -1.201986e+02  -1.834838e+01
  -3.777422e+01  -1.451601e+01
   8.494781e+00   3.784823e+01
   6.966146e+01   9.035662e+01
  -6.669674e+01   1.052032e+02
  -1.847786e+02   4.976783e+01
  -2.065113e+02  -1.437885e+02
  -1.463926e+01  -1.921570e+02
   1.647715e+02  -1.418628e+02
   1.707793e+02   1.726002e+01
   8.500841e+01   1.153111e+02
  -7.465109e+01   1.066264e+02
  -1.021369e+02  -5.581144e+00
  -1.851484e+00  -2.906156e+01
   3.798482e+00   9.775376e+00
   8.544061e-02   1.902135e+01
  -7.860512e+01   4.596871e+01
  -1.193559e+02  -7.984074e+01
  -3.145666e+01  -1.312099e+02
   1.346630e+02  -1.546009e+02
   1.557601e+02  -6.296585e+01
   1.600818e+02   8.700868e+01
   5.872744e+01   2.148713e+02
  -1.005579e+02   1.965927e+02
  -9.090399e+01   4.116565e+01
  -6.226274e+01  -6.073537e+01
   2.242967e+01  -1.296018e+01
   2.858680e+00   6.039336e+00
  -7.676321e+01   1.836871e+01
  -9.986795e+01  -3.110918e+01
   8.572790e+00  -1.088407e+02
   5.238549e+01  -6.517356e+01
   9.413661e+01   4.095270e+01
  -8.189165e+01   1.648191e+02
  -1.766771e+02   7.682789e+01
  -2.602050e+02  -7.298152e+01
  -1.032153e+02  -1.779306e+02
   1.221296e+02  -1.757206e+02
   2.891437e+02  -1.379639e+02
   2.553402e+02   7.365646e+01
   1.209629e+02   1.584784e+02
   3.550599e+01   1.100610e+02
  -1.708219e+01   7.753377e+01
  -2.121605e+01   8.337252e+01
  -1.521512e+01   1.085661e+02
  -1.098301e+02   9.417823e+01
  -1.530218e+02   9.692367e+00
  -1.198009e+02  -1.618642e+02
  -3.777379e+01  -2.130804e+02
   7.208091e+01  -1.736223e+02
   1.158762e+02  -1.792440e+01
   1.381489e+02   1.022357e+02
   4.246445e+01   1.654131e+02
  -1.079136e+02   7.737475e+01
  -1.066118e+02  -2.528790e+01
  -1.903958e+01  -8.800202e+01
   7.370839e+01  -6.315775e+01
   1.552885e+01  -3.978485e+01
  -9.106904e+01   2.215884e+00
  -2.383251e+00  -5.633492e+01
   1.129850e+02  -4.393500e+01
   1.584225e+02  -2.546703e+00
   1.398515e+02   5.735070e+01
  -1.673932e+01   9.837730e+01
  -1.334336e+02   8.820822e+01
  -1.380166e+02   1.432502e+01
  -5.314718e+01  -5.923593e+01
   6.382806e+01  -6.894153e+01
   8.083564e+01  -1.483610e+01
   4.043718e+01   1.258331e+02
  -5.274156e+01   1.221614e+02
  -8.012086e+01  -2.863658e+00
  -6.967443e+01  -1.254460e+02
   2.467185e+00  -6.821794e+01
   8.953255e+00  -2.223462e+01
  -1.844221e+01   1.017374e+00
  -6.157098e+01  -5.346055e+01
   4.218519e+01  -9.744207e+01
   6.322067e+01  -1.460713e+02
   1.537874e+02  -5.196294e+01
   1.313437e+02   6.658083e+01
   4.205628e+00   1.012232e+02
  -9.598507e+01   4.737186e+01
  -1.207106e+02  -2.246537e+01
   1.297583e+01  -2.485696e+01
   1.311822e+02  -1.974497e+01
   1.140791e+02   6.073668e+01
  -6.008626e+01   9.451152e+01
  -1.561459e+02   1.866695e+01
  -1.092759e+02  -9.993004e+00
  -4.640353e+01  -4.108070e+01
   8.633799e+01  -4.705243e+01
   7.618532e+01   1.687188e+01
  -1.901028e+01  -3.834920e-01
  -1.045627e+02  -5.647931e+01
   2.475097e+00  -1.039895e+02
   1.003883e+02  -1.436467e+02
   1.052759e+02  -1.098027e+01
   9.822049e+01   1.162559e+02
   6.602266e+01   1.455819e+02
  -8.364121e+01   1.538179e+02
  -1.368375e+02  -1.207742e+01
  -9.073008e+01  -1.725317e+02
  -3.922328e+01  -1.141240e+02
   3.103532e+00   4.560404e+00
   7.625449e+01   8.304456e+00
   5.045033e+01  -1.193646e+01
   7.086407e+01  -2.818316e+00
   6.794080e+01   4.014721e+01
   6.201402e+01   1.491956e+02
   5.262192e+01   1.231038e+02
  -1.174270e+02   4.177357e+01
  -1.555027e+02  -5.277606e+01
  -1.419477e+02  -4.873380e+01
  -4.389213e+00  -7.237004e+01
   6.119851e+01  -5.394016e+01
   1.054757e+02  -2.733384e+01
   1.260384e+01   5.002743e+01
   1.163626e+01   6.230141e+01
  -1.174982e+01   5.047341e+01
   3.757210e+01  -1.555815e+01
   1.381582e+01  -2.248058e+00
  -6.406411e+01  -3.712451e+00
  -1.093711e+02  -5.469385e+01
  -1.258034e+01  -6.870399e+01
   1.130100e+02  -1.915688e+02
   1.951777e+02  -3.712567e+01
   1.551673e+02   6.780447e+01
   9.091488e+01   1.733960e+02
  -6.528047e+01   1.514351e+02
  -1.153399e+02   5.571294e+01
  -7.800454e+01  -4.271970e+01
   2.640873e+01   9.501241e+00
  -6.288066e+01   5.192939e+00
  -2.208313e+01  -5.348261e+01
  -1.228640e+01  -4.821970e+01
  -4.535037e+00  -8.033886e+01
   3.655012e+01  -3.377703e+01
   5.057973e+01   1.176045e+01
   9.027260e+01   1.165130e+02
   7.103870e-01   8.159539e+01
  -7.253431e+01   2.871138e+01
  -1.229236e+02  -8.713748e+01
  -4.063138e+01  -1.118703e+02
   1.846359e+01  -3.899744e+01
   1.390754e+02   2.636182e+00
   7.946660e+01   7.964983e+01
   1.847259e+01   4.013419e+01
  -5.430330e+01   1.629170e+01
   3.836634e+01  -2.060353e+01
   8.167179e+01   1.336726e+01
   3.010680e+01   1.794539e+01
  -7.422992e+01   4.001519e+01
  -7.977724e+01   5.829310e+01
  -7.779504e+01  -7.866328e+00
   8.188152e+00  -6.649269e+01
   4.989227e+01  -7.041958e+01
   3.515345e+01   3.081343e+01
  -1.107126e+01   1.243117e+02
  -6.858624e+01   6.160180e+01
   1.289529e+01   2.728765e+00
  -3.424281e+01  -2.799101e+01
   2.130264e+01  -3.225542e+01
   5.588233e+01   2.219843e+01
   3.981329e+01   1.059066e+02
   4.343451e+01  -1.454398e+01
   3.598394e+01  -1.841925e+01
   3.928470e+00   2.824559e+01
   2.284454e+01   4.317644e+01
   5.578847e+00   6.558539e+01
  -4.091523e+01   4.058948e+01
  -6.005677e+01   5.003813e+00
  -4.699001e+01  -1.976516e+01
   3.775085e+01  -1.436798e+01
   1.880296e+01   3.507813e+01
   4.635309e+01   7.950438e+01
  -5.743389e+01   5.099733e+00
  -6.018616e+01   2.347119e+01
  -3.527831e+01  -3.885225e+01
   2.649585e+01  -6.125216e+01
   5.909753e+00  -5.282670e+01
   3.922005e+01   5.074687e+00
   1.788421e+01  -5.610110e+00
  -5.840692e+00   1.987534e+01
   5.850994e+00  -1.916887e+01
   3.487871e+01  -6.893053e+01
