
 $NMID
 id='ANONYMOUS ', fmtdat='(2E16.6)'
 volume=1.0
 tramp=1.0
 $END
  -2.621015e+03  -2.378626e+02
  -1.670549e+03  -1.478518e+03
   2.356906e+02  -1.756228e+03
   1.125884e+03  -1.032397e+03
   8.043265e+02   6.231992e+01
  -1.279347e+02   3.096382e+02
  -3.912102e+02  -1.283645e+02
  -5.234345e+01  -5.433763e+02
   4.188546e+02  -6.393416e+02
   5.247379e+02   9.499986e+01
   3.197152e+02   5.089775e+02
  -3.161867e+01   5.276903e+02
  -2.749830e+02   1.839026e+02
  -2.591168e+02  -4.003619e+02
   4.992491e+01  -4.360581e+02
   2.976781e+02  -4.862620e+01
   2.868746e+02   4.387093e+02
  -1.653787e+02   5.097947e+02
  -4.077003e+02   2.052520e+02
  -3.402073e+02  -1.555883e+02
  -1.338804e+02  -2.855801e+02
   1.280208e+02  -1.872624e+02
   1.514674e+02  -3.238900e+01
  -1.420969e+02  -2.499846e+01
  -2.993110e+02  -1.762329e+02
  -3.845673e+01  -3.776403e+02
   4.057624e+02  -2.364511e+02
   5.939085e+02   1.174921e+02
   2.150818e+02   3.089202e+02
  -2.666006e+02   1.631326e+02
  -4.837776e+02  -7.167603e+01
  -1.733141e+02  -3.425160e+02
   2.325259e+02  -3.488121e+02
   4.065042e+02  -1.633297e+02
   3.222209e+02   1.610000e+02
   7.380562e+01   2.660862e+02
  -7.381933e+01   1.306096e+02
  -2.573046e+01  -1.238847e+02
   2.455718e+02  -2.278071e+02
   2.460271e+02   6.925230e+01
   1.273108e+02   4.426248e+02
  -2.069260e+02   4.651442e+02
  -3.341181e+02   1.805200e+01
  -1.923835e+02  -3.158375e+02
   1.597982e+02  -1.856357e+02
   1.825084e+02   1.960814e+02
  -6.059263e+01   3.402824e+02
  -3.893089e+02   7.974084e+01
  -4.172525e+02  -3.676221e+02
  -1.010963e+02  -4.240296e+02
   2.732967e+02  -2.554908e+02
   4.699265e+02   8.549874e+01
   2.695914e+02   2.626035e+02
  -7.151577e+01   2.376414e+02
  -3.061620e+02   1.123481e+02
  -1.501818e+02   2.446972e+01
   3.554819e+01  -4.074377e+01
   2.940138e+01   7.254413e+01
  -1.107538e+02   3.586463e+01
  -2.100800e+02  -4.591399e+01
  -1.029757e+02  -2.089629e+02
   1.370039e+02  -2.073495e+02
   3.075876e+02  -1.200390e+02
   2.254081e+02   6.068490e+01
  -5.092359e+00   2.618902e+02
  -1.929704e+02   3.102751e+02
  -2.980813e+02   1.387263e+02
  -2.499955e+02  -8.331383e+01
  -7.718025e+01  -2.562359e+02
   7.298128e+00  -2.367370e+02
   5.391224e+01  -9.913810e+01
   4.774141e+01  -9.252332e+01
   4.796817e+01  -6.764222e+01
   1.792119e+02  -6.900748e+01
   1.923978e+02   1.254357e+02
   1.392469e+02   2.641975e+02
   3.670379e+01   1.826488e+02
  -1.530459e+02  -7.236980e+00
  -1.582154e+02  -1.792191e+02
   2.236863e+01  -2.375626e+02
   2.524277e+02  -7.496413e+01
   3.101960e+02   1.035927e+02
   1.519222e+02   2.584459e+02
  -3.610668e+01   2.135294e+02
  -1.448244e+02   1.060945e+02
  -1.267423e+02   2.201498e+01
  -1.621185e+02   8.267855e+01
  -2.923832e+02   2.884972e+01
  -3.067692e+02  -6.166749e+01
  -2.469189e+02  -2.661761e+02
  -3.855577e+01  -3.730169e+02
   2.860006e+02  -3.333537e+02
   3.611227e+02  -1.177782e+02
   2.899764e+02   5.321595e+01
   5.491655e+01   2.717307e+02
  -1.080583e+02   1.995416e+02
  -6.842358e+01   1.216968e+01
   1.091095e+02  -3.729514e+01
   1.555409e+02   4.459275e+01
   3.142886e+01   1.565608e+02
  -1.210719e+02   1.136175e+02
  -1.258799e+02  -3.240548e+01
   2.878723e+00  -1.424359e+02
   1.736411e+02  -3.351062e+01
   1.407008e+02   1.703938e+02
   5.579922e+00   3.089021e+02
  -1.677292e+02   1.870103e+02
  -3.091677e+02  -5.855362e+01
  -2.706561e+02  -1.933649e+02
  -8.765709e+01  -2.506262e+02
   1.057310e+02  -1.442844e+02
   8.581228e+01   3.136787e+01
   4.243350e+01   2.832411e+00
  -3.610655e+01  -4.076601e+01
   1.977574e+01  -8.288975e+01
   1.327001e+02  -1.007234e+02
   1.217957e+02   4.998207e+01
  -1.419371e+01   9.475098e+01
  -7.485169e+01  -3.290388e+00
  -4.251021e+01  -5.619195e+01
   1.076180e+02  -8.281355e+01
   2.682566e+02  -2.685986e+01
   2.546421e+02   1.053430e+02
   6.888590e+01   2.278645e+02
  -1.404461e+02   2.162131e+02
  -1.919315e+02   1.092024e+02
  -1.413601e+02  -7.409691e+01
  -2.486961e+01  -6.833069e+01
  -1.978561e+01   3.234401e+01
  -4.916075e+00   8.730149e+01
  -1.509282e+02   1.934911e+01
  -1.609555e+02  -9.040077e+01
  -8.054590e+01  -1.506813e+02
   6.781098e+01  -1.491508e+02
   1.174824e+02  -5.677930e+01
   5.549044e+01   5.417566e+01
  -2.066946e+01  -5.620133e+00
  -5.535267e+01  -6.861161e+01
   8.033585e+01  -1.028410e+02
   1.643566e+02   7.085508e+00
   1.644983e+02   1.332994e+02
  -3.407351e+01   2.058267e+02
  -1.428358e+02   1.538307e+02
  -1.718214e+02   3.669238e+01
  -5.587732e+01  -7.426344e+01
   6.836169e+01  -1.059257e+02
   5.122280e+01  -5.433162e+01
   4.449596e+00   1.375746e+01
  -3.090973e+01   5.386971e+00
  -2.256818e+01  -3.431889e+01
   7.095754e+01  -2.212859e+01
   1.085039e+02   7.088233e+01
   6.538112e+00   1.856579e+02
  -5.046261e+01   1.811585e+02
  -2.057351e+02   3.815052e+00
  -1.599875e+02  -1.153918e+02
  -6.892016e+01  -1.753369e+02
   5.782790e+01  -1.557403e+02
   1.241978e+02  -3.557944e+01
   5.417688e+01  -4.232829e-01
   4.629484e+01   2.117587e+01
   4.380503e+01   2.735153e+01
   2.007478e+01  -6.003069e+01
   2.316076e+01   1.765103e+01
  -9.666954e+00   6.502629e+01
  -5.773809e+01   6.795724e+01
  -1.003810e+02  -1.188849e+01
  -4.196387e+00  -9.190371e+01
   1.472320e+02  -4.995531e+01
   1.582683e+02   3.019638e+01
   4.966650e+01   1.341858e+02
  -1.189561e+02   1.548089e+02
  -1.979435e+02   8.641189e+01
  -1.827952e+02  -8.010948e+01
  -1.270213e+02  -1.411027e+02
  -2.166524e+01  -1.313937e+02
   2.756442e+01  -8.392847e+01
   1.144244e+02  -8.721279e+01
   2.309900e+01  -5.091933e+01
   4.291810e+01  -5.291093e+01
   1.299021e+02   1.204751e+01
   8.991953e+01   1.049674e+02
   9.566168e+00   1.418278e+02
  -7.707135e+01   1.410012e+02
  -1.317466e+02   6.649381e+01
  -1.324835e+02  -8.876316e+01
  -1.036080e+01  -1.066142e+02
   6.834951e+01  -7.338616e+01
   8.960219e+01   5.509148e+01
   3.239427e+00   1.176172e+02
  -2.954322e-01   4.787651e+01
   1.255006e+01   5.420214e+01
   8.109865e+01   4.721740e+01
   3.967837e+01   4.883098e+01
  -6.159756e+01   7.028700e+01
  -1.409699e+02  -4.041370e+01
  -1.738884e+02  -8.710899e+01
  -4.060385e+01  -9.408900e+01
   4.769757e+01  -1.098078e+02
   1.065985e+02  -4.720856e+01
   4.774112e+01   7.332915e+00
  -1.676728e+01   1.776562e+01
  -5.510912e+01  -2.339930e+01
  -3.845052e+00  -3.689683e+01
   5.411397e+01  -5.573551e+01
   5.654508e+01   1.661068e+01
   6.169043e+01   5.285134e+01
   6.082561e+01   1.023701e+01
   9.264442e+01  -1.282230e+01
   3.413925e+01   8.868252e+00
   4.506538e+01   9.385961e+01
  -8.409436e+01   1.584570e+02
  -1.285455e+02   1.239372e+02
  -1.622565e+02   2.740686e+01
  -1.477924e+02  -5.107617e+00
  -3.846971e+00  -6.511298e+01
   5.035185e+01  -4.741241e+01
   2.061156e+01  -3.809725e+01
  -1.057350e+01   7.403579e+00
  -7.880361e+01  -2.845699e+01
  -7.122657e+01  -6.904731e+01
   1.180022e+02  -9.921642e+01
   1.472992e+02  -6.370395e+01
   1.146246e+02   2.882205e+01
   4.133909e+01   8.336599e+01
  -6.056612e+01   4.385512e+01
  -3.759209e+01   1.411887e+01
   4.617788e+01  -1.768730e+01
   1.058815e+02  -3.605188e+01
   5.284813e+01   1.106343e+02
  -2.411034e+01   7.335410e+01
  -1.166162e+02   6.949667e+01
  -1.449008e+02  -7.926580e+01
   9.618894e+00  -1.764314e+02
   6.339623e+01  -9.010942e+01
   1.020758e+02   4.711809e+01
   6.675529e+01   6.908178e+01
  -6.194892e+01   8.268341e+01
  -3.404219e+01   2.662898e+01
  -3.606632e+01  -4.304970e+01
  -6.513850e+01  -3.590724e+01
  -1.739386e+01   1.629407e+01
  -3.444418e+00   4.833868e+00
  -4.651625e+01  -8.944068e+01
  -5.806530e+01  -7.707464e+01
   1.049996e+01  -8.546633e+01
   9.046341e+01   3.950329e+01
   1.203165e+02   3.587229e+01
  -1.889806e+01   4.766937e+01
  -6.879073e+01   2.100822e+01
  -7.547086e+01   3.114594e+01
  -3.611180e+01  -3.405067e+01
   3.870175e+01  -2.807550e+01
   4.107214e+01  -6.160949e+00
   3.832044e+01  -1.588835e+01
   1.575619e+01   1.328731e+01
   8.340212e+01  -2.869710e+01
   1.033186e+02   7.959964e+00
   2.736476e+01   5.764858e+01
  -9.471781e+01   1.418262e+02
  -1.671383e+02   9.857658e+01
  -1.195729e+02  -3.123768e+00
  -2.564440e+01  -1.146249e+02
   7.916779e+01  -1.210462e+02
   8.386160e+01  -1.227610e+02
   3.123954e+01  -1.641338e+01
   2.283213e+01   3.860441e+01
  -1.366043e+00   1.841662e+01
   3.059791e+00  -2.852353e+01
   6.063429e+01   2.011390e+00
   2.132739e+01   7.953024e+01
   2.039988e+01   9.136690e+01
  -9.824436e+01   1.325263e+01
  -1.183876e+02  -8.702854e+01
  -6.001595e+01  -6.527709e+01
   4.497793e+01  -2.318833e+01
   9.146980e+01   6.933209e+01
  -6.721508e+00   6.937099e+01
  -4.606299e+01   1.942597e+01
  -1.021909e+02   2.909216e+01
  -4.507720e+01  -8.418035e+01
   1.445504e+01  -4.166095e+01
   2.478833e+01  -2.821811e+01
  -2.352308e+01   7.241700e+00
  -5.668913e+01   1.880109e+01
  -1.024456e+01  -4.054163e+01
   6.904690e+01  -9.505199e+01
   1.076774e+02  -7.398046e+01
   9.910887e+01  -1.000389e+01
  -3.370878e+01   1.059493e+02
  -4.858086e+01   8.398933e+01
  -3.916542e+01   2.965468e+01
  -2.956642e+01  -3.190208e+01
   1.967475e+01  -4.807873e+01
   2.770637e+01  -6.766500e+00
   4.436924e+01   3.442791e+01
  -2.599968e+01   1.648043e+01
  -2.103965e+01  -2.449763e+01
  -2.728646e+01  -1.519606e+01
   1.930835e+01   9.792311e+00
   3.880534e+01   2.325884e+01
  -1.274621e+01   3.953296e+01
  -1.659323e+01  -4.109952e+01
   1.479465e+01  -4.713780e+01
  -2.287319e+01  -2.290855e+01
   2.605530e+01   2.145653e+01
   1.919725e+01   4.981582e+01
   8.525371e+00   2.665622e+01
  -4.620829e+01  -3.278121e+01
  -2.961851e+01  -5.209885e+01
   1.496595e+01  -2.880815e+01
   9.880389e+01   3.983988e+01
   6.591086e+01   2.327260e+01
  -4.303645e+00   8.868841e+01
  -7.429739e+01   5.241571e+01
  -2.804811e+01   6.576363e+01
   3.734927e+01  -2.847053e+01
   3.065569e+01  -2.471751e+01
  -2.286788e+01   3.304989e+01
  -7.930971e+01   2.209380e+01
