
 $NMID
 id='ANONYMOUS ', fmtdat='(2E16.6)'
 volume=1.0
 tramp=1.0
 $END
   3.553803e+03  -2.280318e+02
   2.292967e+03   2.134169e+03
  -3.082300e+02   2.525230e+03
  -1.748631e+03   1.005196e+03
  -1.087094e+03  -3.366641e+02
   4.318748e+02  -5.197596e+02
   6.967118e+02   2.967178e+02
   1.566192e+00   8.723779e+02
  -6.751103e+02   6.589056e+02
  -7.820337e+02  -1.862827e+01
  -4.306031e+02  -6.683773e+02
   8.368776e+01  -8.531428e+02
   6.633034e+02  -1.637962e+02
   3.440020e+02   6.089407e+02
  -1.699033e+02   6.901038e+02
  -4.729057e+02   3.351142e+01
  -2.326526e+02  -5.913519e+02
   3.128779e+02  -6.553411e+02
   5.862326e+02  -1.069427e+02
   3.782627e+02   3.510341e+02
   2.097038e+01   4.361719e+02
  -2.340070e+02   2.218970e+02
  -2.233653e+02  -2.872436e+01
   1.888934e+02   2.037427e+01
   3.938548e+02   1.632975e+02
   1.499443e+02   4.602533e+02
  -5.301782e+02   3.150432e+02
  -8.480604e+02  -1.886051e+02
  -4.090832e+02  -5.075891e+02
   4.246173e+02  -3.856175e+02
   6.800321e+02   8.800100e+01
   2.770670e+02   4.393626e+02
  -3.772640e+02   4.551500e+02
  -5.961629e+02   1.943627e+02
  -3.965290e+02  -1.945270e+02
  -5.687117e+01  -4.314213e+02
   2.132567e+02  -2.725933e+02
   1.446769e+02   1.494335e+02
  -1.667587e+02   3.310736e+02
  -4.127789e+02  -2.610751e+00
  -1.403064e+02  -6.395965e+02
   3.426838e+02  -6.073315e+02
   5.234617e+02  -6.455161e+00
   2.045777e+02   5.058865e+02
  -2.905149e+02   2.622441e+02
  -3.475135e+02  -2.684002e+02
   7.044535e+01  -5.309918e+02
   5.063536e+02  -1.408931e+02
   5.661745e+02   4.321201e+02
   1.867054e+02   5.657802e+02
  -3.694304e+02   3.226805e+02
  -5.557298e+02  -7.887457e+01
  -3.011759e+02  -3.151032e+02
   9.756935e+01  -2.327566e+02
   3.103993e+02  -4.834338e+01
   2.037857e+02   1.467834e+02
  -1.198201e+02   9.424844e+01
  -1.535416e+02  -8.135462e+01
   1.176727e+02  -1.483138e+02
   3.011051e+02   2.183648e+01
   1.626369e+02   2.292664e+02
  -1.136651e+02   2.592773e+02
  -3.638667e+02   3.215530e+01
  -2.563548e+02  -1.189433e+02
   6.348658e+01  -2.691740e+02
   2.272308e+02  -3.495045e+02
   3.676695e+02  -1.985932e+02
   2.369630e+02   1.374572e+02
   3.505611e+01   3.752343e+02
  -5.321815e+01   3.347538e+02
  -9.633960e+01   1.522224e+02
  -4.022664e+01   5.681312e+01
  -1.057162e+02   1.233387e+02
  -2.206318e+02   2.513119e+01
  -2.701739e+02  -1.349186e+02
  -8.685482e+01  -2.848624e+02
   9.599047e+01  -2.191779e+02
   2.324707e+02   5.721475e+01
   1.883868e+02   2.719470e+02
  -1.261364e+01   2.719174e+02
  -2.315295e+02   8.833802e+01
  -3.408332e+02  -1.613616e+02
  -1.815731e+02  -3.256930e+02
   4.740404e+01  -2.886248e+02
   1.958239e+02  -1.274344e+02
   1.616416e+02  -7.896227e+00
   9.820860e+01  -3.839302e+01
   2.300807e+02  -5.129777e+01
   3.758889e+02   4.088731e+01
   3.119769e+02   3.303463e+02
  -2.619792e+01   4.641941e+02
  -3.401407e+02   3.848591e+02
  -4.583219e+02   1.617974e+02
  -3.174097e+02  -1.132954e+02
  -4.181286e+01  -2.793392e+02
   1.305532e+02  -2.208975e+02
   8.182521e+01  -2.965822e+01
  -7.708826e+01   5.735000e+01
  -1.853526e+02   4.289456e+00
  -6.544344e+01  -1.345885e+02
   1.385525e+02  -1.287699e+02
   1.330066e+02   6.918935e+01
  -5.331060e+01   1.784906e+02
  -1.967407e+02  -2.786812e+01
  -1.877622e+02  -2.597726e+02
   5.032678e+01  -3.091806e+02
   2.723582e+02  -2.091286e+02
   3.486326e+02   7.002289e+01
   2.362480e+02   2.624534e+02
   4.779966e+01   2.705990e+02
  -1.248435e+02   1.111390e+02
  -1.069661e+02  -1.011499e+01
  -6.285143e+01  -7.551008e+01
   4.756439e+01   4.301222e+01
  -2.376456e+01   1.186845e+02
  -1.788247e+02   9.239458e+01
  -1.812305e+02  -7.509594e+01
  -3.405021e+01  -1.118725e+02
   1.002212e+02   1.994744e+01
   6.077362e+01   7.806045e+01
  -1.349821e+02   1.143475e+02
  -2.742304e+02  -1.850210e+01
  -2.605429e+02  -2.017972e+02
  -5.065071e+01  -2.428887e+02
   2.291668e+02  -2.155579e+02
   3.159189e+02  -1.118816e+02
   1.979446e+02   6.778871e+01
  -4.699095e+00   9.443194e+01
  -9.853341e+01  -8.634057e+00
   4.427580e+01  -1.015317e+02
   2.050245e+02  -5.190528e+01
   2.293225e+02   1.018937e+02
   7.100674e+01   1.992734e+02
  -1.238506e+02   1.350440e+02
  -1.234201e+02   4.761781e+01
  -4.470900e+01  -4.745854e+01
   1.290796e+01  -6.341594e+00
   1.344481e+01   7.209707e+01
  -5.861412e+01   1.150225e+02
  -2.075865e+02   1.475089e+01
  -1.328807e+02  -1.081547e+02
  -2.253959e+01  -1.717782e+02
   1.148420e+02  -1.466432e+02
   1.925241e+02  -2.311393e+01
   9.392214e+01   1.015575e+02
  -8.756170e+01   7.752076e+01
  -4.815225e+01   1.554283e+01
   1.622424e+01  -3.006099e+01
   2.015456e+01   8.124375e+00
  -1.786914e+00   8.389641e+01
  -8.607521e+01   2.560254e+00
  -1.128722e+02  -6.411272e+01
   3.803209e+00  -1.615286e+02
   1.033128e+02  -1.720351e+02
   2.488529e+02   2.563522e+01
   1.904066e+02   2.030576e+02
   4.131107e+01   2.324360e+02
  -1.484068e+02   1.815538e+02
  -1.355380e+02   7.739017e+01
  -8.887291e+01  -6.589438e+01
  -3.113393e+01  -7.572585e+01
  -4.147783e+01  -4.151100e+00
  -8.591529e+01  -4.233300e+01
  -8.247933e+01  -6.592503e+01
  -1.084749e+01  -9.860510e+01
   9.543260e+01  -5.516022e+01
   8.714984e+01   3.014386e+01
  -2.618981e+01   9.155044e+01
  -1.078854e+02   4.894731e+01
  -1.773629e+02  -3.058107e+01
  -9.059756e+01  -1.831313e+02
   1.069766e+02  -2.630589e+02
   2.678320e+02  -8.460245e+01
   2.593699e+02   7.440249e+01
   1.180697e+02   1.803107e+02
  -4.303247e+01   1.577930e+02
  -7.265296e+01   5.965064e+01
  -7.829164e+01   5.444745e+01
  -6.226919e+01   1.083414e+02
  -1.119837e+02   4.755415e+01
  -1.278103e+02  -4.947517e+01
  -8.633539e+01  -1.538031e+02
  -3.717114e+01  -2.018282e+02
   1.238870e+02  -1.604419e+02
   1.901729e+02   3.172321e+01
   1.333171e+02   1.618548e+02
   4.254626e+01   1.924551e+02
  -8.486067e+01   1.072308e+02
  -8.866831e+01   6.277000e+00
  -1.482236e+01  -6.650412e+01
   2.340393e+01  -5.307392e+01
   5.418216e+00  -1.617039e+01
  -5.166487e+01  -3.190131e+01
  -4.956741e+01  -1.760008e+01
   8.514754e+01   3.900183e+00
   1.512923e+02   3.321370e+01
   1.268010e+02   1.071470e+02
   4.425554e+00   1.242488e+02
  -1.894766e+02   1.292148e+02
  -1.670666e+02   4.030695e+01
  -8.508374e+01  -3.665489e+01
   6.856311e+01  -4.452792e+01
   6.416527e+01   1.098316e+01
  -1.920638e+01   8.584948e+01
  -4.239035e+01   1.422223e+01
  -6.378177e+01  -2.520578e+01
  -3.054024e+01  -8.015205e+01
  -6.155729e+01  -6.148576e+01
  -7.789980e+01   4.276334e+01
  -5.455224e+01   4.160262e+01
  -7.612544e+01  -7.896711e+01
   7.252511e+01  -1.811479e+02
   1.025832e+02  -1.958689e+02
   1.588400e+02  -5.765313e+01
   1.110225e+02   8.242243e+01
   2.166629e+01   1.368368e+02
  -1.073112e+02   2.077309e+01
  -9.152878e+01  -4.666413e+01
   6.095172e+01  -3.773471e+01
   1.109055e+02   3.815479e+01
   7.003242e+01   1.256800e+02
  -6.765275e+01   1.020690e+02
  -2.058687e+02   3.575252e+00
  -1.631794e+02  -3.717590e+01
  -4.778740e+01  -6.468763e+01
   8.733802e+01  -9.500957e+01
   6.945563e+01  -1.659415e+01
  -1.222686e+01   8.339673e+00
  -6.473665e+01  -3.453718e+01
  -3.179711e+01  -6.823592e+01
   5.566822e+01  -1.362833e+02
   2.022765e+02  -2.982631e+01
   1.250341e+02   4.362779e+01
   1.096006e+01   1.148946e+02
  -8.839284e+01   1.279793e+02
  -1.078619e+02  -7.586397e+00
  -6.739781e+01  -1.021443e+02
   3.848498e+01  -1.131288e+02
   5.310476e+01  -3.568035e+01
   6.132172e+01   4.508492e+01
   2.956141e+01   3.339738e+01
   6.192592e+00   2.078896e+01
   4.080301e+01   3.666997e+01
   4.507442e+01   1.190536e+02
  -1.598763e+01   1.009300e+02
  -7.899505e+01   6.310514e+01
  -1.144751e+02  -6.585102e+01
  -1.001573e+02  -8.406007e+01
  -3.364803e+01  -4.513236e+01
   9.245902e+01   9.960287e+00
   3.914821e+01  -2.705148e+01
   2.133794e+01   1.090149e+00
  -5.108159e+01   3.854928e+00
  -3.778491e+01   2.422104e+01
  -5.602501e+00   1.843391e+01
  -1.442934e+01   2.937299e+00
  -1.243330e+02   2.568386e+01
  -1.326378e+02   1.362247e+01
  -4.031540e+01  -7.933436e+01
   1.153065e+02  -1.645529e+02
   2.173403e+02  -7.658774e+01
   1.222312e+02   5.960299e+01
   1.509318e+01   1.607609e+02
  -5.698739e+01   1.915485e+02
  -1.687993e+02   3.528742e+01
  -4.191115e+01  -5.110106e+01
  -4.331893e+01  -1.913715e+01
  -4.359127e+01  -5.545022e+01
   1.296275e+01   4.654515e+00
  -3.139661e+01  -8.604497e+01
   2.375920e+00  -7.469770e+01
   3.051850e+00  -7.538845e+01
   5.863309e+01   2.771706e+01
   1.100544e+02   1.066417e+02
   4.984164e+01   1.004731e+02
  -7.558953e+01   3.653890e+01
  -1.105643e+02  -6.789368e+01
  -9.133263e+01  -1.218174e+02
   8.441141e+01  -5.690412e+01
   8.425047e+01   4.656284e+00
   8.623375e+01   2.146493e+01
  -2.131051e+01   4.205648e+01
  -4.174154e+01   1.057963e+01
   4.794335e+01   6.132970e-02
   4.939070e+01  -2.336080e+01
   3.247735e+01   1.947369e+01
  -1.110304e+02   1.036460e+02
  -1.495410e+02   9.180485e+01
  -7.369251e+01   3.722965e+01
  -3.286916e+00  -1.127055e+02
   9.242471e+01  -3.479871e+01
   8.926918e+01  -6.130543e+01
   2.557472e+00   5.242413e+01
  -4.131071e+01   9.848319e+01
  -2.289587e+01  -1.997483e+01
  -2.124220e+01  -6.589377e+01
   5.819278e+01  -3.377110e+01
   2.172258e+01   6.393630e+00
   8.376416e+01   4.148042e+01
   1.645332e+01  -4.720820e+01
  -8.244950e+00  -3.225217e+01
  -2.899752e+01   2.064332e+01
   1.174949e+01   1.513355e+01
   5.402602e+01   9.015643e+01
  -1.289806e+01   4.424580e+00
  -3.275505e+01  -5.364941e+01
   4.222108e+00  -9.989033e+01
   5.502090e+01  -1.925928e+01
   6.682028e+01   9.247046e+01
   2.749363e+00   8.978597e+01
  -6.379878e+01   4.727641e+01
  -1.013192e+02  -2.810518e+01
  -4.203105e+01   2.021245e+01
   7.382939e+00  -8.033040e+01
   6.769792e+01  -1.321535e+01
   1.507135e+01  -1.065262e+01
  -5.067890e+01   1.569642e+01
  -4.761789e+01   3.674307e+00
   3.008592e+01  -3.574596e+00
   4.492071e+01  -2.561967e+01
