
 $NMID
 id='ANONYMOUS ', fmtdat='(2E16.6)'
 volume=1.0
 tramp=1.0
 $END
   2.557907e+03  -4.835303e+01
   1.725599e+03   1.188297e+03
  -2.481584e+01   1.795155e+03
  -9.725301e+02   1.131983e+03
  -8.620758e+02   2.523095e+02
  -2.238066e+02  -2.017613e+02
   2.465991e+02   5.900332e+01
   7.168734e+01   5.274625e+02
  -3.780466e+02   5.269037e+02
  -6.347519e+02   9.420536e+01
  -3.799526e+02  -4.985060e+02
  -1.073712e+01  -5.656385e+02
   3.459190e+02  -2.070154e+02
   1.537449e+02   2.997535e+02
  -1.463319e+02   5.400793e+02
  -3.178667e+02   7.759085e+01
  -2.959081e+02  -5.005606e+02
   8.608532e+01  -6.480049e+02
   4.403087e+02  -2.690401e+02
   4.693294e+02   1.763011e+02
   1.709642e+02   2.879005e+02
  -4.756582e+01   2.793828e+02
  -3.540091e-01   1.546594e+02
   1.756454e+02   1.327066e+02
   2.517431e+02   3.072925e+02
   3.389267e+00   3.643980e+02
  -4.211089e+02   2.356281e+02
  -5.829098e+02  -1.862429e+02
  -1.594192e+02  -3.523286e+02
   3.256246e+02  -1.789335e+02
   4.271258e+02   2.121487e+02
   1.294317e+02   3.728483e+02
  -2.794202e+02   2.886884e+02
  -4.448314e+02   9.498840e+01
  -2.998806e+02  -1.673908e+02
  -5.526740e+01  -2.016076e+02
  -2.207962e+01  -1.146762e+02
  -6.019792e+01   6.023416e+01
  -1.648105e+02   1.030106e+02
  -1.851326e+02  -1.864934e+02
   3.646878e+01  -5.424385e+02
   2.511174e+02  -4.344709e+02
   2.359230e+02   1.156358e+01
   7.556299e+01   2.775371e+02
  -1.127797e+02   1.572265e+02
  -1.104097e+02  -2.803923e+02
   1.616307e+02  -4.197382e+02
   3.724091e+02  -6.837306e+01
   4.507597e+02   3.511951e+02
   9.212924e+01   4.878653e+02
  -2.833687e+02   2.624030e+02
  -4.668601e+02  -2.864710e+01
  -3.519802e+02  -2.090566e+02
   1.349615e+01  -2.383236e+02
   2.549239e+02  -1.160601e+02
   2.403726e+02   2.795507e+00
   1.347159e+01   1.608146e+01
  -2.958269e+01  -5.037889e+01
   1.135002e+02  -4.138725e+01
   1.577295e+02   3.556519e+01
   1.485502e+02   1.912953e+02
  -1.288746e+02   2.328085e+02
  -3.215075e+02   1.197938e+02
  -2.800008e+02  -6.328629e+01
   7.493779e-01  -3.420937e+02
   2.911686e+02  -3.895519e+02
   3.577987e+02  -1.160254e+02
   2.056305e+02   1.669442e+02
   7.367590e+01   3.164304e+02
  -3.824266e+01   2.998818e+02
   4.479354e+01   2.182805e+02
  -2.344469e+01   1.112217e+02
  -1.642735e+02   1.214722e+02
  -2.382587e+02   4.099461e+01
  -2.004605e+02  -1.509495e+02
  -7.030992e+01  -2.234926e+02
   1.283674e+02  -2.166861e+02
   1.605957e+02   6.286686e+01
   1.116338e+02   2.197458e+02
  -6.335143e+01   2.285546e+02
  -2.411143e+02   3.560736e+01
  -2.931276e+02  -1.698079e+02
  -1.079620e+02  -2.628650e+02
   4.920535e+01  -2.460330e+02
   1.504747e+02  -9.213606e+01
   9.067970e+01  -7.938434e+01
   1.717563e+02  -1.139999e+02
   2.742781e+02  -4.995084e+01
   4.305705e+02   1.158685e+02
   3.343945e+02   2.592519e+02
  -1.204634e+01   4.043644e+02
  -3.768835e+02   3.679449e+02
  -4.557939e+02   1.356745e+02
  -2.826884e+02  -1.141567e+02
   7.303024e+00  -1.989503e+02
   1.008826e+02  -1.679397e+02
  -2.750753e+01  -1.698415e+01
  -1.305153e+02   3.445444e+01
  -1.272049e+02  -3.279968e+00
   1.933160e+01  -1.248590e+02
   9.105567e+01  -1.057793e+02
   8.708625e+01   4.311941e+01
  -6.740438e+01   1.027671e+02
  -1.166910e+02  -6.216761e+01
  -1.403547e+02  -2.493877e+02
  -1.834855e+01  -3.625503e+02
   2.665794e+02  -1.782351e+02
   3.889777e+02   1.378932e+02
   2.631365e+02   2.988192e+02
   7.372157e+01   2.378017e+02
  -1.247927e+02   1.081645e+02
  -1.784137e+02   1.572081e+01
  -1.402809e+01   2.925058e+01
   1.553347e+01   6.594995e+01
   4.473243e+01   1.126156e+02
  -1.023282e+02   7.783868e+01
  -1.149215e+02  -1.982886e+01
  -3.555289e+01  -5.359403e+01
   9.442279e+01   5.097028e+01
   3.090834e+01   6.341910e+01
  -1.108503e+02   9.696169e+01
  -3.003678e+02  -3.903109e+01
  -2.931441e+02  -2.005435e+02
  -1.688410e+01  -2.959211e+02
   2.463197e+02  -2.379198e+02
   2.736993e+02  -8.802758e+01
   1.170587e+02   4.390098e+01
  -3.576329e+01   5.441618e+01
  -5.258376e+01  -3.115021e+00
   4.108530e+01  -5.475831e+01
   1.739025e+02   2.539517e-02
   1.610062e+02   1.428949e+02
  -1.163655e+01   1.790389e+02
  -1.204798e+02   1.440819e+02
  -1.636164e+02   5.547452e+01
  -9.495757e+01  -1.408598e+01
   8.247872e+01   3.309459e+01
   3.307721e+01   1.243435e+02
  -7.988203e+01   9.869842e+01
  -2.001831e+02   1.788537e+01
  -1.580617e+02  -1.096668e+02
  -9.221221e+01  -1.596162e+02
   1.090520e+02  -1.463726e+02
   1.534491e+02  -5.752818e+01
   4.553565e+01   1.783470e+01
  -7.164577e+01   3.725516e+01
  -4.576512e+01   9.364166e+00
   1.744812e+01  -1.244573e+01
   6.337407e+01   1.626211e+01
  -6.739010e+00   4.759595e+01
  -8.258566e+01   2.755528e+01
  -1.125289e+02  -1.523291e+02
   2.071455e+01  -1.572604e+02
   1.865922e+02  -1.515570e+02
   2.575162e+02   3.493286e+01
   2.100423e+02   1.432059e+02
   1.564820e+01   2.249775e+02
  -1.527302e+02   1.714250e+02
  -1.003505e+02   5.417176e+01
  -4.955415e+01  -4.781677e+01
  -8.147529e+00  -1.669319e+00
  -1.759584e+01  -4.543273e+00
  -1.135914e+02  -2.511399e+01
  -7.853127e+01  -7.158519e+01
   5.015286e+01  -6.286060e+01
   6.435746e+01  -6.026341e+01
   1.268519e+02   5.739488e+01
   1.000910e+00   1.652336e+02
  -1.577424e+02   5.233067e+01
  -1.880617e+02  -4.999335e+01
  -1.042599e+02  -2.002724e+02
   1.299861e+02  -2.038364e+02
   2.164366e+02  -7.597021e+01
   2.640925e+02   1.107821e+02
   9.994487e+01   1.453650e+02
  -4.284692e+01   7.257965e+01
  -7.598058e+01   1.241560e+01
  -9.352481e+01   8.085098e+01
  -7.833584e+01   8.603108e+01
  -1.124866e+02   5.454146e+01
  -1.003227e+02  -4.433292e+01
  -1.486825e+02  -1.812986e+02
  -3.889189e+01  -1.921791e+02
   1.254052e+02  -1.129711e+02
   1.802353e+02  -9.386418e+00
   1.116681e+02   1.713294e+02
  -1.746967e+01   1.377615e+02
  -7.106897e+01   4.867445e+01
  -6.243669e+01  -2.707464e+01
   3.826175e+01  -2.416659e+01
   4.662614e+01  -2.484868e+01
  -3.370482e+01  -4.807929e+01
  -6.901878e+01  -1.725524e+01
  -3.637591e+00  -4.144335e+01
   9.972644e+01  -3.412494e+01
   1.285778e+02  -2.337070e+01
   1.425421e+02   9.720294e+01
  -3.201874e+01   8.174725e+01
  -1.287484e+02   6.136052e+01
  -1.686306e+02  -3.383414e+01
  -3.727398e+01  -4.169948e+01
   3.812839e+01  -4.800609e+01
   8.938897e+01   4.604875e+01
   2.265458e+01   7.171566e+01
   2.324145e+00   4.136057e+01
  -8.041457e+01  -2.224948e+01
  -7.405505e+01  -7.061032e+01
  -3.353923e+01  -1.332896e+01
  -2.668960e+01   7.919920e+00
  -1.203171e+02  -4.330837e+00
  -3.769223e+01  -9.912770e+01
   3.176360e+01  -1.952908e+02
   1.588359e+02  -1.795109e+02
   1.753711e+02  -3.611673e+00
   1.097201e+02   1.274153e+02
  -2.415611e+01   1.448126e+02
  -1.188159e+02   7.655336e+01
  -6.358878e+01  -5.245294e+01
   2.328826e+01  -4.015683e+01
   1.305909e+02   3.284770e+01
   3.584468e+01   1.360552e+02
  -1.313546e+02   1.008148e+02
  -2.020468e+02   5.423302e+01
  -9.829408e+01  -1.000565e+02
  -4.164137e+01  -1.048146e+02
   1.007083e+02  -1.088655e+02
   7.040221e+01  -1.947763e+00
  -1.318498e+01   3.736789e+01
  -7.253627e+01  -4.737198e-01
  -6.004688e+01  -1.644050e+02
   8.396189e+01  -1.568468e+02
   1.595805e+02  -7.848802e+01
   1.074719e+02   1.263092e+02
   1.263683e+01   2.291998e+02
  -7.961494e+01   1.290209e+02
  -1.353917e+02   9.328768e-01
  -1.074313e+02  -1.414365e+02
   8.113732e+00  -8.658571e+01
   4.608925e+01  -4.258332e+00
   7.668226e+01   1.760107e+00
   1.225426e+01  -1.012330e+00
   7.334763e+00  -7.994585e-01
   1.691009e+01   5.602065e+00
   4.196881e+01   1.154594e+02
   1.209392e+01   1.184338e+02
  -8.228784e+01   3.406805e+01
  -1.491548e+02  -6.818386e+01
  -8.925990e+01  -1.199685e+02
  -1.133740e+01  -7.798723e+01
   1.236952e+02  -1.966957e+01
   6.270010e+01  -5.849027e+00
   3.737997e+01   4.658095e+01
  -3.529384e+01  -8.930893e+00
   1.584575e+00  -2.915919e+00
   1.781226e+00  -4.603264e+01
   3.088915e+01   8.811726e+00
  -6.460804e+01   2.242084e+01
  -6.017334e+01  -2.373590e+01
  -4.175210e+01  -8.591541e+01
   9.821490e+01  -1.058318e+02
   1.515029e+02  -5.805554e+01
   1.394455e+02   9.612611e+01
   3.939279e+01   1.562839e+02
  -7.005443e+01   1.540375e+02
  -8.145916e+01   4.764449e+01
  -9.373510e+01  -4.142515e+01
  -7.830279e-01  -7.678575e+01
   1.123465e+01  -2.299382e+01
  -1.445228e+01  -1.446977e+01
  -1.714153e+01  -4.593354e+01
   4.494707e+01  -1.151689e+02
   3.576312e+01  -8.297207e+01
   1.035947e+02   2.138988e+01
   3.245118e+01   1.130279e+02
   1.523165e+01   9.599788e+01
  -1.225989e+02   2.034341e+01
  -1.035546e+02  -5.710145e+01
  -2.994687e+01  -7.181940e+01
   7.613673e+01  -4.396619e+01
   7.120099e+01  -2.598666e+01
  -1.224523e+01   8.148491e+01
  -5.567348e+01   1.712568e+01
  -3.996671e+01  -4.057081e+01
   7.023662e+01  -2.492934e+01
   6.661473e+01   1.860914e+01
  -7.997113e+00   7.351092e+01
  -7.104639e+01   6.342360e+01
  -1.208538e+02   5.200397e+01
  -6.067654e+01  -1.772852e+01
   8.290705e+01  -5.899604e+01
   5.701553e+01  -2.378027e+01
   6.652663e+01  -7.646895e+00
   2.587509e+01   5.525808e+01
  -1.074641e+01   7.532926e+01
  -2.630154e+01  -5.317274e+01
  -1.202589e+01  -8.256300e+01
   2.352914e+01  -4.141856e+01
   4.154990e+01   6.787605e+00
   5.036051e+01   1.214288e+01
  -1.421393e+01   2.745224e+01
  -3.994462e+00  -8.963440e+00
   1.700458e+01  -2.680293e+01
   1.230941e+01   3.357556e+01
  -1.431971e+01   7.383415e+01
  -3.783924e+01   5.606545e+01
  -5.167259e+00   1.287180e+00
   1.023533e+01  -5.589309e+01
   4.138789e+01  -1.207138e+01
   4.717715e+01   5.686451e+01
   3.396168e+01   8.135879e+01
  -3.535812e+01   5.886473e+01
  -1.246375e+02  -2.736300e+01
  -6.830342e+01  -2.515223e+00
   4.306039e+01  -6.391903e+01
   5.791815e+01  -2.299290e+01
   5.578918e+01   1.577907e+00
  -2.068862e+01   1.283594e+01
  -5.736178e+01   1.865654e+01
   5.599526e+00  -3.261499e+00
   8.948331e+01  -1.852423e+01
