
 $NMID
 id='ANONYMOUS ', fmtdat='(2E16.6)'
 volume=1.0
 tramp=1.0
 $END
  -2.727575e+03   7.608806e+01
  -1.947766e+03  -1.499727e+03
  -1.747031e+02  -1.988263e+03
   1.002823e+03  -1.242831e+03
   9.321384e+02  -3.069027e+02
   1.520309e+02   2.587464e+02
  -3.213226e+02  -4.294697e+01
  -1.556656e+02  -4.953174e+02
   3.755388e+02  -5.730829e+02
   6.794142e+02  -1.147802e+02
   4.464199e+02   3.752469e+02
   6.058174e+01   6.371014e+02
  -1.251203e+02   2.435350e+02
  -2.257371e+02  -3.543072e+02
   1.563598e+02  -4.545986e+02
   3.940484e+02  -1.321111e+02
   3.438214e+02   3.617581e+02
  -2.452376e+01   6.428700e+02
  -4.469423e+02   3.279561e+02
  -4.016869e+02  -6.386240e+01
  -1.746112e+02  -3.574805e+02
   1.624633e+02  -2.699803e+02
   1.107497e+02  -8.163325e+01
  -1.987306e+02  -1.164885e+02
  -1.532695e+02  -3.729901e+02
   1.089786e+02  -3.869018e+02
   4.568258e+02  -1.602299e+02
   5.858519e+02   1.471115e+02
   2.460663e+02   3.391422e+02
  -2.617147e+02   1.445090e+02
  -4.887064e+02  -1.031338e+02
  -2.171182e+02  -2.718098e+02
   2.392553e+02  -3.625985e+02
   3.866582e+02  -1.664881e+02
   2.592134e+02   1.296627e+02
   6.664140e+01   2.174337e+02
  -1.585900e+01   1.424204e+02
   4.664346e+01  -3.549192e+01
   1.601963e+02  -1.396409e+02
   2.006172e+02   1.182195e+02
  -6.133084e+01   3.925216e+02
  -2.152154e+02   4.164541e+02
  -2.407644e+02   3.969477e+01
  -9.700944e+01  -2.420826e+02
   9.116696e+01  -1.528044e+02
   1.170580e+02   2.956148e+02
  -1.170880e+02   3.809686e+02
  -4.101394e+02   4.225962e+01
  -4.248674e+02  -3.167035e+02
  -9.536095e+01  -4.478509e+02
   2.965217e+02  -2.441147e+02
   5.185815e+02   8.699280e+01
   3.347460e+02   2.487503e+02
  -2.962142e+01   2.292472e+02
  -2.310276e+02   1.105576e+02
  -1.948609e+02   3.857692e+01
  -2.419667e+01   3.239427e+01
   3.670505e+01   5.759640e+01
  -1.104137e+02   3.407047e+01
  -2.127639e+02  -7.223573e+01
  -1.110594e+02  -2.139822e+02
   1.153640e+02  -2.893096e+02
   3.587513e+02  -1.836087e+02
   2.839358e+02   8.442957e+01
  -8.858886e+00   2.928011e+02
  -2.788424e+02   3.495525e+02
  -3.444305e+02   1.240997e+02
  -2.075705e+02  -1.780602e+02
  -5.225726e+01  -2.914205e+02
  -1.811017e+01  -3.057754e+02
   4.059629e+01  -1.436734e+02
   6.897785e+01  -1.551274e+02
   1.322942e+02  -1.281612e+02
   2.475263e+02  -6.590791e+01
   2.419415e+02   1.515806e+02
   9.397841e+01   2.513319e+02
  -5.235682e+01   1.833988e+02
  -1.846074e+02  -5.234694e+01
  -1.470219e+02  -1.961578e+02
   2.108594e+01  -2.373492e+02
   2.394745e+02  -8.178138e+01
   3.255069e+02   1.676417e+02
   1.463501e+02   3.190664e+02
  -4.246299e+01   2.363420e+02
  -1.459208e+02   1.458113e+02
  -1.718454e+02   8.660536e+01
  -1.460688e+02   8.907655e+01
  -2.820641e+02   1.305244e+01
  -3.892400e+02  -1.031608e+02
  -3.101223e+02  -3.194871e+02
   4.253111e+01  -4.022459e+02
   4.229705e+02  -3.868759e+02
   4.235775e+02  -1.530298e+02
   2.797571e+02   6.615562e+01
  -8.895596e+00   2.171009e+02
  -1.109183e+02   1.446397e+02
   1.646205e+01  -1.338281e+01
   1.569857e+02  -4.373541e+01
   1.556563e+02   6.194815e+01
   2.456512e+01   1.464191e+02
  -1.395178e+02   7.878405e+01
  -1.024955e+02  -4.041261e+01
  -1.034882e+01  -1.483405e+02
   1.641750e+02  -3.561106e+01
   1.435246e+02   1.854936e+02
  -1.485696e+01   3.250468e+02
  -2.235262e+02   1.728543e+02
  -3.082669e+02  -8.052226e+01
  -2.263462e+02  -2.854434e+02
  -3.802139e+01  -2.558875e+02
   1.621927e+02  -7.429328e+01
   1.170908e+02   9.727198e+01
   1.190815e+01   1.975222e+01
  -7.396356e+01  -8.997104e+01
  -1.292934e+01  -1.453730e+02
   1.190787e+02  -4.264803e+01
   1.686436e+02   2.579620e+01
  -1.480739e+01   4.297369e+01
  -1.014365e+02   3.563460e+00
  -4.304702e+01  -7.683406e+01
   1.579607e+02  -1.046984e+02
   3.104165e+02   1.926858e+01
   2.460029e+02   2.047983e+02
  -2.120978e+01   2.654697e+02
  -2.155610e+02   2.268108e+02
  -3.152860e+02   5.633706e+01
  -1.202424e+02  -5.607387e+01
   5.284948e+01  -7.819018e+01
   1.027677e+02   1.162398e+01
  -6.214758e+01   1.132929e+02
  -1.928283e+02   3.650993e+01
  -2.179117e+02  -1.264828e+02
  -3.409521e+01  -2.267329e+02
   1.072915e+02  -1.623821e+02
   9.652104e+01   2.384240e+00
   5.444101e+01   2.719692e+01
  -6.963281e+01   1.578577e+01
   5.126378e+00  -1.540714e+02
   1.071637e+02  -1.170276e+02
   2.764146e+02  -5.472982e+01
   1.650406e+02   1.582282e+02
   2.950538e+01   2.162362e+02
  -1.589039e+02   1.755325e+02
  -1.699673e+02   3.298428e+01
  -8.578518e+01  -1.420059e+02
   7.329213e+01  -1.092530e+02
   8.374330e+01  -4.741564e+01
  -3.887971e+01   2.294937e+01
  -3.063458e+00   5.649828e+00
   3.193102e+01  -4.115291e+01
   1.640300e+02  -2.645124e+00
   1.560187e+02   9.277288e+01
   1.752676e+01   1.825871e+02
  -1.271113e+02   1.230201e+02
  -2.471897e+02   3.213322e+01
  -1.703741e+02  -1.778609e+02
  -5.336453e+01  -1.967835e+02
   1.223807e+02  -1.671384e+02
   1.159608e+02  -4.111941e+01
   4.663796e+01   4.053633e+01
   5.964351e+01   5.497864e+00
   6.316746e+01  -2.079375e+01
   1.237279e+02  -7.341716e+00
   3.781521e+01   6.719898e+01
  -1.372689e+01   1.171669e+02
  -1.826993e+02   8.864751e+01
  -1.224275e+02  -3.807112e+01
  -4.423842e+00  -1.505585e+02
   2.102922e+02  -8.738068e+01
   1.975473e+02   6.328080e+01
   7.311965e+01   2.333307e+02
  -1.469186e+02   1.926600e+02
  -2.916269e+02   3.656625e+01
  -2.347024e+02  -4.599561e+01
  -1.057629e+02  -1.603905e+02
   4.478474e+01  -1.018992e+02
   8.836069e+01  -7.142857e+01
   7.614937e+01  -7.529956e+01
   5.753365e+01  -1.048928e+02
   1.274860e+02  -1.128309e+02
   1.424494e+02   1.389081e+01
   1.543440e+02   1.377388e+02
   4.592834e+00   2.242463e+02
  -1.164077e+02   1.637860e+02
  -1.550854e+02  -5.031929e+01
  -1.080450e+02  -1.309542e+02
   2.399467e+01  -1.252422e+02
   9.222211e+01  -5.049578e+01
  -1.920158e+01  -1.060770e+00
   2.777119e+00   5.911361e+01
  -9.889518e+01   3.977877e+01
   3.444641e+01   1.459084e+01
   1.201904e+02  -1.209342e+01
   5.223388e+01   4.197613e+01
  -7.389986e+01   3.149153e+01
  -1.563257e+02  -2.281665e+01
  -1.502975e+02  -7.655555e+01
   3.400821e-01  -1.360073e+02
   1.636115e+02  -7.176050e+01
   1.845525e+02   1.171644e+01
  -6.778021e+00   4.455061e+01
  -1.967143e+01   4.042395e+01
  -3.193237e+01  -3.590377e+01
  -2.196180e+01  -7.380884e+01
   5.138000e+01  -7.279113e+01
   7.454238e+01   1.197033e+01
   4.260324e+01   3.703764e+00
   4.017870e+01   3.603133e+01
   5.137217e+01  -2.822521e+00
   6.721816e+01   3.728909e+01
   4.792850e+01   9.457525e+01
  -7.586186e+01   1.615133e+02
  -1.499279e+02   1.254546e+02
  -2.101833e+02  -1.065100e+01
  -1.377404e+02  -1.214129e+02
   2.462560e+00  -1.467336e+02
   1.084496e+02  -2.938265e+01
   2.666071e+01   1.855703e+01
  -1.329674e+02  -1.912049e+00
  -1.288310e+02  -8.909730e+01
  -5.067353e+01  -1.568066e+02
   1.351900e+02  -9.494136e+01
   2.374019e+02  -2.777037e+01
   1.607193e+02   5.529860e+01
   1.651117e+01   8.550639e+01
  -9.465810e+01   6.256481e+01
  -6.059069e+01  -1.290983e+01
   3.853394e+01  -2.504216e+01
   1.101041e+02  -4.676980e+00
   5.860098e+01   1.045496e+02
  -8.099044e+01   1.560099e+02
  -1.765512e+02   1.006048e+02
  -1.596106e+02  -8.536799e+01
  -3.391468e+01  -2.239554e+02
   4.985089e+01  -1.071228e+02
   7.938414e+01  -1.751981e+01
   2.536709e+01   1.143981e+02
  -2.027537e+01   8.002021e+01
  -2.924494e+01  -1.333241e-01
  -3.729211e+01  -6.533379e+01
  -2.188240e+01  -4.419709e+00
   3.142627e+00  -7.074656e+00
   1.290971e+01  -1.710260e+01
  -2.331511e+01  -8.681511e+01
  -3.868153e+01  -6.937065e+01
   7.909722e+01  -2.708862e+01
   1.339255e+02  -9.380648e+00
   1.196094e+02   1.313107e+02
   3.371062e+01   7.886352e+01
  -4.421169e+01   3.347582e+01
  -5.492513e+01   2.871561e+01
  -3.420127e+01   4.527776e+01
   5.303232e+01  -5.970116e+01
   4.551080e+01   6.566164e+00
   3.198606e+00   1.569947e+01
  -5.869613e+00   2.714977e+01
   5.964649e+01  -2.270363e+01
   9.641915e+01   3.897115e+00
   4.197680e+01   8.071967e+01
  -1.362887e+02   1.368018e+02
  -1.896666e+02   6.095462e+01
  -1.240752e+02  -6.902026e+01
  -2.081094e+01  -2.011930e+02
   1.568451e+02  -2.014395e+02
   1.328877e+02  -4.327690e+01
   8.875418e+01   4.073236e+01
   2.576950e+01   7.494115e+01
   1.431217e+01   3.138013e+01
   2.851795e+01  -2.009298e+01
   8.370737e+01   5.411851e+01
   4.189961e+01   1.050899e+02
  -5.531634e+00   9.608246e+01
  -6.816454e+01  -2.113492e+01
  -9.829028e+01  -4.852386e+01
  -2.690857e+01  -1.577858e+02
   1.093320e+02  -2.660995e+01
   1.049364e+02   7.834570e+01
   3.584402e+01   1.140084e+02
  -9.743104e+01   5.666860e+01
  -1.251434e+02  -6.517271e+01
  -6.684056e+01  -7.975028e+01
   5.722660e+01  -4.460326e+01
   5.155033e+01  -2.906237e+01
  -1.225915e+01   2.635652e+01
  -1.131092e+02  -1.305236e+01
  -3.426341e+01  -5.982879e+01
   9.934939e+01  -1.001927e+02
   1.490362e+02  -2.758757e+01
   9.517426e+01   4.082005e+01
   1.760577e+01   8.259550e+01
  -1.141942e+02   8.983262e+01
  -1.002670e+02   5.065000e+01
   8.667108e+00  -4.676325e+01
   5.576382e+01  -9.174239e+01
   6.104715e+01   1.817895e+01
   3.190596e+01   6.388934e+01
   6.948954e+00   5.217440e+01
  -8.882690e+01  -2.091640e+01
  -6.765445e+01  -1.603906e+01
  -3.397736e+01  -1.875356e+01
   3.396721e+01   1.407099e+01
   9.493562e+00   1.700696e+00
  -2.536762e+00  -5.036999e+01
  -1.700785e+01  -1.085266e+02
   4.311502e+01  -5.223593e+01
   5.482880e+01   4.173749e+01
  -3.174141e+01   4.691725e+01
  -7.631282e+01   3.451673e+00
  -6.445681e+01   1.341301e+00
  -4.327435e+01  -7.609949e+01
   8.397255e+01  -8.409831e+01
   1.129588e+02   8.716254e+00
   6.263267e+01   1.489591e+01
   8.924550e+00   5.889323e+01
  -7.303849e+01   1.981243e+01
  -2.395429e+01   5.933850e+01
   2.007213e+01   3.390695e+01
   6.107437e+01   2.787222e+01
  -3.535246e+00   5.829759e+00
  -7.359720e+01   6.569063e-01
