
 $NMID
 id='ANONYMOUS ', fmtdat='(2E16.6)'
 volume=1.0
 tramp=1.0
 $END
   4.260447e+03  -5.652826e+01
   2.396947e+03   2.878177e+03
  -9.617272e+02   3.024465e+03
  -2.379830e+03   9.157524e+02
  -9.418284e+02  -8.208091e+02
   6.063796e+02  -6.010953e+02
   9.775189e+02   4.409938e+02
  -5.063676e+01   1.186550e+03
  -1.027650e+03   7.063156e+02
  -9.580275e+02  -1.188904e+02
  -5.472642e+02  -9.473638e+02
   2.770615e+02  -1.024717e+03
   7.220554e+02  -1.715607e+02
   4.254601e+02   7.949858e+02
  -2.865887e+02   8.425972e+02
  -6.929022e+02  -5.749869e+01
  -2.741913e+02  -8.445319e+02
   4.007579e+02  -7.224553e+02
   6.335323e+02  -4.831607e+01
   3.635312e+02   3.228684e+02
  -8.010681e+00   4.324346e+02
  -1.793526e+02   3.012281e+02
  -2.091941e+02   4.334749e+01
   1.648811e+02  -1.122488e+02
   4.283898e+02   7.971933e+01
   2.184537e+02   5.049350e+02
  -4.846447e+02   5.349021e+02
  -9.146712e+02  -7.624907e+01
  -4.453998e+02  -6.691848e+02
   4.518998e+02  -5.515871e+02
   6.994785e+02   9.553060e+01
   3.480667e+02   5.120280e+02
  -2.689667e+02   5.066353e+02
  -5.925415e+02   9.876158e+01
  -3.624981e+02  -2.169357e+02
  -3.430232e+01  -4.528084e+02
   1.992614e+02  -2.776445e+02
   2.391539e+02   2.277037e+02
  -2.412032e+02   4.132855e+02
  -5.090546e+02  -4.692426e+01
  -2.557464e+02  -7.894268e+02
   4.020473e+02  -7.462134e+02
   6.932991e+02  -8.756314e+01
   2.365894e+02   6.138011e+02
  -2.977076e+02   3.455000e+02
  -4.042180e+02  -3.270949e+02
   1.556251e+02  -5.449550e+02
   5.479753e+02  -9.833683e+01
   5.673009e+02   4.080359e+02
   1.269580e+02   6.335774e+02
  -4.333487e+02   3.542877e+02
  -6.374937e+02  -1.344116e+02
  -3.681958e+02  -4.524792e+02
   2.125303e+02  -3.521435e+02
   4.974130e+02  -5.835243e+01
   2.608316e+02   1.918714e+02
  -1.551561e+02   1.704775e+02
  -1.349713e+02  -7.301833e+01
   1.858775e+02  -1.432089e+02
   3.328175e+02   2.632051e+01
   1.363395e+02   2.841641e+02
  -2.279517e+02   2.165821e+02
  -3.189836e+02   8.102269e+01
  -2.083596e+02  -8.780832e+01
   4.162656e+01  -2.232935e+02
   1.914837e+02  -3.940418e+02
   3.616558e+02  -2.691454e+02
   3.364928e+02   7.266464e+01
   1.406517e+02   4.795704e+02
  -9.931501e+01   3.994330e+02
  -1.642842e+02   1.559501e+02
  -4.795415e+01  -5.179524e+00
  -2.034383e+01   1.250203e+02
  -1.974146e+02   1.605129e+02
  -3.151403e+02  -1.770537e+01
  -2.153322e+02  -2.429523e+02
   7.634412e+01  -2.844980e+02
   2.627483e+02  -3.569477e+01
   1.527016e+02   2.319964e+02
  -2.426017e+01   3.354558e+02
  -2.863244e+02   1.315666e+02
  -3.907877e+02  -1.150484e+02
  -2.029874e+02  -3.896143e+02
   1.278156e+02  -3.168724e+02
   2.350835e+02  -1.431608e+02
   2.202961e+02  -4.688360e+01
   6.640261e+01  -2.313347e+01
   1.825707e+02  -9.340320e+01
   4.285061e+02   5.775991e+01
   4.155597e+02   2.791192e+02
  -2.943037e-02   4.398860e+02
  -3.538321e+02   4.161635e+02
  -5.176011e+02   2.012361e+02
  -3.324784e+02  -1.560568e+02
  -1.067420e+02  -3.174427e+02
   1.337051e+02  -2.780871e+02
   1.093737e+02  -1.548734e+01
  -1.268150e+02   7.366079e+01
  -2.216771e+02  -9.431609e+00
  -1.060279e+02  -1.934065e+02
   1.402117e+02  -2.390567e+02
   2.065147e+02   8.529778e+01
  -8.509380e+00   1.706081e+02
  -1.907696e+02   4.574845e+01
  -1.460979e+02  -2.004014e+02
   1.725795e+01  -3.966806e+02
   2.450061e+02  -2.071073e+02
   3.522896e+02  -2.385689e+00
   3.094162e+02   2.128256e+02
   1.460510e+02   3.081740e+02
  -8.492185e+01   2.132843e+02
  -1.968586e+02   4.637158e+01
  -5.854586e+01  -1.350065e+01
   5.857475e+01   6.127072e+01
   4.447128e+01   1.453621e+02
  -1.281828e+02   1.160553e+02
  -1.897151e+02  -7.879677e+00
  -5.234155e+01  -8.106752e+01
   6.797966e+01   6.285993e-01
   1.049797e+02   3.770260e+01
  -1.295252e+02   7.297158e+01
  -2.630634e+02   3.308391e+01
  -3.010163e+02  -1.117700e+02
  -4.843203e+01  -2.501373e+02
   2.191504e+02  -2.847420e+02
   3.042201e+02  -1.194007e+02
   2.106364e+02   8.277194e+01
  -2.272579e+01   1.462684e+02
  -8.030549e+01   4.158243e+00
  -2.100780e+01  -9.434031e+01
   1.992510e+02  -1.145535e+02
   2.743626e+02   1.229904e+02
   6.895699e+01   2.258125e+02
  -9.140897e+01   1.734826e+02
  -1.353200e+02   4.923560e+01
  -4.670371e+01  -1.765364e+01
   3.433496e+01  -1.041090e+01
  -1.468511e+01   7.320269e+01
  -9.992603e+01   1.448945e+02
  -1.785584e+02   3.361522e+01
  -2.295596e+02  -1.078500e+02
  -3.236822e+01  -2.663280e+02
   1.828746e+02  -1.937121e+02
   2.246175e+02  -1.161800e+00
   4.668485e+01   1.140821e+02
  -5.351700e+01   1.114969e+02
  -1.316292e+02   2.746298e+01
  -3.743626e+01   7.368135e+00
   5.178672e+01  -2.531710e+01
   1.210090e+01  -2.697015e+00
  -7.641741e+01  -6.094068e+01
  -8.195575e+01  -5.985734e+01
  -6.157389e+01  -1.251029e+02
   1.111814e+02  -1.997282e+02
   2.565790e+02  -5.552064e+01
   1.994624e+02   2.049327e+02
   5.381381e+01   2.453677e+02
  -1.199391e+02   1.577275e+02
  -1.492970e+02  -1.230955e+01
  -5.976905e+01  -5.459165e+01
  -4.752686e+01  -1.786638e+01
  -6.074923e+01  -2.580966e+01
  -3.572768e+01  -6.609330e+01
  -6.763009e+00  -7.947977e+01
   2.811352e+01  -6.167597e+01
   9.915341e+01  -3.494347e+01
   9.533076e+01   2.441606e+01
   1.925267e+01   1.212095e+02
  -1.238365e+02   8.108282e+01
  -1.698132e+02  -4.629418e+01
  -1.052793e+02  -1.523936e+02
   1.201879e+02  -1.694526e+02
   2.608371e+02  -7.827439e+01
   2.568234e+02   1.146867e+02
   1.033623e+02   2.175160e+02
  -4.703201e+01   1.555288e+02
  -8.606646e+01   1.244350e+02
  -1.142962e+02   1.034605e+02
  -7.552854e+01   1.123545e+02
  -9.180185e+01   1.357285e+02
  -1.627818e+02   5.747416e+00
  -1.537153e+02  -1.570105e+02
  -3.926800e+01  -2.478498e+02
   9.664056e+01  -2.268050e+02
   2.163968e+02  -6.355162e+01
   1.823138e+02   1.470121e+02
   1.626595e+01   1.421368e+02
  -5.670690e+01   9.675066e+01
  -7.932631e+01  -3.464406e+01
   2.678957e+00  -2.243719e+00
  -5.848531e+00  -2.350902e+01
  -9.769233e+00  -2.393720e+01
  -5.294671e+01  -2.605913e+01
  -1.753545e+01  -8.559114e+00
   6.949702e+01  -5.071046e+01
   1.858759e+02   2.399716e+00
   1.775442e+02   8.287607e+01
   9.363376e+00   6.788001e+01
  -1.375341e+02   1.248875e+02
  -1.745761e+02  -1.126884e+01
  -7.291729e+01  -1.127647e+02
   9.184191e+01  -7.568781e+00
   4.149074e+01  -1.343715e+01
   3.538142e-01   7.477832e+01
  -9.913793e-01   5.754065e+01
  -3.123904e+01  -1.499463e+01
  -5.731598e+01  -2.358085e+01
  -5.522034e+01  -3.384214e+01
  -4.969180e+00   2.611835e+01
  -3.201593e+01  -2.098362e+00
  -4.083448e+01  -9.157088e+01
   4.630269e+00  -1.736783e+02
   1.021786e+02  -1.277304e+02
   1.658556e+02  -1.902404e+01
   1.761161e+02   8.443877e+01
  -1.201843e+01   1.455792e+02
  -7.036565e+01   6.171661e+01
  -7.930573e+01   1.369532e+01
   5.481421e+01   2.198129e+01
   1.279702e+02   8.846101e+01
   7.298326e+01   6.131545e+01
  -5.910803e+01   7.794302e+01
  -1.547645e+02   8.821521e+01
  -1.718348e+02   5.856144e+00
  -3.408914e+01  -8.787674e+01
   7.963647e+01  -6.510476e+01
   5.353564e+01  -4.623402e+01
  -2.904411e+01  -2.909888e+01
  -9.584349e+01  -2.965881e+01
  -3.537198e+01  -1.002283e+02
   5.839494e+01  -1.684260e+02
   1.721717e+02  -4.877529e+01
   1.509283e+02   8.264528e+01
   5.471800e+01   1.911629e+02
  -5.185920e+01   1.338343e+02
  -9.968995e+01  -1.438293e+01
  -2.682976e+01  -6.973223e+01
   7.086799e+00  -5.616471e+01
   2.087309e+01  -1.470835e+01
   1.195053e+01   4.526650e+01
  -2.461999e+01   7.529861e+00
   1.898351e+00  -3.294109e+01
   2.270043e+01   3.857136e+01
   1.041055e+02   1.020971e+02
   4.452386e+01   9.703093e+01
  -8.710576e+01   5.041043e+01
  -1.302640e+02  -5.751212e+01
  -1.025170e+02  -5.880571e+01
  -5.927550e+00  -3.019173e+01
   1.096259e+02  -1.830114e+01
   9.475197e+01  -1.125564e+01
   3.706404e+01  -3.586054e+01
  -1.820667e+01   6.570208e+01
   2.674031e+01   8.282325e+01
   1.318153e+01   3.842036e+01
  -1.393417e+01   4.226538e+00
  -7.077723e+01  -8.390324e+00
  -8.583681e+01   1.602294e+01
  -4.124664e+01  -9.232148e+01
   7.299312e+01  -1.344730e+02
   1.643172e+02   7.484910e+00
   9.956815e+01   7.543185e+01
   3.921839e+00   1.933566e+02
  -1.182589e+02   1.410812e+02
  -1.920736e+02   9.275369e+01
  -8.879432e+01  -3.717362e+00
  -2.633296e+01   5.966776e+00
  -4.905574e-01  -2.127648e+01
  -9.058057e+00  -6.844829e+00
  -5.646721e+01  -8.463597e+01
   2.359481e+01  -1.015707e+02
   6.874121e+01  -7.427533e+01
   1.132418e+02   2.106065e+01
   7.297852e+01   1.016575e+02
  -7.402451e+00   1.402104e+02
  -1.228033e+02  -3.161193e+01
  -6.547853e+01  -1.024981e+02
  -1.113237e+01  -8.378561e+01
   3.061476e+01  -3.803513e+01
   1.181311e+02   2.649098e+01
   6.342247e+01   8.050406e+01
  -2.604613e+01   6.384214e+01
  -7.927809e+00   4.606950e+01
   4.090672e+01   4.701876e+01
   2.074630e+01   3.425779e+01
  -4.679081e+01  -2.132657e+01
  -1.048937e+02   6.418381e+01
  -1.305060e+02   4.040901e+01
  -9.222185e+01  -7.481177e+01
   1.268133e+01  -1.263167e+02
   7.625687e+01  -1.070414e+02
   5.651780e+01  -3.574962e+01
  -2.606895e+01   4.466306e+01
   7.474435e-01   5.054213e+01
  -4.233282e+01   8.907253e+00
  -2.535050e+01  -2.332179e+01
   2.983720e+01  -5.623647e+01
   3.427493e+01  -3.286936e+01
   5.124173e+01   1.454701e+01
   2.906422e+01  -8.017162e-01
   2.420385e+01  -1.745431e+01
   3.120255e+01   6.501989e+00
   3.557529e+01   7.008171e+01
  -6.665498e+01   1.064913e+02
  -7.271418e+01   2.825281e+01
  -5.641321e+01  -6.391792e+01
  -2.913404e+01  -8.507973e+01
   5.686217e+01  -9.171782e+00
   2.282191e+01   4.844266e+01
   4.096575e+00   8.946092e+01
  -1.044486e+02   5.055233e+01
  -6.770510e+01  -1.992734e+01
  -3.657262e+01  -9.672931e+00
   2.931082e+01  -2.672328e+01
   9.288912e+01  -3.132015e+01
   2.499829e+01   2.646686e+00
  -2.954705e+01   5.900045e+01
  -5.977383e+01  -3.154681e+01
   3.796596e+01  -6.098174e+01
   1.448967e+02  -1.628635e+01
