
 $NMID
 id='ANONYMOUS ', fmtdat='(2E16.6)'
 volume=1.0
 tramp=1.0
 $END
  -2.804828e+03  -1.167995e+02
  -1.813103e+03  -1.701406e+03
   2.654880e+02  -1.956543e+03
   1.279712e+03  -8.865532e+02
   7.843140e+02   4.885397e+01
  -1.505891e+02   2.782709e+02
  -5.394733e+02  -1.408393e+02
  -4.241939e+01  -6.394710e+02
   5.450986e+02  -5.615017e+02
   6.539717e+02   2.735429e+01
   3.406528e+02   5.714334e+02
  -7.192094e+01   6.753595e+02
  -2.838907e+02   1.044534e+02
  -2.015992e+02  -4.147184e+02
   1.538093e+02  -4.988075e+02
   4.252717e+02  -1.775806e+01
   2.426224e+02   4.910223e+02
  -2.123968e+02   5.210555e+02
  -4.075575e+02   2.337619e+02
  -4.622412e+02  -1.847392e+02
  -1.582317e+02  -3.689204e+02
   1.873911e+02  -2.112279e+02
   1.780401e+02  -3.136674e+01
  -1.256419e+02  -1.597231e+01
  -3.077807e+02  -1.447533e+02
  -1.010511e+01  -3.615560e+02
   4.412433e+02  -1.548757e+02
   6.397947e+02   1.367428e+02
   2.936396e+02   3.986962e+02
  -3.656084e+02   2.526840e+02
  -5.618382e+02  -1.059698e+02
  -2.947230e+02  -3.901561e+02
   2.311496e+02  -3.890401e+02
   4.844230e+02  -1.068301e+02
   2.928115e+02   2.106775e+02
   5.714423e+01   3.491506e+02
  -1.312581e+02   1.944300e+02
  -1.762384e+01  -1.383673e+02
   1.696843e+02  -1.464455e+02
   2.120293e+02   7.711201e+01
   2.173715e+01   4.746834e+02
  -2.657853e+02   4.175234e+02
  -3.187554e+02   3.509245e+01
  -1.445723e+02  -3.081536e+02
   8.803851e+01  -1.911407e+02
   2.032347e+02   2.141267e+02
  -1.022905e+02   3.386471e+02
  -3.904386e+02   7.169652e+01
  -4.420813e+02  -3.069848e+02
  -1.662722e+02  -4.956002e+02
   2.714936e+02  -2.862739e+02
   5.149044e+02   5.436043e+01
   3.161928e+02   2.338777e+02
   2.319285e+00   1.782432e+02
  -3.060220e+02   6.819461e+01
  -1.921880e+02  -4.618997e+01
  -4.471785e+00  -2.006796e+01
   3.948174e+01   3.345971e+01
  -9.123296e+01   1.073480e+02
  -2.262981e+02  -6.173707e+01
  -1.513521e+02  -1.848870e+02
   1.206374e+02  -2.526450e+02
   3.200126e+02  -1.401674e+02
   2.099258e+02   9.738601e+01
  -3.384156e+01   2.518681e+02
  -2.332483e+02   3.005152e+02
  -3.648064e+02   1.291976e+02
  -2.755428e+02  -1.240518e+02
  -1.271673e+02  -3.570102e+02
   3.470395e+01  -3.120597e+02
   4.406393e+01  -1.581777e+02
   7.503845e+01  -7.325972e+01
   6.672212e+01  -1.003574e+02
   2.147383e+02  -7.799351e+01
   1.477872e+02   8.229663e+01
   1.193600e+02   2.609138e+02
  -4.401615e+01   2.032754e+02
  -9.925823e+01   2.251992e+01
  -1.219716e+02  -1.745431e+02
   3.926810e+01  -2.236221e+02
   2.028863e+02  -2.158830e+00
   2.751719e+02   1.660456e+02
   1.222762e+02   2.388837e+02
  -3.908302e+01   2.103589e+02
  -1.489066e+02   9.278823e+01
  -1.190580e+02   7.633708e+01
  -1.306425e+02   2.032497e+01
  -2.408483e+02   1.620149e+01
  -3.245827e+02  -1.210363e+02
  -2.568906e+02  -2.756015e+02
   2.204333e+01  -3.968797e+02
   3.634860e+02  -3.370610e+02
   4.229899e+02  -1.716962e+02
   2.727281e+02   1.034677e+02
  -4.332419e+00   2.318526e+02
  -1.018764e+02   2.014187e+02
  -1.550865e+01  -1.201937e+01
   1.403434e+02  -7.337345e+00
   1.312510e+02  -6.764261e+00
   4.964022e+00   1.775038e+02
  -1.254527e+02   1.286253e+02
  -1.013200e+02  -7.254599e+01
   1.847014e+01  -1.462052e+02
   1.057858e+02  -7.903150e+00
   1.488275e+02   1.769762e+02
  -5.489657e+00   3.194136e+02
  -2.357254e+02   1.904318e+02
  -3.187737e+02  -6.197724e+01
  -1.892774e+02  -2.524842e+02
  -1.115486e+02  -2.531848e+02
   1.441805e+02  -1.314026e+02
   1.641746e+02   1.869646e+01
   5.432552e+01   2.406668e+01
  -6.725742e+01  -5.047049e+01
   3.342093e+01  -1.291447e+02
   9.151888e+01  -4.226013e+01
   1.390291e+02  -6.412258e+00
   5.410270e+01   6.270590e+01
  -7.576305e+01  -8.662004e+00
  -2.683199e+01  -4.519437e+01
   1.560103e+02  -1.088133e+02
   2.578807e+02  -4.945298e+00
   2.180449e+02   1.595358e+02
   1.116461e+01   2.701339e+02
  -2.109569e+02   2.401661e+02
  -2.129604e+02   8.484671e+01
  -1.313801e+02  -2.337277e+01
  -1.126542e+01  -8.449374e+01
   6.556362e+01   2.636192e+01
  -8.776202e+01   1.260831e+02
  -2.022435e+02   1.440941e+01
  -2.259219e+02  -1.197357e+02
  -8.580656e+01  -2.405620e+02
   1.326960e+02  -1.171100e+02
   1.429846e+02   3.119591e+01
   4.396382e+01   3.823491e+01
  -4.997213e+01  -2.247098e+01
  -3.393543e+01  -3.677322e+01
   9.269532e+01  -1.082015e+02
   2.260918e+02  -1.138983e+00
   1.909716e+02   9.624216e+01
  -2.611018e-01   1.847026e+02
  -1.788470e+02   1.091045e+02
  -1.414712e+02  -5.538176e+00
  -4.683259e+01  -8.114445e+01
   9.554439e+01  -5.208372e+01
   9.046839e+01  -9.264671e+00
   4.842500e+01   3.556197e+01
  -3.103838e+00  -1.754395e+01
   2.538391e+01  -3.876828e+00
   6.945717e+01  -1.226836e+01
   1.016709e+02   8.795983e+01
   3.321293e+01   1.686495e+02
  -1.531136e+02   1.932164e+02
  -2.262576e+02   1.229410e+01
  -1.533447e+02  -1.740013e+02
  -8.552987e+00  -2.129735e+02
   1.219899e+02  -1.120460e+02
   7.842859e+01  -3.776628e+01
   3.017969e+01   6.140511e+00
  -1.213113e+01  -2.398818e+01
   3.820005e+01  -3.627201e-01
   1.369241e+02  -1.776053e+01
   8.015491e+01   7.830472e+01
   2.515967e+01   1.053171e+02
  -1.163326e+02   1.013249e+02
  -7.289811e+01  -2.834213e+01
  -4.430836e+00  -1.320479e+02
   1.611892e+02  -1.267109e+02
   1.665088e+02   1.446410e+01
   4.554810e+01   2.189243e+02
  -1.130594e+02   1.867035e+02
  -2.879486e+02   6.334122e+01
  -2.289540e+02  -1.654920e+02
  -1.317828e+02  -1.991713e+02
   1.064067e+01  -1.437338e+02
   7.389118e+01  -6.829563e+01
   5.429065e+01  -7.773689e+01
   8.196225e+01  -9.634839e+01
   4.961932e+01  -8.975276e+01
   8.624177e+01  -2.437956e+01
   1.451613e+02   1.767589e+02
  -8.229963e+00   1.671353e+02
  -8.858219e+01   1.333216e+02
  -1.935022e+02   6.394906e+00
  -9.579563e+01  -1.085359e+02
   3.348765e+01  -1.621068e+02
   1.179616e+02  -8.114533e+01
   4.115919e+01   1.102025e+01
  -1.747032e+01   7.510196e+01
  -8.859511e+00   5.757748e+01
   5.633633e+00   2.491905e+01
   8.586229e+01   2.923546e+00
   1.993109e+01   2.815521e+01
  -7.581710e+01   3.311345e+01
  -1.313929e+02   4.506755e+01
  -1.368721e+02  -6.230117e+01
   9.667353e-01  -9.345370e+01
   6.531472e+01  -7.439700e+01
   1.118251e+02  -3.333067e+00
   6.388925e+01   8.340826e+01
   1.232991e+01   6.222325e+01
  -1.222643e+01  -1.071038e+01
   1.721765e+00  -4.913175e+01
   2.485942e+01  -2.376070e+01
   6.902426e+01   3.582422e+00
   2.623272e+01   2.750240e+01
   3.575574e+01   1.284338e+00
   5.262622e+01  -4.749437e+01
   5.224568e+01   1.423141e+00
   7.891657e+01   7.281916e+01
  -2.098615e+01   1.104764e+02
  -9.972396e+01   1.243951e+02
  -1.447920e+02   7.248990e+01
  -6.748496e+01  -4.537429e+01
   1.738263e+01  -7.373712e+01
   7.899862e+01  -5.579172e+01
   4.787349e+01   1.398303e+01
  -9.315853e+01   5.761806e+00
  -1.355294e+02  -4.192645e+01
  -4.706654e+01  -9.375527e+01
   1.104285e+02  -1.146370e+02
   1.786147e+02  -4.968656e+01
   1.181973e+02  -1.138356e+01
   2.390535e+01   6.735835e+01
  -7.133019e+01   6.630549e+01
  -3.796095e+01  -3.848225e+01
   4.624064e+01  -3.440037e+01
   8.580135e+01   4.110842e+00
   2.826636e+01   1.262990e+02
  -5.735813e+01   1.293808e+02
  -1.328879e+02   5.077772e+01
  -9.852041e+01  -1.218311e+02
   7.831877e+00  -1.767473e+02
   8.121546e+01  -8.833781e+01
   1.263370e+02   4.082088e+01
   6.670345e+01   1.114413e+02
  -1.308984e+01   1.143607e+02
  -3.024763e+01   1.818810e+01
  -1.807883e+01   1.236042e+01
  -8.627609e+00   4.018819e+00
  -5.325183e+01   3.217733e+01
  -2.513275e+01  -5.236075e+01
  -1.001899e+02  -5.230424e+01
  -1.331457e+01  -9.834399e+01
   5.811885e+01  -6.006591e+01
   1.781340e+02  -1.442757e+00
   9.895109e+01   3.140861e+01
   7.998253e+00   4.159051e+01
  -5.145581e+01   5.790059e+01
  -5.458253e+01   2.797470e+01
  -3.931549e+01   7.253376e+00
   3.850835e+01  -1.619673e+01
   3.682294e+01   1.460658e+01
  -7.345358e+00   2.560437e+01
   1.148230e+01  -1.108815e+00
   9.220083e+01   2.906844e+01
   6.698364e+01   3.411899e+01
   2.383937e+01   1.226451e+02
  -8.733885e+01   1.507758e+02
  -1.156648e+02   4.169415e+01
  -1.359422e+02  -2.952344e+01
  -4.408560e+01  -1.610495e+02
   7.515177e+01  -1.075119e+02
   1.261620e+02  -7.503594e+01
   1.179675e+02   7.053127e+01
   3.365989e+01   7.740415e+01
  -3.426847e+01   2.300352e+01
  -1.601129e+01  -7.612052e+00
   1.991828e+01   7.171475e+01
   3.502858e+01   8.681836e+01
  -1.922421e+01   2.064286e+01
  -7.684730e+01   2.421364e+01
  -1.042173e+02  -7.507261e+01
  -1.606470e+01  -8.390598e+01
   5.494247e+01  -4.032134e+01
   1.232025e+02   1.586831e+01
   8.068300e+00   9.276663e+01
  -5.233066e+01   9.699596e+01
  -9.594340e+01  -8.424933e+00
  -2.895060e+01  -4.558857e+01
   2.400857e+01  -3.998262e+01
   7.942548e+01  -6.571451e+01
  -3.210724e+01   1.314338e+01
  -5.060198e+01   2.222152e+01
  -1.173340e+01  -6.102912e+00
   4.905309e+01  -1.484917e+01
   1.052628e+02  -4.866842e+01
   5.646946e+01  -2.111705e+01
   1.294503e+01   1.031122e+02
  -4.536783e+01   7.562246e+01
  -6.333767e+01   5.217954e+01
  -1.903129e+01   3.489308e+01
   3.520372e+01  -4.295066e+01
   4.958765e+01   1.820584e+01
   4.362632e+01   8.184468e+01
  -3.316307e+01   2.939151e+01
  -7.274448e+01   1.006751e+01
  -4.678199e+01  -4.015727e+01
  -8.033208e+00  -5.589274e+00
   5.212606e+01  -1.435071e+01
   5.625027e+01   3.442218e-01
   4.279391e+01  -2.744264e+01
  -1.517984e+01  -4.753854e+00
  -7.809010e-01   2.643094e+00
  -1.339613e+00   3.592503e+01
   3.906936e+01   5.677076e+01
  -2.208299e+01   3.544637e+01
  -9.314818e+01  -1.431716e+01
  -3.971333e+01  -3.169501e+00
   5.862049e+01  -5.068833e+01
   3.601403e+01   3.430800e+01
   1.696656e+01   6.831909e+01
  -5.364664e+01   5.776094e+01
  -1.075397e+02   3.632769e+01
  -2.713495e+00   2.196735e+01
   3.426032e+01  -2.056867e+01
   9.661006e+00   4.370454e+01
  -2.407381e+01   4.523342e+01
  -1.198095e+02  -3.758034e-01
