
 $NMID
 id='ANONYMOUS ', fmtdat='(2E16.6)'
 volume=1.0
 tramp=1.0
 $END
  -3.501912e+03   2.309469e+02
  -2.318414e+03  -1.821589e+03
   4.941027e+02  -2.300166e+03
   1.709274e+03  -1.129413e+03
   8.568295e+02   2.524382e+02
  -2.338820e+02   5.003023e+02
  -5.797079e+02  -1.818901e+02
  -4.977961e+00  -6.490527e+02
   6.371282e+02  -6.779091e+02
   8.823270e+02  -1.075549e+01
   4.410312e+02   7.220029e+02
  -1.035393e+02   8.530299e+02
  -4.063789e+02   1.972773e+02
  -2.614673e+02  -5.448011e+02
   2.732013e+02  -5.763768e+02
   5.428895e+02  -3.068222e+01
   3.016544e+02   5.830011e+02
  -2.860292e+02   7.194447e+02
  -5.212756e+02   2.241182e+02
  -4.211954e+02  -2.288798e+02
  -6.961396e+01  -3.501793e+02
   1.919706e+02  -2.115233e+02
   1.100163e+02   7.520797e+00
  -1.456809e+02  -2.566590e+01
  -2.888736e+02  -2.488326e+02
  -7.449101e+01  -3.812748e+02
   4.250768e+02  -2.485115e+02
   6.072724e+02   1.388918e+02
   2.976815e+02   4.242199e+02
  -3.820908e+02   2.754454e+02
  -6.586012e+02  -1.594933e+02
  -2.641790e+02  -4.636851e+02
   2.934223e+02  -4.514538e+02
   5.131404e+02  -9.767484e+01
   3.068280e+02   2.252039e+02
   4.808635e+01   4.354301e+02
  -1.086317e+02   2.357576e+02
  -2.886680e+01  -1.458983e+02
   2.013198e+02  -2.559331e+02
   2.907008e+02   4.402775e+01
   6.220160e+01   5.320955e+02
  -2.661207e+02   5.203357e+02
  -3.351150e+02  -3.992966e+01
  -1.258698e+02  -4.004455e+02
   1.980905e+02  -2.232922e+02
   2.057034e+02   2.930302e+02
  -8.113973e+01   4.488373e+02
  -5.351393e+02   1.084919e+02
  -5.177362e+02  -4.280462e+02
  -1.788412e+02  -5.342095e+02
   3.060820e+02  -3.142918e+02
   5.798417e+02   4.952885e+01
   3.080401e+02   2.852923e+02
  -1.286781e+02   2.636313e+02
  -3.669718e+02   5.563686e+01
  -1.960774e+02  -1.460455e+02
   8.381000e+01  -8.024905e+01
   1.529559e+02   1.084733e+02
  -5.989160e+01   1.168372e+02
  -2.264141e+02  -6.128471e+01
  -1.202325e+02  -2.706847e+02
   1.875494e+02  -2.215412e+02
   3.283791e+02  -8.444695e+01
   2.566135e+02   8.287905e+01
  -1.784869e-01   2.742935e+02
  -3.212164e+02   3.310057e+02
  -3.405509e+02   1.994421e+02
  -2.600729e+02  -9.831563e+01
  -1.118412e+02  -3.690565e+02
   5.240086e+01  -3.393619e+02
   3.811272e+01  -1.609389e+02
   4.364659e+01  -4.323186e+01
   1.233281e+02  -6.662202e+01
   2.257916e+02  -1.060033e+02
   1.993928e+02   3.554290e+01
   1.216923e+02   2.554163e+02
   1.948485e+01   1.899146e+02
  -8.770396e+01   3.459290e+01
  -9.910867e+01  -2.240005e+02
   5.706462e+01  -2.548161e+02
   2.333466e+02  -1.013496e+02
   3.299836e+02   1.760544e+02
   2.118503e+02   3.333970e+02
  -6.730485e+01   2.851880e+02
  -2.559380e+02   1.410165e+02
  -2.223035e+02   1.958047e+01
  -1.600069e+02   5.606844e+01
  -2.186370e+02  -1.050014e+01
  -3.540084e+02  -1.476382e+02
  -3.421239e+02  -3.095189e+02
   3.935339e+00  -4.024420e+02
   4.115727e+02  -3.594115e+02
   5.079787e+02  -1.994154e+02
   2.764497e+02   1.521331e+02
   5.369550e+01   2.892921e+02
  -9.760080e+01   2.074389e+02
  -1.068568e+00   2.247605e+01
   9.806011e+01  -7.657603e+01
   1.230018e+02   6.853739e+01
  -3.911980e+01   1.682909e+02
  -1.123524e+02   8.910991e+01
  -1.328706e+02  -7.262217e+01
   7.007507e+01  -1.731749e+02
   2.599083e+02  -2.964267e+01
   1.676192e+02   2.315096e+02
  -3.411659e+01   3.653647e+02
  -2.170462e+02   1.893841e+02
  -3.130041e+02  -6.893799e+01
  -2.459143e+02  -3.133329e+02
  -5.178687e+01  -2.411284e+02
   9.792783e+01  -1.267007e+02
   1.683439e+02  -4.565296e+00
   3.833824e+01   8.096311e+00
  -1.190985e+02  -3.981649e+01
  -3.248045e+00  -1.351677e+02
   1.454290e+02  -2.788657e+01
   1.451332e+02   3.165196e+01
   2.020038e+01   5.251157e+01
  -9.456463e+01   2.322325e+01
  -6.246606e+01  -1.121052e+02
   1.281872e+02  -1.255399e+02
   2.740644e+02  -3.041075e+01
   2.557732e+02   1.821760e+02
   4.783830e+01   2.484374e+02
  -2.085623e+02   2.709965e+02
  -2.719390e+02   9.789461e+01
  -1.523229e+02  -7.255690e+01
   9.029668e+00  -1.001063e+02
   8.342538e+01   2.357435e+01
  -5.036116e+01   6.217845e+01
  -1.963597e+02   2.062299e+01
  -1.960811e+02  -1.334479e+02
  -5.216330e+01  -1.776160e+02
   1.040457e+02  -1.729042e+02
   1.596361e+02  -2.329603e+00
   7.737344e+01   8.318062e+01
  -9.498339e+01   1.501180e+00
  -2.136728e+01  -9.229326e+01
   5.901945e+01  -1.108269e+02
   2.556995e+02  -6.224126e+01
   2.109407e+02   1.159604e+02
   1.729664e+01   2.669575e+02
  -1.773171e+02   1.772160e+02
  -1.743460e+02  -3.684597e+00
  -5.721525e+01  -1.439014e+02
   3.865589e+01  -1.534709e+02
   6.292293e+01  -3.835385e+01
  -3.295389e+01   5.480109e+01
  -2.915619e+01  -2.863927e+01
  -1.701645e+01  -3.577897e+01
   4.797783e+01  -2.597468e+01
   1.209740e+02   1.035188e+02
  -8.265956e+00   1.508167e+02
  -1.085712e+02   1.557435e+02
  -1.941395e+02   1.042238e+01
  -1.841791e+02  -1.787262e+02
  -2.356682e+01  -2.404013e+02
   9.899491e+01  -1.378461e+02
   1.123415e+02   2.860490e+00
   6.548254e+01   3.707755e+01
  -8.781985e+00   1.076719e+01
   5.867143e+01   3.487085e+01
   1.009702e+02  -1.932949e+01
   2.550951e+01   8.144027e+01
  -6.194513e+01   9.122276e+01
  -1.057990e+02   8.909587e+01
  -9.655017e+01  -4.867146e+01
   3.193510e+01  -1.364994e+02
   1.779589e+02  -1.006349e+02
   1.961884e+02   3.723451e+01
   1.102246e+02   1.617228e+02
  -1.359065e+02   2.433769e+02
  -2.891611e+02   1.152942e+02
  -2.774081e+02  -1.230063e+02
  -1.135412e+02  -2.345313e+02
   6.098314e+01  -1.803708e+02
   7.919267e+01  -6.715820e+01
   1.046838e+02  -4.183200e+01
   6.652799e+01  -1.976446e+01
   5.334383e+01  -4.538633e+01
   1.704909e+02   6.716418e+01
   9.625732e+01   1.222740e+02
  -1.124741e+00   1.912154e+02
  -1.059837e+02   1.693931e+02
  -1.310334e+02   5.067392e+01
  -1.010453e+02  -1.160454e+02
  -2.327099e+01  -1.653267e+02
   5.158678e+01  -8.629631e+01
   4.326299e+01   4.665768e+01
  -2.581248e+01   6.952806e+01
  -2.438831e+01   1.870553e+01
   5.292492e+01  -5.240843e+01
   8.579163e+01  -4.929210e+01
   7.360511e+01  -4.722134e-01
  -7.864146e+01   5.459659e+01
  -2.259799e+02   3.931739e+01
  -1.476854e+02  -5.957687e+01
   1.517186e+01  -7.671488e+01
   1.566319e+02  -4.310101e+01
   2.108384e+02   1.011959e+01
   5.852407e+01   6.233987e+01
  -1.222105e+02   5.963396e+01
  -1.315323e+02  -8.676282e+00
  -2.714502e+01  -6.948529e+01
   6.797047e+01  -5.497072e+01
   1.112034e+02   3.146561e+01
   5.070805e+01   7.002947e+01
   2.535515e+01   6.632190e+01
   4.127943e+01   1.035828e+01
   3.078241e+01  -6.929548e+01
   4.210303e+01   1.115966e+01
  -1.565782e+01   1.802385e+02
  -6.540149e+01   1.328132e+02
  -1.529882e+02   4.276159e+01
  -1.705757e+02  -8.720545e+01
  -4.440956e+00  -1.377230e+02
   8.921846e+01  -7.390228e+01
   3.338606e+01  -2.390307e+01
  -4.285565e+00   4.652195e+01
  -1.539472e+02  -1.048112e+01
  -1.167120e+02  -1.305607e+02
   9.130785e+01  -1.269218e+02
   1.976718e+02  -6.383279e+01
   2.004677e+02   8.849855e+01
   1.510782e+01   9.965476e+01
  -4.152081e+01   9.194099e+01
  -3.499977e+01  -5.847358e+00
   5.485064e+01  -4.362991e+01
   7.119330e+01   2.905498e+01
   1.904676e+01   1.582118e+02
  -8.321547e+01   1.677362e+02
  -1.953303e+02   4.174621e+01
  -9.454408e+01  -1.133828e+02
  -1.115043e+00  -2.125847e+02
   8.251922e+01  -1.108115e+02
   1.513021e+02  -4.375404e+00
   2.782574e+01   1.225787e+02
  -4.975138e+01   9.140570e+01
  -5.394845e+01  -1.796702e+01
  -6.416356e+01  -7.664835e+01
   9.264270e+00  -6.977818e+01
  -1.712547e+00   1.009518e+01
   8.463421e+00   4.030968e+00
  -3.360096e+01  -3.983840e+01
  -4.563150e+01  -8.031520e+01
   2.862227e+01  -2.025310e+01
   9.957015e+01   9.190133e+01
   1.353814e+02   8.868433e+01
  -1.801929e+01   9.146381e+01
  -1.152003e+02  -1.589634e+01
  -9.200151e+01  -9.199302e+00
  -1.241081e+01  -5.347014e+01
   9.229301e+01  -4.542981e+01
  -3.115268e+01   2.928613e+01
  -2.518525e+01  -2.117525e+00
   4.213994e+00  -5.071647e+00
   4.450360e+01  -9.926443e+00
   1.135228e+02  -8.212702e+00
   9.887296e+00   9.746952e+01
  -1.506490e+02   1.421280e+02
  -2.144521e+02   8.265820e+01
  -1.519589e+02  -1.435622e+00
  -3.161594e+01  -1.521462e+02
   1.190223e+02  -1.589350e+02
   1.153953e+02  -1.317725e+02
   7.779807e+01   1.464530e+01
   2.827544e+01   5.676920e+01
  -2.437120e+01   2.773247e+01
   2.303800e+01   1.942485e+01
   8.625829e+00   1.750050e+01
   3.200282e+01   1.127413e+02
  -1.294575e+01   7.065771e+01
  -5.535692e+01  -1.883681e+01
  -1.133019e+02  -8.695818e+01
  -4.187208e+01  -1.187855e+02
   1.035816e+02  -1.183993e+00
   1.151870e+02   3.854312e+01
   7.048818e+01   1.144858e+02
  -7.604097e+01   4.664128e+01
  -1.379740e+02  -1.426132e+01
  -6.062940e+01  -7.711015e+01
   6.783511e+01  -8.362171e+01
   5.113894e+01  -2.243506e+01
  -1.573409e+01   2.838598e+01
  -7.040649e+01   3.033120e+00
  -3.226172e+01   1.761555e+01
   1.175052e+02  -2.850105e+01
   1.601566e+02  -1.057979e+02
   5.311787e+01   4.218509e+01
  -1.053710e+01   1.182020e+02
  -1.114527e+02   5.330608e+01
  -2.599799e+01  -3.125755e+01
   4.798924e+01  -3.391884e+01
   7.985235e+00  -5.462557e+01
   5.331616e+01   1.198954e+01
   7.238795e+00   2.241791e+01
  -2.051538e+01  -1.526453e+01
  -2.632927e+01  -1.678225e+01
  -3.651503e+01  -3.603060e+01
   2.330278e+00   2.733628e+01
  -2.632408e+01  -7.504014e+00
   8.562199e+00   1.338628e+01
  -9.671479e+00  -8.787287e+00
  -3.700904e+01  -8.001326e+01
   1.828552e+01  -2.149145e+01
   1.003160e+01   1.752568e+01
   1.146469e+01   5.150022e+01
  -1.115736e+01   1.776477e+01
  -5.620727e+01  -5.315716e+01
  -5.547554e+01  -2.934931e+01
   4.348348e+01  -4.999309e+01
   8.946713e+01   8.667649e+00
   5.420843e+01   2.262676e+01
  -1.066615e-01   6.003717e+00
  -6.009627e+01   3.163134e+01
  -5.374540e+01  -4.963744e+00
   1.681067e+01  -3.730287e+01
   6.072773e+01   3.602894e+01
  -1.329046e+01   6.744408e+00
  -6.300397e+01   2.693279e+01
