
 $NMID
 id='ANONYMOUS ', fmtdat='(2E16.6)'
 volume=1.0
 tramp=1.0
 $END
   3.738127e+03  -1.012963e+02
   2.279632e+03   1.917447e+03
  -4.630538e+02   2.371887e+03
  -1.673213e+03   1.124927e+03
  -8.729936e+02  -1.760739e+02
   1.372085e+02  -3.985877e+02
   5.088957e+02   1.533858e+02
  -3.020738e+01   7.864396e+02
  -6.674548e+02   6.623295e+02
  -8.018210e+02   1.181724e+02
  -4.911015e+02  -6.358314e+02
   6.868941e+01  -7.794410e+02
   4.407089e+02  -1.406645e+02
   1.981894e+02   5.483506e+02
  -1.464019e+02   5.704905e+02
  -5.244142e+02  -2.221054e+01
  -2.938754e+02  -5.673847e+02
   2.402453e+02  -7.098331e+02
   4.956044e+02  -1.890070e+02
   4.457889e+02   2.654235e+02
   1.169971e+02   3.514593e+02
  -1.702585e+02   2.679027e+02
  -1.214720e+02   2.571504e+01
   8.256477e+01  -1.706337e+01
   3.725911e+02   1.738632e+02
   1.884711e+02   4.350877e+02
  -4.310579e+02   2.699761e+02
  -7.421846e+02  -2.111278e+02
  -2.748640e+02  -5.094119e+02
   3.204649e+02  -3.320895e+02
   6.804490e+02   1.798423e+02
   2.060130e+02   3.937899e+02
  -3.067745e+02   4.317097e+02
  -4.486514e+02   1.703692e+02
  -3.428687e+02  -1.685589e+02
  -4.253209e+01  -3.319490e+02
   1.212345e+02  -1.371289e+02
  -6.309546e+00   2.077974e+02
  -2.355210e+02   3.594220e+02
  -3.747885e+02  -1.064053e+02
  -8.432994e+01  -5.608176e+02
   2.812208e+02  -5.485068e+02
   4.302549e+02   3.113899e+01
   1.572576e+02   4.261491e+02
  -1.270340e+02   2.466737e+02
  -2.830499e+02  -3.120965e+02
   8.822645e+01  -4.765502e+02
   5.277465e+02  -1.154203e+02
   5.038875e+02   3.872691e+02
   1.215829e+02   5.772284e+02
  -3.422774e+02   3.168329e+02
  -6.651176e+02  -1.452434e+02
  -3.943511e+02  -3.977174e+02
   1.394101e+02  -3.509891e+02
   3.747050e+02  -9.303726e+01
   2.372248e+02   9.986946e+01
   2.306515e+01   4.718763e+01
  -1.285508e+02  -7.361154e+00
   1.082476e+02  -6.495673e+01
   2.945401e+02   7.818165e+01
   1.616029e+02   2.187485e+02
  -2.212343e+02   3.119946e+02
  -3.395223e+02   1.246404e+02
  -2.458545e+02  -8.706854e+01
   2.344081e+01  -3.146113e+02
   3.192828e+02  -4.368913e+02
   3.662378e+02  -1.786368e+02
   2.340185e+02   1.964665e+02
   7.783803e+01   3.543269e+02
  -1.055868e+02   3.197201e+02
  -9.452065e+01   1.544503e+02
  -4.878632e+01   1.012387e+02
  -1.325564e+02   1.109384e+02
  -2.431246e+02   8.014113e+01
  -2.175263e+02  -1.072966e+02
  -1.247543e+02  -2.519760e+02
   1.301239e+02  -2.405610e+02
   2.437528e+02   1.995716e+01
   1.351871e+02   2.536854e+02
  -4.931449e+01   3.006243e+02
  -2.348786e+02   7.820756e+01
  -3.458394e+02  -1.952882e+02
  -1.778723e+02  -3.170705e+02
   4.285353e+01  -2.920661e+02
   1.500825e+02  -1.197217e+02
   1.714946e+02  -4.433957e+01
   1.842024e+02  -1.083312e+02
   3.143210e+02  -6.939485e+01
   4.208591e+02   1.237858e+02
   2.880425e+02   2.789900e+02
  -4.697724e+01   4.515004e+02
  -3.722381e+02   3.906275e+02
  -4.595489e+02   2.052829e+02
  -2.951486e+02  -1.098147e+02
  -4.086375e+01  -2.594228e+02
   1.216009e+02  -1.868001e+02
   5.740156e+01  -2.253134e+01
  -1.544280e+02   8.354036e+01
  -1.748859e+02  -5.329060e+01
  -7.672107e+00  -2.363427e+02
   1.768989e+02  -1.208071e+02
   1.557324e+02   2.530815e+01
  -1.681578e+01   1.450938e+02
  -1.381164e+02   3.703913e+01
  -1.735894e+02  -2.062719e+02
  -8.001498e+00  -3.557428e+02
   2.081910e+02  -2.072718e+02
   3.670878e+02   7.321126e+01
   2.769873e+02   3.052079e+02
   9.421338e+01   2.779709e+02
  -1.181352e+02   2.177026e+02
  -1.883603e+02   7.074772e+00
  -7.534618e+01  -5.231789e+01
   7.119715e+01   1.826227e+01
   1.924026e+01   1.615649e+02
  -1.303751e+02   1.106292e+02
  -1.590474e+02  -4.094780e+01
  -3.770215e+01  -7.896064e+01
   4.746762e+01   8.799280e+00
   1.503626e+01   5.268780e+01
  -1.584619e+02   5.587975e+01
  -2.756402e+02  -5.596534e+01
  -2.066071e+02  -1.710306e+02
  -1.956444e+01  -2.123711e+02
   2.300064e+02  -2.333333e+02
   3.056604e+02  -5.701856e+01
   1.318647e+02   6.815093e+01
  -4.487181e+01   1.077179e+02
  -9.562859e+01  -3.185207e+01
  -8.221163e+00  -8.475065e+01
   1.681084e+02  -6.137597e+01
   2.256525e+02   1.567994e+02
   7.252760e+01   2.071966e+02
  -1.234296e+02   1.086776e+02
  -1.243165e+02  -9.588256e-01
  -7.688347e+01  -8.724887e+01
   6.206857e+01  -3.079758e+00
   5.799009e+01   9.388783e+01
  -9.294084e+01   1.551405e+02
  -2.148907e+02   5.341066e+00
  -1.789637e+02  -1.588353e+02
  -6.434439e+00  -2.368323e+02
   1.930925e+02  -1.438963e+02
   1.820541e+02   1.414956e+01
   6.882630e+01   1.189893e+02
  -1.106974e+02   1.321449e+02
  -9.116420e+01   3.984345e+01
   8.792409e+00  -5.819393e+00
   6.574369e+00  -2.891296e+01
   6.728990e+00  -6.838317e+01
  -3.060372e+01  -4.392061e+00
  -1.188666e+02  -9.410315e+01
   6.561156e+00  -1.875039e+02
   1.359414e+02  -1.685282e+02
   2.229546e+02  -3.781237e+00
   1.928167e+02   2.072680e+02
   3.924042e+01   2.430701e+02
  -1.093987e+02   1.078615e+02
  -1.216142e+02   1.049510e+01
  -8.554059e+01  -4.493871e+01
  -3.052498e+01  -4.642814e+01
  -3.976579e+01  -4.712481e+00
  -5.726876e+01   5.420632e+01
  -7.067448e+01  -6.885697e+01
   8.290695e+00  -1.151229e+02
   1.144455e+02  -5.343510e+01
   1.270990e+02   2.371343e+01
   2.367520e+01   1.251147e+02
  -1.761566e+02   8.319103e+01
  -1.826090e+02  -7.265908e+01
  -7.614434e+01  -2.677233e+02
   1.483277e+02  -2.503646e+02
   3.279478e+02  -6.357948e+01
   2.444185e+02   1.232382e+02
   4.487870e+01   1.961427e+02
  -9.863373e+01   5.757663e+01
  -1.168155e+02   4.036482e+01
  -6.964152e+01   3.628946e+01
  -5.613213e+01   6.653708e+01
  -8.980483e+01   5.482452e+01
  -1.144584e+02  -4.037498e+01
  -1.223496e+02  -1.674888e+02
   3.472818e+01  -2.419554e+02
   1.077371e+02  -1.927037e+02
   1.884222e+02   3.553772e+00
   1.288026e+02   1.680084e+02
   1.400844e+01   1.956734e+02
  -8.604113e+01   1.088079e+02
  -8.322090e+01  -2.896310e+01
   1.187024e+01  -1.822041e+01
   6.444103e+01  -1.381781e+01
  -3.874760e+01   7.922314e+00
  -1.545675e+02  -2.857899e+01
  -1.345167e+02  -3.661862e+01
   7.242694e+01  -5.589456e+01
   1.568813e+02  -8.142196e+00
   1.689718e+02   4.933040e+01
   3.215163e+01   6.862783e+01
  -1.005782e+02   4.120740e+01
  -1.566156e+02  -2.834700e+01
  -5.626238e+01  -4.274743e+01
   1.113012e+02  -2.380062e+01
   7.650306e+01   1.153847e+01
  -1.732357e+00   6.451312e+01
  -5.877548e+01   4.880522e+01
  -6.568869e+01  -4.540129e+01
  -3.435165e+01  -7.773328e+01
  -5.937511e+01  -7.850569e+00
  -7.379451e+01   2.572575e+01
  -7.055910e+01   2.534002e+01
  -1.386297e+01  -3.886042e+01
   2.378777e+01  -1.740645e+02
   1.552796e+02  -1.703804e+02
   1.638271e+02  -3.059175e+01
   1.593334e+02   1.240098e+02
  -7.602037e+00   1.277873e+02
  -1.510936e+02   8.566194e+01
  -6.966690e+01  -2.433028e+01
   6.560314e+01  -1.345771e+01
   1.116710e+02   5.809334e+01
   6.694286e+01   8.416213e+01
  -9.826720e+01   1.260933e+02
  -1.831615e+02   4.292304e+01
  -1.902796e+02  -8.081510e+01
  -5.004652e+01  -9.630280e+01
   5.746220e+01  -6.536349e+01
   9.791115e+01  -9.666294e+01
  -4.277746e+01   3.502370e+01
  -9.486993e+01  -3.420376e+01
  -1.399161e+01  -4.807220e+01
   9.192461e+01  -1.122494e+02
   1.743738e+02  -2.216588e+01
   1.041827e+02   8.349594e+01
   1.235071e+01   2.074561e+02
  -1.009776e+02   1.326639e+02
  -1.003899e+02  -1.464391e+01
  -1.766468e+01  -1.437056e+02
   5.250003e+01  -1.099640e+02
   8.821250e+01   4.169779e+00
   8.119681e+01   8.182596e+01
   2.810220e+01  -4.115249e+01
  -1.435437e+01  -3.730934e+01
   8.362425e+01   3.349129e-02
   2.751690e+01   9.590742e+01
   4.389068e+01   1.008443e+02
  -2.476488e+01   4.864739e+01
  -1.610407e+02   1.521388e+01
  -2.027968e+02  -1.007010e+02
  -3.547313e+01  -8.168049e+01
   8.284053e+01  -7.338514e+01
   1.164652e+02  -3.530100e+01
   2.139701e+01   1.920522e+01
  -1.857269e+01   4.679370e+01
  -2.621057e+00  -2.641939e+00
  -1.217610e+01  -4.461479e+00
  -7.109853e+01  -8.720742e+00
  -5.875510e+01  -2.276490e+01
  -5.783667e+01  -9.795510e+00
   2.122483e+00  -9.692138e+01
   1.291689e+02  -1.573984e+02
   2.109622e+02  -3.737900e+01
   2.031189e+02   8.746101e+01
   6.059697e+01   1.663698e+02
  -6.842237e+01   1.296013e+02
  -1.115495e+02   3.941568e+01
  -6.959183e+01   1.405831e+00
  -8.123629e+01  -2.686761e+01
   3.419484e+01  -2.887604e+01
   3.441084e+01   1.800621e+01
  -1.317754e+01  -4.523019e+01
  -6.701523e+01  -7.952567e+01
  -3.267131e+01  -1.420819e+02
   2.565343e+01   3.767006e+01
   1.045028e+02   7.641024e+01
   9.084147e+00   1.444281e+02
  -9.565674e+01  -2.664762e+01
  -1.461004e+02  -1.107761e+02
  -5.264282e+01  -1.643013e+02
   5.615522e+01  -8.588867e+01
   9.120345e+01  -2.166508e+00
   1.299169e+01   3.593658e+01
  -5.204245e+01   3.763009e+01
  -1.941981e+01   3.807753e+01
   4.981550e+01  -1.007399e+01
   7.486887e+01   8.747251e+00
   2.042879e+01   2.504144e+01
  -8.433836e+01   1.074527e+02
  -9.288623e+01   5.727325e+01
  -5.195587e+01   1.234876e+01
  -5.963651e+00  -6.692468e+01
   7.824093e+01  -1.038813e+02
   4.578012e+01  -7.220481e+00
   3.115304e+01   4.577725e+01
  -3.768711e+01   5.427656e+01
  -3.268813e+01  -2.277007e+01
  -1.772632e+01  -6.865911e+01
  -2.698394e+01  -4.944936e+01
   5.130795e+01  -1.548824e+00
   2.554495e+01   2.421348e+01
   4.333281e+01  -7.196299e-01
   2.969114e+01  -1.163018e+01
  -1.341294e+00   3.501612e+01
  -3.188648e+01   8.116336e+01
  -3.081533e+00   9.058548e+01
  -2.749631e+01   4.537995e+01
   8.195663e+00  -3.279900e+01
  -4.674969e+01  -6.710765e+01
   4.055618e+01  -6.478351e+01
   5.261895e+01   4.961409e+01
   1.237983e+01   1.018931e+02
  -2.663242e+01   5.316534e+01
  -5.518992e+01  -1.646630e+01
  -2.137226e+01  -2.029002e+01
   3.241567e+01  -4.466205e+01
   7.542531e+01  -4.976221e+01
  -1.467322e+00  -3.375602e+01
  -4.667709e+01   1.827913e+00
  -9.221971e+01  -2.443916e+01
   2.652496e+01  -7.022261e+01
   7.227237e+01  -4.276584e+01
