
 $NMID
 id='ANONYMOUS ', fmtdat='(2E16.6)'
 volume=1.0
 tramp=1.0
 $END
  -3.345274e+03  -9.476105e+01
  -2.145353e+03  -1.786638e+03
   4.008647e+02  -2.053735e+03
   1.396093e+03  -1.173954e+03
   9.396655e+02  -4.051649e+01
  -2.868121e+02   2.725698e+02
  -4.689844e+02  -3.276063e+02
  -7.051782e+01  -6.560756e+02
   4.675299e+02  -6.131291e+02
   6.720275e+02  -9.044496e+01
   4.559259e+02   6.261527e+02
  -4.772883e+01   7.931028e+02
  -4.199106e+02   1.284788e+02
  -2.740024e+02  -5.182011e+02
   1.274766e+02  -6.528612e+02
   4.324675e+02   7.448746e+00
   2.509665e+02   5.751330e+02
  -1.761527e+02   6.204610e+02
  -5.063138e+02   1.407003e+02
  -4.638335e+02  -2.521978e+02
  -7.751858e+01  -3.768094e+02
   2.138915e+02  -2.277657e+02
   8.659970e+01  -2.101750e+01
  -1.971616e+02   9.941728e-01
  -4.331851e+02  -1.172829e+02
  -1.106702e+02  -3.663816e+02
   4.136930e+02  -2.149563e+02
   6.347122e+02   1.038470e+02
   2.534310e+02   3.762071e+02
  -3.536886e+02   3.138583e+02
  -5.985673e+02  -5.997473e+01
  -2.769987e+02  -4.162421e+02
   2.908004e+02  -3.684091e+02
   5.352238e+02  -1.292110e+02
   3.685629e+02   1.510909e+02
   3.318439e+01   3.702444e+02
  -1.592030e+02   2.630863e+02
  -4.317933e+01  -1.653347e+02
   2.256814e+02  -2.318619e+02
   3.097271e+02   1.253537e+02
   1.267821e+02   5.654583e+02
  -3.419079e+02   4.960123e+02
  -4.514958e+02  -9.192055e+00
  -1.431499e+02  -4.630014e+02
   2.323705e+02  -1.821861e+02
   2.157145e+02   3.560178e+02
  -1.720455e+02   4.518557e+02
  -5.129245e+02   1.241961e+02
  -5.391990e+02  -3.612122e+02
  -8.241201e+01  -5.095712e+02
   3.127032e+02  -2.724561e+02
   4.993249e+02   7.144154e+01
   3.048631e+02   2.952156e+02
  -1.432681e+02   2.684807e+02
  -2.659694e+02   5.467836e+01
  -1.500859e+02  -1.351791e+02
   7.117847e+01  -6.576248e+01
   7.936050e+01   7.165933e+01
  -9.584150e+01   1.142350e+02
  -2.273662e+02  -4.926364e+01
  -1.079314e+02  -2.234992e+02
   1.111834e+02  -2.588000e+02
   2.625177e+02  -9.091536e+01
   1.910559e+02   6.427003e+01
  -2.924966e+01   2.197525e+02
  -3.060934e+02   2.912889e+02
  -3.545675e+02   1.878459e+02
  -2.442406e+02  -1.820717e+02
  -4.235431e+01  -4.035647e+02
   1.128231e+02  -3.719204e+02
   2.005278e+01  -1.573106e+02
  -5.450892e+01  -5.492331e-01
   7.874644e+01  -7.241222e+01
   1.603872e+02  -9.188184e+01
   3.229280e+02   4.808776e+01
   1.502294e+02   2.431063e+02
  -8.107720e+01   2.410175e+02
  -2.057507e+02   1.497488e+01
  -1.994576e+02  -2.145993e+02
  -6.347947e+00  -2.496196e+02
   2.336367e+02  -9.748841e+01
   3.808228e+02   1.942187e+02
   1.639465e+02   3.141632e+02
  -5.733942e+01   2.400844e+02
  -2.240772e+02   1.605429e+02
  -1.441870e+02   9.075701e+01
  -1.028077e+02   4.013887e+01
  -2.154056e+02   3.512383e+01
  -3.495162e+02  -7.252938e+01
  -3.088188e+02  -2.312379e+02
  -3.810813e+01  -4.133286e+02
   3.636875e+02  -4.003992e+02
   4.040199e+02  -1.923309e+02
   2.885998e+02   1.068119e+02
  -2.360798e+01   2.532056e+02
  -7.705748e+01   1.877232e+02
  -2.610391e+00   5.876235e+01
   1.002358e+02  -3.806817e+01
   1.453973e+02   2.635095e+01
  -2.007334e+01   1.414062e+02
  -1.091869e+02   5.945289e+01
  -1.397419e+02  -7.911146e+01
  -1.875498e+01  -1.276979e+02
   1.402490e+02  -8.371406e+00
   1.248468e+02   2.078316e+02
   2.945760e+00   2.691823e+02
  -2.145024e+02   1.507421e+02
  -3.253652e+02  -5.757864e+01
  -2.446144e+02  -2.505123e+02
  -4.283142e+01  -2.532578e+02
   1.146756e+02  -8.566557e+01
   1.363837e+02   1.451831e+01
   5.546757e+01   4.279271e+00
  -3.317707e+01  -5.600104e+01
  -1.365229e+01  -9.234502e+01
   9.028776e+01  -4.104285e+01
   1.421336e+02  -1.567970e+01
   7.841185e+01   7.202446e+01
  -1.100132e+02   5.377807e+01
  -7.977744e+01  -5.511133e+01
   1.038213e+02  -8.035577e+01
   2.889283e+02  -2.823741e+01
   2.494775e+02   1.393894e+02
   3.380138e+01   2.319042e+02
  -1.484335e+02   2.299304e+02
  -2.564739e+02   5.705004e+01
  -1.065295e+02  -5.948081e+01
   1.408213e+01  -7.266822e+01
   9.286000e+01  -3.500987e+01
  -3.599417e+01   8.242244e+00
  -1.556936e+02   2.251525e+01
  -2.000071e+02  -1.160908e+02
  -7.587955e+01  -1.313959e+02
   1.001922e+02  -1.105179e+02
   1.732867e+02   1.895485e+01
   4.772741e+01   5.071264e+01
   5.987852e+00  -1.313187e+01
  -3.107677e+01  -1.374125e+02
   8.643597e+01  -1.131860e+02
   2.103925e+02  -1.323472e+01
   1.389965e+02   1.119126e+02
  -1.178661e+01   1.857656e+02
  -1.461033e+02   1.538642e+02
  -1.916567e+02   1.660664e+01
  -2.900713e+01  -1.340605e+02
   1.197137e+02  -2.697274e+01
   1.409449e+02  -3.397369e+01
  -2.036535e+01   9.651622e+01
  -2.986856e+01   2.055717e+01
  -3.512745e+01   3.726612e+01
   8.607484e+01  -1.760892e+01
   1.330407e+02   7.787508e+01
   1.887599e+01   1.514970e+02
  -1.052196e+02   1.752775e+02
  -2.530348e+02   4.869548e+01
  -1.674189e+02  -1.492621e+02
  -4.145304e+01  -2.243130e+02
   8.708994e+01  -1.303695e+02
   9.384367e+01  -3.447658e+01
   6.953373e+01   1.650147e+01
  -2.492613e+01   4.688521e+01
  -1.133286e+01  -1.948792e+01
   4.951819e+01  -7.511146e+01
  -3.021471e+01   2.613547e+01
  -4.951423e+01   8.928249e+01
  -6.710993e+01   4.377655e+01
  -6.098101e+01  -6.473332e+01
   7.998869e+01  -9.905267e+01
   1.405929e+02  -6.077292e+01
   2.256001e+02   9.651844e+01
   6.292821e+01   2.093497e+02
  -1.064567e+02   2.195112e+02
  -2.419013e+02   5.722990e+01
  -2.330479e+02  -7.299258e+01
  -5.551585e+01  -1.455620e+02
   2.171898e+01  -9.889132e+01
   1.277060e+02  -6.198583e+01
   3.984113e+01  -4.410441e+01
  -4.128934e-01  -8.064692e+01
   3.189868e+01  -8.557865e+01
   1.679126e+02   7.994069e+00
   1.583445e+02   1.139610e+02
   1.262275e+01   1.787060e+02
  -8.863120e+01   1.579107e+02
  -1.754464e+02   1.348166e+01
  -1.402928e+02  -1.356278e+02
  -2.526629e+01  -1.621235e+02
   1.259033e+02  -8.207567e+01
   5.045682e+01  -3.332730e+01
   1.694146e+01   4.835579e+01
  -2.564885e+01   5.804789e+01
   2.889237e+01   9.235977e+00
   1.160384e+02   2.051705e+01
   3.491362e+01   1.922528e+01
  -4.267639e+01  -1.997661e+00
  -2.052471e+02   2.174175e+01
  -1.194464e+02  -8.046094e+01
  -1.189194e+01  -1.143591e+02
   1.581322e+02  -5.774754e+01
   1.731139e+02  -9.846846e-01
   2.692643e+01   7.234497e+01
  -5.340353e+01   4.521212e+01
  -1.017178e+02  -3.982034e+00
  -1.331135e+01  -6.540778e+01
   8.424997e+01   2.201330e+00
   6.305491e+01   1.638959e+00
   5.820430e+01   4.325610e+01
   3.440963e+01  -1.873490e+01
   1.350559e+01  -4.821693e+01
   4.174106e+01  -1.075826e+01
   2.632814e+01   8.212167e+01
   7.517278e+00   8.373992e+01
  -1.019967e+02   1.275797e+02
  -1.704229e+02   6.261384e+01
  -1.229290e+02  -1.171435e+02
   3.122957e+01  -1.234124e+02
   6.240490e+01  -7.817839e+01
   8.168637e+01   2.305047e+01
  -7.819084e+01   5.539740e+01
  -1.657884e+02  -2.282668e+01
  -1.851429e+01  -1.119196e+02
   8.797710e+01  -1.118430e+02
   1.935558e+02  -2.498555e+01
   1.581792e+02   3.948608e+01
   6.216315e+01   1.098824e+02
  -6.526907e+01   1.018656e+02
  -6.836757e+01   3.209508e+01
   4.734713e+01  -9.780386e+01
   1.147965e+02   3.251069e+01
   2.022278e+01   1.007713e+02
  -4.253632e+01   1.049107e+02
  -1.861609e+02   7.065092e+01
  -1.119829e+02  -1.024842e+02
   3.403458e+01  -1.497384e+02
   3.688565e+01  -9.493473e+01
   7.812150e+01   1.920585e+01
   2.841055e+01   5.566513e+01
  -1.802218e+01   8.465840e+01
  -6.956565e+01   8.435391e-01
  -8.591219e+01  -5.893665e+01
   1.931168e+01  -7.811430e+01
   9.549634e+00  -1.687631e+01
  -5.138480e+00  -2.387564e+01
  -5.447771e+01  -7.376632e+01
  -6.398015e-01  -9.498503e+01
   6.246548e+01  -4.713467e+01
   1.143721e+02   1.142063e+01
   1.004476e+02   7.454934e+01
   5.029015e+00   3.497339e+01
  -9.701998e+01   5.888774e+00
  -1.442964e+02   9.035980e+00
   7.759122e+00  -7.779332e+00
   2.897130e+01  -3.706916e+01
   5.695123e+01  -4.633168e+01
   1.212426e+01   6.422501e+01
   1.155094e+00   3.206958e-01
   3.662127e+01  -3.975167e+01
   6.963390e+01   1.686789e+00
   6.319691e+01   4.194425e+01
  -1.206531e+02   1.093418e+02
  -1.860020e+02   3.614173e+01
  -1.453475e+02  -4.093551e+01
  -4.404447e+01  -1.656319e+02
   3.040685e+01  -1.528160e+02
   1.575675e+02  -6.824951e+01
   9.451554e+01   4.437538e+01
   5.933152e+01   5.410347e+01
  -3.093338e+01   1.425738e+01
  -2.588212e+01   2.045416e+01
   5.509345e+01   1.036169e+02
   3.599491e+01   1.002558e+02
   2.370025e+00   9.079106e+01
  -8.321504e+01  -4.161851e+01
  -8.223948e+01  -8.816619e+01
  -7.008197e+00  -9.071118e+01
   8.957175e+01  -9.194224e+00
   8.799954e+01   3.384932e+01
   6.623791e+01   6.902252e+01
  -4.020316e+01   6.338630e+01
  -4.733363e+01   5.013636e+01
  -4.217163e+01  -5.365126e+01
   9.930063e-01  -9.376559e+01
   2.800252e+01  -3.584658e+01
  -2.283378e+01  -4.467738e+01
  -7.337086e+01   3.946988e+01
   1.724468e+01  -8.141388e+00
   1.228881e+02  -2.625731e+01
   1.048515e+02  -5.673903e+01
   9.678298e+01   2.295275e+01
  -8.507793e+00   8.807283e+01
  -1.246523e+01   7.442488e+01
  -8.546719e+01   1.080716e+01
  -3.049825e+01  -7.589561e+01
  -1.206250e+01  -3.806865e+01
   1.243405e+01  -1.489518e+01
   2.829984e+01   5.177728e+01
   2.937161e+01   3.100017e+01
  -2.750475e+01  -2.617793e+01
  -3.496497e+01  -7.403231e+01
  -2.633142e+01  -1.099820e+01
   1.708802e+01  -1.921757e+00
   3.694229e+01   1.197253e+01
   2.338571e+00  -6.928003e+01
  -1.328853e+01  -2.541941e+01
   4.376845e+01  -2.740460e+01
   3.335556e+01   5.259954e+01
  -5.119431e+00   5.447728e+01
  -6.328453e+01  -2.309463e+01
  -5.524028e+01  -6.243800e+01
   1.385090e+01  -5.961031e+01
   6.915555e+01   2.119704e+01
   1.009088e+02  -8.385816e+00
   4.735493e+01   3.863706e+01
  -9.731853e+01   3.801878e+01
  -5.843236e+01   1.542344e+01
  -7.290541e+01   1.583275e+01
   3.368170e+01   2.816187e+01
   3.666968e+01   2.211730e+00
   8.282782e+00   6.248429e+01
  -8.110404e+01   2.069781e+01
