
 $NMID
 id='ANONYMOUS ', fmtdat='(2E16.6)'
 volume=1.0
 tramp=1.0
 $END
   2.323243e+03   1.413762e+02
   1.140119e+03   1.215726e+03
  -2.297742e+02   1.290057e+03
  -1.056562e+03   5.270614e+02
  -5.361647e+02  -1.448109e+02
   3.748104e+02  -1.958962e+02
   4.629677e+02   1.729988e+02
   3.094599e+01   5.506416e+02
  -4.271964e+02   3.610926e+02
  -4.868769e+02   3.004188e+01
  -2.317327e+02  -4.949391e+02
   1.068398e+02  -4.426901e+02
   3.572962e+02  -4.723734e+01
   1.735399e+02   3.517152e+02
  -1.284405e+02   4.442987e+02
  -3.520110e+02  -6.684429e+01
  -1.043826e+02  -2.432787e+02
   1.597410e+02  -2.338738e+02
   2.976031e+02   2.970477e+01
   1.847293e+02   2.771026e+02
  -3.741115e+01   2.751384e+02
  -1.829844e+02   1.620475e+02
  -9.161531e+01   2.404670e+01
   2.775441e+01   9.799394e+00
   1.763587e+02   5.297840e+01
   3.082818e+01   2.341745e+02
  -2.519432e+02   1.651388e+02
  -4.335206e+02  -9.806908e+01
  -2.221037e+02  -2.964929e+02
   2.383238e+02  -2.633851e+02
   4.379793e+02   4.835968e+01
   2.272673e+02   2.394500e+02
  -9.710379e+01   2.394622e+02
  -3.142876e+02   1.175597e+02
  -1.838129e+02  -8.851505e+01
  -6.707967e+00  -2.347810e+02
   1.046083e+02  -1.330114e+02
   6.452461e+01   1.846686e+02
  -1.285408e+02   2.398509e+02
  -2.853669e+02   6.408615e+00
  -1.474966e+02  -3.870529e+02
   1.712807e+02  -3.310344e+02
   2.358426e+02  -2.309887e+01
   1.369356e+02   2.377144e+02
  -1.445120e+02   1.402071e+02
  -1.466876e+02  -1.796610e+02
   4.462567e+01  -2.590127e+02
   2.828237e+02  -7.269221e+01
   3.141220e+02   2.204401e+02
   4.606411e+01   2.975405e+02
  -2.185682e+02   1.487334e+02
  -3.334690e+02  -5.709014e+01
  -1.459370e+02  -2.017564e+02
   1.083735e+02  -1.287818e+02
   2.242753e+02   5.821272e+00
   9.970644e+01   1.821816e+02
  -8.884738e+01   4.483786e+01
  -6.559438e+01  -9.067263e+01
   5.710037e+01  -1.283638e+02
   1.692176e+02  -4.277784e-01
   1.055381e+02   1.797530e+02
  -9.435222e+01   2.113320e+02
  -2.235742e+02   3.990132e+01
  -1.145262e+02  -8.290627e+01
   1.547220e+01  -1.564119e+02
   1.946617e+02  -1.854373e+02
   2.133717e+02  -7.779843e+01
   1.599490e+02   9.156937e+01
  -3.383607e+00   2.117771e+02
  -7.119214e+01   1.809070e+02
  -4.378685e+01   5.361046e+01
  -1.774310e+01  -3.286904e+01
   1.157316e+01   4.291497e+01
  -7.420354e+01   1.161585e+02
  -8.077655e+01  -7.853363e+00
  -2.040529e+01  -1.258940e+02
   5.733257e+01  -1.199364e+02
   1.021197e+02  -2.902172e+01
   1.017462e+02   1.885229e+02
   6.197094e+00   1.400291e+02
  -1.430547e+02   5.153788e+01
  -2.134743e+02  -8.289555e+01
  -1.172271e+02  -2.043426e+02
   6.642199e+01  -1.804981e+02
   1.167803e+02  -9.457328e+01
   1.006097e+02  -2.267191e+01
   7.376250e+01   2.644471e+00
   1.217904e+02  -2.640028e+01
   2.211306e+02   2.907903e+01
   1.799027e+02   1.664035e+02
   2.234769e+01   2.464139e+02
  -1.879007e+02   2.361876e+02
  -3.025954e+02   1.274205e+02
  -1.696568e+02  -7.883335e+01
   1.445621e+01  -1.494856e+02
   5.795611e+01  -1.006635e+02
   5.070632e+01  -4.137875e+01
  -3.586004e+01   5.497492e+01
  -1.019794e+02   1.293765e+01
   5.673040e-01  -1.085337e+02
   8.917875e+01  -1.072571e+02
   8.276001e+01   3.784082e+01
  -2.038838e+01   1.411266e+02
  -1.093034e+02   2.865702e+01
  -4.152974e+01  -1.180188e+02
   4.144692e+01  -1.680437e+02
   1.316841e+02  -1.224957e+02
   1.897663e+02   3.651362e+01
   1.433180e+02   1.244417e+02
   4.561302e+01   1.346493e+02
  -9.262986e+01   6.426802e+01
  -2.970260e+01  -2.040548e+01
  -4.671841e+01  -1.547925e+01
   5.642375e+01   3.184562e+01
   3.567942e+01   6.651794e+01
  -1.012787e+02   4.324159e+01
  -1.003925e+02  -1.237610e+01
  -1.467503e+01  -7.038592e+01
   3.940480e+01   1.412368e+01
   1.956580e+01   3.798399e+01
  -6.870617e+01   1.631871e+01
  -1.915021e+02  -2.167606e+01
  -1.265558e+02  -6.884707e+01
   1.030187e+01  -1.048628e+02
   1.402523e+02  -1.277744e+02
   1.381663e+02  -6.713889e+01
   1.323055e+02   3.377400e+01
  -5.908620e+01   1.127170e+02
  -7.209431e+01  -2.318076e+01
   1.633532e+01  -2.992123e+01
   5.189098e+01  -3.825525e+01
   7.395144e+01   7.677639e+01
   3.564469e+01   1.353193e+02
  -9.394367e+01   2.854062e+01
  -5.970975e+01  -7.246655e+00
  -6.431228e+01  -7.774864e+01
   3.716958e+01  -1.228158e+01
   8.777340e+01  -7.750279e+00
  -3.343439e+01   6.353679e+01
  -9.374211e+01   1.075900e+01
  -5.487070e+01  -4.520752e+01
   2.521374e+01  -8.166771e+01
   1.187329e+02  -9.966110e+01
   1.130586e+02   8.304919e+00
   6.704915e+01   7.421869e+01
  -8.998626e+01   1.103383e+02
  -6.589414e+01   2.723532e+01
  -2.735326e+01   3.782758e+01
   9.554078e+00  -8.117144e+00
  -2.455077e+01  -1.557060e+00
  -7.325001e+01  -1.327488e+01
  -1.084211e+02  -4.045999e+01
  -1.356566e+01  -3.907439e+01
   5.629251e+01  -4.738984e+01
   1.227478e+02  -5.228055e+01
   9.889282e+01   4.628667e+01
  -1.759008e+01   1.304436e+02
  -4.212946e+01   4.325003e+01
  -5.033592e+01  -1.944263e+01
  -5.825628e+01  -7.196537e+01
   1.025554e+01  -3.625227e+01
  -1.661044e+00   6.174531e+00
   3.534134e+00   4.436804e+01
  -1.678906e+01  -1.620404e+01
   9.053068e+00  -3.655624e+01
   8.078846e+01  -4.968410e+01
   5.545796e+01   3.299530e+00
   1.461622e+01   8.301249e+01
  -9.232657e+01   4.827216e+01
  -1.052328e+02  -1.606641e+01
  -3.489463e+01  -1.258780e+02
   7.248244e+01  -1.106812e+02
   9.217215e+01  -7.310002e+01
   1.603983e+02   9.292819e+00
   5.941724e+01   1.053153e+02
  -5.512222e+01   7.418212e+01
  -5.781080e+01   3.526792e+01
  -4.268062e+01   6.731341e+01
  -5.661179e+01   4.700425e+01
  -5.310055e+01   1.570395e+01
  -8.049603e+01  -3.942109e+01
  -7.223767e+01  -1.186740e+02
  -1.339458e+01  -9.582279e+01
   2.069156e+01  -5.536051e+01
   5.965280e+01  -2.547191e+01
   6.635136e+01   2.559917e+01
  -3.361212e+01   6.624185e+01
  -3.292094e+01   1.931721e+01
  -7.612024e+00   2.851908e-01
   5.586807e+00  -3.223748e+01
  -1.487533e+01  -4.967245e+01
  -2.713155e+01  -3.370545e+01
  -5.275456e+01  -6.525135e+00
  -1.538756e+01   1.344558e+01
   3.736544e+01  -4.505108e+00
   7.583648e+01  -1.880428e+01
   8.526487e+01  -3.824007e+00
  -7.834205e+00   4.164348e+01
  -6.327373e+01   9.852669e+00
  -9.677682e+01   6.254921e+01
  -3.679112e+01  -6.090959e+00
   4.343918e+01  -1.114884e+01
   1.900330e+01  -5.136379e+00
   1.117498e+00  -8.689546e+00
  -6.643566e+01  -2.042465e+01
  -3.250914e+01   2.261343e+01
  -7.861286e+00  -2.609036e+01
   2.037187e+01  -2.312417e+01
  -1.463579e+01   1.388397e+01
  -8.864008e+01  -5.034107e+01
   1.819910e+00  -6.675652e+01
   5.653080e+01  -1.005349e+02
   6.022765e+01  -3.203277e+01
   5.889368e+01  -5.708349e+01
   9.837875e+01   6.660308e+01
  -2.643028e+01   1.095948e+02
  -5.592127e+01   1.748334e+01
  -2.239657e+01  -2.540008e+01
   5.284071e+00  -4.440943e+01
   5.823155e+01  -3.272354e+00
   4.157887e+01   3.727659e+01
  -2.872878e+01   3.329439e+01
  -9.863787e+01  -3.291469e+01
  -6.787445e+01  -1.180500e+01
  -3.455565e+01  -1.879921e+01
   5.023242e+01  -6.218241e+01
   4.609719e+01   1.588242e+01
  -1.638107e+01   1.415694e+01
  -3.806494e+01  -1.908929e+01
   2.657002e+01  -6.461330e+01
   4.771664e+01  -5.619146e+01
   1.132063e+02  -2.274477e+01
   9.021106e+01   7.522156e+01
   7.852942e+00   1.171882e+02
  -4.569351e+01   9.933885e+01
  -3.822329e+01  -2.389404e+01
  -4.417657e+01  -1.935173e-01
  -1.491252e+01  -6.557472e+01
   3.241289e+01  -2.215013e+01
   2.723387e+00   1.550999e+01
  -1.212241e+01  -1.430562e+00
   9.526828e+00  -4.220164e+01
  -1.980481e+00   3.552710e+01
   6.711472e+01   5.651828e+00
   5.499328e+01   8.270528e+01
  -2.260065e+00   2.509213e+01
  -8.522921e+01   1.980243e+00
  -5.543658e+01  -1.772519e+01
  -2.035649e+01  -3.979908e+00
   6.825028e+01  -2.466155e+00
  -2.178956e+01  -2.301492e+01
   1.541517e+01   4.137446e+00
  -3.672474e+00   3.580220e+01
   2.276432e+01   2.341172e+01
   4.914494e+01   7.659276e+00
   2.446713e+00   1.606706e+01
  -4.984094e+01  -3.669893e+01
  -8.305152e+01   2.837610e+00
  -2.409286e+01  -3.575420e+00
   5.865455e+01  -8.922784e+01
   1.106469e+02  -3.341158e+01
   8.700192e+01   3.206468e+01
   7.143034e+00   9.144858e+01
  -8.072003e+00   9.636676e+01
  -1.086167e+02   1.140664e+01
  -4.186459e+01   3.268562e+01
  -5.523949e-01  -2.442350e+00
   5.817683e+01   5.251963e+01
  -1.002774e+01   2.191230e+01
  -5.575333e+01  -1.885227e+01
  -3.612416e+01  -4.521011e+01
   1.219400e+01  -4.021235e+01
   5.081980e+01  -6.072648e+00
   9.474918e+01   5.661314e+01
  -3.222023e+01   8.744483e+01
  -6.226051e+01   2.493096e+01
  -5.048900e+01  -5.984648e+00
  -1.088376e+01  -5.623192e+01
  -1.477784e+01  -3.469683e+01
   6.493329e+01   2.900973e+01
  -1.492344e+01   3.665007e+01
  -2.954252e+01   5.058603e+01
   1.930909e+01   2.662436e+01
  -9.350488e+00   3.322030e+00
   2.957009e+01   2.016574e+01
  -1.024463e+00   5.436325e+01
  -9.549546e+01   6.349302e+01
  -1.117657e+02   2.058175e+01
  -3.369020e+01  -6.059730e+00
  -1.148873e+01  -2.774378e+01
   1.424053e+01  -4.665282e+01
   2.786199e+01   3.079591e+01
   1.251371e+01   5.733489e+01
   1.443458e+01   3.913387e+01
   8.197102e+00  -4.598692e+01
  -4.318991e+01   1.273982e+01
  -6.806928e+00  -4.115126e+01
   1.698049e+01  -8.397272e+00
   4.746917e-01   8.591986e+00
   2.652587e+01  -1.632661e+01
   1.671288e+01  -2.343693e+01
   6.986497e+00   9.228534e+00
   1.745246e+01   3.567084e+01
   2.855696e+01   5.385378e+01
   8.140920e+00   4.937821e+01
  -1.582269e+01   3.050612e+00
   1.988948e+01  -4.670917e+01
   2.089583e+01   4.103663e+01
   2.618692e+01   4.008686e+01
  -3.281795e+00   4.214140e+01
  -1.279868e+01   2.515421e+00
  -5.400813e+01  -4.020678e+01
  -7.006137e+01  -5.425752e+01
  -1.099920e+01  -4.032989e-03
   7.976798e+01  -6.299746e+00
  -9.832146e+00   1.492780e+01
  -1.663468e+01  -3.245487e+01
  -4.601489e+01  -3.307918e+01
  -2.309300e+01  -4.289128e+01
   1.075012e+02  -1.145563e+01
