
 $NMID
 id='ANONYMOUS ', fmtdat='(2E16.6)'
 volume=1.0
 tramp=1.0
 $END
  -2.701056e+03  -7.248663e+01
  -1.572320e+03  -1.572676e+03
   4.580853e+02  -1.759884e+03
   1.413165e+03  -5.778730e+02
   6.414966e+02   3.898523e+02
  -5.284691e+02   3.170921e+02
  -4.690552e+02  -2.989190e+02
  -1.488971e+01  -7.086270e+02
   5.509277e+02  -5.297877e+02
   6.716048e+02   5.029553e+01
   2.471970e+02   6.642674e+02
  -1.443431e+02   6.214766e+02
  -3.953888e+02   2.121032e+01
  -2.189298e+02  -4.875285e+02
   1.242074e+02  -4.739151e+02
   3.155819e+02   5.049718e+01
   1.307503e+02   4.585635e+02
  -2.192183e+02   4.598521e+02
  -4.320609e+02   2.326901e+01
  -2.535185e+02  -3.207854e+02
   5.208742e+00  -2.771879e+02
   2.244463e+02  -1.702971e+02
   1.179132e+02   5.103195e+00
  -2.640538e+01   8.623201e+01
  -3.351341e+02  -7.991851e+01
  -1.809876e+02  -3.444521e+02
   3.760188e+02  -2.668177e+02
   5.702299e+02   4.279806e+01
   3.398178e+02   3.315904e+02
  -2.405305e+02   3.212126e+02
  -5.239694e+02   3.847336e+01
  -2.098970e+02  -3.072270e+02
   2.046527e+02  -4.064386e+02
   4.582550e+02  -1.739699e+02
   2.549561e+02   1.988522e+02
  -1.726587e+01   3.337062e+02
  -1.398914e+02   1.518832e+02
  -9.730232e+01  -2.152689e+02
   1.350409e+02  -3.125119e+02
   3.768301e+02   4.757242e+01
   2.162596e+02   4.501395e+02
  -2.258897e+02   4.874734e+02
  -4.603666e+02  -2.925426e+00
  -2.188460e+02  -4.330298e+02
   2.043338e+02  -2.416383e+02
   2.178160e+02   1.998649e+02
  -4.957251e+01   3.651416e+02
  -3.118196e+02   8.572592e+01
  -3.409057e+02  -2.458284e+02
  -9.815501e+01  -3.547385e+02
   2.623005e+02  -2.341548e+02
   4.161572e+02   2.609252e+01
   2.398820e+02   2.562565e+02
  -9.416423e+01   2.438403e+02
  -3.335015e+02   7.107419e+01
  -2.084939e+02  -1.538696e+02
   4.430120e+01  -8.601849e+01
   1.026622e+02   7.884464e+01
  -6.614108e+01   6.280184e+01
  -1.888344e+02  -7.013460e+01
  -6.122070e+01  -1.938972e+02
   1.074630e+02  -1.516160e+02
   1.686151e+02  -7.853846e+01
   9.733948e+01   2.406701e+00
  -2.570027e+01   6.542875e+01
  -1.106556e+02   1.703413e+02
  -1.742977e+02   1.675501e+02
  -1.855923e+02  -1.277337e+02
  -5.464673e+01  -2.829634e+02
   5.399969e+01  -2.840283e+02
   1.151232e+02  -8.882117e+01
   5.033555e+01   4.890867e+01
   2.443484e-01  -8.916277e+01
   8.362554e+01  -1.258378e+02
   1.521958e+02   2.016077e+01
   1.525314e+02   1.736652e+02
  -5.708067e+00   2.125673e+02
  -1.337444e+02   3.906083e+01
  -1.467162e+02  -1.342966e+02
  -5.491931e+00  -2.136375e+02
   1.907189e+02  -7.627589e+01
   2.258549e+02   1.452740e+02
   1.162941e+02   2.076944e+02
  -1.296870e+02   1.503644e+02
  -1.608750e+02   8.986948e+01
  -9.097303e+01  -2.000105e+01
  -6.291868e+01   1.671065e+01
  -1.329693e+02   5.245599e+01
  -2.378118e+02  -5.915635e+01
  -1.940968e+02  -2.186294e+02
  -1.525696e+01  -2.221296e+02
   1.772387e+02  -2.511030e+02
   2.722311e+02  -1.914291e+02
   2.213592e+02   5.377722e+01
  -5.521258e+00   1.685168e+02
  -1.023959e+02   1.978811e+02
  -8.762694e+01   3.282700e+01
   8.708251e+01  -8.671144e+01
   1.103698e+02   1.561899e+01
   1.503493e+00   1.230557e+02
  -1.223797e+02   7.520434e+01
  -1.402120e+02  -2.875178e+01
  -1.458997e+01  -1.408003e+02
   1.503014e+02  -3.066207e+01
   6.932644e+01   1.184044e+02
  -1.437198e+01   1.945083e+02
  -1.226272e+02   1.288843e+02
  -1.901042e+02  -2.541998e+01
  -1.925530e+02  -9.456316e+01
  -1.124910e+02  -1.822940e+02
   9.959069e+01  -8.847599e+01
   1.062546e+02   4.338498e-01
  -1.162617e+01   1.977291e+01
  -2.316332e+01  -4.395562e+01
  -1.625696e+01  -1.008761e+02
   1.200735e+02  -3.837291e+01
   1.598341e+02   2.927063e+01
   1.667365e+01   5.538012e+01
  -5.664940e+01   1.777872e+01
  -1.849376e+01  -6.471113e+01
   1.182893e+02  -5.824810e+01
   2.338206e+02  -3.777198e+01
   1.218501e+02   9.091703e+01
   4.673090e+01   1.812369e+02
  -7.265350e+01   1.503159e+02
  -1.801007e+02   8.955436e+01
  -6.702543e+01  -2.671582e+01
   3.141782e+01  -3.308926e+01
   5.765115e+01  -8.780712e+00
  -2.876037e+01   9.208106e+01
  -1.283158e+02   5.163519e+01
  -1.167188e+02  -4.872746e+01
  -3.353650e+01  -1.011913e+02
   1.889011e+01  -9.236648e+01
   6.500582e+01  -4.880441e+01
   6.330401e+01   4.644007e+01
   1.395136e+01   2.193992e+01
  -1.860670e+01  -5.519816e+01
   4.478855e+01  -9.326859e+01
   1.148626e+02   6.340986e+01
   1.214216e+02   8.550841e+01
   2.246870e+01   1.242641e+02
  -1.066298e+02   8.473787e+01
  -1.279024e+02   2.788259e+00
  -6.174147e+01  -7.060247e+01
   4.833191e+01  -9.425854e+01
   4.162932e+01  -3.618640e+01
  -2.723734e+01   1.382085e+01
  -1.257718e+01   4.017129e+01
  -2.281478e+01  -1.603380e+01
   7.787878e+01   4.454840e+01
   4.901116e+01   4.059301e+01
   1.858501e+01   5.384392e+01
  -5.148489e+01   1.020203e+02
  -1.854680e+02   4.514294e+01
  -9.208813e+01  -7.139348e+01
   3.136227e+01  -1.234479e+02
   1.044395e+02  -8.303700e+01
   7.988947e+01  -6.410815e+01
   4.034188e+01   2.676404e+01
  -2.680169e+01   5.652634e+01
  -2.891989e+01  -3.876602e+01
   7.948175e+01  -6.517088e+01
   3.895900e+01   3.159196e+01
  -5.215424e+01   7.262955e+01
  -7.696639e+01   2.258439e+01
  -6.435732e+01  -1.926515e+01
   6.576737e+00  -8.010452e+01
   8.904756e+01  -7.317469e+01
   1.083038e+02   3.859208e+01
   6.603969e+01   9.504547e+01
  -7.960618e+01   1.573128e+02
  -1.997565e+02   1.352868e+02
  -1.789796e+02  -4.663958e+01
  -7.967226e+01  -1.548536e+02
   2.941839e+01  -5.649796e+01
   8.847165e+01  -5.263231e+01
   4.164100e+01  -7.195498e+01
   8.225237e+01  -8.168982e+01
   5.861990e+01  -5.620205e+01
   9.151605e+01   9.903109e+00
   9.988013e+01   1.048713e+02
   4.865888e+01   1.070395e+02
  -9.859844e+00   3.206374e+01
  -8.736058e+01   5.787584e+00
  -8.446802e+01  -6.333044e+01
   7.401621e+00  -1.445985e+02
   6.416244e+01  -5.627190e+01
   6.271287e+01   1.037057e+00
   3.701792e+01   1.819083e+01
  -6.097446e+01   5.387263e+01
   1.451046e+01   2.779615e+01
   5.834289e+01  -4.915147e+01
   6.707814e+01   2.049195e+01
  -4.787078e+01   4.320892e+01
  -1.152248e+02   2.141065e+01
  -5.355983e+01  -3.803402e+01
  -1.450186e+01  -5.414679e+01
   6.547196e+01  -6.233884e+01
   1.203447e+02  -1.855973e+01
   5.905039e+00   3.902256e+01
  -9.257572e+01  -3.586665e+01
  -7.847936e+01  -3.402421e+01
  -2.489258e+01  -5.190479e+01
   4.163309e+01   1.278721e+01
   4.706389e+01   3.005917e+01
   5.221936e+00   4.110414e+01
   4.586659e+01   2.697741e+01
   4.038145e+01  -2.725334e+01
   5.965685e+01   3.193567e+01
   3.305838e+01   3.519189e+01
  -3.162154e+01   6.510212e+01
  -8.881191e+01   1.074703e+02
  -6.809694e+01   8.178165e+00
  -1.783060e+01  -6.853739e+01
   3.056183e+01  -4.467226e+01
   5.565120e+01  -4.188896e+00
   4.316073e+00   5.833105e+01
  -5.052697e+01   5.175576e+01
  -8.202031e+01  -4.386928e+01
  -4.375869e+01  -6.564169e+01
   4.050706e+01  -8.222268e+01
   8.482905e+01  -3.013240e+01
   1.429540e+02   1.563331e+01
  -2.439333e+00   2.774490e+01
  -2.951526e+01   2.512068e+01
  -6.147235e+01   2.305974e+01
   8.845620e+01  -2.981384e+01
   9.289495e+01   5.587519e+00
  -2.922097e+00   7.209671e+01
  -9.483394e+01   1.152908e+02
  -1.468371e+02   6.624805e+01
  -7.986610e+01  -6.694124e+01
  -3.095205e+01  -1.422689e+02
   7.276316e+01  -8.960724e+01
   8.572038e+01  -3.752227e+01
   1.034949e+02   5.962372e+01
  -1.449485e+01   8.651862e+01
  -8.580820e+00   2.032305e+01
   4.779565e+00   6.820871e-01
  -1.095668e+01   1.928966e+01
  -3.088347e+01   5.374258e+00
  -1.631929e-01   8.202925e+00
  -4.064462e+01  -4.035554e+00
  -7.483478e+01  -3.151750e+01
   2.997068e+01  -3.714521e+01
   6.424299e+01   1.361074e+01
   6.297059e+01   4.381843e+01
   3.967334e+01   2.814484e+01
  -8.863546e+01   1.047056e+01
  -1.027513e+02   2.118452e+01
  -1.385265e+01  -4.230141e+01
   1.506660e+01  -7.486270e+01
   2.041258e+01  -9.605574e+01
  -1.990530e+01  -2.383094e+01
   9.432290e+00   4.785736e+01
   3.961119e+01   2.794972e+01
   6.147836e+01  -2.118737e+01
   2.001396e+01   2.606418e+01
  -8.810528e+01   5.946133e+01
  -1.209751e+02   3.223616e+01
  -6.454517e+01  -3.635299e+01
   4.411588e+01  -1.210538e+02
   3.100627e+01  -8.454805e+01
   6.986875e+01  -2.235229e+00
   8.039881e+01   2.214302e+00
  -9.764704e-01   6.888428e+01
  -3.005959e+01   2.897743e+00
   1.782328e+01   2.325414e+01
  -1.964791e+00   5.244812e+00
  -1.230164e+01   5.676812e+01
  -3.079732e+01   5.016160e+01
  -7.838672e+01   8.492913e+00
  -4.628106e+01  -1.850572e+01
   1.013506e+01  -7.837121e+01
   5.696542e+01  -6.359530e+01
   5.577930e+01   3.906842e+01
   6.745036e+01   7.385694e+01
  -5.027937e+01   1.140316e+01
  -3.910897e+01  -1.850817e+01
  -8.758210e+00  -2.563349e+01
   3.837551e+01  -1.698413e+01
   1.811253e+01  -2.216356e+01
   1.974765e+00  -4.028842e+01
  -9.854077e+00  -9.975601e+00
  -1.339490e+01   4.101753e+01
   8.261650e+01  -1.976943e+01
   8.393508e+01  -2.326631e+01
   8.184492e+01  -4.238498e+01
  -2.659051e+01   9.127096e+01
  -4.735296e+01   6.917916e+01
  -6.991426e+01   2.551253e+01
  -4.258436e+01  -9.316302e+01
   2.421223e+01  -3.195258e+01
  -2.539732e+01   3.230768e+01
   1.080192e+01   4.084871e+01
   2.322554e+01  -2.640199e+00
  -7.282397e+01  -3.988830e+01
  -5.820157e+00  -4.510053e+01
  -2.128560e+01  -1.625313e+01
   9.013452e+00   1.977007e+00
   5.457406e+01  -4.426289e+00
   6.335575e+01   5.671415e+00
   9.066388e+00  -2.548993e+01
   5.128448e+01  -1.062600e+01
   2.672186e+00   4.149905e+01
  -3.633341e+01   4.781144e+01
  -8.345048e+01   5.311717e+01
  -4.089800e+01  -6.550236e+01
  -3.600001e+01  -5.340359e+01
   1.254694e+01   6.543645e-01
   3.271422e+01   4.715453e+01
   2.420616e+01   1.033244e-01
   1.148991e+00   4.545234e+01
  -6.265854e+01   3.924939e+01
  -5.395041e+01   1.187295e+01
   3.077746e+00   9.112776e-01
   1.634323e+01  -9.280145e+00
  -1.373400e+01  -3.957135e+01
  -2.859017e+01   1.223997e+00
