
 $NMID
 id='ANONYMOUS ', fmtdat='(2E16.6)'
 volume=1.0
 tramp=1.0
 $END
   3.686953e+03  -1.063317e+02
   2.171163e+03   2.437343e+03
  -8.608996e+02   2.526336e+03
  -2.195694e+03   8.964043e+02
  -8.563545e+02  -7.596906e+02
   7.896362e+02  -4.443210e+02
   8.223980e+02   3.655638e+02
   7.658084e+01   1.023647e+03
  -7.692883e+02   6.605033e+02
  -8.083195e+02  -7.593411e+01
  -4.184308e+02  -7.039436e+02
   1.979426e+02  -8.853325e+02
   6.573923e+02  -1.464369e+02
   3.870233e+02   7.204122e+02
  -2.881643e+02   7.367558e+02
  -5.656114e+02  -2.999575e+01
  -2.573578e+02  -6.060154e+02
   3.179219e+02  -6.306396e+02
   4.852269e+02   1.284087e+01
   2.859828e+02   3.354904e+02
   7.705608e+01   3.835991e+02
  -2.344252e+02   2.443830e+02
  -2.196203e+02  -5.021821e+01
   2.879489e+01  -1.051422e+02
   3.563598e+02   7.194600e+01
   1.810876e+02   3.169868e+02
  -4.316228e+02   3.123330e+02
  -7.116283e+02  -1.003650e+02
  -4.015802e+02  -4.861138e+02
   3.686127e+02  -4.211296e+02
   7.148579e+02  -2.213020e+01
   3.596693e+02   4.351165e+02
  -2.197514e+02   4.648443e+02
  -5.078315e+02   2.060427e+02
  -3.822130e+02  -2.504506e+02
  -1.793274e+01  -4.278992e+02
   2.230177e+02  -1.879565e+02
   2.027234e+02   2.856886e+02
  -1.593917e+02   4.157379e+02
  -4.039720e+02  -2.820297e+01
  -2.496837e+02  -6.469289e+02
   2.991107e+02  -6.231863e+02
   5.641501e+02  -1.733517e+01
   2.503928e+02   5.348206e+02
  -3.315998e+02   3.296452e+02
  -4.443061e+02  -3.056502e+02
   5.077834e+01  -5.470205e+02
   5.176023e+02  -1.621219e+02
   5.190089e+02   3.735046e+02
   1.500135e+02   5.083765e+02
  -3.478563e+02   2.794166e+02
  -5.418919e+02  -8.585868e+01
  -2.794277e+02  -3.627490e+02
   1.542914e+02  -3.324796e+02
   4.537030e+02   2.593073e+01
   2.175484e+02   2.599354e+02
  -1.291841e+02   1.111943e+02
  -9.813721e+01  -1.486861e+02
   1.282978e+02  -1.087819e+02
   3.067726e+02   5.378648e+01
   1.026870e+02   2.657784e+02
  -1.685426e+02   2.130715e+02
  -3.234645e+02   4.864267e+01
  -1.956085e+02  -1.305092e+02
  -1.879751e+01  -2.215567e+02
   1.741741e+02  -3.608330e+02
   3.233486e+02  -2.284432e+02
   3.237573e+02   1.217174e+02
   7.504229e+01   4.112383e+02
  -8.991167e+01   3.687096e+02
  -1.383854e+02   8.773682e+01
   4.075951e+01  -3.042842e+01
  -1.893200e+01   1.063425e+02
  -1.979686e+02   1.761566e+02
  -3.034104e+02  -7.407939e+01
  -1.825724e+02  -2.763011e+02
   8.979719e+01  -2.968736e+02
   2.137071e+02  -7.901456e+01
   2.084262e+02   1.882319e+02
  -1.364051e+01   2.619937e+02
  -1.906621e+02   1.571882e+02
  -2.895176e+02  -1.504119e+02
  -1.913386e+02  -3.184085e+02
   8.067530e+01  -3.206469e+02
   1.615676e+02  -1.224199e+02
   1.492837e+02   2.305030e+01
   1.210157e+02  -1.152619e+01
   2.202474e+02  -2.665238e+01
   3.626788e+02   6.656290e-01
   2.992999e+02   2.311320e+02
  -1.001208e+01   3.390638e+02
  -3.095551e+02   4.085172e+02
  -4.662514e+02   1.869264e+02
  -3.279161e+02  -9.527857e+01
  -6.725154e+01  -2.385781e+02
   1.114111e+02  -2.360420e+02
   4.697474e+01  -7.119266e+00
  -1.084099e+02   6.541363e+01
  -1.948049e+02  -7.035745e+00
  -3.598395e+01  -1.718528e+02
   1.669651e+02  -1.421158e+02
   1.203723e+02   7.687637e+01
  -1.730421e+01   1.651949e+02
  -1.792057e+02   2.292514e+01
  -8.776655e+01  -2.886956e+02
   1.670484e+01  -3.773737e+02
   2.076551e+02  -1.544680e+02
   2.647465e+02   8.911903e+01
   2.444004e+02   1.551754e+02
   6.367928e+01   2.372364e+02
  -8.991185e+01   1.678074e+02
  -1.765075e+02  -3.020501e+00
  -7.785972e+01  -2.453541e+01
   3.434456e+01   5.386490e+01
  -3.426446e-01   1.401973e+02
  -1.248148e+02   6.410716e+01
  -2.232044e+02  -1.099156e+01
  -1.114432e+02  -6.088891e+01
   4.115368e+01  -5.816401e+01
   8.447987e+01   5.577737e+01
  -1.078481e+02   8.247801e+01
  -2.442095e+02   3.909669e+01
  -2.257631e+02  -1.051867e+02
  -3.642449e+01  -2.484827e+02
   1.903867e+02  -2.587221e+02
   2.132652e+02  -1.234586e+02
   1.661284e+02   7.105214e+01
  -3.657293e+01   7.448130e+01
  -5.176130e+01  -2.813868e+01
   7.698889e+01  -9.874249e+01
   1.732020e+02  -5.587062e+01
   1.999163e+02   7.681231e+01
   7.191577e+01   1.878990e+02
  -1.239276e+02   1.288150e+02
  -1.901185e+02   1.358051e+01
  -6.601342e+01  -5.245344e+01
   4.466225e+01  -1.016988e+01
   8.353417e+01   3.443669e+01
  -2.936899e+01   9.269575e+01
  -1.915560e+02   1.285107e+01
  -1.573775e+02  -1.029331e+02
  -1.852108e+01  -1.660839e+02
   1.986705e+02  -1.149016e+02
   1.965414e+02  -1.444725e+01
   9.676958e+01   6.831235e+01
  -8.116902e+01   8.094379e+01
  -1.097009e+02   3.384780e+01
   2.504893e+01  -1.254670e+01
   4.763690e+01  -1.606242e+01
  -3.373988e+01   2.720575e+00
  -8.861353e+01  -1.982746e+01
  -1.020936e+02  -7.843581e+01
  -2.652117e+00  -1.830206e+02
   1.528880e+02  -1.429918e+02
   2.118655e+02  -5.835171e+00
   1.682061e+02   8.433780e+01
   5.272493e+01   2.240204e+02
  -7.875667e+01   1.280516e+02
  -1.186311e+02   4.375242e+01
  -8.262423e+01  -5.814140e+01
  -1.289851e-01  -8.350104e+00
  -1.636167e+01   2.162056e+01
  -8.652020e+01   1.882360e+01
  -6.068282e+01  -2.444904e+01
   3.896483e+01  -1.049598e+02
   7.172871e+01   2.497381e+01
   6.134575e+01   3.712156e+01
   1.120992e+01   8.490221e+01
  -1.144495e+02   9.477867e+01
  -2.154068e+02  -4.252149e+01
  -7.069659e+01  -1.210971e+02
   1.303436e+02  -2.481940e+02
   2.481103e+02  -1.209748e+02
   2.145238e+02   8.069569e+01
   1.238093e+02   2.044995e+02
  -3.566867e+01   1.047372e+02
  -7.826825e+01   1.080790e+02
  -5.716842e+01   8.910348e+01
  -5.050121e+01   1.517367e+02
  -4.988427e+01   5.064656e+01
  -1.062980e+02  -2.290738e+01
  -1.552963e+02  -1.582025e+02
  -4.014090e+01  -1.993005e+02
   7.587132e+01  -1.507750e+02
   1.749799e+02  -5.636656e+00
   1.642927e+02   1.600088e+02
   1.973180e+01   1.735433e+02
  -5.088971e+01   4.210600e+01
  -1.865156e+01   2.298225e+01
  -5.326608e+01  -3.997853e+01
  -1.027628e+01  -3.442536e+01
  -2.185230e+01  -3.789057e+01
  -3.313033e+01  -1.690172e+01
  -3.106095e+01  -1.117399e+01
   4.504493e+01   1.367081e-02
   1.260357e+02   3.953422e+01
   1.123920e+02   1.840565e+01
  -1.277944e+00   5.719041e+01
  -1.133364e+02   2.704094e+01
  -1.265444e+02  -2.479370e+01
  -3.919709e+01  -5.748882e+01
   2.723226e+01  -3.346119e+01
   8.913266e+01   4.468702e+00
   2.617003e+01   4.622033e+01
  -6.100063e+01   6.315412e+01
  -5.922589e+01   9.585367e+00
  -3.328802e+00  -5.523991e+01
  -5.760242e+01  -4.460499e+01
  -1.136085e+02   2.050838e+01
  -7.287273e+01  -4.249980e+01
  -2.299972e+01  -8.402474e+01
   1.819007e+01  -1.464558e+02
   1.079314e+02  -1.116884e+02
   1.546748e+02   9.991044e+00
   1.188428e+02   8.096077e+01
  -4.639464e+00   1.037557e+02
  -7.586705e+01   1.047924e+02
  -1.125336e+02   4.601817e+01
   6.485393e+01  -2.591792e+01
   1.269768e+02   4.548755e+01
   9.118337e+01   5.370497e+01
  -7.933910e+01   9.397657e+01
  -1.739314e+02   1.864446e+01
  -1.266048e+02  -2.817522e+01
  -1.011218e+01  -5.534807e+01
   9.305015e+01  -6.596441e+01
   5.321387e+01   7.829533e+00
  -3.366199e+01   2.350681e+01
  -1.025365e+02  -8.085446e+00
  -2.243039e+01  -1.481641e+02
   6.863366e+01  -1.424549e+02
   1.259824e+02  -1.182190e+02
   9.613786e+01   1.603868e+02
  -8.237499e+00   1.538740e+02
  -4.265832e+01   1.017641e+02
  -6.776886e+01   6.035583e-01
  -4.064327e+01  -1.029515e+02
   1.860503e+01  -9.372617e+01
   1.929881e+01  -5.603043e+01
   2.049191e+01   3.286602e+01
   1.773523e+01  -4.955344e+00
   6.862700e+01  -2.479580e+00
   4.492163e+01   1.957590e+01
   3.530872e+01   1.117265e+02
   7.290258e+01   1.377209e+02
  -6.200029e+01   5.277601e+01
  -1.421690e+02  -6.759838e+01
  -1.160386e+02  -1.090131e+02
  -3.704884e+01  -6.342244e+01
   1.200773e+02   1.996760e+01
   6.752642e+01   4.104907e+01
   3.354468e+01   1.659062e+01
   1.220045e+01   5.263225e+00
   2.413645e+01  -7.622748e+00
   2.808240e+01  -1.710329e+01
   4.031630e+01   3.472361e+00
  -5.287418e+01  -2.308893e+01
  -3.720595e+01  -1.832955e+00
   2.339405e+01  -8.055146e+01
   1.400019e+02  -9.769214e+01
   1.461586e+02  -3.403412e+01
   1.330127e+02   7.374829e+01
  -1.198585e+01   1.878687e+02
  -1.083343e+02   1.511530e+02
  -8.269025e+01   6.150112e+01
  -1.069305e+02  -1.221872e+01
  -2.796148e+01  -8.194430e+01
  -2.986433e+01  -2.002938e+01
   7.960420e+00   4.665042e+01
  -3.221467e+00  -3.181933e+01
  -9.103399e+00  -3.646345e+01
   2.014011e+01  -8.393761e+01
   1.002036e+02  -5.293667e+01
   6.702235e+01   1.085185e+02
   1.976750e+00   9.266613e+01
  -8.366725e+01   5.680747e+01
  -1.110255e+02  -5.335885e+01
  -2.237173e+01  -5.003727e+01
   2.080648e+01  -4.988835e+01
   5.030290e+01  -1.707004e+01
   5.757727e+01   4.579579e+01
  -5.744597e+01   6.934387e+01
  -7.080711e+01  -1.638342e+01
   3.496828e+00  -3.953937e+00
   4.611248e+01   2.711556e+01
   1.850179e+01  -1.873921e+01
  -8.442040e+01   2.553779e+00
  -2.297985e+01   2.671106e+01
  -2.461488e+01  -2.022717e-02
   2.443226e+01  -6.855300e+01
   3.399050e+01  -9.285513e+01
   8.520852e+00   1.019974e+00
   2.880271e+01   4.500933e+01
   2.603631e+01   3.410499e+01
  -3.835939e+01  -7.617957e+00
  -6.153250e+01  -1.284850e+00
   1.952256e+01  -1.275421e+01
   1.016187e+01   1.046542e+01
   3.610999e+01   3.625011e+01
   3.906005e+01   9.437176e+00
   4.705510e+01  -3.542684e+01
   1.772898e+01  -4.564295e+00
  -1.532755e+01   4.111521e+01
  -2.011908e+01   7.278354e+01
  -2.035075e+01   2.265820e+01
  -2.387109e+01  -4.883632e+01
   4.278587e+01  -9.785127e+01
   3.712235e+01  -4.031626e+01
   9.185520e+01   3.399959e+01
   5.436249e+01   3.742401e+01
  -3.894344e+01   1.407731e+01
  -5.239195e+01   3.707466e+01
  -3.280526e+01   3.756172e+01
   3.891310e+01  -1.388128e+01
   3.932225e+01  -5.440706e+01
   4.972388e+00   4.664399e-01
  -2.102941e+01   2.346788e+00
  -4.166400e+01  -3.045049e+01
   5.200023e+01  -7.483254e+00
   6.727093e+01  -1.012952e+01
