
 $NMID
 id='ANONYMOUS ', fmtdat='(2E16.6)'
 volume=1.0
 tramp=1.0
 $END
  -4.419271e+03   1.984073e+02
  -2.563227e+03  -2.644482e+03
   1.081686e+03  -2.931174e+03
   2.289721e+03  -9.255710e+02
   8.843093e+02   8.553872e+02
  -9.069430e+02   5.413194e+02
  -1.031550e+03  -4.220543e+02
  -5.491483e+01  -1.200697e+03
   8.791999e+02  -9.235738e+02
   1.062219e+03   1.220096e+02
   4.754843e+02   9.579546e+02
  -3.191283e+02   9.481997e+02
  -6.332857e+02   1.467592e+02
  -4.201523e+02  -7.573343e+02
   2.696012e+02  -7.583684e+02
   5.774694e+02   6.085793e+01
   2.412807e+02   7.261140e+02
  -3.125679e+02   6.253290e+02
  -7.337429e+02   1.786208e+01
  -4.027074e+02  -3.594206e+02
   1.358343e+01  -4.181732e+02
   2.458632e+02  -2.306077e+02
   2.435952e+02   2.028442e+01
   1.473836e+00   1.523268e+01
  -3.886941e+02  -1.062050e+02
  -2.591820e+02  -4.252116e+02
   4.239445e+02  -3.178289e+02
   8.938732e+02   1.422975e+02
   4.792770e+02   5.281526e+02
  -4.332025e+02   5.293217e+02
  -8.366513e+02  -5.077673e+01
  -3.633013e+02  -5.764130e+02
   3.422256e+02  -4.957957e+02
   5.890720e+02  -1.942372e+02
   3.711019e+02   2.675918e+02
  -4.679378e+01   5.603601e+02
  -2.645625e+02   2.584047e+02
  -1.542040e+02  -2.886846e+02
   1.683594e+02  -5.038117e+02
   4.322315e+02   5.819131e+00
   2.194365e+02   7.364476e+02
  -3.195213e+02   6.959507e+02
  -6.595652e+02  -3.923483e+01
  -2.588756e+02  -6.210533e+02
   3.028107e+02  -3.368495e+02
   4.291090e+02   4.137189e+02
  -1.164442e+01   6.184937e+02
  -5.579899e+02   1.321087e+02
  -6.410533e+02  -3.861804e+02
  -2.709897e+02  -6.226380e+02
   3.730299e+02  -3.426911e+02
   6.240977e+02   5.854736e+01
   3.947013e+02   3.730534e+02
  -1.770031e+02   3.892762e+02
  -4.760339e+02   2.309736e+01
  -2.435431e+02  -2.121966e+02
   1.491013e+02  -1.240740e+02
   1.908124e+02   1.523939e+02
  -1.938614e+02   2.354115e+02
  -3.454139e+02  -5.640529e+01
  -1.357371e+02  -3.023491e+02
   1.941974e+02  -2.419783e+02
   3.565572e+02  -8.285381e+01
   1.989027e+02   1.281408e+02
   1.069627e+01   2.786941e+02
  -2.146696e+02   4.067343e+02
  -4.282135e+02   2.422611e+02
  -3.710840e+02  -1.786163e+02
  -8.264427e+01  -4.403118e+02
   1.308058e+02  -3.601353e+02
   1.693074e+02  -7.808396e+01
   2.176966e+01   4.432904e+01
   4.364889e+01  -6.901619e+01
   1.396208e+02  -1.386633e+02
   2.402840e+02   1.553838e+01
   1.694434e+02   2.399353e+02
  -1.025485e+02   3.145006e+02
  -2.363902e+02   4.283375e+01
  -2.186525e+02  -2.976663e+02
   5.089291e+01  -3.404083e+02
   2.632858e+02  -9.849851e+01
   3.460965e+02   1.808071e+02
   2.339457e+02   3.794097e+02
  -9.441258e+01   3.861468e+02
  -2.602128e+02   1.582850e+02
  -1.786512e+02  -6.255723e+00
  -8.943290e+01   4.113802e+01
  -2.139535e+02   5.556858e+01
  -4.553195e+02  -4.164675e+01
  -3.348353e+02  -2.960003e+02
   4.005883e+01  -4.496637e+02
   3.452942e+02  -3.854210e+02
   4.315602e+02  -1.972818e+02
   3.355148e+02   9.516969e+01
   3.925610e+01   2.860039e+02
  -1.562966e+02   2.499616e+02
  -1.223887e+02   6.721093e+01
   1.581990e+02  -9.194374e+01
   2.291224e+02  -5.129695e+00
   6.855541e+01   2.367009e+02
  -1.164512e+02   1.452542e+02
  -1.111012e+02  -4.432607e+01
   2.521789e+01  -2.006345e+02
   2.065895e+02   9.706407e+00
   1.794981e+02   2.810306e+02
  -4.533135e+01   3.718340e+02
  -2.084297e+02   1.805885e+02
  -2.886820e+02  -6.323692e+01
  -2.403033e+02  -3.108608e+02
  -1.354624e+02  -2.215681e+02
   7.493062e+01  -1.883695e+02
   1.659002e+02  -6.064316e+01
   1.563068e+02   7.656079e+01
  -6.758732e+01   3.949368e+01
  -9.819251e+00  -1.601602e+02
   9.395593e+01  -1.013269e+02
   1.501627e+02   1.469175e+01
   4.222469e+01   2.771012e+01
  -7.403157e+01  -1.996880e+01
  -2.755576e+01  -4.861063e+01
   1.352849e+02  -5.232256e+01
   2.509859e+02  -2.196004e+01
   2.484213e+02   1.461445e+02
   1.204511e+02   2.179496e+02
  -1.605238e+02   2.443754e+02
  -3.139109e+02   1.541036e+02
  -2.144858e+02  -8.113413e+00
   3.294307e+01  -1.728781e+02
   6.178141e+01  -3.187582e+01
   1.444414e+01   1.008142e+02
  -1.143517e+02   9.725690e+01
  -1.756520e+02  -6.730950e+01
  -5.226752e+01  -2.276895e+02
   8.248507e+01  -1.203183e+02
   1.222480e+02   3.747543e+01
   4.692568e+01   5.466693e+01
  -3.685430e+00   2.152697e+01
  -5.513848e+00  -1.032281e+02
   1.020817e+02  -1.012412e+02
   1.808554e+02  -1.083598e+01
   1.527815e+02   1.045484e+02
   3.702455e+01   1.504610e+02
  -1.558483e+02   1.347075e+02
  -1.966554e+02   6.935301e+00
  -8.208278e+01  -1.392892e+02
   7.747977e+01  -8.838556e+01
   5.157219e+01  -2.992301e+01
   1.814720e+01  -2.245438e+01
  -3.606140e+01   2.998938e+01
   1.540871e+01   3.066802e+01
   4.473105e+01  -3.378182e+01
   3.593022e+01   6.622040e+01
  -1.651532e+01   1.792992e+02
  -1.449460e+02   1.690519e+02
  -2.079686e+02  -1.653230e+01
  -1.923080e+02  -1.568664e+02
  -1.154308e+01  -2.126968e+02
   1.068994e+02  -1.530034e+02
   1.322358e+02  -7.919377e+00
   1.087410e+02   1.164837e+02
   1.919116e+01   7.708845e+01
   7.297115e+01   1.017768e+01
   1.549640e+02   1.102775e+01
   6.045437e+01   5.314299e+01
  -4.356337e+01   8.944974e+01
  -1.246478e+02   4.775059e+01
  -1.949045e+01  -2.840164e+01
  -4.812231e-01  -1.100743e+02
   3.554872e+01  -1.056990e+02
   1.589498e+02   5.422510e+01
   7.543694e+01   1.386557e+02
  -7.262208e+01   2.009651e+02
  -2.635691e+02   1.041602e+02
  -2.817102e+02  -8.530369e+01
  -1.621182e+02  -1.740385e+02
   8.101999e+00  -1.722217e+02
   9.926698e+01  -7.951367e+01
   8.174471e+01  -7.597262e+01
   9.008203e+01  -1.450532e+02
   7.933253e+01  -7.099664e+01
   1.365724e+02   4.209735e+01
   1.126078e+02   1.606763e+02
  -5.525397e+00   2.557153e+02
  -1.033093e+02   1.965789e+02
  -1.956052e+02   3.855115e+01
  -1.203882e+02  -1.098064e+02
   2.200848e+01  -9.992197e+01
   5.112451e+01  -1.088046e+02
   1.012437e+02  -6.386448e+00
   2.270139e+01   6.286084e+01
   5.457788e+00   7.336469e+01
   1.055362e+02   7.955088e+01
   1.143595e+02   9.826674e+01
   1.815487e+01   1.211005e+02
  -1.014676e+02   8.096731e+01
  -1.244973e+02  -7.106378e+01
  -1.477463e+02  -6.828327e+01
   1.158207e+00  -1.436299e+02
   8.839198e+01  -8.885963e+01
   1.258159e+02   8.378502e+00
   1.353631e+02   2.870352e+01
  -1.294241e+01  -7.868276e+00
  -5.854148e+01  -7.280887e+01
   7.707932e+00  -4.706616e+01
   1.369166e+01  -3.849535e+01
   6.817574e+01   6.187669e+01
   4.635379e+01   5.418004e+01
   6.925869e+01   3.566470e+01
   2.243315e+01   8.027256e+00
   1.860637e+01   4.899309e+01
   1.981908e+01   7.018466e+01
  -7.383419e+01   1.587228e+02
  -1.238255e+02   1.154429e+02
  -1.621714e+02   3.559062e+01
  -1.075462e+02  -9.161989e+01
   1.739647e+01  -1.150023e+02
   5.819826e+01  -7.819597e+01
   2.242740e+01   6.910274e+01
  -9.027321e+01   9.201427e+00
  -7.030825e+01  -6.875972e+01
  -3.521378e+01  -9.878501e+01
   2.813212e+01  -9.199192e+01
   1.554342e+02  -9.033993e+01
   1.376930e+02  -1.065432e+01
   3.910018e+01   7.686415e+01
  -5.658282e+01   7.593160e+01
  -1.360599e+00  -1.927744e+01
   4.232843e+01  -5.930100e+00
   8.658878e+01   2.584594e+01
   3.932927e+01   1.319376e+02
  -6.685303e+01   1.514861e+02
  -1.508274e+02   6.652388e+01
  -1.006236e+02  -1.257671e+02
  -1.168877e+01  -1.306042e+02
   9.934321e+01  -1.235161e+02
   8.589849e+01   3.371153e+01
   5.846296e+01   8.161925e+01
  -2.842349e+01   2.954569e+01
  -2.207871e+01   3.382907e+01
   4.302454e+01  -6.012718e+01
  -1.889399e+01   1.029820e+01
  -2.680822e+01   5.071912e+01
   1.208042e+01  -6.091855e+00
  -5.892900e+01  -8.149230e+01
  -5.061399e+01  -8.441479e+01
   6.708253e+01  -2.250123e+01
   1.410617e+02   4.777730e+01
   1.490506e+02   1.222796e+02
   1.839233e+01   4.792838e+01
  -7.621719e+01   2.847889e+00
  -6.394576e+01   1.927458e+01
  -7.563075e+00  -5.748132e+01
   7.676193e+01  -1.763763e+01
  -2.401779e+01  -9.559689e+00
  -3.040496e+01  -6.606168e+00
  -1.045082e+01  -2.291792e+01
   4.312746e+01   3.092203e+01
   9.622351e+01   2.646965e+01
  -2.286145e+01   7.849973e+01
  -8.787729e+01   7.705609e+01
  -1.559257e+02   4.406761e+01
  -1.432508e+02  -9.922662e+01
   2.025531e+01  -1.573241e+02
   9.820564e+01  -1.243042e+02
   1.222670e+02  -4.037460e+01
   1.109442e+02  -3.501074e+01
   8.810988e+00   2.319800e+01
   6.147595e+00   2.130307e+01
  -3.435904e+01   9.762209e+00
   2.478971e+01   7.915054e+01
  -2.567025e+01   7.507418e+01
  -5.963923e+01   1.110516e+02
  -8.089454e+01   7.073416e+00
  -8.845838e+01  -1.436030e+02
  -1.620638e+00  -1.275926e+02
   9.682960e+01  -5.146584e+01
   1.214104e+02   1.049219e+02
   3.096571e+01   1.439561e+02
  -4.682215e+01   1.295676e+01
  -8.948363e+01   3.293911e+01
  -3.843201e+00  -4.889889e+01
   7.242138e+01  -7.475558e+00
   5.430230e+00   2.593695e+00
  -4.269029e+01  -1.393678e+01
  -8.238542e+01  -3.069406e+01
  -4.112234e+01  -4.060030e+01
   6.107410e+01  -1.052634e+02
   1.502448e+02  -6.268462e+01
   7.625169e+01   2.678151e+01
  -6.335635e+01   7.994703e+01
  -5.350194e+01   2.751579e+01
  -2.851472e+01  -1.259564e+01
  -4.393652e+01  -7.434076e+01
   5.342365e+01  -5.926215e+01
   2.589036e+01   1.546583e+01
   3.181465e+01   3.409460e+01
   7.430410e+00   2.488448e+01
  -9.700538e+01  -2.964301e+01
  -4.622176e+01  -5.648336e+01
  -2.213807e+01  -4.336956e+01
  -1.100374e+01   1.980888e+01
   2.008573e-01   1.981967e+01
  -3.876820e+01  -4.012056e+01
   3.342567e+01  -4.628419e+01
   2.885640e+01  -3.736220e+01
   1.609701e+01   1.765500e+01
   2.041228e+01   4.298434e+01
  -3.230712e+01  -9.714662e-01
  -5.467657e+01  -4.768870e+01
  -1.125947e+00  -8.075841e+01
   5.116944e+01  -1.109932e+02
   1.306407e+02   1.108595e+01
   3.751000e+01   8.680065e+01
   2.349623e+01   1.760380e+01
  -4.982747e+01   7.216758e+00
  -1.631579e+01   1.591591e+01
   2.555720e+01   1.150148e+01
   9.567035e+01  -1.489010e+01
  -7.289112e+01   3.804850e+01
  -1.079265e+02  -1.298183e+01
