
 $NMID
 id='ANONYMOUS ', fmtdat='(2E16.6)'
 volume=1.0
 tramp=1.0
 $END
  -4.342139e+03   1.319822e+02
  -2.623037e+03  -2.762585e+03
   9.785569e+02  -3.121620e+03
   2.369305e+03  -8.304660e+02
   9.907176e+02   9.420909e+02
  -7.144147e+02   5.685501e+02
  -9.908517e+02  -5.182937e+02
   2.418828e+00  -1.173470e+03
   8.143716e+02  -9.245286e+02
   1.074317e+03   5.754009e+01
   5.042852e+02   8.351425e+02
  -2.629554e+02   9.879508e+02
  -6.508146e+02   1.523261e+02
  -4.222888e+02  -7.798489e+02
   2.770219e+02  -8.684615e+02
   6.258527e+02   1.516203e+01
   3.013190e+02   7.500414e+02
  -3.823051e+02   6.337566e+02
  -5.924264e+02   5.380446e+01
  -3.201893e+02  -3.711046e+02
   2.059858e+01  -4.543021e+02
   3.276592e+02  -2.834055e+02
   3.019862e+02  -5.159476e+01
  -4.973006e+01   1.098536e+02
  -4.759753e+02  -8.000845e+01
  -2.697132e+02  -4.407284e+02
   4.917548e+02  -3.829267e+02
   8.992079e+02   6.779495e+01
   4.266434e+02   5.684120e+02
  -4.120976e+02   5.203256e+02
  -8.157201e+02  -1.744558e+01
  -4.353947e+02  -4.930302e+02
   2.233681e+02  -5.473183e+02
   5.916200e+02  -2.600436e+02
   4.624041e+02   2.364296e+02
   4.986616e+01   5.795402e+02
  -2.423712e+02   3.395118e+02
  -2.566414e+02  -3.193413e+02
   1.194547e+02  -5.672358e+02
   5.004150e+02  -5.518105e+01
   2.416553e+02   7.748363e+02
  -3.728520e+02   7.683894e+02
  -6.474385e+02   4.758870e+01
  -2.696115e+02  -5.772863e+02
   3.524821e+02  -3.625956e+02
   4.110484e+02   3.603205e+02
  -1.056888e+02   5.427394e+02
  -5.715115e+02   1.505991e+02
  -6.430096e+02  -4.306201e+02
  -1.760179e+02  -6.249978e+02
   3.887181e+02  -3.099894e+02
   6.821812e+02   1.054550e+02
   4.152190e+02   4.399990e+02
  -2.169885e+02   3.808412e+02
  -5.045269e+02   2.464660e+01
  -2.928242e+02  -2.371854e+02
   1.364484e+02  -1.135468e+02
   1.184096e+02   2.100735e+02
  -1.819664e+02   1.880210e+02
  -3.592810e+02  -1.020989e+02
  -1.649839e+02  -3.462943e+02
   2.371547e+02  -2.882668e+02
   3.233014e+02  -3.723657e+01
   2.006058e+02   1.143552e+02
  -1.768853e+01   2.189208e+02
  -2.461578e+02   3.211330e+02
  -3.166351e+02   2.057959e+02
  -2.701962e+02  -7.978093e+01
  -1.234495e+02  -4.864530e+02
   1.821248e+02  -4.073962e+02
   1.305206e+02  -9.939538e+01
   1.111478e+01   5.762283e+01
  -1.630924e+01  -6.795264e+01
   1.579421e+02  -1.693684e+02
   2.547037e+02   5.558222e+01
   1.746123e+02   2.546005e+02
  -2.838656e+01   2.245286e+02
  -2.016569e+02   2.373967e+01
  -1.868171e+02  -2.315324e+02
   2.013672e+01  -3.222848e+02
   3.002761e+02  -1.877158e+02
   3.722842e+02   1.420822e+02
   1.892193e+02   4.037088e+02
  -1.152996e+02   3.330888e+02
  -2.313042e+02   9.734701e+01
  -1.212324e+02  -2.096399e+00
  -7.071542e+01   8.431197e+00
  -2.192289e+02   1.013787e+02
  -3.585084e+02  -4.424555e+01
  -3.173368e+02  -3.169722e+02
   1.831984e+01  -3.950351e+02
   3.583501e+02  -3.498747e+02
   5.038192e+02  -1.359592e+02
   3.613780e+02   1.084079e+02
   8.871250e+00   3.037991e+02
  -1.836178e+02   2.309965e+02
  -7.122755e+01   6.995358e+01
   1.410661e+02  -1.171770e+02
   2.047766e+02   3.849995e+01
  -2.050950e+01   2.366708e+02
  -2.292439e+02   1.833755e+02
  -2.069491e+02  -8.299684e+01
   6.977272e+01  -2.821046e+02
   2.118967e+02  -5.367144e+01
   1.894409e+02   2.672066e+02
  -7.376723e+01   3.957670e+02
  -2.169267e+02   2.006625e+02
  -2.725315e+02  -1.007222e+02
  -2.515292e+02  -2.387093e+02
  -7.246113e+01  -2.936790e+02
   1.442592e+02  -1.482114e+02
   1.903550e+02  -2.608233e+01
   8.796659e+01   5.786018e+01
  -6.704531e+01  -6.291553e+01
   1.686672e+01  -9.436922e+01
   1.481349e+02  -6.372384e+01
   1.503921e+02   4.276031e+01
   3.514147e+01   8.447294e+01
  -8.863722e+01  -2.093521e+01
  -6.458351e+01  -8.787299e+01
   1.121623e+02  -3.746253e+01
   2.349550e+02  -6.729063e+00
   2.922925e+02   1.409999e+02
   8.882403e+01   2.759970e+02
  -2.201071e+02   2.601959e+02
  -3.641823e+02   9.159163e+01
  -1.853966e+02  -8.281049e+01
   3.353297e+01  -1.543301e+02
   9.732382e+01  -1.234018e+01
  -2.022443e+01   1.495901e+02
  -1.845824e+02   7.337483e+01
  -1.881798e+02  -1.144023e+02
  -9.401673e+01  -2.633577e+02
   1.215723e+02  -1.673567e+02
   1.315228e+02  -3.419643e-01
   6.605338e+01   7.723266e+01
  -3.005161e-01  -6.443030e+00
   1.873049e+01  -6.294481e+01
   9.337800e+01  -1.345412e+02
   2.136608e+02   2.091500e+00
   2.061378e+02   1.196115e+02
  -1.488790e+01   2.071216e+02
  -1.939844e+02   1.659595e+02
  -2.176767e+02  -2.805800e+00
  -9.049441e+01  -1.711391e+02
   7.378494e+01  -1.557098e+02
   8.820780e+01  -3.939101e+01
   8.585312e+01   1.197719e+01
   1.710504e+01   2.141572e+01
   2.029181e+01  -2.054589e+01
   8.659516e+01   3.724319e+01
   8.097520e+01   9.700024e+01
  -2.240311e+01   1.516389e+02
  -1.362661e+02   8.272854e+01
  -2.450488e+02   1.427393e+01
  -2.254421e+02  -1.745737e+02
  -3.052143e+00  -2.874209e+02
   9.634355e+01  -1.180476e+02
   1.141417e+02  -5.719308e+01
   4.998180e+01   7.797127e+01
   6.005997e+01   1.156349e+01
   5.287883e+01  -1.034095e+01
   9.224186e+01  -3.749519e+01
  -8.948354e+00   3.934007e+01
  -3.713629e+01   8.869192e+01
  -7.173399e+01   5.156567e+01
  -6.606252e+01  -5.081588e+01
  -4.549930e+01  -1.604594e+02
   1.051325e+02  -8.679151e+01
   2.063100e+02   3.257935e+01
   1.155415e+02   2.172891e+02
  -7.948471e+01   2.433860e+02
  -2.692768e+02   1.264059e+02
  -3.175087e+02  -8.137197e+01
  -1.506858e+02  -2.242053e+02
   9.932084e+01  -1.545368e+02
   5.243351e+01  -1.594036e+02
   6.084742e+01  -6.871915e+01
   4.216221e+01  -4.388594e+01
   7.606701e+01  -8.190014e+01
   1.464942e+02   1.088106e+01
   1.442047e+02   7.968826e+01
   6.974487e+00   2.273576e+02
  -9.631482e+01   2.104818e+02
  -2.248237e+02   3.672806e+01
  -1.192059e+02  -1.231950e+02
  -5.052359e+01  -1.584940e+02
   7.906666e+01  -6.213457e+01
   6.108153e+01   2.790114e+00
  -4.283347e+01  -4.838739e+00
  -1.184355e+01   8.186598e+01
   5.814765e+01   6.679079e+01
   5.279181e+00   1.317371e+01
   4.972505e+01  -1.558834e+01
  -2.755471e+01   4.662981e+01
  -1.422046e+02   1.197400e+01
  -2.094441e+02  -4.136845e+01
  -2.652240e+01  -9.490283e+01
   7.758412e+01  -1.035739e+02
   1.116915e+02  -1.538267e+01
   1.974830e+01   6.851011e+01
  -5.665332e+01   2.684250e+01
  -8.981117e+01  -4.882825e+01
   4.002652e-01  -3.892831e+01
   4.442447e+01  -7.230472e+01
   8.896970e+01  -1.064551e+00
   5.891317e+01   3.754584e+01
  -2.006286e+01   2.113962e+01
   9.339936e+01   1.241499e+01
   8.380270e+01   5.573305e+01
   1.232808e+01   9.186128e+01
  -5.493633e+01   9.893250e+01
  -1.229755e+02   1.277764e+02
  -1.114630e+02   3.533379e+01
  -1.379301e+02  -8.136214e+01
   6.073425e-01  -1.335893e+02
   5.801308e+01  -1.035625e+02
   9.441781e+01  -1.164876e+01
  -5.353173e+01   3.703487e+00
  -1.433641e+02  -4.709998e+01
  -7.749678e+01  -1.885011e+02
   8.871678e+01  -9.187362e+01
   2.329701e+02  -6.579744e+01
   2.183817e+02   1.156043e+01
   1.015652e+02   5.156903e+01
  -4.056201e+01   1.072948e+02
  -2.572644e+01   3.125626e+01
   1.539164e+01  -9.743578e+00
   8.227842e+01   4.248514e+01
   5.286763e+01   1.334187e+02
  -1.334131e+02   1.994898e+02
  -1.552872e+02   2.561626e+01
  -1.017800e+02  -7.163828e+01
   3.157946e+01  -1.994888e+02
   9.850997e+01  -1.623438e+02
   1.507732e+02   1.293230e+01
   4.465037e+01   1.498294e+02
  -7.201340e+00   1.103975e+02
  -1.257962e+01   1.401822e+01
  -1.067234e+01  -5.669077e+01
   3.161860e+01  -2.899762e+01
  -3.657727e+01   4.374526e+01
  -3.756634e+01  -1.276370e+01
  -6.560566e+01  -4.780988e+01
  -1.253488e+01  -1.235096e+02
   6.414191e+01  -2.133484e+01
   1.356610e+02   6.318169e+01
   1.289537e+02   1.047453e+02
   3.421700e+01   1.177772e+02
  -1.280142e+02   2.706883e+01
  -9.731385e+01   1.981587e+01
   1.956623e+01  -2.180373e+01
   1.039007e+02  -3.953354e+00
   3.257745e+01  -7.211724e+00
   9.478284e+00   2.555283e+01
   3.197617e+01   3.453191e+01
   5.926844e+01  -2.367461e+00
   1.287894e+02  -6.989310e+00
   9.506227e+00   8.342187e+01
  -1.169150e+02   1.549337e+02
  -2.076335e+02   5.442731e+01
  -1.490477e+02  -7.861104e+01
  -6.937336e+01  -1.961942e+02
   1.088535e+02  -1.190975e+02
   1.293596e+02  -6.787376e+01
   1.279365e+02   4.387337e+01
   1.302534e+01   1.061907e+02
   1.013486e+01   6.073423e+00
   6.772395e+00  -2.290817e+00
   4.404507e+01   6.505018e+01
  -2.316920e+01   9.079924e+01
  -4.768798e+01   8.215360e+01
  -7.318411e+01   1.148368e+01
  -4.242285e+01  -7.427499e+01
   2.383799e+01  -9.404056e+01
   8.229373e+01  -3.693950e+01
   9.468459e+01   9.134289e+01
   4.918473e+01   9.396321e+01
  -5.740980e+01   5.626521e+01
  -5.439079e+01  -2.802025e+01
  -9.718762e+00  -7.969400e+01
   4.692228e+01  -4.690561e+01
   6.834791e+01  -2.019733e+00
  -6.159559e+01  -5.157062e+01
  -1.118278e+02  -9.991692e+00
  -3.708039e+01  -3.297199e+01
   7.016920e+01  -6.997139e+01
   1.221144e+02  -4.528396e+01
   6.677455e+01   4.576944e-01
  -2.915788e+00   6.810668e+01
  -3.946694e+01   1.049743e+02
  -5.344607e+01  -6.331337e-01
   2.322572e+01  -4.115747e+01
   4.643787e+01  -4.396406e+01
   1.529337e+00   1.542377e+01
   5.472775e+01   3.447740e+01
   3.114101e+01   8.139445e+01
  -6.735111e+01   1.368781e+01
  -2.106690e+01  -1.109288e+02
  -3.382692e+01  -6.928741e+01
   2.349782e+01  -7.487185e+01
   2.797248e+01  -1.384990e+01
   4.754656e+01  -3.603768e+01
   2.394293e+01  -1.596639e+01
   2.240126e+01  -3.453418e+00
  -1.386505e+01   7.644782e+01
  -3.013444e+01   5.388604e+01
  -3.765660e+01   4.879621e+01
  -6.007692e+01  -4.142425e+01
  -2.759608e+01  -1.041258e+02
   4.855485e+01  -7.087899e+01
   1.335013e+02  -1.652464e+01
   1.006814e+02   3.421293e+01
  -8.490254e+01   2.699247e+01
  -6.596051e+01   8.009308e+01
  -8.171708e+01   2.079227e+01
   5.949454e+01  -3.136810e+01
   4.676191e+01   1.023718e+01
  -6.274247e+01   3.110789e+01
  -1.005005e+02   1.910729e+01
