
 $NMID
 id='ANONYMOUS ', fmtdat='(2E16.6)'
 volume=1.0
 tramp=1.0
 $END
   4.357555e+03  -1.886297e+02
   2.742645e+03   2.355235e+03
  -5.190448e+02   2.344469e+03
  -1.968893e+03   7.764740e+02
  -9.341780e+02  -5.501557e+02
   5.508079e+02  -4.516906e+02
   7.737417e+02   3.792625e+02
  -1.208990e+02   8.791975e+02
  -6.942137e+02   6.882789e+02
  -8.671298e+02  -5.831145e+01
  -4.266166e+02  -8.016764e+02
   2.617742e+02  -7.817561e+02
   5.844373e+02  -3.254797e+01
   4.066713e+02   6.621940e+02
  -1.734428e+02   7.203324e+02
  -5.796346e+02   6.162679e+01
  -2.664842e+02  -6.880439e+02
   2.678427e+02  -6.263220e+02
   5.705800e+02  -4.201409e+01
   3.441993e+02   2.867951e+02
   1.376553e+01   3.746740e+02
  -2.446619e+02   3.402264e+02
  -1.240440e+02   5.236393e+01
   6.813935e+01  -3.524611e+01
   2.985241e+02   1.445152e+02
   1.017811e+02   4.117578e+02
  -4.595438e+02   3.062378e+02
  -7.625885e+02  -1.451151e+02
  -4.905190e+02  -5.422777e+02
   4.041781e+02  -4.886424e+02
   7.284628e+02   2.152430e+01
   2.699273e+02   4.223038e+02
  -3.237157e+02   4.881520e+02
  -5.175390e+02   2.014684e+02
  -3.776366e+02  -2.636876e+02
  -1.041578e+02  -4.824726e+02
   1.728251e+02  -2.648499e+02
   7.615608e+01   2.369157e+02
  -2.059458e+02   3.480242e+02
  -4.390984e+02  -8.259122e+01
  -1.672006e+02  -6.822440e+02
   3.403825e+02  -6.935404e+02
   5.079945e+02  -2.502823e+01
   2.163378e+02   4.945307e+02
  -2.630223e+02   2.876987e+02
  -2.921766e+02  -3.461371e+02
   9.719854e+01  -4.956333e+02
   4.554776e+02  -7.969652e+01
   5.412091e+02   3.675050e+02
   2.015348e+02   5.663244e+02
  -3.560420e+02   3.260735e+02
  -5.987480e+02  -9.913497e+01
  -3.897439e+02  -3.954118e+02
   1.553831e+02  -3.906118e+02
   4.305338e+02  -2.988794e+01
   2.497189e+02   1.551910e+02
  -6.091158e+01   1.204201e+02
  -1.187310e+02  -1.560649e+02
   1.381864e+02  -2.146750e+02
   3.300789e+02   1.176781e+02
   9.063806e+01   2.490760e+02
  -1.620996e+02   2.705962e+02
  -2.960458e+02   4.627875e+01
  -2.381949e+02  -1.404911e+02
   2.587687e+01  -3.035562e+02
   3.070146e+02  -2.837573e+02
   4.438427e+02  -2.184063e+02
   2.967151e+02   1.482799e+02
   3.092624e+01   4.474628e+02
  -1.558362e+02   3.943584e+02
  -1.172362e+02   1.773588e+02
  -1.258650e+00  -8.549463e+00
  -3.761526e+01   4.454377e+01
  -2.018933e+02   9.809825e+01
  -2.464794e+02  -6.707704e+01
  -1.591442e+02  -2.926040e+02
   7.407584e+01  -2.487468e+02
   2.379258e+02   9.523838e+00
   2.055445e+02   2.367793e+02
   2.176078e+01   3.288672e+02
  -2.754622e+02   5.651750e+01
  -3.222541e+02  -2.090764e+02
  -1.880199e+02  -3.322655e+02
   4.920343e+01  -3.355734e+02
   2.086959e+02  -1.137253e+02
   1.297643e+02  -1.529441e+01
   1.758882e+02  -6.335273e+01
   2.752253e+02  -5.501049e+01
   4.429735e+02   5.692020e+01
   3.368065e+02   3.040276e+02
  -6.369670e+01   4.364725e+02
  -4.194122e+02   4.023765e+02
  -4.594613e+02   1.924698e+02
  -3.443712e+02  -8.802052e+01
  -6.881509e+01  -3.491924e+02
   1.016410e+02  -2.521483e+02
   3.426242e+01  -4.915808e+01
  -9.830591e+01   6.964000e+01
  -1.465978e+02  -6.227734e+01
  -2.869889e+01  -1.501223e+02
   1.382809e+02  -1.824805e+02
   1.796152e+02   1.164171e+02
  -3.069296e+01   1.992142e+02
  -2.214933e+02   2.837267e+01
  -1.623093e+02  -2.360115e+02
   3.665170e+01  -3.142056e+02
   2.181438e+02  -1.669648e+02
   3.124516e+02   8.644259e+01
   2.391054e+02   2.547459e+02
   1.164929e+02   2.514450e+02
  -1.296737e+02   1.775448e+02
  -1.812138e+02   5.017148e+01
  -1.036683e+02   8.902301e+00
   2.147735e+01   1.743298e+01
  -3.327353e+01   1.120692e+02
  -1.844631e+02   8.867183e+01
  -1.908776e+02  -2.793292e+01
  -4.809538e+01  -1.353727e+02
   1.133764e+02  -1.489803e+01
   4.588986e+01   2.760760e+01
  -1.246822e+02   8.000748e+01
  -2.510594e+02  -1.746334e+01
  -3.148608e+02  -1.100333e+02
  -4.757974e+01  -2.853697e+02
   1.789028e+02  -2.475215e+02
   2.782569e+02  -1.491616e+02
   1.801937e+02   8.193611e+01
  -1.857947e+01   1.538077e+02
  -1.373444e+02   6.049900e+00
   3.729068e+01  -9.607932e+01
   2.028141e+02  -7.240857e+01
   2.641790e+02   1.161026e+02
   7.719572e+01   2.458405e+02
  -1.238726e+02   1.615437e+02
  -1.518298e+02   4.282973e+01
  -7.660762e+01  -6.823582e-01
   3.593168e+01   1.148945e+01
   3.701886e+00   8.797969e+01
  -8.804699e+01   1.047642e+02
  -2.062181e+02   3.565644e+01
  -1.801089e+02  -1.256403e+02
  -1.624730e+01  -2.328351e+02
   1.369348e+02  -1.675314e+02
   1.323700e+02   3.882147e+01
   7.963987e+01   1.495868e+02
  -7.283749e+01   1.445921e+02
  -6.738866e+01   2.813261e+01
  -7.873639e+01  -5.259686e+01
  -3.242104e+01   1.253669e+01
  -4.290608e+01   5.411474e+01
  -8.287963e+01   7.367958e+00
  -1.259870e+02  -6.574766e+01
  -5.063163e+01  -2.070499e+02
   1.571496e+02  -1.330627e+02
   2.390305e+02  -4.637540e+01
   2.044735e+02   1.318257e+02
   8.170169e+00   2.191847e+02
  -1.291210e+02   1.737504e+02
  -1.660604e+02   6.372939e+00
  -7.741350e+01  -5.930634e+01
  -6.104601e+01  -5.943814e+01
  -7.397539e+01  -1.049053e+01
  -5.102728e+01  -4.217156e+00
  -2.828504e+01  -5.550621e+01
   4.392018e+01  -9.512431e+01
   7.259167e+01  -4.020085e+01
   3.667485e+01   2.881537e+01
  -5.440950e+01   9.784355e+01
  -1.895630e+02   8.494975e+01
  -1.843224e+02  -5.696003e+01
  -1.178330e+02  -2.424665e+02
   1.365237e+02  -2.426966e+02
   2.456338e+02  -1.174056e+02
   2.423525e+02   4.268522e+01
   1.074773e+02   1.224293e+02
  -9.129718e+00   1.413963e+02
  -1.279767e+02   8.174637e+01
  -6.441098e+01   7.091739e+01
  -8.256167e+01   6.389141e+01
  -1.263483e+02   5.377044e+01
  -1.294366e+02  -6.769050e+01
  -1.050000e+02  -1.772573e+02
   1.063312e+01  -2.127341e+02
   1.020234e+02  -1.826868e+02
   2.080988e+02  -2.362453e+01
   1.238970e+02   7.125267e+01
   2.816903e+01   1.779399e+02
  -5.990190e+01   7.294763e+01
  -3.694911e+01  -6.351982e+00
   1.770524e+01  -8.049971e+01
   5.365942e+01  -5.670758e+01
  -6.588822e+01  -5.729614e+01
  -8.953659e+01  -2.900975e+01
  -7.844151e+00  -7.546426e+01
   5.388286e+01  -3.646961e+01
   1.620520e+02  -3.337023e+01
   1.208866e+02   4.534110e+01
   3.995586e+01   6.222099e+01
  -4.662072e+01   1.115787e+02
  -1.333004e+02   1.009706e+01
  -1.178102e+01  -5.901825e+01
   7.977828e+01  -5.590801e+01
   1.044698e+02   1.899903e+01
  -1.438426e+01   5.305227e+01
  -2.323227e+01   7.326708e+01
  -3.541114e+01   1.654610e+00
  -1.311279e+01  -8.697949e+01
  -2.800352e+01  -8.289876e+00
  -3.028595e+01   7.008636e+00
  -9.568761e+01  -2.529834e+01
  -6.641492e+01  -5.312105e+01
   6.049229e+01  -1.570717e+02
   1.213026e+02  -1.382495e+02
   1.502619e+02   1.137565e+00
   1.185019e+02   7.352933e+01
   3.057342e+01   1.242149e+02
  -1.061775e+02   6.689576e+01
  -7.961425e+01  -2.691771e+01
   5.357780e+01  -2.221494e+01
   1.243433e+02   2.975973e+01
   9.486684e+01   1.120627e+02
  -6.145247e+01   1.240399e+02
  -1.830335e+02   6.066881e+01
  -1.117379e+02  -4.902807e+01
  -7.999880e+00  -8.802030e+01
   3.579345e+01  -7.227156e+01
   6.268807e+01  -1.113146e+01
  -2.873378e+01   8.832145e+01
  -8.319339e+01  -4.296600e+01
  -2.259037e+01  -1.236258e+02
   9.947891e+01  -1.307707e+02
   1.638820e+02  -5.911960e+01
   1.437206e+02   1.121439e+02
   2.339886e+01   1.712422e+02
  -9.973258e+01   1.570310e+02
  -1.043831e+02  -1.297900e+01
  -1.109106e+02  -5.184361e+01
  -1.185684e+01  -1.132196e+02
   2.242527e+01  -7.883185e+01
   8.042964e+01   3.518137e+01
  -3.533429e+01   9.232136e+01
   3.742398e+01  -2.465683e+01
   2.352689e+01  -4.697710e+00
   5.337821e+01   7.348456e+01
   3.601375e+01   1.123987e+02
  -6.707230e+01   4.443211e+01
  -1.819729e+02  -7.710464e+01
  -1.495327e+02  -1.137680e+02
  -3.643691e+01  -7.886658e+01
   1.228508e+02   9.300270e+00
   1.034334e+02   4.829826e+00
   6.804683e+00   1.229047e+01
  -2.791433e+01   2.894939e+01
   3.100788e+01   2.957594e+01
   2.642499e+01  -1.420159e+00
  -1.250566e+01   1.579977e+01
  -7.814351e+01  -1.113460e+00
  -1.416134e+02  -3.048744e+01
  -3.841043e+01  -4.386095e+01
   5.873819e+01  -1.523351e+02
   2.128781e+02  -1.060921e+02
   1.485577e+02   6.781299e+01
   5.318704e+01   1.699164e+02
  -7.614119e+01   1.455881e+02
  -8.579508e+01   8.150960e+01
  -9.205216e+01  -8.476341e+01
  -2.447855e+01  -3.493118e+01
   9.442855e+01  -2.976937e+01
  -1.494195e+01  -3.633296e+01
   4.247788e+01  -7.104646e+00
  -3.555162e+01  -5.931371e+01
   3.892078e+01  -6.095106e+01
   9.912951e+01   5.793060e+01
   4.118580e+01   8.974763e+01
  -9.272389e+00   1.966973e+02
  -1.095313e+02   5.597621e+01
  -9.729217e+01  -3.236255e+01
  -5.490302e+01  -1.220577e+02
   9.460480e+01  -7.334950e+01
   5.517298e+01  -1.574717e+01
   2.595013e+01   4.036664e+00
  -7.917539e+01   5.396045e+01
  -4.955055e+01   2.446791e+01
   1.090393e+01   9.478352e+00
   5.193830e+01  -1.839509e+00
   1.002047e+01   1.917133e+01
  -1.170961e+02   3.526602e+01
  -1.072440e+02   5.634899e+01
  -5.798194e+01  -3.968199e+01
  -2.111016e+01  -1.198532e+02
   3.564125e+01  -1.007475e+02
   5.649422e+01  -5.336058e+01
   3.774736e+01   6.946201e+01
  -1.231481e+01   5.730274e+01
  -2.028359e+01  -1.612719e+01
  -3.643898e+01  -3.094945e+01
  -6.067061e+00  -4.888682e+01
   8.064754e+01   1.708216e+01
   1.896374e+01   6.542040e+01
  -3.878582e+01  -5.159515e+00
  -9.813116e+00  -8.925215e+00
  -3.230423e+01  -1.236351e+01
   2.801865e+01   6.119068e+01
   2.983234e+01   2.647371e+01
  -2.208400e+01   1.389299e+00
  -6.267583e+01   3.181896e+00
   6.555522e+00  -6.816134e+01
   3.176289e+01  -4.545791e+01
   1.641965e+01   4.513476e+01
   1.239107e+01   5.726098e+01
  -5.365562e+01   4.274356e+00
  -6.756109e+01  -3.210299e+01
  -5.725499e+01  -1.861324e+01
   6.686160e+01  -4.704872e+01
   4.511400e+01  -5.537062e+01
   7.008482e+01   5.177763e+01
  -2.922237e+01   3.055273e+01
  -9.605673e+01   1.286020e+01
   7.698791e+01  -4.000160e+01
   9.032899e+01  -3.771600e+01
