
 $NMID
 id='ANONYMOUS ', fmtdat='(2E16.6)'
 volume=1.0
 tramp=1.0
 $END
  -3.676712e+03  -1.916687e+01
  -2.397195e+03  -1.830400e+03
   2.134098e+02  -2.122954e+03
   1.494810e+03  -1.128615e+03
   8.126795e+02  -5.064076e+01
  -1.403825e+02   1.419081e+02
  -4.641290e+02  -2.180495e+02
   9.879811e+00  -6.966607e+02
   4.083523e+02  -5.412721e+02
   6.389238e+02  -6.187056e+01
   4.584376e+02   4.817118e+02
  -3.759022e+01   7.571710e+02
  -3.520332e+02   1.670040e+02
  -2.971470e+02  -5.373481e+02
   1.722488e+02  -6.761928e+02
   5.188648e+02  -9.258130e+01
   2.220236e+02   4.544816e+02
  -1.793929e+02   6.577238e+02
  -4.936753e+02   1.989889e+02
  -3.940302e+02  -1.922294e+02
  -1.620259e+02  -4.843393e+02
   1.198220e+02  -2.593575e+02
   1.461034e+02  -2.126504e+01
  -2.035784e+02  -6.165872e+01
  -3.545720e+02  -2.212929e+02
  -5.092467e+01  -3.140348e+02
   4.173311e+02  -1.784990e+02
   7.081434e+02   1.837664e+02
   3.187893e+02   4.271360e+02
  -3.716833e+02   2.820435e+02
  -5.585129e+02  -6.705557e+01
  -2.370508e+02  -3.982125e+02
   2.909333e+02  -3.643367e+02
   4.820203e+02  -1.807564e+02
   2.516759e+02   2.079315e+02
   8.182062e+01   3.675301e+02
  -3.455595e+01   2.068937e+02
   6.430338e+01  -8.678421e+01
   1.656761e+02  -2.415089e+02
   2.262491e+02   8.760627e+01
   5.156080e+01   5.570284e+02
  -2.394288e+02   4.786127e+02
  -3.577465e+02   2.964762e+01
  -1.245410e+02  -3.789051e+02
   1.693457e+02  -1.924055e+02
   2.573727e+02   3.321014e+02
  -7.899349e+01   4.038857e+02
  -4.996178e+02   7.096703e+01
  -4.989156e+02  -3.842969e+02
  -1.544190e+02  -5.197079e+02
   2.769437e+02  -2.394238e+02
   5.230089e+02   8.008852e+01
   3.545252e+02   2.824970e+02
  -7.409252e+01   2.669087e+02
  -3.308807e+02   9.883624e+01
  -2.577510e+02  -5.341682e+01
   2.335543e+01   8.004780e+00
   4.724516e+01   7.071761e+01
  -1.262840e+02   7.914591e+01
  -2.816876e+02  -5.756288e+01
  -1.612408e+02  -2.344719e+02
   1.566313e+02  -2.463757e+02
   3.567972e+02  -1.497199e+02
   2.144927e+02   4.334523e+01
  -4.100988e+01   2.510838e+02
  -3.326066e+02   3.294100e+02
  -4.093629e+02   1.943768e+02
  -2.769274e+02  -1.965819e+02
   7.801898e+00  -5.130922e+02
   1.068968e+02  -3.598402e+02
   8.911158e+01  -1.533315e+02
  -4.256931e+00  -3.912377e+01
   1.140207e+02  -1.185755e+02
   2.488366e+02  -3.325804e+01
   2.511810e+02   1.170281e+02
   8.682336e+01   3.284936e+02
  -1.619917e+02   2.144454e+02
  -1.690283e+02  -3.487712e+01
  -1.493275e+02  -2.616922e+02
   1.656398e+01  -2.581917e+02
   2.332881e+02  -9.248337e+01
   3.810124e+02   1.032719e+02
   2.285937e+02   3.371573e+02
   1.350049e+01   3.143186e+02
  -1.873939e+02   1.829605e+02
  -1.176275e+02   8.253409e+01
  -1.665504e+02   7.438660e+01
  -3.055433e+02   5.286072e+01
  -5.057458e+02  -7.497552e+01
  -3.151266e+02  -2.905849e+02
   6.530239e+01  -4.801861e+02
   3.988078e+02  -4.545528e+02
   4.854274e+02  -1.552238e+02
   2.496706e+02   1.124979e+02
  -1.588508e+01   2.914675e+02
  -1.212493e+02   2.470020e+02
  -6.103265e+01   1.089362e+02
   6.448301e+01  -9.564843e+01
   1.784043e+02   2.167415e+01
   7.781793e+01   1.391187e+02
  -1.003491e+02   8.953920e+01
  -1.507141e+02  -6.688478e+01
  -7.453933e-01  -1.260197e+02
   1.774627e+02   2.549416e+00
   1.858757e+02   2.300924e+02
  -5.884080e+01   3.978048e+02
  -2.288122e+02   2.306142e+02
  -3.218086e+02  -6.320643e+01
  -2.822354e+02  -2.456329e+02
  -7.225855e+01  -2.675824e+02
   1.248299e+02  -1.714105e+02
   2.057132e+02  -3.731471e+00
   6.526786e+01   4.867200e+01
  -5.777230e+01  -3.511927e+01
  -2.411971e+01  -1.321204e+02
   9.626152e+01  -2.798332e+01
   2.075009e+02   6.085291e+01
   4.245071e+01   2.467576e+01
  -8.747885e+01   1.260530e+00
  -7.604428e+01  -1.782600e+01
   1.404153e+02  -7.333497e+01
   3.034887e+02   1.452811e+01
   2.894194e+02   1.617259e+02
   2.058530e+01   2.527728e+02
  -2.313913e+02   2.431150e+02
  -3.306924e+02   1.138013e+02
  -2.120098e+02  -5.585074e+01
  -1.813271e+01  -1.308643e+02
   9.295818e+01  -1.722213e+01
  -8.757265e+01   7.215089e+01
  -2.219323e+02   4.198383e+01
  -2.060237e+02  -8.962998e+01
  -8.523924e+01  -2.216348e+02
   1.679032e+02  -1.004783e+02
   1.295503e+02  -1.729946e+01
   6.760929e+01   8.990623e+00
  -2.167310e+01   1.400774e+01
  -4.478600e+01  -5.907685e+01
   1.051688e+02  -1.282347e+02
   2.109759e+02  -4.435125e+01
   1.835484e+02   9.137551e+01
   3.950540e+00   1.957610e+02
  -1.528771e+02   1.199380e+02
  -1.590962e+02   5.538382e+01
  -8.083573e+01  -7.686336e+01
   5.378510e+01  -9.757966e+01
   9.008789e+01  -7.528729e+00
   4.311964e+00   1.722316e+01
  -1.834797e+01   4.064741e+01
  -2.504726e-01  -3.519084e+01
   8.631688e+01  -1.833569e+01
   9.669585e+01   1.064857e+02
   3.384622e+01   1.728035e+02
  -1.800386e+02   1.985197e+02
  -3.049043e+02   3.170206e+01
  -2.123698e+02  -1.822443e+02
  -1.122337e+02  -2.959806e+02
   1.508969e+02  -1.852223e+02
   2.029094e+02  -4.247273e+01
   1.137306e+02   7.215628e+01
   7.908678e+01   9.786089e+01
   6.459377e+01  -2.297673e+01
   1.035465e+02   1.208460e+01
   8.429994e+01   9.336111e+01
  -4.349579e+01   1.516198e+02
  -8.278897e+01   8.114372e+01
  -9.123286e+01  -3.117274e+01
  -2.843837e+01  -8.101507e+01
   1.342641e+02  -9.790063e+01
   2.271317e+02   6.336515e+01
   1.129902e+02   2.184002e+02
  -1.624543e+02   2.530690e+02
  -2.667277e+02   3.987733e+01
  -2.239432e+02  -6.025801e+01
  -1.127491e+02  -1.833043e+02
   2.758047e+01  -1.343365e+02
   9.155594e+01  -9.577376e+01
   6.533662e+01  -6.867521e+01
   5.711593e+01  -1.096275e+02
   1.007499e+02  -9.544115e+01
   1.441350e+02   6.137635e+01
   1.712389e+02   1.400998e+02
   6.034677e+00   2.494276e+02
  -1.282643e+02   2.024281e+02
  -1.488575e+02   4.710104e+01
  -9.497165e+01  -8.708011e+01
  -8.670221e+00  -1.093564e+02
   1.032307e+02  -9.065398e+01
   5.983210e+01  -2.786446e+01
   5.010581e+00   6.648740e+01
  -2.198710e+01   7.721471e+01
   3.665493e+01   6.417944e+01
   1.134612e+02   7.159278e+01
   4.260363e+01   7.074567e+01
  -8.855585e+01   5.118678e+01
  -1.853066e+02  -7.653193e-01
  -1.534834e+02  -7.378303e+01
  -2.466357e+01  -5.735904e+01
   1.525743e+02  -9.569520e+01
   1.460404e+02  -3.197389e+01
   8.794154e+01   6.149831e+01
  -1.129862e+02   6.920044e+01
  -1.173817e+02  -1.024933e+01
  -9.212574e+00  -1.058439e+02
   6.494452e+01  -2.867145e+01
   8.512212e+01   1.046782e+01
   5.989828e+01   7.694886e+01
   4.715641e+01   7.332438e+01
   6.414907e+01  -3.291887e+01
   9.979925e+01  -1.363590e+01
   5.111681e+01   5.838804e+01
  -2.715327e+01   1.246743e+02
  -1.663764e+02   1.960950e+02
  -1.627422e+02   3.370926e+00
  -1.171750e+02  -1.031066e+02
  -1.063357e+01  -1.139285e+02
   1.033426e+02  -6.651894e+01
   2.847722e+01   9.537531e+00
  -9.983438e+01   4.624092e+01
  -9.080148e+01  -4.184128e+01
  -6.339855e+01  -1.249738e+02
   1.221413e+02  -6.396742e+01
   2.428965e+02  -9.170068e+01
   2.342001e+02   6.707877e+00
   6.249006e+00   1.041289e+02
  -8.202691e+01   8.267036e+01
  -1.054500e+01   2.155647e+01
   4.565989e+01  -1.298338e+01
   5.760117e+01  -1.290903e+01
   6.217003e+01   1.077698e+02
  -2.332629e+01   1.533129e+02
  -1.799523e+02   5.964837e+01
  -1.514676e+02  -1.000921e+02
  -4.853209e+01  -2.038406e+02
   6.847069e+01  -1.389303e+02
   1.144541e+02  -1.386654e+01
   6.979150e+01   9.853662e+01
   3.676743e+00   9.599843e+01
  -5.944837e+01   4.219339e+01
  -6.352261e+01  -8.373003e+01
  -3.052468e+01   9.382956e+00
  -3.277606e+01   2.352091e+01
  -2.722426e+01  -1.746431e+01
  -2.546287e+01  -1.051293e+02
  -2.021406e+01  -1.076814e+02
   4.525524e+01  -3.385408e+01
   1.419721e+02   4.474961e+01
   1.129963e+02   9.094252e+01
   4.422813e+01   9.944793e+01
  -6.517257e+01   4.069997e+00
  -1.343407e+02   1.951425e+01
  -4.936654e+00  -1.973917e-01
   6.092957e+01   1.684534e+00
   4.778392e+01   8.122520e+00
   1.867313e+01   1.346893e+01
  -2.876555e+01   3.794250e+01
   4.873273e+01   5.479249e+00
   8.535614e+01   1.167580e+01
   1.755513e+01   4.828389e+01
  -1.236688e+02   1.238201e+02
  -1.877329e+02   8.002367e+01
  -1.470731e+02  -5.745644e+01
  -6.163662e+01  -1.646972e+02
   4.549249e+01  -1.353619e+02
   1.606381e+02  -5.409927e+01
   8.267471e+01   3.381833e+01
   2.644708e+01   3.636488e+01
  -3.805663e+01   3.537387e+01
   2.524809e+01  -3.065256e+01
   1.422970e+01   4.539666e+01
   1.013887e+02   6.559281e+01
   5.141466e+00   1.323312e+02
  -9.215818e+01  -2.127366e+01
  -4.193417e+01  -1.233108e+02
  -4.350268e+01  -8.811766e+01
   9.390266e+01   1.827070e+00
   8.590217e+01   9.674409e+01
   4.056094e+01   1.007054e+02
  -8.351430e+01  -7.767549e+00
  -1.527535e+02  -1.902742e+01
  -2.952509e+01  -7.808218e+01
   8.512869e+01  -4.598735e+01
   1.981843e+01  -1.682373e+01
  -4.519802e+01   3.193225e+01
  -8.934963e+01  -3.394478e+01
  -1.669532e+01  -3.035087e+01
   2.839624e+01  -9.424385e+01
   6.844332e+01  -7.002510e+01
   1.045494e+02  -8.802611e+00
  -4.238936e+01   1.152379e+02
  -4.579610e+01   1.068325e+02
  -3.832479e+01  -4.389723e+01
   3.274616e+00  -6.354527e+01
   7.518392e+01  -4.678346e+01
   8.542301e+01  -1.628560e+01
   2.306545e+01   5.139621e+01
  -3.528985e+00   6.505070e+01
  -7.688961e+01  -5.059047e+01
   1.591332e+01  -5.079738e+01
  -2.214828e+01  -3.788874e+01
  -1.136437e+01   3.248287e+01
   1.081173e+01   2.779293e+01
  -1.836534e+01  -3.851948e+01
  -3.754119e+01  -1.043384e+02
   6.379626e+01  -4.238535e+01
   6.615521e+01   3.666232e+00
   5.305696e+01   7.413309e+01
  -2.557627e+00   1.138964e+01
   1.995748e+00   9.582879e+00
  -2.531474e+01  -3.722688e+01
   5.093178e+01  -3.662853e+01
   1.531506e+02  -2.090823e+01
   7.314901e+01   6.153092e+01
  -4.148381e+01   2.327895e+01
  -6.305949e+01   5.150936e+01
  -4.689375e+01   1.284218e+01
   1.161259e+01   1.576029e+01
   1.765243e+01  -4.798071e+00
  -5.198815e+01   3.103201e+01
  -1.062764e+02   3.174680e+01
