
 $NMID
 id='ANONYMOUS ', fmtdat='(2E16.6)'
 volume=1.0
 tramp=1.0
 $END
  -4.785266e+02  -3.410615e+01
  -1.008085e+02  -1.456384e+02
   5.680407e+01   1.807799e+01
   2.692070e+01  -4.137157e+01
   1.641779e+01  -5.758231e+01
  -5.846665e+01  -7.793448e+00
  -1.676216e+00   1.692166e+00
   9.646513e-01  -1.359346e+01
  -3.674903e+01  -3.357952e+01
   4.279809e+00  -4.386838e+01
   1.898865e+01   4.622853e+00
   2.891574e+01   4.596473e+01
   6.256007e+01   7.803117e+00
  -4.297847e+01   5.533582e+01
  -1.810875e+01   1.076174e+01
  -6.424033e+01   4.453357e+01
  -8.062437e-02  -7.267317e+01
  -4.888918e+00  -1.164878e+01
  -1.306077e+01  -8.204102e+00
   1.074628e+01   8.556996e+00
   2.477971e+01   5.514929e+00
  -2.807331e+01   1.933502e+01
  -1.814316e+01  -4.324504e+01
   5.505140e+00   1.801220e+01
  -6.276861e+01  -1.664844e+00
   6.215810e+01  -5.614863e+00
   1.211023e+01  -2.268926e+00
   5.061715e+01  -1.587502e+01
   2.795751e+01   5.781055e+01
  -1.099097e+01   2.409249e+00
   4.146412e+01  -2.009797e+01
   4.961462e+01   4.763968e+00
   4.326847e+01  -2.169312e+00
   1.249405e+01   1.104544e+01
  -1.048951e+01  -2.233885e+00
   1.240337e+01  -5.897036e+00
   2.200158e+01   5.409706e+01
   1.945516e+01   1.432679e+01
   1.215377e+01  -1.481116e+00
  -2.706044e+01   1.593095e+01
   2.641175e+01   5.105807e+00
  -2.416940e+01   6.765508e+01
  -3.304629e+01   4.935783e+01
  -4.106142e+01   8.982904e+00
  -2.008910e+01   1.844633e+01
  -2.850149e+01   1.515399e+01
   1.640177e+00   3.333808e+00
   1.132585e+01  -2.013503e+01
  -2.941007e+01   1.514006e+01
  -1.574717e+01  -4.616661e+00
  -6.340141e+00   7.013420e+00
  -1.266406e+00   1.592552e+01
   2.657923e+01  -2.951541e+01
  -1.291784e+01  -2.592317e+01
  -1.247912e+01  -1.276067e+01
  -2.046740e+01   7.230505e+00
   2.316208e+00   4.294470e+00
  -1.085377e+01  -5.272368e-01
  -1.132065e+01  -2.685839e+01
  -1.110245e+00  -2.618299e+01
  -3.019553e+01  -1.609369e+00
   8.608627e+00  -3.522641e+01
  -1.926178e+01  -1.929367e+01
  -1.890962e+01  -6.815815e+00
   9.070778e+00  -1.828131e+01
  -1.584890e+01  -7.045785e+00
  -2.501416e+01   3.624071e+01
   1.656421e+00  -3.595748e+00
  -1.026668e+01  -3.370687e+01
  -1.667047e+00  -1.494944e+01
   1.679759e+01  -1.699103e+01
  -5.291984e+00   4.391720e+00
  -1.534411e+00   1.037817e+01
   9.542030e+00  -3.290543e+01
   5.767310e+00   3.132998e+01
   4.408921e+01  -2.622138e+01
   4.004665e-01  -1.772920e+01
   2.041959e+01  -1.699795e+01
  -2.472114e+00   5.624735e+00
   2.029397e+00  -1.170544e+01
  -6.579873e-02   3.992729e+01
  -1.613900e+01  -7.041841e+00
   7.388262e+00   2.085673e+01
   9.913844e-01   1.657746e+01
  -3.311989e+00   2.914071e+01
   6.329504e+00   1.101761e+01
  -2.315573e+01   1.303283e+01
  -1.922261e+01  -6.083357e+00
  -1.408932e+01  -7.221368e+00
   1.531368e+01  -5.310710e+00
  -7.938847e+00   2.355370e+01
  -2.556574e+00   3.133878e+00
   3.676874e+01  -1.565845e+01
   5.953577e+00  -3.408965e+00
  -1.567371e+01  -2.841992e+00
  -1.749929e+01   1.931411e+01
   2.872614e+01   2.235713e+01
   1.947833e+01   2.078571e+01
  -6.415252e+01   5.503552e+01
  -1.916908e+00  -2.258013e+01
  -1.498539e+01  -3.103237e+00
   1.386568e+01   2.154168e+01
  -5.379789e+01   2.530979e+01
   4.891593e+00   2.006382e+00
  -1.850154e+01   5.882187e+01
  -1.329464e+01  -1.605466e+00
  -2.684423e+01   1.485407e+01
   4.141948e+01   1.075010e+00
  -5.177520e+01   2.438695e+01
  -1.895210e+01  -8.646492e-01
  -4.192973e+01   4.212577e-01
   9.981804e+00   1.853813e+01
   2.080108e+01   2.584143e+01
   1.081571e+01  -5.820695e+00
  -2.065152e+01  -2.410917e+01
  -1.072937e+01   6.613783e+00
  -9.449965e+00  -1.322704e+01
  -1.725518e+01   3.696344e+00
   6.862902e+00  -4.011888e+01
   2.976300e+01   3.583459e+01
   1.393534e+01   1.729756e+01
   1.258360e+01  -1.595940e+01
   1.139344e+01   4.483836e+01
  -1.714746e+01  -9.940776e+00
  -2.779950e+01  -3.852605e+01
   2.882056e+01   1.259670e+01
  -3.969269e+00   3.133109e+01
  -1.057123e+01  -1.795555e+01
  -2.049039e-01   1.042596e+01
   2.046828e+01  -3.903328e-01
  -1.449657e+01  -1.293020e+01
  -5.830414e+00  -1.979922e+01
  -4.480078e+01  -1.999510e+01
  -3.890806e+00   6.772631e+00
   2.995842e+00   1.879443e+01
   2.464892e+01  -8.105214e+00
   3.074709e+01  -2.296495e+01
   1.614166e+01  -4.925655e+00
  -8.864518e+00   1.410644e+01
   3.889689e+00  -6.548675e+00
   3.659042e+01  -2.391011e+01
  -1.361828e+01  -3.584425e+01
  -2.672418e+01  -6.031010e+00
   1.204904e+01   5.126024e+00
   1.399798e+01  -1.452001e+01
   3.086964e+01   2.650106e+01
   3.718264e+00   7.787156e+00
  -2.368883e+01   1.870168e+01
   9.300473e+00  -1.641192e+01
  -1.115567e+01   3.313362e+01
  -1.012430e+01   5.965274e+00
  -3.707586e+00   2.014555e+01
   1.759743e+01   1.198048e+01
  -5.366374e+00   1.180571e+01
   5.559466e+00  -4.769655e-01
  -3.148703e+01   2.626484e+01
   8.712169e+00   4.678627e+01
  -2.691318e+01   1.401752e+01
   1.730489e+01  -3.978340e+01
   2.391791e+00  -1.778331e+01
   3.062672e+01  -1.201133e+00
  -2.523472e+01  -9.208670e+00
  -5.572070e+00   5.347182e+00
  -1.420094e+01   9.115559e+00
   5.465777e+00   4.079029e+01
   1.406486e+00   7.110676e-01
   1.885427e+01  -1.426477e+01
   3.876208e+01   4.859191e+00
  -1.581714e+01   7.326629e+01
   6.185585e+00  -5.467136e+00
  -1.872123e+01   2.725395e+01
  -2.636580e+01  -2.490020e+01
   9.187620e+00   1.114853e+00
  -1.722854e+01   9.802551e+00
  -4.016525e+00   1.904477e+00
   2.632305e+01   2.127072e+01
   5.797002e+00   1.434164e+01
   9.967949e+00  -1.497239e+01
  -1.216675e+01  -3.376977e+01
  -1.289409e+01  -5.343885e+00
  -1.418825e-01  -3.311006e+01
  -7.444918e-01   2.850715e+01
  -4.662399e-01  -5.136630e+00
   2.676528e+00   4.075490e+00
   3.727998e+01   1.011894e+01
   2.655284e+01  -1.964464e+01
  -3.204536e+01  -4.433885e+01
  -2.614368e+01  -2.898509e+01
   1.873782e+01  -6.396781e+00
  -1.250925e+01   2.170492e+01
   3.600276e+01   2.855772e+01
  -2.056607e+01  -1.537928e+01
   1.159942e+00  -8.677158e+00
  -5.155814e+00  -1.736959e+01
   7.685737e+00  -2.128794e+01
  -9.775984e+00   5.543910e+00
  -2.931318e+01   4.002708e+01
  -3.906116e+01  -2.093440e+00
   2.011505e+01   7.475301e+00
   5.029348e+00  -8.070386e+00
   2.573334e+00  -3.429547e+01
  -3.374437e+00  -9.547938e+00
   3.525175e+01   2.828125e-01
  -7.741266e+00   1.914656e+01
   9.814915e+00   5.051405e+00
   3.859782e+01  -1.796269e+01
   9.506159e+00   4.939758e-01
   1.154004e+00   1.906324e-02
  -1.601308e+01   2.350725e+00
   2.245071e+01  -6.361311e+00
   1.330394e+01   4.062292e+01
  -1.026753e+01  -1.351093e+01
   2.384869e+01   3.456393e+00
   8.604901e+00  -1.613627e+01
   8.341240e+00  -1.287562e+01
  -2.508496e+00  -1.984377e+01
   3.322477e+00   3.396443e+00
  -1.291218e+01   2.215704e+01
  -5.532698e+01  -1.706233e+01
  -5.177780e+01   2.394660e+00
   2.318639e+01  -8.911089e-01
   1.393858e+01   8.462237e+00
   4.920101e+01  -9.840543e+00
   3.696056e+01  -1.036332e+00
   3.336326e+01   2.092461e+01
  -3.675256e+01   2.718891e+01
  -2.860174e+01  -4.702949e+01
  -3.754166e+00  -1.347224e+01
  -1.903624e+01  -3.219870e+00
  -3.303684e+01  -1.226729e+00
   1.099690e+01   4.920002e-01
   1.627428e+01   3.139900e+01
  -1.147735e+01  -4.497364e+01
  -1.525962e+01  -4.928559e+01
   2.669029e+01  -2.313542e+01
  -1.402425e+00  -3.732864e+01
   2.876104e+01   2.090593e+01
  -4.253482e+01   1.503748e+01
   1.170202e+01   1.623018e+01
  -3.044190e+01  -3.011206e+01
  -1.225353e+01   2.153077e+01
   2.608984e+00  -8.494244e+00
   4.849479e+01  -4.525036e+00
   1.502203e+01  -1.298811e+01
  -5.223423e+01  -2.152484e+01
  -3.835258e+00   4.854386e+00
   3.376810e+01   1.145253e+01
  -8.443613e+00  -2.079293e+01
   6.717106e+00  -4.531152e+01
   1.796836e+01   6.745244e+00
  -3.271622e-01   3.862339e+01
   2.534002e+01  -2.572885e+01
  -6.560369e+00   9.965922e+00
   2.206719e+01   3.083925e+01
   1.518986e+01  -3.646520e+00
   3.615226e+01   3.965796e+00
  -2.996523e+01  -2.079631e+01
   2.007970e+01  -7.759437e-01
  -5.665978e+00   2.530468e+01
   2.367780e+01  -6.070950e+00
   7.458598e+00   2.234040e+01
  -1.746491e+01   2.124176e+01
   1.722108e+01  -1.704566e+01
  -9.379626e+00   1.223607e+01
   2.266470e+01   1.599376e+01
   2.876598e-01  -1.622735e+00
  -1.394267e+01   6.242919e+00
  -4.320240e+00  -2.403754e+01
  -4.398098e+00  -2.459736e+01
   9.897257e+00   2.324229e+01
   1.792747e+01   1.397574e+01
   4.826167e+00   1.199526e+01
  -1.670315e+01  -2.522854e+01
  -5.564771e+00   1.427716e+01
  -3.137110e+01  -1.661567e+01
   1.052206e+01  -1.803976e+01
  -2.069797e+01   1.615642e+01
   2.745716e+01  -3.908665e+01
  -3.601709e+01  -4.310799e+00
   3.101684e+01   9.970297e+00
  -5.660040e-01   1.108718e+00
   1.755127e+01  -7.177949e-01
  -1.598572e+01   4.521049e+00
   4.917303e+01  -8.082522e+00
   2.658872e+01   6.844908e+00
  -1.379449e+01   1.657188e+01
  -3.696864e+01  -1.456083e+01
   1.434669e+01  -9.156652e+00
  -3.323850e+01  -4.074271e+00
  -4.746192e+00  -1.027220e+01
   2.112490e+01  -2.526288e+00
   1.519792e+01   1.522719e+01
  -2.203871e+01  -6.358263e+00
   1.197358e+01  -2.385096e+01
  -2.655986e+01  -2.446062e+00
  -2.414793e+01  -3.269553e+00
   5.232316e+01   2.337287e+01
   9.085267e+00   8.449802e+00
  -2.451475e-01  -5.462133e+00
  -1.649614e+01  -1.773122e+01
  -2.197688e+01   2.017464e+01
   7.839120e+00   1.157419e+01
   3.213627e+01  -7.876961e+00
  -9.512429e+00  -2.726400e+00
  -2.432241e-01   1.083046e+01
  -6.539229e+00  -6.378927e+00
  -1.211912e+01   4.824200e+00
  -2.802416e+00  -2.048916e+00
   2.607108e+01  -8.659525e+00
  -1.513405e+01   2.516411e+01
   8.154927e+00   5.909037e-01
  -1.608189e+01  -2.566118e+01
   9.583306e+00   2.942746e+01
   6.041730e+00   5.716482e+00
  -1.361992e+01   6.245461e+00
  -3.224406e+01  -1.952437e+01
  -1.992207e+01  -6.241796e+00
   6.541727e+00   4.520052e+01
   4.673036e+01   1.231721e+01
  -1.957936e+01   1.133629e+01
