
 $NMID
 id='ANONYMOUS ', fmtdat='(2E16.6)'
 volume=1.0
 tramp=1.0
 $END
   1.139775e+03   1.102191e+02
   5.075844e+02   3.876323e+02
   2.390050e+01   3.611536e+02
  -3.088640e+02   2.627796e+02
  -1.433846e+02   1.413250e+02
  -1.818967e+01   7.066225e+01
   2.858088e+01   5.645609e+00
  -3.875860e+01   7.337944e+01
  -3.993369e+01   1.031773e+02
  -3.189995e+01  -1.868003e+01
  -9.135685e+01  -1.473840e+02
  -1.167190e+01  -1.340299e+02
   4.825168e+01  -3.639649e+01
   8.449646e+01   6.542599e+01
   7.498098e+00   6.471488e+01
  -6.349505e+01  -4.300639e+00
  -8.930418e+00  -5.769164e+01
   1.131312e+01  -1.322465e+01
   1.590762e+01  -1.124635e+02
   4.795348e+01   2.973639e+01
  -2.434080e+01   9.036970e+01
  -1.348860e+01   6.637492e+01
  -1.763531e+01   5.037395e+01
   9.329707e+00   9.699876e+01
  -1.137762e+01   6.524562e+01
   1.103696e+00   3.530238e+00
  -8.750036e+01  -9.880210e+01
  -1.550843e+02  -3.936276e+01
  -6.426697e-01  -5.323829e+01
   2.470100e+01   1.187964e+00
   1.116006e+02   2.524053e+01
   6.996378e+01   8.615666e+01
   1.563049e+00   2.065368e+01
  -4.211968e+01   1.343448e+01
  -7.199467e+01  -2.299525e+01
  -3.613786e+01  -5.445599e+01
  -5.682214e+01  -5.222468e+01
  -6.698822e+01   2.302929e+00
  -3.144971e+01   1.778625e+01
   2.654911e+01  -3.280112e+01
   6.569079e+01  -7.577146e+01
   6.508467e+01  -6.689753e+01
   6.999809e+01   3.061008e+01
  -3.471257e+01   1.929531e+01
  -4.008686e+01   2.271945e+01
   6.001048e+00  -3.087127e+01
   4.643592e+00  -6.818557e+01
   8.218663e+01   3.911372e+01
   9.659781e+01   1.111740e+02
   3.739129e+01   7.190670e+01
  -8.407709e+01   3.200487e+01
  -1.302618e+02  -2.857329e+01
  -1.290109e+02  -3.376062e+01
   8.336100e+00  -2.929500e+01
   4.778986e+01  -2.772800e+01
   1.074489e+02   6.195961e+00
   2.387968e+01  -1.509073e+01
   2.417476e+01  -3.171473e+01
   2.922965e+01   2.011767e+01
   2.287979e+01   4.104863e+01
   7.461400e-01   7.392328e+01
  -5.222307e+01   9.554768e+01
  -1.130103e+02   5.446726e+01
  -6.144562e+01  -1.708121e+01
   3.583510e+01  -6.697597e+01
   7.364972e+01  -6.956168e+01
   5.392583e+01  -3.392006e+01
   6.422784e+00   5.700449e+01
   6.903561e+00   1.064333e+02
  -3.441937e+01   7.318891e+01
  -3.435306e+01   3.616441e+01
  -1.465496e+01   2.859703e+00
  -3.932664e+01   2.222429e+01
  -2.409348e+01  -2.260217e+01
  -4.113737e+01  -4.091549e+01
   1.008584e+01  -1.351707e+01
  -4.963298e+00  -4.254585e+00
   2.497697e+01   7.571012e+00
  -2.532883e+00   6.643036e+01
  -1.303673e+01   5.447277e+01
  -6.680952e+01  -2.938639e+01
  -3.811520e+01  -4.029566e+01
  -6.360352e+01  -7.620899e+01
  -1.269923e+00  -8.254169e+01
   2.769127e+01  -6.013160e+01
   5.372290e+01  -2.505428e+01
   4.860268e+01  -2.292786e+01
   8.775383e+01  -2.039085e+01
   7.600244e+01   2.480618e+01
   3.663849e+01   4.809557e+01
  -5.952879e+01   9.369616e+01
  -8.635325e+01   8.561614e+01
  -1.382187e+02   6.387005e+01
  -4.637056e+01  -3.038087e+01
   4.842833e+00  -3.531936e+01
   4.888693e+01  -5.321590e+01
  -2.082758e+01  -6.474400e+01
  -4.705230e+01  -6.893501e+00
   3.371887e+00  -2.757999e+01
   1.087506e+01  -1.056566e+01
   3.378478e+01   1.625864e+01
   8.974948e+00   1.836995e+01
   1.855378e+01   2.908645e+01
  -4.414961e+01  -2.032505e+01
   1.447525e+00  -3.796748e+01
  -2.990086e+01  -1.009578e+02
   2.553173e+01  -5.328031e+01
   2.903733e+01   1.128228e+01
   1.948506e+01   6.464296e+01
   2.671665e+01   6.153867e+01
  -3.961286e+01  -1.418450e+01
  -2.739239e-01  -5.783273e+00
  -1.415334e+01   1.662083e+01
   2.134086e+01   2.717377e+01
  -3.997823e-01   3.493630e+01
  -1.903533e+01   2.790409e+00
  -5.728599e+01  -2.335156e+01
  -2.139300e+01   3.687196e+01
   5.316161e+00   4.839153e+00
   2.304613e+01   1.788161e+01
  -3.499505e+01  -2.265654e+01
  -7.742841e+01  -4.579931e+01
  -7.262728e+01  -6.830667e+01
  -4.455913e+01  -7.169107e+01
   5.873493e+01  -4.547208e+01
   6.132064e+01  -2.368777e+01
   4.801022e+01  -3.147009e+01
  -1.998395e+01   1.960445e+01
   1.528442e+01  -1.782368e+01
  -2.091718e+01   9.467776e+00
   7.706027e+01   1.920917e+00
   4.018355e+01   4.670785e+01
   3.947899e+01   2.477840e+01
  -3.986138e+01   4.708795e+01
   1.783918e+00  -1.764556e+01
  -5.288633e+01   3.157217e+00
  -1.304645e+01   4.611196e+00
  -7.716987e+00   1.989054e+01
  -5.557994e+00   9.728362e+00
   1.917309e+00  -1.697834e+01
  -2.769362e+01  -5.758506e+01
   2.122980e+01  -3.392183e+01
   2.777838e+01   2.251135e+00
   3.543043e+01   2.783107e+01
   2.026683e+01   3.812387e+01
  -3.533333e+01   4.019647e+01
  -5.309258e+01   5.148914e+01
   5.297907e+00   4.279890e+01
   3.624371e+01   1.413921e+01
   1.960706e+01  -2.686193e+00
  -2.693475e+01  -1.751911e+00
  -3.314253e+01  -5.587111e+01
   1.316748e+00  -6.252160e+01
   3.507619e+01  -6.779646e+01
   6.296408e+01   2.674567e+00
   2.875098e+01   3.168282e+01
   3.166761e+01   2.463258e+01
  -1.208127e+01   3.247488e+01
  -8.024597e+00  -1.000259e+01
   4.989838e+00  -1.077884e+00
   1.739326e+01   7.832798e-01
   5.129498e+00   2.316475e+01
  -3.209120e+01  -1.645980e+01
  -1.736649e+01  -1.479147e+01
   4.734772e+01  -3.124439e+01
   2.378544e+01  -6.587022e+01
   2.079549e+01  -1.924723e+01
  -2.917074e+01   7.927843e+00
  -5.114641e+01  -3.067308e+01
   1.279360e+00  -3.728833e+01
   2.046835e+01  -7.519249e+01
   6.512528e+01  -7.357741e+01
   9.433263e+01   7.364937e+00
   1.001037e+02   3.043620e+01
   1.547213e+01   4.508164e+01
   2.749275e+00   2.767684e+01
  -5.710041e+01   7.932154e+01
  -4.876089e+01   4.097925e+01
  -2.061816e+01   3.066860e+01
  -3.644428e+01  -7.818980e-01
  -9.168831e+00   1.980445e+01
  -3.823914e+01  -2.274264e+01
   8.410973e+00  -6.195932e+00
  -1.125503e+01   3.847306e+00
   3.497702e+01   7.290316e+00
   4.082575e+01   5.835301e+01
   7.459509e+01   3.866724e+01
  -1.376628e+01   5.094535e+01
   2.988895e+00   2.218414e+01
  -1.313099e+01  -2.606149e+01
  -1.590796e+01  -3.002836e+01
   9.133067e+00  -2.357538e+01
  -3.985541e+00   2.343420e+01
   4.468410e+00   5.900532e+01
   5.874822e+01   3.284247e+01
   6.600658e+01   2.798594e+00
  -7.427267e+00  -6.072407e+00
   7.011502e-01  -4.858214e+00
  -1.156140e+01  -3.755682e+01
  -5.395744e+01  -6.867039e+00
  -2.921796e+01  -1.192329e+01
   1.386968e+01  -9.386657e+00
  -7.847679e+00  -2.051272e+01
   5.442594e+01  -1.215639e+01
  -5.606106e+00   1.742279e+01
  -3.762196e+01   2.756158e+01
  -3.349537e+01   8.842589e+00
  -5.468032e+01  -3.386182e+01
  -5.802022e+01  -3.125724e+01
  -6.070795e+01  -4.167986e+01
   2.031460e+01  -7.511475e+01
   1.257332e+01  -2.942689e+01
  -4.350915e+00  -3.582182e+01
   2.210373e+01  -2.250509e+01
   3.855179e+01   2.358590e+01
   4.500757e+01   2.627939e+01
  -1.657092e+01   2.479465e+01
   6.412417e+00   2.241768e+01
   2.074928e+01   2.773495e+01
   6.690702e+00   2.526239e+01
   2.480617e+00   6.278540e+00
   4.317732e+00  -2.616804e+01
  -3.117729e+01   2.112973e+00
  -2.843842e+01   1.255722e+01
  -4.178872e+01  -2.817607e+01
   1.390823e+01  -5.534801e+00
  -2.497214e+01  -2.438735e+01
   2.353860e+01  -1.000008e+01
  -3.528907e+01  -3.528597e+01
   1.237873e+01  -1.417102e+01
   1.946782e+01  -2.478313e+01
   3.553134e+01  -3.211141e+01
   3.574130e+01   3.542655e+01
   6.114602e+01   6.427043e+01
  -1.784806e+01   1.284506e+01
  -3.694056e+01   4.121440e+01
  -1.601817e+01  -1.488371e+01
  -2.176278e+01  -6.318082e+01
   1.949705e+01   2.666750e+01
   4.032175e+00  -5.143963e+00
  -1.029805e+01   5.413634e+00
   1.188867e+01   1.276123e-01
  -2.281986e+01   2.962646e+01
  -1.315480e+01  -1.076457e+01
  -9.392899e+00   2.386641e+01
   2.033087e+01  -8.466958e+00
  -3.410160e+01  -1.965040e+01
  -5.008813e+01  -2.138044e+01
   1.207547e+01   4.621544e+00
  -1.272417e+00  -2.439670e+01
   1.342676e+01  -2.580543e+01
  -8.381729e-01   5.587566e+01
  -6.215120e+01   2.040539e+00
  -1.620772e-01   9.238689e+00
  -2.878540e+01  -6.629353e+01
  -2.654684e+01  -2.770859e+01
  -2.888622e-01  -4.516917e+01
  -3.277099e+01  -4.890105e+01
  -1.965617e+01  -1.829905e+00
   1.105747e+01  -2.586042e+01
   5.021270e+01  -2.166994e+01
   8.668376e+01   3.412270e+00
   2.121008e+01   4.374987e+00
  -1.405323e+01   6.044441e+01
  -1.726509e+01  -2.531247e+01
   1.622618e+00   3.908923e+00
  -1.225447e+01  -6.920429e+00
  -1.963581e+01   1.547116e+01
  -8.235079e+00   8.764402e+00
   1.340539e+01  -9.272908e+00
  -2.202949e+01   2.716956e+01
  -6.767399e+00  -1.185730e+01
   3.462983e+01  -1.989277e-01
  -1.845814e+01   3.095646e+01
   4.907253e+00  -2.109983e+00
  -3.725429e+01   4.269511e+00
  -6.035450e+00  -4.730631e+01
   3.705663e+00  -7.007022e+01
   1.380552e+01   2.359733e+00
   6.671894e+01   1.195270e+01
  -1.620361e+01   3.572088e+01
   1.358613e-01   2.393037e+01
  -3.037238e+01  -2.949507e+00
   3.087766e+01  -1.065784e+01
   1.573507e+01   1.170860e+01
   2.745103e+00   2.161764e+01
  -6.855987e+01   1.709236e+01
  -3.284146e+01   5.087465e+00
  -2.426965e+01  -2.294851e+01
   2.076751e+01   2.702576e+00
   3.130662e+01  -1.409091e+01
   2.272569e+01  -6.029341e+00
   2.014733e+01   7.417587e+00
  -2.100966e+01  -9.808769e-01
   9.663120e+00   8.593136e-01
  -5.453831e+01  -2.655248e+01
   3.926220e+01  -4.482874e+01
  -4.437780e+01  -6.192510e+01
  -1.657888e+01   1.522536e+01
   2.884384e+00  -3.508155e+01
  -2.149898e+01  -3.232368e+01
  -1.208666e+01  -3.621838e+01
   1.058556e+01  -3.339722e+01
  -8.181054e-01   7.156429e+00
   5.983377e+00  -1.620632e+01
   1.115431e+01  -5.119051e+00
  -4.363760e+00  -2.447721e+01
   1.473543e+01   2.438970e+01
   1.070104e+01   2.596641e+01
   1.942540e+01   3.262911e+01
  -2.160724e+01  -1.788494e+01
  -6.844677e+01  -1.495496e+01
   6.794149e+00  -4.024584e+00
  -9.712963e+00   8.414953e+00
  -1.326728e+01  -2.502620e+01
   4.852985e+00  -5.497995e+01
   6.102932e+00  -1.711694e+01
   1.401676e+01  -1.407230e+00
  -1.363950e+01  -2.716932e+00
   1.321776e+01  -2.538093e+01
