
 $NMID
 id='ANONYMOUS ', fmtdat='(2E16.6)'
 volume=1.0
 tramp=1.0
 $END
   4.064076e+03   4.806516e+01
   2.480435e+03   2.292455e+03
  -3.669522e+02   2.246342e+03
  -1.737094e+03   1.110528e+03
  -8.489847e+02  -3.452846e+02
   3.941825e+02  -4.091234e+02
   5.616152e+02   2.669414e+02
   2.257744e+00   8.537232e+02
  -6.050664e+02   6.310478e+02
  -7.204033e+02  -4.316333e+01
  -4.750465e+02  -7.976805e+02
   1.951246e+02  -7.231258e+02
   5.407772e+02  -1.407311e+02
   3.147739e+02   5.993342e+02
  -2.642287e+02   5.496144e+02
  -4.284790e+02   3.223466e+01
  -1.692348e+02  -5.230193e+02
   2.463515e+02  -5.550201e+02
   4.353331e+02  -1.263639e+02
   4.028611e+02   1.838574e+02
   1.073172e+02   3.675964e+02
  -1.591382e+02   2.486556e+02
  -1.706528e+02   7.191188e+01
   1.057425e+02   1.010136e+02
   4.209242e+02   2.793265e+02
   8.177498e+01   4.099858e+02
  -4.971604e+02   3.057017e+02
  -7.655405e+02  -1.246093e+02
  -3.239485e+02  -4.630290e+02
   3.249542e+02  -3.392822e+02
   6.524770e+02   1.314456e+02
   2.794541e+02   4.294448e+02
  -2.730733e+02   3.525595e+02
  -4.772266e+02   9.263473e+01
  -3.613701e+02  -1.962887e+02
  -9.122209e+01  -3.814347e+02
   8.899589e+01  -2.481797e+02
   6.326264e+01   1.555857e+02
  -1.933974e+02   2.934567e+02
  -2.906670e+02  -4.843190e+01
  -1.768632e+02  -6.363679e+02
   2.478121e+02  -5.858090e+02
   4.883333e+02   7.100383e+00
   1.970765e+02   4.167907e+02
  -2.100861e+02   2.038089e+02
  -2.623474e+02  -3.422861e+02
   1.383758e+02  -4.535873e+02
   5.215747e+02  -5.405173e+01
   5.813189e+02   4.038422e+02
   1.077966e+02   5.460139e+02
  -3.615237e+02   2.630611e+02
  -5.867765e+02  -1.182742e+02
  -2.952842e+02  -3.118766e+02
   8.830627e+01  -2.537630e+02
   4.273594e+02  -7.706645e+01
   1.975727e+02   1.518648e+02
  -1.040159e+02   6.351205e+01
  -9.816186e+01  -1.367830e+02
   1.138027e+02  -1.187837e+02
   2.910219e+02   9.818001e+01
   1.565596e+02   2.505750e+02
  -1.829303e+02   2.316952e+02
  -3.051827e+02   7.694047e+01
  -2.502254e+02  -9.273238e+01
   7.992805e+01  -2.642803e+02
   2.378432e+02  -3.411363e+02
   3.558104e+02  -1.893748e+02
   2.434316e+02   1.417770e+02
   4.606077e+01   4.209399e+02
  -7.754045e+01   3.533150e+02
  -9.888833e+01   9.534024e+01
  -2.077153e+01   5.145243e-01
  -1.147709e+02   8.069267e+01
  -2.213730e+02   1.636528e+02
  -2.708270e+02  -6.523526e+01
  -1.979291e+02  -2.515479e+02
   8.582793e+01  -2.404590e+02
   1.841672e+02  -3.973071e+01
   1.896740e+02   2.123736e+02
  -3.453725e+01   2.625560e+02
  -2.890405e+02   7.802125e+01
  -3.053559e+02  -2.705075e+02
  -1.447070e+02  -2.920073e+02
   1.794801e+02  -3.185321e+02
   2.260655e+02  -1.711461e+02
   1.213712e+02  -1.810940e+01
   1.101142e+02  -4.587406e+01
   2.749108e+02  -6.277157e+01
   4.477479e+02   7.232071e+01
   2.837833e+02   2.929054e+02
  -4.971209e+01   4.244943e+02
  -3.568633e+02   3.896046e+02
  -4.438365e+02   2.285311e+02
  -3.269932e+02  -1.350627e+02
  -9.011885e+00  -3.053135e+02
   1.168754e+02  -2.479752e+02
   1.958655e+01  -6.742530e+01
  -1.225691e+02   5.547839e+01
  -1.684170e+02  -7.412251e+01
  -2.281191e+01  -1.418386e+02
   1.674262e+02  -1.062124e+02
   1.707167e+02   3.809071e+01
  -6.860234e+01   1.288951e+02
  -1.787244e+02  -4.025428e+01
  -1.634227e+02  -2.231264e+02
   2.439703e+01  -3.414834e+02
   2.710246e+02  -1.500430e+02
   3.062159e+02   7.927750e+01
   3.157188e+02   2.689116e+02
   1.142504e+02   2.538566e+02
  -9.335707e+01   1.594084e+02
  -1.556955e+02   6.327420e+01
  -6.759392e+01   3.036040e-01
   7.020910e+01   7.229560e+01
  -1.380896e+01   7.124929e+01
  -1.150073e+02   9.906325e+01
  -2.054251e+02   1.004509e+01
  -7.182943e+00  -1.089825e+02
   3.887727e+01   2.992533e+00
   2.466779e+01   5.500636e+01
  -1.423892e+02   8.449353e+01
  -2.438889e+02  -4.357055e+01
  -2.808349e+02  -1.641248e+02
  -4.462463e+01  -2.580478e+02
   1.447322e+02  -2.361502e+02
   2.502886e+02  -1.265559e+02
   1.429599e+02   6.637442e+01
  -3.996082e+01   7.998463e+01
  -5.102861e+01   1.265962e+01
   3.899003e+01  -5.398065e+01
   2.235704e+02  -5.147987e+01
   1.976775e+02   1.010079e+02
   5.309215e+01   1.720468e+02
  -1.102785e+02   1.467821e+02
  -1.576063e+02   5.575624e+01
  -3.843307e+01  -4.875602e+00
   2.717958e+01   5.242980e+01
   1.970514e+01   8.349220e+01
  -7.145504e+01   6.383027e+01
  -1.967835e+02   2.541950e+01
  -1.793895e+02  -1.535456e+02
  -2.702575e+01  -1.803310e+02
   1.552060e+02  -9.011424e+01
   1.532396e+02  -1.324368e+01
   5.420107e+01   1.229116e+02
  -1.000503e+02   8.072754e+01
  -6.432049e+01   3.455711e+01
  -6.824637e+01  -9.920762e+00
   3.086192e+01   1.282775e+01
  -1.213061e+01   2.033716e+00
  -1.100529e+02  -3.354947e+01
  -9.491124e+01  -5.398765e+01
  -1.906429e+01  -1.553337e+02
   1.213570e+02  -1.425761e+02
   2.180789e+02  -4.287663e+00
   1.857996e+02   1.616311e+02
   2.048489e+01   2.358182e+02
  -1.306290e+02   1.353471e+02
  -1.286012e+02   5.728032e+01
  -1.694759e+01  -1.131193e+01
  -4.579027e+01  -5.075436e+01
  -2.716388e+01   2.283816e-01
  -6.945156e+01   2.065681e+01
  -5.527216e+01  -1.824688e+01
   8.929480e+01  -5.716801e+01
   1.273134e+02  -4.757316e+01
   1.318477e+02   4.005253e+01
   2.839105e+01   1.228608e+02
  -1.665819e+02   8.010602e+01
  -2.546322e+02  -5.882924e+01
  -1.308662e+02  -2.133652e+02
   1.503242e+02  -1.933012e+02
   2.612914e+02  -8.783459e+01
   2.755490e+02   8.970285e+01
   1.142121e+02   1.667752e+02
  -1.765043e+01   1.452676e+02
  -1.050235e+02   5.719517e+01
  -6.192922e+01   1.088370e+02
  -9.311688e+01   6.488293e+01
  -8.103797e+01   8.329445e+01
  -1.343133e+02  -5.140586e+00
  -9.683963e+01  -1.072202e+02
  -6.615600e+01  -1.776457e+02
   8.823241e+01  -2.052851e+02
   1.155954e+02  -3.217156e+01
   1.435068e+02   1.637029e+02
   1.083066e+01   1.453566e+02
  -6.809618e+01   1.164137e+02
  -1.218251e+02   1.222675e+01
   1.568560e+00  -9.633256e+00
  -1.146998e+01   4.993598e+00
   9.700700e-02  -1.827679e+01
  -8.177501e+01  -7.523859e+01
   8.254949e+00  -1.223212e+01
   6.455697e+01  -3.200741e+01
   1.482351e+02   8.719116e+00
   1.329409e+02   4.235348e+00
   4.437097e+01   6.410650e+01
  -1.365903e+02   5.055184e+01
  -1.832722e+02   3.053918e+01
  -3.814817e+01  -4.105157e+01
   8.308047e+01   1.371350e+00
   7.246837e+01   5.729254e+01
  -2.461431e+01   8.072030e+01
  -9.085972e+01   6.179743e+01
  -1.461225e+02   7.498913e+00
  -5.779330e+01  -5.094931e+01
   1.056187e+00  -3.165587e+01
  -8.031702e+01   8.498227e+00
  -4.437368e+01   4.298923e+00
  -9.077774e+01  -1.058928e+02
   7.498181e+01  -1.249148e+02
   1.323504e+02  -1.434301e+02
   9.661131e+01  -2.562715e+01
   7.386917e+01   9.977027e+01
  -7.493888e+00   1.581727e+02
  -9.649594e+01   1.013129e+02
  -6.129448e+01  -4.438992e+00
   5.216920e+01  -8.137141e+01
   1.437425e+02   1.527113e+01
   7.202182e+01   1.398468e+02
  -1.065069e+02   6.334559e+01
  -1.888879e+02   6.613730e+01
  -1.826366e+02  -1.891997e+01
  -2.511203e+01  -6.592621e+01
   5.701336e+01  -3.337237e+01
   4.700204e+01   2.006607e+01
  -6.630310e+01   7.982001e+00
  -1.554921e+02  -4.832688e+01
  -6.401274e+01  -1.107843e+02
   6.547479e+01  -1.227467e+02
   1.616575e+02  -6.066172e+01
   1.289781e+02   1.292643e+02
  -3.458334e+00   1.494002e+02
  -9.061274e+01   1.175056e+02
  -1.083255e+02   4.634185e+01
  -4.164363e+01  -1.216453e+02
   1.360585e+01  -1.157171e+02
   5.143950e+01  -1.697353e+00
   7.339538e+01   3.545321e+01
   3.170054e+01  -3.612337e+01
   1.800758e+01  -3.042260e+01
   3.234441e+01   2.844162e+01
   8.908149e+01   7.918462e+01
   4.100061e+01   1.478944e+02
  -2.842176e+01   3.514840e+01
  -8.947593e+01  -3.635390e+01
  -1.018414e+02  -3.151814e+01
  -1.924061e+01  -5.200659e+01
   1.216193e+02  -7.477551e+00
   6.336305e+01  -7.735272e+00
   3.055532e-01   1.076466e+01
  -4.183149e+01  -1.577722e-01
  -1.923287e+01   5.125188e+01
   3.788553e+01   3.824010e+01
   1.241869e+01  -8.849226e+00
  -8.116646e+01  -2.043943e+01
  -1.187782e+02  -1.237247e+01
  -1.550761e+01  -6.944100e+01
   9.474482e+01  -1.222210e+02
   2.182835e+02  -3.029297e+01
   1.167770e+02   7.057841e+01
   3.478657e+01   1.983972e+02
  -8.552123e+01   1.236729e+02
  -1.259915e+02   4.279294e+01
  -8.163015e+01  -1.199492e+01
   6.504147e+00  -9.078609e+01
  -7.374314e+00  -4.980903e+00
   3.067045e+01   8.572019e+00
   2.528420e+01  -1.281775e+01
  -3.334287e+01  -5.478433e+01
   1.614847e+01  -1.995563e+01
   8.561638e+01   4.280283e+01
   1.160488e+02   1.253922e+02
   5.315186e+00   6.315495e+01
  -8.560143e+01   2.888166e+01
  -1.080169e+02  -7.490359e+01
  -3.240585e+01  -8.248993e+01
   4.575111e+01  -8.680331e+01
   1.395196e+02   2.273422e+01
   2.460101e+01   2.926556e+01
  -5.701006e+01   2.689869e+01
  -3.967735e+01   3.300501e+01
   4.468648e+01   1.177847e+01
   9.204216e+01   1.381617e+01
  -5.453308e+00   6.614802e+01
  -5.336528e+01   2.931696e+01
  -9.796795e+01   6.215620e+01
  -3.555183e+01  -8.634387e+00
  -2.390031e+00  -8.613207e+01
   1.014446e+01  -1.025974e+02
   3.814999e+01   1.660744e+01
   4.437235e+01   4.289489e+01
  -4.529191e+01   2.361002e+01
  -1.179030e+01  -4.632833e+01
  -4.405854e+01  -5.959545e+01
  -1.557815e+01  -2.191462e+01
   9.994661e+00   4.093005e+01
   5.176973e+01  -7.363079e+00
  -2.735835e+01  -2.965087e+01
  -5.011298e+01  -2.810465e+01
  -1.934443e+00   1.674168e+01
   3.550789e+01   3.209530e+01
   4.213882e+00   5.620609e+01
  -2.867096e+01   1.242954e+01
   9.683410e-01  -5.749400e+01
   8.940960e+00  -1.772306e+01
   3.300392e+01  -2.077335e+01
   8.984607e+01   4.948826e+01
   1.304090e+00   1.045318e+02
  -7.207725e+01   8.022076e+01
  -1.337223e+02  -1.010689e+01
  -3.328801e+01  -5.438723e+01
   3.263766e+01  -1.374355e+01
   7.760837e+01   1.195628e+01
  -2.405837e+01   3.614090e+00
  -8.275502e+01  -2.191924e+01
  -4.663312e+01  -3.839957e+01
   3.383981e+01  -2.872211e+01
   6.084082e+01  -1.190482e+01
