
 $NMID
 id='ANONYMOUS ', fmtdat='(2E16.6)'
 volume=1.0
 tramp=1.0
 $END
   5.051556e+03  -1.802282e+01
   2.873784e+03   2.849867e+03
  -7.927300e+02   3.013826e+03
  -2.538049e+03   8.585811e+02
  -1.083341e+03  -9.143584e+02
   7.768853e+02  -7.748928e+02
   1.157589e+03   4.514951e+02
   2.720574e+00   1.171546e+03
  -9.564056e+02   8.447202e+02
  -1.056708e+03  -5.080011e+01
  -4.292819e+02  -9.137957e+02
   2.855891e+02  -8.598030e+02
   7.188526e+02  -1.207053e+02
   4.573632e+02   7.813311e+02
  -2.730094e+02   7.682018e+02
  -7.452918e+02   2.080111e+01
  -1.915254e+02  -7.591867e+02
   3.968917e+02  -6.636106e+02
   7.246508e+02  -8.507153e+01
   3.958202e+02   4.017754e+02
   9.228039e+00   4.470640e+02
  -3.214132e+02   2.741516e+02
  -2.363952e+02   4.733810e+00
   1.511786e+02  -8.995421e+01
   4.254407e+02   1.541452e+02
   2.055559e+02   3.862635e+02
  -5.365329e+02   3.823215e+02
  -9.437155e+02  -1.393217e+02
  -4.689502e+02  -6.755611e+02
   4.287688e+02  -5.727407e+02
   8.466619e+02   8.941949e+01
   4.129728e+02   5.826319e+02
  -3.048502e+02   5.725594e+02
  -5.970620e+02   2.614478e+02
  -5.135475e+02  -2.505862e+02
  -1.020181e+02  -5.399953e+02
   1.876571e+02  -3.240334e+02
   2.215883e+02   2.202999e+02
  -1.677088e+02   5.544355e+02
  -4.933762e+02   3.229031e+00
  -2.807994e+02  -7.429138e+02
   3.704242e+02  -7.817249e+02
   6.940232e+02  -1.000234e+02
   3.225279e+02   6.382528e+02
  -3.532166e+02   3.868471e+02
  -4.064135e+02  -2.992124e+02
   8.904199e+01  -6.074693e+02
   6.936285e+02  -1.867161e+02
   6.717348e+02   4.296517e+02
   2.495517e+02   6.064087e+02
  -4.048527e+02   3.971988e+02
  -6.940913e+02  -4.720959e+01
  -3.676395e+02  -4.529043e+02
   1.793127e+02  -3.795948e+02
   4.870433e+02  -5.936261e+01
   2.537666e+02   2.577839e+02
  -1.927639e+02   1.298714e+02
  -1.639276e+02  -2.230366e+02
   8.494683e+01  -2.731170e+02
   3.432287e+02   7.233111e+01
   1.069395e+02   3.712238e+02
  -2.273622e+02   2.920546e+02
  -3.406764e+02   1.091699e+02
  -1.680790e+02  -6.950336e+01
   9.024949e+01  -2.058279e+02
   2.259721e+02  -3.729422e+02
   3.288818e+02  -2.498246e+02
   3.629405e+02   1.402712e+02
   4.939344e+01   4.689810e+02
  -1.633903e+02   4.212413e+02
  -1.152578e+02   9.931338e+01
  -9.774985e+00  -3.407945e+01
  -2.452144e+01   1.505915e+02
  -2.032730e+02   1.472062e+02
  -2.966022e+02  -1.089287e+02
  -2.273553e+02  -3.056035e+02
   8.983070e+01  -2.615329e+02
   2.961337e+02  -2.853229e+01
   2.548690e+02   2.288069e+02
   1.604669e+01   3.505319e+02
  -2.602215e+02   1.793619e+02
  -4.147021e+02  -1.944819e+02
  -2.177638e+02  -4.331716e+02
   1.826832e+02  -3.419643e+02
   2.541175e+02  -1.354579e+02
   1.710011e+02   5.533526e+01
   8.716736e+01   1.187919e+01
   2.441864e+02  -2.155596e+01
   4.103070e+02   6.090851e+01
   3.328311e+02   3.060200e+02
  -2.175824e+01   4.491292e+02
  -4.316159e+02   4.124596e+02
  -5.345657e+02   2.412161e+02
  -4.299427e+02  -7.696720e+01
  -9.500088e+01  -3.186081e+02
   1.727921e+02  -2.451812e+02
   1.064415e+02   4.485094e+01
  -1.271512e+02   1.350334e+02
  -2.984339e+02   1.404392e+01
  -1.417844e+02  -2.144396e+02
   1.981178e+02  -2.419122e+02
   2.068940e+02   4.365999e+01
   1.179030e+01   1.617439e+02
  -2.157086e+02  -5.047270e+01
  -1.983528e+02  -3.224976e+02
   2.884831e+01  -3.807721e+02
   2.546052e+02  -2.437892e+02
   3.952850e+02   1.035006e+02
   2.605979e+02   2.922510e+02
   9.931930e+01   2.892058e+02
  -1.409928e+02   1.875313e+02
  -2.040694e+02   2.058886e+01
  -8.035490e+01  -6.432226e+01
   1.510971e+02  -1.176225e+01
   1.403694e+01   1.326403e+02
  -1.183269e+02   1.053865e+02
  -1.740922e+02  -1.124183e+01
  -9.511297e+01  -7.510361e+01
   9.384227e+01  -5.660783e+01
   7.859617e+01   3.125860e+01
  -1.782736e+02   1.278333e+02
  -3.335199e+02  -1.517841e+01
  -2.812123e+02  -2.002650e+02
  -1.008390e+02  -2.516589e+02
   2.237556e+02  -2.907676e+02
   3.404864e+02  -1.360952e+02
   2.073618e+02   2.790899e+01
  -9.187675e+00   1.032104e+02
  -7.541513e+01   3.568932e+01
   5.638274e+00  -8.908310e+01
   2.051327e+02  -1.058092e+02
   2.762151e+02   9.749930e+01
   1.016892e+02   2.234526e+02
  -1.487956e+02   1.625498e+02
  -1.233474e+02   3.409894e+01
  -4.305700e+01  -1.914035e+01
   1.099390e+01   4.302221e+00
   1.056212e+02   6.189620e+01
  -1.016049e+02   9.745017e+01
  -2.212091e+02   3.545246e+01
  -1.736813e+02  -1.456829e+02
  -6.926902e+01  -2.004346e+02
   1.509031e+02  -2.115382e+02
   2.198323e+02  -2.031006e+01
   1.188578e+02   1.782375e+02
  -1.113322e+02   1.343659e+02
  -1.301489e+02   2.511669e+01
  -5.125634e+00  -3.773427e+01
   7.213956e+01  -4.216150e+01
   1.417163e+01   1.288263e+01
  -6.936732e+01  -3.165263e+01
  -1.020254e+02  -8.363181e+01
   3.031231e+01  -1.772240e+02
   1.437365e+02  -1.463435e+02
   2.710623e+02  -4.112427e+01
   2.267445e+02   1.215295e+02
   3.176599e+01   1.991053e+02
  -6.978826e+01   1.689948e+02
  -1.673704e+02  -2.909015e+00
  -2.858608e+01  -7.511822e+01
  -8.316766e-01  -3.378434e+01
   1.190595e+01  -5.662377e+00
  -9.072684e+01   4.532550e+00
  -6.460387e+01  -3.223579e+01
   3.482238e+01  -8.943155e+01
   1.256368e+02  -1.398452e+02
   1.304717e+02  -4.132729e+00
  -6.118210e-01   1.564029e+02
  -1.574105e+02   1.193313e+02
  -2.633255e+02  -8.603985e+01
  -9.577631e+01  -2.184737e+02
   1.206499e+02  -2.598129e+02
   2.374830e+02  -1.068130e+02
   2.562509e+02   9.276800e+01
   7.979868e+01   1.854301e+02
  -3.145038e+01   1.045255e+02
  -6.616660e+01   1.377002e+02
  -7.721409e+01   8.288343e+01
  -5.028165e+01   1.228999e+02
  -7.474843e+01   4.273553e+01
  -1.092757e+02  -4.401519e+01
  -1.291076e+02  -1.703139e+02
  -6.371680e+01  -2.343565e+02
   1.022376e+02  -1.709954e+02
   2.136581e+02  -2.330494e+01
   1.497831e+02   1.865730e+02
   2.835807e+01   1.251344e+02
  -6.179238e+01   9.846279e+01
  -7.528826e+01  -1.946704e+01
  -8.348353e+00  -4.158082e+01
   3.923628e+00  -7.362785e+01
  -5.623027e-01  -8.214016e+01
  -1.024829e+02  -2.694346e+01
  -6.124491e+01  -7.983251e+01
   7.139223e+01  -3.509818e+01
   2.228346e+02  -4.113740e+01
   1.677982e+02  -6.018119e+00
   3.697363e+01   7.037590e+01
  -1.235768e+02   1.426908e+02
  -1.522848e+02   1.863698e+01
  -5.193217e+01  -3.383201e+01
   6.995941e+01  -2.655122e+01
   8.984744e+01  -8.346300e+00
  -1.826953e+01   1.083067e+02
  -4.036588e+01   3.707291e+01
  -7.100266e+01  -9.061571e+00
  -4.752916e+01  -4.742113e+01
  -5.821255e+01  -5.571754e+00
  -5.859084e+01   6.838899e+00
  -3.061201e+01  -2.686713e+01
  -4.198301e+01  -7.160176e+01
   3.534655e+01  -1.377172e+02
   1.053829e+02  -1.562105e+02
   1.719598e+02  -9.531126e+01
   1.417761e+02   7.699383e+01
   2.505943e+00   1.683877e+02
  -1.176320e+02   1.012457e+02
  -5.954784e+01  -9.481368e+01
   6.898358e+01  -2.925421e+01
   1.753065e+02   8.997313e+01
   1.207543e+02   1.328329e+02
  -1.027549e+02   4.537836e+01
  -1.851350e+02   7.547197e+01
  -1.601537e+02   9.317865e+00
  -5.066127e+01  -8.076311e+01
   7.725124e+01  -1.101606e+02
  -2.326981e+01  -1.824167e+01
  -8.138707e+01   1.053927e+02
  -1.264252e+02   2.968588e+01
  -9.015451e+01  -1.352921e+02
   6.823402e+01  -1.813219e+02
   1.558617e+02  -9.259093e+01
   1.642485e+02   8.201999e+01
   5.463541e+01   1.886265e+02
  -9.393431e+01   1.668202e+02
  -1.274475e+02  -7.469434e+01
  -6.820318e+01  -1.491762e+02
   9.732989e+00  -1.206989e+02
   6.554133e+01  -2.052820e+01
   8.363179e+01   2.195401e+01
   8.909801e+00  -1.466905e+01
   1.597763e+01   2.294334e+00
   2.809383e+01  -1.149892e+01
   5.901545e+01   9.797669e+01
   2.827086e+01   1.039538e+02
  -7.399176e+01   8.255594e+00
  -1.055961e+02  -5.695187e+01
  -1.429525e+02  -5.229143e+01
  -4.940539e+01  -5.042477e+01
   6.962684e+01   8.032054e+00
   5.011655e+01  -3.256803e+01
  -1.600742e+00  -4.666561e+01
  -3.303225e+01   3.565770e+01
   1.610962e+01  -5.126900e+01
   1.219440e+01  -1.386715e+01
  -8.977010e+00  -1.208759e+01
  -1.110321e+02  -4.561922e+01
  -8.714030e+01  -8.690942e+01
   2.658134e+01  -6.513811e+01
   1.619900e+02  -1.148904e+02
   2.517228e+02  -7.902247e+01
   1.468470e+02   9.545784e+01
   3.745744e+01   1.656974e+02
  -8.256907e+01   1.663374e+02
  -9.772060e+01   5.994687e+01
  -3.532479e+01  -1.233942e+00
  -4.687672e+01  -3.113620e+01
  -2.163413e+01   3.737446e+01
  -4.448127e+01   3.971697e+01
  -6.526009e+01  -1.030313e+02
  -1.159371e+01  -9.350624e+01
   2.637432e+01  -6.455997e+01
   1.024065e+02  -6.861788e+00
   3.450991e+01   1.008971e+02
   1.646395e+01   1.210963e+02
  -6.266004e+01  -1.646644e+01
  -1.372695e+02  -1.096867e+02
  -1.827773e+01  -1.651592e+02
   1.034602e+02  -9.675641e+01
   1.281561e+02   6.816686e+01
   2.113595e+01   6.486522e+01
  -1.541451e+01   1.161715e+02
  -5.395116e+01   3.324895e+01
   5.066719e+00   2.162558e-01
   5.528163e+01   1.475399e+01
   2.732414e+00   3.937616e+01
  -7.898174e+01   8.859452e+01
  -1.428414e+02   6.629118e+01
  -8.695794e+01  -2.145654e+01
   4.941327e+01  -1.429420e+02
   4.205253e+01  -8.032921e+01
   1.307017e+01  -1.927878e+01
  -2.241771e+01   6.366669e+01
  -6.700637e+01   3.187238e+01
  -3.484373e+01  -2.811824e+01
  -3.716536e+01  -3.768877e+01
   3.232530e+01  -1.851186e+01
   7.482409e+01   1.021003e+01
   5.341564e+01   4.125120e+01
   2.602203e+01  -3.399622e+00
  -2.358490e+01   1.181896e+01
  -1.620206e+01   3.644768e+01
  -2.393732e+01   5.070686e+01
  -3.430112e+01   6.521395e+01
  -3.165516e+00  -1.951098e+01
  -5.408992e+00  -7.490787e+01
   1.633910e+01  -5.710167e+01
  -2.292326e+01  -3.178789e+01
   5.522737e+01   6.891086e+01
   2.054822e+01   5.217704e+01
  -7.477638e+01   6.603262e+01
  -1.094741e+02  -2.663755e+01
  -4.663879e+01  -1.940112e+01
   2.343840e+01  -2.668968e+00
   8.518627e+01  -2.484924e+01
  -1.878924e+01  -4.428319e+00
  -5.172036e+01  -1.485800e+01
  -6.578556e+01   9.864466e+00
   3.062309e+01  -2.848557e+01
   1.045375e+02  -2.735942e+01
