
 $NMID
 id='ANONYMOUS ', fmtdat='(2E16.6)'
 volume=1.0
 tramp=1.0
 $END
   5.196237e+03   1.673958e+02
   2.942605e+03   3.201043e+03
  -8.716911e+02   3.074731e+03
  -2.567799e+03   8.868837e+02
  -9.833082e+02  -7.690049e+02
   9.171465e+02  -5.008449e+02
   1.057119e+03   6.463886e+02
  -4.247022e+01   1.249281e+03
  -9.253696e+02   8.387654e+02
  -9.182296e+02  -1.001390e+02
  -4.164911e+02  -1.028541e+03
   3.190257e+02  -9.053245e+02
   8.415085e+02  -1.073453e+02
   4.750146e+02   8.608007e+02
  -2.807467e+02   8.499697e+02
  -6.793765e+02  -6.841428e+01
  -2.980336e+02  -8.428591e+02
   3.677327e+02  -7.115517e+02
   6.421401e+02  -8.520584e+01
   3.212941e+02   4.110328e+02
  -1.678785e+01   4.872556e+02
  -2.908966e+02   2.952244e+02
  -3.027934e+02   5.504127e+01
   2.298024e+02  -5.104960e+01
   4.503025e+02   4.802206e+01
   2.842891e+02   4.897418e+02
  -4.568103e+02   5.687113e+02
  -9.745342e+02  -1.933805e+01
  -5.380427e+02  -6.031334e+02
   4.194111e+02  -5.801639e+02
   8.757668e+02  -8.234679e+01
   4.644118e+02   5.942644e+02
  -2.470655e+02   6.380781e+02
  -5.607514e+02   2.767011e+02
  -4.843036e+02  -1.756772e+02
  -8.844874e+01  -5.240793e+02
   2.624196e+02  -3.107592e+02
   2.520216e+02   1.407711e+02
  -2.025518e+02   4.876571e+02
  -5.343308e+02   6.135231e+01
  -3.278250e+02  -7.343950e+02
   2.958302e+02  -8.075606e+02
   7.018614e+02  -1.522810e+01
   3.122875e+02   6.791960e+02
  -3.002242e+02   3.760036e+02
  -4.425386e+02  -3.312967e+02
  -8.819356e+00  -6.136751e+02
   5.448821e+02  -1.467009e+02
   5.917979e+02   4.224969e+02
   1.515502e+02   6.061929e+02
  -4.316071e+02   3.556007e+02
  -6.697616e+02  -8.391034e+01
  -4.213991e+02  -4.188739e+02
   1.779410e+02  -4.375436e+02
   4.822836e+02  -9.796665e+01
   3.128536e+02   1.955387e+02
  -1.872665e+02   1.198604e+02
  -2.290236e+02  -1.333449e+02
   2.243336e+02  -2.089214e+02
   3.865715e+02   1.058331e+02
   1.536715e+02   2.821339e+02
  -2.535087e+02   2.523670e+02
  -3.243423e+02   2.632153e+01
  -2.068268e+02  -1.129471e+02
  -6.386980e-02  -1.221378e+02
   1.806074e+02  -3.363477e+02
   3.270134e+02  -2.656100e+02
   3.479312e+02   2.034053e+02
   1.049508e+02   5.051253e+02
  -1.648366e+02   4.283073e+02
  -2.158859e+02   6.221038e+01
  -9.553411e+01  -6.989237e+01
   3.903886e+01   8.267984e+01
  -2.077311e+02   1.488525e+02
  -2.909665e+02  -5.493498e+01
  -2.169187e+02  -3.012761e+02
   6.029060e+01  -3.015754e+02
   2.631628e+02  -5.033224e+01
   2.505850e+02   2.048813e+02
   5.765578e+01   2.930725e+02
  -2.988542e+02   1.634456e+02
  -3.998625e+02  -1.118981e+02
  -2.241749e+02  -3.698540e+02
   7.104590e+01  -3.412379e+02
   2.498863e+02  -1.170739e+02
   1.502038e+02  -5.870406e+01
   1.454269e+02  -5.707015e+01
   2.830302e+02  -1.445646e+02
   4.202179e+02  -7.507186e+00
   3.299483e+02   2.824416e+02
   4.512804e+01   4.466574e+02
  -3.286811e+02   4.205644e+02
  -4.840131e+02   2.050306e+02
  -4.159864e+02  -8.100672e+01
  -1.355660e+02  -2.703909e+02
   1.612279e+02  -2.842294e+02
   7.976427e+01  -1.577921e+01
  -1.648780e+02   1.547844e+02
  -2.224257e+02   2.435717e+01
  -1.016765e+02  -2.544093e+02
   1.849656e+02  -1.916108e+02
   2.070395e+02   8.097058e+01
  -3.583283e+00   1.978453e+02
  -1.968065e+02   3.953305e+01
  -1.784727e+02  -2.291367e+02
   4.755748e+01  -3.538080e+02
   2.016060e+02  -1.800496e+02
   2.685950e+02   3.737913e+01
   3.358843e+02   1.617871e+02
   1.233708e+02   2.607563e+02
  -1.575413e+02   1.866891e+02
  -2.043499e+02   7.068800e+01
  -3.254105e+01  -1.053412e+01
   5.911362e+01  -8.855598e-01
   1.568024e+01   1.188276e+02
  -1.436825e+02   1.243135e+02
  -1.935831e+02   3.329531e+00
  -9.365448e+01  -8.527451e+01
   1.021914e+02   7.323851e+00
   4.469021e+01   8.497678e+01
  -1.859708e+02   9.229147e+01
  -3.134647e+02   1.815970e+00
  -2.496310e+02  -1.474455e+02
  -6.612542e+01  -2.559450e+02
   1.762934e+02  -3.061571e+02
   2.816623e+02  -1.910551e+02
   1.827431e+02   2.936777e+01
   2.667214e+01   1.124616e+02
  -6.789861e+01   2.035996e+01
   7.040735e+01  -9.761054e+01
   2.437062e+02  -7.876646e+01
   1.951080e+02   9.856687e+01
   3.489002e+01   2.575326e+02
  -1.139988e+02   2.123673e+02
  -1.929024e+02   3.203565e+01
  -1.070491e+02  -3.622709e+01
   4.215856e+01  -1.330072e+01
   3.919247e+01   6.936487e+01
  -1.655794e+01   8.394293e+01
  -2.246763e+02   4.495703e+01
  -2.187713e+02  -9.946442e+01
  -6.861561e+01  -1.899610e+02
   1.346833e+02  -2.237480e+02
   1.977829e+02  -3.409650e+01
   5.689758e+01   1.294076e+02
  -8.165332e+01   1.144559e+02
  -4.662297e+01   3.175778e+01
  -1.158177e+01   1.452530e+01
   2.628935e+01  -3.785452e+01
  -3.553409e+01  -2.763977e+01
  -7.319184e+01  -8.177954e+00
  -5.969127e+01  -9.071206e+01
  -2.775716e+01  -9.583472e+01
   1.236829e+02  -1.047409e+02
   2.118698e+02  -3.050054e+01
   2.513481e+02   1.490310e+02
   9.301850e+01   2.172030e+02
  -1.016445e+02   1.701889e+02
  -1.766360e+02   3.179095e+01
  -1.107516e+02  -1.085799e+02
  -5.243924e+01  -5.709920e+01
  -4.727252e+01  -1.140836e+01
  -5.794928e+01   1.745399e+01
  -2.494120e+00  -5.920284e+01
   8.448790e+01  -1.160814e+02
   6.678358e+01  -5.224118e+00
   1.450913e+02   7.164099e+01
  -6.693545e+00   1.459440e+02
  -1.735893e+02   8.474989e+01
  -1.781754e+02  -3.078473e+01
  -1.245472e+02  -1.962944e+02
   1.141707e+02  -2.565957e+02
   2.996026e+02  -9.004032e+01
   2.974883e+02   7.816188e+01
   1.248765e+02   2.313825e+02
  -6.857782e+01   1.763963e+02
  -1.061786e+02   9.811241e+01
  -1.618474e+02   7.559801e+01
  -9.709860e+01   1.008826e+02
  -1.044999e+02   3.936755e+01
  -1.168182e+02  -3.435963e+01
  -1.268771e+02  -1.856047e+02
  -7.985945e+01  -2.099252e+02
   5.842750e+01  -1.969698e+02
   1.351947e+02  -1.779966e+00
   1.376257e+02   1.251400e+02
   4.138089e+01   1.813966e+02
  -6.069735e+01   8.313217e+01
  -1.039459e+02   2.393687e+01
   1.581978e+01  -7.552295e+01
   2.100200e+01  -4.225861e+01
  -8.264067e+00  -4.708366e+01
  -8.785005e+01   1.730449e+01
  -5.562258e+01   2.249441e+00
   6.216112e+01  -7.304565e+01
   8.996322e+01  -2.223939e+01
   1.583402e+02   2.436956e+01
   2.644025e+01   5.321718e+01
  -1.113642e+02   2.791806e+01
  -1.312078e+02   2.978535e+01
  -6.915858e+01  -1.251025e+01
   4.196475e+01   1.032149e+01
   4.311405e+01   4.391964e+01
   1.571636e+01   9.534142e+01
  -9.309878e+01   3.247890e+01
  -9.809456e+01  -1.360305e+01
  -6.489630e+01   9.811922e+00
  -3.458534e+01  -5.293798e+01
  -6.343089e+01  -3.113432e+01
  -8.984865e+01  -9.470659e-01
  -6.400665e+00  -1.057339e+02
   4.974260e+01  -1.500624e+02
   1.364739e+02  -1.507285e+02
   1.493068e+02  -6.531062e+00
   6.758443e+01   1.244776e+02
  -5.452365e+00   9.349768e+01
  -1.262968e+02   4.212215e+01
  -4.091577e+01  -1.160200e+01
   6.210497e+01   9.515999e+00
   1.356816e+02   2.766873e+00
   9.915732e+01   1.066678e+02
  -6.103537e+01   8.460524e+01
  -1.899046e+02   8.357991e+01
  -1.661153e+02  -3.908240e+01
  -1.164694e+01  -1.200664e+02
   9.378047e+01  -5.575429e+01
   4.392770e+01  -6.003907e+00
  -5.756111e+01   2.620093e+01
  -1.028948e+02  -4.856218e+01
  -1.078216e+01  -1.750320e+02
   7.037210e+01  -1.799800e+02
   1.276216e+02  -6.918053e+01
   1.213154e+02   1.180076e+02
   2.464044e+01   1.762143e+02
  -8.374645e+01   1.398131e+02
  -1.175724e+02  -5.179278e+01
  -8.372076e+01  -1.093395e+02
  -5.143033e+01  -8.835127e+01
   8.720292e+01   7.237546e+00
   3.029981e+01   1.732391e+01
   3.655721e+01   1.224882e+01
  -2.978327e+00  -1.356329e+00
  -2.017219e+01   5.314780e+01
   4.282116e+01   9.040342e+01
   5.662434e+01   6.480649e+01
  -4.630562e+01   6.203172e+01
  -1.350284e+02  -7.806287e+01
  -1.062526e+02  -1.152480e+02
  -1.875337e+01  -1.642965e+01
   1.498442e+02  -5.204360e+01
   6.770153e+01   2.785836e+01
   2.859068e+01   2.933429e+01
  -5.427453e+01   2.062427e+01
  -1.078953e+01  -9.906089e+00
  -7.837933e+00  -2.979354e+01
  -4.630394e+01   3.168019e+00
  -2.770432e+01   3.067774e+01
  -9.856580e+01  -3.149708e+00
   7.819055e+00  -1.043220e+02
   9.320366e+01  -8.610656e+01
   1.906849e+02  -4.550600e+01
   1.207575e+02   1.103633e+02
  -1.203062e+01   1.487240e+02
  -6.512575e+01   1.437693e+02
  -1.066765e+02   7.073717e+01
  -4.885650e+01   6.145135e+00
  -2.527428e+00  -1.080232e+01
   5.451580e-03   9.943502e-01
  -2.417653e+01  -1.765360e+01
  -1.790489e+01  -4.871396e+01
  -5.687522e+00  -8.966987e+01
   5.146329e+00  -7.457618e+01
   2.207294e+01   1.320431e+01
   7.887773e+01   1.594963e+02
  -2.644201e+01   6.970825e+01
  -4.951810e+01   5.225098e+00
  -8.273714e+01  -1.323459e+02
  -2.596969e+01  -1.207659e+02
   7.160149e+01  -7.358572e+01
   1.139877e+02   3.622368e+01
   2.971890e+01   6.771805e+01
  -2.395407e+01   5.902778e+01
  -6.076540e+01   5.699969e+01
   2.074609e+01   2.045495e+01
   6.174925e+01  -1.293550e+01
  -4.146850e-01   1.310268e+01
  -7.418594e+01   4.884187e+01
  -1.503240e+02   8.557604e+01
  -5.275854e+01  -2.033133e+00
   1.401695e+01  -1.043961e+02
   4.998556e+01  -5.114903e+01
   2.234630e+01   1.365014e-01
   1.532439e+01   1.175801e+01
   1.584312e+01   2.982449e+01
  -6.848507e+01  -4.862148e+01
  -3.878739e+01  -6.366664e+01
   8.604666e+00   2.175883e+00
  -1.103938e+01  -4.484908e+01
   4.338199e+01   3.160168e+01
  -2.809864e+01   2.115022e+01
  -2.055059e+01  -1.848865e+01
  -1.459188e+00   8.431357e+00
  -5.504234e+00   5.527954e+01
  -3.934438e+01   5.818300e+01
  -8.629653e+01  -5.347746e+00
  -3.823264e+01  -8.092286e+01
  -1.176696e+01  -3.252581e+01
   9.871324e+01   1.135100e+01
   3.355670e+01   4.727085e+01
   1.494244e+01   4.851488e+01
  -6.452880e+01   7.014825e+01
  -1.200848e+02  -3.733295e+01
  -1.089563e+01  -3.612291e+01
   3.656953e+01  -7.965923e+01
   9.190914e+01  -2.166516e+01
   3.824331e+01  -4.027319e+01
  -1.395956e+01  -3.341415e+01
   1.074089e+00  -6.570563e+01
   1.195682e+02  -2.100672e+01
   1.326303e+02  -4.059666e+00
