
 $NMID
 id='ANONYMOUS ', fmtdat='(2E16.6)'
 volume=1.0
 tramp=1.0
 $END
  -4.879418e+03  -9.000795e+01
  -2.891393e+03  -2.752598e+03
   7.768383e+02  -2.992120e+03
   2.040558e+03  -1.050639e+03
   1.111353e+03   4.187085e+02
  -7.246943e+02   6.821690e+02
  -8.411988e+02  -3.647984e+02
  -9.466552e+01  -1.107056e+03
   6.993963e+02  -8.634511e+02
   1.019533e+03   1.053164e+02
   4.171830e+02   1.028202e+03
  -2.691728e+02   9.606922e+02
  -5.760013e+02   8.043173e+01
  -3.962403e+02  -7.314043e+02
   1.841146e+02  -7.850251e+02
   5.868536e+02  -3.960359e+01
   3.753990e+02   7.426525e+02
  -2.574420e+02   7.022949e+02
  -5.454971e+02   1.913999e+02
  -3.343706e+02  -3.216039e+02
   6.130965e+00  -3.977929e+02
   2.787601e+02  -2.171691e+02
   3.203013e+02   3.078492e+01
  -1.285651e+02   1.245344e+02
  -4.108850e+02  -1.322643e+02
  -2.100435e+02  -4.482353e+02
   5.599192e+02  -3.493157e+02
   9.138597e+02   8.710968e+01
   3.490793e+02   6.218587e+02
  -4.518652e+02   4.335193e+02
  -7.975980e+02  -7.271718e+01
  -3.753215e+02  -4.475475e+02
   3.406163e+02  -5.398748e+02
   6.187777e+02  -2.280687e+02
   4.351144e+02   2.856014e+02
   7.507969e+01   5.061409e+02
  -1.843336e+02   3.114661e+02
  -1.329260e+02  -2.151100e+02
   1.938732e+02  -4.191997e+02
   4.852482e+02   3.389374e+01
   2.764199e+02   7.348369e+02
  -2.658700e+02   6.788388e+02
  -5.501476e+02  -5.805684e+01
  -2.162254e+02  -5.417623e+02
   3.024166e+02  -2.561302e+02
   3.234760e+02   3.615213e+02
  -1.388601e+02   5.585136e+02
  -5.588275e+02   7.201465e+01
  -5.848640e+02  -4.854235e+02
  -1.501270e+02  -6.135969e+02
   4.313807e+02  -3.933297e+02
   6.993194e+02   1.104843e+02
   4.202774e+02   4.230501e+02
  -1.461392e+02   3.610918e+02
  -5.074991e+02   5.391447e+01
  -2.679577e+02  -1.767663e+02
   1.016641e+02  -9.770265e+01
   1.384732e+02   1.562907e+02
  -1.903195e+02   1.736588e+02
  -4.094890e+02  -5.861914e+01
  -2.092458e+02  -3.020887e+02
   1.324126e+02  -2.834261e+02
   3.273470e+02  -1.121404e+02
   1.421923e+02   1.504074e+02
  -4.814766e+01   2.321797e+02
  -2.403192e+02   2.728503e+02
  -3.017118e+02   1.673954e+02
  -2.639600e+02  -1.451559e+02
  -1.212560e+02  -4.120587e+02
   6.780336e+01  -3.853726e+02
   8.604324e+01  -1.499569e+02
   1.276688e+01   3.581448e+01
   5.084694e+01  -5.014234e+01
   2.034017e+02  -1.552578e+02
   2.754382e+02  -4.952831e+00
   1.854454e+02   2.420339e+02
  -4.729061e+01   2.582524e+02
  -2.181588e+02   2.177989e+01
  -1.421012e+02  -2.666275e+02
   4.811344e+01  -3.096254e+02
   2.958854e+02  -1.011436e+02
   4.276686e+02   2.249879e+02
   1.847200e+02   4.055642e+02
  -9.738766e+01   3.484412e+02
  -2.616821e+02   1.520102e+02
  -1.743030e+02  -1.751502e+01
  -4.965823e+01  -1.081763e+01
  -2.293456e+02   1.028476e+02
  -3.852547e+02  -5.009886e+01
  -3.503348e+02  -2.535193e+02
  -1.029892e+01  -4.757631e+02
   3.070373e+02  -4.612530e+02
   5.301661e+02  -2.239925e+02
   3.221964e+02   6.676953e+01
   6.316838e+01   2.530347e+02
  -9.473219e+01   2.122259e+02
  -6.059116e+01   1.404109e+01
   2.258276e+02  -1.229495e+02
   1.970242e+02   1.526965e+01
   5.440453e+01   2.313053e+02
  -2.036606e+02   2.085396e+02
  -1.893189e+02  -1.725439e+01
   1.026507e+01  -1.760589e+02
   1.868980e+02  -6.816225e+01
   1.680217e+02   2.524722e+02
  -1.941036e+01   3.117261e+02
  -1.886027e+02   1.785489e+02
  -3.270557e+02  -6.782650e+01
  -3.385645e+02  -2.846712e+02
  -9.488324e+01  -2.640028e+02
   1.203652e+02  -1.834338e+02
   2.506589e+02   4.117729e+01
   4.326341e+01   4.698818e+01
  -1.894605e+02  -3.547585e+01
  -6.482305e+01  -1.760621e+02
   1.058732e+02  -8.768870e+01
   1.911322e+02   2.112240e+01
   7.458577e+01   6.446515e+01
  -5.155202e+01  -5.003191e+01
  -1.774453e+01  -1.045722e+02
   1.371858e+02  -1.057222e+02
   2.690719e+02  -5.205918e+00
   2.876085e+02   1.876396e+02
   4.480959e+01   2.366283e+02
  -2.209003e+02   2.580148e+02
  -3.015724e+02   8.593454e+01
  -1.568941e+02  -9.281163e+01
   3.592516e+01  -1.212604e+02
   1.340439e+02   7.594881e+00
  -5.334399e+01   1.283187e+02
  -2.134431e+02   3.474926e+01
  -2.566017e+02  -1.223730e+02
  -6.898901e+01  -1.850742e+02
   1.210985e+02  -1.853435e+02
   1.740174e+02  -1.244765e+02
   6.177539e+01   2.050106e+01
  -3.591864e+01   7.939780e+00
  -8.868609e+01  -9.141078e+01
   1.978142e+01  -1.247665e+02
   1.752890e+02  -6.425561e+01
   1.871942e+02   1.468785e+02
  -2.207819e+00   2.130464e+02
  -1.227719e+02   1.810382e+02
  -1.869497e+02   7.167962e+00
  -9.866001e+01  -8.949414e+01
   9.397237e+01  -1.590672e+02
   1.070892e+02  -8.003842e+01
   6.033650e+01   4.315103e+01
  -3.339011e+01   1.966322e+01
  -1.148678e+01   3.073172e+00
   5.627429e+01  -1.080606e-02
   6.720142e+01   1.035201e+02
   2.192179e+01   1.931328e+02
  -6.777605e+01   1.956718e+02
  -2.253778e+02   4.030818e+01
  -2.474174e+02  -1.807387e+02
  -4.695936e+01  -2.240333e+02
   7.737397e+01  -1.283649e+02
   8.218125e+01  -4.651877e+01
   6.964834e+01   3.203319e+01
   4.361282e+01   2.374976e+00
   7.228210e+01  -2.654025e+01
   7.961891e+01  -4.121480e+01
   7.619923e+01   6.962117e+01
  -9.454041e+00   1.179832e+02
  -7.714192e+01   9.199477e+01
  -4.890213e+01   8.525719e+00
   2.735633e+01  -5.839335e+01
   1.088725e+02  -6.547293e+01
   2.049071e+02   3.355973e+00
   7.433451e+01   1.378818e+02
  -1.014222e+02   2.264530e+02
  -2.656880e+02   1.442411e+02
  -2.583742e+02  -1.047317e+02
  -1.270769e+02  -2.085787e+02
   8.593437e+01  -2.171977e+02
   1.453987e+02  -9.482415e+01
   8.419394e+01  -4.578433e+01
   6.225039e+01  -1.166292e+02
   9.053843e+01  -1.062147e+02
   8.103886e+01   4.660694e+01
   1.290805e+02   1.722310e+02
   7.319843e+01   2.773182e+02
  -5.718386e+01   1.856462e+02
  -1.571394e+02   5.161159e+01
  -1.303992e+02  -8.810753e+01
  -5.583107e+01  -1.681511e+02
   1.573750e+01  -1.074007e+02
   5.813848e+01  -4.899340e+01
   5.565164e+00   8.990258e+00
  -2.969033e+01   1.759672e+01
   3.662971e+01   1.818499e+01
   1.176501e+02   4.089433e+01
   7.180433e+01   2.387708e+01
  -3.280277e+01   4.398520e+01
  -1.597042e+02   5.099738e+01
  -1.701100e+02   7.429992e+00
  -7.852896e+00  -8.285396e+01
   1.400102e+02  -7.083753e+01
   1.525012e+02  -5.529699e+01
   3.039310e+01   4.207246e+01
  -1.018616e+02   4.458513e+01
  -9.919348e+01  -1.029058e+01
  -2.098659e+01  -4.282043e+01
   8.372534e+01  -1.068333e+02
   1.537612e+01  -1.199193e+01
   7.629623e+01   9.654786e+01
   6.154448e+01   3.113593e+01
   9.467856e+01   4.603352e+00
   5.515822e+01  -4.844848e+01
   4.531494e+01   1.125802e+02
  -3.961105e+01   1.201480e+02
  -1.208106e+02   1.691435e+02
  -1.918980e+02   3.340346e+01
  -1.669095e+02  -1.331004e+02
   9.254408e+00  -1.316354e+02
   8.433975e+01  -4.261858e+01
   7.118786e+01   3.133256e+01
  -8.137458e+01   2.676126e+01
  -1.404801e+02  -2.998296e+01
  -1.148408e+02  -1.345392e+02
   1.170133e+02  -1.187380e+02
   2.252775e+02  -5.778841e+01
   1.630968e+02   3.586311e+01
   4.204819e+01   1.257127e+02
  -9.554588e+01   8.405444e+01
  -6.344710e+01   2.290671e+01
   2.912459e+01  -3.883953e+01
   9.173401e+01   3.414305e+01
  -1.732384e+00   1.272172e+02
  -1.364814e+02   1.704101e+02
  -1.269111e+02   8.007734e+01
  -1.671631e+02  -8.658004e+01
  -2.186986e+01  -2.016023e+02
   1.012278e+02  -1.626424e+02
   1.087930e+02   1.938479e+01
   9.770375e+01   1.523229e+02
  -3.633927e+01   1.537163e+02
  -3.954633e+01  -1.978308e+01
  -9.554407e+01  -4.305414e+01
  -2.380727e+01  -1.734413e+01
   8.514781e-02  -8.843339e+00
  -5.215488e+01  -1.474693e+01
  -4.683658e+01  -1.033608e+02
  -5.520215e+01  -8.289241e+01
   5.253795e+00   3.667492e+01
   1.135639e+02   5.154804e+01
   1.214775e+02   7.713529e+01
   4.166389e+01   5.845078e+01
  -1.002187e+02   1.614696e+01
  -1.292801e+02   1.069394e+01
  -5.970606e+00  -7.040273e+01
   3.095888e+01  -3.122338e+01
   6.332850e+01  -4.618462e+01
  -2.545979e+01  -2.558573e+01
  -4.304525e+01   2.538182e+01
   9.940037e+01   1.253783e+01
   1.191366e+02   3.064983e+01
  -4.260296e+01   8.469516e+01
  -1.357132e+02   7.140298e+01
  -1.760458e+02   5.994170e+00
  -1.474776e+02  -8.753343e+01
  -1.672022e+00  -1.778861e+02
   8.606433e+01  -1.612632e+02
   1.092818e+02  -9.121786e+01
   1.280962e+02   5.612553e+01
   2.520720e+01   5.376696e+01
   4.106691e+01   1.966281e+01
  -2.523659e+01  -2.279506e+01
   1.213473e+01   4.048116e+01
  -2.167575e+01   1.170294e+02
  -3.662671e+01   7.150885e+01
  -9.694682e+01  -4.153185e+01
  -8.070121e+01  -1.361640e+02
   2.384902e+01  -8.657965e+01
   9.581310e+01  -7.573376e+00
   1.845745e+02   6.299903e+01
   1.183216e+01   6.682306e+01
  -6.779920e+01   9.149721e+01
  -9.849587e+01   1.079687e+01
  -2.849404e+01  -3.015294e+01
   7.325110e+01  -7.701698e+01
   8.627960e+01  -1.854806e+01
  -2.417656e+01   4.612670e+01
  -4.464140e+01   1.127628e+01
  -5.443914e+01  -1.980456e+01
   1.014031e+02  -3.950590e+01
   1.067233e+02  -6.298981e+01
   6.690271e+01  -2.637265e+01
   3.560276e+01   4.904752e+01
  -6.494292e+01   4.318460e+01
  -4.221764e+01   1.011596e+01
  -4.311147e+00  -3.529867e+01
   4.249626e-01  -3.105718e+01
   1.317346e+01   4.000373e+01
   4.659187e+01   1.444208e+01
   1.113928e+01  -6.341557e+00
  -6.035073e+01   1.124323e+00
  -9.658007e+00  -1.838471e+01
  -4.770238e+01  -4.078822e+01
  -1.655629e+01  -1.210693e+01
   2.760326e+01  -3.867821e+01
   3.566958e+01  -4.250430e+01
   3.069446e+01  -3.609640e+01
   3.301777e+01   4.199438e+00
  -2.676352e+00   4.730948e+01
  -3.273148e+01   4.110645e+01
  -6.356040e+01  -2.197679e+01
  -1.656407e+01  -5.202985e+01
  -3.249459e+01  -5.858955e+01
   1.799026e+01  -1.274538e+01
   1.049356e+02   3.391256e+01
   6.418546e+01   1.552809e+01
   1.813440e-01   5.908276e+01
  -1.457163e+02   1.735671e+01
  -4.913289e+01  -1.599370e+01
   1.465316e+01  -7.805816e+00
   1.638723e+01  -1.196917e+01
  -1.677641e+01   4.486193e+01
  -5.333425e+01   6.313334e+01
