
 $NMID
 id='ANONYMOUS ', fmtdat='(2E16.6)'
 volume=1.0
 tramp=1.0
 $END
   4.879729e+03  -1.228838e+02
   2.543611e+03   2.706190e+03
  -6.961933e+02   2.844443e+03
  -2.201831e+03   9.201352e+02
  -1.024065e+03  -5.789714e+02
   7.143912e+02  -6.435177e+02
   8.649965e+02   5.192144e+02
   1.105236e+02   1.131106e+03
  -7.428577e+02   8.375686e+02
  -8.618876e+02  -1.367873e+02
  -4.004782e+02  -9.225492e+02
   2.804132e+02  -9.623014e+02
   6.451236e+02  -1.631586e+02
   4.969350e+02   7.273379e+02
  -1.666948e+02   6.279623e+02
  -6.098443e+02   1.144582e+02
  -2.548007e+02  -6.858327e+02
   4.100232e+02  -6.908686e+02
   5.914667e+02  -1.913259e+02
   4.200029e+02   3.174194e+02
   8.439683e+00   5.140369e+02
  -2.513344e+02   3.421845e+02
  -2.629532e+02   3.020839e+01
   1.574822e+02  -1.685585e+02
   4.573454e+02   7.066973e+01
   2.625494e+02   4.108815e+02
  -4.697169e+02   4.801186e+02
  -1.042128e+03  -3.020386e+01
  -5.556025e+02  -6.202010e+02
   3.982646e+02  -5.686961e+02
   8.882188e+02   4.593928e+01
   3.909527e+02   4.749807e+02
  -2.626666e+02   5.615678e+02
  -5.869363e+02   2.007867e+02
  -5.179539e+02  -1.793391e+02
  -1.873225e+02  -5.092202e+02
   1.810872e+02  -2.732538e+02
   2.057990e+02   2.435245e+02
  -1.405930e+02   5.284566e+02
  -5.190043e+02  -4.857183e+01
  -2.936960e+02  -7.823970e+02
   3.206573e+02  -7.366394e+02
   6.799708e+02   3.139294e+01
   3.324742e+02   5.970524e+02
  -3.792350e+02   3.869160e+02
  -3.865550e+02  -3.195844e+02
   3.992364e+01  -5.987515e+02
   6.311124e+02  -1.293173e+02
   6.477767e+02   3.187495e+02
   2.052755e+02   6.004966e+02
  -4.071204e+02   4.345461e+02
  -7.681439e+02  -2.101452e+01
  -4.602124e+02  -3.906878e+02
   1.620844e+02  -4.840043e+02
   4.895136e+02  -1.297309e+02
   2.570765e+02   1.513870e+02
  -1.478833e+02   9.530635e+01
  -1.474798e+02  -1.559624e+02
   1.356876e+02  -1.856436e+02
   3.437493e+02   4.556008e+01
   1.578380e+02   3.115523e+02
  -1.886954e+02   2.796325e+02
  -3.794822e+02   9.966318e+01
  -1.400883e+02  -9.281135e+01
  -9.402050e+00  -2.849904e+02
   1.911562e+02  -3.979979e+02
   3.618757e+02  -2.621570e+02
   3.391666e+02   1.457475e+02
   8.508785e+01   5.034062e+02
  -1.384999e+02   3.902960e+02
  -1.385030e+02   1.259476e+02
  -6.789550e+01  -1.622148e+01
  -6.334705e+01   5.737584e+01
  -1.381942e+02   1.416746e+02
  -2.131284e+02   1.222711e+01
  -1.625131e+02  -3.221060e+02
   2.423117e+01  -2.309502e+02
   2.658512e+02  -7.202896e+01
   2.045846e+02   1.794798e+02
   2.705992e+01   2.963831e+02
  -2.883521e+02   2.051058e+02
  -3.236461e+02  -1.451786e+02
  -2.132146e+02  -3.744568e+02
   1.363142e+02  -3.407789e+02
   2.558719e+02  -1.440992e+02
   1.772505e+02  -2.047390e+01
   1.262108e+02   6.524091e-01
   2.811899e+02  -9.497173e+01
   4.207267e+02  -2.939549e+01
   3.400641e+02   2.994310e+02
  -1.584369e+01   4.746138e+02
  -2.957260e+02   5.175329e+02
  -4.744650e+02   2.553988e+02
  -3.280257e+02  -8.304294e+01
  -1.029458e+02  -2.949749e+02
   1.520188e+02  -3.181421e+02
   5.736076e+01  -1.315282e+01
  -1.556419e+02   1.193465e+02
  -2.034064e+02  -6.154885e+00
  -3.889769e+01  -1.968651e+02
   1.792564e+02  -1.679235e+02
   2.048833e+02   3.867221e+01
   3.033273e+01   2.088500e+02
  -1.862539e+02   3.926253e+01
  -1.728285e+02  -2.371723e+02
   3.531372e+01  -3.685344e+02
   2.042703e+02  -1.763394e+02
   3.141071e+02   6.401184e+01
   3.102860e+02   2.554385e+02
   1.810545e+02   3.078552e+02
  -4.905290e+01   1.824640e+02
  -1.200438e+02   4.250138e+01
  -9.973337e+01   2.064171e+01
   4.239792e+00   1.899974e+01
   7.571683e+00   2.007187e+02
  -1.191345e+02   1.213733e+02
  -1.661457e+02   1.184093e+01
  -7.705153e+01  -4.375602e+01
   7.459370e+01  -5.785482e+01
   3.888176e+01   3.140340e+01
  -5.947382e+01   9.609213e+01
  -3.050893e+02  -1.805211e+01
  -2.825395e+02  -1.332722e+02
  -9.663447e+01  -2.155805e+02
   1.704450e+02  -2.460556e+02
   3.011058e+02  -1.671414e+02
   1.678051e+02   4.237382e+01
  -3.795253e+01   2.575150e+01
  -5.886895e+01  -3.071372e+01
   7.274575e+01  -7.130275e+01
   2.440034e+02  -2.932669e+01
   2.147373e+02   7.169081e+01
   6.628968e+01   2.557635e+02
  -1.424210e+02   2.221357e+02
  -2.266672e+02   3.488129e+01
  -6.996272e+01  -9.751936e+01
   2.267963e+01  -4.903092e+01
   3.930637e+01   1.144719e+02
  -4.731401e+01   1.479960e+02
  -2.034937e+02   1.670805e+01
  -2.355275e+02  -1.793414e+02
  -2.267556e+01  -1.867220e+02
   1.554983e+02  -1.718940e+02
   2.053245e+02  -3.679311e+01
   3.771323e+01   8.214561e+01
  -3.755143e+01   1.745792e+02
  -6.705073e+01   7.811139e+01
  -6.671276e+01  -1.763632e+01
   4.436906e+01  -4.704878e+01
  -5.122097e+01  -8.883063e+00
  -6.689272e+01  -3.234198e+01
  -1.191233e+02  -8.710574e+01
  -2.312482e+01  -1.406579e+02
   1.033773e+02  -1.669569e+02
   2.547798e+02  -3.104179e+01
   2.321829e+02   1.562906e+02
  -1.442324e+01   1.824023e+02
  -8.822646e+01   1.475063e+02
  -1.016982e+02  -1.173326e+01
  -7.634112e+01  -4.478958e+01
  -4.296205e+01   1.272307e+01
  -9.274204e+01  -4.497949e+01
  -5.125087e+01   3.177287e+01
  -6.589128e+01  -1.237240e+02
   7.816850e+01  -1.165475e+02
   8.014474e+01  -4.857456e+01
   6.965546e+01   6.262509e+01
  -1.190815e+01   1.236255e+02
  -1.743932e+02   2.810376e+01
  -2.420926e+02  -5.546147e+01
  -1.309324e+02  -2.142133e+02
   7.338967e+01  -2.542500e+02
   2.792490e+02  -1.361260e+02
   2.524774e+02   3.498804e+01
   1.694354e+02   1.970767e+02
  -1.880938e+00   1.620498e+02
  -6.167026e+01   1.115071e+02
  -6.973903e+01   1.308923e+02
  -7.087035e+01   9.535292e+01
  -1.356059e+02   1.092040e+02
  -1.905519e+02  -1.737426e+01
  -6.740592e+01  -1.818484e+02
  -1.936013e+01  -2.382126e+02
   1.296011e+02  -2.009428e+02
   1.837057e+02  -4.140587e+01
   1.463225e+02   1.185260e+02
   5.238655e+01   2.199580e+02
  -3.645077e+01   1.160662e+02
  -7.998397e+01   7.123776e+01
  -7.170534e+01   2.817804e+01
  -2.497076e+01  -2.980148e+01
  -4.411073e+01  -1.465983e+01
  -9.660032e+01  -8.170221e+01
  -6.846862e+01  -4.812265e+01
   1.804855e+01  -7.544457e+01
   1.612442e+02  -6.808644e+01
   1.890826e+02   3.720133e+01
   1.895772e+01   1.406161e+02
  -1.419139e+02   1.125289e+02
  -1.938214e+02   2.207761e+01
  -6.363620e+01  -3.297054e+01
   1.085253e+02  -4.600966e+01
   7.212304e+01   2.457362e+01
  -5.060980e+00   4.499664e+01
  -5.151629e+01   4.621369e+01
  -1.433340e+02   1.280198e+01
  -8.709022e+01  -7.201119e+01
  -3.187661e+00   9.452219e+00
  -7.696620e+01   1.944771e-01
  -3.476354e+01  -7.392592e+00
  -1.129536e+02  -7.660285e+01
   4.715515e+01  -1.728335e+02
   1.231966e+02  -1.446386e+02
   2.076178e+02  -1.073456e+02
   1.312597e+02   6.075345e+01
   2.841018e+01   1.584459e+02
  -5.921811e+01   8.449267e+01
  -7.088089e+01  -2.215663e+01
   8.442416e+01   6.645748e+00
   1.635831e+02   7.564955e+01
   8.475855e+01   1.405721e+02
  -7.489311e+01   1.385798e+02
  -1.754619e+02   8.576657e+01
  -1.680862e+02  -1.332455e+01
  -4.127597e+01  -1.367423e+02
   6.875233e+01  -4.421349e+01
  -3.945885e+00   5.994431e+01
  -4.554920e+01   4.504896e+01
  -1.353743e+02   3.087443e+01
  -2.809081e+01  -1.623759e+02
   4.925733e+01  -1.618982e+02
   1.612830e+02  -2.155192e+01
   1.188746e+02   7.147434e+01
   4.823952e+01   2.067060e+02
  -6.943641e+01   1.112803e+02
  -9.315145e+01   2.041424e+01
   9.666082e+00  -7.841466e+01
  -3.585202e+01  -1.047532e+02
   4.174303e+01   6.307548e+00
   7.518775e+01   2.170448e+01
   1.610425e+01  -3.598951e+01
   1.185485e+01  -1.275096e+01
  -3.758427e+01  -2.612664e+00
   6.294884e+01   1.119763e+02
   5.365733e+01   1.033068e+02
  -1.731415e+01   3.607791e+01
  -1.469873e+02  -3.384940e+01
  -1.482238e+02  -2.699559e+01
   8.135290e+00  -1.456347e+01
   1.286871e+02  -4.334055e+01
   4.878723e+01  -3.494675e+01
  -3.589419e+00  -4.235674e+01
  -8.687388e+01  -5.408216e-01
   5.305956e+00   2.481605e+01
   5.884002e+01  -6.103891e+00
   3.459526e+01  -1.710887e+01
  -5.342713e+01   4.067642e+01
  -4.809719e+01   1.577845e+01
   2.707595e+01  -7.369815e+01
   1.189764e+02  -1.004074e+02
   1.507204e+02  -3.100036e+01
   1.406067e+02   8.478960e+01
   1.775276e+01   1.429360e+02
  -8.403785e+01   1.454820e+02
  -1.134378e+02   7.244427e+01
  -1.130208e+02  -2.921402e+01
  -4.206013e+01  -9.517367e+01
  -3.538791e+00   2.891519e+01
   2.068122e-01   4.286051e+01
  -6.074267e+01  -2.298237e+01
  -5.859597e+00  -5.622017e+01
  -1.150312e+01  -3.551827e+01
   9.015267e+00   3.484370e+01
   2.714785e+01   1.345108e+02
   3.374509e+01   9.493516e+01
  -6.320741e+01   3.281707e+01
  -1.137669e+02  -4.611460e+01
  -2.128963e+01  -6.082187e+01
   5.536660e+01   1.215445e+01
   9.811018e+01   6.001797e+01
   6.939408e+00   5.832236e+01
  -7.047470e+01   3.081762e+01
  -4.562298e+01   6.952270e+01
   4.471194e+01  -2.121440e+00
   4.787795e+01  -1.454774e+01
   2.143704e+01   2.164559e+01
  -2.908694e+01   7.375618e+01
  -7.560287e+01   1.006501e+02
  -4.661383e+01   1.156694e+01
   1.397708e+01  -9.364731e+01
   3.921818e+01  -6.230343e+01
   4.958436e+00  -2.044427e+01
  -1.575841e+01   1.535689e+01
  -7.545674e+01   5.269885e+01
  -5.264900e+01  -9.343751e+00
  -1.178520e+01  -7.963053e+00
  -6.253549e+00  -6.874113e+01
   7.065575e+01  -1.529114e+01
   1.436132e+01   1.504033e+01
   4.793621e+01  -1.352109e+01
  -1.759638e+01   5.141246e+00
  -1.104635e+01   4.946734e+01
  -6.337909e+01   6.851524e+01
  -3.581852e+01   6.848204e+01
  -4.731167e+01  -1.300554e+01
  -4.729958e+01   1.215137e+01
   2.142283e+01  -7.304157e+01
   9.490461e+01  -7.313758e+01
   5.061366e+01   7.472500e+01
   2.386187e+01   9.052545e+01
  -3.456930e+01   3.461997e+01
  -6.672486e+01  -1.669780e+01
  -8.475783e+01  -5.513468e+01
  -2.130853e+01  -1.395910e+00
   9.064510e+01  -1.666045e+01
   3.288258e+01  -3.179549e+01
  -3.631728e+01  -5.547052e+01
  -3.436517e+01  -2.315324e+01
   8.154067e+00  -6.168449e+01
   7.932711e+01  -3.846617e+01
