
 $NMID
 id='ANONYMOUS ', fmtdat='(2E16.6)'
 volume=1.0
 tramp=1.0
 $END
  -4.914101e+03  -1.756718e+02
  -2.545125e+03  -3.027471e+03
   8.906861e+02  -2.949215e+03
   2.373233e+03  -8.604812e+02
   1.098050e+03   7.698884e+02
  -8.313958e+02   7.068333e+02
  -1.064105e+03  -4.928340e+02
   5.444326e+01  -1.249902e+03
   1.016576e+03  -7.955589e+02
   8.582273e+02   1.928333e+02
   4.563475e+02   9.064289e+02
  -2.196068e+02   1.039874e+03
  -7.245770e+02   1.731315e+02
  -4.443196e+02  -8.052266e+02
   2.875774e+02  -7.519368e+02
   6.238793e+02   2.797614e+01
   2.619623e+02   7.422996e+02
  -3.770003e+02   6.275307e+02
  -5.847431e+02   1.243511e+02
  -3.667941e+02  -3.793331e+02
   2.931097e+01  -4.656942e+02
   2.568639e+02  -2.569995e+02
   2.170704e+02   1.034237e+01
  -3.966075e+01   6.433057e+01
  -5.383832e+02  -1.965068e+02
  -1.551959e+02  -3.770050e+02
   4.972929e+02  -3.948114e+02
   8.617745e+02  -1.877218e+01
   4.711795e+02   6.119360e+02
  -3.693930e+02   4.865269e+02
  -7.278202e+02  -1.820012e+01
  -3.133986e+02  -5.246635e+02
   2.917798e+02  -5.694415e+02
   6.033429e+02  -1.980644e+02
   4.679735e+02   3.020091e+02
   3.363872e+01   5.201414e+02
  -2.712842e+02   3.451591e+02
  -2.478756e+02  -2.165723e+02
   1.746688e+02  -5.190483e+02
   4.745205e+02  -9.104752e-02
   2.947474e+02   7.163418e+02
  -3.831847e+02   7.152526e+02
  -6.955432e+02  -1.414607e+01
  -2.938263e+02  -5.347065e+02
   3.316399e+02  -2.915434e+02
   4.430164e+02   2.799987e+02
  -6.326894e+01   5.012693e+02
  -5.737991e+02   1.312069e+02
  -6.762563e+02  -3.658105e+02
  -1.458043e+02  -5.225090e+02
   3.879032e+02  -3.698416e+02
   6.787409e+02   9.388536e+01
   3.947018e+02   4.240848e+02
  -2.213342e+02   4.027841e+02
  -4.921368e+02   1.373805e+01
  -2.377165e+02  -2.775501e+02
   9.610732e+01  -1.653113e+02
   1.862308e+02   1.920037e+02
  -2.444042e+02   2.404538e+02
  -3.362169e+02  -8.466312e+01
  -1.331905e+02  -3.405220e+02
   2.058495e+02  -3.133220e+02
   3.084538e+02  -5.489574e+01
   1.045626e+02   1.020051e+02
  -2.221159e+01   1.811702e+02
  -1.738283e+02   2.899786e+02
  -2.956641e+02   2.240797e+02
  -3.083179e+02  -1.413084e+02
  -1.220990e+02  -4.243566e+02
   1.212743e+02  -4.337398e+02
   1.516764e+02  -1.239743e+02
   5.045760e+01   1.317357e+01
   1.442351e+01  -4.713196e+01
   1.503564e+02  -1.590271e+02
   2.965654e+02   7.773084e+01
   1.638730e+02   2.670444e+02
  -4.671508e+01   2.776707e+02
  -2.804050e+02  -8.599295e+00
  -1.691190e+02  -2.923720e+02
   7.480285e+00  -3.279065e+02
   2.813957e+02  -1.162403e+02
   3.683073e+02   2.001611e+02
   1.835578e+02   3.884912e+02
  -1.227726e+02   3.405903e+02
  -2.846345e+02   1.798480e+02
  -1.284813e+02  -6.229290e+00
  -1.141563e+02   2.668152e-01
  -1.887825e+02   4.839326e+01
  -4.431856e+02  -8.363428e+01
  -3.357686e+02  -3.114377e+02
   3.685712e+01  -4.185737e+02
   3.503171e+02  -4.277421e+02
   4.721855e+02  -2.276167e+02
   3.433855e+02   8.605268e+01
   1.029210e+02   2.806256e+02
  -8.576529e+01   3.193380e+02
  -7.487238e+01   5.351306e+01
   1.165449e+02  -1.876723e+02
   2.040338e+02   6.576860e+00
   1.047014e+02   2.097949e+02
  -1.611482e+02   1.626564e+02
  -2.206924e+02  -1.820452e+01
   2.157893e+01  -2.221851e+02
   1.973154e+02  -6.088528e+01
   1.496744e+02   2.817190e+02
  -4.732868e+01   3.557889e+02
  -2.533015e+02   2.070278e+02
  -3.412408e+02  -1.145638e+02
  -2.707416e+02  -3.250674e+02
  -1.374380e+02  -2.496492e+02
   8.030242e+01  -1.941859e+02
   1.946377e+02  -4.901130e+01
   4.645994e+01   2.965384e+01
  -3.456497e+01  -4.721169e+01
  -4.624323e+01  -1.137063e+02
   1.206946e+02  -1.343948e+02
   1.896754e+02  -4.694486e+01
   1.038349e+02   6.941126e+01
  -7.565778e+01   2.579255e+00
  -2.551795e+01  -1.045086e+02
   2.033118e+02  -6.921135e+01
   3.352861e+02   2.489228e+01
   2.601720e+02   1.269870e+02
   9.561028e+00   2.602196e+02
  -1.564168e+02   2.371485e+02
  -2.287433e+02   1.777588e+02
  -1.415955e+02  -2.445643e+01
   3.270060e+00  -1.255288e+02
   1.071387e+02  -3.128290e+01
  -3.808863e+01   5.771519e+01
  -2.350919e+02   6.063496e+01
  -1.613780e+02  -6.812660e+01
  -3.082754e+01  -2.041841e+02
   9.034975e+01  -1.552800e+02
   1.415973e+02  -2.255488e+00
   5.917627e+01   2.818804e+01
  -2.435351e+01   3.545016e+01
  -1.682391e+01  -1.145798e+02
   6.948188e+01  -1.081873e+02
   1.267978e+02   5.794568e+00
   1.769849e+02   1.473592e+02
   1.326484e+01   2.036602e+02
  -1.518923e+02   1.638600e+02
  -1.951974e+02   7.444021e+00
  -6.795943e+01  -1.100080e+02
   2.308421e+01  -1.205343e+02
   8.234566e+01  -7.264028e+01
   1.777920e+00  -2.493955e+01
   8.494605e+00   2.282754e+01
  -1.180522e+01   4.900165e+00
   5.305974e+01   3.126328e+01
   6.862097e+01   1.020815e+02
   1.235091e-01   1.565460e+02
  -1.427820e+02   1.384688e+02
  -1.995238e+02   2.893167e+01
  -1.880170e+02  -1.124266e+02
  -2.951999e+01  -2.178639e+02
   1.200303e+02  -1.635488e+02
   1.337010e+02  -4.685996e+01
   1.291466e+02   5.879150e+01
   1.574338e+01   4.639445e+01
   2.686285e+01  -5.697093e+01
   8.231847e+01  -5.222098e+01
   2.257334e+01   1.712602e+01
  -2.424037e+01   5.291884e+01
  -6.600049e+01   7.882752e+01
  -4.253701e+01  -1.067003e+01
   9.199586e+00  -5.331065e+01
   1.382987e+02  -6.259867e+00
   1.768355e+02   5.131485e+01
   1.122514e+02   2.195870e+02
  -1.505569e+02   2.387866e+02
  -2.972071e+02   5.110144e+01
  -2.467635e+02  -1.099080e+02
  -1.004451e+02  -1.869230e+02
   1.199772e+02  -1.574536e+02
   1.104261e+02  -1.068005e+02
   3.782025e+01  -3.411121e+01
   2.369389e+01  -1.039189e+02
   9.731403e+01  -4.387869e+01
   1.496769e+02   4.601043e+01
   1.262352e+02   1.402586e+02
  -2.044500e+01   2.505122e+02
  -1.162741e+02   1.389292e+02
  -1.472080e+02   2.027374e+01
  -1.389036e+02  -1.040686e+02
  -2.209855e+01  -1.636240e+02
   6.988391e+01  -2.786457e+01
   7.073487e+01   2.064719e+01
   5.816532e+01   3.203384e+01
   8.018959e+00   3.450397e+01
   6.897273e+00   2.838459e+01
  -5.602416e+00   2.863578e+00
   3.223153e+01   4.029647e+01
  -1.041339e+02   2.971534e+01
  -1.411982e+02  -6.376341e+00
  -1.027845e+02  -3.569596e+01
  -1.741870e+00  -8.588706e+01
   1.082036e+02  -2.062301e+01
   9.640719e+01  -1.500104e+01
   5.395469e+01   3.272071e+01
  -5.267007e+01   1.740612e+01
  -7.605446e+01  -4.204369e+01
  -7.651549e+00  -7.262254e+01
   1.075801e+02  -3.448454e+01
   5.710736e+01  -5.362481e+00
   6.998700e+01   3.751813e+01
   3.516744e+01   4.609995e+01
   7.522514e+01   3.099198e+01
   5.927417e+01  -1.365329e+01
  -7.818389e+00   3.774293e+01
  -6.299715e+01   2.381271e+02
  -1.385716e+02   9.835724e+01
  -1.832415e+02   2.677049e+01
  -9.601586e+01  -1.586316e+02
  -9.567275e-02  -1.018035e+02
   7.266205e+01  -9.578103e+01
   7.259166e+01   3.849734e+01
  -6.324056e+01   2.619714e+01
  -1.454251e+02  -5.674864e+01
  -8.473368e+01  -9.755838e+01
   9.310586e+01  -8.696532e+01
   1.694697e+02  -3.427345e+01
   1.474831e+02   2.619356e+01
   3.856185e+01   8.963882e+01
  -8.510187e+01   9.273096e+01
   6.832695e+00  -1.391671e+01
   2.057779e+01  -1.186337e+01
   7.672985e+01   3.178235e+01
   3.104857e+01   9.873630e+01
  -5.377906e+01   1.658758e+02
  -1.817212e+02   5.731515e+01
  -1.484236e+02  -1.189549e+02
  -4.191586e+00  -1.808973e+02
   1.095429e+02  -1.382669e+02
   9.596434e+01  -1.575705e+01
   4.729289e+01   1.299949e+02
   3.183648e+00   1.157039e+02
  -5.127084e+01   4.447301e+01
  -5.678844e+01  -4.132963e+01
  -4.320830e+01  -2.234730e+01
   1.568441e+00   1.840464e+01
  -3.659130e+01  -4.572849e+01
  -9.413229e+00  -8.379947e+01
  -5.345985e+01  -1.069718e+02
   5.956892e+01  -1.221224e+01
   1.083958e+02  -1.361722e+01
   9.162944e+01   6.105039e+01
   2.590947e+01   9.953378e+01
  -7.140761e+01   1.934002e+01
  -7.016489e+01   3.916962e+01
  -4.190075e+01  -3.797010e+00
   5.889206e+01   8.510564e+00
  -4.054419e+01  -4.016663e+01
  -3.097043e+01   5.106666e-01
   2.683625e+01  -1.584118e+01
   7.479116e+01  -1.313076e+01
   4.981502e+01   1.514674e+01
   2.043870e+00   6.396992e+01
  -4.835655e+01   8.909047e+01
  -1.930871e+02   3.704971e+01
  -1.198550e+02  -7.823718e+01
  -3.596054e+01  -1.850192e+02
   7.183739e+01  -1.451636e+02
   1.281428e+02  -2.908015e+01
   7.292035e+01   2.186301e+01
   2.917712e-01   2.642838e+01
  -4.676243e+00  -2.590504e+01
   1.079152e+01   2.035580e+01
   6.363384e+01   8.177077e+01
   5.966180e+01   1.045925e+02
  -4.844992e+01   6.625974e+01
  -9.742077e+01  -2.076690e+01
  -9.567900e+01  -1.400862e+02
   2.126283e+00  -1.072280e+02
   1.181322e+02  -2.025028e+01
   6.795626e+01   6.337312e+01
   1.349596e+01   6.428806e+01
  -7.117365e+01   7.069831e+01
  -8.280602e+01  -9.322136e+00
  -1.860115e+01  -3.875370e+00
   2.963595e+01   2.290180e+01
  -4.745248e+00   6.348270e+00
  -4.060586e+01   2.060187e+01
  -7.366643e+01   2.999498e+00
  -4.702805e+01  -8.485787e-01
   8.027120e+01   3.670474e+00
   9.502251e+01  -6.399930e+01
   2.531417e+01  -1.637800e+01
  -2.850739e+00   7.221472e+01
  -4.655940e+01   9.824495e+01
  -5.907052e+01  -4.704976e+01
  -1.470008e+01  -7.010171e+01
   4.104919e+01  -1.837589e+01
   6.318614e+01   5.653477e+01
  -2.286731e+01   2.866628e+01
  -3.380297e+01  -1.938441e+01
  -1.271168e+01   2.360548e+01
  -6.305014e+01   9.365315e+00
  -1.610359e+01   1.115889e+01
  -1.661755e+01  -2.108520e+01
   1.364175e+01   7.578680e+00
   5.019277e+01  -4.791468e+01
   1.336024e+01  -4.784637e+01
   5.701546e+01   4.991734e+01
   6.770854e+01   5.968208e+01
  -3.108564e+00   5.407237e+01
  -2.911724e+01   1.095907e+01
  -5.421950e+01  -4.977843e+01
  -6.676103e+01  -6.248845e+01
   5.910113e+01  -4.836653e+01
   8.943431e+01  -2.844020e+01
   5.233224e+01   1.973239e+00
  -1.519385e+01   3.003087e+01
  -8.698214e+01   1.361321e+01
  -2.378671e+01  -1.511999e+01
   6.574949e+01  -2.381340e+01
   1.484406e+01   7.042260e+01
  -6.711534e+01  -1.229451e+01
  -5.415388e+01   4.525190e+00
