
 $NMID
 id='ANONYMOUS ', fmtdat='(2E16.6)'
 volume=1.0
 tramp=1.0
 $END
  -4.491234e+03   6.294143e+01
  -2.938939e+03  -2.654384e+03
   6.873283e+02  -3.106735e+03
   2.413675e+03  -1.147067e+03
   1.321000e+03   7.389981e+02
  -6.844988e+02   7.009055e+02
  -1.049533e+03  -3.107688e+02
  -8.569738e+01  -1.179065e+03
   8.669288e+02  -9.247564e+02
   9.442224e+02   9.477328e+01
   4.863869e+02   9.510145e+02
  -1.964104e+02   1.046425e+03
  -6.760210e+02   2.775283e+02
  -4.001401e+02  -7.703968e+02
   2.996462e+02  -8.116315e+02
   6.185430e+02  -7.846209e+01
   3.518325e+02   7.684176e+02
  -3.299036e+02   8.044880e+02
  -7.421372e+02   1.250559e+02
  -4.138448e+02  -4.403011e+02
  -8.239106e-01  -5.051572e+02
   3.374229e+02  -2.487590e+02
   2.501346e+02  -1.178449e+01
  -7.984561e+01   1.315268e+02
  -4.795961e+02  -1.436768e+02
  -2.327877e+02  -5.167359e+02
   5.001970e+02  -4.229982e+02
   1.006781e+03   2.442972e+01
   5.455912e+02   5.386501e+02
  -3.231306e+02   4.868500e+02
  -7.617760e+02   6.105316e+01
  -3.269241e+02  -4.961942e+02
   2.850071e+02  -4.946342e+02
   6.675405e+02  -2.260388e+02
   4.561510e+02   2.284599e+02
   7.138173e+01   5.826797e+02
  -2.154316e+02   3.871792e+02
  -2.107060e+02  -2.008912e+02
   2.154923e+02  -4.322042e+02
   4.605948e+02   4.318423e+01
   3.205992e+02   6.927533e+02
  -3.284699e+02   7.773857e+02
  -6.391530e+02  -7.093011e+00
  -3.026299e+02  -6.230193e+02
   3.268258e+02  -3.365244e+02
   4.327030e+02   3.075653e+02
  -1.863153e+00   6.332010e+02
  -5.562159e+02   1.986038e+02
  -7.013381e+02  -3.871577e+02
  -2.355105e+02  -7.000603e+02
   3.896842e+02  -3.842004e+02
   6.881206e+02   7.296619e+01
   4.139789e+02   3.826122e+02
  -1.228533e+02   3.771100e+02
  -4.623394e+02   6.970962e+01
  -2.980581e+02  -1.644805e+02
   1.453176e+02  -1.593753e+02
   1.629507e+02   1.758485e+02
  -1.457020e+02   2.056814e+02
  -3.741200e+02   4.070812e+00
  -1.364108e+02  -2.460256e+02
   1.813215e+02  -2.383302e+02
   3.615573e+02  -6.304203e+01
   2.209988e+02   5.333018e+01
  -3.728022e+01   2.610401e+02
  -2.536859e+02   3.749537e+02
  -3.431212e+02   2.544024e+02
  -2.582683e+02  -1.418571e+02
  -6.300959e+01  -4.343517e+02
   7.844546e+01  -3.329914e+02
   1.132690e+02  -5.537925e+01
   2.915007e+01   7.050335e+01
   7.868612e+01  -1.320844e+02
   1.713100e+02  -1.794133e+02
   2.666058e+02   3.021559e+01
   1.665847e+02   3.123597e+02
  -3.290458e+01   2.796735e+02
  -2.106753e+02   2.772003e+00
  -1.992692e+02  -2.034907e+02
  -3.160817e+01  -2.107036e+02
   2.347127e+02  -1.382954e+02
   3.471999e+02   1.965809e+02
   1.692773e+02   3.983747e+02
  -8.119320e+01   3.127146e+02
  -2.341179e+02   1.141174e+02
  -1.877160e+02  -2.198403e+01
  -7.663055e+01   7.601106e+01
  -1.723306e+02   9.833308e+01
  -4.009961e+02  -8.990879e+01
  -3.529847e+02  -2.850546e+02
  -6.745202e+00  -4.527449e+02
   3.823774e+02  -3.811045e+02
   5.464584e+02  -1.730821e+02
   3.376700e+02   1.366105e+02
   5.700705e+01   2.744642e+02
  -1.363283e+02   2.518823e+02
  -1.029789e+02   1.124987e+02
   1.117371e+02  -1.018761e+02
   1.566047e+02  -1.184602e+01
   1.971550e+01   2.058386e+02
  -1.457837e+02   2.061200e+02
  -2.380716e+02  -7.719229e+01
  -1.892134e+00  -2.454663e+02
   2.275879e+02  -9.106609e+01
   1.964037e+02   2.169839e+02
  -1.595931e+01   3.545282e+02
  -2.203073e+02   2.050037e+02
  -3.037911e+02  -4.244144e+00
  -2.699255e+02  -1.923229e+02
  -1.396845e+02  -2.424960e+02
   7.917748e+01  -1.218253e+02
   1.862036e+02  -3.741400e+01
   9.187783e+01   3.207585e+01
  -4.884538e+01   1.211250e+01
   1.481726e+01  -9.458159e+01
   9.099492e+01  -7.534918e+01
   1.716150e+02  -4.315581e+01
   5.004046e+01   6.014032e+01
  -1.083172e+02   6.753416e+01
  -5.617176e+01  -6.394360e+01
   9.092431e+01  -8.035843e+01
   3.182859e+02  -3.499962e+01
   2.623488e+02   1.175859e+02
   8.609290e+01   2.467153e+02
  -1.544743e+02   2.655647e+02
  -3.317865e+02   1.246474e+02
  -1.772097e+02  -8.985421e+01
   1.902508e+01  -9.678228e+01
   1.026593e+02  -1.960919e+01
  -6.471484e+01   1.590240e+02
  -2.213763e+02   1.406472e+02
  -2.246173e+02  -1.161397e+02
  -7.895294e+01  -1.908902e+02
   8.115944e+01  -2.198752e+02
   9.727984e+01  -5.437403e+01
   1.016841e+02   3.525259e+01
  -3.020366e+01  -2.777440e+01
   9.428357e+00  -8.432424e+01
   1.584441e+02  -9.624217e+01
   1.831732e+02  -1.007465e+01
   1.884796e+02   1.177668e+02
  -2.898321e+01   2.339392e+02
  -2.313817e+02   2.137821e+02
  -2.654698e+02  -4.096240e-02
  -9.436072e+01  -1.584088e+02
   5.685336e+01  -1.232453e+02
   1.206316e+02  -4.484866e+01
   2.190518e+01   6.978119e+00
  -3.955760e+01   1.887522e+01
   1.082051e+01  -5.608680e+00
   3.668709e+01  -1.596865e+01
   1.213797e+02   7.905204e+01
   5.945210e+01   1.439110e+02
  -1.179571e+02   1.601225e+02
  -2.657769e+02   7.484007e+01
  -2.391708e+02  -1.510608e+02
  -5.996528e+01  -2.916561e+02
   1.177110e+02  -1.838154e+02
   1.449611e+02  -1.078943e+01
   8.237186e+01   5.257387e+01
   5.583469e+01   6.109217e+01
   4.288407e+01  -4.446614e+01
   7.572066e+01  -1.713849e+01
   3.708833e+01   3.798852e+01
  -7.409947e+01   1.386981e+02
  -1.448317e+02   5.845727e+01
  -9.821191e+01  -2.452180e+01
   2.420724e+01  -1.061077e+02
   1.477292e+02  -1.061651e+02
   2.404599e+02   8.143020e+01
   1.082995e+02   1.870869e+02
  -1.702792e+02   2.651636e+02
  -2.684094e+02   1.373483e+02
  -2.656591e+02  -8.423166e+01
  -1.095038e+02  -1.651779e+02
   3.627692e+01  -1.381014e+02
   1.256470e+02  -2.003790e+01
   7.880222e+01  -1.065226e+02
   1.004421e+02  -1.095347e+02
   7.189046e+01  -1.007234e+02
   1.455253e+02   5.570102e+01
   1.613292e+02   2.006052e+02
   5.437700e+01   2.891825e+02
  -1.043302e+02   2.150916e+02
  -2.284169e+02  -2.298746e+01
  -1.801813e+02  -1.645082e+02
  -1.374771e+01  -1.539312e+02
   1.371750e+02  -1.220318e+02
   7.336807e+01   3.663513e+01
  -3.029107e+01   2.464556e+00
  -3.444036e+01   3.016510e+01
   5.883901e+01  -3.018435e-01
   1.205552e+02   4.669821e+01
   5.027236e+01   2.129176e+01
  -5.944206e+01   3.280094e+01
  -2.102035e+02   1.648302e+01
  -1.515650e+02  -5.364898e+00
  -6.671739e+00  -9.674390e+01
   1.488184e+02  -1.027829e+02
   1.807925e+02  -5.180632e+01
   2.918932e+01   4.320708e+01
  -7.781877e+01   5.343839e+01
  -6.876812e+01   4.964605e+01
  -1.299836e+01  -8.184443e+01
   1.215790e+02  -9.711608e+01
   5.646437e+01  -1.415617e+01
   5.740753e+01   5.798998e+01
   5.475376e+01   6.253955e+01
   1.161058e+02   2.023216e+01
   7.772473e+01  -8.773405e+00
   5.801960e+01   4.751612e+01
  -4.821573e+01   1.441738e+02
  -9.403906e+01   1.594372e+02
  -1.663831e+02   7.941982e+01
  -1.325571e+02  -1.028322e+02
  -5.893272e+01  -1.115521e+02
   1.249603e+02  -5.900307e+01
   1.112656e+02   3.056664e+01
   1.517575e+01   1.927795e+01
  -1.506104e+02  -7.402272e+00
  -9.761124e+01  -1.388138e+02
   1.086695e+02  -9.220493e+01
   1.705751e+02  -1.432597e+02
   1.749473e+02   3.594208e+01
   5.471994e+01   7.453321e+01
  -9.952642e+01   5.998984e+01
  -1.980218e+01  -7.843612e-01
   4.523187e+01  -5.449227e+01
   1.241818e+02   3.225613e+01
   3.735282e+01   1.508294e+02
  -1.497214e+02   1.689230e+02
  -2.185713e+02   2.977562e+01
  -1.416583e+02  -1.015288e+02
   3.798193e+00  -2.268843e+02
   1.307287e+02  -1.764387e+02
   1.417297e+02   1.321676e+01
  -8.778278e+00   1.027804e+02
   2.689162e+00   1.296176e+02
  -3.732877e+01   8.762502e+01
  -3.954096e+01  -1.800258e+01
  -2.816264e+01  -1.863608e+01
  -5.872159e+01   4.878318e+01
  -7.241373e+01  -3.660469e+01
  -4.975527e+01  -1.381334e+02
  -7.350344e+01  -1.264270e+02
   4.980772e+01  -9.170599e+01
   1.593968e+02   4.955552e+01
   1.613069e+02   1.018417e+02
   3.781490e+01   4.715879e+01
  -8.911930e+01  -2.189661e+01
  -7.992963e+01   5.438999e+01
  -2.932441e+01  -1.065761e+01
   2.222261e+01  -2.614073e+01
   3.145830e+01  -3.932454e+01
   1.043808e+01  -9.164062e+00
   2.904323e+01   1.796590e+01
   6.245113e+01  -4.288162e+01
   1.096760e+02   2.430048e+01
   3.265771e+01   6.316207e+01
  -1.299873e+02   1.274022e+02
  -2.031699e+02   7.687404e+01
  -1.546074e+02  -8.022255e+01
   3.486521e+01  -1.481250e+02
   9.558256e+01  -1.736258e+02
   1.092295e+02  -6.101414e+01
   6.300972e+01   2.639160e+01
  -2.194280e+01   1.181019e+01
  -2.950489e+01  -5.566239e+00
   3.829219e+01  -5.144298e+01
   6.727771e+01   1.202598e+02
   9.956035e+00   1.017656e+02
  -4.586594e+01   6.138065e+01
  -1.229923e+02  -5.923714e+01
  -7.379510e+01  -1.488071e+02
   6.986521e+00  -1.585256e+02
   1.428286e+02   6.708906e+00
   1.076734e+02   9.808311e+01
   7.139282e+01   1.110334e+02
  -8.399775e+01   3.452408e+01
  -9.964139e+01   1.092456e+01
  -1.900848e+01  -3.654413e+01
   7.080557e+01  -2.388822e+01
   4.319713e-01  -2.775865e+01
  -5.363937e+01  -4.587080e+00
  -1.003527e+02  -9.402769e+00
   1.573964e+00  -3.487331e+01
   4.480714e+01  -1.951694e+01
   1.053925e+02  -3.910179e+01
   6.564068e+01  -3.214553e+01
  -4.266888e+01   7.683054e+01
   1.175421e+01   4.571697e+01
  -1.053966e+00   8.402313e+00
   1.202786e+01  -6.983860e+01
   3.285827e+01  -3.063021e+01
   1.771531e+01   2.324476e+01
  -4.005183e+00   6.186404e+01
  -1.346529e+01   6.369866e+01
   9.358301e+00  -2.561245e+01
  -6.002181e+01  -4.809462e+01
  -3.410521e+01   1.075064e+01
  -3.911420e+01  -1.515738e+01
  -4.446672e+00  -3.275639e+01
   3.251791e+01  -4.569040e+01
   4.173895e+01  -3.099779e+01
   7.041480e+01  -6.537206e+01
   3.201692e+01   3.347087e+01
  -2.357865e+01   7.754539e+01
  -5.846040e+01   5.480435e+01
  -6.387909e+01  -5.274324e+01
   1.740203e+01  -8.842497e+01
   6.903705e+01   1.815338e+01
   6.781207e+01   3.838490e+00
   6.158216e+01   3.060675e+01
  -7.639783e+00   4.468382e+01
  -4.234985e+01  -1.985748e+01
  -7.868648e+01  -1.881207e+01
  -1.102160e+00   1.723590e+00
   5.663018e+01   1.309282e+01
   6.270646e+00  -1.594047e+01
  -9.010527e+01   2.539534e+01
