
 $NMID
 id='ANONYMOUS ', fmtdat='(2E16.6)'
 volume=1.0
 tramp=1.0
 $END
   4.539395e+03   2.488581e+01
   2.889214e+03   2.495301e+03
  -3.697000e+02   2.925627e+03
  -1.953034e+03   1.034333e+03
  -1.162163e+03  -4.719259e+02
   4.300228e+02  -4.928228e+02
   8.271253e+02   4.602797e+02
  -2.538473e+01   1.034620e+03
  -8.246931e+02   8.151557e+02
  -9.967550e+02   2.269114e+01
  -5.750518e+02  -8.356396e+02
   1.216897e+02  -9.187930e+02
   6.416483e+02  -2.244678e+02
   4.502599e+02   7.495362e+02
  -2.727241e+02   8.497748e+02
  -6.601099e+02  -1.250619e+02
  -3.798608e+02  -7.485998e+02
   3.212549e+02  -8.255288e+02
   6.154814e+02  -1.863215e+02
   4.547657e+02   4.061845e+02
   5.313871e+01   5.852159e+02
  -2.810119e+02   3.851784e+02
  -1.777526e+02  -1.941096e-01
   2.904081e+02  -1.265696e+02
   4.987875e+02   1.836206e+02
   1.096941e+02   5.114303e+02
  -5.613639e+02   3.768722e+02
  -8.492133e+02  -9.903196e+01
  -4.686510e+02  -5.518880e+02
   4.762915e+02  -4.750147e+02
   8.027118e+02   6.724196e+01
   3.011027e+02   4.980725e+02
  -3.387794e+02   5.183778e+02
  -5.600199e+02   1.762195e+02
  -4.337085e+02  -2.794782e+02
  -1.323692e+02  -4.501840e+02
   2.267014e+02  -2.804517e+02
   1.374309e+02   2.607555e+02
  -2.576487e+02   4.305436e+02
  -4.743571e+02  -4.202866e+01
  -1.892482e+02  -6.652552e+02
   3.265346e+02  -7.038979e+02
   6.276948e+02  -4.992241e+01
   2.503195e+02   5.106926e+02
  -3.506022e+02   3.386102e+02
  -4.250270e+02  -2.956324e+02
   7.040208e+01  -5.535861e+02
   6.343899e+02  -1.939334e+02
   7.640589e+02   4.220584e+02
   2.272691e+02   6.629578e+02
  -4.077883e+02   3.759147e+02
  -6.607777e+02  -9.516458e+01
  -4.054800e+02  -4.119275e+02
   9.436625e+01  -3.921162e+02
   4.382215e+02  -3.471644e+01
   2.534536e+02   1.799578e+02
  -1.284003e+02   4.706237e+01
  -1.321486e+02  -1.312221e+02
   8.786565e+01  -1.784797e+02
   3.010979e+02  -1.912542e+00
   1.371332e+02   2.398274e+02
  -2.403379e+02   2.962870e+02
  -3.392947e+02   9.675140e+01
  -2.057424e+02  -9.053345e+01
   2.605490e+01  -2.735999e+02
   3.230868e+02  -3.829973e+02
   4.563124e+02  -2.129530e+02
   3.339072e+02   1.520167e+02
   1.081501e+02   4.184779e+02
  -1.137207e+02   3.358676e+02
  -1.308954e+02   1.302629e+02
  -3.590841e+01  -1.021777e+01
  -6.156819e+01   1.067987e+02
  -2.356646e+02   1.087135e+02
  -3.529153e+02  -7.956220e+01
  -1.638793e+02  -2.578600e+02
   1.184888e+02  -2.309020e+02
   2.495754e+02  -2.287186e+01
   2.019812e+02   2.599061e+02
  -2.036805e+01   3.146608e+02
  -3.354291e+02   9.783243e+01
  -3.773887e+02  -1.792345e+02
  -2.550462e+02  -3.852809e+02
   9.045756e+01  -3.033774e+02
   2.531028e+02  -1.111959e+02
   1.656178e+02  -8.114666e+00
   1.156648e+02  -4.064473e+01
   2.650640e+02  -8.091323e+01
   3.981873e+02   7.866490e+01
   3.177488e+02   3.186527e+02
   3.488175e+01   4.964626e+02
  -3.875082e+02   4.651493e+02
  -5.570311e+02   2.308089e+02
  -3.595805e+02  -1.284661e+02
  -1.118598e+02  -3.277304e+02
   1.352856e+02  -3.324978e+02
   7.364560e+01  -2.976873e+01
  -1.038517e+02   1.365742e+02
  -2.339897e+02  -1.725667e+01
  -3.054668e+01  -1.896739e+02
   1.633260e+02  -1.214778e+02
   1.712035e+02   9.936640e+01
  -9.475117e+01   2.185423e+02
  -2.346062e+02   6.778750e+01
  -2.476957e+02  -2.604772e+02
   1.220042e+01  -4.310392e+02
   2.991300e+02  -2.190043e+02
   3.740129e+02   3.053952e+01
   3.369770e+02   2.130345e+02
   1.339104e+02   2.724649e+02
  -1.418976e+02   2.001308e+02
  -1.732043e+02  -1.060473e+01
  -1.233686e+01  -2.764178e+01
   8.729945e+01   7.583060e+01
   2.313601e+01   1.633407e+02
  -1.489372e+02   1.414804e+02
  -1.706288e+02   1.875514e+01
  -3.560993e+01  -6.650959e+01
   1.159976e+02  -3.899643e+01
   1.154153e+02   7.132931e+01
  -1.400823e+02   6.861772e+01
  -2.946781e+02   1.828825e+01
  -3.021093e+02  -1.233650e+02
  -8.198220e+01  -2.585125e+02
   2.195302e+02  -3.237887e+02
   2.830185e+02  -1.791727e+02
   2.208322e+02   7.520868e+01
  -5.798643e+01   1.328373e+02
  -1.080186e+02  -2.920974e+00
   4.636223e+01  -1.509341e+02
   2.341031e+02  -8.626797e+01
   2.106534e+02   1.324387e+02
   8.003447e+01   1.948621e+02
  -8.393610e+01   1.345579e+02
  -1.410189e+02   5.508690e+01
  -4.119694e+01  -6.623247e+01
   5.220812e+01  -2.926088e+00
   1.208091e+02   9.289984e+01
  -1.029619e+02   1.105264e+02
  -1.928075e+02   6.083421e+01
  -2.204656e+02  -1.107487e+02
  -2.249137e+01  -2.391549e+02
   1.383436e+02  -1.502417e+02
   1.924056e+02  -1.984919e+00
   5.054312e+01   9.340398e+01
  -6.569279e+01   1.546592e+02
  -2.402964e+01   5.161382e+01
  -2.862276e+01  -7.116656e+01
   7.399450e+01  -3.779182e+01
   1.705225e+01  -1.174262e+00
  -7.903793e+01   3.346989e+01
  -1.282622e+02  -8.547207e+01
  -4.046158e+01  -2.018360e+02
   1.445186e+02  -1.497698e+02
   2.223340e+02  -1.313782e+01
   1.787452e+02   1.700985e+02
   6.490905e+01   1.969584e+02
  -1.087315e+02   1.534084e+02
  -1.641719e+02   5.997804e+01
  -8.400256e+01  -1.010266e+02
   1.048070e+01   5.108990e+00
  -3.593921e+00   3.320522e+01
  -5.462518e+01   4.277001e+00
  -6.006730e+01  -2.191747e+01
   6.092816e+00  -1.085225e+02
   1.416864e+02  -5.723478e+01
   9.744867e+01   4.512659e+01
   1.442870e+01   1.909767e+02
  -1.994266e+02   1.295708e+02
  -2.410712e+02  -5.507585e+01
  -1.312899e+02  -2.205111e+02
   1.056655e+02  -2.933497e+02
   2.921036e+02  -1.123192e+02
   2.967998e+02   8.864922e+01
   1.648871e+02   1.902989e+02
  -2.663921e+01   1.488664e+02
  -1.017826e+02   5.207405e+01
  -1.179015e+02   6.212133e+01
  -6.864039e+01   9.639056e+01
  -1.163833e+02   1.426637e+02
  -1.177532e+02  -2.176083e+01
  -1.346588e+02  -1.565863e+02
  -9.268098e+01  -2.529627e+02
   8.207480e+01  -1.896416e+02
   2.324041e+02  -1.080798e+01
   1.648034e+02   1.424775e+02
   1.569243e+01   1.397964e+02
  -1.025227e+02   1.108822e+02
  -6.908325e+01   1.018395e+01
   2.827040e+01  -7.278395e+01
   5.116738e+01  -2.848234e+01
  -4.622572e+01  -3.218302e+01
  -8.917268e+01   2.750779e+01
  -8.481793e+01  -3.291315e-01
   5.394776e+01  -7.285454e+01
   1.875435e+02  -2.287265e+01
   1.718778e+02   7.026184e+01
   1.999133e+01   1.127686e+02
  -1.325233e+02   6.114231e+01
  -1.715581e+02   7.391568e+00
  -7.084741e+01  -6.523560e+01
   6.865814e+01  -8.583014e+01
   1.239977e+02   2.363730e+01
   2.317260e+01   7.023630e+01
  -6.991340e+01   4.275418e+01
  -9.915756e+01  -1.646854e+01
  -8.483450e+01  -9.423170e+01
  -5.022863e+01  -1.677408e+01
  -6.137473e+01   4.115686e+00
  -4.490488e+01  -9.056134e+00
  -5.741616e+01  -6.487053e+01
   1.499207e+01  -1.396984e+02
   8.658645e+01  -1.156673e+02
   1.575935e+02  -6.661155e+01
   1.432779e+02   1.036158e+02
   1.126989e+01   1.532211e+02
  -8.409320e+01   5.271733e+01
  -5.936053e+01  -1.631502e+00
   8.125481e+01  -1.554707e+01
   1.430445e+02   4.956050e+00
   8.915973e+01   1.282880e+02
  -4.473438e+01   1.529904e+02
  -1.995953e+02   1.019728e+02
  -1.877896e+02  -4.063595e+01
  -4.427254e+01  -1.235011e+02
   8.676555e+01  -8.738733e+01
   7.106843e+01  -2.948790e+01
  -5.594025e+01   3.508550e+01
  -1.232335e+02  -9.949247e+00
  -3.522900e+01  -1.344952e+02
   5.708783e+01  -1.646579e+02
   1.385100e+02  -1.351886e+02
   1.762979e+02   6.428066e+01
   1.328439e+01   2.288976e+02
  -7.121883e+01   1.563491e+02
  -1.159120e+02  -6.194468e+00
  -3.361139e+01  -1.675783e+02
   1.697590e+01  -1.505929e+02
   1.091920e+02  -2.327483e+01
   5.914353e+01   3.673450e+00
   1.535289e+01   2.314189e+01
   4.963651e+00  -1.051216e+01
   3.527006e+01   5.106103e+01
   7.281478e+01   9.557752e+01
   5.189714e+01   1.481122e+02
  -4.467502e+01   6.157059e+01
  -1.738630e+02  -7.632628e+01
  -1.269612e+02  -1.160971e+02
   8.753322e+00  -3.137328e+01
   7.818420e+01  -4.695899e+01
   9.900195e+01  -4.484550e+01
   7.792264e+01   5.782936e+00
  -3.249676e+01   2.654711e+01
   1.132485e+01   3.813166e+01
   4.042864e+01   3.558157e+01
   1.720081e+01  -2.037220e+01
  -7.487024e+01  -5.584686e-03
  -1.008870e+02  -7.661590e+00
  -3.767757e+01  -5.340155e+01
   1.297067e+02  -1.830891e+02
   2.152721e+02  -6.328961e+01
   1.776110e+02   4.128869e+01
  -1.048599e+01   1.474008e+02
  -7.771710e+01   1.716178e+02
  -1.055519e+02   4.047308e+01
  -7.653824e+01  -1.038336e+01
  -2.596895e+01  -5.869533e+01
  -1.406361e+01   1.395961e+01
   1.032100e+01  -8.236252e+00
  -1.651318e+01   4.386437e-01
  -1.077981e+01  -8.833695e+01
   1.594657e+01  -6.441666e+01
   7.835120e+01   1.934188e+01
   1.105308e+02   7.133878e+01
  -2.344472e+01   1.192239e+02
  -9.824802e+01  -2.620299e+01
  -1.086590e+02  -4.861128e+01
  -3.613540e+01  -9.936145e+01
   8.929326e+01  -8.498068e+01
   1.180185e+02   3.014593e+01
   4.876111e+01   6.899562e+01
  -7.353099e+01   7.745035e+01
  -1.694442e+01   4.710872e+01
  -1.581551e+01  -2.315070e+01
   4.299697e+01  -5.021598e+01
   2.111528e+01  -9.359424e+00
  -9.521518e+01   2.385776e+01
  -7.733066e+01   6.058258e+01
  -7.891861e+01   3.192763e+01
  -1.154274e+01  -9.862843e+00
   2.907214e+01  -1.148915e+02
   1.289065e+01  -2.369234e+01
  -1.311701e+00   4.262388e+01
  -5.074677e+00   9.135192e+00
  -1.978485e+01  -7.741308e+00
  -5.361678e+01  -1.228413e+01
  -3.372527e+01  -5.457060e+01
   6.754126e+01   1.243313e+01
   1.180776e+02   1.908337e+01
   3.715959e+01   2.208788e+01
  -3.796451e+00  -2.122515e+01
  -4.011445e+00   2.836173e-01
  -3.881392e+00   6.676960e+01
  -2.096873e+01   7.036449e+01
  -5.750261e+01  -2.330975e+01
  -4.916757e+01  -1.222207e+02
   9.658744e+00  -6.369221e+01
   5.588462e+01  -2.604057e+01
   9.183939e+01   6.870129e+01
   4.652061e+01   7.264620e+00
  -6.618287e+01   6.764575e+01
  -1.459678e+02   2.110192e+01
  -5.000734e+01   1.660381e+01
   2.453245e+00  -7.486187e+00
   6.975780e+01  -5.748361e+00
  -5.425487e+01  -3.568548e+01
  -6.623159e+01  -4.264347e+00
  -5.105858e+01  -3.620692e+01
   5.517783e+01  -5.009358e+01
   1.071895e+02  -2.333533e+01
