
 $NMID
 id='ANONYMOUS ', fmtdat='(2E16.6)'
 volume=1.0
 tramp=1.0
 $END
  -4.915588e+03  -3.203125e+01
  -2.798915e+03  -2.766906e+03
   7.466409e+02  -2.971788e+03
   2.328963e+03  -1.000013e+03
   9.075296e+02   7.462704e+02
  -7.121086e+02   8.237715e+02
  -9.897455e+02  -4.756215e+02
   7.811386e+00  -1.084736e+03
   8.815007e+02  -8.244907e+02
   9.505724e+02   1.003758e+02
   4.972338e+02   9.645789e+02
  -1.608759e+02   9.622029e+02
  -6.705843e+02   1.215422e+02
  -4.588509e+02  -7.885080e+02
   2.755676e+02  -8.008830e+02
   6.291381e+02  -3.707026e+01
   3.465666e+02   7.422284e+02
  -3.504589e+02   7.608434e+02
  -7.299326e+02   9.237928e+01
  -4.487067e+02  -4.353916e+02
   5.141479e+01  -5.184607e+02
   2.529775e+02  -2.955082e+02
   1.858147e+02  -1.081626e+02
  -1.213241e+02   5.456065e+01
  -4.459458e+02  -1.008211e+02
  -1.938797e+02  -4.119409e+02
   5.225434e+02  -4.983948e+02
   8.889404e+02   8.777127e+01
   4.257492e+02   6.410663e+02
  -4.056809e+02   5.323638e+02
  -8.203687e+02   1.191695e+01
  -3.771673e+02  -5.550203e+02
   2.683312e+02  -5.881383e+02
   6.318825e+02  -2.469381e+02
   4.124960e+02   2.854158e+02
   4.297200e+01   5.670642e+02
  -2.538232e+02   2.806249e+02
  -1.994041e+02  -2.684226e+02
   9.715264e+01  -5.260716e+02
   5.141278e+02   5.769206e+00
   2.838180e+02   7.139489e+02
  -3.262833e+02   8.278444e+02
  -7.072074e+02   8.040987e+01
  -3.618284e+02  -5.454195e+02
   2.799235e+02  -3.872502e+02
   4.374796e+02   2.933737e+02
  -2.192377e+01   5.566905e+02
  -6.231957e+02   1.819592e+02
  -6.784525e+02  -4.025912e+02
  -2.053921e+02  -6.020302e+02
   4.569435e+02  -4.198088e+02
   6.738583e+02   6.164666e+00
   4.024518e+02   3.854443e+02
  -1.529805e+02   4.672475e+02
  -4.744345e+02   1.034040e+02
  -2.600513e+02  -2.226213e+02
   9.654694e+01  -1.582291e+02
   1.361939e+02   1.774541e+02
  -1.777589e+02   2.301818e+02
  -4.157891e+02  -3.841191e+01
  -1.604250e+02  -3.452317e+02
   2.431735e+02  -3.231412e+02
   3.239048e+02  -5.952637e+01
   2.013996e+02   1.317531e+02
  -3.684224e+01   2.187018e+02
  -2.368366e+02   3.152396e+02
  -3.661304e+02   2.472824e+02
  -3.423967e+02  -1.497955e+02
  -1.083019e+02  -4.901884e+02
   1.334634e+02  -3.922306e+02
   1.196559e+02  -9.184054e+01
   7.503955e+00   3.959040e+01
  -3.206583e+00  -8.890109e+01
   1.573809e+02  -1.179682e+02
   2.577035e+02   9.321626e+00
   2.080260e+02   2.697633e+02
  -2.888599e+01   2.913426e+02
  -2.229478e+02  -2.059283e+01
  -1.716201e+02  -2.578144e+02
  -2.839681e+01  -2.468038e+02
   2.634965e+02  -1.522565e+02
   3.299440e+02   1.483258e+02
   1.833072e+02   3.319885e+02
  -9.332437e+01   2.986611e+02
  -2.250462e+02   1.308319e+02
  -1.433209e+02  -9.568675e-01
  -1.159869e+02   3.116357e+01
  -2.249133e+02   1.166244e+02
  -4.123360e+02  -2.863209e+01
  -3.170696e+02  -3.058945e+02
  -2.000674e+01  -4.464736e+02
   3.230657e+02  -4.562069e+02
   5.055720e+02  -2.506731e+02
   4.292771e+02   7.979571e+01
   1.260857e+02   3.212018e+02
  -1.744149e+02   2.778789e+02
  -7.257691e+01   3.048805e+01
   1.434809e+02  -1.517393e+02
   2.509166e+02   1.283560e+01
   4.562270e+01   2.145475e+02
  -1.751006e+02   2.206429e+02
  -2.053600e+02  -8.077346e+01
   1.189292e+01  -2.214144e+02
   1.416016e+02  -6.838488e+01
   1.059853e+02   1.902131e+02
   6.351919e+00   3.652365e+02
  -2.356059e+02   1.873706e+02
  -3.127132e+02  -5.150128e+01
  -2.786117e+02  -2.308821e+02
  -1.056532e+02  -2.701938e+02
   8.933309e+01  -1.624504e+02
   1.867021e+02  -6.420265e+00
   1.043715e+02   3.226257e+01
  -6.592961e+01   4.745124e+01
  -5.295649e+01  -1.169825e+02
   1.158934e+02  -1.017939e+02
   1.716062e+02   4.056240e+01
   4.296621e+01   7.570164e+01
  -7.160747e+01   1.401589e+00
  -4.830092e+01  -5.614825e+01
   8.036317e+01  -9.841449e+01
   2.836918e+02   1.042149e+01
   2.672147e+02   1.309023e+02
   1.049213e+02   1.863932e+02
  -1.152104e+02   2.557675e+02
  -2.951544e+02   1.104655e+02
  -1.702272e+02   1.128574e+01
  -1.895623e+01  -1.109750e+02
   1.032089e+02   3.642389e+01
  -4.050923e+01   6.829987e+01
  -2.140527e+02   4.435715e+01
  -2.182735e+02  -1.331710e+02
  -8.088734e+01  -2.198528e+02
   8.319324e+01  -1.814616e+02
   1.529119e+02  -4.137442e+01
   7.916774e+01   4.203675e+01
  -3.509172e+00   1.397638e+01
  -7.583497e+01  -6.357526e+01
   6.110911e+01  -1.555877e+02
   2.059240e+02  -4.234227e+01
   1.873939e+02   1.373336e+02
   2.383588e+01   2.599169e+02
  -1.683698e+02   1.513974e+02
  -2.304643e+02   3.262906e+01
  -1.031832e+02  -1.039640e+02
   4.689857e+01  -1.366349e+02
   7.285347e+01  -4.163384e+01
   2.636006e+01   2.988146e+01
  -1.715327e+01   2.074798e+01
  -4.259650e+00  -5.052513e+00
   4.398247e+01   1.710846e+01
   6.092055e+01   8.384638e+01
   2.963262e+00   1.550840e+02
  -1.133232e+02   1.144043e+02
  -2.265830e+02   1.223187e+01
  -1.984706e+02  -1.927037e+02
  -1.499750e+01  -2.310821e+02
   1.103517e+02  -1.593705e+02
   1.364380e+02   1.460542e+01
   8.777370e+01   6.221888e+01
   2.256845e+01   2.900891e+01
   4.861961e+01  -6.666231e+01
   6.097330e+01  -6.322453e+01
   3.674197e+01   7.752925e+01
  -6.133313e+01   8.484262e+01
  -9.706171e+01   3.715536e+01
  -9.062150e+01  -3.163227e+01
  -7.344591e+00  -1.187960e+02
   1.783930e+02  -8.121802e+01
   2.420896e+02   3.485860e+01
   1.531533e+02   2.150973e+02
  -1.095665e+02   2.367910e+02
  -2.706565e+02   1.300834e+02
  -2.412959e+02  -6.870267e+01
  -1.145848e+02  -1.898854e+02
   5.380018e+01  -1.375989e+02
   1.244799e+02  -4.304392e+01
   3.826060e+01  -8.558956e+01
   4.756961e+01  -1.159325e+02
   1.362759e+02  -6.855414e+01
   1.579789e+02   6.157368e+01
   9.959493e+01   1.300221e+02
   5.580920e+01   2.408578e+02
  -5.363568e+01   1.861373e+02
  -1.121639e+02   2.271691e+01
  -1.317756e+02  -9.002955e+01
   3.527836e+00  -2.145230e+02
   1.111187e+02  -9.599781e+01
   6.085673e+01   1.506684e+01
   1.973609e+01   9.848666e+01
  -6.075578e+00   3.237309e+01
  -1.239189e+01  -1.837795e+01
   1.201535e+02   1.670467e+00
   1.544727e+02   1.067441e+01
  -2.811054e+01   6.595673e+01
  -1.303063e+02   3.640136e+01
  -1.432082e+02  -3.638988e+01
  -1.619302e+01  -1.304828e+02
   1.282392e+02  -6.206276e+01
   1.393488e+02  -5.979300e+00
   6.619180e+01   6.845284e+01
  -3.857794e+01   6.232023e+01
  -9.893097e+01  -4.859021e+01
  -3.490184e+01  -9.404809e+01
   4.989769e+01  -8.381006e+01
   4.788737e+01   3.452547e+00
   1.221537e+02   3.785162e+01
   1.256566e+02   2.918298e+01
   1.045445e+02   2.399457e+01
   6.400546e+01  -3.383535e+01
   3.512575e+01   8.059911e+01
  -4.792840e+01   1.006192e+02
  -1.693981e+02   1.362245e+02
  -2.066261e+02   9.047782e+01
  -1.383841e+02  -9.647919e+01
  -2.719660e+01  -1.526026e+02
   1.325333e+02  -6.697174e+01
   1.061046e+02   2.288989e+01
  -7.933468e+01   2.881980e+01
  -1.358831e+02  -7.071317e+01
  -7.911080e+01  -1.689326e+02
   9.689152e+01  -1.268894e+02
   2.183108e+02   4.218459e+01
   1.181818e+02   8.050960e+01
   3.428820e+01   9.127798e+01
  -6.829920e+01   9.400191e+01
  -3.904759e+01  -5.562208e+00
  -2.621436e+01  -2.535120e+01
   1.168192e+02   3.559664e+00
   7.800448e+01   1.287686e+02
  -6.322870e+01   1.906062e+02
  -1.835333e+02   1.088629e+02
  -1.428967e+02  -8.271136e+01
  -1.219732e+00  -2.045624e+02
   9.562600e+01  -8.359607e+01
   1.033194e+02  -1.873542e+01
   2.155020e+01   1.148923e+02
  -9.160219e-01   8.101060e+01
  -7.922239e+00   1.029178e+01
  -3.272992e+01  -5.014696e-01
   1.126078e+01   7.522125e+00
  -3.910659e+01   1.570452e+01
  -9.474062e+01  -2.666276e+01
  -3.571848e+01  -1.277271e+02
  -6.268547e+01  -1.383818e+02
   2.702684e+01   9.791746e+00
   1.159920e+02   9.960406e+01
   8.522217e+01   8.130382e+01
  -2.262355e+01   2.226122e+01
  -5.101629e+01  -1.644495e+01
  -9.060650e+01  -2.171423e+01
   8.362473e+00  -6.492149e+00
   5.012903e+01   2.775956e+01
   4.449484e+00   2.394862e+01
  -5.286850e+01  -2.648937e+01
  -6.557573e+00  -3.520578e+01
   7.027399e+01  -3.215474e+01
   8.120012e+01   5.460097e+01
   1.265098e+01   9.009644e+01
  -9.069628e+01   1.854204e+02
  -1.988180e+02   6.152675e+01
  -1.445411e+02  -6.673414e+01
  -4.398180e+01  -1.256071e+02
   8.375045e+01  -1.191446e+02
   1.429502e+02  -3.203960e+01
   4.891449e+01   3.568319e+01
   1.874293e+01   1.301585e+02
   1.396870e+00   2.462046e+01
   4.668696e+01   2.688995e+01
  -4.019890e+01   7.277046e+01
   6.664180e+01   8.041326e+01
  -5.611259e+01   3.170525e+01
  -3.625744e+01  -9.239798e+00
  -5.876302e+01  -9.950168e+01
  -7.141034e+00  -1.723290e+02
   7.848009e+01   1.933345e-01
   8.293836e+01   9.542648e+01
   2.293877e+01   6.888734e+01
  -2.402506e+01   6.622151e+01
  -1.161303e+02  -2.280487e+01
  -1.546602e+01  -4.719303e+01
   9.882713e+01  -2.002627e+01
   2.387929e+01   4.901675e+01
  -3.956970e+01   4.671037e+01
  -1.190467e+02   1.727642e+01
  -4.779447e+01   1.825419e+01
   2.901865e+01  -1.043234e+02
   1.465269e+02  -4.935536e+01
   6.019618e+01  -5.279064e+01
  -1.855730e+01   4.979428e+01
  -4.809045e+01   1.197157e+02
  -1.748771e+01   1.609985e+01
  -1.250811e+01  -5.915348e+01
   5.777686e+01  -7.229532e+01
   4.789522e+01   4.506174e+01
   2.316848e+01   7.625943e+01
  -4.320117e+01   5.303107e+01
  -1.541602e+01  -3.665491e+01
  -1.872211e+01  -7.765775e+01
  -6.579405e+00   1.311712e+01
  -7.679976e+00   2.842424e+01
  -2.585721e+01  -1.254379e+01
  -4.135028e+01  -5.186824e+01
   5.188564e+01  -2.903716e+01
   9.429345e+01   1.344413e+01
   2.695621e+01   2.058981e+01
   2.564889e+01   2.351684e+01
  -2.474306e+01   1.589114e+01
  -3.923062e+01  -7.865615e+00
  -2.672623e+01  -5.284635e+01
   1.239753e+01  -1.143174e+01
   6.776183e+01   1.366723e+01
   7.729686e+01   1.410990e+00
  -5.429141e-01   2.465135e+01
  -9.991094e+01   1.327765e+01
  -9.574499e+00  -6.125865e+00
   7.503377e+00  -1.417269e-01
   4.680121e+01   9.901236e+00
  -1.907301e+01   4.465943e+01
  -1.128530e+02  -1.107212e+00
