
 $NMID
 id='ANONYMOUS ', fmtdat='(2E16.6)'
 volume=1.0
 tramp=1.0
 $END
  -4.869728e+03  -2.531337e+02
  -2.696638e+03  -2.832227e+03
   9.388874e+02  -3.097911e+03
   2.327040e+03  -7.503513e+02
   8.936489e+02   7.394532e+02
  -9.067081e+02   5.246573e+02
  -1.021830e+03  -6.154304e+02
   7.563674e+00  -1.330584e+03
   8.862197e+02  -9.402155e+02
   9.893984e+02   1.342916e+02
   4.943171e+02   9.801472e+02
  -1.904843e+02   1.037483e+03
  -6.556124e+02   6.413140e+01
  -3.708439e+02  -8.126456e+02
   3.636768e+02  -8.608477e+02
   7.063840e+02   2.236951e+01
   2.945091e+02   7.232135e+02
  -4.253482e+02   7.139511e+02
  -5.935679e+02  -3.933610e+01
  -3.434044e+02  -4.121892e+02
   1.166741e+02  -4.591363e+02
   3.372321e+02  -3.136948e+02
   1.552529e+02   7.011163e+01
  -1.574544e+02   1.436193e+02
  -4.856291e+02  -5.737495e+01
  -2.050516e+02  -5.453517e+02
   5.720593e+02  -4.777761e+02
   9.944670e+02   3.960862e+01
   5.130846e+02   6.097293e+02
  -4.010520e+02   5.415913e+02
  -8.049683e+02  -8.059993e+01
  -4.035172e+02  -5.296539e+02
   2.689191e+02  -6.107573e+02
   6.428286e+02  -1.744409e+02
   4.200322e+02   3.222262e+02
   6.595776e+01   5.806731e+02
  -2.521229e+02   3.511484e+02
  -2.375541e+02  -3.092662e+02
   1.953639e+02  -4.799599e+02
   5.530076e+02  -7.743067e+01
   3.129396e+02   7.050393e+02
  -4.074289e+02   8.049193e+02
  -6.911606e+02   2.640330e+01
  -2.873605e+02  -6.199214e+02
   3.764946e+02  -4.343842e+02
   5.168869e+02   3.158635e+02
  -5.286668e+01   5.672482e+02
  -6.301566e+02   1.784924e+02
  -6.642063e+02  -4.215141e+02
  -1.578446e+02  -6.557215e+02
   4.323530e+02  -4.053568e+02
   7.784570e+02   8.982322e+01
   4.263657e+02   4.502023e+02
  -2.281213e+02   4.268018e+02
  -5.351398e+02   3.387434e+01
  -2.732847e+02  -2.917073e+02
   1.405382e+02  -1.452598e+02
   1.764488e+02   1.623342e+02
  -1.227136e+02   2.791476e+02
  -3.642787e+02  -6.489937e+01
  -1.847548e+02  -3.160569e+02
   2.307935e+02  -2.847337e+02
   3.366181e+02  -4.918795e+01
   1.282963e+02   1.291927e+02
  -5.050183e+01   1.965856e+02
  -2.129515e+02   2.619723e+02
  -3.088992e+02   2.646239e+02
  -3.094195e+02  -9.506675e+01
  -7.319156e+01  -4.162082e+02
   6.360491e+01  -4.041299e+02
   1.361442e+02  -8.888173e+01
   2.917715e+01   8.569081e+01
   7.835864e+01  -1.101256e+02
   2.033509e+02  -1.847352e+02
   3.404119e+02   3.953026e+01
   2.615561e+02   3.280251e+02
  -4.831687e+01   2.916439e+02
  -2.362919e+02   7.683326e+01
  -2.516967e+02  -2.162545e+02
  -4.166129e+01  -2.893041e+02
   3.033749e+02  -1.421802e+02
   3.695770e+02   1.635174e+02
   2.013094e+02   3.439684e+02
  -1.947707e+02   3.069621e+02
  -3.155768e+02   1.274422e+02
  -1.488018e+02  -7.177115e+01
  -4.968089e+01   5.543485e+00
  -1.924484e+02   3.376231e+01
  -4.331423e+02  -8.006674e+01
  -3.284092e+02  -3.316385e+02
   3.288842e+01  -4.529790e+02
   3.557520e+02  -4.280185e+02
   4.963286e+02  -2.338863e+02
   3.208667e+02   1.497605e+02
   1.473071e+01   2.626978e+02
  -2.236575e+02   2.879534e+02
  -1.559242e+02   1.536887e+01
   1.227249e+02  -1.531757e+02
   2.041383e+02  -8.282399e+01
   5.757026e+01   1.748410e+02
  -1.348327e+02   2.129767e+02
  -2.274831e+02  -8.015263e+01
   2.528951e+01  -1.915783e+02
   2.156068e+02  -7.432886e+01
   1.689357e+02   2.243897e+02
   1.229268e+01   3.197791e+02
  -1.997709e+02   1.489499e+02
  -3.452381e+02  -2.206172e+01
  -2.447831e+02  -2.351353e+02
  -1.344841e+02  -2.534857e+02
   9.323032e+01  -1.638002e+02
   1.691128e+02   2.484360e+01
   1.004011e+02   3.516772e+01
  -7.274958e+01  -3.981974e+01
  -6.386730e+01  -1.177845e+02
   8.309328e+01  -1.364105e+02
   2.081658e+02  -2.212003e+01
   7.817377e+01   3.327913e+01
  -1.046758e+02  -1.782396e+01
  -1.355156e+01  -6.788483e+01
   1.112766e+02  -1.333338e+02
   3.272625e+02  -2.034766e+01
   2.585294e+02   1.766996e+02
   1.047586e+02   3.508969e+02
  -2.177718e+02   2.892937e+02
  -3.525684e+02   1.392363e+02
  -2.132523e+02  -4.249191e+01
   2.329824e+01  -1.378495e+02
   1.046583e+02   1.532263e+00
  -3.962514e+01   1.184700e+02
  -2.437766e+02   3.562030e+01
  -2.406572e+02  -1.100389e+02
  -8.248779e+01  -2.193418e+02
   9.838145e+01  -1.868737e+02
   1.246468e+02  -1.035388e+01
   4.525796e+01   3.668268e+01
   1.070063e+01  -2.030690e+01
  -8.027266e+00  -6.154679e+01
   8.141128e+01  -9.731425e+01
   1.830163e+02  -2.455477e+01
   1.689215e+02   1.654629e+02
   7.566854e+01   2.436772e+02
  -1.634875e+02   1.957688e+02
  -2.000888e+02   2.154516e+01
  -5.878302e+01  -8.357386e+01
   5.786560e+01  -1.116127e+02
   1.083495e+02  -2.023297e+01
   7.120807e+01  -6.520960e+00
  -1.729745e+00   3.143935e+01
   1.170813e+00   2.063204e+01
   1.725792e+01   4.214224e+01
   8.489041e+01   1.305773e+02
  -2.949101e+01   1.632151e+02
  -1.561673e+02   1.355672e+02
  -2.652198e+02   2.284456e+01
  -2.744870e+02  -1.558965e+02
  -7.656248e+01  -2.477082e+02
   1.139177e+02  -2.292247e+02
   1.369130e+02  -5.618654e+01
   9.936952e+01   9.182933e+01
   2.712229e+01  -5.055105e+00
   6.265635e+01  -3.356094e+01
   9.720975e+01  -1.673311e+01
   3.215478e+01   7.192547e+01
  -8.868037e+01   1.116756e+02
  -1.054922e+02   4.863990e+01
  -9.231884e+01  -5.665352e+01
  -2.836608e+01  -1.091708e+02
   1.339887e+02  -1.481982e+02
   1.871036e+02  -1.113140e+01
   1.315568e+02   1.988598e+02
  -7.149290e+01   2.499020e+02
  -2.844462e+02   1.482494e+02
  -2.781380e+02  -5.509621e+01
  -1.050145e+02  -1.574458e+02
   2.370929e+01  -1.454530e+02
   7.967361e+01  -8.138700e+01
   6.081944e+01  -2.239530e+01
   2.333859e+01  -1.020254e+02
   4.725605e+01  -8.008680e+01
   1.624871e+02   2.511519e+01
   1.344128e+02   1.388173e+02
   6.644293e+01   2.077711e+02
  -9.706096e+01   2.052700e+02
  -1.604910e+02   4.251082e+01
  -1.309153e+02  -9.531436e+01
  -3.743576e+01  -1.326651e+02
   5.698765e+01  -9.312496e+01
   1.016942e+02   3.743024e+01
   1.254856e+01   7.045992e+01
  -5.063839e+01   4.444164e+01
   2.622713e+01  -2.597405e+01
   1.325318e+02  -7.398460e+00
   1.080874e+01   3.039443e+01
  -7.865404e+01   3.845188e+01
  -1.438800e+02   2.647896e+01
  -1.390337e+02  -5.872084e+01
  -4.573368e+00  -5.170133e+01
   1.105215e+02  -6.709871e+01
   1.151212e+02   6.676673e+00
   2.675085e+01  -2.550052e+00
  -5.065275e+01   1.011823e+01
  -9.441470e+01  -6.057670e+01
   1.278187e+01  -3.106467e+01
   6.937323e+01  -4.687118e+01
   7.494781e+01   8.192271e+00
   7.092224e+01   8.519631e+01
   3.670791e+01   4.378206e+01
   7.465966e+01  -2.240813e+01
   2.826532e+01   1.471987e+01
   6.205931e+01   4.800242e+01
  -6.559391e+01   1.386105e+02
  -1.343304e+02   1.502655e+02
  -2.033727e+02   2.312258e+01
  -1.132650e+02  -9.000855e+01
  -4.729846e+01  -1.170753e+02
   6.653134e+01  -9.949629e+01
   6.363123e+01  -9.970861e+00
  -5.463122e+01   1.928001e+01
  -1.074301e+02  -5.934124e+01
  -9.740279e+01  -6.069658e+01
   8.334893e+01  -1.217179e+02
   1.835145e+02  -4.851040e+01
   1.934111e+02   1.449155e+01
   7.722694e+01   1.073899e+02
  -4.180987e+01   1.263230e+02
  -5.605821e+01   2.971948e+01
   2.172084e+01  -1.322995e+01
   9.449106e+01   9.663874e+01
   2.520354e+01   1.146121e+02
  -8.901507e+01   1.931841e+02
  -2.250676e+02   5.889940e+01
  -1.570074e+02  -1.073956e+02
  -4.543338e+01  -2.214938e+02
   1.029555e+02  -1.323392e+02
   1.263773e+02  -3.021935e+01
   4.206094e+01   1.063205e+02
   4.548203e+01   1.151803e+02
  -2.472833e+01   3.888043e+00
  -7.014350e+01   1.587194e+01
  -4.611521e+01   3.311471e+01
   3.976095e+01   1.816742e+01
  -6.605117e+01  -4.419184e+00
  -5.265943e+01  -7.251739e+01
  -2.229572e+01  -1.358443e+02
   2.780784e+01  -4.284130e+01
   1.573534e+02   1.773744e+01
   1.068411e+02   7.479506e+01
   1.441555e+01   6.476584e+01
  -1.208596e+02  -9.936156e+00
  -5.583913e+01  -2.418483e+00
  -4.025612e+01  -3.578644e+00
   2.287544e+01   7.587368e+00
   2.105568e+01  -5.573535e+00
  -2.259444e+01  -1.698163e+01
   8.786636e+00  -4.192837e+01
   8.445701e+01   9.935159e+00
   1.265168e+02   2.690192e+01
   4.196369e+01   1.082060e+02
  -9.134401e+01   1.326001e+02
  -1.716476e+02   2.756732e+01
  -1.282638e+02  -2.114608e+01
  -1.041646e+02  -1.687609e+02
   5.595566e+01  -1.612139e+02
   9.483037e+01  -6.243057e+01
   9.659678e+01   1.969700e+01
   1.952003e+01   3.336840e+01
   3.631870e+00  -1.242579e+01
   2.378433e+01  -4.394443e+01
   3.225370e+01   2.250699e+01
   2.083128e+01   7.540097e+01
  -7.167544e+01   4.859264e+01
  -8.086290e+01   7.478313e+00
  -7.827392e+01  -1.157338e+02
   4.900120e+01  -1.135070e+02
   9.639696e+01  -3.023322e+01
   1.224589e+02   8.904886e+01
   5.687804e+01   8.453144e+01
  -5.395070e+01   1.728193e+01
  -8.263147e+01   1.745382e+01
  -8.300525e+01  -4.855259e+01
   1.871014e+01  -4.570627e+01
   5.456665e+01  -4.917196e+01
  -4.676368e+01  -1.700568e+01
  -4.967145e+01  -9.913154e+00
   1.847616e+00  -2.752399e+01
   7.937045e+01  -1.194873e+02
   1.444330e+02  -6.911732e+01
   3.651268e+01  -2.931626e+01
   3.230714e+00   6.254751e+01
  -6.332900e+01   2.547229e+01
  -6.215835e+01   1.601707e+01
  -8.153034e+00  -5.985992e+01
   6.022373e+01  -1.774789e+01
   5.775593e+01   1.217952e+01
   3.232640e+01   4.166262e+01
   6.308293e+00   6.364171e+01
  -3.546770e+01   2.419181e+01
  -6.050811e+00  -5.032226e+01
  -8.486850e+01  -2.708076e+01
  -3.601528e+00  -1.583678e+01
  -2.290249e+01   1.999079e+01
  -1.896580e+01  -1.953960e+01
   1.578229e+01  -6.428246e+01
   3.768910e+01  -6.761336e+00
   4.836620e+01   7.580570e+01
   4.442472e+01   3.587845e+01
  -8.011625e+01   1.159333e+01
  -1.046722e+02  -2.665052e+01
  -3.808397e+01  -8.393760e+01
   2.579724e+01  -3.989598e+01
   1.124508e+02   2.338878e-01
   1.114618e+02   6.958297e+01
  -2.421077e+01   5.437178e+01
  -7.756568e+01   3.817574e+01
  -2.892697e+01   2.830847e+01
  -1.253852e+01  -4.766504e+01
   5.912386e+01  -2.118084e+01
  -5.146558e+01   9.102690e+01
  -1.340705e+02  -2.849268e+00
