
 $NMID
 id='ANONYMOUS ', fmtdat='(2E16.6)'
 volume=1.0
 tramp=1.0
 $END
  -3.987216e+03   2.567402e+02
  -2.678666e+03  -2.544727e+03
   7.037035e+02  -2.847277e+03
   2.299768e+03  -9.722895e+02
   1.185133e+03   8.359038e+02
  -6.255255e+02   8.153138e+02
  -9.708303e+02  -3.797093e+02
  -1.060861e+02  -1.161648e+03
   9.397138e+02  -8.941461e+02
   1.000483e+03   5.984808e+01
   4.386118e+02   9.108365e+02
  -2.580807e+02   8.875453e+02
  -6.202829e+02   1.381479e+02
  -3.957814e+02  -7.385416e+02
   2.998546e+02  -8.141142e+02
   6.364251e+02  -5.455155e+00
   3.212727e+02   6.336977e+02
  -2.814139e+02   6.150933e+02
  -6.391946e+02   4.425258e+01
  -3.351049e+02  -3.796794e+02
   2.659686e+01  -4.308256e+02
   2.206157e+02  -2.790911e+02
   2.274912e+02  -1.964141e+01
  -1.312689e+02   4.644953e+01
  -3.662851e+02  -1.203801e+02
  -1.532872e+02  -4.682863e+02
   4.771899e+02  -5.007917e+02
   8.380973e+02   9.921507e+01
   4.211388e+02   5.774670e+02
  -3.851401e+02   5.169600e+02
  -7.160126e+02  -2.689083e+01
  -3.054436e+02  -5.269471e+02
   2.958980e+02  -4.982325e+02
   4.955231e+02  -1.857896e+02
   4.389530e+02   1.883383e+02
   1.547172e+02   4.482076e+02
  -1.580047e+02   2.788001e+02
  -2.057050e+02  -2.316284e+02
   1.190234e+02  -4.425757e+02
   4.538327e+02  -2.488307e+01
   2.495192e+02   7.667225e+02
  -2.870612e+02   7.722224e+02
  -6.196123e+02   7.255673e+00
  -2.613494e+02  -5.815034e+02
   3.489343e+02  -3.412473e+02
   3.994828e+02   3.463927e+02
  -2.889278e+01   5.837924e+02
  -5.864751e+02   1.627637e+02
  -6.412250e+02  -3.732404e+02
  -1.611543e+02  -5.992729e+02
   4.345217e+02  -3.464659e+02
   7.170411e+02   7.513063e+01
   3.129777e+02   4.211925e+02
  -1.802588e+02   4.037210e+02
  -4.280862e+02   5.902669e+01
  -2.284596e+02  -1.482687e+02
   8.831808e+01  -1.288313e+02
   1.233985e+02   1.740270e+02
  -1.900155e+02   1.986236e+02
  -4.234070e+02  -1.204787e+02
  -1.629021e+02  -3.214118e+02
   1.884752e+02  -2.719144e+02
   3.000211e+02  -8.405713e+01
   1.928446e+02   1.051522e+02
  -7.994056e+01   1.578080e+02
  -1.658566e+02   2.323435e+02
  -3.078676e+02   1.424913e+02
  -1.882598e+02  -1.548143e+02
  -6.710466e+00  -3.981947e+02
   6.628014e+01  -3.125011e+02
   1.187226e+02  -9.335594e+01
  -1.949777e+01   1.626781e+01
   4.513761e+01  -1.073070e+02
   1.969589e+02  -1.759724e+02
   3.074071e+02   4.970589e+01
   1.955107e+02   2.680915e+02
  -9.439136e+01   2.232073e+02
  -2.429650e+02  -4.627676e+01
  -1.691865e+02  -2.575487e+02
   6.294192e+01  -2.907513e+02
   3.001849e+02  -1.324391e+02
   3.923486e+02   1.783857e+02
   1.871976e+02   3.401851e+02
  -1.279213e+02   2.954152e+02
  -2.077146e+02   7.246277e+01
  -1.538382e+02   9.488876e+00
  -1.128131e+02   4.053684e+01
  -2.816165e+02   4.562397e+01
  -3.737934e+02  -2.800863e+01
  -3.219777e+02  -2.760288e+02
  -8.849243e+01  -4.847222e+02
   3.254081e+02  -4.600739e+02
   4.738545e+02  -2.059004e+02
   3.808392e+02   1.385490e+02
   9.528337e+01   3.095746e+02
  -1.290000e+02   2.267344e+02
  -1.143223e+02  -8.621914e+00
   1.005156e+02  -1.306150e+02
   2.687863e+02   1.624055e+01
   8.000378e+01   2.617441e+02
  -1.898746e+02   2.176478e+02
  -1.661388e+02  -9.753812e+01
   1.842276e+01  -1.911287e+02
   2.012748e+02  -4.676560e+01
   1.900984e+02   2.442011e+02
  -8.485423e+01   3.529458e+02
  -2.466810e+02   1.254050e+02
  -3.363900e+02  -9.564699e+01
  -2.588114e+02  -2.747602e+02
  -5.444009e+01  -2.827789e+02
   1.425209e+02  -2.006801e+02
   1.214916e+02  -2.849254e+01
   7.441116e+01   6.894707e+01
  -2.395035e+01   2.137911e+00
  -1.286624e+01  -1.033898e+02
   1.395824e+02  -7.369353e+01
   9.930219e+01   6.281956e+01
   3.370934e+01   6.823153e+01
  -1.062903e+02   1.803625e+01
  -4.804115e+01  -1.001575e+02
   9.783558e+01  -1.373224e+02
   2.737854e+02  -2.035822e+01
   2.404018e+02   1.239800e+02
   6.720152e+01   2.750060e+02
  -1.445361e+02   2.215260e+02
  -2.383511e+02   4.953204e+01
  -1.317465e+02  -6.024829e+01
   2.890076e+01  -9.772667e+01
   1.228467e+02   2.190720e+01
  -5.660509e+01   5.788937e+01
  -1.865675e+02   5.565647e+01
  -1.771001e+02  -1.034596e+02
  -7.802185e+01  -1.629081e+02
   6.488230e+01  -1.081030e+02
   8.295929e+01   1.135537e+01
   7.224000e+01   4.010793e+01
  -5.486141e+01  -2.105618e+01
  -6.422819e+01  -6.396105e+01
   5.840791e+01  -1.182923e+02
   2.112712e+02  -4.093169e+01
   1.887212e+02   1.158396e+02
   3.915366e+01   1.919827e+02
  -1.368184e+02   1.424284e+02
  -1.610787e+02  -4.206827e+01
  -4.864604e+01  -1.218172e+02
   3.488927e+01  -6.130608e+01
   4.248438e+01  -3.794105e+01
   5.127577e+01  -3.439149e+01
   3.303573e+01  -5.943856e+01
   5.371767e+01  -7.689438e+00
   5.741154e+01   2.423068e+01
   3.766714e+01   6.393886e+01
   3.572353e+01   1.493663e+02
  -1.330620e+02   1.354826e+02
  -1.979205e+02   4.023687e+01
  -2.125426e+02  -1.583362e+02
  -2.972384e+01  -2.683306e+02
   1.191149e+02  -1.594163e+02
   1.294473e+02  -2.382705e+01
   4.578688e+01   4.074185e+01
   3.502173e+01   3.341995e+01
   7.712997e+01  -1.881248e+00
   8.664555e+01  -2.713079e+01
   6.563789e+01   7.610261e+01
  -6.654975e+01   1.055073e+02
  -1.126054e+02   2.050060e+00
  -1.174931e+02  -7.425814e+01
   1.024611e+01  -1.049699e+02
   1.221595e+02  -8.071161e+01
   1.883655e+02   1.628574e+01
   1.263102e+02   1.452175e+02
  -9.651214e+01   2.508074e+02
  -2.738240e+02   9.249981e+01
  -2.822882e+02  -5.826397e+01
  -1.090652e+02  -1.864754e+02
   5.549686e+01  -1.224737e+02
   7.917902e+01  -1.023519e+02
   7.648074e+01  -5.793217e+01
   4.563376e+01  -5.681724e+01
   5.550543e+01  -6.490796e+01
   1.225913e+02   2.557708e+01
   1.547063e+02   1.134108e+02
   3.224595e+01   2.211359e+02
  -7.622187e+01   1.498000e+02
  -1.692596e+02   4.780180e+01
  -1.685567e+02  -1.453427e+02
  -1.924735e+01  -1.561977e+02
   6.447382e+01  -1.090574e+02
  -1.013436e+01   5.195536e+00
  -2.900702e+01   5.616425e+01
  -4.246665e+01   2.623435e+01
   4.188975e+01  -3.746563e+01
   1.283800e+02  -2.739992e+01
   9.283241e+01   3.384171e+01
   3.317133e+00   1.613462e+01
  -1.481377e+02   2.701377e+01
  -1.811248e+02  -2.069409e+01
   1.128597e-01  -9.311280e+01
   1.525507e+02  -2.448472e+01
   1.600698e+02   3.026867e-01
   7.105436e+01   2.403045e+01
  -8.903514e+01   4.118357e+01
  -1.176798e+02  -3.387274e+01
  -5.227786e+01  -7.569530e+01
   4.235570e+01  -6.645784e+01
   2.521303e+01  -3.821494e+01
   3.127167e+01   3.087473e+01
   6.712582e+01  -9.015853e+00
   7.064803e+01   1.649254e+01
   1.010840e+02   2.323707e+01
   3.170227e+01   7.134642e+01
  -3.023507e+00   1.718669e+02
  -1.075878e+02   1.281785e+02
  -1.965060e+02   6.723647e+01
  -1.375355e+02  -3.375079e+01
  -1.014185e+01  -1.416836e+02
   8.937690e+01  -8.096149e+01
   6.996879e+01   4.253800e-01
  -1.068462e+02   2.948186e+01
  -1.416158e+02  -5.816747e+01
  -5.007022e+01  -8.882069e+01
   8.311225e+01  -9.220588e+01
   1.470219e+02  -9.019261e+01
   1.255077e+02   9.625373e+00
   5.489798e+01   6.585580e+01
  -7.293094e+01   7.511336e+01
  -8.790290e+01   2.898562e+01
  -1.910523e+01  -4.456930e+01
   1.029092e+02  -4.987566e+00
   4.033101e+01   1.315101e+02
  -7.203018e+01   1.796943e+02
  -2.228516e+02   8.760612e+01
  -1.350498e+02  -1.303789e+02
  -1.342971e+01  -2.403703e+02
   2.807603e+01  -1.640788e+02
   8.833719e+01   1.409141e+01
   4.346402e+01   1.313321e+02
   7.474891e+00   1.077618e+02
  -2.051594e+01  -1.336976e+00
  -1.893114e+01  -7.410722e+01
  -1.371434e+01  -1.784892e+01
   2.828114e+01   5.193243e+01
   1.646975e+00   1.297953e+01
  -3.969151e+01  -3.003836e+01
  -4.999539e+01  -8.371805e+01
   5.401989e+01  -4.870584e+01
   1.478086e+02   2.653210e+01
   1.094926e+02   1.047915e+02
   1.144962e+01   1.239705e+00
  -4.902767e+01  -1.889539e+01
  -4.325883e+01  -3.651198e+01
  -5.031144e+00   5.277669e+01
  -1.836763e+01   2.583231e+01
   1.889752e+01   3.003983e+01
  -2.559290e+01  -7.053653e+00
  -1.209110e+01  -8.834119e-01
   5.673683e+01  -4.043625e+01
   8.063671e+01   3.456213e+01
   4.388487e+01   7.104131e+01
  -9.272368e+01   1.554490e+02
  -2.225600e+02   2.790009e+01
  -1.249523e+02  -3.959856e+01
   2.024611e+01  -1.499585e+02
   1.234458e+02  -1.136593e+02
   1.360455e+02  -4.716598e+01
   6.561798e+01   4.969104e+01
   1.490398e+01   2.840911e+01
  -3.601161e+01   6.020584e+01
  -3.697673e+01   3.140088e+01
  -2.937083e+01   1.193928e+01
   3.332329e+01   3.080649e+01
   1.070708e+01   4.701541e+01
  -5.077974e+01  -1.079749e+01
  -3.876062e+01  -8.822018e+01
  -6.247746e+01  -7.694581e+01
   2.220543e+01  -2.148675e+01
   4.428672e+01   1.218592e+02
   4.369701e+01   1.163670e+02
  -7.266868e+01   4.292394e+01
  -9.157524e+01   2.295443e+00
  -3.521998e+01  -4.427746e+01
   2.340963e+01  -6.004230e+01
   3.574634e+01  -3.173679e+00
  -6.789817e+01   3.992190e+00
  -4.719803e+01  -1.709972e+01
   1.426558e+01  -1.870984e+01
   9.728913e+01  -4.334388e+01
   1.419635e+02  -6.623295e+01
   7.669417e+01   1.962651e+01
   1.209823e+01   7.237265e+01
  -9.050173e+01   6.055492e+01
  -1.807091e+01   2.937277e+01
   5.294251e+01  -3.049109e+01
   1.938698e+01  -3.508071e+01
   4.321665e+01   8.638177e+00
   4.309706e+01   3.517480e+01
  -2.396084e+01   5.375232e+01
  -7.593854e+01  -4.770098e+00
  -2.331430e+01  -7.421941e+01
   1.689411e+01   5.617150e-01
  -4.854198e+01  -1.429572e+00
  -8.881947e-02  -5.245077e+00
   1.900215e+01  -3.491081e+01
   2.452045e+00   2.871426e+00
   5.030046e+01   3.057106e+01
  -8.936368e+00   7.142090e+01
  -9.746399e+00   5.806359e+01
  -4.424694e+01   6.593926e+00
  -3.413899e+01  -3.206337e+01
  -2.843428e+01  -1.177036e+01
   5.821495e+01  -6.978731e+01
   1.236813e+02  -1.056492e+01
   5.557885e+01   7.004202e+01
  -5.918059e+01   9.424426e+01
  -2.236286e+01  -3.242201e+01
  -1.622734e+01   4.974495e+00
   3.514717e+01  -4.619051e+00
   4.661347e+01  -2.096186e+00
  -7.513126e+01   6.787986e+01
  -9.829940e+01   3.952694e+01
