
 $NMID
 id='ANONYMOUS ', fmtdat='(2E16.6)'
 volume=1.0
 tramp=1.0
 $END
  -4.373445e+03  -1.348198e+02
  -2.782540e+03  -2.836288e+03
   7.495428e+02  -3.015469e+03
   2.286873e+03  -9.649156e+02
   1.107827e+03   5.830834e+02
  -7.469975e+02   5.875597e+02
  -8.794910e+02  -4.389393e+02
  -5.443993e+01  -1.123881e+03
   9.018352e+02  -8.901486e+02
   1.014959e+03   1.210841e+02
   4.017415e+02   9.678763e+02
  -3.360176e+02   9.269227e+02
  -7.198436e+02   1.973278e+02
  -4.080034e+02  -6.915150e+02
   3.381609e+02  -8.665879e+02
   6.327024e+02  -9.614960e+00
   2.831315e+02   7.203711e+02
  -3.670326e+02   7.263180e+02
  -6.004018e+02   3.060975e+01
  -3.214267e+02  -3.784944e+02
  -5.990849e+00  -4.669372e+02
   2.589031e+02  -2.248861e+02
   2.431151e+02  -4.864789e+01
  -1.252248e+02   8.720327e+01
  -3.956488e+02  -1.477022e+02
  -2.628364e+02  -4.934936e+02
   4.582541e+02  -4.171484e+02
   8.369083e+02   1.892968e+02
   4.206177e+02   5.144585e+02
  -4.634272e+02   4.579556e+02
  -8.398429e+02  -4.303294e+01
  -3.528187e+02  -5.360471e+02
   3.097476e+02  -5.459847e+02
   5.602065e+02  -1.959976e+02
   3.808939e+02   3.049092e+02
   6.955530e+01   5.563656e+02
  -2.158653e+02   2.670463e+02
  -1.220121e+02  -2.084829e+02
   2.418876e+02  -3.802473e+02
   5.258292e+02   8.785101e+01
   2.206721e+02   7.799270e+02
  -4.141029e+02   7.521058e+02
  -6.778088e+02   1.741334e+00
  -2.114269e+02  -5.464828e+02
   3.980794e+02  -3.116891e+02
   4.425833e+02   3.263626e+02
  -4.973630e+01   5.383743e+02
  -6.046631e+02   1.237196e+02
  -6.074338e+02  -4.209775e+02
  -1.094473e+02  -6.328844e+02
   4.549751e+02  -3.889738e+02
   7.056233e+02   8.896191e+01
   4.052344e+02   4.484109e+02
  -1.287024e+02   3.870378e+02
  -4.425290e+02   5.425104e+01
  -2.535616e+02  -2.183951e+02
   1.343411e+02  -1.322993e+02
   1.693307e+02   2.163526e+02
  -1.419863e+02   2.341923e+02
  -3.380593e+02  -4.854583e+01
  -1.713916e+02  -2.788533e+02
   1.570467e+02  -2.772817e+02
   3.522767e+02  -9.077614e+01
   2.683109e+02   7.807747e+01
  -1.827474e+01   2.693979e+02
  -2.513121e+02   3.666592e+02
  -3.740500e+02   2.677533e+02
  -3.291462e+02  -1.400596e+02
  -1.333245e+02  -4.422175e+02
   1.334265e+02  -3.517902e+02
   1.561443e+02  -1.291984e+02
   2.898887e+01   1.808038e+01
   5.464477e+01  -6.671381e+01
   1.756737e+02  -1.109001e+02
   2.525298e+02   6.510061e+01
   1.482652e+02   2.629781e+02
  -4.499794e+01   2.870973e+02
  -2.047480e+02  -1.604458e+01
  -2.165305e+02  -3.112127e+02
   4.426781e+01  -2.667821e+02
   3.078401e+02  -5.645110e+01
   3.845384e+02   1.618359e+02
   2.558875e+02   3.613216e+02
  -1.003599e+02   3.343576e+02
  -1.937940e+02   9.601356e+01
  -1.334266e+02   3.203531e+01
  -9.449458e+01   5.500821e+01
  -2.575167e+02   1.117596e+02
  -4.069201e+02  -1.387492e+02
  -3.471127e+02  -3.249670e+02
  -3.463985e+01  -4.533931e+02
   3.834125e+02  -3.996879e+02
   4.985391e+02  -2.106909e+02
   3.809250e+02   8.661465e+01
   3.602740e+01   2.818943e+02
  -1.628501e+02   2.022669e+02
  -1.127042e+02   4.729842e+01
   1.042979e+02  -6.039268e+01
   2.262613e+02  -2.058628e+00
   5.260558e+01   2.178286e+02
  -1.809979e+02   1.271362e+02
  -1.552535e+02  -5.876960e+01
   6.917843e+00  -2.067677e+02
   1.967645e+02  -7.076628e+01
   1.399640e+02   2.603583e+02
  -2.248794e+01   3.202198e+02
  -2.112115e+02   2.060944e+02
  -2.923444e+02  -3.619933e+01
  -2.824936e+02  -2.004179e+02
  -9.744713e+01  -2.884616e+02
   8.656496e+01  -2.042051e+02
   1.745984e+02  -7.065177e+00
   7.857439e+01   1.139662e+01
  -2.762599e+01  -4.997649e+01
  -8.374966e+00  -1.329914e+02
   1.588544e+02  -6.951575e+01
   1.649772e+02   3.315638e+00
  -4.627005e+00   4.175480e+01
  -7.077438e+01   6.088645e+00
  -4.025815e+01  -8.770580e+01
   1.279607e+02  -4.731842e+01
   2.917273e+02  -2.793076e+00
   2.612474e+02   1.241937e+02
   7.438683e+01   2.323402e+02
  -1.851681e+02   1.969585e+02
  -2.776124e+02   1.271866e+02
  -2.058240e+02  -4.113563e+01
   1.470767e+01  -8.164170e+01
   7.114312e+01  -4.007959e+01
  -5.912920e+01   7.384693e+01
  -2.308088e+02  -1.759533e+01
  -2.245213e+02  -1.290637e+02
  -1.068750e+02  -2.232896e+02
   1.105827e+02  -1.350596e+02
   1.637017e+02  -4.263431e+01
   8.560590e+01   5.512634e+01
   4.887872e+01   7.324020e+00
   1.204272e+01  -5.144673e+01
   4.764572e+01  -1.750527e+02
   2.166256e+02  -7.509878e+01
   2.037478e+02   1.267496e+02
  -1.266034e+01   2.192572e+02
  -1.759198e+02   1.802872e+02
  -2.057449e+02  -3.254026e+00
  -3.286532e+01  -1.285838e+02
   1.125255e+02  -1.432938e+02
   1.066358e+02  -3.428429e+01
   2.674216e+01  -1.296938e+01
   1.467752e+01   5.349642e-01
   5.388474e+01  -1.751067e+01
   9.075469e+01   5.513265e+01
   9.981838e+01   1.090366e+02
   4.982153e+01   1.241546e+02
  -1.456980e+02   1.926691e+02
  -2.396384e+02   3.675603e+01
  -2.084073e+02  -1.519093e+02
  -7.723328e+01  -1.802985e+02
   7.890150e+01  -1.883728e+02
   1.410341e+02  -4.745124e+01
   4.563612e+01   8.406586e+01
   1.838028e+01   7.326026e+01
   1.660751e+01  -6.850773e+01
   8.823014e+01  -3.278891e+01
   1.040817e+02   5.005671e+01
  -2.453119e+01   1.089130e+02
  -6.505707e+01   6.921084e+01
  -7.208189e+01  -3.542152e+01
   3.927684e+01  -9.126692e+01
   1.304814e+02  -8.117734e+01
   2.003874e+02   7.988470e+01
   3.754389e+01   1.966898e+02
  -1.395531e+02   2.000158e+02
  -2.744234e+02   9.727518e+01
  -2.786634e+02  -1.256768e+02
  -1.167201e+02  -2.399261e+02
   4.962990e+01  -1.605136e+02
   1.325581e+02  -9.605693e+01
   9.657795e+01  -1.048786e+02
   4.878443e+01  -8.281263e+01
   1.296109e+02  -4.859059e+01
   1.224283e+02   9.677981e+00
   9.034469e+01   1.330783e+02
  -4.527756e-02   2.154923e+02
  -1.272697e+02   1.582737e+02
  -1.622597e+02   1.953322e+00
  -1.087867e+02  -1.429952e+02
  -1.006488e+01  -1.981761e+02
   7.815698e+01  -6.007419e+01
   6.427841e+01  -1.617248e+01
   6.210120e+01   1.497317e+01
  -9.090400e+00   2.235432e+01
   5.081427e+01  -1.932281e+01
   1.170247e+02   1.155809e+01
   6.643915e+01   1.364230e+01
  -3.788938e+01   4.884871e+01
  -1.728884e+02   9.685719e+00
  -1.506653e+02  -5.023113e+01
  -2.306176e+01  -1.086455e+02
   1.493043e+02  -6.780400e+01
   1.308012e+02   5.205404e+01
   3.683873e+01   5.202574e+01
  -8.791587e+01   1.952917e+01
  -1.363129e+02  -7.552929e+01
  -4.369882e+01  -1.221468e+02
   7.217623e+01  -1.287407e+02
   8.534622e+01   1.786474e+01
   1.131954e+01   9.307838e+01
   4.144709e+01   6.024865e+01
   5.814699e+01  -2.367947e+00
   3.925574e+01   4.568679e+01
   4.010210e+01   9.563603e+01
  -4.112076e+01   1.871037e+02
  -1.493601e+02   2.031642e+02
  -2.175319e+02   4.655953e+01
  -1.715472e+02  -1.030797e+02
  -8.941272e+00  -1.571584e+02
   9.376998e+01  -5.516613e+01
   4.810578e+01  -1.627778e+00
  -6.723912e+01   1.923273e+01
  -1.589137e+02  -7.860780e+01
  -6.280499e+01  -1.014241e+02
   1.515258e+02  -9.949723e+01
   1.910741e+02  -4.960897e+01
   1.394532e+02   9.415724e+01
   3.940750e+01   9.665235e+01
  -6.606627e+01   7.054733e+01
  -5.027164e+01   2.159591e+01
   4.015148e+01  -4.727534e+01
   1.213084e+02   1.778656e+00
   2.241780e+01   1.266277e+02
  -1.028709e+02   1.103447e+02
  -1.879787e+02   2.834132e+01
  -1.201657e+02  -1.392066e+02
   2.566962e+01  -2.292785e+02
   1.087453e+02  -1.323190e+02
   1.320711e+02   2.736742e+01
   5.105917e+01   1.471959e+02
   7.531594e-02   1.215449e+02
  -4.673118e+01  -8.606445e+00
  -4.494716e+01  -4.003447e+01
  -1.404767e+01  -3.352801e+01
  -1.200667e+01   6.650201e+00
  -4.295222e+01  -2.115186e+01
  -5.228018e+01  -1.116343e+02
  -5.944107e+01  -1.784711e+02
   9.677018e+01  -3.374316e+01
   2.132510e+02   6.231418e+01
   1.140663e+02   1.467844e+02
   1.712667e+01   1.048837e+02
  -1.438303e+02   3.632181e+01
  -1.140426e+02  -2.878640e-01
  -1.130155e+01  -5.045676e+00
   6.177369e+01  -1.205149e+01
   9.268762e+01  -2.152329e+00
   3.740090e+00   4.093352e+01
   4.542006e+00   1.215849e+00
   8.284468e+01  -3.901110e+01
   9.239439e+01   1.360067e+01
  -4.105102e+01   7.412969e+01
  -1.355440e+02   1.386764e+02
  -2.187414e+02   6.840952e+01
  -1.093279e+02  -8.851296e+01
   5.688860e+00  -1.193065e+02
   7.965395e+01  -1.210274e+02
   1.090661e+02  -5.767861e+01
   3.727958e+01  -8.856490e+00
   1.946502e+01   5.924547e+01
  -1.408400e+01   3.032692e+01
   6.397526e+00   1.223727e+01
   3.694579e+01   1.209658e+02
   8.695266e+00   6.411880e+01
  -3.647647e+01   2.020895e+01
  -3.226853e+01  -7.615256e+01
  -4.199474e+01  -1.187024e+02
  -1.835014e+01  -8.252018e+01
   1.472296e+02  -2.404838e+01
   1.328834e+02   6.936131e+01
   5.890959e+01   1.072125e+02
  -5.014068e+01   4.729691e+01
  -9.026567e+01   3.329344e+01
  -2.863738e+01  -1.185065e+02
   3.939285e+01  -8.536816e+01
   5.991367e+01  -5.222763e+01
  -1.445595e+01   5.099135e+01
  -7.481837e+01   2.767371e+01
  -1.739951e+01   7.770459e+00
   3.610767e+01  -6.900022e+01
   1.128178e+02  -5.195874e+01
   6.309510e+00   2.554385e+01
  -8.920838e+01   3.639371e+01
  -5.690142e+01   4.570320e+01
  -2.737211e+01  -2.811389e+01
  -1.127106e+01  -8.651338e+01
   5.427139e+01  -7.424945e+01
   6.441479e+01   1.517882e+01
   1.977767e+01   5.417204e+01
   2.806673e+01   1.089345e+01
  -2.558649e+01   2.900745e+01
  -6.151204e+01   1.969611e+01
  -6.954350e+01   1.378888e+00
  -1.951783e+01   6.163958e+01
  -7.311899e+01  -5.223629e+00
   4.088548e+01  -7.713014e+01
  -1.121710e+01  -8.966920e+01
   5.720683e+01  -3.096916e+01
   5.026100e+01   6.044043e+01
   1.703795e+00   9.364094e+01
  -7.344475e+01   3.628246e+01
  -9.590111e+01  -1.267068e+01
  -5.339099e+01  -6.084203e+01
   4.479948e+01  -2.033119e+01
   9.803352e+01   3.021336e+01
  -2.732705e+00   3.161119e+01
  -1.654528e+01   7.469978e+01
  -1.857232e+01   1.396612e+01
  -3.206199e+01   2.381674e+01
   3.875213e+01   5.063289e+00
  -1.701435e+01   2.536108e+01
  -5.194106e+01   3.386048e+01
  -6.069971e+01   2.631580e+01
