
 $NMID
 id='ANONYMOUS ', fmtdat='(2E16.6)'
 volume=1.0
 tramp=1.0
 $END
  -2.549335e+03   3.516030e+01
  -1.980247e+03  -1.532219e+03
  -8.982994e+01  -1.963809e+03
   1.158140e+03  -1.155380e+03
   8.612129e+02  -1.455852e+02
   7.470423e+01   2.836033e+02
  -3.881055e+02  -1.180008e+02
  -9.628939e+01  -5.687313e+02
   4.118499e+02  -5.082759e+02
   6.595094e+02  -2.692611e+01
   3.013764e+02   3.943561e+02
  -2.505499e+01   5.345135e+02
  -3.293247e+02   1.860216e+02
  -3.510288e+02  -3.999446e+02
   6.732163e+01  -5.950639e+02
   4.443822e+02  -1.035907e+02
   2.931024e+02   4.152088e+02
  -1.697353e+02   6.246505e+02
  -5.525178e+02   2.384193e+02
  -4.641559e+02  -2.154352e+02
  -1.462657e+02  -3.282669e+02
   9.737501e+01  -2.006555e+02
   8.977282e+01  -5.717723e+01
  -1.223271e+02  -3.717706e+01
  -2.614853e+02  -2.682935e+02
  -3.119872e+00  -3.532828e+02
   4.471650e+02  -2.051308e+02
   5.606353e+02   1.785690e+02
   2.083636e+02   3.548036e+02
  -3.032998e+02   1.857675e+02
  -4.061862e+02  -9.664861e+01
  -1.385739e+02  -3.625113e+02
   3.010575e+02  -3.771482e+02
   4.948747e+02  -1.056803e+02
   3.114381e+02   1.980038e+02
   9.487542e+01   3.305922e+02
  -4.909562e+01   1.768620e+02
  -5.598055e+00  -6.975899e+01
   1.722131e+02  -1.550132e+02
   2.184131e+02   1.532810e+02
   3.713020e+01   4.875535e+02
  -2.957965e+02   4.293433e+02
  -3.752986e+02  -2.591444e+01
  -1.687973e+02  -3.687227e+02
   1.612022e+02  -2.087283e+02
   2.003428e+02   2.427345e+02
  -8.041236e+01   4.035996e+02
  -4.190146e+02   1.002432e+02
  -4.621406e+02  -3.464507e+02
  -1.732138e+02  -4.629596e+02
   2.415579e+02  -2.813579e+02
   4.285686e+02   5.663717e+01
   2.691840e+02   2.475611e+02
  -7.924543e+01   1.720128e+02
  -2.914580e+02   4.859092e+01
  -2.100512e+02  -7.318938e+01
  -1.611500e+00  -4.009670e+01
   7.711217e+01   6.632316e+01
  -1.254034e+02   8.431865e+01
  -2.750727e+02  -4.899714e+01
  -1.646419e+02  -2.410731e+02
   1.714581e+02  -2.834961e+02
   3.860417e+02  -1.497085e+02
   2.652582e+02   9.637566e+01
  -4.389057e+01   2.847255e+02
  -3.526913e+02   2.553476e+02
  -3.538109e+02   1.149250e+02
  -1.943137e+02  -1.708493e+02
   7.726515e+00  -3.321097e+02
   7.597161e+01  -2.968102e+02
   1.353431e+01  -1.948091e+02
   6.398548e+01  -1.349655e+02
   1.296636e+02  -1.273701e+02
   2.140320e+02  -3.777901e+01
   2.344500e+02   1.181986e+02
   1.296920e+02   2.906291e+02
  -5.823795e+01   2.308358e+02
  -1.956822e+02   1.308323e+01
  -1.457610e+02  -2.440172e+02
  -2.738420e+01  -2.868714e+02
   2.269377e+02  -9.420583e+01
   2.613411e+02   1.491186e+02
   1.794000e+02   2.833244e+02
   2.507622e+00   2.738676e+02
  -1.012901e+02   1.188582e+02
  -5.390575e+01   9.563717e+01
  -1.251335e+02   1.000467e+02
  -2.687738e+02   8.903592e+01
  -3.983397e+02  -4.484705e+01
  -3.207570e+02  -2.199105e+02
   2.606304e+01  -4.096163e+02
   3.225801e+02  -3.849253e+02
   4.348975e+02  -1.578060e+02
   2.428803e+02   1.351088e+02
   3.742920e+01   2.221003e+02
  -8.213935e+01   1.686551e+02
  -3.117897e+01   1.418315e+01
   9.244149e+01  -6.008857e+01
   1.716494e+02   1.021604e+01
   3.041174e+01   1.161536e+02
  -8.694531e+01   1.067667e+02
  -7.432159e+01  -7.513197e+01
   4.831064e+01  -9.730815e+01
   1.358462e+02  -3.875565e+01
   1.937677e+02   1.668173e+02
  -1.030513e+01   3.201143e+02
  -2.197529e+02   1.972772e+02
  -3.383249e+02  -6.574470e+01
  -2.677579e+02  -2.246480e+02
  -1.118001e+02  -2.690725e+02
   1.056717e+02  -1.742375e+02
   1.005138e+02   2.496767e+01
   5.386951e+01  -1.112512e+00
  -3.084304e+01  -3.782814e+01
   4.096947e+01  -1.121186e+02
   1.325317e+02  -7.925148e+01
   1.382419e+02   2.545637e+01
   2.118434e+01   7.408237e+01
  -9.434860e+01  -1.020724e+01
  -3.234899e+01  -7.194226e+01
   1.046939e+02  -7.904835e+01
   2.622285e+02   2.105467e+01
   1.960865e+02   1.605281e+02
   7.369733e+00   2.324954e+02
  -2.227047e+02   1.842942e+02
  -2.537078e+02   9.533271e+01
  -1.484095e+02  -3.433390e+01
   1.941950e+01  -5.962878e+01
   1.032337e+01   3.890962e+01
  -5.986454e+01   1.068482e+02
  -1.548708e+02   3.126500e+01
  -9.625868e+01  -1.010816e+02
  -4.882560e+01  -1.287164e+02
   8.518029e+01  -8.842694e+01
   1.216239e+02   7.384897e+00
   2.760353e+01   1.955370e+01
  -5.033642e+01  -6.534451e+01
  -3.316112e+01  -1.109435e+02
   1.950717e+01  -1.183007e+02
   2.395322e+02   2.564180e+01
   1.957484e+02   1.211871e+02
   4.538246e+00   1.703686e+02
  -1.414888e+02   9.861893e+01
  -1.574165e+02  -1.818919e+01
  -1.056752e+02  -1.281902e+02
   5.783802e+01  -1.284747e+02
   9.525665e+01  -3.086667e+01
   3.581540e+01   4.301036e+01
  -4.107997e+01  -3.356996e+01
   4.244459e+01  -3.821197e+01
   1.126841e+02  -6.400995e-03
   1.147708e+02   1.045961e+02
   2.095343e+01   1.626487e+02
  -1.296728e+02   1.520972e+02
  -2.172605e+02   1.359127e+01
  -1.897505e+02  -1.104571e+02
  -6.098392e+01  -2.274378e+02
   6.148500e+01  -1.621810e+02
   1.007265e+02  -2.244198e+01
   5.549901e+01   8.543244e+01
   1.065084e+01   1.516753e+01
   1.129078e+01  -4.887465e+01
   4.453107e+01  -4.755501e+01
   5.256554e+01   6.024722e+01
  -1.014989e+01   1.004398e+02
  -7.618206e+01   2.088041e+01
  -4.649868e+01  -7.292882e+01
   5.755832e+00  -1.284534e+02
   1.294440e+02  -7.924346e+01
   1.658288e+02   6.605083e+01
   7.600701e+01   1.590882e+02
  -1.040374e+02   2.168511e+02
  -2.365800e+02   8.046440e+01
  -2.569157e+02  -7.617359e+01
  -8.848721e+01  -1.734262e+02
   6.999016e+01  -1.093620e+02
   9.267859e+01  -1.599609e+01
   2.637737e+01  -3.208169e+01
   8.172699e+00  -6.283873e+01
   7.574638e+01  -1.079632e+02
   1.192797e+02   2.885354e+01
   1.407369e+02   1.385331e+02
   5.491773e+01   2.573603e+02
  -1.175121e+02   1.242308e+02
  -1.900646e+02  -1.852747e+01
  -1.346022e+02  -1.340997e+02
  -6.816453e+01  -1.479741e+02
   6.947005e+01  -1.057386e+02
   4.129518e+01  -8.037040e+00
   5.478272e+00   5.573587e+00
   2.608411e+01   5.369725e+01
   4.302663e+01   4.198837e+01
   1.194255e+02   3.020465e+01
   1.046567e+02   8.353932e+00
  -9.899487e+01   5.556397e+01
  -1.797706e+02   1.122435e+01
  -1.869598e+02  -5.469252e+01
  -5.261575e+01  -6.852118e+01
   4.571891e+01  -6.696709e+01
   1.415052e+02  -3.240432e+01
   2.912885e+01   3.780759e+00
  -7.491597e+01   3.788911e+01
  -1.003241e+02   1.432172e+00
  -1.383035e+01  -6.133901e+01
   6.285653e+01  -7.685532e+01
   1.114002e+02   5.031400e+00
   6.310264e+01   9.168508e+00
   3.367342e+01   1.255144e+01
   4.857029e+01   6.883671e+00
   7.492004e+01   6.915163e+01
   3.983820e+01   8.424418e+01
   3.129515e-01   1.112944e+02
  -8.872678e+01   7.177372e+01
  -1.610386e+02   6.229897e+01
  -1.247171e+02  -1.037931e+02
  -4.099273e+00  -1.321409e+02
   8.625893e+01  -6.458187e+01
   5.516105e+01  -3.585195e+00
  -8.658158e+00   2.212126e+01
  -1.113526e+02  -4.887686e+01
  -6.665403e+01  -1.163121e+02
   9.075060e+01  -1.233007e+02
   1.252227e+02  -5.582332e+01
   1.059867e+02  -2.287785e+01
   1.932556e+01   5.213725e+01
  -9.068980e+01   5.315070e+01
  -1.736180e+01  -1.051481e+01
   5.846963e+01  -1.943201e+00
   8.588881e+01   1.028639e+01
  -1.749388e+01   7.601975e+01
  -4.373605e+01   1.183713e+02
  -1.561221e+02   5.406700e+01
  -1.393550e+02  -1.165086e+02
  -5.533510e+01  -1.893858e+02
   5.833832e+01  -1.596459e+02
   9.722113e+01   9.176065e+00
   5.389154e+01   1.374407e+02
  -3.408046e+01   1.004563e+02
  -4.505141e+01  -1.152183e+01
  -3.566101e+00  -9.288535e+00
  -2.921293e+00   3.652815e+00
  -3.885925e+01   2.332077e+01
  -6.233771e+01   2.519997e+00
  -6.021497e+01  -5.948092e+01
  -1.776481e+01  -1.030077e+02
   2.851153e+01  -7.406179e+01
   1.479892e+02   4.081561e+01
   9.379691e+01   8.556479e+01
   7.446211e+01   2.957685e+01
  -4.564885e+01   8.692816e+01
  -5.944930e+01   3.643116e+01
  -6.275452e+01  -3.365502e+01
   4.450682e+01  -6.671185e+01
   1.825601e+01  -1.128545e+01
   9.351486e+00  -6.153071e+00
  -1.072017e+01   3.641028e+01
   2.589622e+01  -4.401664e+01
   1.100045e+02   3.222693e+01
   8.541809e+01   1.060407e+02
  -7.404631e+01   1.230829e+02
  -1.781848e+02   7.571106e+01
  -2.136252e+02  -4.477157e+01
  -3.600939e+01  -9.192963e+01
   6.338025e+01  -1.402289e+02
   1.000133e+02  -6.923310e+01
   4.533936e+01  -3.022244e+01
   4.017575e+01   3.816380e+01
  -1.573792e+01   1.543266e+01
   1.294785e+01   7.188907e+01
  -2.340756e+01   7.367743e+01
  -7.823503e+00   7.594116e+01
  -2.580037e+01   6.194563e+01
  -1.006557e+02  -1.019179e+01
  -7.324514e+01  -9.910750e+01
   1.702220e+01  -9.652232e+01
   6.284793e+01  -5.416763e+01
   1.393088e+02  -6.003482e-01
   4.674740e+01   1.379367e+01
  -7.267525e+01   9.303843e+01
  -7.696270e+01  -8.023806e+00
  -5.829410e+01  -5.007717e+01
   4.419660e+01  -6.957215e+01
   2.797198e+01   1.016427e+01
  -2.906234e+01   1.149479e+01
  -7.174032e+01   1.310419e+01
  -4.185879e+01  -4.224821e+01
   9.498138e+01  -7.607320e+01
   1.208828e+02  -6.603419e+01
   1.043161e+02   1.815749e+01
  -4.582879e+00   3.803373e+01
  -3.697390e+01   6.082033e+01
  -3.342327e+01   2.378531e+01
   1.305466e+01  -3.568068e+01
   4.797976e+01  -7.526322e+01
   6.344593e+01   7.827797e+00
   2.108407e+01   5.459697e+01
  -5.888298e+00  -9.339790e+00
  -1.767780e+01   1.395767e+01
  -6.672079e+01  -2.717158e+01
  -1.812067e+01  -3.394448e+01
   2.638058e+01   2.330772e+01
  -3.503034e+01   2.940050e-01
  -4.817568e+01  -3.525660e+01
  -1.682682e+01  -6.536436e+01
   1.112089e+01  -2.992149e+01
   7.928126e+01  -6.787147e+00
   2.313051e+01   1.016808e+02
   2.969907e+01   8.833243e+01
  -5.432335e+01   5.646880e+01
  -4.219452e+01  -7.944391e+01
   1.554029e+01  -5.118179e+01
   1.099915e+02  -5.106517e+01
   9.295149e+01   4.648319e+01
  -2.549043e+01   5.985916e+01
  -2.968473e+01  -2.282005e+00
  -4.242801e+00  -2.502482e+00
   1.339557e+01  -5.734965e-01
   1.110810e+01   1.433309e+01
  -4.943174e+01   3.157599e+01
  -8.523194e+01   2.323273e+00
