
 $NMID
 id='ANONYMOUS ', fmtdat='(2E16.6)'
 volume=1.0
 tramp=1.0
 $END
  -3.140355e+03  -1.552591e+02
  -2.003764e+03  -1.647088e+03
   7.358233e+01  -2.187124e+03
   1.365321e+03  -1.165199e+03
   8.984400e+02   1.346505e+02
  -1.081656e+02   3.077479e+02
  -5.126589e+02  -2.119474e+02
   3.201782e+01  -7.720736e+02
   6.097764e+02  -5.791861e+02
   6.569766e+02   1.210325e+01
   4.423529e+02   4.471722e+02
  -7.950194e+00   6.203850e+02
  -3.668532e+02   1.541223e+02
  -3.375589e+02  -4.287486e+02
   1.504803e+02  -6.230623e+02
   4.086995e+02  -1.281761e+02
   3.246097e+02   5.222384e+02
  -2.176325e+02   5.601611e+02
  -5.119233e+02   2.586743e+02
  -4.528837e+02  -2.130228e+02
  -1.769350e+02  -3.848346e+02
   1.560506e+02  -2.226524e+02
   1.324886e+02  -1.094194e+02
  -1.106816e+02  -9.906163e+01
  -3.674046e+02  -2.688943e+02
  -8.435244e+01  -3.321641e+02
   4.025526e+02  -2.561168e+02
   6.328521e+02   1.134666e+02
   2.786835e+02   4.192438e+02
  -2.633585e+02   2.772267e+02
  -5.414115e+02  -1.669176e+02
  -2.307334e+02  -3.257380e+02
   2.405215e+02  -3.902410e+02
   4.524186e+02  -1.177164e+02
   3.691442e+02   2.247538e+02
   1.237965e+02   2.437731e+02
  -6.919513e+01   1.711274e+02
  -7.280491e+01  -1.217810e+02
   1.324864e+02  -1.976165e+02
   2.283576e+02   7.109583e+01
   1.402848e+02   4.952946e+02
  -2.856236e+02   4.272055e+02
  -3.885073e+02   9.825180e+00
  -1.681641e+02  -3.507841e+02
   1.977922e+02  -2.528790e+02
   2.488027e+02   1.728827e+02
  -1.024338e+02   3.805536e+02
  -4.861651e+02   8.841123e+01
  -4.930993e+02  -3.131228e+02
  -1.826124e+02  -5.141515e+02
   3.007439e+02  -2.827383e+02
   4.998104e+02   5.105518e+01
   3.226599e+02   2.799717e+02
  -7.191056e+01   2.534235e+02
  -2.980469e+02   5.544082e+01
  -2.400735e+02  -1.181600e+02
   1.662915e+01  -4.217688e+01
   4.590128e+01   4.977974e+01
  -1.043809e+02   1.037649e+02
  -2.219635e+02  -8.178591e+01
  -1.492591e+02  -2.489121e+02
   1.347577e+02  -2.643482e+02
   2.909233e+02  -1.760598e+02
   1.662371e+02   4.828397e+01
  -8.948899e+00   2.601424e+02
  -2.590909e+02   2.903445e+02
  -3.601568e+02   1.711540e+02
  -2.453132e+02  -1.728942e+02
  -5.101971e+01  -4.018952e+02
   2.109550e+01  -3.755125e+02
   7.212072e+01  -1.785805e+02
   7.316737e+01  -4.263227e+01
   1.140189e+02  -1.123845e+02
   1.853885e+02  -7.782437e+01
   1.899928e+02   6.940403e+01
   1.762559e+02   2.203260e+02
  -2.321313e+01   1.728263e+02
  -1.960049e+02  -5.324997e+01
  -1.715071e+02  -2.514506e+02
   3.918186e+01  -2.549677e+02
   2.187996e+02  -8.555236e+01
   3.390985e+02   1.713650e+02
   1.888944e+02   3.000578e+02
  -3.497670e+01   2.660502e+02
  -1.587691e+02   1.690773e+02
  -1.260505e+02   5.469925e+01
  -9.015830e+01   9.549994e+01
  -2.730348e+02   3.874302e+01
  -4.117410e+02  -8.045189e+00
  -2.874570e+02  -3.057493e+02
   1.958629e+01  -4.321371e+02
   3.416735e+02  -4.067242e+02
   4.696107e+02  -2.176904e+02
   2.677589e+02   1.305349e+02
   1.433645e+01   2.134426e+02
  -8.151065e+01   2.325264e+02
  -6.161470e+01   3.424155e+01
   1.207381e+02  -6.010553e+01
   1.353556e+02  -2.415784e+01
   5.367066e+01   1.553152e+02
  -8.129109e+01   1.060428e+02
  -5.650966e+01  -2.940116e+01
   3.252623e+01  -1.359242e+02
   1.363057e+02   1.924731e+01
   9.515036e+01   1.995703e+02
  -2.818257e+01   3.595729e+02
  -2.430872e+02   2.108076e+02
  -3.405622e+02  -5.797362e+01
  -2.625839e+02  -2.643269e+02
  -9.122582e+01  -2.516532e+02
   1.155748e+02  -2.014012e+02
   1.629153e+02  -5.843907e+01
   4.589028e+01   3.061858e+01
  -4.148778e+01  -3.967136e+01
  -1.370166e+01  -9.573413e+01
   1.559890e+02  -1.239852e+02
   1.349586e+02   1.327192e+01
  -1.504809e+00   3.347929e+01
  -1.091393e+02  -1.959035e+01
   4.996965e+00  -9.881842e+01
   1.291266e+02  -1.038543e+02
   2.914634e+02  -7.331910e+00
   2.810496e+02   1.475937e+02
   5.504673e+01   2.391583e+02
  -1.427879e+02   2.064636e+02
  -2.024717e+02   9.503489e+01
  -1.787902e+02  -6.261733e+01
   6.759899e+01  -6.008326e+01
   4.158597e+01  -1.940969e+01
  -2.482062e+01   9.177017e+01
  -1.574038e+02  -1.265552e+00
  -1.437964e+02  -1.175556e+02
   4.805720e+00  -1.911172e+02
   7.594021e+01  -1.250497e+02
   1.177587e+02   1.546732e+00
   5.054523e+01   6.112912e+01
  -2.100600e+01  -4.798665e+01
  -2.151849e+01  -9.986323e+01
   1.139283e+02  -1.303048e+02
   1.998336e+02  -2.049277e+01
   2.281959e+02   1.293305e+02
   2.880864e+01   2.257580e+02
  -2.080777e+02   1.637154e+02
  -1.946998e+02   2.939310e+01
  -4.679712e+01  -1.303824e+02
   4.204210e+01  -1.280858e+02
   7.710472e+01  -5.451866e+01
   5.752793e+00  -4.876983e+01
  -2.932924e+01  -1.583034e+01
   3.775029e+01  -6.879086e+01
   1.393683e+02  -8.006445e+00
   8.390987e+01   1.435667e+02
   1.802077e+01   2.052795e+02
  -1.798958e+02   1.267934e+02
  -2.150045e+02   2.328702e+01
  -2.166128e+02  -1.892715e+02
  -4.443541e+01  -1.961757e+02
   1.168625e+02  -1.805933e+02
   1.307744e+02  -3.595943e+00
   1.353088e+02   3.328506e+01
   3.452116e+01   7.740743e+01
   4.004252e+01   3.194643e+01
   6.915242e+01   1.343722e+01
   2.501638e+01   1.071068e+02
  -3.201323e+01   6.639000e+01
  -1.229472e+02   5.420931e+01
  -9.443445e+01  -5.940562e+01
   2.201805e+01  -9.877048e+01
   1.689103e+02  -7.225441e+01
   1.958704e+02   8.390955e+01
   1.112771e+02   1.836658e+02
  -1.076933e+02   2.329487e+02
  -2.920373e+02   4.921350e+01
  -2.377000e+02  -7.152702e+01
  -8.371002e+01  -1.786993e+02
   3.319212e+01  -1.569628e+02
   9.920597e+01  -5.354983e+01
   8.433014e+01  -1.026981e+02
   1.195884e+02  -8.436118e+01
   9.996020e+01  -7.298600e+01
   2.044822e+02   2.091245e+01
   9.451889e+01   2.104583e+02
   2.609838e+01   2.315021e+02
  -1.050912e+02   1.758570e+02
  -1.825097e+02   4.876517e+00
  -7.148836e+01  -1.783052e+02
  -1.932197e+00  -1.376400e+02
   1.072486e+02  -9.102831e+01
   9.142881e+01   8.640970e+00
   5.271131e+01   9.429642e+01
  -2.171871e+01   5.767640e+01
  -2.436113e+01   1.145186e+01
   7.974812e+01   3.149778e+01
   4.044272e+01  -6.239337e+00
  -9.452494e+01   2.828308e+01
  -1.488616e+02  -6.059156e+00
  -1.452127e+02  -9.453054e+01
  -1.490346e+01  -7.862442e+01
   1.299695e+02  -7.246462e+01
   1.351000e+02   3.217219e+00
   2.424079e+01   2.666912e+01
  -5.296222e+01   3.668177e+01
  -8.874219e+01  -3.924284e+01
   1.463088e+01  -7.112004e+01
   8.644695e+01  -7.324088e+01
   7.858451e+01  -8.334103e+00
   1.065962e+02   2.161535e+01
   7.271052e+01   6.255600e+01
   5.751350e+01   5.664227e+00
   5.209176e+01  -3.417169e+00
   4.632952e+01   5.022288e+01
  -4.101667e+01   1.455243e+02
  -1.463364e+02   1.676414e+02
  -1.536912e+02   8.028071e+00
  -1.149799e+02  -7.242330e+01
  -5.072586e+01  -1.248961e+02
   1.063387e+02  -6.839013e+01
   1.739734e+01   8.580803e+00
  -3.794821e+01   9.378326e-02
  -1.275623e+02  -5.149742e+01
  -1.182147e+02  -1.140128e+02
   5.128764e+01  -1.025842e+02
   1.693340e+02  -4.091989e+01
   1.340335e+02   4.210460e+01
   3.909554e+01   1.529540e+01
  -8.749790e+01   4.845230e+01
  -1.531319e+01   2.245743e+01
   4.284944e+01  -5.464168e+00
   1.218396e+02   2.520232e+01
   4.052570e+00   1.179649e+02
  -8.571745e+01   1.298702e+02
  -1.433404e+02   8.057179e+01
  -1.416494e+02  -8.133183e+01
  -8.283828e+00  -1.938536e+02
   5.960351e+01  -1.301936e+02
   1.064291e+02   3.213292e+01
   5.689494e+01   1.053947e+02
  -4.891044e+01   1.044667e+02
  -1.140445e+02   2.261374e+01
  -1.293440e+01  -7.483054e+01
  -4.495759e+00   2.993495e+00
   3.344925e+01  -6.183165e+01
   5.021007e+00  -1.508160e+01
  -5.055302e+01  -7.266050e+01
  -4.475771e+01  -1.126828e+02
   7.140049e+01  -4.183927e+01
   5.891635e+01   3.080387e+01
   1.027249e+02   1.204262e+02
   1.443694e+01   9.089388e+01
  -8.803079e+01   1.635047e+01
  -9.104970e+01   2.034210e+01
  -6.638196e+01  -4.351920e+01
  -1.694677e+01   4.877161e+00
   3.352209e+00  -1.029692e+02
  -1.273305e+01  -6.376073e+00
   3.054748e+01   1.517062e+01
   7.208613e+01  -2.565348e+01
   1.015700e+02   3.799122e+01
  -1.870306e+01   3.578996e+01
  -1.178561e+02   5.945104e+01
  -2.014617e+02   6.135774e+00
  -1.115398e+02  -4.808534e+01
  -9.473230e+00  -1.472464e+02
   1.242978e+02  -1.418203e+02
   1.005322e+02  -2.628816e+01
   8.332629e+01   4.849701e+01
   2.123651e+01   7.053426e+01
  -1.918319e+01   1.483309e+01
   3.533664e+00   2.473896e+01
  -3.682655e+01   3.792900e+01
  -3.968918e+00   1.257348e+02
  -3.761855e+01   8.884433e+01
  -8.886280e+01  -6.306065e+00
  -4.955495e+01  -9.312046e+01
  -1.581044e+01  -1.335834e+02
   3.993752e+01  -4.429459e+01
   1.191499e+02   6.068534e+01
   6.454265e+00   9.476718e+01
  -5.498938e+01   7.853127e+01
  -1.187485e+02  -1.900438e+01
  -6.543032e+01  -4.603689e+01
   2.506978e+01  -7.216033e+01
   2.320375e+01  -4.508886e+01
  -1.637720e+01  -1.553635e+01
  -4.680719e+01  -2.296426e+01
  -1.595873e+01  -1.428123e+01
   5.965049e+01  -3.622490e+01
   1.363453e+02  -5.394367e+01
   5.958871e+01  -3.236408e-01
   2.239369e+00   6.939754e+01
  -4.667026e+01   1.131959e+02
  -5.564828e+01   8.219676e+00
   2.116053e+01  -6.849956e+01
   4.468081e+01  -1.627698e+01
   6.338311e+01   7.396503e+00
   2.140390e+01   6.930517e+01
  -6.673934e+00   6.917767e+01
   1.216052e+01  -4.659719e+01
  -1.661114e+01  -3.603905e+01
  -3.803963e+00   3.008627e+01
   2.922864e+01   9.636723e+00
   3.038608e+00   3.841302e+01
  -7.560124e+00  -3.153727e+01
   1.332984e+01  -2.663125e+01
   4.947107e+01  -1.788882e+01
   3.309018e+01   4.240208e+01
   1.791666e+01   2.813264e+01
  -2.984138e+01   2.396621e+01
  -6.570408e+01  -2.325504e+01
   5.164765e+00  -9.276201e+01
   4.382847e+01  -5.151865e+01
   1.058503e+02  -1.910064e+01
   8.992880e+01   3.964716e+01
  -5.606463e+01   2.086131e+01
  -5.904881e+01   2.408599e+01
  -1.404075e+01  -2.106858e+01
   6.768931e+01  -5.387461e+00
   8.687089e+00   3.447959e+00
   6.357072e+00   4.652536e+01
  -7.037680e+01   4.575019e+00
