
 $NMID
 id='ANONYMOUS ', fmtdat='(2E16.6)'
 volume=1.0
 tramp=1.0
 $END
   3.328316e+03   5.649794e+00
   2.268182e+03   1.872716e+03
  -3.298291e+02   2.321451e+03
  -1.704655e+03   1.044893e+03
  -9.901541e+02  -2.975352e+02
   2.785480e+02  -4.792562e+02
   7.010953e+02   2.810933e+02
   5.762728e+01   9.708738e+02
  -6.745165e+02   7.728119e+02
  -8.875056e+02   6.388163e+01
  -4.472605e+02  -7.002062e+02
   1.354545e+02  -8.695100e+02
   5.488125e+02  -9.565939e+01
   2.723113e+02   6.007566e+02
  -2.154204e+02   6.638921e+02
  -6.002393e+02  -4.257945e+01
  -3.457645e+02  -5.733474e+02
   1.707706e+02  -6.641481e+02
   6.044244e+02  -1.834792e+02
   3.496862e+02   2.435326e+02
   2.597482e+01   3.974497e+02
  -1.173296e+02   2.897997e+02
  -1.261180e+02   4.351045e+01
   1.328683e+02  -7.665798e+01
   4.830663e+02   1.494703e+02
   1.590793e+02   4.738916e+02
  -4.525173e+02   3.869658e+02
  -8.297173e+02  -5.284321e+01
  -3.461444e+02  -4.675743e+02
   2.824675e+02  -3.504115e+02
   6.345276e+02   6.197978e+01
   3.163018e+02   3.904220e+02
  -2.480617e+02   4.248281e+02
  -5.219192e+02   1.784184e+02
  -3.704020e+02  -1.571336e+02
  -1.029568e+00  -3.843172e+02
   1.467344e+02  -2.539005e+02
   4.813912e+01   1.831636e+02
  -2.196909e+02   2.928960e+02
  -4.086285e+02  -8.287834e+01
  -1.495968e+02  -5.902607e+02
   2.760126e+02  -6.267360e+02
   4.960219e+02  -8.393097e+01
   2.087563e+02   4.445966e+02
  -2.045857e+02   2.481651e+02
  -1.767699e+02  -2.979582e+02
   1.343195e+02  -4.548684e+02
   5.087140e+02  -1.019383e+02
   4.609009e+02   4.229202e+02
   1.287202e+02   5.666180e+02
  -3.246080e+02   3.150543e+02
  -6.006810e+02  -7.200161e+01
  -3.391235e+02  -3.431840e+02
   1.255844e+02  -3.576736e+02
   3.574477e+02  -4.585643e+01
   2.287919e+02   1.069858e+02
  -4.417202e+01   7.028128e+01
  -1.050665e+02  -8.904058e+01
   1.340669e+02  -1.064011e+02
   2.754664e+02   7.704092e+01
   1.918119e+02   2.614248e+02
  -1.482157e+02   3.000249e+02
  -3.126573e+02   1.407766e+02
  -2.485014e+02  -7.188469e+01
  -1.341283e+01  -2.922012e+02
   2.168813e+02  -3.364368e+02
   3.503861e+02  -2.140939e+02
   2.615899e+02   1.510182e+02
   6.073460e+01   4.067119e+02
  -3.158274e+01   3.330839e+02
  -4.646249e+01   1.285597e+02
  -1.561857e-01   4.176312e+01
  -8.337892e+01   1.146925e+02
  -2.137997e+02   1.701962e+02
  -2.191749e+02  -4.164468e+01
  -2.017672e+02  -2.551502e+02
   4.812302e+01  -2.596849e+02
   2.193860e+02   1.746024e+01
   1.830176e+02   2.128616e+02
  -2.592583e+01   2.627073e+02
  -3.288884e+02   9.910915e+01
  -3.624399e+02  -1.671503e+02
  -2.135821e+02  -3.237121e+02
   1.061089e+02  -2.885608e+02
   2.222802e+02  -1.171600e+02
   1.501863e+02  -1.998576e+01
   9.353523e+01  -7.811686e+01
   2.637858e+02  -1.250178e+02
   4.085029e+02   4.740466e+01
   3.777656e+02   2.347363e+02
   9.391001e+00   4.428902e+02
  -3.467695e+02   4.360209e+02
  -4.541921e+02   2.019525e+02
  -3.234109e+02  -1.172136e+02
  -6.401029e+01  -2.922930e+02
   1.359180e+02  -2.804109e+02
   4.280419e+01  -2.475992e+01
  -7.821871e+01   9.215017e+01
  -1.800541e+02  -3.878429e+01
  -3.994267e+01  -1.431494e+02
   1.645055e+02  -1.723702e+02
   1.950787e+02   1.014335e+02
  -1.466031e+01   1.744330e+02
  -1.757688e+02   6.208122e+01
  -1.957732e+02  -1.984765e+02
  -4.659654e+01  -3.169366e+02
   2.426784e+02  -1.968399e+02
   3.194852e+02   3.057181e+01
   3.346916e+02   1.983550e+02
   5.630620e+01   2.313138e+02
  -9.422989e+01   1.172649e+02
  -1.824870e+02  -1.797414e+01
  -4.215802e+01  -6.590495e+01
   5.755328e+01   5.135786e+01
   2.805235e+01   1.588506e+02
  -6.790029e+01   1.019326e+02
  -1.378953e+02  -3.233764e+01
  -6.010795e+01  -6.167340e+01
   9.450505e+01  -2.954528e+01
   4.844642e+01   6.196757e+01
  -1.152569e+02   1.435374e+02
  -2.803312e+02   8.594041e+01
  -2.980029e+02  -1.104358e+02
  -6.326249e+01  -2.618686e+02
   1.522996e+02  -2.550029e+02
   2.305471e+02  -1.024094e+02
   1.270584e+02   3.521211e+01
  -7.317462e+01   8.798080e+01
  -4.952983e+01   1.839965e+01
   4.560008e+01  -1.590724e+02
   1.743674e+02  -1.232194e+02
   2.257067e+02   1.106527e+02
   8.009145e+01   2.496156e+02
  -1.309755e+02   1.721494e+02
  -1.212819e+02   8.854117e+00
  -5.302950e+01  -7.514226e+01
   6.614323e+01  -2.822326e+01
   7.047392e+01   3.812576e+01
  -9.978568e+01   1.697008e+02
  -1.750724e+02   4.098810e+01
  -1.998933e+02  -1.179472e+02
  -4.649453e+01  -2.051165e+02
   2.043176e+02  -1.579729e+02
   2.425545e+02  -1.468552e+01
   6.626288e+01   8.299598e+01
  -5.241934e+01   1.195708e+02
  -9.149256e+01  -8.102895e+00
   4.788440e+00  -4.300311e+01
   4.025180e+01  -6.043341e+00
   2.217842e+01   7.553683e+01
  -6.840515e+01   1.495644e+01
  -9.019182e+01  -1.038172e+02
  -6.563497e+01  -1.672337e+02
   1.145681e+02  -1.496755e+02
   2.564731e+02  -8.088979e+00
   1.434057e+02   1.566371e+02
   4.477190e+01   2.428780e+02
  -1.336227e+02   1.930197e+02
  -1.749014e+02  -2.148125e+01
  -8.544956e+01  -7.394426e+01
  -3.709910e+01  -4.181962e+01
  -2.556601e+01   2.469986e+01
  -9.498783e+01   1.327952e+01
  -5.722047e+01  -2.706672e+01
   2.899741e+01  -4.078242e+01
   1.220433e+02  -5.456787e+01
   8.284965e+01   7.937193e-01
   1.278073e+01   1.026818e+02
  -1.656384e+02   1.477419e+02
  -1.907661e+02  -1.322848e+02
  -1.456957e+02  -2.477975e+02
   6.529307e+01  -2.043531e+02
   2.692572e+02  -5.917973e+01
   1.927333e+02   1.435311e+02
   1.251107e+02   1.626768e+02
   1.582085e+00   1.161735e+02
  -8.046935e+01   3.322803e+01
  -7.426914e+01   6.590040e+01
  -5.724986e+01   5.203484e+01
  -6.346776e+01   1.281063e+02
  -1.391873e+02   2.658122e+01
  -7.246729e+01  -1.504266e+02
   1.166356e+01  -1.888110e+02
   6.678687e+01  -1.495373e+02
   1.632560e+02  -8.046762e-02
   7.706833e+01   1.130248e+02
  -1.673072e+00   1.791283e+02
  -8.423297e+01   5.460241e+01
  -6.230892e+01   1.841707e+01
   2.983840e+01  -4.150686e+01
  -1.223242e+01  -7.539192e+01
  -6.624086e+01  -3.867763e+01
  -8.273487e+01  -4.152349e+01
  -4.070271e+01  -5.393719e+01
   7.180431e+01  -1.845804e+01
   1.305332e+02   4.319561e+00
   1.206222e+02   7.303539e+01
  -1.563359e+01   8.635396e+01
  -1.570672e+02   5.814566e+01
  -1.436261e+02  -3.131578e+00
  -1.037098e+02  -5.737797e+01
   5.020518e+01  -1.924506e+01
   4.361065e+01   1.923929e+01
  -1.310499e+01   6.709134e+01
  -3.809898e+01   6.024892e+01
  -6.406937e+01  -2.429008e-02
  -6.314806e+01  -7.243665e+01
  -8.237369e+01  -8.342949e+01
  -5.537135e+01  -5.688825e+00
  -3.182258e+01   7.760259e+00
  -5.397069e+01  -9.020738e+01
  -1.010641e+01  -1.267879e+02
   1.919055e+02  -1.342767e+02
   1.924154e+02  -5.059779e+01
   1.236414e+02   5.617214e+01
   2.637538e+01   1.602622e+02
  -9.401649e+01   7.655996e+01
  -8.649251e+01   2.676843e+01
   1.864602e+01  -1.271155e+01
   1.503856e+02   5.042437e+01
   1.004124e+02   6.015525e+01
  -4.992905e+01   6.914974e+01
  -1.784034e+02   2.752465e+01
  -1.720171e+02  -2.275923e+01
  -9.767421e+00  -9.449472e+01
   8.226993e+01  -8.172845e+01
   5.669934e+01   3.542073e+01
  -3.440861e+01   5.037546e+01
  -7.277739e+01  -2.783191e+01
  -2.116064e+01  -8.624283e+01
   4.848378e+01  -1.224057e+02
   1.179000e+02  -1.728523e+01
   8.147492e+01   1.045547e+02
   9.014938e+00   1.928519e+02
  -1.262887e+02   9.467072e+01
  -1.190568e+02  -2.110833e+01
  -6.661728e+01  -1.619111e+02
   4.860740e+01  -8.912423e+01
   5.235486e+01  -1.793700e+01
   5.187697e+01   4.537531e+01
   4.070798e+01  -1.641054e+01
  -4.142323e+01   7.859275e+00
  -5.213729e+00   2.802971e+01
   4.968060e+01   8.194756e+01
   1.129332e+02   1.298562e+02
  -8.276991e+01   6.522565e+01
  -8.775084e+01  -3.770263e+01
  -1.626637e+02  -5.056622e+01
  -2.529340e+00  -6.046029e+01
   3.010968e+01  -2.339489e+01
   9.540764e+01  -5.861154e+00
   9.683649e+00   2.082767e+01
  -3.745596e+01   1.505731e+01
   2.070836e+01   2.818682e+01
   2.394718e+00   2.914087e+01
  -2.019839e+01  -6.251593e+00
  -2.731101e+01   3.985699e+01
  -1.200041e+02  -6.935263e+00
  -6.308994e+00  -3.417720e+01
   9.692965e+01  -9.031425e+01
   1.803877e+02  -9.787862e+01
   1.181002e+02   1.779527e+01
   3.156374e+01   1.181657e+02
  -3.561207e+01   1.284597e+02
  -1.053639e+02   5.720911e+01
  -4.961908e+01  -2.952499e+01
   2.452561e+01  -6.070458e+01
  -1.205786e+01   3.853254e+01
  -3.259830e+00  -4.864403e+00
  -3.701709e+01  -5.063669e+01
  -2.622447e+00  -1.150967e+02
   5.540522e+01  -6.208443e+01
   9.060684e+01   1.049922e+02
   1.071765e+02   1.335502e+02
  -5.039583e+00   1.788641e+02
  -7.240245e+01   5.238989e+01
  -1.139117e+02  -5.036153e+01
  -5.644771e+01  -1.119674e+02
   6.744677e+01  -6.953655e+01
   8.374387e+01   7.647713e+00
   5.981475e+01   3.792752e+01
  -5.285839e+01   5.053193e+01
  -1.896388e+01   2.544518e+01
   8.318558e+01  -5.983761e+00
   8.160768e+01  -7.692332e+00
   5.193396e+01   2.264817e+01
  -1.055455e+02   1.024504e+02
  -1.183596e+02   7.141525e+01
  -9.828901e+01   2.012720e+01
   1.650798e+01  -6.054583e+01
   3.037779e+01  -9.936042e+01
   2.778284e+01  -4.813800e+01
  -6.224054e+00   3.411404e+01
  -2.012581e+01   2.983833e+01
  -4.318578e+01   1.896141e+01
  -1.065897e+01  -3.192809e+01
  -3.853158e+00  -1.055891e+01
   5.515024e+01   3.561147e+01
   3.609864e+01   8.614685e+00
  -1.492452e+01  -2.322626e+01
  -4.442672e+01  -2.019898e+01
  -1.668686e+01   1.771274e+01
   1.415869e+01   9.069127e+00
   3.481841e+01   2.203317e+01
  -3.304096e+01  -2.625821e+01
  -2.884642e+01  -4.682465e+01
  -3.873227e+00  -2.164767e+01
   3.886456e+01  -4.792932e+01
   7.583761e+01  -5.578189e+00
   2.987261e+01   6.615211e+01
  -7.393131e+01   4.821117e+01
  -6.570135e+01   6.597347e+00
  -3.646490e+01  -5.183369e+01
   6.256600e+01  -6.970298e+01
   1.293051e+02  -2.805561e+01
   4.003213e+01  -1.445447e+00
  -1.249240e+01   3.192823e+01
  -4.954297e+01  -9.581985e+00
   3.858911e+01  -1.452517e+01
   6.835885e+01  -3.661798e+01
