
 $NMID
 id='ANONYMOUS ', fmtdat='(2E16.6)'
 volume=1.0
 tramp=1.0
 $END
   1.569540e+03   1.056303e+01
   1.105703e+03   7.019823e+02
   9.286238e+01   9.509842e+02
  -4.623230e+02   7.554355e+02
  -4.764777e+02   3.630261e+02
  -1.450135e+02  -5.701947e+01
   7.241244e+01  -1.108401e+02
   4.205537e+00   1.908158e+02
  -1.616482e+02   3.333821e+02
  -2.725397e+02   1.097806e+02
  -2.568190e+02  -2.527605e+02
  -4.171728e+01  -3.713221e+02
   1.554027e+02  -1.287890e+02
   1.191719e+02   1.639086e+02
  -6.448484e+01   2.814862e+02
  -2.401321e+02   5.543788e+01
  -1.284204e+02  -3.186994e+02
   9.534760e+00  -3.282230e+02
   2.328974e+02  -1.715210e+02
   2.355294e+02   3.028130e+01
   1.399971e+02   1.891762e+02
  -2.406808e+01   1.490561e+02
   6.622493e+00   9.198261e+01
   1.367618e+02   1.177599e+02
   1.631492e+02   1.969956e+02
  -1.629800e+01   2.131021e+02
  -2.791015e+02   5.633296e+01
  -2.827890e+02  -1.344105e+02
  -8.682110e+01  -1.683926e+02
   1.905557e+02  -7.674649e+01
   3.129525e+02   1.592217e+02
   7.867071e+01   2.574006e+02
  -1.962608e+02   2.181613e+02
  -2.519960e+02   5.419782e+01
  -1.830153e+02  -1.038532e+02
  -4.519467e+01  -1.695496e+02
  -3.904817e+01  -5.087311e+01
  -7.474057e+01   3.408155e+01
  -1.548069e+02   5.221367e+01
  -8.582370e+01  -1.516435e+02
   9.769971e+01  -2.998390e+02
   1.457288e+02  -2.437665e+02
   1.278206e+02  -1.710702e+01
   5.143807e+01   1.630029e+02
  -6.793984e+01   7.664741e+01
  -4.710059e+01  -1.954248e+02
   1.206979e+02  -1.875518e+02
   2.453100e+02  -1.705169e+01
   2.413071e+02   2.131189e+02
   7.928328e+01   2.864646e+02
  -1.985499e+02   1.874661e+02
  -2.930566e+02  -2.926341e+01
  -2.088491e+02  -1.292489e+02
  -2.679694e+01  -1.421541e+02
   1.494839e+02  -7.514767e+01
   1.041008e+02  -2.001816e+01
   1.012743e+01  -4.835734e+01
  -1.358181e+01  -3.280744e+01
   4.378030e+01  -3.467879e+01
   1.224471e+02   1.325514e+01
   9.659301e+01   1.066984e+02
  -7.998673e+01   1.228620e+02
  -1.961013e+02   9.818578e+01
  -2.113871e+02  -6.985424e+01
  -2.864775e+01  -2.082066e+02
   1.926305e+02  -2.631483e+02
   2.198481e+02  -1.045333e+02
   1.397947e+02   7.261600e+01
   4.728539e+01   1.845070e+02
  -3.461525e+01   1.773854e+02
  -1.048720e+01   1.302043e+02
  -3.676185e+00   6.979792e+01
  -8.563592e+01   5.826899e+01
  -1.531705e+02   3.787582e+01
  -8.204231e+01  -7.921177e+01
  -3.633592e+01  -1.542327e+02
   9.678622e+01  -1.083929e+02
   1.243515e+02   1.569276e+01
   8.302739e+01   1.179184e+02
  -3.105529e+01   1.525706e+02
  -1.308557e+02   5.330309e+01
  -1.627421e+02  -9.346325e+01
  -8.634629e+01  -1.799542e+02
   1.804308e+01  -1.448568e+02
   1.234164e+02  -6.930109e+01
   9.413040e+01  -3.644625e+01
   9.403155e+01  -3.146464e+01
   1.268484e+02  -1.266645e+01
   2.224619e+02   2.796809e+01
   1.439861e+02   1.465270e+02
  -1.511906e+01   2.632017e+02
  -2.071497e+02   2.026294e+02
  -2.782904e+02   3.556997e+01
  -1.772967e+02  -6.585409e+01
  -3.581894e+00  -1.482931e+02
   8.405427e+01  -8.843551e+01
   4.905876e-01   2.044318e+00
  -5.119503e+01   1.429764e+01
  -5.543781e+01  -1.007693e+01
  -5.786922e+00  -6.868682e+01
   4.910961e+01  -3.790087e+01
   6.864797e+01   1.061817e+02
   2.999634e-01   8.492073e+01
  -9.112457e+01   1.415376e+01
  -1.148659e+02  -1.423431e+02
   2.003975e+00  -1.834746e+02
   1.664851e+02  -1.137888e+02
   2.078968e+02   3.734411e+01
   1.630749e+02   1.503362e+02
   5.196516e+01   1.529466e+02
  -9.024465e+01   6.548666e+01
  -1.000224e+02  -1.237914e+01
  -1.395799e+01  -1.788582e+01
   4.819233e+01   6.327727e+01
  -2.229300e+01   6.263408e+01
  -5.413808e+01   2.915337e+01
  -8.403531e+01  -2.176669e+01
   1.836140e+01  -5.777553e+01
   6.853098e+01   4.131858e-02
   4.379695e+01   8.170247e+01
  -1.125381e+02   6.471147e+01
  -1.849703e+02  -2.879112e+00
  -1.918240e+02  -1.316709e+02
   8.342057e-01  -1.848439e+02
   1.362214e+02  -1.595650e+02
   1.794793e+02  -6.903623e+01
   6.214817e+01   3.561255e+01
  -3.145894e+01   3.346687e+01
  -4.656174e+01  -4.275901e+01
   1.554728e+01  -8.360230e+01
   1.194857e+02  -1.914991e+01
   1.201143e+02   6.217435e+01
   5.817561e+01   5.282249e+01
  -7.185848e+01   8.071502e+01
  -9.261374e+01   8.536956e+00
  -2.923464e+01  -1.262724e+01
   6.060612e+01   1.140228e+01
  -1.661648e-02   4.589362e+01
  -5.145822e+01   9.080535e+01
  -1.453676e+02   1.169069e+01
  -1.405377e+02  -9.888004e+01
   7.744545e+00  -1.561983e+02
   1.058285e+02  -1.203781e+02
   9.805549e+01  -5.096067e+00
   6.487490e+01   7.610106e+01
  -6.025991e+01   6.656267e+01
  -1.821641e+01  -3.704094e+00
  -1.597222e+01  -9.354608e+00
  -1.303942e+00   1.399565e+01
  -8.244877e+00   2.430266e+01
  -6.022364e+01   1.373908e+01
  -7.218054e+01  -8.017178e+01
   2.627420e+01  -1.503924e+02
   8.761596e+01  -9.534226e+01
   1.778085e+02   2.775011e+00
   9.542844e+01   6.401590e+01
   1.521424e+01   1.406342e+02
  -6.998267e+01   9.037860e+01
  -5.024452e+01   1.819409e+01
  -1.393276e+01  -6.421636e-01
  -2.874501e+01  -6.079162e+01
  -3.927983e+01   1.225417e+01
  -1.455729e+01  -8.457610e+00
  -3.692418e+01  -6.011556e+01
   4.990673e+01  -6.737334e+01
   1.036018e+02  -1.380702e+01
   5.954726e+01   9.108959e+01
  -1.479012e+01   9.059598e+01
  -5.868912e+01   1.778852e+01
  -1.945360e+02  -2.704187e+01
  -4.653883e+01  -1.341365e+02
   1.085426e+02  -1.415215e+02
   1.634643e+02  -2.232519e+00
   1.798293e+02   7.324686e+01
   8.826204e+01   1.240805e+02
  -3.303935e+01   8.605625e+01
  -8.576787e+01   4.090654e+01
  -3.469042e+01   3.454843e+01
  -4.059090e+01   4.027703e+01
  -5.998698e+01   4.972219e+01
  -8.112989e+01  -7.179021e+00
  -8.020841e+01  -7.427869e+01
  -3.957994e+01  -1.209096e+02
   9.209851e+01  -1.078779e+02
   1.184419e+02  -1.054857e+01
   5.990510e+01   1.097641e+02
   4.375513e+00   1.119190e+02
  -5.474934e+01   7.326137e+01
  -4.757768e+01  -4.285507e+00
   4.145246e+01  -2.081396e+01
   1.310735e+01   3.250421e+01
   3.114389e+00   1.972719e+01
  -5.610536e+01   1.202337e+01
  -8.212016e+00  -1.111065e+01
   3.630652e+01  -7.698755e+00
   1.129099e+02   1.671975e+01
   8.799440e+01   3.302041e+01
   7.366714e+00   5.834434e+01
  -5.577885e+01   1.569157e+01
  -9.726792e+01  -2.727618e+00
  -3.888682e+01  -8.437484e+01
   5.130382e+01  -5.814123e+01
   3.310224e+01  -9.766571e-01
   1.097609e+01   3.376610e+01
  -3.765420e+01   2.777354e+01
  -2.971346e+01  -8.861172e+00
  -1.731861e+01  -3.083196e+01
  -1.250062e+01  -2.124318e+01
  -3.745590e+01   1.211803e+01
  -4.327429e+01  -2.227777e+00
  -6.293116e+01  -6.958549e+01
   3.739170e+01  -8.872287e+01
   1.268397e+02  -5.400922e+01
   1.249386e+02  -7.796404e+00
   8.277879e+01   6.235684e+01
  -3.669703e+00   8.371813e+01
  -4.135171e+01   6.786099e+01
  -5.483506e+01   1.957095e+01
   4.157184e+01  -4.223980e+01
   4.350309e+01  -1.723174e+01
   3.806346e+01   5.724639e+01
  -4.154273e+01   8.688871e+01
  -7.230179e+01   3.017839e+01
  -1.027416e+02  -4.475294e+01
  -2.718384e+01  -7.700226e+01
   2.943579e+01  -1.640513e+01
  -7.253803e+00   7.762153e+00
  -4.610125e+01   3.711173e+01
  -1.083326e+02  -3.142802e+01
  -3.205248e+01  -5.853338e+01
   7.362133e+01  -1.044699e+02
   9.144380e+01  -4.489909e+01
   7.935078e+01   8.105592e+01
   6.924747e+00   1.458519e+02
  -5.420719e+01   8.829617e+01
  -5.706068e+01   1.601224e+01
  -2.134959e+01  -8.619416e+01
   1.338410e+01  -5.082594e+01
   2.658593e+01   5.644802e+00
   6.011628e+00  -2.877248e+01
   3.167128e+01  -2.228104e-01
   1.849937e+01  -3.751206e+01
   9.201923e+00  -2.586469e+01
   3.152291e+01   5.597629e+01
   1.315770e+00   3.828904e+01
  -3.577270e+01  -9.954325e+00
  -9.527085e+01  -4.894643e+01
  -7.310273e+01  -6.190104e+01
   1.216057e+01  -4.962027e+01
   7.470214e+01  -4.676713e+01
   3.093268e+01  -9.186281e+00
   1.665541e+01  -2.982098e+01
  -5.187077e+00   2.861237e+00
  -1.549790e+01   2.736093e+00
   6.292657e+00  -2.091464e+01
  -1.103969e+01  -4.634892e+01
  -1.254845e+01   1.889252e+01
  -4.926996e+01  -2.785670e+01
  -1.384558e+00  -8.770559e+01
   7.123348e+01  -9.112022e+01
   1.293943e+02  -2.914727e+01
   1.008990e+02  -1.817849e+01
   1.223220e+01   9.121961e+01
  -6.517790e+01   1.126648e+02
  -5.173304e+01   2.899757e+01
  -9.631365e+00  -3.496087e+01
   1.568331e+01  -4.414611e+01
  -1.176202e+01  -2.838354e+01
  -5.418048e+00   1.789153e+01
   7.270767e+00  -3.206454e+01
  -5.923743e+00  -4.200517e+01
   4.461938e+01  -2.542329e+01
   9.089188e+01  -2.726220e+01
   1.296446e+01   6.481700e+01
  -1.428009e+01   6.051539e+01
  -4.068263e+01   4.168214e+01
  -4.516224e+01  -4.145623e+01
  -2.392782e+00  -6.290115e+01
   3.274837e+01  -7.593757e+01
   8.483881e+01   5.148739e+00
   7.974343e+01   4.546211e+01
   8.359565e+00   5.660895e+01
  -2.431725e+01   3.745913e+01
  -2.438887e+01   6.281206e+01
   2.596230e+01   5.197052e+00
   6.660174e+00   1.348913e+01
  -3.987307e+01   5.497283e+01
  -8.614901e+01   1.965239e+01
  -3.627304e+01  -2.093728e+01
   3.728767e+01  -6.644422e+01
   2.689703e+00  -1.035680e+02
   7.485165e+01  -3.044638e+01
   2.062458e+01   2.214673e+01
   1.465058e+01   5.119898e+01
   1.401298e+01  -9.348214e+00
  -8.611688e+00  -4.008220e+01
   1.841261e+00  -8.249184e+00
  -1.628642e+01   3.428462e+01
   9.590757e+00   2.311415e+01
  -2.403157e+01  -1.094760e+01
  -2.874596e+01  -4.306749e+01
   1.529522e+01  -2.478402e+00
  -1.278149e+01   3.376178e+01
  -5.019089e+01   1.192780e+01
  -2.418168e+01  -8.498309e+00
  -1.283717e+00  -4.788389e+01
   2.668953e+01  -4.616650e+01
   6.877263e+00  -3.812444e+01
   2.914770e+01  -8.430016e+00
   1.735210e+01   5.968479e+01
  -2.532902e+01   1.409992e+01
  -3.487576e+01  -8.078625e-01
   5.119523e+00  -4.314292e+01
  -2.283970e+01  -1.932704e+01
   7.900325e+01   2.317806e+01
   6.416730e+01   8.069170e+00
  -1.993607e+01  -1.073369e+01
  -3.245802e+01  -1.393959e+00
   3.807003e+00  -6.030453e+01
   7.937668e+01  -1.158447e+01
