
 $NMID
 id='ANONYMOUS ', fmtdat='(2E16.6)'
 volume=1.0
 tramp=1.0
 $END
  -3.035186e+03  -6.016058e+01
  -2.234035e+03  -1.626728e+03
  -1.049498e+02  -2.164281e+03
   1.231423e+03  -1.270718e+03
   1.092202e+03  -1.281265e+02
   1.872637e+01   2.568000e+02
  -3.253502e+02  -2.298373e+02
   4.644266e+01  -6.069646e+02
   5.396391e+02  -5.666856e+02
   7.518349e+02  -2.403186e+01
   4.432331e+02   4.873068e+02
   5.979531e+01   6.168972e+02
  -1.935775e+02   2.374254e+02
  -2.826721e+02  -3.948905e+02
   1.057067e+02  -6.020193e+02
   4.547559e+02  -7.827547e+01
   2.882564e+02   4.405432e+02
  -8.154237e+01   6.217375e+02
  -4.192082e+02   2.589641e+02
  -5.107116e+02  -1.710863e+02
  -1.935893e+02  -3.452731e+02
   1.167081e+02  -3.122289e+02
   1.271604e+02  -4.129887e+01
  -1.467210e+02  -8.422530e+01
  -3.062129e+02  -3.173498e+02
   3.789131e+01  -3.501502e+02
   5.084294e+02  -1.939307e+02
   5.832810e+02   2.248619e+02
   2.103977e+02   3.455620e+02
  -3.364665e+02   2.015885e+02
  -4.091761e+02  -1.756953e+02
  -1.250429e+02  -3.975845e+02
   2.934099e+02  -3.943978e+02
   5.258570e+02  -1.438433e+02
   2.660074e+02   1.642574e+02
   6.102985e+01   3.002740e+02
  -9.924264e+00   1.588250e+02
   9.376295e+01  -8.137138e+01
   2.256911e+02  -1.069675e+02
   1.740872e+02   1.972723e+02
   3.711092e+00   4.938414e+02
  -2.189942e+02   4.148875e+02
  -2.973468e+02   2.703614e+01
  -1.323465e+02  -3.291732e+02
   1.285484e+02  -1.209220e+02
   1.429824e+02   2.964321e+02
  -1.565896e+02   3.732734e+02
  -4.668419e+02   1.999846e+01
  -4.920147e+02  -4.597898e+02
  -1.415488e+02  -5.420091e+02
   3.088157e+02  -3.046106e+02
   5.372765e+02   6.121587e+01
   3.656777e+02   2.504049e+02
  -3.968043e+01   2.060045e+02
  -2.830971e+02   9.654177e+01
  -2.469833e+02  -2.262649e+01
  -4.053842e+01  -1.868008e+01
   5.380755e+01   3.401202e+01
  -4.366263e+01   2.590249e+01
  -2.067522e+02  -8.797129e+01
  -1.221503e+02  -2.218344e+02
   1.181767e+02  -2.385553e+02
   3.494736e+02  -1.076943e+02
   2.997854e+02   7.914029e+01
   3.388105e+00   3.067624e+02
  -3.096127e+02   3.577351e+02
  -4.487406e+02   1.487096e+02
  -2.672212e+02  -1.909168e+02
  -4.818502e+01  -3.866690e+02
   3.142229e+01  -3.332016e+02
   6.048438e+01  -1.615267e+02
   1.433409e+01  -1.030477e+02
   1.484381e+02  -1.587512e+02
   2.547550e+02  -9.303389e+01
   2.524689e+02   8.131699e+01
   1.199374e+02   2.381370e+02
  -3.141663e+01   1.808840e+02
  -1.781863e+02  -5.309487e+01
  -6.712280e+01  -2.724711e+02
   4.298425e+01  -2.451372e+02
   3.008340e+02  -7.930492e+01
   3.106910e+02   2.241533e+02
   1.170072e+02   2.672039e+02
  -3.148674e+01   2.467652e+02
  -1.803645e+02   1.787821e+02
  -1.981947e+02   1.138099e+02
  -2.098862e+02   1.600821e+02
  -3.031916e+02  -2.908628e-01
  -4.140921e+02  -1.361072e+02
  -2.705547e+02  -3.240715e+02
   6.362972e+01  -3.843144e+02
   4.397836e+02  -3.462482e+02
   5.015794e+02  -1.100231e+02
   2.543331e+02   1.259370e+02
  -1.771164e+01   2.473698e+02
  -7.852921e+01   1.813076e+02
  -1.076907e+01  -2.149569e+01
   8.012880e+01  -6.874638e+01
   1.420987e+02   6.182788e+01
   6.060723e+00   1.645031e+02
  -1.457883e+02   1.326303e+02
  -1.024847e+02  -7.023924e+01
   5.802022e+01  -1.178363e+02
   1.438998e+02   3.814865e+01
   1.132234e+02   2.542929e+02
  -2.278389e+01   3.896915e+02
  -2.964859e+02   1.966172e+02
  -3.644498e+02  -7.789535e+01
  -3.213584e+02  -2.772212e+02
  -9.741429e+01  -3.035095e+02
   1.405861e+02  -1.130313e+02
   1.310987e+02  -1.970925e+01
   3.888570e+01   2.724808e+01
  -4.925201e+01  -4.943690e+01
   2.264508e+01  -1.302275e+02
   1.237030e+02  -4.641834e+01
   1.106617e+02   3.815744e+01
   3.820612e+01   3.905707e+01
  -7.149197e+01  -3.630987e+01
  -1.334867e+01  -8.022125e+01
   1.352620e+02  -7.714487e+01
   2.899462e+02   2.399749e+01
   2.696618e+02   2.208352e+02
   1.889129e+00   2.824225e+02
  -2.245121e+02   2.082687e+02
  -3.234217e+02   7.097544e+01
  -1.253313e+02  -7.806709e+01
   1.017177e+01  -1.260160e+02
   4.392788e+01  -4.695638e+00
  -9.842256e+01   4.956837e+01
  -1.617168e+02   3.899037e+01
  -1.738640e+02  -6.925805e+01
  -3.699171e+01  -1.417012e+02
   1.184339e+02  -1.202505e+02
   1.475094e+02  -3.273534e+01
   6.404262e+01   7.353571e+01
  -7.957960e+01  -9.441014e+01
  -2.693746e+01  -1.341002e+02
   8.138011e+01  -1.180641e+02
   1.780258e+02  -5.451679e+00
   1.771067e+02   1.175806e+02
   2.372936e+01   2.259228e+02
  -1.425469e+02   1.246596e+02
  -1.479911e+02  -8.744393e+00
  -1.556682e+01  -7.762694e+01
   2.582024e+01  -9.386377e+01
   7.275900e+01  -5.860155e+00
   3.693987e+01   3.033545e+01
  -3.667498e+01   1.155582e-01
   3.298509e+01  -2.852794e+01
   1.005301e+02  -7.008435e+00
   1.303668e+02   8.956862e+01
  -3.052349e+01   1.823572e+02
  -1.631780e+02   1.669329e+02
  -2.651475e+02   5.271336e+00
  -2.349315e+02  -1.256037e+02
  -1.941609e+01  -1.952785e+02
   8.440477e+01  -1.072077e+02
   9.506983e+01  -3.269227e+01
   7.059780e+01   2.673369e+01
   4.937604e+01  -1.065763e+01
   6.709136e+01  -5.416465e+01
   1.143609e+02   1.325364e+01
   2.446590e+01   5.430792e+01
  -2.361956e+01   9.159872e+01
  -1.415401e+02   1.033646e+02
  -7.070887e+01  -5.068690e+01
  -1.732787e+01  -1.435801e+02
   1.764094e+02  -1.226060e+02
   2.035994e+02   6.374077e+01
   5.330023e+01   2.391702e+02
  -1.350838e+02   2.327967e+02
  -2.583145e+02   7.946048e+01
  -2.839595e+02  -9.449813e+01
  -9.543513e+01  -2.024283e+02
   4.784999e+01  -1.413807e+02
   7.853930e+01  -6.637679e+01
   9.356609e+01  -7.459006e+01
   6.096167e+01  -1.212076e+02
   9.160482e+01  -4.439666e+01
   1.399562e+02   4.734532e+01
   1.260776e+02   1.692754e+02
   4.139804e+01   2.497497e+02
  -1.015698e+02   1.739356e+02
  -1.949285e+02  -8.233625e-01
  -1.328689e+02  -1.455834e+02
  -2.693902e+01  -1.428144e+02
   8.375648e+01  -7.794806e+01
   5.812254e+01   3.090059e+01
  -1.590873e+01   7.989859e+01
  -2.841998e+01   6.378115e+01
   4.144769e+01   8.322056e+00
   1.118291e+02   1.310418e+01
   6.461383e+01   3.286660e+01
  -8.444038e+01   5.664926e+01
  -1.500460e+02  -2.570566e+01
  -1.813733e+02  -1.056033e+02
   2.383382e+01  -1.508592e+02
   1.587753e+02  -1.061245e+02
   1.495329e+02   1.782568e+01
   3.232147e+01   5.525649e+01
  -4.276688e+01   5.174106e+01
  -5.221577e+01  -7.256685e+00
  -1.506687e+01  -6.890674e+01
   2.226098e+01  -5.364070e+01
   6.214407e+01   3.547932e+01
   4.392257e+01   7.646376e+01
   3.183568e+01   2.211274e+01
   5.554981e+01  -2.692401e+01
   3.411049e+01  -2.167734e+01
   9.221529e+01   7.683511e+01
  -1.226709e+01   1.208386e+02
  -1.317041e+02   1.657028e+02
  -1.703230e+02   1.506692e+00
  -1.272004e+02  -7.643232e+01
  -1.735523e+01  -1.022277e+02
   7.808574e+01  -3.906727e+01
   5.224383e+01   3.736337e+01
  -9.639809e+01  -8.549169e-01
  -1.423969e+02  -7.548811e+01
  -4.163205e+01  -1.454235e+02
   1.340925e+02  -9.460978e+01
   1.968562e+02  -2.429500e+01
   1.579376e+02   7.384906e+01
  -4.467432e+01   1.018865e+02
  -1.103386e+02   4.586874e+01
  -7.987018e+01  -4.971947e+01
   4.541256e+01  -1.307123e+01
   1.157117e+02   8.901696e+00
   5.545685e+01   7.137777e+01
  -6.082203e+01   1.603396e+02
  -1.483289e+02   2.174911e+01
  -1.027833e+02  -9.765128e+01
   1.183357e+01  -1.750127e+02
   1.207933e+02  -7.746766e+01
   9.217924e+01   4.037209e+01
   3.995940e+01   1.384248e+02
   2.049933e+01   1.099150e+02
  -1.008731e+02   2.265072e+01
  -5.030656e+00   1.456846e+01
  -7.015313e+00   2.788122e+01
  -2.949963e+01   8.545288e+00
  -3.393321e+01   9.985099e+00
  -4.773194e+01  -7.692872e+01
  -1.292212e+01  -9.242264e+01
   5.766145e+01  -6.584185e+01
   1.359594e+02  -2.596578e+00
   1.042202e+02   8.854625e+01
  -4.775390e+00   5.970544e+01
  -8.611074e+01   4.412471e+01
  -8.586900e+01  -5.618356e+00
  -1.868408e+01   5.166780e+00
   5.095707e+01   2.249740e+01
  -3.300065e+01   2.171211e+01
  -4.199900e+01   5.032835e+00
   8.999541e+00  -2.963994e+01
   8.907651e+01  -1.779461e+01
   1.173089e+02   2.966598e+01
  -5.204425e+00   1.161096e+02
  -1.320251e+02   1.818531e+02
  -2.561493e+02   4.276486e+01
  -1.533144e+02  -6.316534e+01
  -4.387651e+01  -1.615024e+02
   1.212812e+02  -1.735304e+02
   1.106071e+02  -7.002965e+01
   7.687191e+01   5.212396e+01
   1.993684e+01   6.502845e+01
   4.823391e+01   2.454602e+00
   1.389124e+01  -2.882598e+01
   3.501988e+01   3.479468e+01
  -7.826812e+00   4.421972e+01
  -7.607279e+01   4.947197e+01
  -7.992727e+01  -2.451661e+00
  -1.195044e+02  -1.001383e+02
  -5.902732e+00  -1.307366e+02
   6.444867e+01  -3.268420e+01
   1.321526e+02   9.015747e+01
   3.574741e+01   7.704781e+01
  -3.771173e+01   8.098810e+01
  -1.487990e+02   7.501511e+00
  -4.889721e+01  -1.131639e+02
   3.790351e+01  -4.694940e+01
   7.652112e+01  -5.018715e+01
  -2.369117e+01  -1.900524e+01
  -7.702846e+01  -1.844962e+00
  -4.232374e+01  -3.579991e+01
   6.899769e+01  -8.986388e+01
   7.746318e+01  -2.762682e+01
   6.302197e+01   6.055697e+01
  -2.312029e+01   9.447534e+00
  -6.668181e+01   4.088773e+01
  -2.889352e+01   2.853780e+01
  -2.363267e+01  -6.276072e+01
   6.940079e+01  -4.472659e+01
   6.790676e+01  -3.172209e+00
   4.882624e+01   9.443121e+00
   2.727308e+01   5.564974e+01
  -3.330656e+01   7.159917e+00
  -2.732878e+01  -1.658080e+01
  -3.932169e+00   5.307955e+01
  -6.705780e+00   4.753525e+01
  -3.135481e+01  -4.798828e+01
  -4.645183e+01  -4.302677e+01
   3.919914e+00  -7.037316e+01
   7.841650e+00  -1.198720e+01
   6.249729e+01   4.003461e+01
   1.333189e+01   7.409277e+01
  -2.719162e+00   6.451150e+01
  -4.461162e+01  -2.005429e+01
  -4.464389e+01  -6.738347e+01
   7.594753e+01  -2.137943e+01
   1.075338e+02   3.012850e+01
   8.972614e+01   5.010079e+01
  -7.020334e+01   5.871346e+01
  -7.008984e+01  -1.905369e+01
  -5.146280e+01  -6.815373e+01
   6.872094e+01  -8.039896e+00
   8.289885e+00   6.512610e+00
  -4.577152e+01   7.798574e+01
  -5.590581e+01   2.766115e+01
