
 $NMID
 id='ANONYMOUS ', fmtdat='(2E16.6)'
 volume=1.0
 tramp=1.0
 $END
   3.875796e+03  -9.552882e+01
   2.438892e+03   2.388369e+03
  -5.780065e+02   2.652018e+03
  -1.832819e+03   9.701504e+02
  -9.645425e+02  -3.904642e+02
   3.945407e+02  -3.934000e+02
   7.549132e+02   2.997267e+02
   9.547642e+00   9.230063e+02
  -6.390368e+02   7.278258e+02
  -9.679083e+02   3.107452e+01
  -5.312735e+02  -8.359214e+02
   2.032857e+02  -9.207143e+02
   6.169110e+02  -1.438192e+02
   2.891410e+02   6.990696e+02
  -3.151358e+02   7.731051e+02
  -5.440986e+02   1.358141e+01
  -3.029230e+02  -7.007248e+02
   2.946868e+02  -5.895266e+02
   5.909965e+02  -1.275196e+02
   3.542909e+02   3.191818e+02
   1.655887e+01   4.680426e+02
  -2.019188e+02   2.161475e+02
  -1.315445e+02   6.014411e+00
   1.657819e+02  -1.164206e+01
   3.859594e+02   2.318127e+02
   1.818408e+02   4.906760e+02
  -4.088529e+02   3.587192e+02
  -7.812397e+02  -8.948171e+01
  -3.599417e+02  -4.841570e+02
   3.701224e+02  -3.735938e+02
   6.496995e+02   1.427712e+02
   2.814562e+02   4.629950e+02
  -3.408939e+02   4.871089e+02
  -5.551888e+02   1.613082e+02
  -3.821361e+02  -2.338245e+02
  -6.287391e+01  -4.311543e+02
   1.595734e+02  -2.532380e+02
   1.401675e+02   1.830493e+02
  -1.596917e+02   3.759192e+02
  -3.975050e+02  -5.499576e+01
  -1.736024e+02  -6.010088e+02
   2.962239e+02  -5.828397e+02
   5.349327e+02   2.021773e+01
   2.262542e+02   5.282145e+02
  -2.022592e+02   3.334552e+02
  -3.370585e+02  -3.389017e+02
   2.807793e+01  -5.335311e+02
   5.492423e+02  -5.878798e+01
   5.793241e+02   4.072611e+02
   1.809117e+02   5.189467e+02
  -3.364543e+02   2.904571e+02
  -5.945760e+02  -7.160960e+01
  -3.646315e+02  -3.801065e+02
   1.570022e+02  -2.706920e+02
   4.487184e+02  -6.489608e+01
   3.009491e+02   1.403180e+02
  -8.055270e+01   1.428497e+02
  -1.665729e+02  -8.800997e+01
   1.581291e+02  -1.371826e+02
   3.737307e+02   3.625310e+01
   1.290129e+02   2.554153e+02
  -1.959546e+02   2.613806e+02
  -3.489205e+02   7.716629e+01
  -2.384303e+02  -1.318832e+02
   6.498637e+00  -1.881166e+02
   2.876854e+02  -3.604204e+02
   3.526284e+02  -2.269073e+02
   2.318614e+02   1.830572e+02
   8.706599e+01   4.402211e+02
  -7.718429e+01   3.944517e+02
  -1.272582e+02   1.389654e+02
  -1.003814e+01   3.576492e+01
  -7.696889e+01   8.524806e+01
  -2.447087e+02   1.241363e+02
  -2.865750e+02  -1.159803e+02
  -1.298234e+02  -3.091203e+02
   8.027387e+01  -2.366513e+02
   2.144999e+02   4.581512e+01
   1.645556e+02   2.343004e+02
  -1.991195e+00   2.614153e+02
  -3.089032e+02   1.183933e+02
  -3.415952e+02  -1.980244e+02
  -1.546605e+02  -3.033945e+02
   1.068581e+02  -2.961654e+02
   2.280633e+02  -1.332894e+02
   1.700022e+02  -1.190068e+01
   7.594512e+01  -4.487144e+01
   2.389111e+02  -1.061470e+02
   4.582414e+02   1.157685e+02
   3.820888e+02   3.302109e+02
  -8.936297e+01   4.682840e+02
  -4.323412e+02   4.151198e+02
  -4.868252e+02   1.563466e+02
  -3.313113e+02  -1.152444e+02
  -3.187843e+01  -2.843446e+02
   8.574818e+01  -2.282373e+02
  -1.245032e+00  -5.754454e+00
  -1.106579e+02   9.076557e+01
  -1.220229e+02  -7.361496e+01
   4.420354e+01  -1.865748e+02
   1.650574e+02  -1.361958e+02
   1.729894e+02   8.951962e+01
   1.041816e+01   1.738444e+02
  -1.644262e+02   1.894073e+01
  -1.837135e+02  -2.131397e+02
  -3.182067e+00  -3.893736e+02
   2.673398e+02  -1.889980e+02
   3.597194e+02   9.662522e+01
   2.941999e+02   2.823823e+02
   1.012396e+02   2.539034e+02
  -1.272812e+02   1.642625e+02
  -2.098382e+02  -1.903030e+01
  -8.305107e+01   1.645995e+01
   3.533322e+00   5.484358e+01
  -1.179218e+01   1.443972e+02
  -1.629813e+02   1.028568e+02
  -1.906064e+02  -8.481457e+01
  -6.687377e+01  -7.158768e+01
   1.226633e+02  -1.891078e+00
   7.080304e+01   7.594173e+01
  -1.916696e+02   8.240458e+01
  -3.566319e+02  -1.409411e+01
  -2.495153e+02  -1.651726e+02
   2.907403e+01  -2.782942e+02
   2.142615e+02  -1.579217e+02
   2.861943e+02  -1.238022e+02
   2.181319e+02   7.479321e+01
  -6.890504e+01   1.430690e+02
  -1.140811e+02   2.702692e+01
   8.378672e+00  -1.368559e+02
   2.074244e+02  -5.773739e+01
   2.753607e+02   1.504665e+02
   6.181746e+01   2.723781e+02
  -9.713360e+01   1.130350e+02
  -1.324067e+02   5.365111e+01
  -8.113444e+01  -8.798301e+01
   2.695367e+01  -8.879961e+00
   1.100841e+01   4.665618e+01
  -6.599179e+01   9.030206e+01
  -1.408057e+02   4.533293e+01
  -1.775046e+02  -1.196320e+02
   1.827856e+00  -1.508410e+02
   1.352311e+02  -1.512660e+02
   2.211575e+02   2.481697e+01
   7.546897e+01   1.305647e+02
  -6.790788e+01   6.342134e+01
  -1.056971e+02   1.573140e+01
   3.228201e+01  -9.306413e+00
   4.472822e+01   3.521224e+01
  -3.979410e+01   5.050136e+01
  -8.454807e+01  -1.199245e+01
  -3.902287e+01  -8.165540e+01
   6.242512e+00  -1.223784e+02
   9.429639e+01  -1.773236e+02
   2.131627e+02   1.618232e+01
   1.680882e+02   1.584367e+02
   3.515414e+01   2.132003e+02
  -1.047660e+02   1.738325e+02
  -1.562287e+02   5.928192e+00
  -8.167859e+01  -4.037604e+01
  -1.948973e+01  -1.521493e+01
  -5.025985e+01   3.872904e+01
  -1.098412e+02   1.149462e+01
  -6.477323e+01  -4.878205e+01
   4.545338e+01  -1.143542e+02
   1.158552e+02  -5.374218e+01
   1.410894e+02   4.177705e+01
   4.208351e+00   1.288787e+02
  -1.296010e+02   1.702972e+02
  -2.289954e+02  -1.506499e+01
  -1.612581e+02  -1.821649e+02
   9.489895e+01  -1.885327e+02
   2.733586e+02  -7.415035e+01
   2.682963e+02   1.242653e+02
   8.787970e+01   1.651845e+02
  -8.375710e+01   9.165979e+01
  -7.584213e+01   7.835947e+01
  -9.857736e+01   7.849812e+01
  -7.272074e+01   9.381189e+01
  -7.979361e+01   9.639262e+01
  -1.326409e+02  -3.161277e+01
  -1.303641e+02  -1.498642e+02
  -6.506214e+00  -2.347613e+02
   1.441388e+02  -1.887369e+02
   1.936238e+02  -1.070485e+01
   7.707891e+01   1.293488e+02
   1.339281e+01   1.702193e+02
  -5.932823e+01   6.021904e+01
  -3.757098e+01  -3.038173e+01
   3.418158e+01  -4.324400e+01
   1.639559e+01  -1.864558e+01
  -3.318829e+01   1.232621e+01
  -8.526953e+01  -2.427633e+01
  -1.801243e+01  -5.096606e+01
   7.432500e+01  -4.876417e+01
   1.416577e+02   1.597720e+01
   1.268252e+02   1.108404e+02
   4.213365e+01   1.068050e+02
  -1.405818e+02   9.756426e+01
  -1.477061e+02  -7.358867e-01
  -8.313970e+00  -5.270020e+01
   8.111877e+01  -4.357702e+01
   4.094584e+01   9.993580e+01
  -1.788605e+00   1.202250e+02
  -9.732070e+01   3.244742e+01
  -8.601241e+01  -1.112933e+01
  -5.436881e+01  -8.854349e+01
  -1.234691e+01  -5.077095e+01
  -1.917333e+01   4.652158e+01
  -5.638852e+01  -4.574578e+01
   8.731553e+00  -9.786821e+01
   1.705676e+01  -1.505726e+02
   1.240453e+02  -1.051517e+02
   2.050280e+02   3.020639e+00
   1.281635e+02   9.751113e+01
   1.950019e+00   1.433543e+02
  -1.242453e+02   7.902075e+01
  -6.880750e+01  -2.256831e+01
   5.953264e+01  -6.613611e+01
   1.979320e+02   4.932648e+01
   8.352108e+01   1.044562e+02
  -7.449377e+01   1.285587e+02
  -1.913899e+02   5.610980e+01
  -1.852220e+02  -4.869594e+01
  -1.471612e+01  -8.586615e+01
   2.350892e+01  -2.027048e+01
   7.113741e+01   1.498671e+01
  -6.899850e+01   5.109393e+01
  -1.075407e+02  -5.714525e+01
  -6.117265e+01  -1.494060e+02
   7.640068e+01  -1.823073e+02
   2.057794e+02  -7.533954e+01
   1.579360e+02   1.001063e+02
  -3.375353e+01   1.910628e+02
  -1.306793e+02   8.953219e+01
  -1.203698e+02  -1.982997e+01
  -1.097645e+02  -1.358501e+02
   4.680626e+00  -1.432203e+02
   1.025993e+01  -2.463610e+01
   2.756477e+01   5.126654e+01
   4.019580e+01   3.006161e+00
  -1.094218e+01  -1.784878e+01
   3.399588e+01  -1.425286e+01
   4.316853e+01   8.729702e+01
   1.086946e+01   9.317816e+01
  -1.015421e+02   2.791915e+01
  -1.623646e+02  -8.146829e+01
  -1.136491e+02  -6.581646e+01
  -4.565298e+01  -9.181662e+01
   5.705405e+01  -4.345463e+01
   8.015163e+01  -2.497199e+01
   1.911264e+00   1.560497e+01
  -2.111792e+01  -7.385487e+00
   7.379208e-01   8.947921e+00
   1.018561e+01   2.155642e+01
  -1.975431e+01  -4.346388e+01
  -7.398189e+01   3.167942e+01
  -8.665766e+01  -3.380716e+01
  -1.173937e+01  -1.224638e+02
   1.338522e+02  -1.269358e+02
   2.247950e+02  -4.405479e+01
   1.516502e+02   9.491936e+01
   2.741473e+01   1.734026e+02
  -1.014623e+02   1.704804e+02
  -9.598473e+01   4.979865e+01
  -1.181623e+02  -9.239283e-02
  -2.403503e+01  -5.793713e+01
   1.498915e+01   7.257172e+00
   1.298986e+01   4.730643e+01
  -4.029495e+01   3.443861e+00
  -4.810852e+01  -8.070436e+01
   1.965305e+01  -8.470988e+01
   7.686829e+01  -1.125905e+01
   9.928529e+01   1.125661e+02
   2.965780e+01   1.702850e+02
  -6.925620e+01   2.129343e+01
  -1.049537e+02  -7.862710e+01
  -4.359828e+01  -7.862190e+01
   7.884061e+01  -3.906183e+01
   9.412119e+01   4.516106e+01
   4.016149e+00   2.633359e+01
  -4.984100e+01   7.239739e+01
  -2.310093e+01   4.593136e+00
   4.309023e+01   1.835491e+01
   8.969526e+01   6.326863e+00
   4.408054e+01  -1.993283e+01
  -2.678643e+01   6.733829e+01
  -1.369414e+02   8.316290e+01
  -2.033930e+01   2.546116e+01
   8.548585e+00  -6.427774e+01
   2.382177e+01  -8.003123e+01
  -8.194143e+00  -6.799486e+00
  -5.835113e+01  -2.734877e+00
  -2.593608e+01   1.206455e+01
  -3.695182e+01  -3.302614e+01
  -3.412790e+01  -5.797023e+01
   2.108105e-01  -4.277299e+01
   4.525215e+01  -3.928221e+01
   8.104926e+01   3.312460e+01
   3.881993e+01   3.497850e+01
  -7.833878e+00  -2.527817e+01
  -2.466425e+01   3.239021e+01
   1.751969e+00   7.108213e+00
  -9.869062e+00   9.255834e+00
  -2.278585e+01   3.343350e+01
  -6.844185e+01  -7.153003e+01
   1.708304e+01  -7.201619e+01
   3.590177e+01  -7.689640e+00
   8.590026e+01   9.547393e+01
   5.061734e+00   4.806892e+01
  -4.315030e+01   4.247997e+01
  -1.021406e+02  -3.731030e+01
  -4.171942e+01  -5.473915e+01
   2.498299e+00  -5.546176e+01
   1.082938e+02  -6.301739e+00
   4.638826e+01   3.004250e+01
  -2.862362e+01   4.187624e+01
  -5.252858e+01  -3.753481e+01
   4.435008e+01  -6.845192e+01
   1.040317e+02  -5.588983e+01
