
 $NMID
 id='ANONYMOUS ', fmtdat='(2E16.6)'
 volume=1.0
 tramp=1.0
 $END
  -1.480268e+03   5.717423e+01
  -1.098559e+03  -7.006830e+02
   4.512603e+01  -9.726951e+02
   5.259904e+02  -6.627929e+02
   3.965454e+02  -2.239254e+02
   7.579872e+01   7.012811e+01
  -5.863587e+01   3.940063e+01
  -5.905204e+01  -1.412413e+02
   1.381757e+02  -3.535146e+02
   2.649506e+02  -1.014668e+02
   1.857613e+02   2.425730e+02
   7.133401e+01   3.457506e+02
  -1.802450e+02   1.337877e+02
  -1.744537e+02  -2.081516e+02
   5.579833e+01  -3.031974e+02
   1.842293e+02  -4.997319e+01
   1.831532e+02   2.215700e+02
  -2.654133e+01   3.633258e+02
  -2.538465e+02   2.240629e+02
  -3.531285e+02   4.339279e-01
  -1.362035e+02  -2.291781e+02
   6.086726e+01  -1.485597e+02
   3.819936e+00   2.435944e+00
  -1.307702e+02  -4.570754e+01
  -1.647022e+02  -2.301640e+02
   5.999284e+01  -3.024426e+02
   2.819138e+02  -6.651081e+01
   2.852696e+02   1.001381e+02
   1.164613e+02   2.427389e+02
  -2.050050e+02   1.541277e+02
  -3.066708e+02  -1.293773e+02
  -9.152256e+01  -2.368219e+02
   1.997387e+02  -2.010637e+02
   3.105240e+02  -5.711505e+01
   1.547353e+02   7.727889e+01
   4.612737e+01   1.854786e+02
  -1.546079e+01   1.602111e+02
   1.976671e+01  -2.783680e+01
   8.962479e+01  -1.012589e+02
   5.033755e+01   1.348902e+01
   1.831974e+00   2.556468e+02
  -9.227802e+01   2.161714e+02
  -1.335644e+02   1.428649e+01
  -7.817728e+01  -9.150655e+01
   1.145841e+01  -5.517273e+01
   4.280292e+01   1.786053e+02
  -6.530951e+01   1.608243e+02
  -2.089249e+02  -1.772888e+01
  -2.560010e+02  -2.016775e+02
  -9.884183e+01  -2.278192e+02
   1.705047e+02  -1.173912e+02
   2.131128e+02   4.344126e+01
   1.679137e+02   7.229891e+01
  -1.594038e+01   7.929830e+01
  -1.404262e+02   5.345838e+01
  -1.387297e+02   1.718889e+01
  -4.345828e+01  -6.449916e+00
   1.512650e+01   5.210822e+01
  -4.193188e+01   6.087150e+00
  -9.950268e+01  -4.087475e+01
  -5.411607e+01  -7.280761e+01
   6.695716e+01  -1.278359e+02
   2.040959e+02  -7.141907e+01
   1.787473e+02   3.737564e+01
   1.083136e+01   1.337959e+02
  -1.949462e+02   2.074489e+02
  -2.140983e+02   5.828358e+01
  -9.264028e+01  -1.638222e+02
   4.575355e+01  -2.108693e+02
   5.937121e+01  -1.445196e+02
  -2.851041e+01  -7.711066e+01
   6.397634e+00  -4.443954e+01
   9.216406e+01  -7.891960e+01
   1.643529e+02  -5.970343e+01
   1.645611e+02   5.069382e+01
   5.333784e+01   1.713589e+02
  -7.762342e+01   9.003389e+01
  -1.130527e+02  -1.703369e+01
  -6.658641e+01  -1.391189e+02
   1.243749e+01  -1.307478e+02
   1.294650e+02  -2.343144e+01
   1.812787e+02   1.153729e+02
   9.984489e+01   1.800488e+02
  -1.359247e+01   1.929951e+02
  -7.923533e+01   1.064314e+02
  -7.827048e+01   5.756496e+01
  -8.438766e+01   5.067913e+01
  -1.567832e+02   2.603421e+01
  -2.079840e+02  -7.380406e+00
  -1.544623e+02  -1.358102e+02
  -1.111250e+00  -2.508474e+02
   1.913541e+02  -1.925132e+02
   2.797436e+02  -8.108316e+01
   1.363048e+02   6.183072e+01
  -2.047454e+01   1.469012e+02
  -9.413104e+01   9.276427e+01
  -9.226420e+00   7.268749e+00
   7.680217e+01  -2.107541e+01
   7.555451e+01   4.126845e+01
   3.814841e-01   8.277969e+01
  -5.661625e+01   5.193860e+01
  -4.912405e+01  -1.510769e+01
   2.405034e+01  -5.774580e+01
   9.888616e+01   3.634986e+01
   7.871855e+01   1.853650e+02
  -4.554309e+01   2.268837e+02
  -1.650938e+02   1.222162e+02
  -2.016238e+02  -3.755918e+01
  -1.318049e+02  -1.558962e+02
  -2.181568e+01  -1.664623e+02
   5.297597e+01  -1.128126e+02
   6.969329e+01  -2.065128e+01
   6.665576e+01  -1.148909e+01
   4.365156e+01  -8.326851e+01
   2.122753e+01  -6.393001e+01
   9.356815e+01  -1.036776e+01
   1.050486e+02   6.975773e+01
   2.557961e+01   3.175081e+01
  -8.072229e+01  -1.725460e+01
  -3.742710e+01  -8.293897e+01
   1.104946e+02  -5.557759e+01
   1.828349e+02   5.412996e+01
   1.439323e+02   1.138917e+02
  -1.290972e+01   1.333433e+02
  -1.083766e+02   1.591884e+02
  -1.317369e+02   1.126053e+02
  -4.872328e+01   1.295330e+00
  -1.820263e+01  -1.294668e+01
  -1.570422e+01   2.245579e+01
  -1.299480e+01   4.532234e+01
  -1.211456e+02   1.124779e+01
  -1.261501e+02  -1.163615e+02
  -6.097694e+01  -1.293728e+02
   7.243870e+01  -9.229891e+01
   8.833373e+01  -3.853193e+01
   1.234892e+01  -4.493753e+00
  -1.556453e+01  -1.127902e+01
  -1.288304e+01  -1.175307e+02
   8.592711e+01  -8.566895e+01
   1.416245e+02   1.767659e+01
   1.206015e+02   5.657150e+01
   1.993367e+01   1.015733e+02
  -5.380133e+01   6.883325e+01
  -7.131862e+01   1.309817e+01
  -5.024728e+01  -4.380845e+01
   5.503602e+01  -3.967610e+01
   5.034664e+01   2.562632e+01
   1.189244e+01   5.559105e+00
  -7.033343e+01   3.289829e+01
  -3.619143e+01  -1.577989e+01
   3.686256e+01  -8.395492e+00
   5.508977e+01   7.632874e+01
  -1.961370e+01   1.113766e+02
  -1.052888e+02   5.932866e+01
  -1.569777e+02  -5.084859e+01
  -1.125335e+02  -1.016059e+02
   2.290822e+01  -1.443829e+02
   9.622792e+01  -8.644008e+01
   5.563714e+01  -9.690510e-01
   4.767298e+01   2.838920e+01
   5.379835e+01   4.858037e+01
   3.704821e+01  -4.081197e+00
   4.923123e+01   2.366048e+01
  -7.321083e+00   5.678896e+01
  -3.001278e+01   2.643699e+01
  -4.661587e+01   3.588526e+01
  -3.896997e+01  -3.547129e+01
   3.816224e+01  -9.760406e+01
   1.347139e+02  -8.560162e+01
   1.525022e+02   8.775068e+01
   1.670539e+01   1.636915e+02
  -1.097681e+02   8.404090e+01
  -1.399507e+02   5.225184e+01
  -1.330359e+02  -6.267382e+01
  -6.038792e+01  -9.407475e+01
  -1.642022e+01  -9.885186e+01
  -1.797641e+01  -5.415522e+01
   2.314869e+01  -5.133526e+01
   6.954380e+01  -7.133547e+01
   7.953535e+01  -3.926757e+01
   8.195588e+01   1.005705e+01
   8.504966e+01   1.066959e+02
   2.969451e+01   1.430937e+02
  -2.402017e+01   9.661044e+01
  -9.068034e+01   1.093376e+01
  -6.059569e+01  -8.724241e+01
   2.439777e+00  -5.014934e+01
   4.097258e+01  -3.755197e+01
   2.648058e+01  -3.629977e+00
  -1.194688e+01   1.597753e+01
  -4.559858e+01  -2.118447e+01
   1.960232e+01  -1.048233e+01
   5.806155e+01   1.554953e+01
   1.954777e+01   2.506806e+01
  -4.862552e+01   1.306919e+01
  -9.567488e+01   3.913997e+01
  -1.270745e+02  -7.628770e+01
  -2.493289e+01  -1.109908e+02
   1.146677e+02  -5.863411e+01
   1.001186e+02  -4.719578e+01
   4.072285e+01  -1.740457e+00
   3.436495e+00  -5.365013e-01
   1.399532e+01  -2.114541e+01
  -4.254465e+00  -3.671195e+01
   6.199061e+01  -4.320296e+01
   4.685007e+01  -5.627739e+00
   4.073670e+01   2.682440e+00
   7.829430e+00  -1.139657e+00
   1.114627e+01  -4.736383e+00
  -2.174257e+01   3.677765e+01
   3.265866e+01   3.320769e+01
  -3.728687e+01   2.677235e+01
  -4.846678e+01   4.254848e+01
  -1.112953e+02   2.252619e+01
  -8.724583e+01  -1.069756e+02
  -1.223120e+01  -8.279541e+01
   5.696737e+01   1.333350e+01
   4.003207e+01   1.987009e+01
  -4.397657e+01  -6.899477e+00
  -5.030112e+01  -7.222426e+01
  -7.901742e+01  -9.702746e+01
   4.215270e+01  -1.089828e+02
   1.106683e+02  -5.871129e+00
   8.212633e+01   1.191138e+01
   3.418109e+01   5.806611e+01
  -4.255495e+01   1.110014e+01
  -3.200916e+01   5.189620e+00
   1.383668e+01  -2.649086e+01
   6.736995e+01  -3.046304e+01
   2.105173e+01   8.447280e+01
  -8.569978e+01   8.637570e+01
  -5.651970e+01   3.879426e+01
  -7.793289e+01  -3.357907e+01
  -2.569959e+01  -1.025728e+02
   2.546186e+01  -1.054584e+02
   1.969740e+01  -2.529662e+01
   7.755550e+00   6.907555e+01
  -6.836234e-01   9.119376e+01
  -3.959197e+01   1.842943e+00
  -4.914630e+01   3.604431e+00
  -1.809820e+01   1.582674e+01
   3.054785e+01   5.274962e+01
   1.106249e+00  -2.245942e+01
  -1.539390e+01  -5.915097e+01
  -2.051304e+01  -6.629359e+01
   2.397265e+01  -3.046338e+01
   1.167974e+02   3.195829e+01
   8.285301e+01   4.974356e+01
   7.269213e+00   4.581855e+01
  -7.164066e+01   6.247232e+01
  -2.531998e+01   6.120936e+00
  -6.439424e+00   5.004831e+00
   5.448118e+01  -2.098033e+01
   1.532337e+01   4.427777e+01
  -9.987047e+00   4.212454e+01
   1.779898e+01  -3.591340e+00
   1.545834e+00   5.019836e-03
   6.231201e+01  -2.669987e+01
   4.563416e+01   7.708271e+01
  -2.546786e+01   6.890232e+01
  -6.859053e+01   2.529991e+01
  -1.019401e+02   6.040438e+00
  -4.989995e+01  -1.636678e+01
   4.954065e+01  -1.402942e+02
   8.418216e+01  -7.608088e+01
   3.945877e+01   2.469340e+01
   1.793089e+01   4.740408e+00
   1.042885e+01  -4.330024e+01
   2.660557e+01   6.600190e+00
   3.038346e+01   2.501631e+01
   3.275520e+01   9.596898e+01
  -2.453476e+01   5.715345e+01
  -1.321621e+01  -5.984828e+01
  -1.088226e+01  -7.319612e+01
  -2.970576e+01  -7.104212e+01
   3.541022e+01   1.728868e+00
   1.061944e+01   5.816021e+01
   2.925705e+01   6.312995e+01
  -5.332405e+01   6.257557e+01
  -9.108436e+01   1.644778e+01
  -2.734453e+01   2.124192e-01
   2.669693e+01  -3.422793e+01
   5.342478e+01  -1.974565e+01
   5.241352e+01   8.077986e-01
  -6.642251e+01   3.201015e+00
  -6.552843e+01   1.058822e+01
   3.057474e+01  -3.634352e+01
   9.445603e+01  -4.895325e+01
   2.815348e+01   1.582232e+01
   4.987726e+00   3.567477e+01
  -1.717373e+01   1.385689e+01
  -4.786467e+01   2.529121e+01
  -1.751028e+01  -5.147688e+01
   3.147730e+00  -3.275389e+01
   6.288887e+01   3.980067e+01
   2.587369e+01   4.186485e+01
   4.567231e+01  -6.425830e+00
   2.374188e+01   2.197626e+01
  -5.016922e+01  -1.768756e+01
  -3.716217e+01  -3.841914e+01
  -2.641537e+01   4.536401e+01
   7.346833e+00   4.006078e+01
  -4.967591e+00   1.116992e+01
  -2.373985e+01  -2.216082e+01
   2.269776e+01   1.336542e+01
   3.228433e+01   9.149506e+00
  -1.968726e+01   5.146273e+01
  -3.044231e+01   1.731087e+01
  -1.740903e+01  -3.977053e+00
   1.570596e+00  -3.312650e+01
   4.065901e+01  -9.079409e+00
   9.974850e+01   2.303380e+01
   3.447213e+01   2.653943e+01
  -1.567098e+01   3.019410e+01
  -3.317894e+01   4.442461e+01
  -5.963469e+01   4.453436e+01
   1.661490e+01  -5.349103e+01
   5.224771e+01  -1.384491e+01
  -1.152965e+01   2.899899e+01
  -4.338641e+01   4.904453e+01
